'Elapsed time','MLII','V1'
'hh:mm:ss.mmm','mV','mV'
'0:00.000',-2.045,-1.245
'0:00.003',-2.045,-1.245
'0:00.006',-2.045,-1.245
'0:00.008',-2.045,-1.245
'0:00.011',-2.045,-1.245
'0:00.014',-2.090,-1.245
'0:00.017',-2.140,-1.245
'0:00.019',-2.205,-1.345
'0:00.022',-2.270,-1.445
'0:00.025',-2.340,-1.575
'0:00.028',-2.405,-1.720
'0:00.031',-2.465,-1.830
'0:00.033',-2.545,-1.830
'0:00.036',-2.580,-1.715
'0:00.039',-2.555,-1.515
'0:00.042',-2.435,-1.310
'0:00.044',-2.220,-1.095
'0:00.047',-1.940,-0.910
'0:00.050',-1.640,-0.780
'0:00.053',-1.425,-0.690
'0:00.056',-1.215,-0.605
'0:00.058',-1.050,-0.480
'0:00.061',-0.935,-0.355
'0:00.064',-0.840,-0.210
'0:00.067',-0.780,-0.095
'0:00.069',-0.720,-0.015
'0:00.072',-0.690,0.045
'0:00.075',-0.640,0.105
'0:00.078',-0.595,0.150
'0:00.081',-0.570,0.215
'0:00.083',-0.540,0.290
'0:00.086',-0.500,0.340
'0:00.089',-0.480,0.380
'0:00.092',-0.450,0.415
'0:00.094',-0.395,0.440
'0:00.097',-0.325,0.480
'0:00.100',-0.250,0.515
'0:00.103',-0.200,0.550
'0:00.106',-0.165,0.570
'0:00.108',-0.140,0.600
'0:00.111',-0.115,0.640
'0:00.114',-0.080,0.695
'0:00.117',-0.035,0.715
'0:00.119',0.005,0.750
'0:00.122',0.045,0.745
'0:00.125',0.090,0.745
'0:00.128',0.140,0.745
'0:00.131',0.180,0.760
'0:00.133',0.235,0.750
'0:00.136',0.270,0.770
'0:00.139',0.300,0.770
'0:00.142',0.295,0.770
'0:00.144',0.300,0.775
'0:00.147',0.300,0.795
'0:00.150',0.320,0.815
'0:00.153',0.340,0.820
'0:00.156',0.345,0.820
'0:00.158',0.355,0.820
'0:00.161',0.375,0.835
'0:00.164',0.400,0.850
'0:00.167',0.430,0.870
'0:00.169',0.460,0.855
'0:00.172',0.475,0.865
'0:00.175',0.480,0.865
'0:00.178',0.495,0.865
'0:00.181',0.525,0.900
'0:00.183',0.560,0.915
'0:00.186',0.600,0.940
'0:00.189',0.635,0.945
'0:00.192',0.650,0.935
'0:00.194',0.680,0.960
'0:00.197',0.710,0.985
'0:00.200',0.755,0.995
'0:00.203',0.785,0.995
'0:00.206',0.810,1.010
'0:00.208',0.820,1.015
'0:00.211',0.840,1.035
'0:00.214',0.870,1.055
'0:00.217',0.920,1.070
'0:00.219',0.965,1.075
'0:00.222',0.980,1.090
'0:00.225',1.000,1.095
'0:00.228',1.030,1.100
'0:00.231',1.070,1.130
'0:00.233',1.095,1.145
'0:00.236',1.105,1.135
'0:00.239',1.100,1.140
'0:00.242',1.100,1.135
'0:00.244',1.115,1.135
'0:00.247',1.130,1.150
'0:00.250',1.145,1.160
'0:00.253',1.155,1.150
'0:00.256',1.150,1.130
'0:00.258',1.140,1.130
'0:00.261',1.130,1.110
'0:00.264',1.125,1.115
'0:00.267',1.130,1.105
'0:00.269',1.110,1.095
'0:00.272',1.085,1.080
'0:00.275',1.045,1.050
'0:00.278',1.015,1.030
'0:00.281',0.985,1.020
'0:00.283',0.955,1.010
'0:00.286',0.920,0.980
'0:00.289',0.880,0.940
'0:00.292',0.840,0.915
'0:00.294',0.785,0.895
'0:00.297',0.745,0.885
'0:00.300',0.720,0.865
'0:00.303',0.685,0.815
'0:00.306',0.635,0.790
'0:00.308',0.575,0.745
'0:00.311',0.515,0.715
'0:00.314',0.470,0.710
'0:00.317',0.425,0.695
'0:00.319',0.365,0.670
'0:00.322',0.305,0.650
'0:00.325',0.250,0.625
'0:00.328',0.190,0.590
'0:00.331',0.160,0.595
'0:00.333',0.140,0.580
'0:00.336',0.095,0.560
'0:00.339',0.050,0.540
'0:00.342',0.005,0.520
'0:00.344',-0.050,0.520
'0:00.347',-0.085,0.515
'0:00.350',-0.110,0.525
'0:00.353',-0.130,0.510
'0:00.356',-0.150,0.505
'0:00.358',-0.190,0.485
'0:00.361',-0.225,0.475
'0:00.364',-0.235,0.475
'0:00.367',-0.230,0.495
'0:00.369',-0.250,0.490
'0:00.372',-0.260,0.470
'0:00.375',-0.280,0.460
'0:00.378',-0.315,0.470
'0:00.381',-0.305,0.475
'0:00.383',-0.310,0.470
'0:00.386',-0.320,0.465
'0:00.389',-0.345,0.450
'0:00.392',-0.365,0.440
'0:00.394',-0.375,0.440
'0:00.397',-0.370,0.460
'0:00.400',-0.360,0.465
'0:00.403',-0.365,0.460
'0:00.406',-0.380,0.455
'0:00.408',-0.375,0.445
'0:00.411',-0.390,0.445
'0:00.414',-0.390,0.445
'0:00.417',-0.375,0.460
'0:00.419',-0.385,0.455
'0:00.422',-0.390,0.440
'0:00.425',-0.410,0.440
'0:00.428',-0.395,0.430
'0:00.431',-0.400,0.445
'0:00.433',-0.380,0.450
'0:00.436',-0.380,0.440
'0:00.439',-0.375,0.445
'0:00.442',-0.390,0.435
'0:00.444',-0.395,0.430
'0:00.447',-0.405,0.440
'0:00.450',-0.380,0.455
'0:00.453',-0.375,0.445
'0:00.456',-0.380,0.445
'0:00.458',-0.390,0.430
'0:00.461',-0.415,0.430
'0:00.464',-0.410,0.440
'0:00.467',-0.385,0.440
'0:00.469',-0.390,0.440
'0:00.472',-0.395,0.430
'0:00.475',-0.390,0.405
'0:00.478',-0.385,0.405
'0:00.481',-0.370,0.425
'0:00.483',-0.360,0.430
'0:00.486',-0.350,0.425
'0:00.489',-0.350,0.410
'0:00.492',-0.345,0.410
'0:00.494',-0.350,0.410
'0:00.497',-0.330,0.410
'0:00.500',-0.325,0.415
'0:00.503',-0.330,0.395
'0:00.506',-0.335,0.390
'0:00.508',-0.340,0.375
'0:00.511',-0.350,0.380
'0:00.514',-0.345,0.380
'0:00.517',-0.350,0.390
'0:00.519',-0.335,0.395
'0:00.522',-0.340,0.385
'0:00.525',-0.335,0.365
'0:00.528',-0.355,0.350
'0:00.531',-0.335,0.365
'0:00.533',-0.315,0.360
'0:00.536',-0.320,0.365
'0:00.539',-0.335,0.360
'0:00.542',-0.365,0.355
'0:00.544',-0.375,0.335
'0:00.547',-0.360,0.340
'0:00.550',-0.340,0.345
'0:00.553',-0.325,0.350
'0:00.556',-0.335,0.335
'0:00.558',-0.340,0.320
'0:00.561',-0.360,0.320
'0:00.564',-0.380,0.330
'0:00.567',-0.370,0.340
'0:00.569',-0.360,0.330
'0:00.572',-0.355,0.330
'0:00.575',-0.375,0.310
'0:00.578',-0.375,0.310
'0:00.581',-0.360,0.320
'0:00.583',-0.355,0.320
'0:00.586',-0.350,0.330
'0:00.589',-0.350,0.310
'0:00.592',-0.365,0.300
'0:00.594',-0.365,0.300
'0:00.597',-0.355,0.305
'0:00.600',-0.345,0.305
'0:00.603',-0.355,0.305
'0:00.606',-0.350,0.300
'0:00.608',-0.370,0.290
'0:00.611',-0.365,0.295
'0:00.614',-0.350,0.305
'0:00.617',-0.350,0.310
'0:00.619',-0.350,0.295
'0:00.622',-0.365,0.290
'0:00.625',-0.360,0.280
'0:00.628',-0.365,0.285
'0:00.631',-0.355,0.285
'0:00.633',-0.345,0.310
'0:00.636',-0.345,0.305
'0:00.639',-0.345,0.280
'0:00.642',-0.360,0.280
'0:00.644',-0.360,0.275
'0:00.647',-0.335,0.270
'0:00.650',-0.340,0.280
'0:00.653',-0.340,0.280
'0:00.656',-0.345,0.270
'0:00.658',-0.360,0.255
'0:00.661',-0.370,0.255
'0:00.664',-0.355,0.275
'0:00.667',-0.340,0.280
'0:00.669',-0.340,0.265
'0:00.672',-0.350,0.255
'0:00.675',-0.365,0.245
'0:00.678',-0.365,0.255
'0:00.681',-0.355,0.265
'0:00.683',-0.340,0.275
'0:00.686',-0.325,0.255
'0:00.689',-0.325,0.240
'0:00.692',-0.335,0.235
'0:00.694',-0.360,0.245
'0:00.697',-0.335,0.265
'0:00.700',-0.310,0.290
'0:00.703',-0.300,0.330
'0:00.706',-0.300,0.335
'0:00.708',-0.285,0.325
'0:00.711',-0.280,0.340
'0:00.714',-0.245,0.345
'0:00.717',-0.215,0.335
'0:00.719',-0.190,0.295
'0:00.722',-0.160,0.150
'0:00.725',-0.125,-0.165
'0:00.728',-0.055,-0.545
'0:00.731',0.085,-0.610
'0:00.733',0.325,-0.315
'0:00.736',0.805,-0.050
'0:00.739',1.400,0.010
'0:00.742',1.800,-0.040
'0:00.744',1.890,-0.050
'0:00.747',1.815,-0.030
'0:00.750',1.730,-0.025
'0:00.753',1.665,-0.050
'0:00.756',1.620,-0.080
'0:00.758',1.540,-0.120
'0:00.761',1.440,-0.150
'0:00.764',1.330,-0.165
'0:00.767',1.260,-0.185
'0:00.769',1.165,-0.215
'0:00.772',1.100,-0.245
'0:00.775',1.005,-0.280
'0:00.778',0.895,-0.295
'0:00.781',0.790,-0.300
'0:00.783',0.675,-0.315
'0:00.786',0.530,-0.350
'0:00.789',0.390,-0.405
'0:00.792',0.210,-0.450
'0:00.794',0.020,-0.530
'0:00.797',-0.175,-0.585
'0:00.800',-0.390,-0.630
'0:00.803',-0.610,-0.680
'0:00.806',-0.865,-0.715
'0:00.808',-1.105,-0.755
'0:00.811',-1.310,-0.825
'0:00.814',-1.500,-0.925
'0:00.817',-1.650,-1.050
'0:00.819',-1.805,-1.240
'0:00.822',-1.945,-1.400
'0:00.825',-2.045,-1.495
'0:00.828',-2.120,-1.565
'0:00.831',-2.170,-1.655
'0:00.833',-2.195,-1.745
'0:00.836',-2.260,-1.845
'0:00.839',-2.345,-1.950
'0:00.842',-2.430,-2.030
'0:00.844',-2.500,-2.135
'0:00.847',-2.530,-2.245
'0:00.850',-2.565,-2.335
'0:00.853',-2.630,-2.335
'0:00.856',-2.675,-2.225
'0:00.858',-2.690,-2.055
'0:00.861',-2.600,-1.855
'0:00.864',-2.395,-1.660
'0:00.867',-2.165,-1.460
'0:00.869',-1.940,-1.290
'0:00.872',-1.750,-1.115
'0:00.875',-1.580,-1.010
'0:00.878',-1.455,-0.865
'0:00.881',-1.340,-0.725
'0:00.883',-1.260,-0.595
'0:00.886',-1.185,-0.490
'0:00.889',-1.135,-0.410
'0:00.892',-1.090,-0.350
'0:00.894',-1.065,-0.260
'0:00.897',-1.010,-0.170
'0:00.900',-0.980,-0.105
'0:00.903',-0.975,-0.070
'0:00.906',-0.970,-0.030
'0:00.908',-0.965,-0.005
'0:00.911',-0.950,0.035
'0:00.914',-0.875,0.085
'0:00.917',-0.810,0.130
'0:00.919',-0.750,0.160
'0:00.922',-0.690,0.185
'0:00.925',-0.650,0.210
'0:00.928',-0.605,0.255
'0:00.931',-0.555,0.300
'0:00.933',-0.465,0.315
'0:00.936',-0.405,0.345
'0:00.939',-0.340,0.355
'0:00.942',-0.275,0.360
'0:00.944',-0.215,0.375
'0:00.947',-0.170,0.400
'0:00.950',-0.095,0.410
'0:00.953',-0.035,0.415
'0:00.956',0.000,0.415
'0:00.958',0.045,0.425
'0:00.961',0.050,0.430
'0:00.964',0.050,0.450
'0:00.967',0.075,0.460
'0:00.969',0.085,0.460
'0:00.972',0.105,0.455
'0:00.975',0.105,0.465
'0:00.978',0.120,0.470
'0:00.981',0.145,0.500
'0:00.983',0.185,0.510
'0:00.986',0.215,0.520
'0:00.989',0.235,0.530
'0:00.992',0.255,0.510
'0:00.994',0.265,0.535
'0:00.997',0.300,0.555
'0:01.000',0.335,0.565
'0:01.003',0.360,0.585
'0:01.006',0.365,0.590
'0:01.008',0.370,0.595
'0:01.011',0.400,0.605
'0:01.014',0.435,0.615
'0:01.017',0.490,0.640
'0:01.019',0.525,0.650
'0:01.022',0.560,0.645
'0:01.025',0.585,0.655
'0:01.028',0.600,0.665
'0:01.031',0.635,0.700
'0:01.033',0.685,0.705
'0:01.036',0.720,0.735
'0:01.039',0.750,0.720
'0:01.042',0.775,0.730
'0:01.044',0.810,0.750
'0:01.047',0.845,0.755
'0:01.050',0.880,0.770
'0:01.053',0.910,0.775
'0:01.056',0.940,0.755
'0:01.058',0.960,0.755
'0:01.061',0.950,0.770
'0:01.064',0.970,0.790
'0:01.067',0.995,0.815
'0:01.069',1.015,0.805
'0:01.072',1.010,0.790
'0:01.075',1.010,0.785
'0:01.078',1.010,0.795
'0:01.081',1.015,0.800
'0:01.083',1.035,0.795
'0:01.086',1.035,0.785
'0:01.089',1.010,0.765
'0:01.092',0.990,0.755
'0:01.094',0.965,0.725
'0:01.097',0.950,0.730
'0:01.100',0.955,0.710
'0:01.103',0.925,0.695
'0:01.106',0.875,0.655
'0:01.108',0.865,0.630
'0:01.111',0.830,0.610
'0:01.114',0.800,0.605
'0:01.117',0.790,0.575
'0:01.119',0.750,0.540
'0:01.122',0.720,0.510
'0:01.125',0.670,0.485
'0:01.128',0.620,0.445
'0:01.131',0.585,0.440
'0:01.133',0.540,0.405
'0:01.136',0.495,0.370
'0:01.139',0.450,0.320
'0:01.142',0.385,0.285
'0:01.144',0.320,0.275
'0:01.147',0.290,0.265
'0:01.150',0.250,0.245
'0:01.153',0.225,0.225
'0:01.156',0.175,0.190
'0:01.158',0.120,0.165
'0:01.161',0.065,0.150
'0:01.164',0.040,0.140
'0:01.167',0.010,0.160
'0:01.169',-0.020,0.155
'0:01.172',-0.055,0.125
'0:01.175',-0.090,0.115
'0:01.178',-0.135,0.100
'0:01.181',-0.150,0.105
'0:01.183',-0.165,0.110
'0:01.186',-0.185,0.100
'0:01.189',-0.210,0.085
'0:01.192',-0.220,0.065
'0:01.194',-0.240,0.065
'0:01.197',-0.260,0.075
'0:01.200',-0.260,0.085
'0:01.203',-0.280,0.080
'0:01.206',-0.295,0.045
'0:01.208',-0.310,0.040
'0:01.211',-0.330,0.060
'0:01.214',-0.320,0.075
'0:01.217',-0.330,0.075
'0:01.219',-0.320,0.070
'0:01.222',-0.335,0.060
'0:01.225',-0.345,0.055
'0:01.228',-0.350,0.060
'0:01.231',-0.350,0.045
'0:01.233',-0.335,0.055
'0:01.236',-0.345,0.065
'0:01.239',-0.360,0.070
'0:01.242',-0.375,0.065
'0:01.244',-0.390,0.060
'0:01.247',-0.390,0.065
'0:01.250',-0.370,0.085
'0:01.253',-0.370,0.105
'0:01.256',-0.385,0.090
'0:01.258',-0.395,0.075
'0:01.261',-0.390,0.070
'0:01.264',-0.385,0.075
'0:01.267',-0.375,0.090
'0:01.269',-0.365,0.085
'0:01.272',-0.370,0.075
'0:01.275',-0.385,0.060
'0:01.278',-0.395,0.065
'0:01.281',-0.400,0.095
'0:01.283',-0.385,0.115
'0:01.286',-0.365,0.105
'0:01.289',-0.370,0.090
'0:01.292',-0.390,0.070
'0:01.294',-0.400,0.075
'0:01.297',-0.385,0.095
'0:01.300',-0.345,0.095
'0:01.303',-0.320,0.095
'0:01.306',-0.310,0.085
'0:01.308',-0.335,0.070
'0:01.311',-0.345,0.075
'0:01.314',-0.355,0.080
'0:01.317',-0.345,0.085
'0:01.319',-0.330,0.085
'0:01.322',-0.325,0.075
'0:01.325',-0.340,0.055
'0:01.328',-0.345,0.055
'0:01.331',-0.330,0.065
'0:01.333',-0.325,0.065
'0:01.336',-0.325,0.070
'0:01.339',-0.345,0.050
'0:01.342',-0.355,0.040
'0:01.344',-0.355,0.045
'0:01.347',-0.350,0.035
'0:01.350',-0.345,0.035
'0:01.353',-0.340,0.040
'0:01.356',-0.360,0.045
'0:01.358',-0.355,0.045
'0:01.361',-0.360,0.030
'0:01.364',-0.350,0.035
'0:01.367',-0.350,0.045
'0:01.369',-0.350,0.030
'0:01.372',-0.375,0.025
'0:01.375',-0.375,0.015
'0:01.378',-0.385,0.010
'0:01.381',-0.380,0.020
'0:01.383',-0.365,0.040
'0:01.386',-0.350,0.050
'0:01.389',-0.360,0.055
'0:01.392',-0.380,0.055
'0:01.394',-0.375,0.075
'0:01.397',-0.345,0.110
'0:01.400',-0.325,0.145
'0:01.403',-0.305,0.185
'0:01.406',-0.295,0.175
'0:01.408',-0.295,0.170
'0:01.411',-0.285,0.175
'0:01.414',-0.255,0.210
'0:01.417',-0.210,0.230
'0:01.419',-0.170,0.240
'0:01.422',-0.130,0.220
'0:01.425',-0.120,0.200
'0:01.428',-0.115,0.185
'0:01.431',-0.095,0.165
'0:01.433',-0.075,0.105
'0:01.436',-0.060,0.060
'0:01.439',-0.025,0.040
'0:01.442',-0.015,0.030
'0:01.444',-0.015,0.030
'0:01.447',-0.020,0.015
'0:01.450',-0.030,0.005
'0:01.453',-0.050,-0.020
'0:01.456',-0.060,-0.050
'0:01.458',-0.080,-0.065
'0:01.461',-0.100,-0.065
'0:01.464',-0.080,-0.025
'0:01.467',-0.065,-0.020
'0:01.469',-0.075,-0.030
'0:01.472',-0.090,-0.050
'0:01.475',-0.110,-0.065
'0:01.478',-0.115,-0.075
'0:01.481',-0.110,-0.070
'0:01.483',-0.120,-0.055
'0:01.486',-0.150,-0.055
'0:01.489',-0.185,-0.065
'0:01.492',-0.215,-0.070
'0:01.494',-0.250,-0.065
'0:01.497',-0.265,-0.055
'0:01.500',-0.270,-0.040
'0:01.503',-0.295,-0.040
'0:01.506',-0.325,-0.060
'0:01.508',-0.345,-0.075
'0:01.511',-0.370,-0.070
'0:01.514',-0.375,-0.070
'0:01.517',-0.380,-0.070
'0:01.519',-0.385,-0.090
'0:01.522',-0.390,-0.110
'0:01.525',-0.410,-0.120
'0:01.528',-0.435,-0.130
'0:01.531',-0.425,-0.105
'0:01.533',-0.445,-0.105
'0:01.536',-0.440,-0.110
'0:01.539',-0.445,-0.130
'0:01.542',-0.440,-0.180
'0:01.544',-0.425,-0.215
'0:01.547',-0.400,-0.300
'0:01.550',-0.370,-0.540
'0:01.553',-0.330,-0.955
'0:01.556',-0.255,-1.205
'0:01.558',-0.075,-1.045
'0:01.561',0.335,-0.730
'0:01.564',0.950,-0.525
'0:01.567',1.515,-0.485
'0:01.569',1.740,-0.470
'0:01.572',1.640,-0.460
'0:01.575',1.470,-0.450
'0:01.578',1.365,-0.435
'0:01.581',1.320,-0.435
'0:01.583',1.295,-0.435
'0:01.586',1.210,-0.455
'0:01.589',1.135,-0.480
'0:01.592',1.035,-0.505
'0:01.594',0.930,-0.515
'0:01.597',0.875,-0.515
'0:01.600',0.800,-0.540
'0:01.603',0.720,-0.560
'0:01.606',0.625,-0.595
'0:01.608',0.500,-0.630
'0:01.611',0.385,-0.645
'0:01.614',0.290,-0.660
'0:01.617',0.170,-0.705
'0:01.619',0.055,-0.750
'0:01.622',-0.095,-0.830
'0:01.625',-0.250,-0.930
'0:01.628',-0.395,-1.000
'0:01.631',-0.520,-1.040
'0:01.633',-0.650,-1.085
'0:01.636',-0.795,-1.125
'0:01.639',-0.970,-1.210
'0:01.642',-1.155,-1.340
'0:01.644',-1.350,-1.470
'0:01.647',-1.490,-1.630
'0:01.650',-1.575,-1.740
'0:01.653',-1.620,-1.850
'0:01.656',-1.660,-1.935
'0:01.658',-1.720,-2.005
'0:01.661',-1.755,-2.085
'0:01.664',-1.805,-2.175
'0:01.667',-1.905,-2.260
'0:01.669',-2.010,-2.345
'0:01.672',-2.125,-2.460
'0:01.675',-2.215,-2.545
'0:01.678',-2.290,-2.630
'0:01.681',-2.375,-2.645
'0:01.683',-2.425,-2.545
'0:01.686',-2.475,-2.385
'0:01.689',-2.445,-2.235
'0:01.692',-2.350,-2.080
'0:01.694',-2.205,-1.905
'0:01.697',-2.030,-1.735
'0:01.700',-1.850,-1.570
'0:01.703',-1.675,-1.410
'0:01.706',-1.505,-1.265
'0:01.708',-1.400,-1.125
'0:01.711',-1.345,-0.980
'0:01.714',-1.280,-0.860
'0:01.717',-1.230,-0.755
'0:01.719',-1.180,-0.660
'0:01.722',-1.140,-0.570
'0:01.725',-1.100,-0.490
'0:01.728',-1.075,-0.400
'0:01.731',-1.045,-0.335
'0:01.733',-1.030,-0.275
'0:01.736',-1.010,-0.215
'0:01.739',-0.985,-0.165
'0:01.742',-0.940,-0.135
'0:01.744',-0.885,-0.080
'0:01.747',-0.810,-0.040
'0:01.750',-0.745,0.005
'0:01.753',-0.660,0.055
'0:01.756',-0.615,0.070
'0:01.758',-0.585,0.090
'0:01.761',-0.525,0.120
'0:01.764',-0.440,0.150
'0:01.767',-0.365,0.185
'0:01.769',-0.275,0.195
'0:01.772',-0.215,0.210
'0:01.775',-0.150,0.210
'0:01.778',-0.105,0.225
'0:01.781',-0.045,0.230
'0:01.783',0.015,0.255
'0:01.786',0.050,0.260
'0:01.789',0.065,0.260
'0:01.792',0.085,0.260
'0:01.794',0.100,0.265
'0:01.797',0.125,0.280
'0:01.800',0.150,0.300
'0:01.803',0.170,0.300
'0:01.806',0.175,0.310
'0:01.808',0.185,0.295
'0:01.811',0.205,0.325
'0:01.814',0.220,0.335
'0:01.817',0.255,0.340
'0:01.819',0.270,0.355
'0:01.822',0.285,0.350
'0:01.825',0.305,0.340
'0:01.828',0.310,0.355
'0:01.831',0.340,0.370
'0:01.833',0.365,0.390
'0:01.836',0.385,0.415
'0:01.839',0.415,0.415
'0:01.842',0.435,0.410
'0:01.844',0.445,0.430
'0:01.847',0.485,0.450
'0:01.850',0.515,0.460
'0:01.853',0.555,0.480
'0:01.856',0.565,0.485
'0:01.858',0.595,0.470
'0:01.861',0.610,0.490
'0:01.864',0.645,0.505
'0:01.867',0.675,0.520
'0:01.869',0.710,0.540
'0:01.872',0.730,0.530
'0:01.875',0.755,0.545
'0:01.878',0.775,0.575
'0:01.881',0.810,0.585
'0:01.883',0.830,0.605
'0:01.886',0.850,0.610
'0:01.889',0.870,0.610
'0:01.892',0.880,0.615
'0:01.894',0.905,0.625
'0:01.897',0.915,0.650
'0:01.900',0.935,0.650
'0:01.903',0.950,0.650
'0:01.906',0.940,0.645
'0:01.908',0.950,0.635
'0:01.911',0.940,0.630
'0:01.914',0.955,0.640
'0:01.917',0.960,0.635
'0:01.919',0.950,0.665
'0:01.922',0.945,0.645
'0:01.925',0.930,0.625
'0:01.928',0.925,0.615
'0:01.931',0.920,0.615
'0:01.933',0.910,0.595
'0:01.936',0.880,0.590
'0:01.939',0.865,0.560
'0:01.942',0.830,0.535
'0:01.944',0.805,0.520
'0:01.947',0.785,0.500
'0:01.950',0.770,0.485
'0:01.953',0.745,0.455
'0:01.956',0.715,0.435
'0:01.958',0.680,0.400
'0:01.961',0.650,0.375
'0:01.964',0.620,0.360
'0:01.967',0.595,0.340
'0:01.969',0.555,0.290
'0:01.972',0.525,0.255
'0:01.975',0.485,0.205
'0:01.978',0.420,0.190
'0:01.981',0.395,0.170
'0:01.983',0.365,0.170
'0:01.986',0.330,0.155
'0:01.989',0.290,0.115
'0:01.992',0.235,0.070
'0:01.994',0.195,0.050
'0:01.997',0.170,0.045
'0:02.000',0.155,0.045
'0:02.003',0.100,0.025
'0:02.006',0.060,-0.005
'0:02.008',0.025,-0.015
'0:02.011',-0.025,-0.015
'0:02.014',-0.040,-0.020
'0:02.017',-0.075,-0.030
'0:02.019',-0.100,-0.045
'0:02.022',-0.135,-0.060
'0:02.025',-0.165,-0.070
'0:02.028',-0.210,-0.065
'0:02.031',-0.210,-0.060
'0:02.033',-0.210,-0.065
'0:02.036',-0.230,-0.065
'0:02.039',-0.250,-0.085
'0:02.042',-0.265,-0.090
'0:02.044',-0.295,-0.090
'0:02.047',-0.295,-0.085
'0:02.050',-0.290,-0.080
'0:02.053',-0.305,-0.085
'0:02.056',-0.310,-0.100
'0:02.058',-0.315,-0.095
'0:02.061',-0.325,-0.095
'0:02.064',-0.340,-0.085
'0:02.067',-0.345,-0.065
'0:02.069',-0.350,-0.075
'0:02.072',-0.355,-0.085
'0:02.075',-0.355,-0.100
'0:02.078',-0.365,-0.085
'0:02.081',-0.360,-0.090
'0:02.083',-0.345,-0.080
'0:02.086',-0.360,-0.085
'0:02.089',-0.370,-0.090
'0:02.092',-0.375,-0.095
'0:02.094',-0.385,-0.090
'0:02.097',-0.375,-0.080
'0:02.100',-0.365,-0.070
'0:02.103',-0.380,-0.055
'0:02.106',-0.380,-0.065
'0:02.108',-0.375,-0.045
'0:02.111',-0.375,-0.010
'0:02.114',-0.370,0.030
'0:02.117',-0.355,0.055
'0:02.119',-0.340,0.065
'0:02.122',-0.330,0.065
'0:02.125',-0.320,0.060
'0:02.128',-0.310,0.090
'0:02.131',-0.270,0.110
'0:02.133',-0.230,0.130
'0:02.136',-0.180,0.145
'0:02.139',-0.150,0.135
'0:02.142',-0.120,0.145
'0:02.144',-0.110,0.150
'0:02.147',-0.085,0.135
'0:02.150',-0.060,0.125
'0:02.153',-0.050,0.065
'0:02.156',-0.035,0.020
'0:02.158',-0.025,-0.005
'0:02.161',-0.015,-0.020
'0:02.164',0.005,-0.025
'0:02.167',0.005,-0.035
'0:02.169',-0.025,-0.060
'0:02.172',-0.055,-0.090
'0:02.175',-0.085,-0.095
'0:02.178',-0.100,-0.100
'0:02.181',-0.100,-0.110
'0:02.183',-0.095,-0.110
'0:02.186',-0.080,-0.125
'0:02.189',-0.075,-0.135
'0:02.192',-0.085,-0.140
'0:02.194',-0.100,-0.140
'0:02.197',-0.075,-0.135
'0:02.200',-0.080,-0.140
'0:02.203',-0.095,-0.145
'0:02.206',-0.110,-0.145
'0:02.208',-0.130,-0.170
'0:02.211',-0.155,-0.175
'0:02.214',-0.165,-0.155
'0:02.217',-0.200,-0.145
'0:02.219',-0.225,-0.145
'0:02.222',-0.245,-0.140
'0:02.225',-0.255,-0.130
'0:02.228',-0.290,-0.140
'0:02.231',-0.305,-0.145
'0:02.233',-0.330,-0.150
'0:02.236',-0.330,-0.160
'0:02.239',-0.360,-0.175
'0:02.242',-0.385,-0.175
'0:02.244',-0.405,-0.170
'0:02.247',-0.420,-0.165
'0:02.250',-0.425,-0.180
'0:02.253',-0.450,-0.190
'0:02.256',-0.440,-0.190
'0:02.258',-0.480,-0.205
'0:02.261',-0.475,-0.200
'0:02.264',-0.470,-0.200
'0:02.267',-0.470,-0.200
'0:02.269',-0.480,-0.200
'0:02.272',-0.495,-0.205
'0:02.275',-0.495,-0.220
'0:02.278',-0.505,-0.210
'0:02.281',-0.495,-0.215
'0:02.283',-0.485,-0.200
'0:02.286',-0.490,-0.205
'0:02.289',-0.490,-0.220
'0:02.292',-0.495,-0.240
'0:02.294',-0.510,-0.230
'0:02.297',-0.515,-0.225
'0:02.300',-0.500,-0.225
'0:02.303',-0.505,-0.220
'0:02.306',-0.510,-0.230
'0:02.308',-0.510,-0.230
'0:02.311',-0.515,-0.225
'0:02.314',-0.510,-0.225
'0:02.317',-0.495,-0.220
'0:02.319',-0.505,-0.225
'0:02.322',-0.505,-0.215
'0:02.325',-0.510,-0.245
'0:02.328',-0.515,-0.225
'0:02.331',-0.510,-0.220
'0:02.333',-0.500,-0.220
'0:02.336',-0.505,-0.215
'0:02.339',-0.520,-0.235
'0:02.342',-0.520,-0.245
'0:02.344',-0.535,-0.250
'0:02.347',-0.530,-0.225
'0:02.350',-0.515,-0.230
'0:02.353',-0.510,-0.230
'0:02.356',-0.505,-0.230
'0:02.358',-0.515,-0.240
'0:02.361',-0.520,-0.230
'0:02.364',-0.530,-0.220
'0:02.367',-0.505,-0.215
'0:02.369',-0.500,-0.215
'0:02.372',-0.500,-0.240
'0:02.375',-0.505,-0.250
'0:02.378',-0.520,-0.240
'0:02.381',-0.515,-0.235
'0:02.383',-0.500,-0.220
'0:02.386',-0.495,-0.240
'0:02.389',-0.500,-0.245
'0:02.392',-0.515,-0.250
'0:02.394',-0.510,-0.235
'0:02.397',-0.515,-0.220
'0:02.400',-0.500,-0.220
'0:02.403',-0.480,-0.225
'0:02.406',-0.475,-0.235
'0:02.408',-0.485,-0.260
'0:02.411',-0.485,-0.265
'0:02.414',-0.475,-0.270
'0:02.417',-0.450,-0.270
'0:02.419',-0.440,-0.285
'0:02.422',-0.425,-0.325
'0:02.425',-0.420,-0.460
'0:02.428',-0.400,-0.750
'0:02.431',-0.350,-1.115
'0:02.433',-0.240,-1.200
'0:02.436',-0.010,-0.985
'0:02.439',0.415,-0.770
'0:02.442',0.970,-0.675
'0:02.444',1.465,-0.630
'0:02.447',1.660,-0.605
'0:02.450',1.590,-0.565
'0:02.453',1.470,-0.535
'0:02.456',1.375,-0.555
'0:02.458',1.315,-0.555
'0:02.461',1.260,-0.560
'0:02.464',1.185,-0.565
'0:02.467',1.110,-0.600
'0:02.469',1.015,-0.620
'0:02.472',0.935,-0.625
'0:02.475',0.840,-0.655
'0:02.478',0.755,-0.665
'0:02.481',0.695,-0.680
'0:02.483',0.620,-0.705
'0:02.486',0.515,-0.740
'0:02.489',0.395,-0.760
'0:02.492',0.265,-0.775
'0:02.494',0.130,-0.795
'0:02.497',0.000,-0.815
'0:02.500',-0.130,-0.865
'0:02.503',-0.290,-0.950
'0:02.506',-0.480,-1.030
'0:02.508',-0.690,-1.100
'0:02.511',-0.900,-1.140
'0:02.514',-1.090,-1.170
'0:02.517',-1.280,-1.225
'0:02.519',-1.460,-1.290
'0:02.522',-1.640,-1.400
'0:02.525',-1.830,-1.515
'0:02.528',-1.990,-1.640
'0:02.531',-2.080,-1.740
'0:02.533',-2.130,-1.810
'0:02.536',-2.170,-1.855
'0:02.539',-2.185,-1.930
'0:02.542',-2.215,-2.010
'0:02.544',-2.250,-2.080
'0:02.547',-2.305,-2.130
'0:02.550',-2.380,-2.180
'0:02.553',-2.470,-2.255
'0:02.556',-2.535,-2.365
'0:02.558',-2.585,-2.475
'0:02.561',-2.630,-2.510
'0:02.564',-2.665,-2.450
'0:02.567',-2.650,-2.310
'0:02.569',-2.590,-2.150
'0:02.572',-2.485,-2.010
'0:02.575',-2.340,-1.880
'0:02.578',-2.230,-1.710
'0:02.581',-2.050,-1.555
'0:02.583',-1.875,-1.410
'0:02.586',-1.700,-1.295
'0:02.589',-1.545,-1.190
'0:02.592',-1.435,-1.075
'0:02.594',-1.380,-0.970
'0:02.597',-1.295,-0.870
'0:02.600',-1.225,-0.780
'0:02.603',-1.145,-0.685
'0:02.606',-1.105,-0.630
'0:02.608',-1.060,-0.580
'0:02.611',-1.015,-0.515
'0:02.614',-0.965,-0.445
'0:02.617',-0.935,-0.385
'0:02.619',-0.915,-0.330
'0:02.622',-0.905,-0.300
'0:02.625',-0.885,-0.275
'0:02.628',-0.835,-0.225
'0:02.631',-0.750,-0.175
'0:02.633',-0.675,-0.135
'0:02.636',-0.620,-0.090
'0:02.639',-0.570,-0.075
'0:02.642',-0.530,-0.050
'0:02.644',-0.470,-0.025
'0:02.647',-0.405,0.020
'0:02.650',-0.335,0.060
'0:02.653',-0.270,0.080
'0:02.656',-0.220,0.085
'0:02.658',-0.160,0.090
'0:02.661',-0.095,0.120
'0:02.664',-0.025,0.135
'0:02.667',0.020,0.145
'0:02.669',0.090,0.150
'0:02.672',0.135,0.140
'0:02.675',0.155,0.140
'0:02.678',0.175,0.150
'0:02.681',0.200,0.185
'0:02.683',0.220,0.205
'0:02.686',0.235,0.205
'0:02.689',0.235,0.200
'0:02.692',0.245,0.205
'0:02.694',0.265,0.215
'0:02.697',0.305,0.240
'0:02.700',0.330,0.255
'0:02.703',0.350,0.255
'0:02.706',0.340,0.265
'0:02.708',0.355,0.255
'0:02.711',0.360,0.270
'0:02.714',0.390,0.280
'0:02.717',0.420,0.305
'0:02.719',0.425,0.310
'0:02.722',0.440,0.300
'0:02.725',0.440,0.310
'0:02.728',0.460,0.335
'0:02.731',0.490,0.340
'0:02.733',0.525,0.350
'0:02.736',0.535,0.365
'0:02.739',0.550,0.375
'0:02.742',0.570,0.375
'0:02.744',0.585,0.375
'0:02.747',0.600,0.410
'0:02.750',0.630,0.430
'0:02.753',0.650,0.435
'0:02.756',0.675,0.430
'0:02.758',0.705,0.435
'0:02.761',0.730,0.450
'0:02.764',0.765,0.475
'0:02.767',0.800,0.500
'0:02.769',0.805,0.505
'0:02.772',0.795,0.510
'0:02.775',0.815,0.535
'0:02.778',0.850,0.560
'0:02.781',0.880,0.560
'0:02.783',0.895,0.570
'0:02.786',0.895,0.565
'0:02.789',0.895,0.570
'0:02.792',0.885,0.595
'0:02.794',0.905,0.595
'0:02.797',0.920,0.615
'0:02.800',0.925,0.610
'0:02.803',0.925,0.600
'0:02.806',0.920,0.595
'0:02.808',0.930,0.605
'0:02.811',0.940,0.615
'0:02.814',0.955,0.615
'0:02.817',0.945,0.605
'0:02.819',0.930,0.590
'0:02.822',0.905,0.585
'0:02.825',0.890,0.575
'0:02.828',0.880,0.570
'0:02.831',0.880,0.565
'0:02.833',0.855,0.550
'0:02.836',0.835,0.525
'0:02.839',0.815,0.495
'0:02.842',0.790,0.495
'0:02.844',0.780,0.475
'0:02.847',0.755,0.465
'0:02.850',0.740,0.435
'0:02.853',0.710,0.405
'0:02.856',0.675,0.375
'0:02.858',0.650,0.355
'0:02.861',0.620,0.345
'0:02.864',0.615,0.340
'0:02.867',0.600,0.340
'0:02.869',0.555,0.320
'0:02.872',0.525,0.310
'0:02.875',0.495,0.305
'0:02.878',0.475,0.305
'0:02.881',0.455,0.315
'0:02.883',0.450,0.285
'0:02.886',0.435,0.255
'0:02.889',0.405,0.230
'0:02.892',0.400,0.220
'0:02.894',0.395,0.220
'0:02.897',0.405,0.230
'0:02.900',0.400,0.205
'0:02.903',0.385,0.170
'0:02.906',0.365,0.125
'0:02.908',0.325,0.090
'0:02.911',0.320,0.055
'0:02.914',0.315,0.035
'0:02.917',0.310,-0.005
'0:02.919',0.300,-0.030
'0:02.922',0.285,-0.070
'0:02.925',0.235,-0.095
'0:02.928',0.195,-0.105
'0:02.931',0.160,-0.115
'0:02.933',0.110,-0.120
'0:02.936',0.080,-0.130
'0:02.939',0.040,-0.140
'0:02.942',0.010,-0.145
'0:02.944',0.020,-0.135
'0:02.947',0.020,-0.135
'0:02.950',0.015,-0.135
'0:02.953',-0.010,-0.140
'0:02.956',-0.035,-0.150
'0:02.958',-0.050,-0.145
'0:02.961',-0.070,-0.120
'0:02.964',-0.085,-0.120
'0:02.967',-0.105,-0.130
'0:02.969',-0.120,-0.140
'0:02.972',-0.150,-0.135
'0:02.975',-0.180,-0.125
'0:02.978',-0.210,-0.125
'0:02.981',-0.230,-0.110
'0:02.983',-0.250,-0.100
'0:02.986',-0.290,-0.115
'0:02.989',-0.320,-0.125
'0:02.992',-0.360,-0.125
'0:02.994',-0.370,-0.125
'0:02.997',-0.400,-0.110
'0:03.000',-0.415,-0.100
'0:03.003',-0.435,-0.110
'0:03.006',-0.460,-0.125
'0:03.008',-0.470,-0.135
'0:03.011',-0.465,-0.130
'0:03.014',-0.480,-0.120
'0:03.017',-0.490,-0.130
'0:03.019',-0.515,-0.130
'0:03.022',-0.535,-0.140
'0:03.025',-0.550,-0.120
'0:03.028',-0.545,-0.115
'0:03.031',-0.540,-0.115
'0:03.033',-0.545,-0.115
'0:03.036',-0.550,-0.120
'0:03.039',-0.545,-0.115
'0:03.042',-0.560,-0.110
'0:03.044',-0.555,-0.095
'0:03.047',-0.550,-0.100
'0:03.050',-0.555,-0.105
'0:03.053',-0.560,-0.115
'0:03.056',-0.565,-0.115
'0:03.058',-0.585,-0.115
'0:03.061',-0.570,-0.100
'0:03.064',-0.550,-0.095
'0:03.067',-0.565,-0.105
'0:03.069',-0.555,-0.120
'0:03.072',-0.575,-0.120
'0:03.075',-0.570,-0.125
'0:03.078',-0.570,-0.110
'0:03.081',-0.555,-0.095
'0:03.083',-0.550,-0.120
'0:03.086',-0.555,-0.115
'0:03.089',-0.550,-0.145
'0:03.092',-0.560,-0.140
'0:03.094',-0.560,-0.130
'0:03.097',-0.545,-0.125
'0:03.100',-0.550,-0.125
'0:03.103',-0.550,-0.140
'0:03.106',-0.565,-0.150
'0:03.108',-0.550,-0.140
'0:03.111',-0.555,-0.135
'0:03.114',-0.540,-0.120
'0:03.117',-0.565,-0.125
'0:03.119',-0.575,-0.145
'0:03.122',-0.595,-0.145
'0:03.125',-0.615,-0.140
'0:03.128',-0.620,-0.125
'0:03.131',-0.605,-0.135
'0:03.133',-0.580,-0.140
'0:03.136',-0.585,-0.150
'0:03.139',-0.585,-0.150
'0:03.142',-0.595,-0.140
'0:03.144',-0.600,-0.130
'0:03.147',-0.590,-0.135
'0:03.150',-0.605,-0.130
'0:03.153',-0.600,-0.145
'0:03.156',-0.585,-0.150
'0:03.158',-0.580,-0.135
'0:03.161',-0.575,-0.130
'0:03.164',-0.575,-0.135
'0:03.167',-0.590,-0.120
'0:03.169',-0.595,-0.130
'0:03.172',-0.615,-0.120
'0:03.175',-0.585,-0.135
'0:03.178',-0.565,-0.115
'0:03.181',-0.545,-0.105
'0:03.183',-0.555,-0.110
'0:03.186',-0.560,-0.110
'0:03.189',-0.570,-0.115
'0:03.192',-0.575,-0.115
'0:03.194',-0.560,-0.095
'0:03.197',-0.570,-0.090
'0:03.200',-0.585,-0.105
'0:03.203',-0.590,-0.105
'0:03.206',-0.590,-0.110
'0:03.208',-0.590,-0.095
'0:03.211',-0.580,-0.080
'0:03.214',-0.570,-0.075
'0:03.217',-0.550,-0.075
'0:03.219',-0.535,-0.085
'0:03.222',-0.540,-0.095
'0:03.225',-0.550,-0.075
'0:03.228',-0.535,-0.065
'0:03.231',-0.515,-0.060
'0:03.233',-0.515,-0.080
'0:03.236',-0.525,-0.075
'0:03.239',-0.545,-0.070
'0:03.242',-0.565,-0.060
'0:03.244',-0.560,-0.055
'0:03.247',-0.550,-0.045
'0:03.250',-0.515,-0.065
'0:03.253',-0.510,-0.065
'0:03.256',-0.510,-0.065
'0:03.258',-0.530,-0.065
'0:03.261',-0.515,-0.060
'0:03.264',-0.515,-0.060
'0:03.267',-0.500,-0.065
'0:03.269',-0.495,-0.060
'0:03.272',-0.495,-0.070
'0:03.275',-0.490,-0.080
'0:03.278',-0.490,-0.065
'0:03.281',-0.480,-0.060
'0:03.283',-0.475,-0.060
'0:03.286',-0.470,-0.065
'0:03.289',-0.470,-0.085
'0:03.292',-0.465,-0.070
'0:03.294',-0.465,-0.065
'0:03.297',-0.455,-0.070
'0:03.300',-0.460,-0.090
'0:03.303',-0.450,-0.085
'0:03.306',-0.435,-0.090
'0:03.308',-0.440,-0.100
'0:03.311',-0.425,-0.110
'0:03.314',-0.405,-0.145
'0:03.317',-0.400,-0.260
'0:03.319',-0.380,-0.545
'0:03.322',-0.325,-0.955
'0:03.325',-0.215,-1.125
'0:03.328',0.050,-0.900
'0:03.331',0.540,-0.615
'0:03.333',1.150,-0.470
'0:03.336',1.595,-0.455
'0:03.339',1.705,-0.450
'0:03.342',1.570,-0.420
'0:03.344',1.430,-0.390
'0:03.347',1.360,-0.375
'0:03.350',1.315,-0.380
'0:03.353',1.250,-0.405
'0:03.356',1.160,-0.415
'0:03.358',1.055,-0.425
'0:03.361',0.965,-0.425
'0:03.364',0.885,-0.440
'0:03.367',0.795,-0.455
'0:03.369',0.715,-0.480
'0:03.372',0.600,-0.520
'0:03.375',0.470,-0.525
'0:03.378',0.340,-0.530
'0:03.381',0.215,-0.535
'0:03.383',0.065,-0.570
'0:03.386',-0.095,-0.610
'0:03.389',-0.265,-0.685
'0:03.392',-0.435,-0.750
'0:03.394',-0.615,-0.805
'0:03.397',-0.820,-0.860
'0:03.400',-1.025,-0.880
'0:03.403',-1.240,-0.935
'0:03.406',-1.425,-0.990
'0:03.408',-1.600,-1.070
'0:03.411',-1.745,-1.190
'0:03.414',-1.900,-1.310
'0:03.417',-2.005,-1.430
'0:03.419',-2.085,-1.515
'0:03.422',-2.140,-1.570
'0:03.425',-2.170,-1.645
'0:03.428',-2.190,-1.705
'0:03.431',-2.230,-1.785
'0:03.433',-2.295,-1.895
'0:03.436',-2.395,-2.005
'0:03.439',-2.470,-2.110
'0:03.442',-2.550,-2.240
'0:03.444',-2.590,-2.340
'0:03.447',-2.640,-2.365
'0:03.450',-2.680,-2.270
'0:03.453',-2.685,-2.130
'0:03.456',-2.610,-1.985
'0:03.458',-2.460,-1.815
'0:03.461',-2.265,-1.650
'0:03.464',-2.070,-1.485
'0:03.467',-1.870,-1.325
'0:03.469',-1.685,-1.180
'0:03.472',-1.545,-1.085
'0:03.475',-1.460,-0.950
'0:03.478',-1.385,-0.820
'0:03.481',-1.315,-0.685
'0:03.483',-1.230,-0.575
'0:03.486',-1.170,-0.495
'0:03.489',-1.120,-0.425
'0:03.492',-1.065,-0.345
'0:03.494',-1.000,-0.255
'0:03.497',-0.955,-0.180
'0:03.500',-0.940,-0.125
'0:03.503',-0.935,-0.080
'0:03.506',-0.935,-0.045
'0:03.508',-0.915,0.015
'0:03.511',-0.845,0.055
'0:03.514',-0.775,0.090
'0:03.517',-0.700,0.120
'0:03.519',-0.655,0.150
'0:03.522',-0.605,0.180
'0:03.525',-0.550,0.220
'0:03.528',-0.495,0.260
'0:03.531',-0.435,0.285
'0:03.533',-0.375,0.325
'0:03.536',-0.320,0.335
'0:03.539',-0.240,0.340
'0:03.542',-0.165,0.370
'0:03.544',-0.095,0.390
'0:03.547',-0.045,0.405
'0:03.550',0.015,0.395
'0:03.553',0.060,0.405
'0:03.556',0.090,0.400
'0:03.558',0.120,0.420
'0:03.561',0.145,0.445
'0:03.564',0.175,0.450
'0:03.567',0.185,0.465
'0:03.569',0.195,0.460
'0:03.572',0.200,0.455
'0:03.575',0.230,0.475
'0:03.578',0.255,0.490
'0:03.581',0.285,0.505
'0:03.583',0.285,0.515
'0:03.586',0.300,0.515
'0:03.589',0.310,0.530
'0:03.592',0.340,0.540
'0:03.594',0.380,0.575
'0:03.597',0.410,0.605
'0:03.600',0.435,0.635
'0:03.603',0.460,0.655
'0:03.606',0.485,0.685
'0:03.608',0.515,0.705
'0:03.611',0.540,0.750
'0:03.614',0.580,0.760
'0:03.617',0.625,0.775
'0:03.619',0.655,0.785
'0:03.622',0.710,0.795
'0:03.625',0.765,0.825
'0:03.628',0.825,0.855
'0:03.631',0.895,0.885
'0:03.633',0.930,0.890
'0:03.636',0.980,0.875
'0:03.639',1.005,0.845
'0:03.642',1.040,0.835
'0:03.644',1.080,0.820
'0:03.647',1.105,0.820
'0:03.650',1.145,0.820
'0:03.653',1.170,0.815
'0:03.656',1.195,0.780
'0:03.658',1.195,0.785
'0:03.661',1.195,0.795
'0:03.664',1.195,0.805
'0:03.667',1.195,0.790
'0:03.669',1.200,0.790
'0:03.672',1.200,0.780
'0:03.675',1.210,0.805
'0:03.678',1.200,0.810
'0:03.681',1.220,0.830
'0:03.683',1.225,0.830
'0:03.686',1.210,0.810
'0:03.689',1.185,0.805
'0:03.692',1.175,0.800
'0:03.694',1.175,0.815
'0:03.697',1.160,0.790
'0:03.700',1.125,0.780
'0:03.703',1.080,0.775
'0:03.706',1.045,0.745
'0:03.708',1.005,0.755
'0:03.711',0.975,0.750
'0:03.714',0.945,0.735
'0:03.717',0.895,0.720
'0:03.719',0.850,0.675
'0:03.722',0.795,0.655
'0:03.725',0.745,0.620
'0:03.728',0.700,0.600
'0:03.731',0.665,0.570
'0:03.733',0.635,0.535
'0:03.736',0.570,0.500
'0:03.739',0.530,0.455
'0:03.742',0.475,0.435
'0:03.744',0.430,0.410
'0:03.747',0.380,0.390
'0:03.750',0.325,0.355
'0:03.753',0.275,0.340
'0:03.756',0.225,0.305
'0:03.758',0.180,0.275
'0:03.761',0.140,0.270
'0:03.764',0.105,0.250
'0:03.767',0.045,0.225
'0:03.769',-0.005,0.190
'0:03.772',-0.070,0.175
'0:03.775',-0.110,0.165
'0:03.778',-0.140,0.160
'0:03.781',-0.160,0.160
'0:03.783',-0.195,0.140
'0:03.786',-0.245,0.125
'0:03.789',-0.280,0.115
'0:03.792',-0.320,0.100
'0:03.794',-0.345,0.105
'0:03.797',-0.370,0.100
'0:03.800',-0.400,0.105
'0:03.803',-0.435,0.085
'0:03.806',-0.455,0.075
'0:03.808',-0.475,0.090
'0:03.811',-0.480,0.085
'0:03.814',-0.490,0.095
'0:03.817',-0.505,0.080
'0:03.819',-0.535,0.080
'0:03.822',-0.545,0.065
'0:03.825',-0.565,0.070
'0:03.828',-0.570,0.085
'0:03.831',-0.570,0.085
'0:03.833',-0.580,0.080
'0:03.836',-0.595,0.070
'0:03.839',-0.620,0.070
'0:03.842',-0.640,0.065
'0:03.844',-0.630,0.085
'0:03.847',-0.635,0.095
'0:03.850',-0.630,0.095
'0:03.853',-0.640,0.085
'0:03.856',-0.665,0.080
'0:03.858',-0.655,0.080
'0:03.861',-0.660,0.090
'0:03.864',-0.650,0.090
'0:03.867',-0.660,0.095
'0:03.869',-0.665,0.100
'0:03.872',-0.680,0.095
'0:03.875',-0.690,0.105
'0:03.878',-0.675,0.115
'0:03.881',-0.675,0.115
'0:03.883',-0.675,0.110
'0:03.886',-0.690,0.120
'0:03.889',-0.690,0.100
'0:03.892',-0.690,0.105
'0:03.894',-0.675,0.120
'0:03.897',-0.680,0.135
'0:03.900',-0.690,0.130
'0:03.903',-0.690,0.115
'0:03.906',-0.705,0.110
'0:03.908',-0.690,0.130
'0:03.911',-0.675,0.145
'0:03.914',-0.665,0.150
'0:03.917',-0.665,0.145
'0:03.919',-0.660,0.140
'0:03.922',-0.675,0.135
'0:03.925',-0.675,0.140
'0:03.928',-0.670,0.155
'0:03.931',-0.660,0.170
'0:03.933',-0.645,0.170
'0:03.936',-0.660,0.155
'0:03.939',-0.670,0.155
'0:03.942',-0.670,0.165
'0:03.944',-0.655,0.170
'0:03.947',-0.645,0.160
'0:03.950',-0.640,0.150
'0:03.953',-0.640,0.145
'0:03.956',-0.645,0.150
'0:03.958',-0.645,0.150
'0:03.961',-0.640,0.145
'0:03.964',-0.620,0.150
'0:03.967',-0.620,0.150
'0:03.969',-0.625,0.145
'0:03.972',-0.610,0.135
'0:03.975',-0.625,0.140
'0:03.978',-0.605,0.155
'0:03.981',-0.605,0.155
'0:03.983',-0.610,0.135
'0:03.986',-0.610,0.130
'0:03.989',-0.615,0.120
'0:03.992',-0.615,0.125
'0:03.994',-0.605,0.125
'0:03.997',-0.595,0.145
'0:04.000',-0.600,0.135
'0:04.003',-0.595,0.120
'0:04.006',-0.600,0.110
'0:04.008',-0.605,0.105
'0:04.011',-0.585,0.120
'0:04.014',-0.570,0.125
'0:04.017',-0.570,0.115
'0:04.019',-0.585,0.105
'0:04.022',-0.600,0.105
'0:04.025',-0.610,0.105
'0:04.028',-0.605,0.115
'0:04.031',-0.595,0.115
'0:04.033',-0.595,0.115
'0:04.036',-0.605,0.100
'0:04.039',-0.600,0.095
'0:04.042',-0.610,0.110
'0:04.044',-0.590,0.110
'0:04.047',-0.585,0.120
'0:04.050',-0.580,0.095
'0:04.053',-0.585,0.090
'0:04.056',-0.595,0.095
'0:04.058',-0.600,0.095
'0:04.061',-0.595,0.095
'0:04.064',-0.585,0.110
'0:04.067',-0.585,0.105
'0:04.069',-0.590,0.095
'0:04.072',-0.590,0.090
'0:04.075',-0.580,0.090
'0:04.078',-0.575,0.105
'0:04.081',-0.565,0.100
'0:04.083',-0.565,0.100
'0:04.086',-0.580,0.080
'0:04.089',-0.580,0.090
'0:04.092',-0.580,0.085
'0:04.094',-0.570,0.095
'0:04.097',-0.565,0.100
'0:04.100',-0.560,0.090
'0:04.103',-0.575,0.080
'0:04.106',-0.585,0.080
'0:04.108',-0.590,0.090
'0:04.111',-0.555,0.100
'0:04.114',-0.555,0.095
'0:04.117',-0.565,0.090
'0:04.119',-0.560,0.075
'0:04.122',-0.555,0.070
'0:04.125',-0.550,0.085
'0:04.128',-0.535,0.095
'0:04.131',-0.530,0.095
'0:04.133',-0.540,0.090
'0:04.136',-0.550,0.080
'0:04.139',-0.545,0.065
'0:04.142',-0.565,0.075
'0:04.144',-0.555,0.085
'0:04.147',-0.540,0.075
'0:04.150',-0.540,0.075
'0:04.153',-0.540,0.065
'0:04.156',-0.530,0.060
'0:04.158',-0.535,0.060
'0:04.161',-0.535,0.070
'0:04.164',-0.520,0.075
'0:04.167',-0.510,0.060
'0:04.169',-0.510,0.040
'0:04.172',-0.515,0.025
'0:04.175',-0.520,0.030
'0:04.178',-0.485,0.020
'0:04.181',-0.470,0.005
'0:04.183',-0.465,-0.025
'0:04.186',-0.445,-0.105
'0:04.189',-0.445,-0.315
'0:04.192',-0.420,-0.710
'0:04.194',-0.350,-1.035
'0:04.197',-0.190,-0.950
'0:04.200',0.155,-0.655
'0:04.203',0.715,-0.435
'0:04.206',1.300,-0.390
'0:04.208',1.595,-0.360
'0:04.211',1.550,-0.345
'0:04.214',1.370,-0.310
'0:04.217',1.260,-0.310
'0:04.219',1.185,-0.325
'0:04.222',1.125,-0.340
'0:04.225',1.025,-0.345
'0:04.228',0.925,-0.350
'0:04.231',0.810,-0.380
'0:04.233',0.705,-0.400
'0:04.236',0.595,-0.435
'0:04.239',0.475,-0.455
'0:04.242',0.350,-0.460
'0:04.244',0.245,-0.470
'0:04.247',0.105,-0.490
'0:04.250',-0.070,-0.525
'0:04.253',-0.260,-0.570
'0:04.256',-0.450,-0.620
'0:04.258',-0.640,-0.670
'0:04.261',-0.835,-0.725
'0:04.264',-1.030,-0.780
'0:04.267',-1.280,-0.830
'0:04.269',-1.510,-0.880
'0:04.272',-1.715,-0.930
'0:04.275',-1.895,-0.985
'0:04.278',-2.065,-1.070
'0:04.281',-2.195,-1.205
'0:04.283',-2.295,-1.345
'0:04.286',-2.395,-1.465
'0:04.289',-2.460,-1.555
'0:04.292',-2.485,-1.600
'0:04.294',-2.510,-1.680
'0:04.297',-2.540,-1.760
'0:04.300',-2.615,-1.865
'0:04.303',-2.690,-1.965
'0:04.306',-2.760,-2.075
'0:04.308',-2.820,-2.185
'0:04.311',-2.875,-2.295
'0:04.314',-2.910,-2.335
'0:04.317',-2.945,-2.270
'0:04.319',-2.940,-2.145
'0:04.322',-2.845,-1.980
'0:04.325',-2.665,-1.790
'0:04.328',-2.440,-1.550
'0:04.331',-2.200,-1.355
'0:04.333',-1.975,-1.165
'0:04.336',-1.770,-1.010
'0:04.339',-1.625,-0.880
'0:04.342',-1.535,-0.745
'0:04.344',-1.425,-0.595
'0:04.347',-1.330,-0.455
'0:04.350',-1.220,-0.335
'0:04.353',-1.105,-0.245
'0:04.356',-1.015,-0.155
'0:04.358',-0.925,-0.075
'0:04.361',-0.845,-0.020
'0:04.364',-0.780,0.010
'0:04.367',-0.730,0.020
'0:04.369',-0.675,0.010
'0:04.372',-0.630,0.025
'0:04.375',-0.550,0.045
'0:04.378',-0.445,0.065
'0:04.381',-0.355,0.090
'0:04.383',-0.315,0.095
'0:04.386',-0.295,0.105
'0:04.389',-0.260,0.130
'0:04.392',-0.220,0.150
'0:04.394',-0.150,0.190
'0:04.397',-0.080,0.200
'0:04.400',-0.005,0.225
'0:04.403',0.070,0.235
'0:04.406',0.105,0.245
'0:04.408',0.160,0.250
'0:04.411',0.220,0.270
'0:04.414',0.270,0.295
'0:04.417',0.290,0.290
'0:04.419',0.310,0.280
'0:04.422',0.290,0.290
'0:04.425',0.275,0.315
'0:04.428',0.280,0.340
'0:04.431',0.270,0.370
'0:04.433',0.265,0.375
'0:04.436',0.255,0.385
'0:04.439',0.240,0.380
'0:04.442',0.245,0.385
'0:04.444',0.255,0.395
'0:04.447',0.270,0.400
'0:04.450',0.270,0.405
'0:04.453',0.275,0.405
'0:04.456',0.255,0.390
'0:04.458',0.270,0.415
'0:04.461',0.305,0.420
'0:04.464',0.320,0.450
'0:04.467',0.325,0.450
'0:04.469',0.320,0.460
'0:04.472',0.340,0.470
'0:04.475',0.355,0.495
'0:04.478',0.390,0.520
'0:04.481',0.415,0.535
'0:04.483',0.450,0.540
'0:04.486',0.480,0.555
'0:04.489',0.500,0.560
'0:04.492',0.515,0.590
'0:04.494',0.550,0.620
'0:04.497',0.590,0.625
'0:04.500',0.615,0.635
'0:04.503',0.640,0.645
'0:04.506',0.665,0.645
'0:04.508',0.685,0.670
'0:04.511',0.715,0.695
'0:04.514',0.745,0.710
'0:04.517',0.760,0.720
'0:04.519',0.770,0.720
'0:04.522',0.775,0.725
'0:04.525',0.785,0.740
'0:04.528',0.805,0.750
'0:04.531',0.825,0.760
'0:04.533',0.830,0.755
'0:04.536',0.815,0.755
'0:04.539',0.810,0.760
'0:04.542',0.810,0.740
'0:04.544',0.820,0.750
'0:04.547',0.825,0.745
'0:04.550',0.800,0.725
'0:04.553',0.775,0.710
'0:04.556',0.755,0.690
'0:04.558',0.735,0.680
'0:04.561',0.700,0.665
'0:04.564',0.675,0.640
'0:04.567',0.655,0.620
'0:04.569',0.615,0.595
'0:04.572',0.595,0.555
'0:04.575',0.540,0.535
'0:04.578',0.525,0.520
'0:04.581',0.475,0.490
'0:04.583',0.430,0.465
'0:04.586',0.375,0.435
'0:04.589',0.335,0.390
'0:04.592',0.280,0.370
'0:04.594',0.240,0.355
'0:04.597',0.200,0.335
'0:04.600',0.155,0.300
'0:04.603',0.100,0.260
'0:04.606',0.045,0.240
'0:04.608',0.000,0.220
'0:04.611',-0.035,0.210
'0:04.614',-0.065,0.185
'0:04.617',-0.125,0.165
'0:04.619',-0.175,0.145
'0:04.622',-0.235,0.130
'0:04.625',-0.275,0.130
'0:04.628',-0.305,0.130
'0:04.631',-0.335,0.120
'0:04.633',-0.375,0.100
'0:04.636',-0.415,0.085
'0:04.639',-0.465,0.075
'0:04.642',-0.490,0.080
'0:04.644',-0.490,0.080
'0:04.647',-0.500,0.090
'0:04.650',-0.540,0.085
'0:04.653',-0.570,0.060
'0:04.656',-0.595,0.060
'0:04.658',-0.615,0.070
'0:04.661',-0.620,0.075
'0:04.664',-0.620,0.070
'0:04.667',-0.630,0.065
'0:04.669',-0.640,0.060
'0:04.672',-0.655,0.045
'0:04.675',-0.665,0.055
'0:04.678',-0.665,0.080
'0:04.681',-0.665,0.075
'0:04.683',-0.680,0.070
'0:04.686',-0.690,0.065
'0:04.689',-0.705,0.070
'0:04.692',-0.710,0.075
'0:04.694',-0.690,0.080
'0:04.697',-0.690,0.085
'0:04.700',-0.695,0.090
'0:04.703',-0.695,0.075
'0:04.706',-0.710,0.080
'0:04.708',-0.705,0.070
'0:04.711',-0.705,0.090
'0:04.714',-0.680,0.110
'0:04.717',-0.710,0.095
'0:04.719',-0.725,0.085
'0:04.722',-0.720,0.075
'0:04.725',-0.730,0.080
'0:04.728',-0.710,0.085
'0:04.731',-0.710,0.095
'0:04.733',-0.705,0.085
'0:04.736',-0.705,0.085
'0:04.739',-0.695,0.080
'0:04.742',-0.705,0.095
'0:04.744',-0.685,0.100
'0:04.747',-0.675,0.110
'0:04.750',-0.680,0.095
'0:04.753',-0.690,0.090
'0:04.756',-0.700,0.090
'0:04.758',-0.695,0.090
'0:04.761',-0.680,0.095
'0:04.764',-0.670,0.100
'0:04.767',-0.680,0.100
'0:04.769',-0.675,0.085
'0:04.772',-0.670,0.080
'0:04.775',-0.675,0.090
'0:04.778',-0.660,0.100
'0:04.781',-0.645,0.100
'0:04.783',-0.650,0.095
'0:04.786',-0.655,0.085
'0:04.789',-0.665,0.070
'0:04.792',-0.655,0.085
'0:04.794',-0.640,0.090
'0:04.797',-0.615,0.085
'0:04.800',-0.630,0.090
'0:04.803',-0.640,0.090
'0:04.806',-0.655,0.070
'0:04.808',-0.650,0.085
'0:04.811',-0.645,0.075
'0:04.814',-0.620,0.075
'0:04.817',-0.620,0.065
'0:04.819',-0.610,0.070
'0:04.822',-0.630,0.050
'0:04.825',-0.645,0.050
'0:04.828',-0.635,0.065
'0:04.831',-0.630,0.070
'0:04.833',-0.625,0.055
'0:04.836',-0.630,0.050
'0:04.839',-0.640,0.050
'0:04.842',-0.640,0.040
'0:04.844',-0.625,0.055
'0:04.847',-0.625,0.060
'0:04.850',-0.635,0.060
'0:04.853',-0.635,0.045
'0:04.856',-0.640,0.030
'0:04.858',-0.645,0.045
'0:04.861',-0.635,0.050
'0:04.864',-0.625,0.060
'0:04.867',-0.635,0.055
'0:04.869',-0.630,0.040
'0:04.872',-0.630,0.015
'0:04.875',-0.635,0.030
'0:04.878',-0.625,0.025
'0:04.881',-0.635,0.040
'0:04.883',-0.635,0.045
'0:04.886',-0.645,0.030
'0:04.889',-0.650,0.015
'0:04.892',-0.640,0.025
'0:04.894',-0.625,0.045
'0:04.897',-0.610,0.045
'0:04.900',-0.610,0.035
'0:04.903',-0.615,0.030
'0:04.906',-0.625,0.020
'0:04.908',-0.630,0.010
'0:04.911',-0.630,0.035
'0:04.914',-0.625,0.040
'0:04.917',-0.605,0.030
'0:04.919',-0.610,0.015
'0:04.922',-0.615,0.015
'0:04.925',-0.630,0.025
'0:04.928',-0.605,0.030
'0:04.931',-0.600,0.040
'0:04.933',-0.600,0.035
'0:04.936',-0.610,0.020
'0:04.939',-0.620,0.015
'0:04.942',-0.630,0.030
'0:04.944',-0.615,0.035
'0:04.947',-0.580,0.030
'0:04.950',-0.590,0.035
'0:04.953',-0.600,0.020
'0:04.956',-0.610,0.005
'0:04.958',-0.610,0.010
'0:04.961',-0.600,0.015
'0:04.964',-0.605,0.020
'0:04.967',-0.595,0.030
'0:04.969',-0.605,0.000
'0:04.972',-0.600,-0.010
'0:04.975',-0.605,0.005
'0:04.978',-0.575,0.020
'0:04.981',-0.575,0.020
'0:04.983',-0.585,0.005
'0:04.986',-0.585,0.000
'0:04.989',-0.585,-0.010
'0:04.992',-0.580,0.005
'0:04.994',-0.565,0.010
'0:04.997',-0.555,0.000
'0:05.000',-0.560,0.000
'0:05.003',-0.570,-0.030
'0:05.006',-0.575,-0.030
'0:05.008',-0.575,-0.040
'0:05.011',-0.560,-0.030
'0:05.014',-0.540,-0.045
'0:05.017',-0.525,-0.065
'0:05.019',-0.505,-0.115
'0:05.022',-0.485,-0.225
'0:05.025',-0.470,-0.500
'0:05.028',-0.425,-0.875
'0:05.031',-0.315,-0.945
'0:05.033',-0.075,-0.665
'0:05.036',0.410,-0.380
'0:05.039',1.025,-0.255
'0:05.042',1.445,-0.195
'0:05.044',1.460,-0.170
'0:05.047',1.280,-0.160
'0:05.050',1.115,-0.130
'0:05.053',1.075,-0.135
'0:05.056',1.035,-0.145
'0:05.058',1.000,-0.140
'0:05.061',0.930,-0.160
'0:05.064',0.845,-0.180
'0:05.067',0.745,-0.250
'0:05.069',0.640,-0.330
'0:05.072',0.540,-0.395
'0:05.075',0.445,-0.435
'0:05.078',0.375,-0.465
'0:05.081',0.285,-0.485
'0:05.083',0.135,-0.525
'0:05.086',-0.040,-0.590
'0:05.089',-0.230,-0.645
'0:05.092',-0.450,-0.695
'0:05.094',-0.655,-0.760
'0:05.097',-0.860,-0.840
'0:05.100',-1.105,-0.900
'0:05.103',-1.370,-0.960
'0:05.106',-1.605,-0.985
'0:05.108',-1.810,-1.055
'0:05.111',-1.980,-1.160
'0:05.114',-2.130,-1.285
'0:05.117',-2.255,-1.430
'0:05.119',-2.320,-1.565
'0:05.122',-2.390,-1.655
'0:05.125',-2.440,-1.725
'0:05.128',-2.450,-1.795
'0:05.131',-2.500,-1.865
'0:05.133',-2.610,-1.955
'0:05.136',-2.710,-2.035
'0:05.139',-2.790,-2.130
'0:05.142',-2.865,-2.240
'0:05.144',-2.910,-2.340
'0:05.147',-2.945,-2.375
'0:05.150',-2.960,-2.305
'0:05.153',-2.950,-2.175
'0:05.156',-2.870,-2.015
'0:05.158',-2.695,-1.860
'0:05.161',-2.490,-1.670
'0:05.164',-2.305,-1.510
'0:05.167',-2.135,-1.350
'0:05.169',-1.980,-1.230
'0:05.172',-1.850,-1.125
'0:05.175',-1.735,-0.975
'0:05.178',-1.625,-0.835
'0:05.181',-1.515,-0.700
'0:05.183',-1.425,-0.610
'0:05.186',-1.355,-0.520
'0:05.189',-1.290,-0.455
'0:05.192',-1.220,-0.370
'0:05.194',-1.180,-0.275
'0:05.197',-1.145,-0.245
'0:05.200',-1.135,-0.205
'0:05.203',-1.115,-0.170
'0:05.206',-1.085,-0.120
'0:05.208',-1.050,-0.070
'0:05.211',-0.955,-0.050
'0:05.214',-0.890,-0.005
'0:05.217',-0.810,0.030
'0:05.219',-0.755,0.050
'0:05.222',-0.700,0.065
'0:05.225',-0.640,0.105
'0:05.228',-0.540,0.150
'0:05.231',-0.450,0.170
'0:05.233',-0.380,0.185
'0:05.236',-0.335,0.180
'0:05.239',-0.280,0.200
'0:05.242',-0.230,0.215
'0:05.244',-0.170,0.230
'0:05.247',-0.090,0.240
'0:05.250',-0.045,0.250
'0:05.253',-0.020,0.250
'0:05.256',-0.010,0.250
'0:05.258',0.010,0.275
'0:05.261',0.030,0.290
'0:05.264',0.065,0.305
'0:05.267',0.075,0.320
'0:05.269',0.095,0.315
'0:05.272',0.110,0.315
'0:05.275',0.125,0.340
'0:05.278',0.160,0.365
'0:05.281',0.175,0.380
'0:05.283',0.195,0.380
'0:05.286',0.205,0.385
'0:05.289',0.225,0.385
'0:05.292',0.240,0.410
'0:05.294',0.265,0.440
'0:05.297',0.290,0.450
'0:05.300',0.325,0.450
'0:05.303',0.355,0.460
'0:05.306',0.390,0.470
'0:05.308',0.415,0.490
'0:05.311',0.465,0.515
'0:05.314',0.475,0.535
'0:05.317',0.510,0.540
'0:05.319',0.535,0.545
'0:05.322',0.570,0.550
'0:05.325',0.600,0.575
'0:05.328',0.645,0.600
'0:05.331',0.695,0.610
'0:05.333',0.720,0.625
'0:05.336',0.750,0.630
'0:05.339',0.770,0.630
'0:05.342',0.800,0.650
'0:05.344',0.865,0.660
'0:05.347',0.895,0.680
'0:05.350',0.915,0.690
'0:05.353',0.940,0.680
'0:05.356',0.940,0.680
'0:05.358',0.965,0.695
'0:05.361',0.990,0.715
'0:05.364',1.010,0.710
'0:05.367',1.020,0.705
'0:05.369',1.020,0.695
'0:05.372',1.010,0.680
'0:05.375',1.015,0.680
'0:05.378',1.025,0.690
'0:05.381',1.035,0.675
'0:05.383',1.020,0.665
'0:05.386',1.000,0.640
'0:05.389',0.975,0.615
'0:05.392',0.945,0.615
'0:05.394',0.915,0.600
'0:05.397',0.890,0.580
'0:05.400',0.855,0.555
'0:05.403',0.830,0.515
'0:05.406',0.785,0.480
'0:05.408',0.750,0.465
'0:05.411',0.725,0.440
'0:05.414',0.680,0.425
'0:05.417',0.635,0.385
'0:05.419',0.590,0.335
'0:05.422',0.545,0.315
'0:05.425',0.485,0.295
'0:05.428',0.455,0.285
'0:05.431',0.420,0.255
'0:05.433',0.375,0.220
'0:05.436',0.320,0.180
'0:05.439',0.270,0.155
'0:05.442',0.210,0.140
'0:05.444',0.170,0.120
'0:05.447',0.145,0.105
'0:05.450',0.090,0.090
'0:05.453',0.045,0.055
'0:05.456',-0.005,0.045
'0:05.458',-0.050,0.045
'0:05.461',-0.080,0.030
'0:05.464',-0.115,0.030
'0:05.467',-0.165,0.015
'0:05.469',-0.220,-0.020
'0:05.472',-0.275,-0.020
'0:05.475',-0.300,-0.010
'0:05.478',-0.320,-0.030
'0:05.481',-0.340,-0.035
'0:05.483',-0.350,-0.030
'0:05.486',-0.370,-0.030
'0:05.489',-0.385,-0.040
'0:05.492',-0.420,-0.035
'0:05.494',-0.440,-0.025
'0:05.497',-0.425,-0.035
'0:05.500',-0.420,-0.030
'0:05.503',-0.405,-0.050
'0:05.506',-0.415,-0.060
'0:05.508',-0.445,-0.040
'0:05.511',-0.465,-0.035
'0:05.514',-0.455,-0.030
'0:05.517',-0.465,-0.040
'0:05.519',-0.485,-0.055
'0:05.522',-0.495,-0.055
'0:05.525',-0.505,-0.045
'0:05.528',-0.495,-0.030
'0:05.531',-0.490,-0.020
'0:05.533',-0.525,-0.025
'0:05.536',-0.530,-0.040
'0:05.539',-0.545,-0.050
'0:05.542',-0.545,-0.040
'0:05.544',-0.515,-0.035
'0:05.547',-0.485,-0.025
'0:05.550',-0.490,-0.025
'0:05.553',-0.500,-0.030
'0:05.556',-0.505,-0.030
'0:05.558',-0.510,-0.015
'0:05.561',-0.500,-0.030
'0:05.564',-0.505,-0.015
'0:05.567',-0.540,-0.030
'0:05.569',-0.550,-0.020
'0:05.572',-0.520,-0.025
'0:05.575',-0.495,-0.020
'0:05.578',-0.495,-0.015
'0:05.581',-0.510,-0.010
'0:05.583',-0.505,0.000
'0:05.586',-0.485,-0.020
'0:05.589',-0.490,-0.025
'0:05.592',-0.495,-0.025
'0:05.594',-0.490,-0.010
'0:05.597',-0.480,0.000
'0:05.600',-0.480,-0.010
'0:05.603',-0.495,-0.030
'0:05.606',-0.505,-0.040
'0:05.608',-0.505,-0.035
'0:05.611',-0.490,0.000
'0:05.614',-0.480,-0.015
'0:05.617',-0.485,-0.030
'0:05.619',-0.480,-0.040
'0:05.622',-0.490,-0.040
'0:05.625',-0.475,-0.040
'0:05.628',-0.465,-0.030
'0:05.631',-0.455,-0.035
'0:05.633',-0.455,-0.045
'0:05.636',-0.465,-0.055
'0:05.639',-0.490,-0.060
'0:05.642',-0.490,-0.055
'0:05.644',-0.495,-0.060
'0:05.647',-0.450,-0.055
'0:05.650',-0.445,-0.055
'0:05.653',-0.440,-0.060
'0:05.656',-0.455,-0.090
'0:05.658',-0.470,-0.065
'0:05.661',-0.470,-0.075
'0:05.664',-0.485,-0.060
'0:05.667',-0.480,-0.075
'0:05.669',-0.490,-0.075
'0:05.672',-0.495,-0.085
'0:05.675',-0.485,-0.075
'0:05.678',-0.475,-0.080
'0:05.681',-0.470,-0.075
'0:05.683',-0.485,-0.090
'0:05.686',-0.495,-0.090
'0:05.689',-0.500,-0.110
'0:05.692',-0.505,-0.100
'0:05.694',-0.490,-0.090
'0:05.697',-0.485,-0.090
'0:05.700',-0.490,-0.100
'0:05.703',-0.495,-0.105
'0:05.706',-0.495,-0.110
'0:05.708',-0.495,-0.105
'0:05.711',-0.490,-0.090
'0:05.714',-0.485,-0.100
'0:05.717',-0.495,-0.100
'0:05.719',-0.505,-0.105
'0:05.722',-0.520,-0.095
'0:05.725',-0.510,-0.080
'0:05.728',-0.500,-0.040
'0:05.731',-0.475,-0.010
'0:05.733',-0.485,0.005
'0:05.736',-0.455,0.020
'0:05.739',-0.460,0.030
'0:05.742',-0.435,0.045
'0:05.744',-0.410,0.060
'0:05.747',-0.395,0.080
'0:05.750',-0.370,0.085
'0:05.753',-0.315,0.100
'0:05.756',-0.270,0.105
'0:05.758',-0.245,0.100
'0:05.761',-0.205,0.090
'0:05.764',-0.185,0.045
'0:05.767',-0.190,-0.005
'0:05.769',-0.195,-0.045
'0:05.772',-0.185,-0.070
'0:05.775',-0.170,-0.080
'0:05.778',-0.130,-0.085
'0:05.781',-0.080,-0.095
'0:05.783',-0.090,-0.125
'0:05.786',-0.110,-0.140
'0:05.789',-0.135,-0.155
'0:05.792',-0.160,-0.155
'0:05.794',-0.165,-0.165
'0:05.797',-0.170,-0.180
'0:05.800',-0.175,-0.175
'0:05.803',-0.180,-0.160
'0:05.806',-0.195,-0.165
'0:05.808',-0.190,-0.175
'0:05.811',-0.195,-0.160
'0:05.814',-0.215,-0.170
'0:05.817',-0.230,-0.175
'0:05.819',-0.230,-0.190
'0:05.822',-0.255,-0.200
'0:05.825',-0.280,-0.195
'0:05.828',-0.295,-0.175
'0:05.831',-0.310,-0.180
'0:05.833',-0.330,-0.170
'0:05.836',-0.365,-0.165
'0:05.839',-0.395,-0.180
'0:05.842',-0.415,-0.175
'0:05.844',-0.425,-0.200
'0:05.847',-0.425,-0.215
'0:05.850',-0.435,-0.260
'0:05.853',-0.430,-0.355
'0:05.856',-0.430,-0.635
'0:05.858',-0.400,-1.015
'0:05.861',-0.275,-1.155
'0:05.864',0.020,-0.925
'0:05.867',0.540,-0.640
'0:05.869',1.175,-0.530
'0:05.872',1.545,-0.530
'0:05.875',1.460,-0.525
'0:05.878',1.210,-0.490
'0:05.881',1.045,-0.480
'0:05.883',0.980,-0.490
'0:05.886',0.905,-0.520
'0:05.889',0.800,-0.545
'0:05.892',0.695,-0.545
'0:05.894',0.590,-0.565
'0:05.897',0.485,-0.585
'0:05.900',0.350,-0.605
'0:05.903',0.235,-0.635
'0:05.906',0.125,-0.675
'0:05.908',0.015,-0.675
'0:05.911',-0.125,-0.665
'0:05.914',-0.280,-0.700
'0:05.917',-0.455,-0.740
'0:05.919',-0.595,-0.815
'0:05.922',-0.735,-0.890
'0:05.925',-0.880,-0.955
'0:05.928',-1.015,-1.010
'0:05.931',-1.160,-1.055
'0:05.933',-1.355,-1.115
'0:05.936',-1.580,-1.200
'0:05.939',-1.795,-1.280
'0:05.942',-1.975,-1.380
'0:05.944',-2.135,-1.530
'0:05.947',-2.255,-1.670
'0:05.950',-2.300,-1.790
'0:05.953',-2.340,-1.895
'0:05.956',-2.375,-1.970
'0:05.958',-2.395,-2.035
'0:05.961',-2.420,-2.130
'0:05.964',-2.470,-2.215
'0:05.967',-2.565,-2.305
'0:05.969',-2.650,-2.390
'0:05.972',-2.725,-2.465
'0:05.975',-2.770,-2.525
'0:05.978',-2.815,-2.565
'0:05.981',-2.855,-2.530
'0:05.983',-2.875,-2.395
'0:05.986',-2.835,-2.240
'0:05.989',-2.735,-2.070
'0:05.992',-2.540,-1.900
'0:05.994',-2.320,-1.720
'0:05.997',-2.115,-1.535
'0:06.000',-1.920,-1.380
'0:06.003',-1.755,-1.235
'0:06.006',-1.640,-1.075
'0:06.008',-1.565,-0.935
'0:06.011',-1.475,-0.810
'0:06.014',-1.400,-0.690
'0:06.017',-1.355,-0.605
'0:06.019',-1.310,-0.515
'0:06.022',-1.265,-0.455
'0:06.025',-1.240,-0.380
'0:06.028',-1.205,-0.305
'0:06.031',-1.155,-0.240
'0:06.033',-1.100,-0.185
'0:06.036',-1.055,-0.155
'0:06.039',-1.000,-0.105
'0:06.042',-0.910,-0.050
'0:06.044',-0.810,-0.010
'0:06.047',-0.755,0.015
'0:06.050',-0.730,0.030
'0:06.053',-0.700,0.055
'0:06.056',-0.595,0.090
'0:06.058',-0.450,0.110
'0:06.061',-0.300,0.155
'0:06.064',-0.225,0.160
'0:06.067',-0.205,0.180
'0:06.069',-0.175,0.175
'0:06.072',-0.125,0.180
'0:06.075',-0.055,0.195
'0:06.078',0.000,0.200
'0:06.081',0.020,0.215
'0:06.083',0.050,0.230
'0:06.086',0.065,0.225
'0:06.089',0.080,0.245
'0:06.092',0.095,0.245
'0:06.094',0.120,0.275
'0:06.097',0.165,0.270
'0:06.100',0.200,0.280
'0:06.103',0.230,0.280
'0:06.106',0.255,0.285
'0:06.108',0.295,0.300
'0:06.111',0.325,0.330
'0:06.114',0.360,0.340
'0:06.117',0.370,0.355
'0:06.119',0.395,0.360
'0:06.122',0.410,0.365
'0:06.125',0.435,0.380
'0:06.128',0.470,0.395
'0:06.131',0.515,0.410
'0:06.133',0.545,0.425
'0:06.136',0.550,0.425
'0:06.139',0.590,0.435
'0:06.142',0.615,0.465
'0:06.144',0.645,0.480
'0:06.147',0.700,0.490
'0:06.150',0.740,0.505
'0:06.153',0.775,0.505
'0:06.156',0.810,0.515
'0:06.158',0.825,0.540
'0:06.161',0.860,0.565
'0:06.164',0.900,0.575
'0:06.167',0.920,0.590
'0:06.169',0.940,0.585
'0:06.172',0.955,0.595
'0:06.175',0.970,0.605
'0:06.178',1.000,0.630
'0:06.181',1.025,0.630
'0:06.183',1.015,0.635
'0:06.186',1.030,0.630
'0:06.189',1.020,0.630
'0:06.192',1.015,0.640
'0:06.194',1.020,0.645
'0:06.197',1.030,0.635
'0:06.200',1.015,0.630
'0:06.203',1.005,0.610
'0:06.206',0.995,0.600
'0:06.208',0.975,0.590
'0:06.211',0.950,0.585
'0:06.214',0.945,0.590
'0:06.217',0.910,0.560
'0:06.219',0.875,0.525
'0:06.222',0.835,0.500
'0:06.225',0.800,0.490
'0:06.228',0.780,0.485
'0:06.231',0.750,0.460
'0:06.233',0.700,0.415
'0:06.236',0.660,0.380
'0:06.239',0.600,0.340
'0:06.242',0.560,0.325
'0:06.244',0.530,0.300
'0:06.247',0.495,0.275
'0:06.250',0.445,0.245
'0:06.253',0.395,0.200
'0:06.256',0.355,0.165
'0:06.258',0.295,0.150
'0:06.261',0.260,0.135
'0:06.264',0.225,0.120
'0:06.267',0.175,0.080
'0:06.269',0.120,0.050
'0:06.272',0.060,0.030
'0:06.275',0.010,0.020
'0:06.278',-0.020,0.020
'0:06.281',-0.055,0.005
'0:06.283',-0.095,-0.010
'0:06.286',-0.140,-0.035
'0:06.289',-0.185,-0.050
'0:06.292',-0.225,-0.055
'0:06.294',-0.255,-0.055
'0:06.297',-0.270,-0.050
'0:06.300',-0.295,-0.060
'0:06.303',-0.325,-0.085
'0:06.306',-0.355,-0.090
'0:06.308',-0.375,-0.090
'0:06.311',-0.385,-0.065
'0:06.314',-0.405,-0.070
'0:06.317',-0.415,-0.070
'0:06.319',-0.440,-0.085
'0:06.322',-0.460,-0.085
'0:06.325',-0.480,-0.080
'0:06.328',-0.455,-0.070
'0:06.331',-0.460,-0.070
'0:06.333',-0.470,-0.065
'0:06.336',-0.480,-0.085
'0:06.339',-0.490,-0.095
'0:06.342',-0.500,-0.085
'0:06.344',-0.495,-0.065
'0:06.347',-0.495,-0.065
'0:06.350',-0.490,-0.060
'0:06.353',-0.510,-0.070
'0:06.356',-0.520,-0.075
'0:06.358',-0.525,-0.070
'0:06.361',-0.525,-0.060
'0:06.364',-0.515,-0.055
'0:06.367',-0.515,-0.055
'0:06.369',-0.530,-0.070
'0:06.372',-0.525,-0.070
'0:06.375',-0.540,-0.065
'0:06.378',-0.530,-0.050
'0:06.381',-0.525,-0.040
'0:06.383',-0.530,-0.045
'0:06.386',-0.525,-0.060
'0:06.389',-0.535,-0.055
'0:06.392',-0.545,-0.055
'0:06.394',-0.540,-0.030
'0:06.397',-0.525,-0.045
'0:06.400',-0.525,-0.030
'0:06.403',-0.540,-0.045
'0:06.406',-0.535,-0.040
'0:06.408',-0.535,-0.015
'0:06.411',-0.510,0.020
'0:06.414',-0.500,0.040
'0:06.417',-0.495,0.060
'0:06.419',-0.510,0.085
'0:06.422',-0.505,0.100
'0:06.425',-0.490,0.120
'0:06.428',-0.460,0.130
'0:06.431',-0.435,0.130
'0:06.433',-0.395,0.160
'0:06.436',-0.365,0.155
'0:06.439',-0.325,0.175
'0:06.442',-0.265,0.200
'0:06.444',-0.240,0.205
'0:06.447',-0.200,0.175
'0:06.450',-0.180,0.140
'0:06.453',-0.175,0.080
'0:06.456',-0.180,0.050
'0:06.458',-0.170,0.035
'0:06.461',-0.130,0.020
'0:06.464',-0.100,0.000
'0:06.467',-0.095,-0.020
'0:06.469',-0.110,-0.040
'0:06.472',-0.145,-0.060
'0:06.475',-0.180,-0.050
'0:06.478',-0.185,-0.065
'0:06.481',-0.190,-0.080
'0:06.483',-0.190,-0.095
'0:06.486',-0.205,-0.100
'0:06.489',-0.225,-0.100
'0:06.492',-0.220,-0.090
'0:06.494',-0.225,-0.085
'0:06.497',-0.230,-0.085
'0:06.500',-0.250,-0.100
'0:06.503',-0.265,-0.110
'0:06.506',-0.280,-0.120
'0:06.508',-0.315,-0.115
'0:06.511',-0.345,-0.095
'0:06.514',-0.350,-0.095
'0:06.517',-0.390,-0.080
'0:06.519',-0.420,-0.090
'0:06.522',-0.460,-0.075
'0:06.525',-0.485,-0.075
'0:06.528',-0.505,-0.075
'0:06.531',-0.515,-0.090
'0:06.533',-0.535,-0.100
'0:06.536',-0.550,-0.110
'0:06.539',-0.580,-0.115
'0:06.542',-0.600,-0.120
'0:06.544',-0.610,-0.120
'0:06.547',-0.605,-0.120
'0:06.550',-0.615,-0.140
'0:06.553',-0.650,-0.145
'0:06.556',-0.675,-0.145
'0:06.558',-0.680,-0.135
'0:06.561',-0.680,-0.130
'0:06.564',-0.655,-0.125
'0:06.567',-0.660,-0.140
'0:06.569',-0.665,-0.145
'0:06.572',-0.655,-0.150
'0:06.575',-0.650,-0.140
'0:06.578',-0.645,-0.125
'0:06.581',-0.640,-0.135
'0:06.583',-0.650,-0.130
'0:06.586',-0.670,-0.135
'0:06.589',-0.670,-0.150
'0:06.592',-0.700,-0.145
'0:06.594',-0.690,-0.135
'0:06.597',-0.675,-0.125
'0:06.600',-0.670,-0.140
'0:06.603',-0.675,-0.150
'0:06.606',-0.685,-0.155
'0:06.608',-0.690,-0.135
'0:06.611',-0.685,-0.130
'0:06.614',-0.690,-0.125
'0:06.617',-0.690,-0.130
'0:06.619',-0.700,-0.150
'0:06.622',-0.700,-0.145
'0:06.625',-0.690,-0.145
'0:06.628',-0.680,-0.125
'0:06.631',-0.665,-0.130
'0:06.633',-0.675,-0.140
'0:06.636',-0.690,-0.145
'0:06.639',-0.685,-0.150
'0:06.642',-0.685,-0.150
'0:06.644',-0.680,-0.145
'0:06.647',-0.660,-0.140
'0:06.650',-0.665,-0.145
'0:06.653',-0.670,-0.150
'0:06.656',-0.680,-0.160
'0:06.658',-0.690,-0.150
'0:06.661',-0.670,-0.145
'0:06.664',-0.640,-0.145
'0:06.667',-0.645,-0.165
'0:06.669',-0.635,-0.190
'0:06.672',-0.630,-0.220
'0:06.675',-0.610,-0.305
'0:06.678',-0.580,-0.575
'0:06.681',-0.530,-0.995
'0:06.683',-0.430,-1.135
'0:06.686',-0.225,-0.905
'0:06.689',0.230,-0.625
'0:06.692',0.865,-0.500
'0:06.694',1.410,-0.480
'0:06.697',1.475,-0.465
'0:06.700',1.265,-0.450
'0:06.703',1.080,-0.430
'0:06.706',0.980,-0.435
'0:06.708',0.920,-0.445
'0:06.711',0.880,-0.445
'0:06.714',0.790,-0.465
'0:06.717',0.680,-0.475
'0:06.719',0.590,-0.495
'0:06.722',0.495,-0.505
'0:06.725',0.420,-0.520
'0:06.728',0.345,-0.530
'0:06.731',0.250,-0.545
'0:06.733',0.145,-0.570
'0:06.736',0.020,-0.605
'0:06.739',-0.090,-0.625
'0:06.742',-0.230,-0.655
'0:06.744',-0.345,-0.685
'0:06.747',-0.460,-0.745
'0:06.750',-0.600,-0.830
'0:06.753',-0.775,-0.910
'0:06.756',-0.940,-0.970
'0:06.758',-1.115,-1.010
'0:06.761',-1.275,-1.045
'0:06.764',-1.450,-1.095
'0:06.767',-1.610,-1.230
'0:06.769',-1.820,-1.375
'0:06.772',-2.005,-1.530
'0:06.775',-2.140,-1.650
'0:06.778',-2.215,-1.720
'0:06.781',-2.245,-1.790
'0:06.783',-2.270,-1.855
'0:06.786',-2.300,-1.930
'0:06.789',-2.350,-2.010
'0:06.792',-2.400,-2.090
'0:06.794',-2.470,-2.125
'0:06.797',-2.550,-2.215
'0:06.800',-2.625,-2.275
'0:06.803',-2.690,-2.360
'0:06.806',-2.750,-2.415
'0:06.808',-2.795,-2.335
'0:06.811',-2.800,-2.200
'0:06.814',-2.735,-2.040
'0:06.817',-2.625,-1.870
'0:06.819',-2.480,-1.705
'0:06.822',-2.310,-1.535
'0:06.825',-2.130,-1.355
'0:06.828',-1.925,-1.195
'0:06.831',-1.725,-1.050
'0:06.833',-1.610,-0.910
'0:06.836',-1.520,-0.800
'0:06.839',-1.480,-0.675
'0:06.842',-1.400,-0.565
'0:06.844',-1.315,-0.475
'0:06.847',-1.245,-0.415
'0:06.850',-1.185,-0.325
'0:06.853',-1.135,-0.285
'0:06.856',-1.110,-0.215
'0:06.858',-1.075,-0.175
'0:06.861',-1.060,-0.110
'0:06.864',-1.035,-0.090
'0:06.867',-1.000,-0.070
'0:06.869',-0.945,-0.045
'0:06.872',-0.890,-0.025
'0:06.875',-0.825,0.025
'0:06.878',-0.750,0.065
'0:06.881',-0.685,0.095
'0:06.883',-0.610,0.130
'0:06.886',-0.560,0.150
'0:06.889',-0.495,0.165
'0:06.892',-0.410,0.200
'0:06.894',-0.320,0.220
'0:06.897',-0.260,0.245
'0:06.900',-0.195,0.255
'0:06.903',-0.140,0.255
'0:06.906',-0.110,0.260
'0:06.908',-0.040,0.275
'0:06.911',0.005,0.285
'0:06.914',0.040,0.290
'0:06.917',0.060,0.310
'0:06.919',0.070,0.315
'0:06.922',0.080,0.320
'0:06.925',0.100,0.335
'0:06.928',0.140,0.345
'0:06.931',0.165,0.360
'0:06.933',0.195,0.370
'0:06.936',0.190,0.355
'0:06.939',0.200,0.370
'0:06.942',0.215,0.385
'0:06.944',0.245,0.400
'0:06.947',0.280,0.410
'0:06.950',0.305,0.420
'0:06.953',0.310,0.435
'0:06.956',0.325,0.440
'0:06.958',0.355,0.455
'0:06.961',0.390,0.480
'0:06.964',0.440,0.490
'0:06.967',0.455,0.500
'0:06.969',0.475,0.510
'0:06.972',0.490,0.505
'0:06.975',0.515,0.535
'0:06.978',0.555,0.560
'0:06.981',0.595,0.560
'0:06.983',0.615,0.570
'0:06.986',0.635,0.585
'0:06.989',0.665,0.585
'0:06.992',0.685,0.615
'0:06.994',0.715,0.625
'0:06.997',0.755,0.640
'0:07.000',0.775,0.650
'0:07.003',0.795,0.650
'0:07.006',0.810,0.670
'0:07.008',0.820,0.680
'0:07.011',0.855,0.710
'0:07.014',0.875,0.710
'0:07.017',0.885,0.710
'0:07.019',0.880,0.710
'0:07.022',0.895,0.705
'0:07.025',0.905,0.715
'0:07.028',0.915,0.715
'0:07.031',0.920,0.720
'0:07.033',0.925,0.720
'0:07.036',0.910,0.695
'0:07.039',0.900,0.685
'0:07.042',0.880,0.695
'0:07.044',0.880,0.700
'0:07.047',0.870,0.675
'0:07.050',0.840,0.645
'0:07.053',0.815,0.635
'0:07.056',0.790,0.615
'0:07.058',0.770,0.595
'0:07.061',0.745,0.575
'0:07.064',0.730,0.560
'0:07.067',0.700,0.535
'0:07.069',0.660,0.510
'0:07.072',0.605,0.460
'0:07.075',0.565,0.445
'0:07.078',0.545,0.420
'0:07.081',0.510,0.395
'0:07.083',0.470,0.365
'0:07.086',0.420,0.335
'0:07.089',0.365,0.310
'0:07.092',0.325,0.260
'0:07.094',0.285,0.250
'0:07.097',0.245,0.220
'0:07.100',0.210,0.195
'0:07.103',0.155,0.160
'0:07.106',0.095,0.140
'0:07.108',0.055,0.130
'0:07.111',0.025,0.140
'0:07.114',0.000,0.115
'0:07.117',-0.045,0.130
'0:07.119',-0.090,0.120
'0:07.122',-0.110,0.140
'0:07.125',-0.130,0.160
'0:07.128',-0.150,0.165
'0:07.131',-0.150,0.185
'0:07.133',-0.180,0.160
'0:07.136',-0.190,0.155
'0:07.139',-0.205,0.150
'0:07.142',-0.190,0.160
'0:07.144',-0.160,0.180
'0:07.147',-0.125,0.200
'0:07.150',-0.095,0.175
'0:07.153',-0.080,0.155
'0:07.156',-0.070,0.130
'0:07.158',-0.085,0.100
'0:07.161',-0.075,0.075
'0:07.164',-0.055,0.045
'0:07.167',-0.050,0.040
'0:07.169',-0.070,-0.005
'0:07.172',-0.075,-0.005
'0:07.175',-0.105,-0.025
'0:07.178',-0.150,-0.035
'0:07.181',-0.155,-0.040
'0:07.183',-0.205,-0.060
'0:07.186',-0.225,-0.070
'0:07.189',-0.250,-0.080
'0:07.192',-0.240,-0.070
'0:07.194',-0.245,-0.045
'0:07.197',-0.220,-0.035
'0:07.200',-0.235,-0.035
'0:07.203',-0.270,-0.040
'0:07.206',-0.290,-0.035
'0:07.208',-0.315,-0.030
'0:07.211',-0.315,-0.025
'0:07.214',-0.325,-0.030
'0:07.217',-0.360,-0.035
'0:07.219',-0.395,-0.040
'0:07.222',-0.425,-0.030
'0:07.225',-0.460,-0.005
'0:07.228',-0.480,0.015
'0:07.231',-0.505,0.025
'0:07.233',-0.535,0.010
'0:07.236',-0.560,-0.010
'0:07.239',-0.595,-0.025
'0:07.242',-0.605,-0.010
'0:07.244',-0.615,-0.005
'0:07.247',-0.610,0.010
'0:07.250',-0.625,-0.020
'0:07.253',-0.660,-0.025
'0:07.256',-0.670,-0.035
'0:07.258',-0.690,-0.040
'0:07.261',-0.685,-0.015
'0:07.264',-0.685,-0.010
'0:07.267',-0.695,-0.025
'0:07.269',-0.705,-0.035
'0:07.272',-0.715,-0.040
'0:07.275',-0.710,-0.020
'0:07.278',-0.710,-0.005
'0:07.281',-0.695,-0.015
'0:07.283',-0.695,-0.015
'0:07.286',-0.705,-0.020
'0:07.289',-0.720,-0.025
'0:07.292',-0.720,-0.035
'0:07.294',-0.695,-0.010
'0:07.297',-0.705,-0.010
'0:07.300',-0.715,-0.025
'0:07.303',-0.715,-0.025
'0:07.306',-0.720,-0.040
'0:07.308',-0.725,-0.030
'0:07.311',-0.720,-0.020
'0:07.314',-0.720,-0.020
'0:07.317',-0.725,-0.035
'0:07.319',-0.740,-0.055
'0:07.322',-0.755,-0.055
'0:07.325',-0.755,-0.050
'0:07.328',-0.740,-0.035
'0:07.331',-0.740,-0.030
'0:07.333',-0.740,-0.035
'0:07.336',-0.745,-0.045
'0:07.339',-0.755,-0.060
'0:07.342',-0.755,-0.055
'0:07.344',-0.750,-0.040
'0:07.347',-0.745,-0.040
'0:07.350',-0.755,-0.040
'0:07.353',-0.760,-0.055
'0:07.356',-0.775,-0.060
'0:07.358',-0.770,-0.040
'0:07.361',-0.765,-0.030
'0:07.364',-0.750,-0.035
'0:07.367',-0.745,-0.040
'0:07.369',-0.760,-0.040
'0:07.372',-0.780,-0.065
'0:07.375',-0.765,-0.040
'0:07.378',-0.770,-0.035
'0:07.381',-0.750,-0.030
'0:07.383',-0.755,-0.035
'0:07.386',-0.765,-0.045
'0:07.389',-0.765,-0.050
'0:07.392',-0.765,-0.030
'0:07.394',-0.755,-0.015
'0:07.397',-0.760,-0.025
'0:07.400',-0.765,-0.020
'0:07.403',-0.775,-0.040
'0:07.406',-0.770,-0.035
'0:07.408',-0.770,-0.030
'0:07.411',-0.760,-0.020
'0:07.414',-0.755,-0.030
'0:07.417',-0.745,-0.010
'0:07.419',-0.745,-0.025
'0:07.422',-0.755,-0.025
'0:07.425',-0.745,-0.015
'0:07.428',-0.735,0.005
'0:07.431',-0.725,-0.010
'0:07.433',-0.725,-0.005
'0:07.436',-0.735,-0.020
'0:07.439',-0.750,-0.010
'0:07.442',-0.740,-0.010
'0:07.444',-0.730,0.005
'0:07.447',-0.720,-0.005
'0:07.450',-0.715,0.005
'0:07.453',-0.720,-0.005
'0:07.456',-0.720,-0.020
'0:07.458',-0.720,-0.015
'0:07.461',-0.705,-0.005
'0:07.464',-0.695,-0.005
'0:07.467',-0.695,-0.020
'0:07.469',-0.710,-0.025
'0:07.472',-0.715,-0.030
'0:07.475',-0.715,-0.025
'0:07.478',-0.710,-0.005
'0:07.481',-0.695,-0.010
'0:07.483',-0.685,-0.015
'0:07.486',-0.685,-0.030
'0:07.489',-0.690,-0.030
'0:07.492',-0.680,-0.030
'0:07.494',-0.670,-0.020
'0:07.497',-0.660,-0.035
'0:07.500',-0.660,-0.030
'0:07.503',-0.670,-0.045
'0:07.506',-0.665,-0.055
'0:07.508',-0.645,-0.055
'0:07.511',-0.630,-0.050
'0:07.514',-0.620,-0.060
'0:07.517',-0.625,-0.070
'0:07.519',-0.625,-0.095
'0:07.522',-0.630,-0.120
'0:07.525',-0.605,-0.185
'0:07.528',-0.565,-0.400
'0:07.531',-0.515,-0.770
'0:07.533',-0.420,-0.980
'0:07.536',-0.270,-0.870
'0:07.539',0.090,-0.615
'0:07.542',0.670,-0.455
'0:07.544',1.220,-0.425
'0:07.547',1.490,-0.420
'0:07.550',1.400,-0.410
'0:07.553',1.225,-0.385
'0:07.556',1.105,-0.395
'0:07.558',1.040,-0.390
'0:07.561',1.010,-0.390
'0:07.564',0.930,-0.400
'0:07.567',0.835,-0.420
'0:07.569',0.730,-0.445
'0:07.572',0.615,-0.465
'0:07.575',0.510,-0.485
'0:07.578',0.435,-0.500
'0:07.581',0.345,-0.520
'0:07.583',0.230,-0.530
'0:07.586',0.105,-0.555
'0:07.589',-0.025,-0.580
'0:07.592',-0.155,-0.585
'0:07.594',-0.305,-0.620
'0:07.597',-0.435,-0.660
'0:07.600',-0.595,-0.715
'0:07.603',-0.770,-0.795
'0:07.606',-0.960,-0.870
'0:07.608',-1.140,-0.905
'0:07.611',-1.305,-0.940
'0:07.614',-1.480,-0.970
'0:07.617',-1.650,-1.015
'0:07.619',-1.845,-1.125
'0:07.622',-2.010,-1.235
'0:07.625',-2.165,-1.350
'0:07.628',-2.290,-1.470
'0:07.631',-2.345,-1.565
'0:07.633',-2.390,-1.630
'0:07.636',-2.435,-1.695
'0:07.639',-2.485,-1.765
'0:07.642',-2.520,-1.820
'0:07.644',-2.555,-1.895
'0:07.647',-2.595,-1.960
'0:07.650',-2.670,-2.035
'0:07.653',-2.725,-2.115
'0:07.656',-2.780,-2.220
'0:07.658',-2.835,-2.315
'0:07.661',-2.865,-2.325
'0:07.664',-2.880,-2.245
'0:07.667',-2.885,-2.105
'0:07.669',-2.840,-1.980
'0:07.672',-2.740,-1.845
'0:07.675',-2.600,-1.665
'0:07.678',-2.420,-1.515
'0:07.681',-2.250,-1.375
'0:07.683',-2.075,-1.255
'0:07.686',-1.895,-1.135
'0:07.689',-1.745,-0.985
'0:07.692',-1.640,-0.860
'0:07.694',-1.555,-0.725
'0:07.697',-1.475,-0.620
'0:07.700',-1.390,-0.520
'0:07.703',-1.320,-0.430
'0:07.706',-1.245,-0.350
'0:07.708',-1.170,-0.270
'0:07.711',-1.105,-0.195
'0:07.714',-1.080,-0.160
'0:07.717',-1.060,-0.120
'0:07.719',-1.050,-0.085
'0:07.722',-1.030,-0.050
'0:07.725',-0.980,-0.015
'0:07.728',-0.900,0.035
'0:07.731',-0.830,0.055
'0:07.733',-0.795,0.090
'0:07.736',-0.760,0.120
'0:07.739',-0.720,0.140
'0:07.742',-0.650,0.180
'0:07.744',-0.585,0.215
'0:07.747',-0.510,0.240
'0:07.750',-0.435,0.255
'0:07.753',-0.365,0.270
'0:07.756',-0.305,0.275
'0:07.758',-0.240,0.290
'0:07.761',-0.185,0.300
'0:07.764',-0.115,0.320
'0:07.767',-0.050,0.325
'0:07.769',-0.015,0.325
'0:07.772',0.030,0.335
'0:07.775',0.045,0.340
'0:07.778',0.070,0.365
'0:07.781',0.090,0.380
'0:07.783',0.105,0.385
'0:07.786',0.115,0.380
'0:07.789',0.115,0.385
'0:07.792',0.130,0.400
'0:07.794',0.150,0.425
'0:07.797',0.185,0.420
'0:07.800',0.195,0.430
'0:07.803',0.200,0.415
'0:07.806',0.220,0.430
'0:07.808',0.240,0.445
'0:07.811',0.270,0.465
'0:07.814',0.300,0.465
'0:07.817',0.320,0.485
'0:07.819',0.340,0.485
'0:07.822',0.355,0.500
'0:07.825',0.380,0.510
'0:07.828',0.395,0.530
'0:07.831',0.440,0.565
'0:07.833',0.475,0.550
'0:07.836',0.490,0.570
'0:07.839',0.520,0.575
'0:07.842',0.540,0.600
'0:07.844',0.570,0.630
'0:07.847',0.605,0.665
'0:07.850',0.650,0.700
'0:07.853',0.680,0.725
'0:07.856',0.705,0.755
'0:07.858',0.750,0.800
'0:07.861',0.790,0.825
'0:07.864',0.830,0.840
'0:07.867',0.895,0.865
'0:07.869',0.945,0.860
'0:07.872',0.985,0.870
'0:07.875',1.040,0.890
'0:07.878',1.090,0.905
'0:07.881',1.145,0.920
'0:07.883',1.170,0.900
'0:07.886',1.175,0.880
'0:07.889',1.190,0.855
'0:07.892',1.190,0.825
'0:07.894',1.200,0.815
'0:07.897',1.230,0.800
'0:07.900',1.255,0.775
'0:07.903',1.255,0.745
'0:07.906',1.230,0.705
'0:07.908',1.190,0.685
'0:07.911',1.170,0.695
'0:07.914',1.140,0.665
'0:07.917',1.115,0.635
'0:07.919',1.070,0.610
'0:07.922',1.035,0.595
'0:07.925',1.015,0.585
'0:07.928',0.990,0.575
'0:07.931',0.960,0.555
'0:07.933',0.925,0.520
'0:07.936',0.875,0.480
'0:07.939',0.810,0.455
'0:07.942',0.760,0.425
'0:07.944',0.715,0.415
'0:07.947',0.665,0.380
'0:07.950',0.610,0.355
'0:07.953',0.545,0.320
'0:07.956',0.470,0.300
'0:07.958',0.415,0.295
'0:07.961',0.360,0.280
'0:07.964',0.300,0.245
'0:07.967',0.225,0.205
'0:07.969',0.150,0.180
'0:07.972',0.085,0.135
'0:07.975',0.020,0.125
'0:07.978',-0.035,0.110
'0:07.981',-0.075,0.090
'0:07.983',-0.130,0.065
'0:07.986',-0.195,0.040
'0:07.989',-0.260,0.025
'0:07.992',-0.310,0.025
'0:07.994',-0.340,0.025
'0:07.997',-0.380,0.020
'0:08.000',-0.415,0.005
'0:08.003',-0.460,-0.005
'0:08.006',-0.485,-0.010
'0:08.008',-0.510,-0.015
'0:08.011',-0.530,-0.010
'0:08.014',-0.535,-0.015
'0:08.017',-0.560,-0.025
'0:08.019',-0.565,-0.025
'0:08.022',-0.595,-0.025
'0:08.025',-0.615,-0.020
'0:08.028',-0.630,-0.015
'0:08.031',-0.645,-0.010
'0:08.033',-0.675,-0.025
'0:08.036',-0.680,-0.030
'0:08.039',-0.710,-0.040
'0:08.042',-0.700,-0.030
'0:08.044',-0.690,-0.015
'0:08.047',-0.695,-0.010
'0:08.050',-0.715,-0.020
'0:08.053',-0.715,-0.030
'0:08.056',-0.725,-0.030
'0:08.058',-0.730,-0.030
'0:08.061',-0.740,-0.005
'0:08.064',-0.735,-0.010
'0:08.067',-0.740,-0.005
'0:08.069',-0.740,-0.025
'0:08.072',-0.755,-0.030
'0:08.075',-0.750,-0.005
'0:08.078',-0.755,0.010
'0:08.081',-0.740,-0.010
'0:08.083',-0.760,0.005
'0:08.086',-0.785,-0.005
'0:08.089',-0.800,0.000
'0:08.092',-0.795,0.000
'0:08.094',-0.780,0.020
'0:08.097',-0.775,0.020
'0:08.100',-0.765,0.015
'0:08.103',-0.770,0.010
'0:08.106',-0.780,0.010
'0:08.108',-0.760,0.030
'0:08.111',-0.755,0.035
'0:08.114',-0.760,0.030
'0:08.117',-0.765,0.035
'0:08.119',-0.780,0.030
'0:08.122',-0.795,0.025
'0:08.125',-0.790,0.040
'0:08.128',-0.785,0.055
'0:08.131',-0.775,0.055
'0:08.133',-0.760,0.045
'0:08.136',-0.780,0.025
'0:08.139',-0.780,0.030
'0:08.142',-0.770,0.050
'0:08.144',-0.775,0.055
'0:08.147',-0.750,0.050
'0:08.150',-0.745,0.050
'0:08.153',-0.745,0.035
'0:08.156',-0.755,0.045
'0:08.158',-0.755,0.040
'0:08.161',-0.745,0.045
'0:08.164',-0.740,0.055
'0:08.167',-0.740,0.055
'0:08.169',-0.740,0.050
'0:08.172',-0.740,0.040
'0:08.175',-0.735,0.045
'0:08.178',-0.735,0.030
'0:08.181',-0.740,0.040
'0:08.183',-0.750,0.040
'0:08.186',-0.765,0.035
'0:08.189',-0.770,0.030
'0:08.192',-0.760,0.040
'0:08.194',-0.740,0.055
'0:08.197',-0.740,0.050
'0:08.200',-0.725,0.040
'0:08.203',-0.745,0.030
'0:08.206',-0.745,0.035
'0:08.208',-0.745,0.045
'0:08.211',-0.730,0.055
'0:08.214',-0.720,0.045
'0:08.217',-0.705,0.035
'0:08.219',-0.730,0.025
'0:08.222',-0.735,0.015
'0:08.225',-0.740,0.030
'0:08.228',-0.725,0.040
'0:08.231',-0.725,0.045
'0:08.233',-0.705,0.050
'0:08.236',-0.700,0.020
'0:08.239',-0.710,0.015
'0:08.242',-0.715,0.020
'0:08.244',-0.695,0.030
'0:08.247',-0.695,0.030
'0:08.250',-0.690,0.020
'0:08.253',-0.710,0.025
'0:08.256',-0.715,0.015
'0:08.258',-0.710,0.015
'0:08.261',-0.700,0.030
'0:08.264',-0.695,0.030
'0:08.267',-0.690,0.005
'0:08.269',-0.685,0.000
'0:08.272',-0.685,0.000
'0:08.275',-0.685,0.005
'0:08.278',-0.680,0.015
'0:08.281',-0.670,0.005
'0:08.283',-0.680,0.005
'0:08.286',-0.685,-0.015
'0:08.289',-0.680,-0.015
'0:08.292',-0.685,0.000
'0:08.294',-0.690,0.005
'0:08.297',-0.690,0.010
'0:08.300',-0.675,0.000
'0:08.303',-0.670,-0.010
'0:08.306',-0.665,0.000
'0:08.308',-0.675,0.005
'0:08.311',-0.670,0.005
'0:08.314',-0.635,0.005
'0:08.317',-0.640,-0.005
'0:08.319',-0.655,-0.020
'0:08.322',-0.665,-0.020
'0:08.325',-0.645,0.000
'0:08.328',-0.630,0.010
'0:08.331',-0.630,-0.015
'0:08.333',-0.620,-0.015
'0:08.336',-0.630,-0.030
'0:08.339',-0.640,-0.025
'0:08.342',-0.655,-0.015
'0:08.344',-0.650,-0.005
'0:08.347',-0.640,-0.010
'0:08.350',-0.630,-0.030
'0:08.353',-0.630,-0.040
'0:08.356',-0.645,-0.040
'0:08.358',-0.640,-0.040
'0:08.361',-0.630,-0.030
'0:08.364',-0.615,-0.045
'0:08.367',-0.610,-0.045
'0:08.369',-0.610,-0.065
'0:08.372',-0.635,-0.060
'0:08.375',-0.620,-0.060
'0:08.378',-0.600,-0.065
'0:08.381',-0.590,-0.065
'0:08.383',-0.585,-0.085
'0:08.386',-0.580,-0.110
'0:08.389',-0.580,-0.145
'0:08.392',-0.555,-0.240
'0:08.394',-0.525,-0.500
'0:08.397',-0.475,-0.890
'0:08.400',-0.410,-1.040
'0:08.403',-0.270,-0.875
'0:08.406',0.040,-0.625
'0:08.408',0.590,-0.465
'0:08.411',1.145,-0.440
'0:08.414',1.415,-0.430
'0:08.417',1.360,-0.420
'0:08.419',1.180,-0.405
'0:08.422',1.045,-0.395
'0:08.425',0.995,-0.395
'0:08.428',0.940,-0.390
'0:08.431',0.860,-0.405
'0:08.433',0.770,-0.440
'0:08.436',0.665,-0.460
'0:08.439',0.555,-0.490
'0:08.442',0.450,-0.495
'0:08.444',0.340,-0.520
'0:08.447',0.235,-0.525
'0:08.450',0.120,-0.550
'0:08.453',0.015,-0.580
'0:08.456',-0.125,-0.605
'0:08.458',-0.280,-0.610
'0:08.461',-0.425,-0.615
'0:08.464',-0.590,-0.645
'0:08.467',-0.785,-0.690
'0:08.469',-0.990,-0.760
'0:08.472',-1.205,-0.815
'0:08.475',-1.420,-0.860
'0:08.478',-1.620,-0.885
'0:08.481',-1.825,-0.935
'0:08.483',-2.050,-0.990
'0:08.486',-2.225,-1.045
'0:08.489',-2.385,-1.130
'0:08.492',-2.505,-1.220
'0:08.494',-2.600,-1.345
'0:08.497',-2.670,-1.455
'0:08.500',-2.720,-1.545
'0:08.503',-2.755,-1.605
'0:08.506',-2.795,-1.675
'0:08.508',-2.805,-1.740
'0:08.511',-2.830,-1.810
'0:08.514',-2.885,-1.900
'0:08.517',-2.940,-1.980
'0:08.519',-3.005,-2.085
'0:08.522',-3.060,-2.180
'0:08.525',-3.075,-2.255
'0:08.528',-3.095,-2.260
'0:08.531',-3.105,-2.175
'0:08.533',-3.085,-2.065
'0:08.536',-3.015,-1.915
'0:08.539',-2.875,-1.760
'0:08.542',-2.665,-1.580
'0:08.544',-2.440,-1.420
'0:08.547',-2.225,-1.300
'0:08.550',-2.015,-1.165
'0:08.553',-1.850,-1.060
'0:08.556',-1.725,-0.920
'0:08.558',-1.630,-0.810
'0:08.561',-1.550,-0.680
'0:08.564',-1.465,-0.585
'0:08.567',-1.380,-0.505
'0:08.569',-1.325,-0.460
'0:08.572',-1.260,-0.385
'0:08.575',-1.170,-0.300
'0:08.578',-1.105,-0.225
'0:08.581',-1.055,-0.165
'0:08.583',-1.025,-0.090
'0:08.586',-0.980,-0.050
'0:08.589',-0.940,0.000
'0:08.592',-0.875,0.045
'0:08.594',-0.785,0.090
'0:08.597',-0.685,0.140
'0:08.600',-0.605,0.165
'0:08.603',-0.535,0.185
'0:08.606',-0.470,0.220
'0:08.608',-0.380,0.275
'0:08.611',-0.280,0.320
'0:08.614',-0.200,0.350
'0:08.617',-0.095,0.370
'0:08.619',-0.015,0.365
'0:08.622',0.065,0.350
'0:08.625',0.155,0.340
'0:08.628',0.225,0.315
'0:08.631',0.300,0.295
'0:08.633',0.385,0.275
'0:08.636',0.460,0.255
'0:08.639',0.530,0.245
'0:08.642',0.565,0.245
'0:08.644',0.565,0.240
'0:08.647',0.575,0.230
'0:08.650',0.545,0.225
'0:08.653',0.545,0.215
'0:08.656',0.530,0.210
'0:08.658',0.555,0.230
'0:08.661',0.590,0.245
'0:08.664',0.620,0.250
'0:08.667',0.650,0.260
'0:08.669',0.655,0.270
'0:08.672',0.640,0.250
'0:08.675',0.650,0.285
'0:08.678',0.665,0.300
'0:08.681',0.695,0.305
'0:08.683',0.680,0.315
'0:08.686',0.670,0.320
'0:08.689',0.675,0.330
'0:08.692',0.680,0.355
'0:08.694',0.705,0.385
'0:08.697',0.720,0.405
'0:08.700',0.730,0.415
'0:08.703',0.725,0.410
'0:08.706',0.725,0.415
'0:08.708',0.755,0.425
'0:08.711',0.780,0.440
'0:08.714',0.795,0.445
'0:08.717',0.810,0.445
'0:08.719',0.815,0.445
'0:08.722',0.815,0.455
'0:08.725',0.810,0.475
'0:08.728',0.855,0.490
'0:08.731',0.875,0.510
'0:08.733',0.915,0.500
'0:08.736',0.935,0.505
'0:08.739',0.940,0.510
'0:08.742',0.960,0.525
'0:08.744',0.985,0.550
'0:08.747',1.010,0.545
'0:08.750',1.030,0.555
'0:08.753',1.030,0.545
'0:08.756',1.025,0.540
'0:08.758',1.045,0.575
'0:08.761',1.055,0.580
'0:08.764',1.060,0.580
'0:08.767',1.060,0.575
'0:08.769',1.035,0.560
'0:08.772',1.015,0.560
'0:08.775',1.015,0.560
'0:08.778',1.005,0.570
'0:08.781',0.990,0.555
'0:08.783',0.955,0.535
'0:08.786',0.920,0.520
'0:08.789',0.885,0.510
'0:08.792',0.870,0.500
'0:08.794',0.865,0.495
'0:08.797',0.845,0.470
'0:08.800',0.815,0.440
'0:08.803',0.770,0.410
'0:08.806',0.715,0.385
'0:08.808',0.670,0.370
'0:08.811',0.645,0.365
'0:08.814',0.600,0.335
'0:08.817',0.555,0.310
'0:08.819',0.495,0.265
'0:08.822',0.445,0.235
'0:08.825',0.415,0.220
'0:08.828',0.370,0.210
'0:08.831',0.330,0.180
'0:08.833',0.285,0.150
'0:08.836',0.225,0.120
'0:08.839',0.160,0.095
'0:08.842',0.125,0.085
'0:08.844',0.090,0.060
'0:08.847',0.040,0.035
'0:08.850',-0.010,0.020
'0:08.853',-0.060,0.000
'0:08.856',-0.115,-0.025
'0:08.858',-0.155,-0.030
'0:08.861',-0.195,-0.025
'0:08.864',-0.215,-0.035
'0:08.867',-0.280,-0.040
'0:08.869',-0.305,-0.055
'0:08.872',-0.355,-0.065
'0:08.875',-0.360,-0.060
'0:08.878',-0.405,-0.060
'0:08.881',-0.440,-0.065
'0:08.883',-0.490,-0.065
'0:08.886',-0.525,-0.075
'0:08.889',-0.560,-0.095
'0:08.892',-0.570,-0.070
'0:08.894',-0.555,-0.070
'0:08.897',-0.555,-0.065
'0:08.900',-0.575,-0.065
'0:08.903',-0.615,-0.075
'0:08.906',-0.625,-0.075
'0:08.908',-0.630,-0.070
'0:08.911',-0.630,-0.050
'0:08.914',-0.635,-0.050
'0:08.917',-0.650,-0.050
'0:08.919',-0.660,-0.055
'0:08.922',-0.665,-0.050
'0:08.925',-0.670,-0.035
'0:08.928',-0.665,-0.030
'0:08.931',-0.660,-0.040
'0:08.933',-0.680,-0.030
'0:08.936',-0.700,-0.045
'0:08.939',-0.710,-0.025
'0:08.942',-0.710,-0.020
'0:08.944',-0.690,-0.015
'0:08.947',-0.685,-0.005
'0:08.950',-0.680,-0.010
'0:08.953',-0.690,-0.015
'0:08.956',-0.690,-0.005
'0:08.958',-0.680,-0.005
'0:08.961',-0.665,0.005
'0:08.964',-0.660,-0.005
'0:08.967',-0.670,0.000
'0:08.969',-0.680,-0.010
'0:08.972',-0.710,-0.005
'0:08.975',-0.720,0.005
'0:08.978',-0.705,0.020
'0:08.981',-0.700,0.020
'0:08.983',-0.710,0.025
'0:08.986',-0.710,0.010
'0:08.989',-0.710,0.005
'0:08.992',-0.685,0.020
'0:08.994',-0.670,0.020
'0:08.997',-0.665,0.025
'0:09.000',-0.660,0.015
'0:09.003',-0.675,0.010
'0:09.006',-0.690,0.015
'0:09.008',-0.675,0.010
'0:09.011',-0.655,0.020
'0:09.014',-0.645,0.020
'0:09.017',-0.635,0.020
'0:09.019',-0.650,0.005
'0:09.022',-0.655,0.005
'0:09.025',-0.650,0.005
'0:09.028',-0.640,0.020
'0:09.031',-0.615,0.015
'0:09.033',-0.615,0.000
'0:09.036',-0.610,-0.005
'0:09.039',-0.630,-0.020
'0:09.042',-0.640,-0.005
'0:09.044',-0.640,0.000
'0:09.047',-0.635,-0.010
'0:09.050',-0.625,0.000
'0:09.053',-0.625,-0.020
'0:09.056',-0.625,-0.025
'0:09.058',-0.630,-0.010
'0:09.061',-0.625,-0.015
'0:09.064',-0.615,-0.020
'0:09.067',-0.635,-0.020
'0:09.069',-0.640,-0.030
'0:09.072',-0.660,-0.035
'0:09.075',-0.650,-0.025
'0:09.078',-0.625,-0.010
'0:09.081',-0.625,-0.030
'0:09.083',-0.625,-0.030
'0:09.086',-0.640,-0.035
'0:09.089',-0.650,-0.035
'0:09.092',-0.650,-0.035
'0:09.094',-0.635,-0.030
'0:09.097',-0.620,-0.025
'0:09.100',-0.625,-0.035
'0:09.103',-0.640,-0.045
'0:09.106',-0.650,-0.050
'0:09.108',-0.640,-0.035
'0:09.111',-0.630,-0.030
'0:09.114',-0.630,-0.030
'0:09.117',-0.640,-0.035
'0:09.119',-0.645,-0.040
'0:09.122',-0.640,-0.050
'0:09.125',-0.640,-0.045
'0:09.128',-0.620,-0.025
'0:09.131',-0.600,-0.030
'0:09.133',-0.605,-0.050
'0:09.136',-0.610,-0.040
'0:09.139',-0.620,-0.040
'0:09.142',-0.625,-0.040
'0:09.144',-0.620,-0.025
'0:09.147',-0.620,-0.030
'0:09.150',-0.620,-0.025
'0:09.153',-0.615,-0.045
'0:09.156',-0.630,-0.050
'0:09.158',-0.635,-0.050
'0:09.161',-0.610,-0.035
'0:09.164',-0.595,-0.035
'0:09.167',-0.585,-0.035
'0:09.169',-0.590,-0.050
'0:09.172',-0.595,-0.050
'0:09.175',-0.600,-0.035
'0:09.178',-0.610,-0.025
'0:09.181',-0.615,-0.030
'0:09.183',-0.610,-0.030
'0:09.186',-0.605,-0.040
'0:09.189',-0.600,-0.055
'0:09.192',-0.590,-0.050
'0:09.194',-0.595,-0.050
'0:09.197',-0.595,-0.045
'0:09.200',-0.605,-0.035
'0:09.203',-0.620,-0.050
'0:09.206',-0.610,-0.055
'0:09.208',-0.595,-0.045
'0:09.211',-0.580,-0.030
'0:09.214',-0.575,-0.050
'0:09.217',-0.570,-0.050
'0:09.219',-0.580,-0.070
'0:09.222',-0.590,-0.070
'0:09.225',-0.585,-0.055
'0:09.228',-0.575,-0.040
'0:09.231',-0.560,-0.055
'0:09.233',-0.570,-0.045
'0:09.236',-0.580,-0.070
'0:09.239',-0.585,-0.075
'0:09.242',-0.580,-0.075
'0:09.244',-0.575,-0.065
'0:09.247',-0.565,-0.065
'0:09.250',-0.560,-0.070
'0:09.253',-0.565,-0.090
'0:09.256',-0.565,-0.105
'0:09.258',-0.530,-0.110
'0:09.261',-0.515,-0.140
'0:09.264',-0.490,-0.210
'0:09.267',-0.465,-0.455
'0:09.269',-0.445,-0.825
'0:09.272',-0.370,-1.005
'0:09.275',-0.200,-0.830
'0:09.278',0.140,-0.565
'0:09.281',0.690,-0.420
'0:09.283',1.235,-0.395
'0:09.286',1.490,-0.390
'0:09.289',1.390,-0.390
'0:09.292',1.205,-0.360
'0:09.294',1.070,-0.345
'0:09.297',1.030,-0.355
'0:09.300',0.975,-0.370
'0:09.303',0.895,-0.400
'0:09.306',0.790,-0.405
'0:09.308',0.685,-0.410
'0:09.311',0.590,-0.425
'0:09.314',0.505,-0.435
'0:09.317',0.420,-0.445
'0:09.319',0.315,-0.445
'0:09.322',0.190,-0.435
'0:09.325',0.060,-0.415
'0:09.328',-0.095,-0.405
'0:09.331',-0.230,-0.410
'0:09.333',-0.385,-0.440
'0:09.336',-0.540,-0.500
'0:09.339',-0.710,-0.560
'0:09.342',-0.900,-0.590
'0:09.344',-1.075,-0.605
'0:09.347',-1.245,-0.620
'0:09.350',-1.415,-0.670
'0:09.353',-1.585,-0.760
'0:09.356',-1.750,-0.885
'0:09.358',-1.930,-1.055
'0:09.361',-2.055,-1.215
'0:09.364',-2.155,-1.335
'0:09.367',-2.190,-1.425
'0:09.369',-2.220,-1.505
'0:09.372',-2.245,-1.585
'0:09.375',-2.285,-1.670
'0:09.378',-2.325,-1.735
'0:09.381',-2.420,-1.835
'0:09.383',-2.525,-1.945
'0:09.386',-2.615,-2.060
'0:09.389',-2.695,-2.165
'0:09.392',-2.755,-2.255
'0:09.394',-2.815,-2.255
'0:09.397',-2.865,-2.165
'0:09.400',-2.840,-2.045
'0:09.403',-2.770,-1.930
'0:09.406',-2.615,-1.770
'0:09.408',-2.405,-1.595
'0:09.411',-2.165,-1.450
'0:09.414',-1.955,-1.320
'0:09.417',-1.780,-1.190
'0:09.419',-1.625,-1.080
'0:09.422',-1.550,-0.965
'0:09.425',-1.475,-0.840
'0:09.428',-1.420,-0.705
'0:09.431',-1.355,-0.610
'0:09.433',-1.285,-0.550
'0:09.436',-1.250,-0.485
'0:09.439',-1.235,-0.415
'0:09.442',-1.195,-0.345
'0:09.444',-1.165,-0.270
'0:09.447',-1.155,-0.225
'0:09.450',-1.140,-0.195
'0:09.453',-1.135,-0.175
'0:09.456',-1.110,-0.155
'0:09.458',-1.065,-0.105
'0:09.461',-1.010,-0.065
'0:09.464',-0.970,-0.030
'0:09.467',-0.930,-0.015
'0:09.469',-0.885,0.010
'0:09.472',-0.805,0.055
'0:09.475',-0.700,0.085
'0:09.478',-0.620,0.125
'0:09.481',-0.540,0.135
'0:09.483',-0.480,0.155
'0:09.486',-0.425,0.155
'0:09.489',-0.390,0.190
'0:09.492',-0.340,0.205
'0:09.494',-0.295,0.230
'0:09.497',-0.230,0.235
'0:09.500',-0.175,0.230
'0:09.503',-0.125,0.235
'0:09.506',-0.105,0.235
'0:09.508',-0.085,0.265
'0:09.511',-0.070,0.285
'0:09.514',-0.045,0.295
'0:09.517',-0.030,0.290
'0:09.519',-0.010,0.290
'0:09.522',0.000,0.295
'0:09.525',0.020,0.320
'0:09.528',0.045,0.335
'0:09.531',0.085,0.345
'0:09.533',0.105,0.360
'0:09.536',0.100,0.370
'0:09.539',0.110,0.355
'0:09.542',0.110,0.385
'0:09.544',0.130,0.400
'0:09.547',0.155,0.415
'0:09.550',0.175,0.420
'0:09.553',0.190,0.435
'0:09.556',0.210,0.440
'0:09.558',0.240,0.475
'0:09.561',0.270,0.485
'0:09.564',0.300,0.500
'0:09.567',0.310,0.510
'0:09.569',0.330,0.510
'0:09.572',0.345,0.515
'0:09.575',0.380,0.545
'0:09.578',0.420,0.575
'0:09.581',0.450,0.590
'0:09.583',0.475,0.595
'0:09.586',0.490,0.605
'0:09.589',0.520,0.620
'0:09.592',0.555,0.645
'0:09.594',0.600,0.660
'0:09.597',0.645,0.675
'0:09.600',0.670,0.695
'0:09.603',0.680,0.690
'0:09.606',0.700,0.695
'0:09.608',0.725,0.715
'0:09.611',0.740,0.735
'0:09.614',0.780,0.740
'0:09.617',0.780,0.745
'0:09.619',0.795,0.740
'0:09.622',0.790,0.745
'0:09.625',0.800,0.745
'0:09.628',0.825,0.760
'0:09.631',0.835,0.755
'0:09.633',0.840,0.755
'0:09.636',0.840,0.740
'0:09.639',0.830,0.730
'0:09.642',0.850,0.730
'0:09.644',0.840,0.720
'0:09.647',0.830,0.715
'0:09.650',0.820,0.690
'0:09.653',0.795,0.665
'0:09.656',0.770,0.645
'0:09.658',0.745,0.640
'0:09.661',0.750,0.635
'0:09.664',0.730,0.605
'0:09.667',0.710,0.570
'0:09.669',0.675,0.545
'0:09.672',0.645,0.520
'0:09.675',0.605,0.490
'0:09.678',0.580,0.470
'0:09.681',0.535,0.445
'0:09.683',0.475,0.410
'0:09.686',0.455,0.375
'0:09.689',0.405,0.345
'0:09.692',0.355,0.325
'0:09.694',0.315,0.315
'0:09.697',0.295,0.285
'0:09.700',0.255,0.250
'0:09.703',0.215,0.220
'0:09.706',0.155,0.190
'0:09.708',0.120,0.175
'0:09.711',0.075,0.165
'0:09.714',0.045,0.145
'0:09.717',-0.005,0.125
'0:09.719',-0.035,0.100
'0:09.722',-0.110,0.075
'0:09.725',-0.145,0.080
'0:09.728',-0.160,0.065
'0:09.731',-0.190,0.065
'0:09.733',-0.225,0.040
'0:09.736',-0.275,0.035
'0:09.739',-0.305,0.025
'0:09.742',-0.325,0.015
'0:09.744',-0.335,0.035
'0:09.747',-0.365,0.025
'0:09.750',-0.370,0.025
'0:09.753',-0.400,0.015
'0:09.756',-0.430,0.020
'0:09.758',-0.450,0.030
'0:09.761',-0.445,0.015
'0:09.764',-0.455,0.015
'0:09.767',-0.470,0.015
'0:09.769',-0.490,0.005
'0:09.772',-0.510,0.000
'0:09.775',-0.515,0.010
'0:09.778',-0.520,0.030
'0:09.781',-0.520,0.020
'0:09.783',-0.520,0.020
'0:09.786',-0.515,0.010
'0:09.789',-0.530,0.010
'0:09.792',-0.545,0.025
'0:09.794',-0.530,0.035
'0:09.797',-0.535,0.020
'0:09.800',-0.535,0.020
'0:09.803',-0.540,0.015
'0:09.806',-0.565,0.020
'0:09.808',-0.565,0.025
'0:09.811',-0.560,0.030
'0:09.814',-0.570,0.030
'0:09.817',-0.570,0.035
'0:09.819',-0.585,0.020
'0:09.822',-0.595,0.030
'0:09.825',-0.585,0.025
'0:09.828',-0.565,0.055
'0:09.831',-0.555,0.060
'0:09.833',-0.555,0.055
'0:09.836',-0.585,0.045
'0:09.839',-0.585,0.030
'0:09.842',-0.585,0.055
'0:09.844',-0.580,0.050
'0:09.847',-0.580,0.050
'0:09.850',-0.575,0.060
'0:09.853',-0.585,0.060
'0:09.856',-0.585,0.045
'0:09.858',-0.570,0.055
'0:09.861',-0.550,0.060
'0:09.864',-0.535,0.060
'0:09.867',-0.530,0.050
'0:09.869',-0.540,0.045
'0:09.872',-0.560,0.050
'0:09.875',-0.560,0.055
'0:09.878',-0.540,0.070
'0:09.881',-0.520,0.070
'0:09.883',-0.525,0.055
'0:09.886',-0.530,0.050
'0:09.889',-0.550,0.060
'0:09.892',-0.545,0.050
'0:09.894',-0.535,0.065
'0:09.897',-0.530,0.055
'0:09.900',-0.530,0.065
'0:09.903',-0.530,0.040
'0:09.906',-0.530,0.030
'0:09.908',-0.520,0.060
'0:09.911',-0.525,0.060
'0:09.914',-0.520,0.060
'0:09.917',-0.525,0.040
'0:09.919',-0.530,0.040
'0:09.922',-0.530,0.030
'0:09.925',-0.530,0.040
'0:09.928',-0.515,0.050
'0:09.931',-0.500,0.050
'0:09.933',-0.510,0.045
'0:09.936',-0.525,0.025
'0:09.939',-0.555,0.015
'0:09.942',-0.550,0.030
'0:09.944',-0.540,0.050
'0:09.947',-0.530,0.035
'0:09.950',-0.535,0.035
'0:09.953',-0.555,0.020
'0:09.956',-0.555,0.015
'0:09.958',-0.560,0.025
'0:09.961',-0.560,0.035
'0:09.964',-0.530,0.030
'0:09.967',-0.530,0.025
'0:09.969',-0.545,0.015
'0:09.972',-0.570,0.025
'0:09.975',-0.555,0.025
'0:09.978',-0.545,0.035
'0:09.981',-0.550,0.025
'0:09.983',-0.540,0.015
'0:09.986',-0.560,0.010
'0:09.989',-0.580,0.015
'0:09.992',-0.580,0.010
'0:09.994',-0.565,0.020
'0:09.997',-0.555,0.020
