'Elapsed time','MLII','V1'
'hh:mm:ss.mmm','mV','mV'
'0:00.000',-0.125,-0.780
'0:00.003',-0.125,-0.780
'0:00.006',-0.125,-0.780
'0:00.008',-0.125,-0.780
'0:00.011',-0.125,-0.780
'0:00.014',-0.125,-0.780
'0:00.017',-0.125,-0.780
'0:00.019',-0.125,-0.800
'0:00.022',-0.135,-0.810
'0:00.025',-0.125,-0.840
'0:00.028',-0.125,-0.830
'0:00.031',-0.120,-0.820
'0:00.033',-0.095,-0.815
'0:00.036',-0.085,-0.810
'0:00.039',-0.105,-0.800
'0:00.042',-0.170,-0.815
'0:00.044',-0.225,-0.835
'0:00.047',-0.255,-0.840
'0:00.050',-0.280,-0.820
'0:00.053',-0.295,-0.810
'0:00.056',-0.340,-0.825
'0:00.058',-0.395,-0.850
'0:00.061',-0.410,-0.860
'0:00.064',-0.405,-0.845
'0:00.067',-0.380,-0.840
'0:00.069',-0.370,-0.845
'0:00.072',-0.390,-0.850
'0:00.075',-0.410,-0.865
'0:00.078',-0.425,-0.875
'0:00.081',-0.420,-0.855
'0:00.083',-0.405,-0.850
'0:00.086',-0.370,-0.855
'0:00.089',-0.375,-0.855
'0:00.092',-0.390,-0.850
'0:00.094',-0.410,-0.865
'0:00.097',-0.405,-0.865
'0:00.100',-0.395,-0.855
'0:00.103',-0.375,-0.850
'0:00.106',-0.390,-0.845
'0:00.108',-0.395,-0.845
'0:00.111',-0.395,-0.860
'0:00.114',-0.395,-0.850
'0:00.117',-0.385,-0.840
'0:00.119',-0.380,-0.830
'0:00.122',-0.385,-0.840
'0:00.125',-0.400,-0.855
'0:00.128',-0.405,-0.860
'0:00.131',-0.405,-0.855
'0:00.133',-0.405,-0.855
'0:00.136',-0.415,-0.855
'0:00.139',-0.435,-0.855
'0:00.142',-0.425,-0.870
'0:00.144',-0.425,-0.870
'0:00.147',-0.390,-0.855
'0:00.150',-0.375,-0.845
'0:00.153',-0.365,-0.830
'0:00.156',-0.370,-0.815
'0:00.158',-0.365,-0.825
'0:00.161',-0.380,-0.835
'0:00.164',-0.405,-0.855
'0:00.167',-0.405,-0.905
'0:00.169',-0.390,-0.950
'0:00.172',-0.365,-1.045
'0:00.175',-0.330,-1.140
'0:00.178',-0.320,-1.260
'0:00.181',-0.295,-1.435
'0:00.183',-0.270,-1.670
'0:00.186',-0.280,-1.920
'0:00.189',-0.340,-2.095
'0:00.192',-0.440,-2.170
'0:00.194',-0.510,-2.170
'0:00.197',-0.520,-2.125
'0:00.200',-0.510,-2.080
'0:00.203',-0.510,-2.055
'0:00.206',-0.535,-2.030
'0:00.208',-0.540,-1.995
'0:00.211',-0.585,-1.955
'0:00.214',-0.625,-1.930
'0:00.217',-0.640,-1.890
'0:00.219',-0.650,-1.860
'0:00.222',-0.685,-1.835
'0:00.225',-0.730,-1.810
'0:00.228',-0.780,-1.765
'0:00.231',-0.835,-1.710
'0:00.233',-0.885,-1.665
'0:00.236',-0.915,-1.625
'0:00.239',-0.940,-1.600
'0:00.242',-0.975,-1.585
'0:00.244',-0.980,-1.530
'0:00.247',-0.940,-1.445
'0:00.250',-0.915,-1.360
'0:00.253',-0.895,-1.270
'0:00.256',-0.890,-1.195
'0:00.258',-0.830,-1.140
'0:00.261',-0.760,-1.095
'0:00.264',-0.700,-1.025
'0:00.267',-0.625,-0.955
'0:00.269',-0.580,-0.885
'0:00.272',-0.545,-0.840
'0:00.275',-0.505,-0.820
'0:00.278',-0.485,-0.770
'0:00.281',-0.445,-0.725
'0:00.283',-0.395,-0.670
'0:00.286',-0.370,-0.655
'0:00.289',-0.370,-0.640
'0:00.292',-0.360,-0.645
'0:00.294',-0.360,-0.640
'0:00.297',-0.355,-0.615
'0:00.300',-0.325,-0.595
'0:00.303',-0.315,-0.585
'0:00.306',-0.320,-0.580
'0:00.308',-0.345,-0.595
'0:00.311',-0.345,-0.580
'0:00.314',-0.330,-0.580
'0:00.317',-0.300,-0.565
'0:00.319',-0.285,-0.555
'0:00.322',-0.300,-0.555
'0:00.325',-0.290,-0.545
'0:00.328',-0.295,-0.545
'0:00.331',-0.300,-0.540
'0:00.333',-0.290,-0.515
'0:00.336',-0.280,-0.510
'0:00.339',-0.285,-0.515
'0:00.342',-0.320,-0.530
'0:00.344',-0.320,-0.525
'0:00.347',-0.310,-0.510
'0:00.350',-0.295,-0.485
'0:00.353',-0.285,-0.485
'0:00.356',-0.275,-0.475
'0:00.358',-0.285,-0.485
'0:00.361',-0.290,-0.485
'0:00.364',-0.295,-0.475
'0:00.367',-0.285,-0.465
'0:00.369',-0.285,-0.475
'0:00.372',-0.290,-0.475
'0:00.375',-0.285,-0.485
'0:00.378',-0.275,-0.475
'0:00.381',-0.280,-0.465
'0:00.383',-0.270,-0.455
'0:00.386',-0.260,-0.450
'0:00.389',-0.270,-0.450
'0:00.392',-0.270,-0.470
'0:00.394',-0.275,-0.470
'0:00.397',-0.260,-0.455
'0:00.400',-0.240,-0.435
'0:00.403',-0.225,-0.425
'0:00.406',-0.240,-0.430
'0:00.408',-0.265,-0.435
'0:00.411',-0.280,-0.455
'0:00.414',-0.275,-0.435
'0:00.417',-0.240,-0.430
'0:00.419',-0.220,-0.425
'0:00.422',-0.220,-0.430
'0:00.425',-0.225,-0.440
'0:00.428',-0.240,-0.435
'0:00.431',-0.220,-0.430
'0:00.433',-0.200,-0.415
'0:00.436',-0.190,-0.415
'0:00.439',-0.185,-0.415
'0:00.442',-0.220,-0.435
'0:00.444',-0.245,-0.430
'0:00.447',-0.225,-0.420
'0:00.450',-0.195,-0.410
'0:00.453',-0.185,-0.405
'0:00.456',-0.165,-0.405
'0:00.458',-0.180,-0.420
'0:00.461',-0.190,-0.425
'0:00.464',-0.185,-0.415
'0:00.467',-0.180,-0.400
'0:00.469',-0.165,-0.395
'0:00.472',-0.170,-0.395
'0:00.475',-0.155,-0.415
'0:00.478',-0.160,-0.415
'0:00.481',-0.175,-0.425
'0:00.483',-0.175,-0.420
'0:00.486',-0.145,-0.425
'0:00.489',-0.170,-0.435
'0:00.492',-0.160,-0.440
'0:00.494',-0.165,-0.450
'0:00.497',-0.165,-0.455
'0:00.500',-0.160,-0.440
'0:00.503',-0.155,-0.445
'0:00.506',-0.165,-0.435
'0:00.508',-0.170,-0.455
'0:00.511',-0.190,-0.475
'0:00.514',-0.195,-0.475
'0:00.517',-0.195,-0.470
'0:00.519',-0.180,-0.480
'0:00.522',-0.180,-0.495
'0:00.525',-0.200,-0.500
'0:00.528',-0.200,-0.510
'0:00.531',-0.205,-0.490
'0:00.533',-0.200,-0.500
'0:00.536',-0.190,-0.515
'0:00.539',-0.190,-0.525
'0:00.542',-0.200,-0.550
'0:00.544',-0.230,-0.560
'0:00.547',-0.225,-0.570
'0:00.550',-0.210,-0.560
'0:00.553',-0.215,-0.565
'0:00.556',-0.205,-0.565
'0:00.558',-0.215,-0.565
'0:00.561',-0.230,-0.575
'0:00.564',-0.260,-0.570
'0:00.567',-0.255,-0.560
'0:00.569',-0.250,-0.570
'0:00.572',-0.240,-0.580
'0:00.575',-0.245,-0.580
'0:00.578',-0.250,-0.580
'0:00.581',-0.265,-0.580
'0:00.583',-0.270,-0.560
'0:00.586',-0.255,-0.555
'0:00.589',-0.265,-0.565
'0:00.592',-0.265,-0.575
'0:00.594',-0.270,-0.580
'0:00.597',-0.280,-0.565
'0:00.600',-0.260,-0.545
'0:00.603',-0.255,-0.545
'0:00.606',-0.260,-0.545
'0:00.608',-0.270,-0.565
'0:00.611',-0.275,-0.565
'0:00.614',-0.270,-0.560
'0:00.617',-0.255,-0.545
'0:00.619',-0.255,-0.540
'0:00.622',-0.260,-0.540
'0:00.625',-0.270,-0.540
'0:00.628',-0.275,-0.545
'0:00.631',-0.270,-0.535
'0:00.633',-0.265,-0.525
'0:00.636',-0.255,-0.515
'0:00.639',-0.265,-0.510
'0:00.642',-0.280,-0.520
'0:00.644',-0.285,-0.510
'0:00.647',-0.285,-0.500
'0:00.650',-0.280,-0.495
'0:00.653',-0.260,-0.480
'0:00.656',-0.265,-0.495
'0:00.658',-0.270,-0.500
'0:00.661',-0.280,-0.495
'0:00.664',-0.285,-0.480
'0:00.667',-0.285,-0.465
'0:00.669',-0.260,-0.460
'0:00.672',-0.255,-0.450
'0:00.675',-0.270,-0.465
'0:00.678',-0.275,-0.470
'0:00.681',-0.285,-0.450
'0:00.683',-0.270,-0.430
'0:00.686',-0.275,-0.425
'0:00.689',-0.290,-0.440
'0:00.692',-0.305,-0.440
'0:00.694',-0.320,-0.440
'0:00.697',-0.305,-0.435
'0:00.700',-0.290,-0.415
'0:00.703',-0.275,-0.415
'0:00.706',-0.285,-0.420
'0:00.708',-0.310,-0.425
'0:00.711',-0.325,-0.430
'0:00.714',-0.315,-0.410
'0:00.717',-0.315,-0.415
'0:00.719',-0.300,-0.410
'0:00.722',-0.310,-0.415
'0:00.725',-0.335,-0.430
'0:00.728',-0.340,-0.425
'0:00.731',-0.365,-0.410
'0:00.733',-0.355,-0.405
'0:00.736',-0.335,-0.400
'0:00.739',-0.340,-0.410
'0:00.742',-0.340,-0.425
'0:00.744',-0.375,-0.405
'0:00.747',-0.365,-0.410
'0:00.750',-0.350,-0.410
'0:00.753',-0.340,-0.410
'0:00.756',-0.360,-0.405
'0:00.758',-0.360,-0.410
'0:00.761',-0.375,-0.420
'0:00.764',-0.370,-0.415
'0:00.767',-0.355,-0.405
'0:00.769',-0.350,-0.400
'0:00.772',-0.350,-0.400
'0:00.775',-0.360,-0.415
'0:00.778',-0.370,-0.415
'0:00.781',-0.375,-0.420
'0:00.783',-0.375,-0.405
'0:00.786',-0.350,-0.410
'0:00.789',-0.360,-0.400
'0:00.792',-0.360,-0.415
'0:00.794',-0.380,-0.420
'0:00.797',-0.375,-0.410
'0:00.800',-0.355,-0.400
'0:00.803',-0.345,-0.400
'0:00.806',-0.340,-0.400
'0:00.808',-0.345,-0.415
'0:00.811',-0.355,-0.415
'0:00.814',-0.360,-0.405
'0:00.817',-0.345,-0.390
'0:00.819',-0.335,-0.380
'0:00.822',-0.345,-0.395
'0:00.825',-0.340,-0.405
'0:00.828',-0.340,-0.395
'0:00.831',-0.340,-0.395
'0:00.833',-0.330,-0.380
'0:00.836',-0.330,-0.385
'0:00.839',-0.325,-0.400
'0:00.842',-0.330,-0.395
'0:00.844',-0.335,-0.400
'0:00.847',-0.330,-0.375
'0:00.850',-0.310,-0.375
'0:00.853',-0.295,-0.380
'0:00.856',-0.300,-0.385
'0:00.858',-0.320,-0.395
'0:00.861',-0.330,-0.405
'0:00.864',-0.345,-0.390
'0:00.867',-0.325,-0.385
'0:00.869',-0.315,-0.380
'0:00.872',-0.310,-0.380
'0:00.875',-0.315,-0.385
'0:00.878',-0.345,-0.385
'0:00.881',-0.330,-0.385
'0:00.883',-0.310,-0.375
'0:00.886',-0.290,-0.370
'0:00.889',-0.315,-0.380
'0:00.892',-0.335,-0.395
'0:00.894',-0.335,-0.395
'0:00.897',-0.345,-0.370
'0:00.900',-0.325,-0.360
'0:00.903',-0.305,-0.365
'0:00.906',-0.300,-0.365
'0:00.908',-0.305,-0.370
'0:00.911',-0.305,-0.380
'0:00.914',-0.315,-0.360
'0:00.917',-0.300,-0.350
'0:00.919',-0.290,-0.345
'0:00.922',-0.300,-0.350
'0:00.925',-0.320,-0.345
'0:00.928',-0.325,-0.355
'0:00.931',-0.320,-0.350
'0:00.933',-0.305,-0.335
'0:00.936',-0.305,-0.325
'0:00.939',-0.310,-0.320
'0:00.942',-0.310,-0.350
'0:00.944',-0.310,-0.350
'0:00.947',-0.305,-0.355
'0:00.950',-0.300,-0.345
'0:00.953',-0.280,-0.325
'0:00.956',-0.265,-0.330
'0:00.958',-0.275,-0.320
'0:00.961',-0.280,-0.305
'0:00.964',-0.265,-0.315
'0:00.967',-0.250,-0.290
'0:00.969',-0.235,-0.275
'0:00.972',-0.225,-0.260
'0:00.975',-0.225,-0.255
'0:00.978',-0.230,-0.255
'0:00.981',-0.200,-0.240
'0:00.983',-0.180,-0.235
'0:00.986',-0.155,-0.235
'0:00.989',-0.145,-0.250
'0:00.992',-0.150,-0.285
'0:00.994',-0.150,-0.300
'0:00.997',-0.120,-0.285
'0:01.000',-0.105,-0.270
'0:01.003',-0.095,-0.280
'0:01.006',-0.085,-0.290
'0:01.008',-0.090,-0.290
'0:01.011',-0.095,-0.305
'0:01.014',-0.095,-0.300
'0:01.017',-0.075,-0.285
'0:01.019',-0.055,-0.280
'0:01.022',-0.050,-0.270
'0:01.025',-0.065,-0.285
'0:01.028',-0.110,-0.280
'0:01.031',-0.135,-0.275
'0:01.033',-0.165,-0.270
'0:01.036',-0.185,-0.275
'0:01.039',-0.220,-0.285
'0:01.042',-0.275,-0.295
'0:01.044',-0.320,-0.305
'0:01.047',-0.350,-0.300
'0:01.050',-0.370,-0.310
'0:01.053',-0.350,-0.305
'0:01.056',-0.350,-0.315
'0:01.058',-0.355,-0.325
'0:01.061',-0.360,-0.330
'0:01.064',-0.365,-0.320
'0:01.067',-0.360,-0.305
'0:01.069',-0.345,-0.300
'0:01.072',-0.340,-0.305
'0:01.075',-0.355,-0.310
'0:01.078',-0.370,-0.325
'0:01.081',-0.380,-0.320
'0:01.083',-0.390,-0.290
'0:01.086',-0.360,-0.295
'0:01.089',-0.340,-0.290
'0:01.092',-0.320,-0.295
'0:01.094',-0.340,-0.295
'0:01.097',-0.360,-0.290
'0:01.100',-0.355,-0.280
'0:01.103',-0.345,-0.285
'0:01.106',-0.340,-0.295
'0:01.108',-0.355,-0.300
'0:01.111',-0.350,-0.305
'0:01.114',-0.350,-0.285
'0:01.117',-0.345,-0.280
'0:01.119',-0.350,-0.280
'0:01.122',-0.355,-0.295
'0:01.125',-0.370,-0.305
'0:01.128',-0.370,-0.300
'0:01.131',-0.360,-0.295
'0:01.133',-0.345,-0.275
'0:01.136',-0.330,-0.275
'0:01.139',-0.330,-0.265
'0:01.142',-0.350,-0.280
'0:01.144',-0.360,-0.270
'0:01.147',-0.370,-0.270
'0:01.150',-0.375,-0.290
'0:01.153',-0.385,-0.360
'0:01.156',-0.390,-0.435
'0:01.158',-0.375,-0.525
'0:01.161',-0.345,-0.625
'0:01.164',-0.315,-0.750
'0:01.167',-0.275,-0.940
'0:01.169',-0.250,-1.195
'0:01.172',-0.265,-1.460
'0:01.175',-0.340,-1.660
'0:01.178',-0.425,-1.705
'0:01.181',-0.495,-1.665
'0:01.183',-0.510,-1.605
'0:01.186',-0.495,-1.570
'0:01.189',-0.485,-1.530
'0:01.192',-0.495,-1.510
'0:01.194',-0.530,-1.460
'0:01.197',-0.575,-1.410
'0:01.200',-0.600,-1.375
'0:01.203',-0.630,-1.355
'0:01.206',-0.655,-1.330
'0:01.208',-0.680,-1.295
'0:01.211',-0.725,-1.260
'0:01.214',-0.780,-1.200
'0:01.217',-0.845,-1.145
'0:01.219',-0.900,-1.095
'0:01.222',-0.915,-1.065
'0:01.225',-0.935,-1.025
'0:01.228',-0.935,-0.970
'0:01.231',-0.915,-0.875
'0:01.233',-0.880,-0.755
'0:01.236',-0.855,-0.685
'0:01.239',-0.820,-0.615
'0:01.242',-0.755,-0.560
'0:01.244',-0.685,-0.475
'0:01.247',-0.610,-0.410
'0:01.250',-0.550,-0.330
'0:01.253',-0.510,-0.265
'0:01.256',-0.480,-0.215
'0:01.258',-0.440,-0.180
'0:01.261',-0.390,-0.140
'0:01.264',-0.355,-0.080
'0:01.267',-0.315,-0.045
'0:01.269',-0.300,-0.025
'0:01.272',-0.300,-0.005
'0:01.275',-0.300,-0.010
'0:01.278',-0.300,0.005
'0:01.281',-0.290,0.005
'0:01.283',-0.275,0.020
'0:01.286',-0.265,0.040
'0:01.289',-0.275,0.045
'0:01.292',-0.290,0.040
'0:01.294',-0.300,0.045
'0:01.297',-0.275,0.065
'0:01.300',-0.255,0.080
'0:01.303',-0.245,0.085
'0:01.306',-0.260,0.095
'0:01.308',-0.280,0.095
'0:01.311',-0.275,0.085
'0:01.314',-0.260,0.110
'0:01.317',-0.245,0.120
'0:01.319',-0.240,0.120
'0:01.322',-0.250,0.130
'0:01.325',-0.245,0.115
'0:01.328',-0.260,0.120
'0:01.331',-0.265,0.130
'0:01.333',-0.270,0.145
'0:01.336',-0.240,0.160
'0:01.339',-0.230,0.155
'0:01.342',-0.220,0.140
'0:01.344',-0.225,0.145
'0:01.347',-0.220,0.160
'0:01.350',-0.225,0.170
'0:01.353',-0.225,0.175
'0:01.356',-0.225,0.160
'0:01.358',-0.240,0.160
'0:01.361',-0.240,0.165
'0:01.364',-0.240,0.175
'0:01.367',-0.230,0.195
'0:01.369',-0.200,0.195
'0:01.372',-0.195,0.190
'0:01.375',-0.200,0.195
'0:01.378',-0.215,0.195
'0:01.381',-0.230,0.200
'0:01.383',-0.215,0.215
'0:01.386',-0.180,0.220
'0:01.389',-0.180,0.225
'0:01.392',-0.185,0.200
'0:01.394',-0.195,0.205
'0:01.397',-0.200,0.210
'0:01.400',-0.195,0.215
'0:01.403',-0.175,0.230
'0:01.406',-0.155,0.220
'0:01.408',-0.155,0.205
'0:01.411',-0.175,0.220
'0:01.414',-0.170,0.220
'0:01.417',-0.145,0.230
'0:01.419',-0.140,0.230
'0:01.422',-0.150,0.220
'0:01.425',-0.160,0.205
'0:01.428',-0.155,0.215
'0:01.431',-0.140,0.225
'0:01.433',-0.135,0.225
'0:01.436',-0.115,0.225
'0:01.439',-0.120,0.220
'0:01.442',-0.110,0.210
'0:01.444',-0.115,0.210
'0:01.447',-0.110,0.210
'0:01.450',-0.110,0.225
'0:01.453',-0.095,0.215
'0:01.456',-0.110,0.205
'0:01.458',-0.115,0.190
'0:01.461',-0.130,0.190
'0:01.464',-0.120,0.190
'0:01.467',-0.105,0.190
'0:01.469',-0.100,0.195
'0:01.472',-0.110,0.180
'0:01.475',-0.115,0.170
'0:01.478',-0.120,0.160
'0:01.481',-0.105,0.170
'0:01.483',-0.085,0.165
'0:01.486',-0.090,0.155
'0:01.489',-0.100,0.145
'0:01.492',-0.115,0.115
'0:01.494',-0.130,0.115
'0:01.497',-0.125,0.115
'0:01.500',-0.100,0.110
'0:01.503',-0.100,0.100
'0:01.506',-0.115,0.085
'0:01.508',-0.130,0.065
'0:01.511',-0.145,0.060
'0:01.514',-0.155,0.050
'0:01.517',-0.160,0.030
'0:01.519',-0.140,0.035
'0:01.522',-0.140,0.030
'0:01.525',-0.145,0.000
'0:01.528',-0.165,-0.005
'0:01.531',-0.190,0.000
'0:01.533',-0.195,0.000
'0:01.536',-0.170,-0.010
'0:01.539',-0.165,-0.015
'0:01.542',-0.180,-0.025
'0:01.544',-0.190,-0.035
'0:01.547',-0.205,-0.020
'0:01.550',-0.200,-0.010
'0:01.553',-0.170,-0.020
'0:01.556',-0.190,-0.015
'0:01.558',-0.205,-0.015
'0:01.561',-0.210,-0.035
'0:01.564',-0.215,-0.025
'0:01.567',-0.215,-0.010
'0:01.569',-0.205,-0.015
'0:01.572',-0.205,-0.010
'0:01.575',-0.215,-0.025
'0:01.578',-0.225,-0.030
'0:01.581',-0.210,-0.015
'0:01.583',-0.200,0.005
'0:01.586',-0.195,-0.005
'0:01.589',-0.210,-0.020
'0:01.592',-0.225,-0.015
'0:01.594',-0.240,-0.010
'0:01.597',-0.240,-0.005
'0:01.600',-0.240,0.005
'0:01.603',-0.245,-0.005
'0:01.606',-0.245,0.010
'0:01.608',-0.230,0.000
'0:01.611',-0.225,-0.005
'0:01.614',-0.220,0.005
'0:01.617',-0.225,0.025
'0:01.619',-0.235,0.040
'0:01.622',-0.235,0.035
'0:01.625',-0.260,0.015
'0:01.628',-0.265,0.020
'0:01.631',-0.250,0.015
'0:01.633',-0.235,0.035
'0:01.636',-0.225,0.035
'0:01.639',-0.235,0.035
'0:01.642',-0.250,0.035
'0:01.644',-0.285,0.035
'0:01.647',-0.280,0.060
'0:01.650',-0.260,0.055
'0:01.653',-0.250,0.065
'0:01.656',-0.260,0.055
'0:01.658',-0.270,0.050
'0:01.661',-0.275,0.045
'0:01.664',-0.285,0.070
'0:01.667',-0.265,0.080
'0:01.669',-0.260,0.080
'0:01.672',-0.270,0.080
'0:01.675',-0.300,0.060
'0:01.678',-0.305,0.065
'0:01.681',-0.300,0.075
'0:01.683',-0.310,0.075
'0:01.686',-0.290,0.080
'0:01.689',-0.270,0.070
'0:01.692',-0.300,0.075
'0:01.694',-0.320,0.060
'0:01.697',-0.310,0.070
'0:01.700',-0.305,0.080
'0:01.703',-0.285,0.075
'0:01.706',-0.285,0.075
'0:01.708',-0.295,0.070
'0:01.711',-0.315,0.055
'0:01.714',-0.320,0.070
'0:01.717',-0.320,0.080
'0:01.719',-0.315,0.085
'0:01.722',-0.320,0.085
'0:01.725',-0.315,0.065
'0:01.728',-0.340,0.060
'0:01.731',-0.335,0.080
'0:01.733',-0.315,0.075
'0:01.736',-0.310,0.065
'0:01.739',-0.320,0.070
'0:01.742',-0.335,0.055
'0:01.744',-0.340,0.050
'0:01.747',-0.345,0.065
'0:01.750',-0.330,0.060
'0:01.753',-0.315,0.065
'0:01.756',-0.320,0.055
'0:01.758',-0.325,0.045
'0:01.761',-0.340,0.045
'0:01.764',-0.345,0.050
'0:01.767',-0.340,0.075
'0:01.769',-0.330,0.070
'0:01.772',-0.330,0.070
'0:01.775',-0.310,0.055
'0:01.778',-0.315,0.050
'0:01.781',-0.305,0.065
'0:01.783',-0.310,0.065
'0:01.786',-0.310,0.065
'0:01.789',-0.305,0.075
'0:01.792',-0.315,0.060
'0:01.794',-0.320,0.055
'0:01.797',-0.305,0.075
'0:01.800',-0.300,0.080
'0:01.803',-0.300,0.080
'0:01.806',-0.305,0.065
'0:01.808',-0.305,0.060
'0:01.811',-0.320,0.045
'0:01.814',-0.320,0.065
'0:01.817',-0.310,0.075
'0:01.819',-0.310,0.070
'0:01.822',-0.305,0.065
'0:01.825',-0.295,0.055
'0:01.828',-0.295,0.065
'0:01.831',-0.300,0.070
'0:01.833',-0.295,0.090
'0:01.836',-0.300,0.080
'0:01.839',-0.295,0.075
'0:01.842',-0.305,0.070
'0:01.844',-0.305,0.065
'0:01.847',-0.285,0.070
'0:01.850',-0.275,0.085
'0:01.853',-0.290,0.085
'0:01.856',-0.285,0.080
'0:01.858',-0.285,0.070
'0:01.861',-0.315,0.055
'0:01.864',-0.300,0.070
'0:01.867',-0.290,0.090
'0:01.869',-0.285,0.080
'0:01.872',-0.295,0.090
'0:01.875',-0.300,0.075
'0:01.878',-0.290,0.070
'0:01.881',-0.285,0.085
'0:01.883',-0.265,0.095
'0:01.886',-0.270,0.085
'0:01.889',-0.280,0.085
'0:01.892',-0.290,0.090
'0:01.894',-0.295,0.075
'0:01.897',-0.300,0.085
'0:01.900',-0.285,0.090
'0:01.903',-0.275,0.095
'0:01.906',-0.270,0.085
'0:01.908',-0.270,0.085
'0:01.911',-0.285,0.080
'0:01.914',-0.290,0.080
'0:01.917',-0.280,0.090
'0:01.919',-0.275,0.100
'0:01.922',-0.275,0.100
'0:01.925',-0.275,0.090
'0:01.928',-0.275,0.105
'0:01.931',-0.260,0.120
'0:01.933',-0.225,0.130
'0:01.936',-0.205,0.140
'0:01.939',-0.200,0.150
'0:01.942',-0.205,0.150
'0:01.944',-0.215,0.160
'0:01.947',-0.205,0.185
'0:01.950',-0.200,0.190
'0:01.953',-0.175,0.190
'0:01.956',-0.150,0.200
'0:01.958',-0.120,0.180
'0:01.961',-0.115,0.170
'0:01.964',-0.090,0.150
'0:01.967',-0.085,0.155
'0:01.969',-0.065,0.155
'0:01.972',-0.065,0.145
'0:01.975',-0.085,0.130
'0:01.978',-0.080,0.120
'0:01.981',-0.040,0.130
'0:01.983',0.005,0.135
'0:01.986',0.010,0.140
'0:01.989',0.005,0.145
'0:01.992',-0.010,0.155
'0:01.994',-0.040,0.150
'0:01.997',-0.080,0.160
'0:02.000',-0.120,0.150
'0:02.003',-0.135,0.140
'0:02.006',-0.175,0.130
'0:02.008',-0.215,0.120
'0:02.011',-0.265,0.110
'0:02.014',-0.305,0.105
'0:02.017',-0.315,0.110
'0:02.019',-0.315,0.095
'0:02.022',-0.315,0.100
'0:02.025',-0.305,0.095
'0:02.028',-0.320,0.085
'0:02.031',-0.315,0.100
'0:02.033',-0.305,0.110
'0:02.036',-0.290,0.110
'0:02.039',-0.305,0.110
'0:02.042',-0.315,0.105
'0:02.044',-0.325,0.100
'0:02.047',-0.315,0.105
'0:02.050',-0.315,0.115
'0:02.053',-0.305,0.110
'0:02.056',-0.310,0.110
'0:02.058',-0.310,0.090
'0:02.061',-0.315,0.090
'0:02.064',-0.320,0.100
'0:02.067',-0.315,0.105
'0:02.069',-0.305,0.110
'0:02.072',-0.285,0.100
'0:02.075',-0.285,0.100
'0:02.078',-0.310,0.090
'0:02.081',-0.320,0.110
'0:02.083',-0.320,0.115
'0:02.086',-0.310,0.110
'0:02.089',-0.345,0.105
'0:02.092',-0.340,0.085
'0:02.094',-0.350,0.085
'0:02.097',-0.345,0.100
'0:02.100',-0.345,0.115
'0:02.103',-0.320,0.110
'0:02.106',-0.315,0.100
'0:02.108',-0.315,0.105
'0:02.111',-0.345,0.110
'0:02.114',-0.340,0.120
'0:02.117',-0.320,0.095
'0:02.119',-0.315,0.020
'0:02.122',-0.325,-0.060
'0:02.125',-0.350,-0.175
'0:02.128',-0.340,-0.295
'0:02.131',-0.320,-0.425
'0:02.133',-0.285,-0.605
'0:02.136',-0.270,-0.855
'0:02.139',-0.265,-1.140
'0:02.142',-0.280,-1.355
'0:02.144',-0.350,-1.440
'0:02.147',-0.425,-1.405
'0:02.150',-0.465,-1.340
'0:02.153',-0.470,-1.290
'0:02.156',-0.490,-1.240
'0:02.158',-0.510,-1.200
'0:02.161',-0.530,-1.155
'0:02.164',-0.565,-1.105
'0:02.167',-0.605,-1.075
'0:02.169',-0.625,-1.055
'0:02.172',-0.655,-1.020
'0:02.175',-0.680,-0.990
'0:02.178',-0.705,-0.940
'0:02.181',-0.760,-0.895
'0:02.183',-0.820,-0.840
'0:02.186',-0.860,-0.770
'0:02.189',-0.900,-0.720
'0:02.192',-0.915,-0.685
'0:02.194',-0.925,-0.620
'0:02.197',-0.895,-0.535
'0:02.200',-0.840,-0.430
'0:02.203',-0.815,-0.350
'0:02.206',-0.790,-0.275
'0:02.208',-0.745,-0.210
'0:02.211',-0.670,-0.155
'0:02.214',-0.580,-0.065
'0:02.217',-0.515,0.000
'0:02.219',-0.475,0.055
'0:02.222',-0.460,0.110
'0:02.225',-0.425,0.145
'0:02.228',-0.395,0.195
'0:02.231',-0.345,0.240
'0:02.233',-0.315,0.280
'0:02.236',-0.295,0.290
'0:02.239',-0.290,0.305
'0:02.242',-0.280,0.310
'0:02.244',-0.280,0.315
'0:02.247',-0.285,0.325
'0:02.250',-0.270,0.345
'0:02.253',-0.260,0.340
'0:02.256',-0.255,0.355
'0:02.258',-0.265,0.350
'0:02.261',-0.265,0.345
'0:02.264',-0.265,0.360
'0:02.267',-0.265,0.385
'0:02.269',-0.265,0.380
'0:02.272',-0.260,0.395
'0:02.275',-0.270,0.385
'0:02.278',-0.285,0.395
'0:02.281',-0.260,0.405
'0:02.283',-0.215,0.415
'0:02.286',-0.190,0.405
'0:02.289',-0.210,0.400
'0:02.292',-0.230,0.410
'0:02.294',-0.255,0.400
'0:02.297',-0.255,0.415
'0:02.300',-0.230,0.410
'0:02.303',-0.235,0.430
'0:02.306',-0.235,0.420
'0:02.308',-0.245,0.420
'0:02.311',-0.230,0.410
'0:02.314',-0.215,0.430
'0:02.317',-0.220,0.435
'0:02.319',-0.220,0.440
'0:02.322',-0.220,0.435
'0:02.325',-0.225,0.435
'0:02.328',-0.230,0.440
'0:02.331',-0.225,0.440
'0:02.333',-0.205,0.455
'0:02.336',-0.190,0.455
'0:02.339',-0.200,0.460
'0:02.342',-0.215,0.435
'0:02.344',-0.230,0.445
'0:02.347',-0.220,0.445
'0:02.350',-0.185,0.455
'0:02.353',-0.170,0.460
'0:02.356',-0.160,0.460
'0:02.358',-0.180,0.440
'0:02.361',-0.200,0.430
'0:02.364',-0.205,0.445
'0:02.367',-0.175,0.460
'0:02.369',-0.135,0.450
'0:02.372',-0.110,0.445
'0:02.375',-0.145,0.445
'0:02.378',-0.175,0.435
'0:02.381',-0.180,0.440
'0:02.383',-0.155,0.460
'0:02.386',-0.135,0.465
'0:02.389',-0.125,0.445
'0:02.392',-0.145,0.440
'0:02.394',-0.150,0.440
'0:02.397',-0.140,0.450
'0:02.400',-0.145,0.450
'0:02.403',-0.120,0.440
'0:02.406',-0.095,0.435
'0:02.408',-0.100,0.420
'0:02.411',-0.120,0.410
'0:02.414',-0.105,0.415
'0:02.417',-0.110,0.415
'0:02.419',-0.110,0.410
'0:02.422',-0.115,0.395
'0:02.425',-0.115,0.370
'0:02.428',-0.125,0.370
'0:02.431',-0.105,0.395
'0:02.433',-0.095,0.395
'0:02.436',-0.090,0.395
'0:02.439',-0.085,0.380
'0:02.442',-0.100,0.370
'0:02.444',-0.130,0.350
'0:02.447',-0.150,0.360
'0:02.450',-0.140,0.345
'0:02.453',-0.110,0.345
'0:02.456',-0.070,0.335
'0:02.458',-0.065,0.315
'0:02.461',-0.105,0.315
'0:02.464',-0.135,0.300
'0:02.467',-0.140,0.315
'0:02.469',-0.110,0.300
'0:02.472',-0.090,0.285
'0:02.475',-0.105,0.260
'0:02.478',-0.125,0.255
'0:02.481',-0.130,0.250
'0:02.483',-0.145,0.250
'0:02.486',-0.130,0.230
'0:02.489',-0.150,0.235
'0:02.492',-0.180,0.210
'0:02.494',-0.185,0.220
'0:02.497',-0.190,0.215
'0:02.500',-0.185,0.230
'0:02.503',-0.170,0.215
'0:02.506',-0.175,0.210
'0:02.508',-0.200,0.190
'0:02.511',-0.210,0.185
'0:02.514',-0.215,0.200
'0:02.517',-0.210,0.205
'0:02.519',-0.210,0.210
'0:02.522',-0.225,0.205
'0:02.525',-0.235,0.185
'0:02.528',-0.245,0.185
'0:02.531',-0.250,0.195
'0:02.533',-0.230,0.210
'0:02.536',-0.220,0.195
'0:02.539',-0.225,0.200
'0:02.542',-0.235,0.190
'0:02.544',-0.265,0.195
'0:02.547',-0.255,0.200
'0:02.550',-0.250,0.215
'0:02.553',-0.240,0.215
'0:02.556',-0.240,0.225
'0:02.558',-0.255,0.205
'0:02.561',-0.270,0.205
'0:02.564',-0.275,0.210
'0:02.567',-0.265,0.225
'0:02.569',-0.250,0.220
'0:02.572',-0.265,0.225
'0:02.575',-0.270,0.210
'0:02.578',-0.300,0.205
'0:02.581',-0.275,0.215
'0:02.583',-0.265,0.230
'0:02.586',-0.265,0.230
'0:02.589',-0.260,0.220
'0:02.592',-0.270,0.215
'0:02.594',-0.295,0.205
'0:02.597',-0.295,0.225
'0:02.600',-0.285,0.240
'0:02.603',-0.275,0.235
'0:02.606',-0.275,0.230
'0:02.608',-0.295,0.225
'0:02.611',-0.310,0.230
'0:02.614',-0.325,0.235
'0:02.617',-0.310,0.245
'0:02.619',-0.290,0.245
'0:02.622',-0.290,0.240
'0:02.625',-0.295,0.235
'0:02.628',-0.305,0.235
'0:02.631',-0.315,0.230
'0:02.633',-0.310,0.250
'0:02.636',-0.305,0.245
'0:02.639',-0.290,0.240
'0:02.642',-0.310,0.230
'0:02.644',-0.335,0.235
'0:02.647',-0.345,0.235
'0:02.650',-0.345,0.245
'0:02.653',-0.335,0.235
'0:02.656',-0.330,0.240
'0:02.658',-0.330,0.225
'0:02.661',-0.340,0.225
'0:02.664',-0.350,0.235
'0:02.667',-0.345,0.240
'0:02.669',-0.330,0.240
'0:02.672',-0.330,0.235
'0:02.675',-0.345,0.225
'0:02.678',-0.375,0.220
'0:02.681',-0.360,0.215
'0:02.683',-0.350,0.245
'0:02.686',-0.340,0.235
'0:02.689',-0.345,0.220
'0:02.692',-0.370,0.210
'0:02.694',-0.370,0.195
'0:02.697',-0.360,0.205
'0:02.700',-0.365,0.220
'0:02.703',-0.345,0.210
'0:02.706',-0.355,0.210
'0:02.708',-0.370,0.190
'0:02.711',-0.370,0.200
'0:02.714',-0.375,0.195
'0:02.717',-0.355,0.210
'0:02.719',-0.345,0.215
'0:02.722',-0.340,0.205
'0:02.725',-0.350,0.200
'0:02.728',-0.365,0.205
'0:02.731',-0.370,0.210
'0:02.733',-0.365,0.210
'0:02.736',-0.355,0.205
'0:02.739',-0.365,0.195
'0:02.742',-0.375,0.210
'0:02.744',-0.370,0.200
'0:02.747',-0.365,0.205
'0:02.750',-0.340,0.215
'0:02.753',-0.315,0.205
'0:02.756',-0.335,0.210
'0:02.758',-0.350,0.200
'0:02.761',-0.365,0.200
'0:02.764',-0.350,0.200
'0:02.767',-0.350,0.210
'0:02.769',-0.335,0.220
'0:02.772',-0.340,0.200
'0:02.775',-0.355,0.190
'0:02.778',-0.350,0.205
'0:02.781',-0.335,0.215
'0:02.783',-0.340,0.200
'0:02.786',-0.330,0.205
'0:02.789',-0.350,0.195
'0:02.792',-0.355,0.200
'0:02.794',-0.350,0.210
'0:02.797',-0.325,0.220
'0:02.800',-0.315,0.215
'0:02.803',-0.325,0.200
'0:02.806',-0.340,0.195
'0:02.808',-0.365,0.180
'0:02.811',-0.360,0.185
'0:02.814',-0.340,0.205
'0:02.817',-0.325,0.205
'0:02.819',-0.320,0.215
'0:02.822',-0.330,0.190
'0:02.825',-0.340,0.195
'0:02.828',-0.355,0.195
'0:02.831',-0.330,0.200
'0:02.833',-0.320,0.205
'0:02.836',-0.325,0.200
'0:02.839',-0.335,0.190
'0:02.842',-0.325,0.200
'0:02.844',-0.330,0.200
'0:02.847',-0.325,0.215
'0:02.850',-0.320,0.205
'0:02.853',-0.330,0.210
'0:02.856',-0.340,0.200
'0:02.858',-0.345,0.190
'0:02.861',-0.325,0.195
'0:02.864',-0.310,0.200
'0:02.867',-0.310,0.200
'0:02.869',-0.310,0.195
'0:02.872',-0.310,0.200
'0:02.875',-0.325,0.190
'0:02.878',-0.320,0.200
'0:02.881',-0.305,0.205
'0:02.883',-0.300,0.210
'0:02.886',-0.305,0.205
'0:02.889',-0.335,0.195
'0:02.892',-0.335,0.190
'0:02.894',-0.335,0.200
'0:02.897',-0.305,0.210
'0:02.900',-0.290,0.215
'0:02.903',-0.300,0.230
'0:02.906',-0.315,0.200
'0:02.908',-0.335,0.205
'0:02.911',-0.320,0.205
'0:02.914',-0.305,0.230
'0:02.917',-0.290,0.230
'0:02.919',-0.295,0.225
'0:02.922',-0.300,0.205
'0:02.925',-0.320,0.210
'0:02.928',-0.305,0.215
'0:02.931',-0.285,0.250
'0:02.933',-0.280,0.240
'0:02.936',-0.275,0.245
'0:02.939',-0.265,0.245
'0:02.942',-0.250,0.240
'0:02.944',-0.230,0.280
'0:02.947',-0.220,0.300
'0:02.950',-0.210,0.295
'0:02.953',-0.195,0.300
'0:02.956',-0.190,0.295
'0:02.958',-0.180,0.300
'0:02.961',-0.165,0.300
'0:02.964',-0.135,0.300
'0:02.967',-0.110,0.295
'0:02.969',-0.090,0.275
'0:02.972',-0.095,0.265
'0:02.975',-0.100,0.265
'0:02.978',-0.110,0.250
'0:02.981',-0.115,0.250
'0:02.983',-0.090,0.255
'0:02.986',-0.075,0.245
'0:02.989',-0.075,0.240
'0:02.992',-0.070,0.230
'0:02.994',-0.055,0.250
'0:02.997',-0.040,0.260
'0:03.000',-0.065,0.240
'0:03.003',-0.115,0.245
'0:03.006',-0.165,0.235
'0:03.008',-0.225,0.220
'0:03.011',-0.245,0.240
'0:03.014',-0.285,0.245
'0:03.017',-0.305,0.230
'0:03.019',-0.350,0.220
'0:03.022',-0.365,0.215
'0:03.025',-0.370,0.190
'0:03.028',-0.355,0.200
'0:03.031',-0.350,0.210
'0:03.033',-0.345,0.200
'0:03.036',-0.345,0.190
'0:03.039',-0.360,0.190
'0:03.042',-0.360,0.190
'0:03.044',-0.350,0.195
'0:03.047',-0.340,0.210
'0:03.050',-0.335,0.210
'0:03.053',-0.355,0.195
'0:03.056',-0.365,0.180
'0:03.058',-0.380,0.180
'0:03.061',-0.370,0.185
'0:03.064',-0.355,0.210
'0:03.067',-0.330,0.205
'0:03.069',-0.340,0.200
'0:03.072',-0.350,0.175
'0:03.075',-0.355,0.185
'0:03.078',-0.355,0.190
'0:03.081',-0.350,0.210
'0:03.083',-0.340,0.200
'0:03.086',-0.345,0.205
'0:03.089',-0.355,0.190
'0:03.092',-0.360,0.190
'0:03.094',-0.350,0.200
'0:03.097',-0.350,0.195
'0:03.100',-0.330,0.195
'0:03.103',-0.335,0.195
'0:03.106',-0.355,0.185
'0:03.108',-0.365,0.175
'0:03.111',-0.355,0.190
'0:03.114',-0.355,0.195
'0:03.117',-0.350,0.195
'0:03.119',-0.345,0.195
'0:03.122',-0.340,0.200
'0:03.125',-0.340,0.200
'0:03.128',-0.350,0.185
'0:03.131',-0.360,0.160
'0:03.133',-0.370,0.095
'0:03.136',-0.380,0.025
'0:03.139',-0.345,-0.070
'0:03.142',-0.325,-0.180
'0:03.144',-0.280,-0.310
'0:03.147',-0.240,-0.515
'0:03.150',-0.220,-0.760
'0:03.153',-0.245,-1.025
'0:03.156',-0.320,-1.200
'0:03.158',-0.440,-1.255
'0:03.161',-0.515,-1.225
'0:03.164',-0.515,-1.170
'0:03.167',-0.510,-1.135
'0:03.169',-0.500,-1.105
'0:03.172',-0.505,-1.080
'0:03.175',-0.555,-1.040
'0:03.178',-0.600,-0.995
'0:03.181',-0.635,-0.950
'0:03.183',-0.650,-0.945
'0:03.186',-0.675,-0.905
'0:03.189',-0.705,-0.865
'0:03.192',-0.745,-0.830
'0:03.194',-0.785,-0.775
'0:03.197',-0.845,-0.720
'0:03.200',-0.870,-0.670
'0:03.203',-0.900,-0.635
'0:03.206',-0.935,-0.605
'0:03.208',-0.945,-0.545
'0:03.211',-0.910,-0.440
'0:03.214',-0.870,-0.345
'0:03.217',-0.845,-0.260
'0:03.219',-0.820,-0.200
'0:03.222',-0.765,-0.130
'0:03.225',-0.690,-0.055
'0:03.228',-0.610,0.020
'0:03.231',-0.550,0.095
'0:03.233',-0.515,0.160
'0:03.236',-0.475,0.195
'0:03.239',-0.440,0.230
'0:03.242',-0.385,0.270
'0:03.244',-0.370,0.320
'0:03.247',-0.330,0.350
'0:03.250',-0.305,0.390
'0:03.253',-0.280,0.400
'0:03.256',-0.280,0.405
'0:03.258',-0.295,0.405
'0:03.261',-0.305,0.420
'0:03.264',-0.290,0.435
'0:03.267',-0.280,0.455
'0:03.269',-0.290,0.440
'0:03.272',-0.290,0.455
'0:03.275',-0.290,0.445
'0:03.278',-0.285,0.465
'0:03.281',-0.275,0.490
'0:03.283',-0.270,0.490
'0:03.286',-0.285,0.475
'0:03.289',-0.280,0.480
'0:03.292',-0.300,0.475
'0:03.294',-0.300,0.495
'0:03.297',-0.270,0.510
'0:03.300',-0.255,0.520
'0:03.303',-0.260,0.525
'0:03.306',-0.260,0.505
'0:03.308',-0.280,0.525
'0:03.311',-0.270,0.530
'0:03.314',-0.270,0.545
'0:03.317',-0.255,0.540
'0:03.319',-0.270,0.530
'0:03.322',-0.260,0.530
'0:03.325',-0.280,0.525
'0:03.328',-0.275,0.535
'0:03.331',-0.270,0.535
'0:03.333',-0.250,0.540
'0:03.336',-0.240,0.545
'0:03.339',-0.235,0.540
'0:03.342',-0.265,0.540
'0:03.344',-0.265,0.545
'0:03.347',-0.245,0.565
'0:03.350',-0.245,0.565
'0:03.353',-0.240,0.550
'0:03.356',-0.240,0.560
'0:03.358',-0.245,0.550
'0:03.361',-0.235,0.560
'0:03.364',-0.205,0.575
'0:03.367',-0.185,0.575
'0:03.369',-0.200,0.580
'0:03.372',-0.205,0.570
'0:03.375',-0.220,0.575
'0:03.378',-0.215,0.585
'0:03.381',-0.205,0.585
'0:03.383',-0.200,0.585
'0:03.386',-0.200,0.585
'0:03.389',-0.195,0.570
'0:03.392',-0.195,0.565
'0:03.394',-0.185,0.565
'0:03.397',-0.180,0.580
'0:03.400',-0.180,0.575
'0:03.403',-0.170,0.570
'0:03.406',-0.170,0.555
'0:03.408',-0.190,0.550
'0:03.411',-0.195,0.555
'0:03.414',-0.160,0.570
'0:03.417',-0.150,0.565
'0:03.419',-0.135,0.560
'0:03.422',-0.160,0.545
'0:03.425',-0.170,0.550
'0:03.428',-0.160,0.530
'0:03.431',-0.150,0.545
'0:03.433',-0.130,0.545
'0:03.436',-0.130,0.525
'0:03.439',-0.150,0.520
'0:03.442',-0.155,0.505
'0:03.444',-0.160,0.500
'0:03.447',-0.150,0.505
'0:03.450',-0.160,0.505
'0:03.453',-0.160,0.485
'0:03.456',-0.150,0.465
'0:03.458',-0.145,0.445
'0:03.461',-0.150,0.455
'0:03.464',-0.150,0.455
'0:03.467',-0.140,0.440
'0:03.469',-0.155,0.425
'0:03.472',-0.150,0.410
'0:03.475',-0.175,0.405
'0:03.478',-0.180,0.390
'0:03.481',-0.170,0.380
'0:03.483',-0.175,0.370
'0:03.486',-0.180,0.350
'0:03.489',-0.200,0.325
'0:03.492',-0.215,0.315
'0:03.494',-0.215,0.320
'0:03.497',-0.210,0.315
'0:03.500',-0.200,0.310
'0:03.503',-0.210,0.290
'0:03.506',-0.215,0.280
'0:03.508',-0.235,0.265
'0:03.511',-0.245,0.270
'0:03.514',-0.240,0.270
'0:03.517',-0.250,0.280
'0:03.519',-0.255,0.275
'0:03.522',-0.250,0.255
'0:03.525',-0.265,0.245
'0:03.528',-0.260,0.265
'0:03.531',-0.250,0.260
'0:03.533',-0.255,0.260
'0:03.536',-0.240,0.260
'0:03.539',-0.240,0.245
'0:03.542',-0.255,0.240
'0:03.544',-0.265,0.245
'0:03.547',-0.270,0.265
'0:03.550',-0.255,0.255
'0:03.553',-0.255,0.255
'0:03.556',-0.250,0.260
'0:03.558',-0.250,0.250
'0:03.561',-0.255,0.265
'0:03.564',-0.260,0.270
'0:03.567',-0.245,0.270
'0:03.569',-0.250,0.280
'0:03.572',-0.250,0.270
'0:03.575',-0.275,0.265
'0:03.578',-0.265,0.280
'0:03.581',-0.265,0.295
'0:03.583',-0.250,0.305
'0:03.586',-0.255,0.300
'0:03.589',-0.270,0.295
'0:03.592',-0.275,0.285
'0:03.594',-0.270,0.300
'0:03.597',-0.280,0.315
'0:03.600',-0.265,0.300
'0:03.603',-0.265,0.300
'0:03.606',-0.280,0.285
'0:03.608',-0.285,0.295
'0:03.611',-0.290,0.305
'0:03.614',-0.270,0.320
'0:03.617',-0.260,0.315
'0:03.619',-0.275,0.325
'0:03.622',-0.300,0.325
'0:03.625',-0.295,0.315
'0:03.628',-0.275,0.330
'0:03.631',-0.275,0.345
'0:03.633',-0.275,0.345
'0:03.636',-0.275,0.350
'0:03.639',-0.290,0.335
'0:03.642',-0.315,0.320
'0:03.644',-0.305,0.340
'0:03.647',-0.315,0.345
'0:03.650',-0.290,0.340
'0:03.653',-0.285,0.350
'0:03.656',-0.305,0.335
'0:03.658',-0.310,0.315
'0:03.661',-0.320,0.335
'0:03.664',-0.305,0.325
'0:03.667',-0.315,0.330
'0:03.669',-0.310,0.320
'0:03.672',-0.345,0.315
'0:03.675',-0.355,0.315
'0:03.678',-0.350,0.330
'0:03.681',-0.335,0.340
'0:03.683',-0.315,0.350
'0:03.686',-0.315,0.340
'0:03.689',-0.350,0.335
'0:03.692',-0.350,0.325
'0:03.694',-0.335,0.330
'0:03.697',-0.335,0.335
'0:03.700',-0.325,0.330
'0:03.703',-0.325,0.315
'0:03.706',-0.340,0.310
'0:03.708',-0.350,0.315
'0:03.711',-0.355,0.315
'0:03.714',-0.350,0.320
'0:03.717',-0.335,0.310
'0:03.719',-0.335,0.310
'0:03.722',-0.340,0.300
'0:03.725',-0.375,0.295
'0:03.728',-0.370,0.295
'0:03.731',-0.345,0.320
'0:03.733',-0.310,0.320
'0:03.736',-0.305,0.320
'0:03.739',-0.320,0.305
'0:03.742',-0.335,0.300
'0:03.744',-0.330,0.315
'0:03.747',-0.315,0.315
'0:03.750',-0.300,0.315
'0:03.753',-0.290,0.310
'0:03.756',-0.305,0.305
'0:03.758',-0.320,0.305
'0:03.761',-0.310,0.305
'0:03.764',-0.320,0.320
'0:03.767',-0.310,0.325
'0:03.769',-0.315,0.305
'0:03.772',-0.330,0.300
'0:03.775',-0.320,0.290
'0:03.778',-0.320,0.310
'0:03.781',-0.310,0.320
'0:03.783',-0.290,0.320
'0:03.786',-0.305,0.315
'0:03.789',-0.300,0.310
'0:03.792',-0.315,0.305
'0:03.794',-0.315,0.300
'0:03.797',-0.320,0.315
'0:03.800',-0.310,0.305
'0:03.803',-0.305,0.300
'0:03.806',-0.305,0.310
'0:03.808',-0.310,0.290
'0:03.811',-0.295,0.300
'0:03.814',-0.280,0.310
'0:03.817',-0.280,0.320
'0:03.819',-0.290,0.295
'0:03.822',-0.315,0.280
'0:03.825',-0.340,0.280
'0:03.828',-0.340,0.300
'0:03.831',-0.315,0.315
'0:03.833',-0.270,0.310
'0:03.836',-0.260,0.300
'0:03.839',-0.270,0.300
'0:03.842',-0.290,0.300
'0:03.844',-0.285,0.310
'0:03.847',-0.290,0.315
'0:03.850',-0.280,0.315
'0:03.853',-0.280,0.310
'0:03.856',-0.300,0.290
'0:03.858',-0.300,0.295
'0:03.861',-0.310,0.295
'0:03.864',-0.290,0.305
'0:03.867',-0.280,0.305
'0:03.869',-0.285,0.285
'0:03.872',-0.290,0.295
'0:03.875',-0.305,0.290
'0:03.878',-0.310,0.300
'0:03.881',-0.280,0.315
'0:03.883',-0.260,0.305
'0:03.886',-0.255,0.315
'0:03.889',-0.240,0.320
'0:03.892',-0.245,0.330
'0:03.894',-0.235,0.350
'0:03.897',-0.220,0.370
'0:03.900',-0.215,0.375
'0:03.903',-0.210,0.395
'0:03.906',-0.200,0.380
'0:03.908',-0.185,0.385
'0:03.911',-0.170,0.400
'0:03.914',-0.140,0.400
'0:03.917',-0.125,0.380
'0:03.919',-0.115,0.355
'0:03.922',-0.105,0.325
'0:03.925',-0.100,0.325
'0:03.928',-0.080,0.330
'0:03.931',-0.065,0.340
'0:03.933',-0.055,0.335
'0:03.936',-0.060,0.330
'0:03.939',-0.060,0.310
'0:03.942',-0.060,0.320
'0:03.944',-0.065,0.330
'0:03.947',-0.060,0.355
'0:03.950',-0.055,0.360
'0:03.953',-0.070,0.340
'0:03.956',-0.090,0.330
'0:03.958',-0.145,0.315
'0:03.961',-0.190,0.320
'0:03.964',-0.225,0.320
'0:03.967',-0.270,0.315
'0:03.969',-0.310,0.295
'0:03.972',-0.345,0.265
'0:03.975',-0.360,0.265
'0:03.978',-0.360,0.270
'0:03.981',-0.345,0.285
'0:03.983',-0.320,0.285
'0:03.986',-0.315,0.275
'0:03.989',-0.325,0.255
'0:03.992',-0.340,0.270
'0:03.994',-0.345,0.265
'0:03.997',-0.345,0.285
'0:04.000',-0.340,0.275
'0:04.003',-0.345,0.280
'0:04.006',-0.370,0.265
'0:04.008',-0.365,0.260
'0:04.011',-0.345,0.265
'0:04.014',-0.335,0.275
'0:04.017',-0.315,0.280
'0:04.019',-0.325,0.270
'0:04.022',-0.345,0.255
'0:04.025',-0.370,0.265
'0:04.028',-0.360,0.270
'0:04.031',-0.335,0.270
'0:04.033',-0.340,0.270
'0:04.036',-0.340,0.265
'0:04.039',-0.335,0.260
'0:04.042',-0.360,0.255
'0:04.044',-0.360,0.265
'0:04.047',-0.350,0.275
'0:04.050',-0.330,0.265
'0:04.053',-0.335,0.275
'0:04.056',-0.325,0.260
'0:04.058',-0.335,0.260
'0:04.061',-0.340,0.280
'0:04.064',-0.345,0.290
'0:04.067',-0.325,0.290
'0:04.069',-0.325,0.285
'0:04.072',-0.340,0.230
'0:04.075',-0.375,0.160
'0:04.078',-0.390,0.095
'0:04.081',-0.370,0.000
'0:04.083',-0.330,-0.125
'0:04.086',-0.310,-0.305
'0:04.089',-0.300,-0.560
'0:04.092',-0.290,-0.845
'0:04.094',-0.295,-1.110
'0:04.097',-0.345,-1.245
'0:04.100',-0.445,-1.255
'0:04.103',-0.495,-1.205
'0:04.106',-0.525,-1.170
'0:04.108',-0.530,-1.130
'0:04.111',-0.515,-1.080
'0:04.114',-0.525,-1.025
'0:04.117',-0.540,-0.965
'0:04.119',-0.595,-0.945
'0:04.122',-0.640,-0.925
'0:04.125',-0.690,-0.925
'0:04.128',-0.710,-0.870
'0:04.131',-0.730,-0.805
'0:04.133',-0.760,-0.755
'0:04.136',-0.825,-0.715
'0:04.139',-0.875,-0.660
'0:04.142',-0.915,-0.600
'0:04.144',-0.920,-0.560
'0:04.147',-0.915,-0.480
'0:04.150',-0.880,-0.400
'0:04.153',-0.865,-0.300
'0:04.156',-0.850,-0.210
'0:04.158',-0.835,-0.125
'0:04.161',-0.770,-0.030
'0:04.164',-0.665,0.070
'0:04.167',-0.585,0.145
'0:04.169',-0.530,0.215
'0:04.172',-0.485,0.265
'0:04.175',-0.455,0.325
'0:04.178',-0.405,0.410
'0:04.181',-0.355,0.450
'0:04.183',-0.325,0.490
'0:04.186',-0.300,0.485
'0:04.189',-0.295,0.500
'0:04.192',-0.300,0.520
'0:04.194',-0.300,0.530
'0:04.197',-0.290,0.560
'0:04.200',-0.275,0.565
'0:04.203',-0.280,0.580
'0:04.206',-0.285,0.570
'0:04.208',-0.285,0.585
'0:04.211',-0.265,0.610
'0:04.214',-0.245,0.625
'0:04.217',-0.245,0.640
'0:04.219',-0.250,0.630
'0:04.222',-0.280,0.630
'0:04.225',-0.300,0.640
'0:04.228',-0.275,0.655
'0:04.231',-0.230,0.670
'0:04.233',-0.215,0.660
'0:04.236',-0.210,0.675
'0:04.239',-0.220,0.655
'0:04.242',-0.240,0.650
'0:04.244',-0.250,0.670
'0:04.247',-0.255,0.680
'0:04.250',-0.245,0.675
'0:04.253',-0.240,0.675
'0:04.256',-0.250,0.675
'0:04.258',-0.245,0.670
'0:04.261',-0.245,0.695
'0:04.264',-0.235,0.705
'0:04.267',-0.230,0.700
'0:04.269',-0.220,0.690
'0:04.272',-0.225,0.690
'0:04.275',-0.230,0.700
'0:04.278',-0.205,0.715
'0:04.281',-0.200,0.720
'0:04.283',-0.190,0.705
'0:04.286',-0.185,0.710
'0:04.289',-0.180,0.705
'0:04.292',-0.195,0.715
'0:04.294',-0.210,0.715
'0:04.297',-0.215,0.730
'0:04.300',-0.190,0.730
'0:04.303',-0.180,0.715
'0:04.306',-0.175,0.720
'0:04.308',-0.185,0.715
'0:04.311',-0.195,0.730
'0:04.314',-0.180,0.740
'0:04.317',-0.160,0.735
'0:04.319',-0.145,0.740
'0:04.322',-0.160,0.740
'0:04.325',-0.165,0.720
'0:04.328',-0.145,0.715
'0:04.331',-0.145,0.745
'0:04.333',-0.130,0.735
'0:04.336',-0.160,0.735
'0:04.339',-0.170,0.715
'0:04.342',-0.185,0.730
'0:04.344',-0.160,0.720
'0:04.347',-0.115,0.725
'0:04.350',-0.100,0.715
'0:04.353',-0.105,0.705
'0:04.356',-0.125,0.690
'0:04.358',-0.135,0.690
'0:04.361',-0.105,0.695
'0:04.364',-0.070,0.705
'0:04.367',-0.045,0.705
'0:04.369',-0.045,0.680
'0:04.372',-0.100,0.655
'0:04.375',-0.115,0.655
'0:04.378',-0.105,0.660
'0:04.381',-0.095,0.655
'0:04.383',-0.070,0.655
'0:04.386',-0.075,0.630
'0:04.389',-0.090,0.600
'0:04.392',-0.115,0.590
'0:04.394',-0.130,0.580
'0:04.397',-0.125,0.570
'0:04.400',-0.095,0.555
'0:04.403',-0.105,0.545
'0:04.406',-0.145,0.515
'0:04.408',-0.125,0.505
'0:04.411',-0.100,0.510
'0:04.414',-0.100,0.505
'0:04.417',-0.120,0.505
'0:04.419',-0.155,0.470
'0:04.422',-0.165,0.440
'0:04.425',-0.175,0.450
'0:04.428',-0.185,0.460
'0:04.431',-0.170,0.475
'0:04.433',-0.170,0.465
'0:04.436',-0.195,0.445
'0:04.439',-0.235,0.425
'0:04.442',-0.240,0.425
'0:04.444',-0.200,0.435
'0:04.447',-0.165,0.450
'0:04.450',-0.150,0.440
'0:04.453',-0.180,0.440
'0:04.456',-0.205,0.435
'0:04.458',-0.220,0.435
'0:04.461',-0.185,0.445
'0:04.464',-0.170,0.460
'0:04.467',-0.160,0.450
'0:04.469',-0.160,0.440
'0:04.472',-0.190,0.435
'0:04.475',-0.225,0.430
'0:04.478',-0.220,0.455
'0:04.481',-0.200,0.475
'0:04.483',-0.195,0.470
'0:04.486',-0.215,0.470
'0:04.489',-0.190,0.465
'0:04.492',-0.200,0.455
'0:04.494',-0.210,0.460
'0:04.497',-0.215,0.470
'0:04.500',-0.210,0.475
'0:04.503',-0.215,0.480
'0:04.506',-0.220,0.455
'0:04.508',-0.205,0.465
'0:04.511',-0.195,0.480
'0:04.514',-0.175,0.490
'0:04.517',-0.150,0.485
'0:04.519',-0.170,0.490
'0:04.522',-0.200,0.475
'0:04.525',-0.230,0.475
'0:04.528',-0.235,0.500
'0:04.531',-0.225,0.510
'0:04.533',-0.210,0.510
'0:04.536',-0.210,0.505
'0:04.539',-0.215,0.485
'0:04.542',-0.230,0.490
'0:04.544',-0.225,0.510
'0:04.547',-0.220,0.515
'0:04.550',-0.225,0.510
'0:04.553',-0.235,0.505
'0:04.556',-0.240,0.500
'0:04.558',-0.245,0.490
'0:04.561',-0.240,0.495
'0:04.564',-0.245,0.525
'0:04.567',-0.250,0.515
'0:04.569',-0.260,0.505
'0:04.572',-0.275,0.505
'0:04.575',-0.290,0.510
'0:04.578',-0.270,0.510
'0:04.581',-0.230,0.515
'0:04.583',-0.250,0.510
'0:04.586',-0.280,0.505
'0:04.589',-0.305,0.490
'0:04.592',-0.295,0.490
'0:04.594',-0.310,0.480
'0:04.597',-0.330,0.495
'0:04.600',-0.350,0.490
'0:04.603',-0.340,0.490
'0:04.606',-0.345,0.480
'0:04.608',-0.375,0.470
'0:04.611',-0.410,0.475
'0:04.614',-0.345,0.490
'0:04.617',-0.260,0.490
'0:04.619',-0.250,0.470
'0:04.622',-0.300,0.465
'0:04.625',-0.300,0.475
'0:04.628',-0.275,0.490
'0:04.631',-0.245,0.490
'0:04.633',-0.230,0.475
'0:04.636',-0.245,0.470
'0:04.639',-0.280,0.450
'0:04.642',-0.285,0.440
'0:04.644',-0.235,0.440
'0:04.647',-0.195,0.465
'0:04.650',-0.200,0.460
'0:04.653',-0.225,0.460
'0:04.656',-0.240,0.450
'0:04.658',-0.240,0.430
'0:04.661',-0.230,0.430
'0:04.664',-0.225,0.455
'0:04.667',-0.230,0.445
'0:04.669',-0.235,0.445
'0:04.672',-0.245,0.430
'0:04.675',-0.265,0.425
'0:04.678',-0.250,0.440
'0:04.681',-0.220,0.450
'0:04.683',-0.225,0.450
'0:04.686',-0.220,0.440
'0:04.689',-0.240,0.435
'0:04.692',-0.255,0.420
'0:04.694',-0.260,0.435
'0:04.697',-0.235,0.440
'0:04.700',-0.225,0.435
'0:04.703',-0.230,0.430
'0:04.706',-0.245,0.435
'0:04.708',-0.245,0.425
'0:04.711',-0.245,0.430
'0:04.714',-0.230,0.445
'0:04.717',-0.230,0.425
'0:04.719',-0.225,0.430
'0:04.722',-0.245,0.425
'0:04.725',-0.255,0.425
'0:04.728',-0.250,0.440
'0:04.731',-0.235,0.455
'0:04.733',-0.210,0.455
'0:04.736',-0.220,0.450
'0:04.739',-0.255,0.440
'0:04.742',-0.265,0.430
'0:04.744',-0.265,0.425
'0:04.747',-0.260,0.435
'0:04.750',-0.230,0.440
'0:04.753',-0.225,0.440
'0:04.756',-0.225,0.430
'0:04.758',-0.270,0.425
'0:04.761',-0.255,0.425
'0:04.764',-0.265,0.445
'0:04.767',-0.260,0.425
'0:04.769',-0.270,0.435
'0:04.772',-0.250,0.420
'0:04.775',-0.235,0.430
'0:04.778',-0.225,0.440
'0:04.781',-0.250,0.445
'0:04.783',-0.285,0.440
'0:04.786',-0.300,0.440
'0:04.789',-0.270,0.435
'0:04.792',-0.205,0.440
'0:04.794',-0.120,0.445
'0:04.797',-0.105,0.465
'0:04.800',-0.145,0.475
'0:04.803',-0.145,0.480
'0:04.806',-0.140,0.475
'0:04.808',-0.145,0.490
'0:04.811',-0.150,0.505
'0:04.814',-0.160,0.520
'0:04.817',-0.145,0.535
'0:04.819',-0.110,0.535
'0:04.822',-0.090,0.525
'0:04.825',-0.095,0.520
'0:04.828',-0.080,0.545
'0:04.831',-0.065,0.530
'0:04.833',-0.045,0.510
'0:04.836',-0.035,0.500
'0:04.839',-0.045,0.490
'0:04.842',-0.035,0.485
'0:04.844',-0.015,0.490
'0:04.847',-0.005,0.490
'0:04.850',0.000,0.485
'0:04.853',-0.015,0.480
'0:04.856',0.000,0.470
'0:04.858',0.005,0.455
'0:04.861',0.010,0.485
'0:04.864',0.010,0.500
'0:04.867',0.005,0.475
'0:04.869',-0.030,0.470
'0:04.872',-0.080,0.455
'0:04.875',-0.130,0.450
'0:04.878',-0.165,0.455
'0:04.881',-0.205,0.450
'0:04.883',-0.250,0.440
'0:04.886',-0.280,0.435
'0:04.889',-0.285,0.415
'0:04.892',-0.275,0.420
'0:04.894',-0.240,0.415
'0:04.897',-0.220,0.440
'0:04.900',-0.245,0.435
'0:04.903',-0.280,0.415
'0:04.906',-0.315,0.405
'0:04.908',-0.330,0.400
'0:04.911',-0.300,0.405
'0:04.914',-0.265,0.415
'0:04.917',-0.250,0.415
'0:04.919',-0.265,0.410
'0:04.922',-0.310,0.395
'0:04.925',-0.365,0.395
'0:04.928',-0.390,0.405
'0:04.931',-0.390,0.420
'0:04.933',-0.360,0.420
'0:04.936',-0.300,0.420
'0:04.939',-0.255,0.410
'0:04.942',-0.270,0.415
'0:04.944',-0.295,0.425
'0:04.947',-0.285,0.445
'0:04.950',-0.305,0.425
'0:04.953',-0.325,0.410
'0:04.956',-0.280,0.405
'0:04.958',-0.230,0.405
'0:04.961',-0.205,0.425
'0:04.964',-0.230,0.415
'0:04.967',-0.255,0.415
'0:04.969',-0.255,0.410
'0:04.972',-0.270,0.390
'0:04.975',-0.300,0.400
'0:04.978',-0.310,0.395
'0:04.981',-0.280,0.410
'0:04.983',-0.265,0.430
'0:04.986',-0.260,0.420
'0:04.989',-0.300,0.355
'0:04.992',-0.385,0.255
'0:04.994',-0.430,0.110
'0:04.997',-0.400,-0.060
'0:05.000',-0.360,-0.300
'0:05.003',-0.380,-0.555
'0:05.006',-0.400,-0.875
'0:05.008',-0.425,-1.165
'0:05.011',-0.465,-1.385
'0:05.014',-0.510,-1.460
'0:05.017',-0.560,-1.430
'0:05.019',-0.590,-1.360
'0:05.022',-0.575,-1.315
'0:05.025',-0.590,-1.265
'0:05.028',-0.610,-1.200
'0:05.031',-0.630,-1.130
'0:05.033',-0.675,-1.100
'0:05.036',-0.705,-1.075
'0:05.039',-0.730,-1.060
'0:05.042',-0.735,-0.990
'0:05.044',-0.750,-0.920
'0:05.047',-0.780,-0.820
'0:05.050',-0.840,-0.755
'0:05.053',-0.905,-0.690
'0:05.056',-0.945,-0.630
'0:05.058',-0.955,-0.565
'0:05.061',-0.900,-0.470
'0:05.064',-0.825,-0.335
'0:05.067',-0.760,-0.220
'0:05.069',-0.730,-0.095
'0:05.072',-0.700,-0.010
'0:05.075',-0.635,0.090
'0:05.078',-0.565,0.190
'0:05.081',-0.500,0.285
'0:05.083',-0.450,0.360
'0:05.086',-0.405,0.440
'0:05.089',-0.315,0.510
'0:05.092',-0.235,0.585
'0:05.094',-0.215,0.630
'0:05.097',-0.210,0.675
'0:05.100',-0.195,0.695
'0:05.103',-0.195,0.720
'0:05.106',-0.195,0.720
'0:05.108',-0.225,0.735
'0:05.111',-0.215,0.755
'0:05.114',-0.205,0.780
'0:05.117',-0.175,0.775
'0:05.119',-0.190,0.790
'0:05.122',-0.215,0.790
'0:05.125',-0.235,0.805
'0:05.128',-0.230,0.805
'0:05.131',-0.205,0.830
'0:05.133',-0.190,0.830
'0:05.136',-0.180,0.835
'0:05.139',-0.165,0.830
'0:05.142',-0.150,0.840
'0:05.144',-0.150,0.855
'0:05.147',-0.175,0.865
'0:05.150',-0.215,0.870
'0:05.153',-0.260,0.860
'0:05.156',-0.235,0.870
'0:05.158',-0.185,0.880
'0:05.161',-0.115,0.895
'0:05.164',-0.075,0.915
'0:05.167',-0.065,0.920
'0:05.169',-0.100,0.900
'0:05.172',-0.125,0.880
'0:05.175',-0.140,0.885
'0:05.178',-0.165,0.900
'0:05.181',-0.140,0.915
'0:05.183',-0.145,0.915
'0:05.186',-0.135,0.910
'0:05.189',-0.130,0.905
'0:05.192',-0.130,0.905
'0:05.194',-0.125,0.920
'0:05.197',-0.120,0.935
'0:05.200',-0.110,0.935
'0:05.203',-0.110,0.935
'0:05.206',-0.110,0.935
'0:05.208',-0.130,0.935
'0:05.211',-0.120,0.945
'0:05.214',-0.095,0.965
'0:05.217',-0.070,0.965
'0:05.219',-0.060,0.970
'0:05.222',-0.060,0.950
'0:05.225',-0.060,0.950
'0:05.228',-0.075,0.955
'0:05.231',-0.080,0.955
'0:05.233',-0.075,0.970
'0:05.236',-0.070,0.955
'0:05.239',-0.065,0.960
'0:05.242',-0.065,0.940
'0:05.244',-0.065,0.955
'0:05.247',-0.070,0.960
'0:05.250',-0.070,0.955
'0:05.253',-0.075,0.945
'0:05.256',-0.035,0.945
'0:05.258',-0.015,0.945
'0:05.261',-0.030,0.950
'0:05.264',-0.055,0.950
'0:05.267',-0.045,0.955
'0:05.269',-0.025,0.940
'0:05.272',-0.015,0.930
'0:05.275',-0.020,0.920
'0:05.278',-0.005,0.925
'0:05.281',0.005,0.915
'0:05.283',-0.010,0.900
'0:05.286',-0.010,0.885
'0:05.289',-0.010,0.875
'0:05.292',-0.010,0.855
'0:05.294',-0.015,0.845
'0:05.297',-0.010,0.850
'0:05.300',-0.010,0.835
'0:05.303',-0.040,0.815
'0:05.306',-0.065,0.775
'0:05.308',-0.080,0.760
'0:05.311',-0.090,0.760
'0:05.314',-0.090,0.760
'0:05.317',-0.055,0.750
'0:05.319',-0.035,0.715
'0:05.322',-0.040,0.700
'0:05.325',-0.075,0.680
'0:05.328',-0.100,0.675
'0:05.331',-0.090,0.675
'0:05.333',-0.075,0.655
'0:05.336',-0.070,0.655
'0:05.339',-0.085,0.640
'0:05.342',-0.115,0.640
'0:05.344',-0.130,0.635
'0:05.347',-0.125,0.630
'0:05.350',-0.125,0.610
'0:05.353',-0.135,0.605
'0:05.356',-0.160,0.590
'0:05.358',-0.170,0.595
'0:05.361',-0.160,0.605
'0:05.364',-0.160,0.600
'0:05.367',-0.165,0.600
'0:05.369',-0.155,0.615
'0:05.372',-0.170,0.595
'0:05.375',-0.180,0.585
'0:05.378',-0.180,0.595
'0:05.381',-0.175,0.615
'0:05.383',-0.180,0.620
'0:05.386',-0.185,0.615
'0:05.389',-0.195,0.605
'0:05.392',-0.205,0.610
'0:05.394',-0.210,0.605
'0:05.397',-0.215,0.615
'0:05.400',-0.205,0.620
'0:05.403',-0.200,0.610
'0:05.406',-0.210,0.610
'0:05.408',-0.210,0.605
'0:05.411',-0.215,0.625
'0:05.414',-0.225,0.640
'0:05.417',-0.225,0.635
'0:05.419',-0.255,0.640
'0:05.422',-0.250,0.630
'0:05.425',-0.255,0.645
'0:05.428',-0.245,0.655
'0:05.431',-0.250,0.670
'0:05.433',-0.250,0.660
'0:05.436',-0.240,0.670
'0:05.439',-0.215,0.660
'0:05.442',-0.210,0.660
'0:05.444',-0.220,0.660
'0:05.447',-0.230,0.675
'0:05.450',-0.225,0.685
'0:05.453',-0.225,0.685
'0:05.456',-0.245,0.665
'0:05.458',-0.270,0.675
'0:05.461',-0.260,0.690
'0:05.464',-0.255,0.690
'0:05.467',-0.245,0.690
'0:05.469',-0.245,0.685
'0:05.472',-0.265,0.670
'0:05.475',-0.285,0.675
'0:05.478',-0.285,0.690
'0:05.481',-0.290,0.710
'0:05.483',-0.285,0.715
'0:05.486',-0.300,0.700
'0:05.489',-0.310,0.705
'0:05.492',-0.315,0.680
'0:05.494',-0.315,0.695
'0:05.497',-0.305,0.705
'0:05.500',-0.305,0.710
'0:05.503',-0.315,0.700
'0:05.506',-0.340,0.695
'0:05.508',-0.350,0.675
'0:05.511',-0.350,0.690
'0:05.514',-0.330,0.710
'0:05.517',-0.325,0.710
'0:05.519',-0.325,0.705
'0:05.522',-0.335,0.690
'0:05.525',-0.370,0.695
'0:05.528',-0.370,0.700
'0:05.531',-0.370,0.700
'0:05.533',-0.345,0.700
'0:05.536',-0.345,0.695
'0:05.539',-0.350,0.685
'0:05.542',-0.365,0.670
'0:05.544',-0.375,0.690
'0:05.547',-0.365,0.690
'0:05.550',-0.355,0.680
'0:05.553',-0.360,0.670
'0:05.556',-0.360,0.670
'0:05.558',-0.355,0.675
'0:05.561',-0.345,0.685
'0:05.564',-0.365,0.685
'0:05.567',-0.405,0.670
'0:05.569',-0.410,0.675
'0:05.572',-0.365,0.660
'0:05.575',-0.330,0.655
'0:05.578',-0.320,0.670
'0:05.581',-0.330,0.675
'0:05.583',-0.360,0.680
'0:05.586',-0.370,0.680
'0:05.589',-0.370,0.660
'0:05.592',-0.370,0.655
'0:05.594',-0.370,0.660
'0:05.597',-0.370,0.670
'0:05.600',-0.365,0.680
'0:05.603',-0.375,0.675
'0:05.606',-0.370,0.675
'0:05.608',-0.380,0.650
'0:05.611',-0.360,0.665
'0:05.614',-0.345,0.655
'0:05.617',-0.340,0.665
'0:05.619',-0.330,0.650
'0:05.622',-0.335,0.645
'0:05.625',-0.360,0.640
'0:05.628',-0.370,0.650
'0:05.631',-0.350,0.655
'0:05.633',-0.340,0.655
'0:05.636',-0.350,0.655
'0:05.639',-0.370,0.640
'0:05.642',-0.390,0.630
'0:05.644',-0.385,0.630
'0:05.647',-0.360,0.645
'0:05.650',-0.350,0.635
'0:05.653',-0.350,0.635
'0:05.656',-0.350,0.625
'0:05.658',-0.360,0.620
'0:05.661',-0.355,0.615
'0:05.664',-0.340,0.630
'0:05.667',-0.355,0.615
'0:05.669',-0.360,0.615
'0:05.672',-0.375,0.600
'0:05.675',-0.360,0.610
'0:05.678',-0.355,0.600
'0:05.681',-0.365,0.610
'0:05.683',-0.375,0.600
'0:05.686',-0.380,0.590
'0:05.689',-0.370,0.580
'0:05.692',-0.355,0.575
'0:05.694',-0.350,0.580
'0:05.697',-0.350,0.595
'0:05.700',-0.360,0.600
'0:05.703',-0.365,0.580
'0:05.706',-0.375,0.580
'0:05.708',-0.375,0.585
'0:05.711',-0.355,0.590
'0:05.714',-0.350,0.610
'0:05.717',-0.345,0.590
'0:05.719',-0.345,0.580
'0:05.722',-0.365,0.570
'0:05.725',-0.370,0.565
'0:05.728',-0.340,0.560
'0:05.731',-0.305,0.580
'0:05.733',-0.300,0.585
'0:05.736',-0.320,0.585
'0:05.739',-0.340,0.575
'0:05.742',-0.330,0.585
'0:05.744',-0.290,0.605
'0:05.747',-0.260,0.615
'0:05.750',-0.260,0.610
'0:05.753',-0.275,0.615
'0:05.756',-0.285,0.615
'0:05.758',-0.290,0.630
'0:05.761',-0.295,0.640
'0:05.764',-0.270,0.650
'0:05.767',-0.240,0.665
'0:05.769',-0.175,0.665
'0:05.772',-0.150,0.645
'0:05.775',-0.155,0.625
'0:05.778',-0.155,0.600
'0:05.781',-0.140,0.610
'0:05.783',-0.120,0.590
'0:05.786',-0.125,0.575
'0:05.789',-0.135,0.560
'0:05.792',-0.125,0.565
'0:05.794',-0.125,0.570
'0:05.797',-0.115,0.575
'0:05.800',-0.100,0.575
'0:05.803',-0.105,0.565
'0:05.806',-0.135,0.560
'0:05.808',-0.175,0.545
'0:05.811',-0.200,0.555
'0:05.814',-0.210,0.570
'0:05.817',-0.235,0.560
'0:05.819',-0.280,0.545
'0:05.822',-0.340,0.530
'0:05.825',-0.390,0.520
'0:05.828',-0.410,0.515
'0:05.831',-0.405,0.520
'0:05.833',-0.385,0.505
'0:05.836',-0.380,0.505
'0:05.839',-0.385,0.490
'0:05.842',-0.395,0.475
'0:05.844',-0.380,0.495
'0:05.847',-0.370,0.495
'0:05.850',-0.365,0.505
'0:05.853',-0.385,0.505
'0:05.856',-0.395,0.475
'0:05.858',-0.400,0.475
'0:05.861',-0.370,0.495
'0:05.864',-0.370,0.500
'0:05.867',-0.370,0.490
'0:05.869',-0.370,0.485
'0:05.872',-0.375,0.480
'0:05.875',-0.385,0.460
'0:05.878',-0.400,0.475
'0:05.881',-0.390,0.480
'0:05.883',-0.360,0.485
'0:05.886',-0.365,0.470
'0:05.889',-0.380,0.460
'0:05.892',-0.395,0.460
'0:05.894',-0.405,0.480
'0:05.897',-0.390,0.465
'0:05.900',-0.365,0.465
'0:05.903',-0.355,0.460
'0:05.906',-0.360,0.435
'0:05.908',-0.380,0.450
'0:05.911',-0.390,0.465
'0:05.914',-0.365,0.475
'0:05.917',-0.345,0.480
'0:05.919',-0.355,0.450
'0:05.922',-0.390,0.390
'0:05.925',-0.445,0.290
'0:05.928',-0.445,0.190
'0:05.931',-0.415,0.060
'0:05.933',-0.385,-0.110
'0:05.936',-0.390,-0.330
'0:05.939',-0.395,-0.655
'0:05.942',-0.425,-0.980
'0:05.944',-0.465,-1.180
'0:05.947',-0.545,-1.235
'0:05.950',-0.610,-1.195
'0:05.953',-0.640,-1.145
'0:05.956',-0.640,-1.110
'0:05.958',-0.650,-1.055
'0:05.961',-0.655,-1.000
'0:05.964',-0.680,-0.940
'0:05.967',-0.720,-0.910
'0:05.969',-0.760,-0.885
'0:05.972',-0.820,-0.860
'0:05.975',-0.860,-0.830
'0:05.978',-0.840,-0.755
'0:05.981',-0.850,-0.675
'0:05.983',-0.900,-0.625
'0:05.986',-0.945,-0.560
'0:05.989',-0.985,-0.520
'0:05.992',-1.000,-0.480
'0:05.994',-0.960,-0.370
'0:05.997',-0.895,-0.250
'0:06.000',-0.855,-0.140
'0:06.003',-0.840,-0.035
'0:06.006',-0.805,0.035
'0:06.008',-0.745,0.125
'0:06.011',-0.665,0.210
'0:06.014',-0.620,0.300
'0:06.017',-0.565,0.380
'0:06.019',-0.520,0.445
'0:06.022',-0.445,0.480
'0:06.025',-0.400,0.535
'0:06.028',-0.355,0.585
'0:06.031',-0.345,0.625
'0:06.033',-0.335,0.650
'0:06.036',-0.330,0.650
'0:06.039',-0.335,0.640
'0:06.042',-0.340,0.660
'0:06.044',-0.315,0.665
'0:06.047',-0.295,0.690
'0:06.050',-0.285,0.695
'0:06.053',-0.285,0.695
'0:06.056',-0.310,0.700
'0:06.058',-0.325,0.700
'0:06.061',-0.315,0.715
'0:06.064',-0.285,0.725
'0:06.067',-0.275,0.740
'0:06.069',-0.280,0.725
'0:06.072',-0.300,0.725
'0:06.075',-0.315,0.735
'0:06.078',-0.300,0.750
'0:06.081',-0.305,0.750
'0:06.083',-0.285,0.760
'0:06.086',-0.265,0.745
'0:06.089',-0.275,0.745
'0:06.092',-0.280,0.755
'0:06.094',-0.280,0.745
'0:06.097',-0.275,0.760
'0:06.100',-0.280,0.750
'0:06.103',-0.290,0.765
'0:06.106',-0.300,0.750
'0:06.108',-0.310,0.750
'0:06.111',-0.285,0.755
'0:06.114',-0.250,0.770
'0:06.117',-0.220,0.770
'0:06.119',-0.225,0.770
'0:06.122',-0.245,0.760
'0:06.125',-0.265,0.760
'0:06.128',-0.250,0.775
'0:06.131',-0.240,0.795
'0:06.133',-0.225,0.785
'0:06.136',-0.225,0.790
'0:06.139',-0.215,0.795
'0:06.142',-0.225,0.780
'0:06.144',-0.220,0.785
'0:06.147',-0.215,0.785
'0:06.150',-0.200,0.790
'0:06.153',-0.200,0.790
'0:06.156',-0.200,0.770
'0:06.158',-0.205,0.775
'0:06.161',-0.205,0.790
'0:06.164',-0.205,0.785
'0:06.167',-0.190,0.790
'0:06.169',-0.195,0.770
'0:06.172',-0.190,0.765
'0:06.175',-0.205,0.760
'0:06.178',-0.190,0.760
'0:06.181',-0.160,0.780
'0:06.183',-0.135,0.775
'0:06.186',-0.125,0.775
'0:06.189',-0.145,0.755
'0:06.192',-0.155,0.750
'0:06.194',-0.140,0.760
'0:06.197',-0.140,0.765
'0:06.200',-0.130,0.755
'0:06.203',-0.135,0.755
'0:06.206',-0.150,0.740
'0:06.208',-0.155,0.740
'0:06.211',-0.150,0.730
'0:06.214',-0.125,0.730
'0:06.217',-0.100,0.730
'0:06.219',-0.110,0.715
'0:06.222',-0.110,0.705
'0:06.225',-0.140,0.685
'0:06.228',-0.130,0.680
'0:06.231',-0.130,0.670
'0:06.233',-0.110,0.675
'0:06.236',-0.130,0.660
'0:06.239',-0.120,0.645
'0:06.242',-0.150,0.630
'0:06.244',-0.145,0.620
'0:06.247',-0.135,0.615
'0:06.250',-0.135,0.600
'0:06.253',-0.155,0.580
'0:06.256',-0.175,0.555
'0:06.258',-0.165,0.530
'0:06.261',-0.140,0.530
'0:06.264',-0.135,0.535
'0:06.267',-0.150,0.530
'0:06.269',-0.175,0.495
'0:06.272',-0.200,0.475
'0:06.275',-0.205,0.460
'0:06.278',-0.200,0.460
'0:06.281',-0.190,0.465
'0:06.283',-0.190,0.450
'0:06.286',-0.215,0.435
'0:06.289',-0.215,0.425
'0:06.292',-0.245,0.410
'0:06.294',-0.235,0.410
'0:06.297',-0.245,0.420
'0:06.300',-0.245,0.410
'0:06.303',-0.250,0.405
'0:06.306',-0.255,0.395
'0:06.308',-0.265,0.390
'0:06.311',-0.250,0.405
'0:06.314',-0.230,0.415
'0:06.317',-0.230,0.395
'0:06.319',-0.250,0.385
'0:06.322',-0.260,0.365
'0:06.325',-0.280,0.370
'0:06.328',-0.260,0.380
'0:06.331',-0.265,0.390
'0:06.333',-0.265,0.390
'0:06.336',-0.295,0.395
'0:06.339',-0.315,0.385
'0:06.342',-0.300,0.375
'0:06.344',-0.255,0.385
'0:06.347',-0.225,0.405
'0:06.350',-0.230,0.400
'0:06.353',-0.260,0.400
'0:06.356',-0.285,0.400
'0:06.358',-0.310,0.400
'0:06.361',-0.305,0.400
'0:06.364',-0.280,0.420
'0:06.367',-0.260,0.415
'0:06.369',-0.245,0.405
'0:06.372',-0.250,0.410
'0:06.375',-0.280,0.400
'0:06.378',-0.280,0.410
'0:06.381',-0.285,0.420
'0:06.383',-0.275,0.425
'0:06.386',-0.280,0.420
'0:06.389',-0.280,0.405
'0:06.392',-0.295,0.410
'0:06.394',-0.305,0.430
'0:06.397',-0.285,0.445
'0:06.400',-0.275,0.450
'0:06.403',-0.275,0.445
'0:06.406',-0.295,0.420
'0:06.408',-0.315,0.430
'0:06.411',-0.310,0.445
'0:06.414',-0.290,0.450
'0:06.417',-0.275,0.445
'0:06.419',-0.295,0.450
'0:06.422',-0.310,0.445
'0:06.425',-0.325,0.435
'0:06.428',-0.305,0.460
'0:06.431',-0.300,0.450
'0:06.433',-0.280,0.450
'0:06.436',-0.310,0.440
'0:06.439',-0.320,0.425
'0:06.442',-0.330,0.435
'0:06.444',-0.305,0.440
'0:06.447',-0.310,0.455
'0:06.450',-0.305,0.455
'0:06.453',-0.315,0.430
'0:06.456',-0.345,0.425
'0:06.458',-0.345,0.425
'0:06.461',-0.340,0.420
'0:06.464',-0.330,0.440
'0:06.467',-0.320,0.430
'0:06.469',-0.330,0.430
'0:06.472',-0.345,0.425
'0:06.475',-0.350,0.430
'0:06.478',-0.350,0.430
'0:06.481',-0.345,0.430
'0:06.483',-0.345,0.415
'0:06.486',-0.345,0.415
'0:06.489',-0.370,0.405
'0:06.492',-0.385,0.390
'0:06.494',-0.375,0.395
'0:06.497',-0.350,0.400
'0:06.500',-0.335,0.400
'0:06.503',-0.325,0.400
'0:06.506',-0.345,0.380
'0:06.508',-0.365,0.385
'0:06.511',-0.380,0.390
'0:06.514',-0.385,0.395
'0:06.517',-0.375,0.390
'0:06.519',-0.370,0.375
'0:06.522',-0.365,0.365
'0:06.525',-0.355,0.360
'0:06.528',-0.350,0.380
'0:06.531',-0.345,0.395
'0:06.533',-0.330,0.390
'0:06.536',-0.345,0.385
'0:06.539',-0.360,0.380
'0:06.542',-0.365,0.365
'0:06.544',-0.350,0.370
'0:06.547',-0.350,0.390
'0:06.550',-0.350,0.390
'0:06.553',-0.365,0.380
'0:06.556',-0.375,0.350
'0:06.558',-0.385,0.340
'0:06.561',-0.375,0.355
'0:06.564',-0.350,0.365
'0:06.567',-0.325,0.365
'0:06.569',-0.320,0.360
'0:06.572',-0.325,0.355
'0:06.575',-0.340,0.355
'0:06.578',-0.340,0.360
'0:06.581',-0.335,0.355
'0:06.583',-0.330,0.365
'0:06.586',-0.330,0.365
'0:06.589',-0.315,0.355
'0:06.592',-0.330,0.365
'0:06.594',-0.330,0.370
'0:06.597',-0.325,0.375
'0:06.600',-0.320,0.370
'0:06.603',-0.320,0.360
'0:06.606',-0.330,0.340
'0:06.608',-0.335,0.345
'0:06.611',-0.320,0.350
'0:06.614',-0.325,0.360
'0:06.617',-0.300,0.355
'0:06.619',-0.310,0.360
'0:06.622',-0.315,0.345
'0:06.625',-0.325,0.340
'0:06.628',-0.320,0.355
'0:06.631',-0.310,0.355
'0:06.633',-0.305,0.345
'0:06.636',-0.300,0.335
'0:06.639',-0.310,0.335
'0:06.642',-0.315,0.340
'0:06.644',-0.305,0.350
'0:06.647',-0.300,0.365
'0:06.650',-0.290,0.355
'0:06.653',-0.280,0.355
'0:06.656',-0.300,0.330
'0:06.658',-0.315,0.350
'0:06.661',-0.315,0.350
'0:06.664',-0.305,0.345
'0:06.667',-0.290,0.340
'0:06.669',-0.305,0.335
'0:06.672',-0.305,0.320
'0:06.675',-0.315,0.330
'0:06.678',-0.315,0.340
'0:06.681',-0.310,0.345
'0:06.683',-0.290,0.335
'0:06.686',-0.295,0.330
'0:06.689',-0.310,0.320
'0:06.692',-0.315,0.315
'0:06.694',-0.305,0.330
'0:06.697',-0.295,0.335
'0:06.700',-0.300,0.335
'0:06.703',-0.305,0.330
'0:06.706',-0.290,0.325
'0:06.708',-0.315,0.320
'0:06.711',-0.320,0.340
'0:06.714',-0.300,0.345
'0:06.717',-0.245,0.365
'0:06.719',-0.220,0.355
'0:06.722',-0.210,0.355
'0:06.725',-0.220,0.360
'0:06.728',-0.220,0.380
'0:06.731',-0.210,0.410
'0:06.733',-0.190,0.410
'0:06.736',-0.200,0.400
'0:06.739',-0.170,0.400
'0:06.742',-0.165,0.400
'0:06.744',-0.130,0.405
'0:06.747',-0.120,0.390
'0:06.750',-0.110,0.375
'0:06.753',-0.085,0.355
'0:06.756',-0.095,0.350
'0:06.758',-0.095,0.340
'0:06.761',-0.100,0.345
'0:06.764',-0.095,0.335
'0:06.767',-0.085,0.345
'0:06.769',-0.075,0.330
'0:06.772',-0.070,0.325
'0:06.775',-0.060,0.330
'0:06.778',-0.060,0.330
'0:06.781',-0.045,0.330
'0:06.783',-0.070,0.330
'0:06.786',-0.105,0.300
'0:06.789',-0.160,0.290
'0:06.792',-0.200,0.300
'0:06.794',-0.215,0.305
'0:06.797',-0.250,0.310
'0:06.800',-0.280,0.295
'0:06.803',-0.320,0.295
'0:06.806',-0.335,0.270
'0:06.808',-0.350,0.260
'0:06.811',-0.345,0.260
'0:06.814',-0.330,0.265
'0:06.817',-0.340,0.270
'0:06.819',-0.340,0.265
'0:06.822',-0.360,0.260
'0:06.825',-0.360,0.255
'0:06.828',-0.380,0.260
'0:06.831',-0.360,0.250
'0:06.833',-0.320,0.265
'0:06.836',-0.300,0.240
'0:06.839',-0.315,0.250
'0:06.842',-0.330,0.240
'0:06.844',-0.345,0.250
'0:06.847',-0.350,0.275
'0:06.850',-0.330,0.245
'0:06.853',-0.340,0.245
'0:06.856',-0.360,0.230
'0:06.858',-0.350,0.240
'0:06.861',-0.350,0.245
'0:06.864',-0.345,0.250
'0:06.867',-0.345,0.250
'0:06.869',-0.350,0.245
'0:06.872',-0.360,0.230
'0:06.875',-0.365,0.220
'0:06.878',-0.355,0.235
'0:06.881',-0.340,0.235
'0:06.883',-0.335,0.225
'0:06.886',-0.340,0.225
'0:06.889',-0.340,0.210
'0:06.892',-0.335,0.220
'0:06.894',-0.350,0.220
'0:06.897',-0.350,0.215
'0:06.900',-0.355,0.215
'0:06.903',-0.350,0.220
'0:06.906',-0.350,0.230
'0:06.908',-0.375,0.225
'0:06.911',-0.390,0.215
'0:06.914',-0.375,0.165
'0:06.917',-0.380,0.095
'0:06.919',-0.400,-0.010
'0:06.922',-0.420,-0.155
'0:06.925',-0.425,-0.310
'0:06.928',-0.415,-0.490
'0:06.931',-0.415,-0.695
'0:06.933',-0.390,-0.995
'0:06.936',-0.385,-1.260
'0:06.939',-0.435,-1.475
'0:06.942',-0.530,-1.550
'0:06.944',-0.585,-1.505
'0:06.947',-0.610,-1.445
'0:06.950',-0.585,-1.390
'0:06.953',-0.575,-1.350
'0:06.956',-0.605,-1.305
'0:06.958',-0.635,-1.260
'0:06.961',-0.665,-1.200
'0:06.964',-0.700,-1.160
'0:06.967',-0.725,-1.145
'0:06.969',-0.760,-1.130
'0:06.972',-0.790,-1.090
'0:06.975',-0.795,-1.055
'0:06.978',-0.800,-0.995
'0:06.981',-0.850,-0.915
'0:06.983',-0.910,-0.875
'0:06.986',-0.955,-0.815
'0:06.989',-0.965,-0.780
'0:06.992',-0.975,-0.720
'0:06.994',-0.950,-0.635
'0:06.997',-0.910,-0.535
'0:07.000',-0.870,-0.425
'0:07.003',-0.840,-0.330
'0:07.006',-0.810,-0.250
'0:07.008',-0.775,-0.165
'0:07.011',-0.695,-0.075
'0:07.014',-0.615,0.020
'0:07.017',-0.555,0.085
'0:07.019',-0.510,0.135
'0:07.022',-0.485,0.190
'0:07.025',-0.440,0.275
'0:07.028',-0.360,0.345
'0:07.031',-0.335,0.400
'0:07.033',-0.315,0.425
'0:07.036',-0.295,0.445
'0:07.039',-0.285,0.445
'0:07.042',-0.285,0.445
'0:07.044',-0.285,0.460
'0:07.047',-0.275,0.485
'0:07.050',-0.265,0.495
'0:07.053',-0.245,0.510
'0:07.056',-0.255,0.500
'0:07.058',-0.260,0.500
'0:07.061',-0.260,0.510
'0:07.064',-0.240,0.530
'0:07.067',-0.225,0.545
'0:07.069',-0.245,0.560
'0:07.072',-0.250,0.535
'0:07.075',-0.270,0.525
'0:07.078',-0.270,0.530
'0:07.081',-0.250,0.545
'0:07.083',-0.240,0.555
'0:07.086',-0.220,0.550
'0:07.089',-0.245,0.540
'0:07.092',-0.250,0.535
'0:07.094',-0.240,0.540
'0:07.097',-0.230,0.550
'0:07.100',-0.220,0.575
'0:07.103',-0.220,0.570
'0:07.106',-0.220,0.555
'0:07.108',-0.235,0.545
'0:07.111',-0.215,0.560
'0:07.114',-0.215,0.580
'0:07.117',-0.215,0.585
'0:07.119',-0.200,0.575
'0:07.122',-0.215,0.560
'0:07.125',-0.220,0.565
'0:07.128',-0.215,0.565
'0:07.131',-0.225,0.565
'0:07.133',-0.215,0.550
'0:07.136',-0.215,0.550
'0:07.139',-0.220,0.555
'0:07.142',-0.230,0.565
'0:07.144',-0.210,0.570
'0:07.147',-0.195,0.570
'0:07.150',-0.200,0.565
'0:07.153',-0.200,0.560
'0:07.156',-0.185,0.545
'0:07.158',-0.180,0.545
'0:07.161',-0.170,0.565
'0:07.164',-0.180,0.570
'0:07.167',-0.190,0.575
'0:07.169',-0.185,0.570
'0:07.172',-0.175,0.565
'0:07.175',-0.195,0.560
'0:07.178',-0.170,0.575
'0:07.181',-0.165,0.595
'0:07.183',-0.140,0.580
'0:07.186',-0.130,0.570
'0:07.189',-0.130,0.550
'0:07.192',-0.130,0.545
'0:07.194',-0.135,0.535
'0:07.197',-0.130,0.530
'0:07.200',-0.135,0.525
'0:07.203',-0.125,0.530
'0:07.206',-0.120,0.535
'0:07.208',-0.115,0.555
'0:07.211',-0.115,0.525
'0:07.214',-0.130,0.505
'0:07.217',-0.115,0.485
'0:07.219',-0.115,0.480
'0:07.222',-0.110,0.480
'0:07.225',-0.115,0.485
'0:07.228',-0.085,0.500
'0:07.231',-0.070,0.500
'0:07.233',-0.080,0.485
'0:07.236',-0.080,0.485
'0:07.239',-0.105,0.465
'0:07.242',-0.115,0.470
'0:07.244',-0.115,0.460
'0:07.247',-0.115,0.445
'0:07.250',-0.120,0.420
'0:07.253',-0.120,0.405
'0:07.256',-0.120,0.400
'0:07.258',-0.125,0.385
'0:07.261',-0.130,0.380
'0:07.264',-0.130,0.375
'0:07.267',-0.135,0.370
'0:07.269',-0.140,0.345
'0:07.272',-0.155,0.330
'0:07.275',-0.155,0.300
'0:07.278',-0.145,0.290
'0:07.281',-0.145,0.295
'0:07.283',-0.155,0.290
'0:07.286',-0.190,0.270
'0:07.289',-0.205,0.245
'0:07.292',-0.220,0.235
'0:07.294',-0.210,0.240
'0:07.297',-0.215,0.245
'0:07.300',-0.230,0.215
'0:07.303',-0.240,0.190
'0:07.306',-0.245,0.170
'0:07.308',-0.240,0.165
'0:07.311',-0.250,0.180
'0:07.314',-0.255,0.185
'0:07.317',-0.230,0.170
'0:07.319',-0.235,0.170
'0:07.322',-0.250,0.150
'0:07.325',-0.280,0.145
'0:07.328',-0.270,0.145
'0:07.331',-0.265,0.145
'0:07.333',-0.265,0.155
'0:07.336',-0.285,0.135
'0:07.339',-0.275,0.115
'0:07.342',-0.280,0.125
'0:07.344',-0.255,0.145
'0:07.347',-0.260,0.160
'0:07.350',-0.270,0.145
'0:07.353',-0.275,0.140
'0:07.356',-0.290,0.140
'0:07.358',-0.290,0.140
'0:07.361',-0.305,0.145
'0:07.364',-0.315,0.135
'0:07.367',-0.305,0.140
'0:07.369',-0.300,0.130
'0:07.372',-0.300,0.125
'0:07.375',-0.300,0.130
'0:07.378',-0.300,0.120
'0:07.381',-0.280,0.140
'0:07.383',-0.280,0.150
'0:07.386',-0.280,0.150
'0:07.389',-0.300,0.150
'0:07.392',-0.310,0.145
'0:07.394',-0.305,0.155
'0:07.397',-0.300,0.170
'0:07.400',-0.290,0.150
'0:07.403',-0.310,0.130
'0:07.406',-0.345,0.135
'0:07.408',-0.355,0.145
'0:07.411',-0.335,0.160
'0:07.414',-0.315,0.170
'0:07.417',-0.320,0.160
'0:07.419',-0.325,0.145
'0:07.422',-0.340,0.140
'0:07.425',-0.345,0.150
'0:07.428',-0.365,0.175
'0:07.431',-0.355,0.175
'0:07.433',-0.320,0.175
'0:07.436',-0.320,0.150
'0:07.439',-0.340,0.135
'0:07.442',-0.355,0.130
'0:07.444',-0.350,0.155
'0:07.447',-0.330,0.165
'0:07.450',-0.310,0.180
'0:07.453',-0.315,0.175
'0:07.456',-0.335,0.160
'0:07.458',-0.365,0.155
'0:07.461',-0.370,0.150
'0:07.464',-0.355,0.160
'0:07.467',-0.345,0.155
'0:07.469',-0.345,0.155
'0:07.472',-0.380,0.140
'0:07.475',-0.405,0.145
'0:07.478',-0.395,0.150
'0:07.481',-0.390,0.150
'0:07.483',-0.380,0.130
'0:07.486',-0.385,0.130
'0:07.489',-0.390,0.120
'0:07.492',-0.410,0.130
'0:07.494',-0.400,0.140
'0:07.497',-0.400,0.150
'0:07.500',-0.410,0.140
'0:07.503',-0.405,0.130
'0:07.506',-0.395,0.110
'0:07.508',-0.400,0.120
'0:07.511',-0.385,0.135
'0:07.514',-0.390,0.130
'0:07.517',-0.390,0.120
'0:07.519',-0.395,0.105
'0:07.522',-0.410,0.095
'0:07.525',-0.410,0.105
'0:07.528',-0.405,0.130
'0:07.531',-0.380,0.140
'0:07.533',-0.385,0.135
'0:07.536',-0.405,0.115
'0:07.539',-0.410,0.080
'0:07.542',-0.415,0.075
'0:07.544',-0.400,0.095
'0:07.547',-0.395,0.095
'0:07.550',-0.400,0.095
'0:07.553',-0.395,0.095
'0:07.556',-0.395,0.085
'0:07.558',-0.410,0.080
'0:07.561',-0.410,0.065
'0:07.564',-0.400,0.080
'0:07.567',-0.385,0.080
'0:07.569',-0.375,0.085
'0:07.572',-0.375,0.065
'0:07.575',-0.390,0.075
'0:07.578',-0.400,0.075
'0:07.581',-0.385,0.090
'0:07.583',-0.380,0.085
'0:07.586',-0.375,0.085
'0:07.589',-0.390,0.070
'0:07.592',-0.400,0.070
'0:07.594',-0.375,0.080
'0:07.597',-0.370,0.085
'0:07.600',-0.380,0.075
'0:07.603',-0.400,0.065
'0:07.606',-0.400,0.055
'0:07.608',-0.375,0.060
'0:07.611',-0.345,0.070
'0:07.614',-0.330,0.075
'0:07.617',-0.330,0.080
'0:07.619',-0.360,0.060
'0:07.622',-0.390,0.050
'0:07.625',-0.405,0.055
'0:07.628',-0.375,0.065
'0:07.631',-0.350,0.075
'0:07.633',-0.345,0.085
'0:07.636',-0.360,0.065
'0:07.639',-0.355,0.060
'0:07.642',-0.365,0.075
'0:07.644',-0.350,0.075
'0:07.647',-0.335,0.090
'0:07.650',-0.350,0.075
'0:07.653',-0.360,0.060
'0:07.656',-0.360,0.045
'0:07.658',-0.370,0.050
'0:07.661',-0.355,0.065
'0:07.664',-0.340,0.075
'0:07.667',-0.345,0.070
'0:07.669',-0.340,0.055
'0:07.672',-0.350,0.045
'0:07.675',-0.365,0.045
'0:07.678',-0.380,0.065
'0:07.681',-0.370,0.070
'0:07.683',-0.350,0.065
'0:07.686',-0.325,0.040
'0:07.689',-0.330,0.050
'0:07.692',-0.350,0.055
'0:07.694',-0.360,0.070
'0:07.697',-0.350,0.070
'0:07.700',-0.350,0.065
'0:07.703',-0.325,0.050
'0:07.706',-0.310,0.055
'0:07.708',-0.335,0.070
'0:07.711',-0.345,0.065
'0:07.714',-0.350,0.040
'0:07.717',-0.345,0.050
'0:07.719',-0.355,0.040
'0:07.722',-0.350,0.040
'0:07.725',-0.360,0.035
'0:07.728',-0.355,0.055
'0:07.731',-0.345,0.055
'0:07.733',-0.340,0.060
'0:07.736',-0.335,0.055
'0:07.739',-0.345,0.065
'0:07.742',-0.365,0.070
'0:07.744',-0.390,0.060
'0:07.747',-0.380,0.060
'0:07.750',-0.340,0.080
'0:07.753',-0.280,0.070
'0:07.756',-0.260,0.060
'0:07.758',-0.280,0.065
'0:07.761',-0.280,0.075
'0:07.764',-0.275,0.085
'0:07.767',-0.260,0.105
'0:07.769',-0.260,0.100
'0:07.772',-0.270,0.105
'0:07.775',-0.285,0.120
'0:07.778',-0.245,0.135
'0:07.781',-0.230,0.155
'0:07.783',-0.205,0.145
'0:07.786',-0.195,0.135
'0:07.789',-0.185,0.120
'0:07.792',-0.180,0.110
'0:07.794',-0.140,0.125
'0:07.797',-0.130,0.135
'0:07.800',-0.105,0.110
'0:07.803',-0.130,0.080
'0:07.806',-0.150,0.055
'0:07.808',-0.145,0.045
'0:07.811',-0.120,0.065
'0:07.814',-0.105,0.085
'0:07.817',-0.070,0.075
'0:07.819',-0.080,0.070
'0:07.822',-0.085,0.065
'0:07.825',-0.135,0.060
'0:07.828',-0.210,0.060
'0:07.831',-0.250,0.050
'0:07.833',-0.260,0.050
'0:07.836',-0.285,0.040
'0:07.839',-0.315,0.030
'0:07.842',-0.360,0.010
'0:07.844',-0.375,0.010
'0:07.847',-0.385,0.025
'0:07.850',-0.365,0.025
'0:07.853',-0.370,0.010
'0:07.856',-0.370,0.000
'0:07.858',-0.395,0.000
'0:07.861',-0.385,0.015
'0:07.864',-0.370,0.025
'0:07.867',-0.375,0.030
'0:07.869',-0.390,0.010
'0:07.872',-0.395,-0.020
'0:07.875',-0.400,-0.010
'0:07.878',-0.390,-0.015
'0:07.881',-0.385,0.005
'0:07.883',-0.385,-0.005
'0:07.886',-0.380,-0.005
'0:07.889',-0.400,-0.020
'0:07.892',-0.400,-0.015
'0:07.894',-0.385,0.000
'0:07.897',-0.375,0.000
'0:07.900',-0.360,0.000
'0:07.903',-0.375,0.005
'0:07.906',-0.390,-0.005
'0:07.908',-0.390,0.000
'0:07.911',-0.405,0.005
'0:07.914',-0.400,0.000
'0:07.917',-0.390,0.005
'0:07.919',-0.365,-0.005
'0:07.922',-0.385,-0.010
'0:07.925',-0.395,-0.015
'0:07.928',-0.400,-0.005
'0:07.931',-0.395,0.005
'0:07.933',-0.390,0.000
'0:07.936',-0.385,-0.020
'0:07.939',-0.385,-0.030
'0:07.942',-0.400,-0.020
'0:07.944',-0.385,0.000
'0:07.947',-0.375,0.010
'0:07.950',-0.385,-0.010
'0:07.953',-0.405,-0.075
'0:07.956',-0.450,-0.165
'0:07.958',-0.440,-0.255
'0:07.961',-0.415,-0.360
'0:07.964',-0.395,-0.480
'0:07.967',-0.375,-0.665
'0:07.969',-0.380,-0.910
'0:07.972',-0.395,-1.200
'0:07.975',-0.465,-1.460
'0:07.978',-0.540,-1.580
'0:07.981',-0.600,-1.575
'0:07.983',-0.620,-1.520
'0:07.986',-0.640,-1.490
'0:07.989',-0.655,-1.455
'0:07.992',-0.650,-1.425
'0:07.994',-0.650,-1.350
'0:07.997',-0.680,-1.285
'0:08.000',-0.735,-1.260
'0:08.003',-0.780,-1.250
'0:08.006',-0.820,-1.250
'0:08.008',-0.855,-1.215
'0:08.011',-0.855,-1.140
'0:08.014',-0.890,-1.065
'0:08.017',-0.935,-1.015
'0:08.019',-0.985,-0.985
'0:08.022',-1.015,-0.945
'0:08.025',-1.020,-0.890
'0:08.028',-1.015,-0.830
'0:08.031',-0.985,-0.745
'0:08.033',-0.930,-0.645
'0:08.036',-0.885,-0.540
'0:08.039',-0.880,-0.470
'0:08.042',-0.835,-0.390
'0:08.044',-0.740,-0.300
'0:08.047',-0.655,-0.200
'0:08.050',-0.585,-0.140
'0:08.053',-0.545,-0.070
'0:08.056',-0.525,-0.025
'0:08.058',-0.505,0.030
'0:08.061',-0.450,0.100
'0:08.064',-0.390,0.150
'0:08.067',-0.335,0.185
'0:08.069',-0.315,0.200
'0:08.072',-0.310,0.215
'0:08.075',-0.320,0.215
'0:08.078',-0.310,0.250
'0:08.081',-0.300,0.265
'0:08.083',-0.285,0.275
'0:08.086',-0.285,0.275
'0:08.089',-0.285,0.290
'0:08.092',-0.305,0.295
'0:08.094',-0.290,0.310
'0:08.097',-0.280,0.305
'0:08.100',-0.280,0.300
'0:08.103',-0.275,0.310
'0:08.106',-0.280,0.300
'0:08.108',-0.300,0.310
'0:08.111',-0.290,0.330
'0:08.114',-0.275,0.350
'0:08.117',-0.260,0.350
'0:08.119',-0.265,0.340
'0:08.122',-0.270,0.320
'0:08.125',-0.280,0.325
'0:08.128',-0.285,0.350
'0:08.131',-0.285,0.355
'0:08.133',-0.275,0.360
'0:08.136',-0.250,0.345
'0:08.139',-0.250,0.360
'0:08.142',-0.260,0.350
'0:08.144',-0.280,0.365
'0:08.147',-0.265,0.375
'0:08.150',-0.250,0.370
'0:08.153',-0.260,0.380
'0:08.156',-0.255,0.360
'0:08.158',-0.255,0.355
'0:08.161',-0.260,0.365
'0:08.164',-0.245,0.375
'0:08.167',-0.245,0.375
'0:08.169',-0.240,0.370
'0:08.172',-0.230,0.370
'0:08.175',-0.235,0.370
'0:08.178',-0.225,0.370
'0:08.181',-0.225,0.380
'0:08.183',-0.200,0.375
'0:08.186',-0.210,0.380
'0:08.189',-0.225,0.365
'0:08.192',-0.235,0.380
'0:08.194',-0.230,0.405
'0:08.197',-0.225,0.410
'0:08.200',-0.200,0.405
'0:08.203',-0.180,0.395
'0:08.206',-0.185,0.380
'0:08.208',-0.185,0.390
'0:08.211',-0.190,0.390
'0:08.214',-0.200,0.400
'0:08.217',-0.185,0.390
'0:08.219',-0.170,0.375
'0:08.222',-0.160,0.380
'0:08.225',-0.170,0.370
'0:08.228',-0.170,0.390
'0:08.231',-0.155,0.395
'0:08.233',-0.155,0.375
'0:08.236',-0.150,0.365
'0:08.239',-0.150,0.360
'0:08.242',-0.165,0.365
'0:08.244',-0.160,0.385
'0:08.247',-0.150,0.380
'0:08.250',-0.150,0.370
'0:08.253',-0.150,0.355
'0:08.256',-0.150,0.340
'0:08.258',-0.145,0.335
'0:08.261',-0.135,0.360
'0:08.264',-0.145,0.355
'0:08.267',-0.150,0.335
'0:08.269',-0.145,0.320
'0:08.272',-0.150,0.310
'0:08.275',-0.165,0.285
'0:08.278',-0.150,0.290
'0:08.281',-0.130,0.285
'0:08.283',-0.120,0.275
'0:08.286',-0.130,0.270
'0:08.289',-0.135,0.255
'0:08.292',-0.145,0.245
'0:08.294',-0.145,0.240
'0:08.297',-0.150,0.240
'0:08.300',-0.155,0.230
'0:08.303',-0.165,0.220
'0:08.306',-0.175,0.200
'0:08.308',-0.200,0.175
'0:08.311',-0.215,0.160
'0:08.314',-0.220,0.175
'0:08.317',-0.205,0.160
'0:08.319',-0.210,0.155
'0:08.322',-0.220,0.130
'0:08.325',-0.230,0.115
'0:08.328',-0.235,0.105
'0:08.331',-0.245,0.100
'0:08.333',-0.235,0.100
'0:08.336',-0.250,0.095
'0:08.339',-0.270,0.075
'0:08.342',-0.270,0.070
'0:08.344',-0.280,0.090
'0:08.347',-0.265,0.090
'0:08.350',-0.255,0.075
'0:08.353',-0.255,0.060
'0:08.356',-0.285,0.040
'0:08.358',-0.290,0.060
'0:08.361',-0.280,0.070
'0:08.364',-0.275,0.070
'0:08.367',-0.270,0.060
'0:08.369',-0.275,0.070
'0:08.372',-0.265,0.060
'0:08.375',-0.275,0.065
'0:08.378',-0.285,0.075
'0:08.381',-0.275,0.075
'0:08.383',-0.265,0.070
'0:08.386',-0.280,0.075
'0:08.389',-0.290,0.065
'0:08.392',-0.295,0.060
'0:08.394',-0.285,0.075
'0:08.397',-0.265,0.080
'0:08.400',-0.270,0.080
'0:08.403',-0.280,0.070
'0:08.406',-0.295,0.070
'0:08.408',-0.305,0.075
'0:08.411',-0.300,0.080
'0:08.414',-0.280,0.115
'0:08.417',-0.285,0.125
'0:08.419',-0.285,0.115
'0:08.422',-0.305,0.095
'0:08.425',-0.315,0.095
'0:08.428',-0.315,0.105
'0:08.431',-0.295,0.125
'0:08.433',-0.295,0.120
'0:08.436',-0.295,0.115
'0:08.439',-0.300,0.100
'0:08.442',-0.310,0.110
'0:08.444',-0.320,0.130
'0:08.447',-0.305,0.130
'0:08.450',-0.300,0.145
'0:08.453',-0.305,0.135
'0:08.456',-0.305,0.115
'0:08.458',-0.330,0.105
'0:08.461',-0.335,0.115
'0:08.464',-0.335,0.130
'0:08.467',-0.315,0.145
'0:08.469',-0.315,0.140
'0:08.472',-0.330,0.130
'0:08.475',-0.355,0.135
'0:08.478',-0.335,0.140
'0:08.481',-0.325,0.145
'0:08.483',-0.325,0.135
'0:08.486',-0.325,0.125
'0:08.489',-0.330,0.135
'0:08.492',-0.355,0.120
'0:08.494',-0.360,0.130
'0:08.497',-0.350,0.125
'0:08.500',-0.350,0.145
'0:08.503',-0.345,0.130
'0:08.506',-0.355,0.115
'0:08.508',-0.380,0.110
'0:08.511',-0.375,0.115
'0:08.514',-0.370,0.120
'0:08.517',-0.365,0.105
'0:08.519',-0.370,0.105
'0:08.522',-0.385,0.100
'0:08.525',-0.405,0.100
'0:08.528',-0.400,0.110
'0:08.531',-0.395,0.115
'0:08.533',-0.370,0.110
'0:08.536',-0.370,0.110
'0:08.539',-0.390,0.100
'0:08.542',-0.410,0.090
'0:08.544',-0.400,0.110
'0:08.547',-0.405,0.110
'0:08.550',-0.385,0.100
'0:08.553',-0.365,0.100
'0:08.556',-0.375,0.080
'0:08.558',-0.395,0.065
'0:08.561',-0.405,0.085
'0:08.564',-0.400,0.100
'0:08.567',-0.380,0.110
'0:08.569',-0.365,0.105
'0:08.572',-0.365,0.100
'0:08.575',-0.385,0.090
'0:08.578',-0.395,0.075
'0:08.581',-0.400,0.085
'0:08.583',-0.385,0.090
'0:08.586',-0.375,0.090
'0:08.589',-0.390,0.080
'0:08.592',-0.380,0.070
'0:08.594',-0.355,0.085
'0:08.597',-0.340,0.090
'0:08.600',-0.360,0.080
'0:08.603',-0.380,0.065
'0:08.606',-0.390,0.050
'0:08.608',-0.380,0.060
'0:08.611',-0.365,0.075
'0:08.614',-0.365,0.085
'0:08.617',-0.355,0.075
'0:08.619',-0.355,0.065
'0:08.622',-0.370,0.050
'0:08.625',-0.375,0.045
'0:08.628',-0.385,0.055
'0:08.631',-0.375,0.080
'0:08.633',-0.375,0.070
'0:08.636',-0.375,0.065
'0:08.639',-0.345,0.070
'0:08.642',-0.345,0.065
'0:08.644',-0.350,0.070
'0:08.647',-0.350,0.075
'0:08.650',-0.350,0.055
'0:08.653',-0.355,0.045
'0:08.656',-0.345,0.050
'0:08.658',-0.355,0.055
'0:08.661',-0.350,0.050
'0:08.664',-0.355,0.060
'0:08.667',-0.355,0.045
'0:08.669',-0.370,0.055
'0:08.672',-0.360,0.050
'0:08.675',-0.365,0.045
'0:08.678',-0.360,0.040
'0:08.681',-0.350,0.070
'0:08.683',-0.345,0.060
'0:08.686',-0.360,0.065
'0:08.689',-0.355,0.050
'0:08.692',-0.375,0.045
'0:08.694',-0.360,0.075
'0:08.697',-0.355,0.090
'0:08.700',-0.360,0.065
'0:08.703',-0.365,0.040
'0:08.706',-0.360,0.035
'0:08.708',-0.365,0.045
'0:08.711',-0.360,0.050
'0:08.714',-0.350,0.060
'0:08.717',-0.340,0.050
'0:08.719',-0.335,0.055
'0:08.722',-0.335,0.050
'0:08.725',-0.350,0.040
'0:08.728',-0.330,0.055
'0:08.731',-0.310,0.080
'0:08.733',-0.320,0.095
'0:08.736',-0.310,0.095
'0:08.739',-0.305,0.095
'0:08.742',-0.320,0.095
'0:08.744',-0.310,0.115
'0:08.747',-0.285,0.145
'0:08.750',-0.275,0.145
'0:08.753',-0.265,0.155
'0:08.756',-0.220,0.150
'0:08.758',-0.190,0.135
'0:08.761',-0.170,0.125
'0:08.764',-0.185,0.105
'0:08.767',-0.175,0.100
'0:08.769',-0.155,0.095
'0:08.772',-0.150,0.085
'0:08.775',-0.155,0.075
'0:08.778',-0.155,0.070
'0:08.781',-0.145,0.080
'0:08.783',-0.120,0.070
'0:08.786',-0.100,0.080
'0:08.789',-0.110,0.075
'0:08.792',-0.140,0.080
'0:08.794',-0.150,0.090
'0:08.797',-0.185,0.080
'0:08.800',-0.210,0.075
'0:08.803',-0.245,0.065
'0:08.806',-0.285,0.050
'0:08.808',-0.325,0.045
'0:08.811',-0.370,0.050
'0:08.814',-0.395,0.030
'0:08.817',-0.400,0.015
'0:08.819',-0.420,0.015
'0:08.822',-0.410,-0.015
'0:08.825',-0.415,0.000
'0:08.828',-0.425,0.015
'0:08.831',-0.405,0.025
'0:08.833',-0.405,0.020
'0:08.836',-0.405,0.015
'0:08.839',-0.415,0.015
'0:08.842',-0.425,0.005
'0:08.844',-0.440,0.010
'0:08.847',-0.440,0.015
'0:08.850',-0.410,0.005
'0:08.853',-0.395,0.015
'0:08.856',-0.405,-0.010
'0:08.858',-0.430,-0.015
'0:08.861',-0.430,0.000
'0:08.864',-0.425,0.010
'0:08.867',-0.405,0.000
'0:08.869',-0.420,-0.005
'0:08.872',-0.410,-0.010
'0:08.875',-0.405,-0.005
'0:08.878',-0.400,0.015
'0:08.881',-0.400,0.010
'0:08.883',-0.400,-0.010
'0:08.886',-0.420,-0.030
'0:08.889',-0.430,-0.030
'0:08.892',-0.440,-0.030
'0:08.894',-0.430,-0.020
'0:08.897',-0.420,-0.010
'0:08.900',-0.425,-0.005
'0:08.903',-0.410,0.005
'0:08.906',-0.400,-0.005
'0:08.908',-0.420,-0.010
'0:08.911',-0.415,-0.025
'0:08.914',-0.415,0.000
'0:08.917',-0.410,-0.005
'0:08.919',-0.425,-0.060
'0:08.922',-0.445,-0.110
'0:08.925',-0.475,-0.185
'0:08.928',-0.460,-0.275
'0:08.931',-0.420,-0.380
'0:08.933',-0.380,-0.505
'0:08.936',-0.390,-0.675
'0:08.939',-0.410,-0.920
'0:08.942',-0.405,-1.215
'0:08.944',-0.435,-1.460
'0:08.947',-0.505,-1.575
'0:08.950',-0.605,-1.600
'0:08.953',-0.650,-1.560
'0:08.956',-0.665,-1.510
'0:08.958',-0.665,-1.470
'0:08.961',-0.680,-1.415
'0:08.964',-0.690,-1.350
'0:08.967',-0.695,-1.300
'0:08.969',-0.740,-1.275
'0:08.972',-0.795,-1.250
'0:08.975',-0.845,-1.235
'0:08.978',-0.885,-1.185
'0:08.981',-0.900,-1.120
'0:08.983',-0.915,-1.065
'0:08.986',-0.965,-1.005
'0:08.989',-1.020,-0.960
'0:08.992',-1.070,-0.915
'0:08.994',-1.065,-0.855
'0:08.997',-1.045,-0.790
'0:09.000',-1.005,-0.705
'0:09.003',-0.955,-0.610
'0:09.006',-0.925,-0.525
'0:09.008',-0.915,-0.445
'0:09.011',-0.875,-0.365
'0:09.014',-0.790,-0.270
'0:09.017',-0.695,-0.190
'0:09.019',-0.630,-0.125
'0:09.022',-0.600,-0.080
'0:09.025',-0.575,-0.020
'0:09.028',-0.515,0.055
'0:09.031',-0.440,0.130
'0:09.033',-0.395,0.175
'0:09.036',-0.380,0.185
'0:09.039',-0.385,0.195
'0:09.042',-0.385,0.205
'0:09.044',-0.375,0.230
'0:09.047',-0.360,0.245
'0:09.050',-0.340,0.255
'0:09.053',-0.330,0.275
'0:09.056',-0.340,0.255
'0:09.058',-0.350,0.250
'0:09.061',-0.350,0.265
'0:09.064',-0.330,0.300
'0:09.067',-0.325,0.300
'0:09.069',-0.330,0.300
'0:09.072',-0.335,0.285
'0:09.075',-0.335,0.290
'0:09.078',-0.325,0.315
'0:09.081',-0.305,0.330
'0:09.083',-0.295,0.325
'0:09.086',-0.295,0.315
'0:09.089',-0.305,0.320
'0:09.092',-0.320,0.325
'0:09.094',-0.320,0.340
'0:09.097',-0.330,0.325
'0:09.100',-0.310,0.305
'0:09.103',-0.305,0.320
'0:09.106',-0.295,0.320
'0:09.108',-0.310,0.335
'0:09.111',-0.300,0.340
'0:09.114',-0.300,0.355
'0:09.117',-0.290,0.350
'0:09.119',-0.280,0.345
'0:09.122',-0.285,0.345
'0:09.125',-0.290,0.350
'0:09.128',-0.280,0.355
'0:09.131',-0.265,0.345
'0:09.133',-0.250,0.360
'0:09.136',-0.260,0.360
'0:09.139',-0.270,0.360
'0:09.142',-0.280,0.350
'0:09.144',-0.260,0.355
'0:09.147',-0.255,0.375
'0:09.150',-0.270,0.355
'0:09.153',-0.265,0.345
'0:09.156',-0.255,0.345
'0:09.158',-0.245,0.350
'0:09.161',-0.235,0.360
'0:09.164',-0.240,0.360
'0:09.167',-0.230,0.355
'0:09.169',-0.210,0.360
'0:09.172',-0.210,0.365
'0:09.175',-0.220,0.360
'0:09.178',-0.225,0.375
'0:09.181',-0.215,0.380
'0:09.183',-0.205,0.360
'0:09.186',-0.205,0.355
'0:09.189',-0.205,0.355
'0:09.192',-0.210,0.360
'0:09.194',-0.200,0.365
'0:09.197',-0.210,0.355
'0:09.200',-0.190,0.340
'0:09.203',-0.190,0.335
'0:09.206',-0.190,0.330
'0:09.208',-0.200,0.330
'0:09.211',-0.210,0.320
'0:09.214',-0.215,0.325
'0:09.217',-0.175,0.325
'0:09.219',-0.155,0.315
'0:09.222',-0.165,0.305
'0:09.225',-0.185,0.285
'0:09.228',-0.180,0.300
'0:09.231',-0.165,0.315
'0:09.233',-0.150,0.300
'0:09.236',-0.150,0.290
'0:09.239',-0.165,0.270
'0:09.242',-0.180,0.255
'0:09.244',-0.190,0.250
'0:09.247',-0.180,0.255
'0:09.250',-0.185,0.245
'0:09.253',-0.210,0.210
'0:09.256',-0.220,0.190
'0:09.258',-0.235,0.175
'0:09.261',-0.235,0.185
'0:09.264',-0.230,0.185
'0:09.267',-0.225,0.165
'0:09.269',-0.240,0.155
'0:09.272',-0.255,0.130
'0:09.275',-0.265,0.120
'0:09.278',-0.275,0.120
'0:09.281',-0.265,0.115
'0:09.283',-0.270,0.100
'0:09.286',-0.285,0.100
'0:09.289',-0.295,0.085
'0:09.292',-0.310,0.085
'0:09.294',-0.305,0.085
'0:09.297',-0.300,0.090
'0:09.300',-0.305,0.085
'0:09.303',-0.305,0.070
'0:09.306',-0.325,0.060
'0:09.308',-0.365,0.040
'0:09.311',-0.345,0.045
'0:09.314',-0.330,0.065
'0:09.317',-0.315,0.070
'0:09.319',-0.335,0.065
'0:09.322',-0.320,0.040
'0:09.325',-0.350,0.045
'0:09.328',-0.335,0.065
'0:09.331',-0.340,0.075
'0:09.333',-0.330,0.070
'0:09.336',-0.340,0.060
'0:09.339',-0.350,0.045
'0:09.342',-0.355,0.050
'0:09.344',-0.375,0.065
'0:09.347',-0.360,0.070
'0:09.350',-0.335,0.080
'0:09.353',-0.335,0.065
'0:09.356',-0.340,0.045
'0:09.358',-0.360,0.045
'0:09.361',-0.355,0.065
'0:09.364',-0.360,0.085
'0:09.367',-0.345,0.085
'0:09.369',-0.350,0.085
'0:09.372',-0.350,0.070
'0:09.375',-0.365,0.080
'0:09.378',-0.355,0.085
'0:09.381',-0.360,0.095
'0:09.383',-0.345,0.085
'0:09.386',-0.355,0.090
'0:09.389',-0.355,0.090
'0:09.392',-0.365,0.090
'0:09.394',-0.375,0.100
'0:09.397',-0.365,0.100
'0:09.400',-0.350,0.100
'0:09.403',-0.360,0.100
'0:09.406',-0.345,0.095
'0:09.408',-0.370,0.100
'0:09.411',-0.365,0.115
'0:09.414',-0.350,0.130
'0:09.417',-0.340,0.120
'0:09.419',-0.350,0.125
'0:09.422',-0.370,0.115
'0:09.425',-0.385,0.125
'0:09.428',-0.390,0.120
'0:09.431',-0.375,0.125
'0:09.433',-0.365,0.125
'0:09.436',-0.375,0.105
'0:09.439',-0.395,0.085
'0:09.442',-0.405,0.090
'0:09.444',-0.410,0.110
'0:09.447',-0.405,0.125
'0:09.450',-0.400,0.120
'0:09.453',-0.400,0.115
'0:09.456',-0.405,0.105
'0:09.458',-0.425,0.095
'0:09.461',-0.410,0.115
'0:09.464',-0.405,0.120
'0:09.467',-0.385,0.115
'0:09.469',-0.395,0.115
'0:09.472',-0.405,0.105
'0:09.475',-0.410,0.100
'0:09.478',-0.420,0.100
'0:09.481',-0.410,0.110
'0:09.483',-0.410,0.105
'0:09.486',-0.405,0.085
'0:09.489',-0.400,0.080
'0:09.492',-0.410,0.080
'0:09.494',-0.420,0.085
'0:09.497',-0.415,0.105
'0:09.500',-0.415,0.080
'0:09.503',-0.430,0.070
'0:09.506',-0.425,0.070
'0:09.508',-0.430,0.070
'0:09.511',-0.435,0.070
'0:09.514',-0.425,0.095
'0:09.517',-0.415,0.075
'0:09.519',-0.410,0.085
'0:09.522',-0.395,0.085
'0:09.525',-0.410,0.070
'0:09.528',-0.430,0.060
'0:09.531',-0.450,0.050
'0:09.533',-0.420,0.055
'0:09.536',-0.425,0.055
'0:09.539',-0.420,0.045
'0:09.542',-0.435,0.040
'0:09.544',-0.420,0.050
'0:09.547',-0.425,0.055
'0:09.550',-0.420,0.055
'0:09.553',-0.430,0.050
'0:09.556',-0.425,0.050
'0:09.558',-0.425,0.050
'0:09.561',-0.400,0.075
'0:09.564',-0.395,0.075
'0:09.567',-0.405,0.065
'0:09.569',-0.410,0.035
'0:09.572',-0.400,0.050
'0:09.575',-0.395,0.055
'0:09.578',-0.380,0.060
'0:09.581',-0.370,0.075
'0:09.583',-0.375,0.070
'0:09.586',-0.385,0.070
'0:09.589',-0.405,0.060
'0:09.592',-0.410,0.045
'0:09.594',-0.410,0.055
'0:09.597',-0.405,0.060
'0:09.600',-0.390,0.035
'0:09.603',-0.395,0.035
'0:09.606',-0.410,0.040
'0:09.608',-0.420,0.035
'0:09.611',-0.390,0.050
'0:09.614',-0.385,0.050
'0:09.617',-0.380,0.045
'0:09.619',-0.375,0.045
'0:09.622',-0.380,0.035
'0:09.625',-0.395,0.035
'0:09.628',-0.390,0.060
'0:09.631',-0.385,0.075
'0:09.633',-0.390,0.070
'0:09.636',-0.400,0.055
'0:09.639',-0.415,0.035
'0:09.642',-0.400,0.030
'0:09.644',-0.410,0.040
'0:09.647',-0.395,0.045
'0:09.650',-0.400,0.040
'0:09.653',-0.395,0.040
'0:09.656',-0.405,0.030
'0:09.658',-0.395,0.030
'0:09.661',-0.370,0.040
'0:09.664',-0.365,0.055
'0:09.667',-0.360,0.050
'0:09.669',-0.370,0.040
'0:09.672',-0.385,0.025
'0:09.675',-0.395,0.025
'0:09.678',-0.390,0.040
'0:09.681',-0.375,0.060
'0:09.683',-0.365,0.055
'0:09.686',-0.375,0.040
'0:09.689',-0.395,0.025
'0:09.692',-0.390,0.020
'0:09.694',-0.385,0.040
'0:09.697',-0.375,0.045
'0:09.700',-0.365,0.050
'0:09.703',-0.360,0.035
'0:09.706',-0.370,0.040
'0:09.708',-0.380,0.055
'0:09.711',-0.360,0.060
'0:09.714',-0.320,0.080
'0:09.717',-0.290,0.095
'0:09.719',-0.285,0.085
'0:09.722',-0.310,0.095
'0:09.725',-0.310,0.105
'0:09.728',-0.285,0.125
'0:09.731',-0.260,0.145
'0:09.733',-0.240,0.155
'0:09.736',-0.220,0.150
'0:09.739',-0.210,0.125
'0:09.742',-0.205,0.115
'0:09.744',-0.210,0.100
'0:09.747',-0.185,0.105
'0:09.750',-0.150,0.095
'0:09.753',-0.135,0.090
'0:09.756',-0.140,0.075
'0:09.758',-0.160,0.065
'0:09.761',-0.170,0.065
'0:09.764',-0.145,0.065
'0:09.767',-0.130,0.070
'0:09.769',-0.125,0.060
'0:09.772',-0.120,0.065
'0:09.775',-0.130,0.060
'0:09.778',-0.140,0.065
'0:09.781',-0.180,0.070
'0:09.783',-0.230,0.060
'0:09.786',-0.270,0.055
'0:09.789',-0.310,0.040
'0:09.792',-0.355,0.050
'0:09.794',-0.410,0.035
'0:09.797',-0.425,0.040
'0:09.800',-0.420,0.015
'0:09.803',-0.410,0.025
'0:09.806',-0.410,0.005
'0:09.808',-0.410,0.005
'0:09.811',-0.405,0.030
'0:09.814',-0.395,0.030
'0:09.817',-0.400,0.025
'0:09.819',-0.400,-0.010
'0:09.822',-0.420,-0.010
'0:09.825',-0.415,-0.005
'0:09.828',-0.415,0.015
'0:09.831',-0.420,0.010
'0:09.833',-0.430,-0.005
'0:09.836',-0.440,-0.015
'0:09.839',-0.430,-0.020
'0:09.842',-0.420,-0.010
'0:09.844',-0.415,0.005
'0:09.847',-0.400,0.015
'0:09.850',-0.405,0.015
'0:09.853',-0.410,0.015
'0:09.856',-0.415,0.000
'0:09.858',-0.415,-0.010
'0:09.861',-0.410,-0.005
'0:09.864',-0.400,0.005
'0:09.867',-0.395,0.010
'0:09.869',-0.405,-0.005
'0:09.872',-0.410,-0.005
'0:09.875',-0.420,-0.010
'0:09.878',-0.415,-0.005
'0:09.881',-0.410,0.005
'0:09.883',-0.410,-0.010
'0:09.886',-0.400,-0.010
'0:09.889',-0.405,-0.025
'0:09.892',-0.425,-0.010
'0:09.894',-0.405,0.020
'0:09.897',-0.390,0.030
'0:09.900',-0.385,0.015
'0:09.903',-0.390,-0.015
'0:09.906',-0.415,-0.080
'0:09.908',-0.435,-0.165
'0:09.911',-0.430,-0.255
'0:09.914',-0.385,-0.340
'0:09.917',-0.360,-0.475
'0:09.919',-0.365,-0.685
'0:09.922',-0.375,-0.930
'0:09.925',-0.385,-1.190
'0:09.928',-0.420,-1.390
'0:09.931',-0.505,-1.470
'0:09.933',-0.570,-1.490
'0:09.936',-0.620,-1.455
'0:09.939',-0.620,-1.420
'0:09.942',-0.635,-1.380
'0:09.944',-0.635,-1.335
'0:09.947',-0.645,-1.270
'0:09.950',-0.680,-1.240
'0:09.953',-0.725,-1.220
'0:09.956',-0.765,-1.190
'0:09.958',-0.785,-1.165
'0:09.961',-0.820,-1.120
'0:09.964',-0.825,-1.050
'0:09.967',-0.860,-1.000
'0:09.969',-0.895,-0.955
'0:09.972',-0.930,-0.915
'0:09.975',-0.960,-0.865
'0:09.978',-0.980,-0.820
'0:09.981',-0.985,-0.770
'0:09.983',-0.985,-0.725
'0:09.986',-0.940,-0.630
'0:09.989',-0.895,-0.530
'0:09.992',-0.880,-0.425
'0:09.994',-0.850,-0.355
'0:09.997',-0.780,-0.280
