'Elapsed time','MLII','V1'
'hh:mm:ss.mmm','mV','mV'
'0:00.000',0.175,0.635
'0:00.003',0.175,0.635
'0:00.006',0.175,0.635
'0:00.008',0.175,0.635
'0:00.011',0.175,0.635
'0:00.014',0.175,0.635
'0:00.017',0.175,0.635
'0:00.019',0.175,0.635
'0:00.022',0.175,0.635
'0:00.025',0.180,0.635
'0:00.028',0.185,0.645
'0:00.031',0.210,0.620
'0:00.033',0.230,0.615
'0:00.036',0.220,0.595
'0:00.039',0.195,0.580
'0:00.042',0.160,0.570
'0:00.044',0.095,0.580
'0:00.047',0.060,0.595
'0:00.050',0.085,0.590
'0:00.053',0.150,0.585
'0:00.056',0.195,0.580
'0:00.058',0.160,0.575
'0:00.061',0.065,0.590
'0:00.064',0.055,0.590
'0:00.067',0.120,0.585
'0:00.069',0.220,0.570
'0:00.072',0.240,0.545
'0:00.075',0.200,0.560
'0:00.078',0.160,0.575
'0:00.081',0.140,0.590
'0:00.083',0.140,0.600
'0:00.086',0.125,0.600
'0:00.089',0.110,0.575
'0:00.092',0.100,0.585
'0:00.094',0.110,0.595
'0:00.097',0.135,0.620
'0:00.100',0.140,0.625
'0:00.103',0.105,0.620
'0:00.106',0.055,0.600
'0:00.108',0.030,0.600
'0:00.111',0.010,0.595
'0:00.114',0.015,0.610
'0:00.117',-0.015,0.610
'0:00.119',-0.035,0.615
'0:00.122',-0.060,0.610
'0:00.125',-0.090,0.595
'0:00.128',-0.125,0.620
'0:00.131',-0.125,0.655
'0:00.133',-0.110,0.660
'0:00.136',-0.110,0.650
'0:00.139',-0.110,0.605
'0:00.142',-0.130,0.565
'0:00.144',-0.130,0.545
'0:00.147',-0.135,0.550
'0:00.150',-0.140,0.565
'0:00.153',-0.150,0.580
'0:00.156',-0.175,0.580
'0:00.158',-0.160,0.580
'0:00.161',-0.165,0.580
'0:00.164',-0.170,0.585
'0:00.167',-0.185,0.585
'0:00.169',-0.195,0.580
'0:00.172',-0.180,0.570
'0:00.175',-0.165,0.555
'0:00.178',-0.175,0.560
'0:00.181',-0.200,0.590
'0:00.183',-0.215,0.590
'0:00.186',-0.215,0.575
'0:00.189',-0.185,0.570
'0:00.192',-0.170,0.555
'0:00.194',-0.190,0.550
'0:00.197',-0.230,0.545
'0:00.200',-0.230,0.565
'0:00.203',-0.210,0.565
'0:00.206',-0.175,0.545
'0:00.208',-0.160,0.525
'0:00.211',-0.170,0.525
'0:00.214',-0.190,0.560
'0:00.217',-0.195,0.560
'0:00.219',-0.190,0.550
'0:00.222',-0.165,0.530
'0:00.225',-0.160,0.525
'0:00.228',-0.180,0.540
'0:00.231',-0.190,0.545
'0:00.233',-0.175,0.535
'0:00.236',-0.180,0.520
'0:00.239',-0.175,0.520
'0:00.242',-0.195,0.515
'0:00.244',-0.200,0.535
'0:00.247',-0.180,0.570
'0:00.250',-0.185,0.570
'0:00.253',-0.195,0.575
'0:00.256',-0.210,0.590
'0:00.258',-0.245,0.610
'0:00.261',-0.240,0.625
'0:00.264',-0.185,0.630
'0:00.267',-0.080,0.605
'0:00.269',0.025,0.560
'0:00.272',0.110,0.490
'0:00.275',0.170,0.400
'0:00.278',0.200,0.345
'0:00.281',0.205,0.310
'0:00.283',0.235,0.225
'0:00.286',0.330,0.100
'0:00.289',0.425,-0.085
'0:00.292',0.535,-0.260
'0:00.294',0.600,-0.370
'0:00.297',0.630,-0.395
'0:00.300',0.610,-0.365
'0:00.303',0.575,-0.365
'0:00.306',0.550,-0.375
'0:00.308',0.535,-0.340
'0:00.311',0.520,-0.285
'0:00.314',0.490,-0.220
'0:00.317',0.445,-0.180
'0:00.319',0.390,-0.130
'0:00.322',0.330,-0.095
'0:00.325',0.270,-0.060
'0:00.328',0.220,-0.010
'0:00.331',0.175,0.045
'0:00.333',0.095,0.070
'0:00.336',-0.020,0.095
'0:00.339',-0.145,0.100
'0:00.342',-0.280,0.130
'0:00.344',-0.405,0.170
'0:00.347',-0.490,0.200
'0:00.350',-0.545,0.230
'0:00.353',-0.570,0.255
'0:00.356',-0.620,0.265
'0:00.358',-0.660,0.285
'0:00.361',-0.700,0.310
'0:00.364',-0.690,0.325
'0:00.367',-0.670,0.345
'0:00.369',-0.660,0.355
'0:00.372',-0.655,0.360
'0:00.375',-0.660,0.380
'0:00.378',-0.640,0.410
'0:00.381',-0.615,0.445
'0:00.383',-0.595,0.450
'0:00.386',-0.590,0.470
'0:00.389',-0.575,0.465
'0:00.392',-0.580,0.470
'0:00.394',-0.580,0.485
'0:00.397',-0.560,0.515
'0:00.400',-0.515,0.510
'0:00.403',-0.485,0.530
'0:00.406',-0.475,0.515
'0:00.408',-0.485,0.510
'0:00.411',-0.485,0.520
'0:00.414',-0.465,0.525
'0:00.417',-0.460,0.535
'0:00.419',-0.460,0.520
'0:00.422',-0.460,0.520
'0:00.425',-0.470,0.510
'0:00.428',-0.475,0.535
'0:00.431',-0.465,0.535
'0:00.433',-0.470,0.535
'0:00.436',-0.485,0.535
'0:00.439',-0.485,0.525
'0:00.442',-0.505,0.520
'0:00.444',-0.505,0.535
'0:00.447',-0.500,0.545
'0:00.450',-0.490,0.535
'0:00.453',-0.490,0.530
'0:00.456',-0.495,0.525
'0:00.458',-0.505,0.530
'0:00.461',-0.530,0.535
'0:00.464',-0.530,0.560
'0:00.467',-0.520,0.560
'0:00.469',-0.500,0.555
'0:00.472',-0.495,0.525
'0:00.475',-0.505,0.530
'0:00.478',-0.520,0.525
'0:00.481',-0.515,0.535
'0:00.483',-0.505,0.530
'0:00.486',-0.505,0.525
'0:00.489',-0.515,0.520
'0:00.492',-0.515,0.510
'0:00.494',-0.520,0.530
'0:00.497',-0.500,0.535
'0:00.500',-0.485,0.535
'0:00.503',-0.495,0.530
'0:00.506',-0.490,0.515
'0:00.508',-0.485,0.510
'0:00.511',-0.480,0.495
'0:00.514',-0.480,0.505
'0:00.517',-0.480,0.510
'0:00.519',-0.455,0.505
'0:00.522',-0.450,0.490
'0:00.525',-0.435,0.480
'0:00.528',-0.445,0.485
'0:00.531',-0.415,0.490
'0:00.533',-0.415,0.485
'0:00.536',-0.405,0.475
'0:00.539',-0.395,0.465
'0:00.542',-0.385,0.460
'0:00.544',-0.385,0.465
'0:00.547',-0.370,0.480
'0:00.550',-0.350,0.475
'0:00.553',-0.350,0.470
'0:00.556',-0.365,0.440
'0:00.558',-0.375,0.430
'0:00.561',-0.350,0.420
'0:00.564',-0.305,0.450
'0:00.567',-0.265,0.430
'0:00.569',-0.255,0.420
'0:00.572',-0.275,0.420
'0:00.575',-0.285,0.390
'0:00.578',-0.280,0.380
'0:00.581',-0.240,0.390
'0:00.583',-0.210,0.380
'0:00.586',-0.215,0.370
'0:00.589',-0.225,0.360
'0:00.592',-0.220,0.340
'0:00.594',-0.240,0.355
'0:00.597',-0.230,0.350
'0:00.600',-0.200,0.345
'0:00.603',-0.190,0.320
'0:00.606',-0.180,0.300
'0:00.608',-0.185,0.305
'0:00.611',-0.195,0.295
'0:00.614',-0.185,0.310
'0:00.617',-0.155,0.295
'0:00.619',-0.160,0.285
'0:00.622',-0.175,0.270
'0:00.625',-0.185,0.260
'0:00.628',-0.185,0.250
'0:00.631',-0.180,0.265
'0:00.633',-0.170,0.250
'0:00.636',-0.170,0.250
'0:00.639',-0.180,0.240
'0:00.642',-0.175,0.240
'0:00.644',-0.165,0.240
'0:00.647',-0.145,0.255
'0:00.650',-0.125,0.255
'0:00.653',-0.125,0.230
'0:00.656',-0.135,0.230
'0:00.658',-0.160,0.210
'0:00.661',-0.185,0.225
'0:00.664',-0.195,0.210
'0:00.667',-0.160,0.225
'0:00.669',-0.145,0.215
'0:00.672',-0.150,0.180
'0:00.675',-0.180,0.170
'0:00.678',-0.210,0.175
'0:00.681',-0.190,0.190
'0:00.683',-0.180,0.185
'0:00.686',-0.185,0.180
'0:00.689',-0.215,0.160
'0:00.692',-0.235,0.150
'0:00.694',-0.240,0.155
'0:00.697',-0.200,0.160
'0:00.700',-0.160,0.170
'0:00.703',-0.145,0.165
'0:00.706',-0.175,0.155
'0:00.708',-0.195,0.160
'0:00.711',-0.200,0.160
'0:00.714',-0.190,0.175
'0:00.717',-0.170,0.180
'0:00.719',-0.185,0.170
'0:00.722',-0.205,0.150
'0:00.725',-0.220,0.150
'0:00.728',-0.215,0.160
'0:00.731',-0.195,0.175
'0:00.733',-0.185,0.170
'0:00.736',-0.195,0.165
'0:00.739',-0.210,0.170
'0:00.742',-0.240,0.160
'0:00.744',-0.265,0.185
'0:00.747',-0.275,0.175
'0:00.750',-0.295,0.175
'0:00.753',-0.320,0.185
'0:00.756',-0.355,0.175
'0:00.758',-0.375,0.160
'0:00.761',-0.405,0.165
'0:00.764',-0.425,0.185
'0:00.767',-0.435,0.175
'0:00.769',-0.450,0.180
'0:00.772',-0.440,0.160
'0:00.775',-0.440,0.150
'0:00.778',-0.440,0.155
'0:00.781',-0.430,0.170
'0:00.783',-0.420,0.170
'0:00.786',-0.430,0.160
'0:00.789',-0.435,0.150
'0:00.792',-0.455,0.140
'0:00.794',-0.470,0.155
'0:00.797',-0.475,0.155
'0:00.800',-0.455,0.155
'0:00.803',-0.460,0.135
'0:00.806',-0.465,0.120
'0:00.808',-0.485,0.120
'0:00.811',-0.485,0.120
'0:00.814',-0.470,0.125
'0:00.817',-0.455,0.125
'0:00.819',-0.450,0.130
'0:00.822',-0.460,0.110
'0:00.825',-0.460,0.105
'0:00.828',-0.450,0.120
'0:00.831',-0.440,0.125
'0:00.833',-0.435,0.125
'0:00.836',-0.455,0.120
'0:00.839',-0.475,0.100
'0:00.842',-0.480,0.105
'0:00.844',-0.475,0.110
'0:00.847',-0.445,0.110
'0:00.850',-0.430,0.110
'0:00.853',-0.470,0.100
'0:00.856',-0.490,0.080
'0:00.858',-0.505,0.075
'0:00.861',-0.485,0.105
'0:00.864',-0.445,0.105
'0:00.867',-0.425,0.095
'0:00.869',-0.430,0.080
'0:00.872',-0.450,0.075
'0:00.875',-0.470,0.060
'0:00.878',-0.465,0.070
'0:00.881',-0.455,0.085
'0:00.883',-0.440,0.085
'0:00.886',-0.460,0.075
'0:00.889',-0.485,0.085
'0:00.892',-0.485,0.085
'0:00.894',-0.495,0.100
'0:00.897',-0.485,0.155
'0:00.900',-0.495,0.160
'0:00.903',-0.495,0.170
'0:00.906',-0.485,0.155
'0:00.908',-0.415,0.125
'0:00.911',-0.315,0.090
'0:00.914',-0.205,0.070
'0:00.917',-0.125,-0.010
'0:00.919',-0.085,-0.090
'0:00.922',-0.050,-0.165
'0:00.925',-0.035,-0.235
'0:00.928',0.030,-0.325
'0:00.931',0.140,-0.465
'0:00.933',0.255,-0.610
'0:00.936',0.315,-0.745
'0:00.939',0.370,-0.840
'0:00.942',0.395,-0.875
'0:00.944',0.400,-0.885
'0:00.947',0.390,-0.885
'0:00.950',0.395,-0.870
'0:00.953',0.365,-0.845
'0:00.956',0.345,-0.810
'0:00.958',0.290,-0.755
'0:00.961',0.220,-0.695
'0:00.964',0.190,-0.630
'0:00.967',0.170,-0.575
'0:00.969',0.105,-0.525
'0:00.972',0.020,-0.480
'0:00.975',-0.065,-0.440
'0:00.978',-0.170,-0.380
'0:00.981',-0.305,-0.345
'0:00.983',-0.415,-0.310
'0:00.986',-0.555,-0.285
'0:00.989',-0.665,-0.280
'0:00.992',-0.750,-0.245
'0:00.994',-0.805,-0.210
'0:00.997',-0.845,-0.185
'0:01.000',-0.885,-0.160
'0:01.003',-0.910,-0.150
'0:01.006',-0.905,-0.150
'0:01.008',-0.910,-0.120
'0:01.011',-0.925,-0.085
'0:01.014',-0.905,-0.045
'0:01.017',-0.880,-0.025
'0:01.019',-0.850,-0.010
'0:01.022',-0.840,-0.005
'0:01.025',-0.830,0.000
'0:01.028',-0.830,0.035
'0:01.031',-0.810,0.055
'0:01.033',-0.770,0.060
'0:01.036',-0.760,0.060
'0:01.039',-0.745,0.070
'0:01.042',-0.730,0.070
'0:01.044',-0.710,0.085
'0:01.047',-0.710,0.090
'0:01.050',-0.680,0.100
'0:01.053',-0.690,0.110
'0:01.056',-0.690,0.090
'0:01.058',-0.695,0.090
'0:01.061',-0.695,0.095
'0:01.064',-0.700,0.100
'0:01.067',-0.690,0.100
'0:01.069',-0.695,0.100
'0:01.072',-0.710,0.095
'0:01.075',-0.705,0.090
'0:01.078',-0.715,0.095
'0:01.081',-0.715,0.120
'0:01.083',-0.710,0.110
'0:01.086',-0.720,0.115
'0:01.089',-0.725,0.100
'0:01.092',-0.735,0.110
'0:01.094',-0.735,0.110
'0:01.097',-0.715,0.120
'0:01.100',-0.710,0.135
'0:01.103',-0.720,0.145
'0:01.106',-0.735,0.120
'0:01.108',-0.750,0.130
'0:01.111',-0.755,0.125
'0:01.114',-0.740,0.130
'0:01.117',-0.720,0.140
'0:01.119',-0.730,0.150
'0:01.122',-0.735,0.120
'0:01.125',-0.735,0.130
'0:01.128',-0.740,0.130
'0:01.131',-0.730,0.145
'0:01.133',-0.700,0.135
'0:01.136',-0.710,0.140
'0:01.139',-0.710,0.130
'0:01.142',-0.715,0.125
'0:01.144',-0.720,0.135
'0:01.147',-0.695,0.155
'0:01.150',-0.675,0.155
'0:01.153',-0.665,0.155
'0:01.156',-0.655,0.135
'0:01.158',-0.665,0.115
'0:01.161',-0.660,0.110
'0:01.164',-0.655,0.115
'0:01.167',-0.625,0.130
'0:01.169',-0.605,0.125
'0:01.172',-0.605,0.125
'0:01.175',-0.605,0.120
'0:01.178',-0.605,0.110
'0:01.181',-0.590,0.115
'0:01.183',-0.555,0.120
'0:01.186',-0.535,0.105
'0:01.189',-0.530,0.095
'0:01.192',-0.525,0.085
'0:01.194',-0.530,0.070
'0:01.197',-0.505,0.095
'0:01.200',-0.470,0.075
'0:01.203',-0.455,0.075
'0:01.206',-0.460,0.045
'0:01.208',-0.455,0.035
'0:01.211',-0.450,0.040
'0:01.214',-0.420,0.035
'0:01.217',-0.400,0.035
'0:01.219',-0.400,0.035
'0:01.222',-0.390,0.015
'0:01.225',-0.390,-0.005
'0:01.228',-0.390,0.000
'0:01.231',-0.380,-0.005
'0:01.233',-0.370,-0.005
'0:01.236',-0.365,-0.020
'0:01.239',-0.370,-0.060
'0:01.242',-0.365,-0.055
'0:01.244',-0.355,-0.060
'0:01.247',-0.345,-0.055
'0:01.250',-0.315,-0.070
'0:01.253',-0.315,-0.080
'0:01.256',-0.320,-0.100
'0:01.258',-0.340,-0.105
'0:01.261',-0.345,-0.110
'0:01.264',-0.340,-0.105
'0:01.267',-0.315,-0.115
'0:01.269',-0.310,-0.115
'0:01.272',-0.295,-0.115
'0:01.275',-0.285,-0.130
'0:01.278',-0.270,-0.135
'0:01.281',-0.270,-0.135
'0:01.283',-0.295,-0.140
'0:01.286',-0.310,-0.135
'0:01.289',-0.320,-0.140
'0:01.292',-0.340,-0.135
'0:01.294',-0.360,-0.140
'0:01.297',-0.365,-0.140
'0:01.300',-0.360,-0.135
'0:01.303',-0.360,-0.135
'0:01.306',-0.355,-0.150
'0:01.308',-0.360,-0.145
'0:01.311',-0.360,-0.145
'0:01.314',-0.335,-0.130
'0:01.317',-0.310,-0.125
'0:01.319',-0.310,-0.140
'0:01.322',-0.295,-0.165
'0:01.325',-0.300,-0.165
'0:01.328',-0.290,-0.190
'0:01.331',-0.310,-0.175
'0:01.333',-0.335,-0.185
'0:01.336',-0.365,-0.180
'0:01.339',-0.375,-0.180
'0:01.342',-0.400,-0.160
'0:01.344',-0.400,-0.150
'0:01.347',-0.390,-0.125
'0:01.350',-0.370,-0.115
'0:01.353',-0.385,-0.110
'0:01.356',-0.375,-0.130
'0:01.358',-0.385,-0.140
'0:01.361',-0.390,-0.140
'0:01.364',-0.385,-0.135
'0:01.367',-0.375,-0.125
'0:01.369',-0.410,-0.135
'0:01.372',-0.455,-0.135
'0:01.375',-0.490,-0.110
'0:01.378',-0.535,-0.080
'0:01.381',-0.550,-0.050
'0:01.383',-0.570,-0.060
'0:01.386',-0.590,-0.060
'0:01.389',-0.605,-0.095
'0:01.392',-0.620,-0.120
'0:01.394',-0.620,-0.130
'0:01.397',-0.610,-0.130
'0:01.400',-0.595,-0.155
'0:01.403',-0.615,-0.155
'0:01.406',-0.610,-0.165
'0:01.408',-0.620,-0.180
'0:01.411',-0.615,-0.165
'0:01.414',-0.620,-0.175
'0:01.417',-0.615,-0.185
'0:01.419',-0.640,-0.175
'0:01.422',-0.655,-0.175
'0:01.425',-0.665,-0.185
'0:01.428',-0.665,-0.165
'0:01.431',-0.645,-0.150
'0:01.433',-0.630,-0.165
'0:01.436',-0.630,-0.185
'0:01.439',-0.640,-0.190
'0:01.442',-0.640,-0.190
'0:01.444',-0.635,-0.170
'0:01.447',-0.590,-0.145
'0:01.450',-0.570,-0.135
'0:01.453',-0.570,-0.160
'0:01.456',-0.590,-0.180
'0:01.458',-0.615,-0.205
'0:01.461',-0.625,-0.190
'0:01.464',-0.625,-0.160
'0:01.467',-0.630,-0.155
'0:01.469',-0.630,-0.155
'0:01.472',-0.605,-0.155
'0:01.475',-0.610,-0.155
'0:01.478',-0.605,-0.120
'0:01.481',-0.620,-0.085
'0:01.483',-0.610,-0.060
'0:01.486',-0.590,-0.040
'0:01.489',-0.555,0.000
'0:01.492',-0.540,0.005
'0:01.494',-0.540,0.010
'0:01.497',-0.575,-0.015
'0:01.500',-0.590,-0.055
'0:01.503',-0.620,-0.100
'0:01.506',-0.655,-0.155
'0:01.508',-0.665,-0.215
'0:01.511',-0.680,-0.235
'0:01.514',-0.645,-0.250
'0:01.517',-0.600,-0.255
'0:01.519',-0.620,-0.270
'0:01.522',-0.655,-0.250
'0:01.525',-0.720,-0.230
'0:01.528',-0.740,-0.170
'0:01.531',-0.740,-0.150
'0:01.533',-0.720,-0.140
'0:01.536',-0.665,-0.155
'0:01.539',-0.575,-0.185
'0:01.542',-0.445,-0.225
'0:01.544',-0.340,-0.260
'0:01.547',-0.230,-0.320
'0:01.550',-0.145,-0.385
'0:01.553',-0.095,-0.445
'0:01.556',-0.050,-0.500
'0:01.558',-0.005,-0.580
'0:01.561',0.075,-0.670
'0:01.564',0.200,-0.800
'0:01.567',0.305,-0.920
'0:01.569',0.410,-1.045
'0:01.572',0.500,-1.155
'0:01.575',0.560,-1.215
'0:01.578',0.590,-1.225
'0:01.581',0.585,-1.225
'0:01.583',0.585,-1.230
'0:01.586',0.555,-1.210
'0:01.589',0.535,-1.180
'0:01.592',0.480,-1.125
'0:01.594',0.385,-1.055
'0:01.597',0.310,-0.980
'0:01.600',0.225,-0.900
'0:01.603',0.160,-0.795
'0:01.606',0.085,-0.745
'0:01.608',0.035,-0.690
'0:01.611',-0.050,-0.635
'0:01.614',-0.185,-0.530
'0:01.617',-0.365,-0.455
'0:01.619',-0.575,-0.365
'0:01.622',-0.760,-0.320
'0:01.625',-0.905,-0.285
'0:01.628',-1.025,-0.255
'0:01.631',-1.110,-0.220
'0:01.633',-1.150,-0.260
'0:01.636',-1.190,-0.345
'0:01.639',-1.205,-0.445
'0:01.642',-1.200,-0.505
'0:01.644',-1.205,-0.515
'0:01.647',-1.180,-0.520
'0:01.650',-1.165,-0.505
'0:01.653',-1.150,-0.500
'0:01.656',-1.125,-0.505
'0:01.658',-1.140,-0.470
'0:01.661',-1.155,-0.405
'0:01.664',-1.165,-0.325
'0:01.667',-1.155,-0.280
'0:01.669',-1.130,-0.255
'0:01.672',-1.095,-0.260
'0:01.675',-1.060,-0.250
'0:01.678',-1.010,-0.230
'0:01.681',-0.980,-0.195
'0:01.683',-0.965,-0.175
'0:01.686',-0.975,-0.165
'0:01.689',-0.980,-0.155
'0:01.692',-0.995,-0.160
'0:01.694',-0.990,-0.145
'0:01.697',-0.985,-0.145
'0:01.700',-0.975,-0.145
'0:01.703',-0.980,-0.150
'0:01.706',-0.960,-0.180
'0:01.708',-0.925,-0.175
'0:01.711',-0.915,-0.180
'0:01.714',-0.910,-0.150
'0:01.717',-0.935,-0.160
'0:01.719',-0.985,-0.155
'0:01.722',-1.005,-0.165
'0:01.725',-1.030,-0.150
'0:01.728',-1.055,-0.140
'0:01.731',-1.060,-0.150
'0:01.733',-1.070,-0.130
'0:01.736',-1.075,-0.125
'0:01.739',-1.080,-0.105
'0:01.742',-1.085,-0.105
'0:01.744',-1.080,-0.085
'0:01.747',-1.055,-0.075
'0:01.750',-1.040,-0.050
'0:01.753',-1.040,-0.050
'0:01.756',-1.025,-0.075
'0:01.758',-1.035,-0.080
'0:01.761',-1.040,-0.055
'0:01.764',-1.030,-0.020
'0:01.767',-1.025,-0.015
'0:01.769',-1.010,-0.020
'0:01.772',-1.010,-0.080
'0:01.775',-1.010,-0.135
'0:01.778',-1.010,-0.145
'0:01.781',-0.995,-0.115
'0:01.783',-0.980,-0.040
'0:01.786',-0.995,0.045
'0:01.789',-1.005,0.100
'0:01.792',-1.015,0.090
'0:01.794',-1.000,0.060
'0:01.797',-0.950,-0.015
'0:01.800',-0.915,-0.095
'0:01.803',-0.875,-0.175
'0:01.806',-0.885,-0.235
'0:01.808',-0.935,-0.260
'0:01.811',-0.960,-0.265
'0:01.814',-0.955,-0.255
'0:01.817',-0.925,-0.230
'0:01.819',-0.875,-0.205
'0:01.822',-0.835,-0.200
'0:01.825',-0.835,-0.190
'0:01.828',-0.855,-0.160
'0:01.831',-0.865,-0.155
'0:01.833',-0.880,-0.140
'0:01.836',-0.880,-0.150
'0:01.839',-0.870,-0.160
'0:01.842',-0.835,-0.180
'0:01.844',-0.815,-0.165
'0:01.847',-0.800,-0.155
'0:01.850',-0.780,-0.145
'0:01.853',-0.760,-0.140
'0:01.856',-0.740,-0.180
'0:01.858',-0.720,-0.200
'0:01.861',-0.720,-0.200
'0:01.864',-0.710,-0.190
'0:01.867',-0.690,-0.190
'0:01.869',-0.685,-0.225
'0:01.872',-0.675,-0.240
'0:01.875',-0.685,-0.235
'0:01.878',-0.635,-0.210
'0:01.881',-0.600,-0.195
'0:01.883',-0.565,-0.205
'0:01.886',-0.570,-0.220
'0:01.889',-0.595,-0.220
'0:01.892',-0.605,-0.225
'0:01.894',-0.590,-0.250
'0:01.897',-0.555,-0.260
'0:01.900',-0.545,-0.265
'0:01.903',-0.555,-0.270
'0:01.906',-0.560,-0.290
'0:01.908',-0.565,-0.310
'0:01.911',-0.580,-0.315
'0:01.914',-0.570,-0.300
'0:01.917',-0.550,-0.265
'0:01.919',-0.515,-0.250
'0:01.922',-0.465,-0.240
'0:01.925',-0.460,-0.275
'0:01.928',-0.465,-0.315
'0:01.931',-0.495,-0.365
'0:01.933',-0.545,-0.410
'0:01.936',-0.580,-0.410
'0:01.939',-0.570,-0.415
'0:01.942',-0.565,-0.415
'0:01.944',-0.550,-0.385
'0:01.947',-0.510,-0.360
'0:01.950',-0.500,-0.345
'0:01.953',-0.515,-0.340
'0:01.956',-0.580,-0.355
'0:01.958',-0.615,-0.390
'0:01.961',-0.605,-0.410
'0:01.964',-0.560,-0.400
'0:01.967',-0.540,-0.385
'0:01.969',-0.550,-0.370
'0:01.972',-0.600,-0.370
'0:01.975',-0.640,-0.375
'0:01.978',-0.660,-0.380
'0:01.981',-0.640,-0.370
'0:01.983',-0.605,-0.355
'0:01.986',-0.595,-0.350
'0:01.989',-0.575,-0.340
'0:01.992',-0.580,-0.340
'0:01.994',-0.615,-0.335
'0:01.997',-0.630,-0.320
'0:02.000',-0.625,-0.350
'0:02.003',-0.610,-0.360
'0:02.006',-0.600,-0.385
'0:02.008',-0.610,-0.375
'0:02.011',-0.630,-0.330
'0:02.014',-0.620,-0.260
'0:02.017',-0.610,-0.210
'0:02.019',-0.615,-0.200
'0:02.022',-0.635,-0.230
'0:02.025',-0.665,-0.305
'0:02.028',-0.705,-0.325
'0:02.031',-0.735,-0.345
'0:02.033',-0.765,-0.355
'0:02.036',-0.810,-0.365
'0:02.039',-0.815,-0.350
'0:02.042',-0.815,-0.325
'0:02.044',-0.805,-0.270
'0:02.047',-0.795,-0.250
'0:02.050',-0.815,-0.300
'0:02.053',-0.860,-0.365
'0:02.056',-0.885,-0.420
'0:02.058',-0.885,-0.425
'0:02.061',-0.855,-0.410
'0:02.064',-0.830,-0.395
'0:02.067',-0.820,-0.375
'0:02.069',-0.845,-0.385
'0:02.072',-0.870,-0.410
'0:02.075',-0.845,-0.430
'0:02.078',-0.820,-0.420
'0:02.081',-0.805,-0.395
'0:02.083',-0.820,-0.380
'0:02.086',-0.840,-0.385
'0:02.089',-0.865,-0.395
'0:02.092',-0.855,-0.400
'0:02.094',-0.860,-0.395
'0:02.097',-0.850,-0.380
'0:02.100',-0.800,-0.380
'0:02.103',-0.775,-0.385
'0:02.106',-0.770,-0.400
'0:02.108',-0.795,-0.405
'0:02.111',-0.845,-0.405
'0:02.114',-0.870,-0.405
'0:02.117',-0.870,-0.425
'0:02.119',-0.875,-0.455
'0:02.122',-0.890,-0.495
'0:02.125',-0.915,-0.460
'0:02.128',-0.915,-0.425
'0:02.131',-0.890,-0.360
'0:02.133',-0.850,-0.320
'0:02.136',-0.840,-0.310
'0:02.139',-0.855,-0.335
'0:02.142',-0.880,-0.365
'0:02.144',-0.895,-0.370
'0:02.147',-0.900,-0.350
'0:02.150',-0.865,-0.320
'0:02.153',-0.850,-0.315
'0:02.156',-0.855,-0.345
'0:02.158',-0.860,-0.365
'0:02.161',-0.895,-0.365
'0:02.164',-0.910,-0.345
'0:02.167',-0.885,-0.320
'0:02.169',-0.850,-0.330
'0:02.172',-0.830,-0.350
'0:02.175',-0.840,-0.385
'0:02.178',-0.850,-0.405
'0:02.181',-0.860,-0.375
'0:02.183',-0.870,-0.365
'0:02.186',-0.900,-0.345
'0:02.189',-0.930,-0.335
'0:02.192',-0.965,-0.345
'0:02.194',-0.930,-0.340
'0:02.197',-0.830,-0.340
'0:02.200',-0.655,-0.390
'0:02.203',-0.480,-0.440
'0:02.206',-0.360,-0.495
'0:02.208',-0.295,-0.575
'0:02.211',-0.230,-0.665
'0:02.214',-0.200,-0.715
'0:02.217',-0.180,-0.780
'0:02.219',-0.145,-0.870
'0:02.222',-0.080,-0.965
'0:02.225',-0.025,-1.080
'0:02.228',0.060,-1.225
'0:02.231',0.145,-1.340
'0:02.233',0.205,-1.435
'0:02.236',0.210,-1.495
'0:02.239',0.185,-1.525
'0:02.242',0.140,-1.505
'0:02.244',0.100,-1.480
'0:02.247',0.075,-1.440
'0:02.250',0.050,-1.400
'0:02.253',-0.015,-1.370
'0:02.256',-0.095,-1.325
'0:02.258',-0.175,-1.275
'0:02.261',-0.240,-1.210
'0:02.264',-0.295,-1.160
'0:02.267',-0.355,-1.115
'0:02.269',-0.450,-1.100
'0:02.272',-0.545,-1.040
'0:02.275',-0.670,-0.975
'0:02.278',-0.840,-0.900
'0:02.281',-0.995,-0.845
'0:02.283',-1.130,-0.805
'0:02.286',-1.240,-0.770
'0:02.289',-1.345,-0.755
'0:02.292',-1.460,-0.735
'0:02.294',-1.525,-0.675
'0:02.297',-1.555,-0.630
'0:02.300',-1.575,-0.605
'0:02.303',-1.580,-0.600
'0:02.306',-1.565,-0.600
'0:02.308',-1.545,-0.575
'0:02.311',-1.505,-0.545
'0:02.314',-1.495,-0.505
'0:02.317',-1.465,-0.490
'0:02.319',-1.470,-0.485
'0:02.322',-1.450,-0.485
'0:02.325',-1.430,-0.465
'0:02.328',-1.405,-0.425
'0:02.331',-1.375,-0.400
'0:02.333',-1.325,-0.380
'0:02.336',-1.300,-0.370
'0:02.339',-1.300,-0.365
'0:02.342',-1.295,-0.365
'0:02.344',-1.270,-0.350
'0:02.347',-1.240,-0.335
'0:02.350',-1.205,-0.305
'0:02.353',-1.190,-0.310
'0:02.356',-1.160,-0.310
'0:02.358',-1.155,-0.315
'0:02.361',-1.145,-0.305
'0:02.364',-1.130,-0.280
'0:02.367',-1.100,-0.280
'0:02.369',-1.105,-0.285
'0:02.372',-1.115,-0.295
'0:02.375',-1.120,-0.295
'0:02.378',-1.120,-0.295
'0:02.381',-1.110,-0.275
'0:02.383',-1.100,-0.265
'0:02.386',-1.100,-0.275
'0:02.389',-1.120,-0.290
'0:02.392',-1.115,-0.295
'0:02.394',-1.110,-0.265
'0:02.397',-1.100,-0.245
'0:02.400',-1.095,-0.235
'0:02.403',-1.095,-0.240
'0:02.406',-1.095,-0.260
'0:02.408',-1.100,-0.260
'0:02.411',-1.095,-0.240
'0:02.414',-1.100,-0.235
'0:02.417',-1.095,-0.245
'0:02.419',-1.110,-0.235
'0:02.422',-1.110,-0.240
'0:02.425',-1.110,-0.245
'0:02.428',-1.100,-0.245
'0:02.431',-1.090,-0.225
'0:02.433',-1.080,-0.225
'0:02.436',-1.085,-0.235
'0:02.439',-1.090,-0.240
'0:02.442',-1.090,-0.235
'0:02.444',-1.085,-0.225
'0:02.447',-1.070,-0.225
'0:02.450',-1.060,-0.215
'0:02.453',-1.065,-0.200
'0:02.456',-1.070,-0.210
'0:02.458',-1.070,-0.220
'0:02.461',-1.070,-0.205
'0:02.464',-1.045,-0.205
'0:02.467',-1.020,-0.210
'0:02.469',-1.020,-0.215
'0:02.472',-1.030,-0.205
'0:02.475',-1.020,-0.215
'0:02.478',-1.030,-0.210
'0:02.481',-0.990,-0.205
'0:02.483',-0.965,-0.210
'0:02.486',-0.960,-0.200
'0:02.489',-0.965,-0.210
'0:02.492',-0.955,-0.235
'0:02.494',-0.960,-0.215
'0:02.497',-0.930,-0.210
'0:02.500',-0.900,-0.210
'0:02.503',-0.905,-0.215
'0:02.506',-0.890,-0.220
'0:02.508',-0.885,-0.240
'0:02.511',-0.865,-0.235
'0:02.514',-0.855,-0.205
'0:02.517',-0.835,-0.220
'0:02.519',-0.825,-0.220
'0:02.522',-0.820,-0.230
'0:02.525',-0.815,-0.240
'0:02.528',-0.805,-0.245
'0:02.531',-0.790,-0.240
'0:02.533',-0.760,-0.245
'0:02.536',-0.755,-0.245
'0:02.539',-0.735,-0.260
'0:02.542',-0.740,-0.280
'0:02.544',-0.725,-0.275
'0:02.547',-0.720,-0.270
'0:02.550',-0.700,-0.265
'0:02.553',-0.690,-0.280
'0:02.556',-0.675,-0.290
'0:02.558',-0.675,-0.300
'0:02.561',-0.675,-0.310
'0:02.564',-0.655,-0.305
'0:02.567',-0.635,-0.330
'0:02.569',-0.635,-0.315
'0:02.572',-0.640,-0.330
'0:02.575',-0.645,-0.330
'0:02.578',-0.640,-0.335
'0:02.581',-0.625,-0.330
'0:02.583',-0.615,-0.325
'0:02.586',-0.600,-0.345
'0:02.589',-0.610,-0.355
'0:02.592',-0.610,-0.360
'0:02.594',-0.600,-0.345
'0:02.597',-0.575,-0.350
'0:02.600',-0.570,-0.355
'0:02.603',-0.575,-0.360
'0:02.606',-0.570,-0.370
'0:02.608',-0.575,-0.385
'0:02.611',-0.565,-0.375
'0:02.614',-0.555,-0.375
'0:02.617',-0.560,-0.380
'0:02.619',-0.560,-0.390
'0:02.622',-0.550,-0.405
'0:02.625',-0.575,-0.430
'0:02.628',-0.585,-0.430
'0:02.631',-0.595,-0.420
'0:02.633',-0.610,-0.440
'0:02.636',-0.600,-0.435
'0:02.639',-0.600,-0.455
'0:02.642',-0.590,-0.460
'0:02.644',-0.580,-0.435
'0:02.647',-0.570,-0.435
'0:02.650',-0.550,-0.435
'0:02.653',-0.545,-0.445
'0:02.656',-0.550,-0.460
'0:02.658',-0.565,-0.475
'0:02.661',-0.570,-0.450
'0:02.664',-0.555,-0.440
'0:02.667',-0.540,-0.435
'0:02.669',-0.555,-0.445
'0:02.672',-0.575,-0.435
'0:02.675',-0.585,-0.445
'0:02.678',-0.585,-0.440
'0:02.681',-0.585,-0.440
'0:02.683',-0.570,-0.445
'0:02.686',-0.560,-0.450
'0:02.689',-0.565,-0.470
'0:02.692',-0.580,-0.455
'0:02.694',-0.590,-0.455
'0:02.697',-0.600,-0.450
'0:02.700',-0.615,-0.445
'0:02.703',-0.650,-0.475
'0:02.706',-0.695,-0.500
'0:02.708',-0.735,-0.535
'0:02.711',-0.770,-0.550
'0:02.714',-0.785,-0.545
'0:02.717',-0.790,-0.505
'0:02.719',-0.820,-0.460
'0:02.722',-0.840,-0.410
'0:02.725',-0.860,-0.410
'0:02.728',-0.865,-0.390
'0:02.731',-0.870,-0.370
'0:02.733',-0.880,-0.350
'0:02.736',-0.870,-0.340
'0:02.739',-0.880,-0.340
'0:02.742',-0.885,-0.340
'0:02.744',-0.890,-0.340
'0:02.747',-0.865,-0.330
'0:02.750',-0.855,-0.350
'0:02.753',-0.870,-0.370
'0:02.756',-0.870,-0.370
'0:02.758',-0.870,-0.395
'0:02.761',-0.870,-0.390
'0:02.764',-0.865,-0.385
'0:02.767',-0.855,-0.375
'0:02.769',-0.850,-0.370
'0:02.772',-0.860,-0.390
'0:02.775',-0.850,-0.390
'0:02.778',-0.845,-0.375
'0:02.781',-0.830,-0.385
'0:02.783',-0.840,-0.380
'0:02.786',-0.835,-0.380
'0:02.789',-0.835,-0.390
'0:02.792',-0.830,-0.365
'0:02.794',-0.825,-0.365
'0:02.797',-0.815,-0.360
'0:02.800',-0.815,-0.370
'0:02.803',-0.815,-0.380
'0:02.806',-0.830,-0.385
'0:02.808',-0.815,-0.365
'0:02.811',-0.825,-0.350
'0:02.814',-0.800,-0.350
'0:02.817',-0.795,-0.360
'0:02.819',-0.815,-0.360
'0:02.822',-0.820,-0.365
'0:02.825',-0.810,-0.340
'0:02.828',-0.800,-0.325
'0:02.831',-0.790,-0.330
'0:02.833',-0.795,-0.330
'0:02.836',-0.805,-0.335
'0:02.839',-0.800,-0.330
'0:02.842',-0.800,-0.300
'0:02.844',-0.810,-0.285
'0:02.847',-0.815,-0.260
'0:02.850',-0.815,-0.235
'0:02.853',-0.830,-0.220
'0:02.856',-0.845,-0.215
'0:02.858',-0.830,-0.200
'0:02.861',-0.780,-0.195
'0:02.864',-0.675,-0.220
'0:02.867',-0.580,-0.270
'0:02.869',-0.485,-0.340
'0:02.872',-0.400,-0.410
'0:02.875',-0.350,-0.480
'0:02.878',-0.330,-0.545
'0:02.881',-0.295,-0.595
'0:02.883',-0.250,-0.700
'0:02.886',-0.155,-0.830
'0:02.889',-0.070,-0.995
'0:02.892',-0.010,-1.135
'0:02.894',0.080,-1.240
'0:02.897',0.135,-1.300
'0:02.900',0.145,-1.330
'0:02.903',0.130,-1.345
'0:02.906',0.125,-1.330
'0:02.908',0.115,-1.305
'0:02.911',0.115,-1.250
'0:02.914',0.100,-1.190
'0:02.917',0.045,-1.120
'0:02.919',-0.010,-1.080
'0:02.922',-0.085,-1.040
'0:02.925',-0.130,-0.970
'0:02.928',-0.160,-0.905
'0:02.931',-0.210,-0.885
'0:02.933',-0.275,-0.840
'0:02.936',-0.385,-0.835
'0:02.939',-0.495,-0.835
'0:02.942',-0.630,-0.805
'0:02.944',-0.750,-0.715
'0:02.947',-0.860,-0.600
'0:02.950',-1.010,-0.495
'0:02.953',-1.115,-0.450
'0:02.956',-1.190,-0.415
'0:02.958',-1.230,-0.385
'0:02.961',-1.230,-0.360
'0:02.964',-1.240,-0.340
'0:02.967',-1.240,-0.315
'0:02.969',-1.245,-0.290
'0:02.972',-1.235,-0.270
'0:02.975',-1.240,-0.240
'0:02.978',-1.240,-0.205
'0:02.981',-1.220,-0.190
'0:02.983',-1.195,-0.185
'0:02.986',-1.170,-0.155
'0:02.989',-1.140,-0.120
'0:02.992',-1.125,-0.075
'0:02.994',-1.100,-0.035
'0:02.997',-1.075,0.000
'0:03.000',-1.045,0.025
'0:03.003',-1.040,0.030
'0:03.006',-1.030,0.045
'0:03.008',-1.000,0.075
'0:03.011',-0.950,0.095
'0:03.014',-0.925,0.115
'0:03.017',-0.920,0.130
'0:03.019',-0.915,0.135
'0:03.022',-0.910,0.125
'0:03.025',-0.905,0.110
'0:03.028',-0.895,0.130
'0:03.031',-0.885,0.165
'0:03.033',-0.870,0.180
'0:03.036',-0.880,0.215
'0:03.039',-0.910,0.225
'0:03.042',-0.910,0.235
'0:03.044',-0.895,0.240
'0:03.047',-0.875,0.255
'0:03.050',-0.890,0.240
'0:03.053',-0.885,0.250
'0:03.056',-0.890,0.245
'0:03.058',-0.890,0.255
'0:03.061',-0.870,0.265
'0:03.064',-0.860,0.275
'0:03.067',-0.890,0.275
'0:03.069',-0.890,0.300
'0:03.072',-0.915,0.315
'0:03.075',-0.890,0.340
'0:03.078',-0.870,0.385
'0:03.081',-0.870,0.380
'0:03.083',-0.860,0.390
'0:03.086',-0.885,0.365
'0:03.089',-0.875,0.375
'0:03.092',-0.885,0.400
'0:03.094',-0.880,0.435
'0:03.097',-0.860,0.450
'0:03.100',-0.855,0.455
'0:03.103',-0.865,0.440
'0:03.106',-0.870,0.440
'0:03.108',-0.875,0.480
'0:03.111',-0.860,0.525
'0:03.114',-0.840,0.550
'0:03.117',-0.840,0.560
'0:03.119',-0.820,0.535
'0:03.122',-0.850,0.540
'0:03.125',-0.840,0.550
'0:03.128',-0.820,0.550
'0:03.131',-0.810,0.560
'0:03.133',-0.820,0.565
'0:03.136',-0.800,0.555
'0:03.139',-0.790,0.550
'0:03.142',-0.765,0.565
'0:03.144',-0.755,0.585
'0:03.147',-0.730,0.600
'0:03.150',-0.730,0.605
'0:03.153',-0.725,0.595
'0:03.156',-0.735,0.605
'0:03.158',-0.715,0.615
'0:03.161',-0.700,0.635
'0:03.164',-0.680,0.630
'0:03.167',-0.675,0.625
'0:03.169',-0.680,0.620
'0:03.172',-0.675,0.620
'0:03.175',-0.670,0.620
'0:03.178',-0.650,0.650
'0:03.181',-0.620,0.660
'0:03.183',-0.600,0.665
'0:03.186',-0.610,0.640
'0:03.189',-0.590,0.640
'0:03.192',-0.585,0.655
'0:03.194',-0.580,0.680
'0:03.197',-0.540,0.670
'0:03.200',-0.530,0.665
'0:03.203',-0.535,0.660
'0:03.206',-0.535,0.650
'0:03.208',-0.525,0.660
'0:03.211',-0.510,0.675
'0:03.214',-0.490,0.675
'0:03.217',-0.470,0.655
'0:03.219',-0.465,0.645
'0:03.222',-0.465,0.650
'0:03.225',-0.470,0.645
'0:03.228',-0.450,0.665
'0:03.231',-0.420,0.660
'0:03.233',-0.420,0.660
'0:03.236',-0.430,0.650
'0:03.239',-0.440,0.650
'0:03.242',-0.440,0.665
'0:03.244',-0.425,0.670
'0:03.247',-0.405,0.675
'0:03.250',-0.410,0.670
'0:03.253',-0.410,0.665
'0:03.256',-0.400,0.670
'0:03.258',-0.390,0.685
'0:03.261',-0.380,0.695
'0:03.264',-0.385,0.690
'0:03.267',-0.375,0.700
'0:03.269',-0.385,0.690
'0:03.272',-0.380,0.715
'0:03.275',-0.350,0.710
'0:03.278',-0.355,0.740
'0:03.281',-0.350,0.750
'0:03.283',-0.375,0.730
'0:03.286',-0.385,0.715
'0:03.289',-0.405,0.710
'0:03.292',-0.410,0.715
'0:03.294',-0.390,0.720
'0:03.297',-0.370,0.725
'0:03.300',-0.370,0.735
'0:03.303',-0.380,0.715
'0:03.306',-0.390,0.705
'0:03.308',-0.375,0.710
'0:03.311',-0.360,0.730
'0:03.314',-0.360,0.730
'0:03.317',-0.360,0.735
'0:03.319',-0.380,0.735
'0:03.322',-0.380,0.745
'0:03.325',-0.375,0.760
'0:03.328',-0.380,0.780
'0:03.331',-0.365,0.785
'0:03.333',-0.395,0.810
'0:03.336',-0.385,0.800
'0:03.339',-0.390,0.790
'0:03.342',-0.415,0.810
'0:03.344',-0.390,0.815
'0:03.347',-0.370,0.830
'0:03.350',-0.360,0.830
'0:03.353',-0.365,0.825
'0:03.356',-0.390,0.835
'0:03.358',-0.420,0.845
'0:03.361',-0.435,0.870
'0:03.364',-0.450,0.850
'0:03.367',-0.485,0.845
'0:03.369',-0.510,0.835
'0:03.372',-0.545,0.865
'0:03.375',-0.580,0.890
'0:03.378',-0.595,0.925
'0:03.381',-0.605,0.945
'0:03.383',-0.615,0.945
'0:03.386',-0.620,0.930
'0:03.389',-0.640,0.930
'0:03.392',-0.640,0.945
'0:03.394',-0.630,0.945
'0:03.397',-0.635,0.950
'0:03.400',-0.650,0.955
'0:03.403',-0.660,0.950
'0:03.406',-0.680,0.935
'0:03.408',-0.675,0.960
'0:03.411',-0.670,0.945
'0:03.414',-0.665,0.945
'0:03.417',-0.655,0.945
'0:03.419',-0.660,0.935
'0:03.422',-0.680,0.940
'0:03.425',-0.695,0.945
'0:03.428',-0.685,0.960
'0:03.431',-0.685,0.955
'0:03.433',-0.690,0.960
'0:03.436',-0.675,0.955
'0:03.439',-0.685,0.960
'0:03.442',-0.685,0.960
'0:03.444',-0.685,0.970
'0:03.447',-0.670,0.965
'0:03.450',-0.665,0.955
'0:03.453',-0.660,0.950
'0:03.456',-0.680,0.940
'0:03.458',-0.685,0.955
'0:03.461',-0.680,0.970
'0:03.464',-0.665,0.960
'0:03.467',-0.660,0.945
'0:03.469',-0.680,0.950
'0:03.472',-0.695,0.970
'0:03.475',-0.685,0.990
'0:03.478',-0.665,1.015
'0:03.481',-0.650,1.010
'0:03.483',-0.650,0.990
'0:03.486',-0.655,0.975
'0:03.489',-0.665,0.980
'0:03.492',-0.665,0.970
'0:03.494',-0.655,0.990
'0:03.497',-0.640,0.985
'0:03.500',-0.640,0.985
'0:03.503',-0.650,0.995
'0:03.506',-0.665,0.995
'0:03.508',-0.650,1.025
'0:03.511',-0.650,1.045
'0:03.514',-0.670,1.055
'0:03.517',-0.685,1.085
'0:03.519',-0.715,1.105
'0:03.522',-0.705,1.110
'0:03.525',-0.675,1.125
'0:03.528',-0.595,1.115
'0:03.531',-0.490,1.080
'0:03.533',-0.385,1.020
'0:03.536',-0.285,0.960
'0:03.539',-0.205,0.880
'0:03.542',-0.175,0.790
'0:03.544',-0.140,0.750
'0:03.547',-0.075,0.675
'0:03.550',0.020,0.545
'0:03.553',0.105,0.365
'0:03.556',0.190,0.210
'0:03.558',0.260,0.075
'0:03.561',0.320,0.000
'0:03.564',0.375,-0.035
'0:03.567',0.380,-0.040
'0:03.569',0.360,-0.035
'0:03.572',0.350,-0.045
'0:03.575',0.325,-0.010
'0:03.578',0.315,0.040
'0:03.581',0.300,0.080
'0:03.583',0.230,0.135
'0:03.586',0.145,0.180
'0:03.589',0.055,0.235
'0:03.592',-0.005,0.290
'0:03.594',-0.055,0.350
'0:03.597',-0.145,0.405
'0:03.600',-0.250,0.460
'0:03.603',-0.410,0.505
'0:03.606',-0.555,0.560
'0:03.608',-0.700,0.600
'0:03.611',-0.815,0.640
'0:03.614',-0.925,0.655
'0:03.617',-1.010,0.690
'0:03.619',-1.080,0.710
'0:03.622',-1.125,0.735
'0:03.625',-1.155,0.760
'0:03.628',-1.160,0.785
'0:03.631',-1.160,0.800
'0:03.633',-1.155,0.830
'0:03.636',-1.155,0.835
'0:03.639',-1.165,0.845
'0:03.642',-1.135,0.890
'0:03.644',-1.100,0.915
'0:03.647',-1.055,0.930
'0:03.650',-1.035,0.955
'0:03.653',-1.015,0.970
'0:03.656',-1.010,0.965
'0:03.658',-0.985,0.995
'0:03.661',-0.960,1.020
'0:03.664',-0.935,1.025
'0:03.667',-0.900,1.025
'0:03.669',-0.895,1.035
'0:03.672',-0.910,1.045
'0:03.675',-0.880,1.065
'0:03.678',-0.865,1.070
'0:03.681',-0.825,1.065
'0:03.683',-0.815,1.060
'0:03.686',-0.810,1.050
'0:03.689',-0.815,1.050
'0:03.692',-0.820,1.045
'0:03.694',-0.825,1.060
'0:03.697',-0.810,1.050
'0:03.700',-0.820,1.040
'0:03.703',-0.825,1.035
'0:03.706',-0.825,1.040
'0:03.708',-0.815,1.045
'0:03.711',-0.820,1.040
'0:03.714',-0.810,1.050
'0:03.717',-0.810,1.040
'0:03.719',-0.815,1.045
'0:03.722',-0.830,1.030
'0:03.725',-0.820,1.050
'0:03.728',-0.810,1.030
'0:03.731',-0.805,1.040
'0:03.733',-0.805,1.040
'0:03.736',-0.815,1.020
'0:03.739',-0.825,1.015
'0:03.742',-0.835,1.030
'0:03.744',-0.820,1.035
'0:03.747',-0.795,1.030
'0:03.750',-0.795,1.030
'0:03.753',-0.805,1.020
'0:03.756',-0.805,1.005
'0:03.758',-0.815,1.005
'0:03.761',-0.795,1.015
'0:03.764',-0.800,1.010
'0:03.767',-0.785,1.005
'0:03.769',-0.780,0.985
'0:03.772',-0.790,0.985
'0:03.775',-0.780,0.985
'0:03.778',-0.770,0.995
'0:03.781',-0.750,0.990
'0:03.783',-0.750,0.985
'0:03.786',-0.755,0.955
'0:03.789',-0.745,0.940
'0:03.792',-0.720,0.950
'0:03.794',-0.690,0.950
'0:03.797',-0.690,0.935
'0:03.800',-0.680,0.930
'0:03.803',-0.685,0.910
'0:03.806',-0.685,0.880
'0:03.808',-0.665,0.900
'0:03.811',-0.640,0.900
'0:03.814',-0.615,0.890
'0:03.817',-0.605,0.875
'0:03.819',-0.610,0.860
'0:03.822',-0.610,0.845
'0:03.825',-0.595,0.835
'0:03.828',-0.595,0.825
'0:03.831',-0.575,0.825
'0:03.833',-0.545,0.815
'0:03.836',-0.535,0.805
'0:03.839',-0.545,0.780
'0:03.842',-0.515,0.785
'0:03.844',-0.500,0.790
'0:03.847',-0.490,0.780
'0:03.850',-0.475,0.755
'0:03.853',-0.460,0.725
'0:03.856',-0.460,0.705
'0:03.858',-0.450,0.705
'0:03.861',-0.435,0.710
'0:03.864',-0.420,0.685
'0:03.867',-0.420,0.670
'0:03.869',-0.425,0.665
'0:03.872',-0.400,0.645
'0:03.875',-0.405,0.635
'0:03.878',-0.400,0.630
'0:03.881',-0.375,0.605
'0:03.883',-0.370,0.590
'0:03.886',-0.380,0.575
'0:03.889',-0.385,0.555
'0:03.892',-0.360,0.555
'0:03.894',-0.365,0.545
'0:03.897',-0.335,0.530
'0:03.900',-0.340,0.515
'0:03.903',-0.330,0.480
'0:03.906',-0.335,0.480
'0:03.908',-0.335,0.485
'0:03.911',-0.310,0.480
'0:03.914',-0.315,0.470
'0:03.917',-0.305,0.465
'0:03.919',-0.320,0.425
'0:03.922',-0.335,0.420
'0:03.925',-0.330,0.435
'0:03.928',-0.310,0.425
'0:03.931',-0.300,0.405
'0:03.933',-0.315,0.380
'0:03.936',-0.330,0.360
'0:03.939',-0.360,0.350
'0:03.942',-0.375,0.340
'0:03.944',-0.370,0.350
'0:03.947',-0.325,0.335
'0:03.950',-0.315,0.330
'0:03.953',-0.315,0.325
'0:03.956',-0.330,0.310
'0:03.958',-0.335,0.310
'0:03.961',-0.310,0.305
'0:03.964',-0.310,0.300
'0:03.967',-0.315,0.295
'0:03.969',-0.305,0.280
'0:03.972',-0.315,0.265
'0:03.975',-0.325,0.270
'0:03.978',-0.320,0.280
'0:03.981',-0.325,0.280
'0:03.983',-0.345,0.265
'0:03.986',-0.360,0.250
'0:03.989',-0.385,0.255
'0:03.992',-0.370,0.275
'0:03.994',-0.355,0.265
'0:03.997',-0.355,0.255
'0:04.000',-0.365,0.275
'0:04.003',-0.365,0.255
'0:04.006',-0.375,0.240
'0:04.008',-0.405,0.240
'0:04.011',-0.435,0.240
'0:04.014',-0.450,0.245
'0:04.017',-0.490,0.255
'0:04.019',-0.535,0.250
'0:04.022',-0.585,0.240
'0:04.025',-0.585,0.245
'0:04.028',-0.595,0.265
'0:04.031',-0.600,0.240
'0:04.033',-0.610,0.225
'0:04.036',-0.615,0.215
'0:04.039',-0.615,0.195
'0:04.042',-0.615,0.200
'0:04.044',-0.620,0.220
'0:04.047',-0.605,0.215
'0:04.050',-0.605,0.195
'0:04.053',-0.620,0.175
'0:04.056',-0.625,0.160
'0:04.058',-0.625,0.165
'0:04.061',-0.625,0.165
'0:04.064',-0.610,0.155
'0:04.067',-0.595,0.155
'0:04.069',-0.610,0.135
'0:04.072',-0.610,0.135
'0:04.075',-0.610,0.130
'0:04.078',-0.600,0.140
'0:04.081',-0.590,0.130
'0:04.083',-0.595,0.130
'0:04.086',-0.590,0.105
'0:04.089',-0.610,0.090
'0:04.092',-0.620,0.100
'0:04.094',-0.600,0.095
'0:04.097',-0.585,0.100
'0:04.100',-0.595,0.075
'0:04.103',-0.605,0.080
'0:04.106',-0.610,0.065
'0:04.108',-0.615,0.070
'0:04.111',-0.605,0.085
'0:04.114',-0.580,0.065
'0:04.117',-0.595,0.060
'0:04.119',-0.595,0.045
'0:04.122',-0.600,0.050
'0:04.125',-0.600,0.050
'0:04.128',-0.595,0.045
'0:04.131',-0.580,0.040
'0:04.133',-0.575,0.045
'0:04.136',-0.580,0.020
'0:04.139',-0.585,0.015
'0:04.142',-0.575,0.015
'0:04.144',-0.565,0.005
'0:04.147',-0.550,-0.015
'0:04.150',-0.555,-0.010
'0:04.153',-0.565,0.000
'0:04.156',-0.590,0.000
'0:04.158',-0.580,0.035
'0:04.161',-0.565,0.045
'0:04.164',-0.555,0.060
'0:04.167',-0.570,0.070
'0:04.169',-0.575,0.060
'0:04.172',-0.590,0.060
'0:04.175',-0.570,0.060
'0:04.178',-0.505,0.035
'0:04.181',-0.405,0.000
'0:04.183',-0.280,-0.065
'0:04.186',-0.150,-0.140
'0:04.189',0.000,-0.235
'0:04.192',0.115,-0.305
'0:04.194',0.145,-0.390
'0:04.197',0.140,-0.455
'0:04.200',0.150,-0.535
'0:04.203',0.175,-0.630
'0:04.206',0.205,-0.785
'0:04.208',0.250,-0.915
'0:04.211',0.320,-1.030
'0:04.214',0.410,-1.140
'0:04.217',0.460,-1.210
'0:04.219',0.480,-1.240
'0:04.222',0.475,-1.245
'0:04.225',0.470,-1.240
'0:04.228',0.480,-1.215
'0:04.231',0.475,-1.175
'0:04.233',0.440,-1.135
'0:04.236',0.350,-1.085
'0:04.239',0.255,-1.030
'0:04.242',0.170,-0.965
'0:04.244',0.090,-0.895
'0:04.247',0.035,-0.855
'0:04.250',-0.055,-0.790
'0:04.253',-0.180,-0.765
'0:04.256',-0.340,-0.700
'0:04.258',-0.485,-0.645
'0:04.261',-0.610,-0.595
'0:04.264',-0.705,-0.560
'0:04.267',-0.815,-0.535
'0:04.269',-0.915,-0.505
'0:04.272',-1.015,-0.485
'0:04.275',-1.060,-0.435
'0:04.278',-1.080,-0.405
'0:04.281',-1.085,-0.375
'0:04.283',-1.085,-0.365
'0:04.286',-1.090,-0.375
'0:04.289',-1.080,-0.345
'0:04.292',-1.075,-0.315
'0:04.294',-1.055,-0.280
'0:04.297',-1.035,-0.260
'0:04.300',-1.025,-0.245
'0:04.303',-0.990,-0.235
'0:04.306',-0.965,-0.215
'0:04.308',-0.925,-0.200
'0:04.311',-0.890,-0.155
'0:04.314',-0.855,-0.145
'0:04.317',-0.835,-0.120
'0:04.319',-0.830,-0.115
'0:04.322',-0.815,-0.095
'0:04.325',-0.780,-0.085
'0:04.328',-0.755,-0.075
'0:04.331',-0.720,-0.065
'0:04.333',-0.700,-0.070
'0:04.336',-0.690,-0.060
'0:04.339',-0.685,-0.060
'0:04.342',-0.675,-0.065
'0:04.344',-0.655,-0.045
'0:04.347',-0.655,-0.050
'0:04.350',-0.645,-0.055
'0:04.353',-0.660,-0.080
'0:04.356',-0.685,-0.070
'0:04.358',-0.680,-0.060
'0:04.361',-0.660,-0.050
'0:04.364',-0.645,-0.065
'0:04.367',-0.650,-0.060
'0:04.369',-0.660,-0.075
'0:04.372',-0.680,-0.070
'0:04.375',-0.695,-0.070
'0:04.378',-0.685,-0.070
'0:04.381',-0.680,-0.070
'0:04.383',-0.675,-0.080
'0:04.386',-0.680,-0.090
'0:04.389',-0.695,-0.085
'0:04.392',-0.715,-0.065
'0:04.394',-0.710,-0.050
'0:04.397',-0.680,-0.040
'0:04.400',-0.680,-0.040
'0:04.403',-0.685,-0.060
'0:04.406',-0.695,-0.065
'0:04.408',-0.705,-0.055
'0:04.411',-0.675,-0.060
'0:04.414',-0.665,-0.055
'0:04.417',-0.680,-0.055
'0:04.419',-0.695,-0.055
'0:04.422',-0.695,-0.070
'0:04.425',-0.685,-0.070
'0:04.428',-0.675,-0.055
'0:04.431',-0.675,-0.060
'0:04.433',-0.665,-0.050
'0:04.436',-0.660,-0.070
'0:04.439',-0.660,-0.095
'0:04.442',-0.655,-0.080
'0:04.444',-0.640,-0.080
'0:04.447',-0.630,-0.075
'0:04.450',-0.620,-0.070
'0:04.453',-0.620,-0.085
'0:04.456',-0.620,-0.095
'0:04.458',-0.610,-0.075
'0:04.461',-0.605,-0.075
'0:04.464',-0.595,-0.065
'0:04.467',-0.590,-0.080
'0:04.469',-0.585,-0.090
'0:04.472',-0.580,-0.115
'0:04.475',-0.570,-0.110
'0:04.478',-0.535,-0.100
'0:04.481',-0.515,-0.100
'0:04.483',-0.510,-0.110
'0:04.486',-0.495,-0.130
'0:04.489',-0.505,-0.145
'0:04.492',-0.475,-0.140
'0:04.494',-0.475,-0.135
'0:04.497',-0.450,-0.140
'0:04.500',-0.435,-0.150
'0:04.503',-0.420,-0.165
'0:04.506',-0.435,-0.175
'0:04.508',-0.410,-0.175
'0:04.511',-0.385,-0.160
'0:04.514',-0.380,-0.160
'0:04.517',-0.375,-0.175
'0:04.519',-0.380,-0.195
'0:04.522',-0.370,-0.210
'0:04.525',-0.360,-0.230
'0:04.528',-0.345,-0.245
'0:04.531',-0.330,-0.250
'0:04.533',-0.325,-0.250
'0:04.536',-0.315,-0.250
'0:04.539',-0.330,-0.265
'0:04.542',-0.305,-0.270
'0:04.544',-0.280,-0.265
'0:04.547',-0.265,-0.280
'0:04.550',-0.260,-0.285
'0:04.553',-0.265,-0.300
'0:04.556',-0.260,-0.305
'0:04.558',-0.245,-0.305
'0:04.561',-0.235,-0.315
'0:04.564',-0.215,-0.345
'0:04.567',-0.210,-0.360
'0:04.569',-0.220,-0.365
'0:04.572',-0.230,-0.345
'0:04.575',-0.215,-0.335
'0:04.578',-0.200,-0.315
'0:04.581',-0.190,-0.320
'0:04.583',-0.190,-0.330
'0:04.586',-0.195,-0.345
'0:04.589',-0.210,-0.360
'0:04.592',-0.210,-0.370
'0:04.594',-0.205,-0.375
'0:04.597',-0.195,-0.375
'0:04.600',-0.205,-0.380
'0:04.603',-0.210,-0.390
'0:04.606',-0.220,-0.420
'0:04.608',-0.230,-0.435
'0:04.611',-0.235,-0.425
'0:04.614',-0.240,-0.450
'0:04.617',-0.230,-0.455
'0:04.619',-0.235,-0.485
'0:04.622',-0.245,-0.460
'0:04.625',-0.245,-0.435
'0:04.628',-0.220,-0.435
'0:04.631',-0.200,-0.430
'0:04.633',-0.200,-0.455
'0:04.636',-0.205,-0.465
'0:04.639',-0.220,-0.455
'0:04.642',-0.220,-0.440
'0:04.644',-0.225,-0.405
'0:04.647',-0.205,-0.415
'0:04.650',-0.210,-0.425
'0:04.653',-0.240,-0.440
'0:04.656',-0.260,-0.450
'0:04.658',-0.265,-0.455
'0:04.661',-0.265,-0.460
'0:04.664',-0.265,-0.460
'0:04.667',-0.260,-0.460
'0:04.669',-0.260,-0.470
'0:04.672',-0.255,-0.455
'0:04.675',-0.260,-0.440
'0:04.678',-0.270,-0.445
'0:04.681',-0.295,-0.435
'0:04.683',-0.320,-0.430
'0:04.686',-0.350,-0.450
'0:04.689',-0.380,-0.465
'0:04.692',-0.410,-0.460
'0:04.694',-0.430,-0.455
'0:04.697',-0.455,-0.460
'0:04.700',-0.455,-0.440
'0:04.703',-0.475,-0.455
'0:04.706',-0.495,-0.445
'0:04.708',-0.505,-0.440
'0:04.711',-0.495,-0.430
'0:04.714',-0.490,-0.410
'0:04.717',-0.490,-0.430
'0:04.719',-0.485,-0.445
'0:04.722',-0.490,-0.455
'0:04.725',-0.495,-0.465
'0:04.728',-0.505,-0.460
'0:04.731',-0.500,-0.445
'0:04.733',-0.510,-0.450
'0:04.736',-0.525,-0.475
'0:04.739',-0.520,-0.485
'0:04.742',-0.510,-0.465
'0:04.744',-0.490,-0.460
'0:04.747',-0.490,-0.490
'0:04.750',-0.490,-0.495
'0:04.753',-0.500,-0.505
'0:04.756',-0.510,-0.495
'0:04.758',-0.515,-0.485
'0:04.761',-0.525,-0.465
'0:04.764',-0.505,-0.480
'0:04.767',-0.505,-0.490
'0:04.769',-0.510,-0.495
'0:04.772',-0.515,-0.495
'0:04.775',-0.510,-0.510
'0:04.778',-0.500,-0.490
'0:04.781',-0.490,-0.505
'0:04.783',-0.500,-0.500
'0:04.786',-0.485,-0.495
'0:04.789',-0.500,-0.520
'0:04.792',-0.505,-0.510
'0:04.794',-0.515,-0.515
'0:04.797',-0.510,-0.535
'0:04.800',-0.490,-0.525
'0:04.803',-0.480,-0.530
'0:04.806',-0.475,-0.520
'0:04.808',-0.475,-0.520
'0:04.811',-0.470,-0.505
'0:04.814',-0.475,-0.500
'0:04.817',-0.480,-0.500
'0:04.819',-0.475,-0.510
'0:04.822',-0.490,-0.520
'0:04.825',-0.495,-0.510
'0:04.828',-0.470,-0.495
'0:04.831',-0.465,-0.495
'0:04.833',-0.455,-0.480
'0:04.836',-0.465,-0.485
'0:04.839',-0.480,-0.480
'0:04.842',-0.495,-0.460
'0:04.844',-0.480,-0.450
'0:04.847',-0.475,-0.415
'0:04.850',-0.465,-0.425
'0:04.853',-0.425,-0.435
'0:04.856',-0.360,-0.445
'0:04.858',-0.245,-0.460
'0:04.861',-0.105,-0.490
'0:04.864',0.035,-0.545
'0:04.867',0.140,-0.615
'0:04.869',0.235,-0.720
'0:04.872',0.280,-0.795
'0:04.875',0.305,-0.855
'0:04.878',0.330,-0.895
'0:04.881',0.380,-0.970
'0:04.883',0.440,-1.065
'0:04.886',0.515,-1.205
'0:04.889',0.565,-1.325
'0:04.892',0.655,-1.450
'0:04.894',0.715,-1.540
'0:04.897',0.730,-1.635
'0:04.900',0.720,-1.670
'0:04.903',0.685,-1.665
'0:04.906',0.635,-1.645
'0:04.908',0.585,-1.600
'0:04.911',0.530,-1.560
'0:04.914',0.455,-1.515
'0:04.917',0.345,-1.440
'0:04.919',0.240,-1.400
'0:04.922',0.160,-1.350
'0:04.925',0.070,-1.290
'0:04.928',-0.030,-1.235
'0:04.931',-0.140,-1.185
'0:04.933',-0.260,-1.170
'0:04.936',-0.390,-1.125
'0:04.939',-0.540,-1.065
'0:04.942',-0.670,-0.995
'0:04.944',-0.780,-0.940
'0:04.947',-0.865,-0.900
'0:04.950',-0.960,-0.885
'0:04.953',-1.065,-0.845
'0:04.956',-1.140,-0.795
'0:04.958',-1.165,-0.750
'0:04.961',-1.170,-0.720
'0:04.964',-1.150,-0.720
'0:04.967',-1.130,-0.715
'0:04.969',-1.130,-0.705
'0:04.972',-1.130,-0.685
'0:04.975',-1.115,-0.645
'0:04.978',-1.090,-0.610
'0:04.981',-1.050,-0.580
'0:04.983',-1.015,-0.560
'0:04.986',-1.015,-0.545
'0:04.989',-0.985,-0.525
'0:04.992',-0.945,-0.490
'0:04.994',-0.910,-0.480
'0:04.997',-0.875,-0.470
'0:05.000',-0.845,-0.475
'0:05.003',-0.825,-0.465
'0:05.006',-0.815,-0.440
'0:05.008',-0.785,-0.405
'0:05.011',-0.755,-0.385
'0:05.014',-0.735,-0.375
'0:05.017',-0.715,-0.370
'0:05.019',-0.695,-0.375
'0:05.022',-0.705,-0.390
'0:05.025',-0.715,-0.385
'0:05.028',-0.705,-0.385
'0:05.031',-0.680,-0.385
'0:05.033',-0.670,-0.375
'0:05.036',-0.690,-0.385
'0:05.039',-0.695,-0.370
'0:05.042',-0.685,-0.375
'0:05.044',-0.675,-0.385
'0:05.047',-0.665,-0.410
'0:05.050',-0.670,-0.415
'0:05.053',-0.685,-0.405
'0:05.056',-0.685,-0.385
'0:05.058',-0.675,-0.360
'0:05.061',-0.675,-0.335
'0:05.064',-0.675,-0.325
'0:05.067',-0.690,-0.330
'0:05.069',-0.680,-0.345
'0:05.072',-0.685,-0.365
'0:05.075',-0.690,-0.375
'0:05.078',-0.685,-0.355
'0:05.081',-0.685,-0.345
'0:05.083',-0.690,-0.335
'0:05.086',-0.690,-0.350
'0:05.089',-0.700,-0.375
'0:05.092',-0.685,-0.365
'0:05.094',-0.680,-0.335
'0:05.097',-0.670,-0.325
'0:05.100',-0.665,-0.320
'0:05.103',-0.670,-0.345
'0:05.106',-0.680,-0.345
'0:05.108',-0.695,-0.330
'0:05.111',-0.690,-0.325
'0:05.114',-0.660,-0.320
'0:05.117',-0.655,-0.320
'0:05.119',-0.655,-0.345
'0:05.122',-0.640,-0.360
'0:05.125',-0.640,-0.350
'0:05.128',-0.620,-0.345
'0:05.131',-0.610,-0.325
'0:05.133',-0.600,-0.325
'0:05.136',-0.590,-0.330
'0:05.139',-0.590,-0.345
'0:05.142',-0.580,-0.340
'0:05.144',-0.565,-0.315
'0:05.147',-0.535,-0.315
'0:05.150',-0.525,-0.335
'0:05.153',-0.530,-0.370
'0:05.156',-0.525,-0.375
'0:05.158',-0.490,-0.365
'0:05.161',-0.460,-0.365
'0:05.164',-0.435,-0.365
'0:05.167',-0.430,-0.365
'0:05.169',-0.420,-0.370
'0:05.172',-0.430,-0.390
'0:05.175',-0.425,-0.390
'0:05.178',-0.395,-0.390
'0:05.181',-0.385,-0.395
'0:05.183',-0.370,-0.400
'0:05.186',-0.360,-0.395
'0:05.189',-0.355,-0.405
'0:05.192',-0.335,-0.400
'0:05.194',-0.320,-0.415
'0:05.197',-0.300,-0.420
'0:05.200',-0.300,-0.425
'0:05.203',-0.295,-0.440
'0:05.206',-0.290,-0.445
'0:05.208',-0.270,-0.450
'0:05.211',-0.255,-0.435
'0:05.214',-0.250,-0.435
'0:05.217',-0.240,-0.435
'0:05.219',-0.235,-0.455
'0:05.222',-0.240,-0.465
'0:05.225',-0.225,-0.470
'0:05.228',-0.205,-0.470
'0:05.231',-0.200,-0.480
'0:05.233',-0.210,-0.480
'0:05.236',-0.210,-0.495
'0:05.239',-0.215,-0.505
'0:05.242',-0.200,-0.515
'0:05.244',-0.185,-0.520
'0:05.247',-0.165,-0.515
'0:05.250',-0.150,-0.510
'0:05.253',-0.160,-0.500
'0:05.256',-0.170,-0.515
'0:05.258',-0.175,-0.515
'0:05.261',-0.180,-0.510
'0:05.264',-0.165,-0.520
'0:05.267',-0.170,-0.560
'0:05.269',-0.185,-0.575
'0:05.272',-0.220,-0.575
'0:05.275',-0.220,-0.570
'0:05.278',-0.210,-0.545
'0:05.281',-0.205,-0.540
'0:05.283',-0.205,-0.535
'0:05.286',-0.200,-0.555
'0:05.289',-0.205,-0.545
'0:05.292',-0.185,-0.550
'0:05.294',-0.180,-0.535
'0:05.297',-0.175,-0.555
'0:05.300',-0.190,-0.565
'0:05.303',-0.200,-0.590
'0:05.306',-0.215,-0.600
'0:05.308',-0.215,-0.600
'0:05.311',-0.225,-0.570
'0:05.314',-0.220,-0.555
'0:05.317',-0.225,-0.545
'0:05.319',-0.240,-0.565
'0:05.322',-0.265,-0.565
'0:05.325',-0.250,-0.565
'0:05.328',-0.240,-0.540
'0:05.331',-0.220,-0.520
'0:05.333',-0.250,-0.520
'0:05.336',-0.290,-0.530
'0:05.339',-0.325,-0.515
'0:05.342',-0.345,-0.500
'0:05.344',-0.345,-0.495
'0:05.347',-0.370,-0.490
'0:05.350',-0.395,-0.505
'0:05.353',-0.435,-0.525
'0:05.356',-0.460,-0.515
'0:05.358',-0.465,-0.495
'0:05.361',-0.470,-0.490
'0:05.364',-0.470,-0.500
'0:05.367',-0.455,-0.505
'0:05.369',-0.465,-0.505
'0:05.372',-0.475,-0.495
'0:05.375',-0.490,-0.485
'0:05.378',-0.470,-0.460
'0:05.381',-0.490,-0.480
'0:05.383',-0.485,-0.505
'0:05.386',-0.480,-0.535
'0:05.389',-0.510,-0.530
'0:05.392',-0.490,-0.520
'0:05.394',-0.475,-0.510
'0:05.397',-0.465,-0.505
'0:05.400',-0.485,-0.505
'0:05.403',-0.500,-0.520
'0:05.406',-0.495,-0.515
'0:05.408',-0.490,-0.505
'0:05.411',-0.495,-0.485
'0:05.414',-0.495,-0.495
'0:05.417',-0.505,-0.500
'0:05.419',-0.515,-0.505
'0:05.422',-0.540,-0.495
'0:05.425',-0.540,-0.480
'0:05.428',-0.520,-0.460
'0:05.431',-0.515,-0.475
'0:05.433',-0.505,-0.505
'0:05.436',-0.495,-0.525
'0:05.439',-0.500,-0.535
'0:05.442',-0.500,-0.540
'0:05.444',-0.480,-0.515
'0:05.447',-0.490,-0.490
'0:05.450',-0.495,-0.475
'0:05.453',-0.485,-0.500
'0:05.456',-0.495,-0.490
'0:05.458',-0.495,-0.485
'0:05.461',-0.470,-0.480
'0:05.464',-0.455,-0.490
'0:05.467',-0.450,-0.510
'0:05.469',-0.425,-0.540
'0:05.472',-0.395,-0.540
'0:05.475',-0.360,-0.535
'0:05.478',-0.350,-0.525
'0:05.481',-0.365,-0.505
'0:05.483',-0.390,-0.460
'0:05.486',-0.440,-0.430
'0:05.489',-0.490,-0.410
'0:05.492',-0.515,-0.380
'0:05.494',-0.510,-0.370
'0:05.497',-0.445,-0.370
'0:05.500',-0.335,-0.400
'0:05.503',-0.210,-0.440
'0:05.506',-0.090,-0.490
'0:05.508',0.030,-0.570
'0:05.511',0.115,-0.660
'0:05.514',0.180,-0.750
'0:05.517',0.190,-0.810
'0:05.519',0.245,-0.915
'0:05.522',0.290,-1.030
'0:05.525',0.330,-1.155
'0:05.528',0.360,-1.265
'0:05.531',0.410,-1.390
'0:05.533',0.425,-1.490
'0:05.536',0.435,-1.540
'0:05.539',0.400,-1.535
'0:05.542',0.365,-1.525
'0:05.544',0.360,-1.475
'0:05.547',0.340,-1.435
'0:05.550',0.300,-1.390
'0:05.553',0.215,-1.345
'0:05.556',0.155,-1.290
'0:05.558',0.090,-1.225
'0:05.561',0.045,-1.160
'0:05.564',-0.015,-1.105
'0:05.567',-0.090,-1.070
'0:05.569',-0.185,-1.030
'0:05.572',-0.320,-1.010
'0:05.575',-0.445,-0.985
'0:05.578',-0.555,-0.930
'0:05.581',-0.645,-0.875
'0:05.583',-0.750,-0.835
'0:05.586',-0.870,-0.805
'0:05.589',-0.960,-0.780
'0:05.592',-0.985,-0.725
'0:05.594',-0.965,-0.685
'0:05.597',-0.945,-0.665
'0:05.600',-0.945,-0.655
'0:05.603',-0.985,-0.635
'0:05.606',-1.005,-0.605
'0:05.608',-0.995,-0.580
'0:05.611',-0.955,-0.535
'0:05.614',-0.890,-0.535
'0:05.617',-0.840,-0.520
'0:05.619',-0.815,-0.505
'0:05.622',-0.835,-0.505
'0:05.625',-0.850,-0.460
'0:05.628',-0.865,-0.410
'0:05.631',-0.865,-0.370
'0:05.633',-0.835,-0.365
'0:05.636',-0.785,-0.365
'0:05.639',-0.715,-0.355
'0:05.642',-0.655,-0.330
'0:05.644',-0.640,-0.325
'0:05.647',-0.645,-0.310
'0:05.650',-0.670,-0.320
'0:05.653',-0.685,-0.320
'0:05.656',-0.690,-0.320
'0:05.658',-0.665,-0.305
'0:05.661',-0.635,-0.300
'0:05.664',-0.615,-0.310
'0:05.667',-0.615,-0.315
'0:05.669',-0.615,-0.330
'0:05.672',-0.615,-0.330
'0:05.675',-0.620,-0.315
'0:05.678',-0.610,-0.295
'0:05.681',-0.600,-0.300
'0:05.683',-0.595,-0.310
'0:05.686',-0.615,-0.310
'0:05.689',-0.625,-0.315
'0:05.692',-0.635,-0.310
'0:05.694',-0.635,-0.280
'0:05.697',-0.645,-0.280
'0:05.700',-0.615,-0.285
'0:05.703',-0.620,-0.290
'0:05.706',-0.630,-0.290
'0:05.708',-0.635,-0.280
'0:05.711',-0.625,-0.285
'0:05.714',-0.600,-0.260
'0:05.717',-0.595,-0.275
'0:05.719',-0.600,-0.285
'0:05.722',-0.600,-0.290
'0:05.725',-0.600,-0.280
'0:05.728',-0.595,-0.270
'0:05.731',-0.570,-0.255
'0:05.733',-0.570,-0.265
'0:05.736',-0.575,-0.270
'0:05.739',-0.565,-0.270
'0:05.742',-0.545,-0.265
'0:05.744',-0.535,-0.250
'0:05.747',-0.525,-0.255
'0:05.750',-0.530,-0.255
'0:05.753',-0.545,-0.275
'0:05.756',-0.550,-0.270
'0:05.758',-0.540,-0.270
'0:05.761',-0.520,-0.265
'0:05.764',-0.520,-0.260
'0:05.767',-0.505,-0.275
'0:05.769',-0.495,-0.275
'0:05.772',-0.505,-0.285
'0:05.775',-0.490,-0.280
'0:05.778',-0.475,-0.270
'0:05.781',-0.440,-0.275
'0:05.783',-0.435,-0.280
'0:05.786',-0.435,-0.290
'0:05.789',-0.420,-0.305
'0:05.792',-0.400,-0.300
'0:05.794',-0.385,-0.295
'0:05.797',-0.370,-0.300
'0:05.800',-0.355,-0.305
'0:05.803',-0.350,-0.325
'0:05.806',-0.350,-0.345
'0:05.808',-0.335,-0.325
'0:05.811',-0.320,-0.325
'0:05.814',-0.310,-0.340
'0:05.817',-0.280,-0.350
'0:05.819',-0.285,-0.360
'0:05.822',-0.290,-0.365
'0:05.825',-0.275,-0.355
'0:05.828',-0.265,-0.345
'0:05.831',-0.245,-0.355
'0:05.833',-0.240,-0.360
'0:05.836',-0.245,-0.385
'0:05.839',-0.250,-0.405
'0:05.842',-0.250,-0.390
'0:05.844',-0.220,-0.390
'0:05.847',-0.210,-0.395
'0:05.850',-0.210,-0.410
'0:05.853',-0.195,-0.425
'0:05.856',-0.200,-0.430
'0:05.858',-0.185,-0.430
'0:05.861',-0.175,-0.415
'0:05.864',-0.155,-0.420
'0:05.867',-0.165,-0.440
'0:05.869',-0.165,-0.455
'0:05.872',-0.175,-0.475
'0:05.875',-0.155,-0.455
'0:05.878',-0.135,-0.470
'0:05.881',-0.120,-0.465
'0:05.883',-0.125,-0.465
'0:05.886',-0.145,-0.485
'0:05.889',-0.155,-0.495
'0:05.892',-0.150,-0.485
'0:05.894',-0.150,-0.485
'0:05.897',-0.135,-0.495
'0:05.900',-0.150,-0.510
'0:05.903',-0.160,-0.530
'0:05.906',-0.180,-0.530
'0:05.908',-0.165,-0.520
'0:05.911',-0.145,-0.525
'0:05.914',-0.150,-0.530
'0:05.917',-0.150,-0.525
'0:05.919',-0.135,-0.550
'0:05.922',-0.145,-0.555
'0:05.925',-0.145,-0.555
'0:05.928',-0.135,-0.545
'0:05.931',-0.145,-0.540
'0:05.933',-0.155,-0.540
'0:05.936',-0.170,-0.560
'0:05.939',-0.200,-0.555
'0:05.942',-0.205,-0.545
'0:05.944',-0.205,-0.530
'0:05.947',-0.195,-0.540
'0:05.950',-0.180,-0.545
'0:05.953',-0.195,-0.545
'0:05.956',-0.185,-0.545
'0:05.958',-0.160,-0.530
'0:05.961',-0.160,-0.530
'0:05.964',-0.170,-0.500
'0:05.967',-0.225,-0.510
'0:05.969',-0.270,-0.525
'0:05.972',-0.290,-0.540
'0:05.975',-0.310,-0.520
'0:05.978',-0.310,-0.505
'0:05.981',-0.335,-0.500
'0:05.983',-0.355,-0.495
'0:05.986',-0.390,-0.500
'0:05.989',-0.410,-0.505
'0:05.992',-0.420,-0.500
'0:05.994',-0.435,-0.485
'0:05.997',-0.420,-0.485
'0:06.000',-0.415,-0.490
'0:06.003',-0.440,-0.495
'0:06.006',-0.445,-0.505
'0:06.008',-0.455,-0.495
'0:06.011',-0.435,-0.495
'0:06.014',-0.430,-0.500
'0:06.017',-0.420,-0.500
'0:06.019',-0.435,-0.505
'0:06.022',-0.450,-0.525
'0:06.025',-0.455,-0.510
'0:06.028',-0.445,-0.510
'0:06.031',-0.445,-0.515
'0:06.033',-0.425,-0.520
'0:06.036',-0.435,-0.520
'0:06.039',-0.435,-0.525
'0:06.042',-0.445,-0.525
'0:06.044',-0.430,-0.515
'0:06.047',-0.420,-0.520
'0:06.050',-0.425,-0.525
'0:06.053',-0.430,-0.525
'0:06.056',-0.440,-0.530
'0:06.058',-0.435,-0.510
'0:06.061',-0.415,-0.505
'0:06.064',-0.405,-0.520
'0:06.067',-0.410,-0.530
'0:06.069',-0.415,-0.545
'0:06.072',-0.435,-0.530
'0:06.075',-0.420,-0.525
'0:06.078',-0.410,-0.515
'0:06.081',-0.420,-0.520
'0:06.083',-0.410,-0.525
'0:06.086',-0.440,-0.525
'0:06.089',-0.450,-0.540
'0:06.092',-0.440,-0.525
'0:06.094',-0.405,-0.525
'0:06.097',-0.410,-0.530
'0:06.100',-0.400,-0.530
'0:06.103',-0.410,-0.535
'0:06.106',-0.405,-0.520
'0:06.108',-0.420,-0.490
'0:06.111',-0.420,-0.450
'0:06.114',-0.430,-0.430
'0:06.117',-0.435,-0.415
'0:06.119',-0.445,-0.420
'0:06.122',-0.415,-0.430
'0:06.125',-0.325,-0.465
'0:06.128',-0.185,-0.500
'0:06.131',-0.070,-0.575
'0:06.133',0.000,-0.685
'0:06.136',0.025,-0.785
'0:06.139',0.035,-0.865
'0:06.142',0.095,-0.980
'0:06.144',0.185,-1.130
'0:06.147',0.300,-1.330
'0:06.150',0.385,-1.515
'0:06.153',0.435,-1.620
'0:06.156',0.430,-1.645
'0:06.158',0.435,-1.635
'0:06.161',0.430,-1.620
'0:06.164',0.430,-1.590
'0:06.167',0.405,-1.535
'0:06.169',0.360,-1.485
'0:06.172',0.275,-1.430
'0:06.175',0.210,-1.375
'0:06.178',0.160,-1.285
'0:06.181',0.115,-1.235
'0:06.183',0.045,-1.165
'0:06.186',-0.045,-1.125
'0:06.189',-0.170,-1.090
'0:06.192',-0.290,-1.035
'0:06.194',-0.410,-0.975
'0:06.197',-0.535,-0.930
'0:06.200',-0.670,-0.905
'0:06.203',-0.775,-0.875
'0:06.206',-0.855,-0.850
'0:06.208',-0.890,-0.805
'0:06.211',-0.915,-0.775
'0:06.214',-0.920,-0.740
'0:06.217',-0.920,-0.730
'0:06.219',-0.895,-0.705
'0:06.222',-0.905,-0.675
'0:06.225',-0.920,-0.645
'0:06.228',-0.900,-0.615
'0:06.231',-0.850,-0.585
'0:06.233',-0.800,-0.550
'0:06.236',-0.780,-0.550
'0:06.239',-0.765,-0.520
'0:06.242',-0.755,-0.500
'0:06.244',-0.720,-0.470
'0:06.247',-0.675,-0.445
'0:06.250',-0.650,-0.445
'0:06.253',-0.645,-0.435
'0:06.256',-0.630,-0.435
'0:06.258',-0.605,-0.405
'0:06.261',-0.590,-0.390
'0:06.264',-0.585,-0.395
'0:06.267',-0.575,-0.380
'0:06.269',-0.575,-0.390
'0:06.272',-0.580,-0.405
'0:06.275',-0.575,-0.400
'0:06.278',-0.560,-0.390
'0:06.281',-0.555,-0.385
'0:06.283',-0.570,-0.385
'0:06.286',-0.585,-0.395
'0:06.289',-0.600,-0.380
'0:06.292',-0.580,-0.370
'0:06.294',-0.575,-0.365
'0:06.297',-0.570,-0.365
'0:06.300',-0.570,-0.370
'0:06.303',-0.575,-0.350
'0:06.306',-0.595,-0.340
'0:06.308',-0.575,-0.340
'0:06.311',-0.560,-0.325
'0:06.314',-0.560,-0.310
'0:06.317',-0.565,-0.325
'0:06.319',-0.575,-0.340
'0:06.322',-0.585,-0.340
'0:06.325',-0.580,-0.325
'0:06.328',-0.565,-0.305
'0:06.331',-0.560,-0.305
'0:06.333',-0.555,-0.315
'0:06.336',-0.570,-0.320
'0:06.339',-0.580,-0.310
'0:06.342',-0.565,-0.315
'0:06.344',-0.555,-0.300
'0:06.347',-0.535,-0.305
'0:06.350',-0.525,-0.300
'0:06.353',-0.550,-0.310
'0:06.356',-0.535,-0.325
'0:06.358',-0.520,-0.310
'0:06.361',-0.510,-0.305
'0:06.364',-0.500,-0.295
'0:06.367',-0.485,-0.310
'0:06.369',-0.495,-0.315
'0:06.372',-0.490,-0.330
'0:06.375',-0.480,-0.310
'0:06.378',-0.465,-0.315
'0:06.381',-0.445,-0.320
'0:06.383',-0.435,-0.325
'0:06.386',-0.415,-0.345
'0:06.389',-0.415,-0.350
'0:06.392',-0.400,-0.350
'0:06.394',-0.385,-0.335
'0:06.397',-0.395,-0.340
'0:06.400',-0.375,-0.340
'0:06.403',-0.350,-0.370
'0:06.406',-0.340,-0.380
'0:06.408',-0.340,-0.360
'0:06.411',-0.305,-0.370
'0:06.414',-0.295,-0.375
'0:06.417',-0.275,-0.370
'0:06.419',-0.280,-0.395
'0:06.422',-0.275,-0.415
'0:06.425',-0.255,-0.400
'0:06.428',-0.245,-0.400
'0:06.431',-0.230,-0.400
'0:06.433',-0.225,-0.415
'0:06.436',-0.230,-0.445
'0:06.439',-0.225,-0.450
'0:06.442',-0.205,-0.450
'0:06.444',-0.200,-0.440
'0:06.447',-0.175,-0.465
'0:06.450',-0.180,-0.460
'0:06.453',-0.175,-0.470
'0:06.456',-0.155,-0.485
'0:06.458',-0.165,-0.465
'0:06.461',-0.140,-0.475
'0:06.464',-0.135,-0.465
'0:06.467',-0.110,-0.485
'0:06.469',-0.125,-0.490
'0:06.472',-0.115,-0.510
'0:06.475',-0.100,-0.490
'0:06.478',-0.080,-0.490
'0:06.481',-0.085,-0.510
'0:06.483',-0.080,-0.515
'0:06.486',-0.080,-0.515
'0:06.489',-0.100,-0.530
'0:06.492',-0.105,-0.535
'0:06.494',-0.110,-0.545
'0:06.497',-0.115,-0.540
'0:06.500',-0.120,-0.540
'0:06.503',-0.110,-0.550
'0:06.506',-0.120,-0.555
'0:06.508',-0.095,-0.560
'0:06.511',-0.085,-0.540
'0:06.514',-0.075,-0.550
'0:06.517',-0.070,-0.555
'0:06.519',-0.085,-0.565
'0:06.522',-0.110,-0.580
'0:06.525',-0.105,-0.565
'0:06.528',-0.090,-0.550
'0:06.531',-0.095,-0.555
'0:06.533',-0.100,-0.550
'0:06.536',-0.115,-0.555
'0:06.539',-0.135,-0.560
'0:06.542',-0.140,-0.555
'0:06.544',-0.145,-0.540
'0:06.547',-0.140,-0.545
'0:06.550',-0.135,-0.550
'0:06.553',-0.140,-0.555
'0:06.556',-0.155,-0.540
'0:06.558',-0.165,-0.520
'0:06.561',-0.190,-0.510
'0:06.564',-0.210,-0.505
'0:06.567',-0.245,-0.520
'0:06.569',-0.265,-0.525
'0:06.572',-0.300,-0.525
'0:06.575',-0.320,-0.510
'0:06.578',-0.350,-0.500
'0:06.581',-0.355,-0.505
'0:06.583',-0.375,-0.505
'0:06.586',-0.405,-0.520
'0:06.589',-0.405,-0.515
'0:06.592',-0.400,-0.505
'0:06.594',-0.395,-0.495
'0:06.597',-0.400,-0.505
'0:06.600',-0.400,-0.500
'0:06.603',-0.410,-0.520
'0:06.606',-0.420,-0.525
'0:06.608',-0.420,-0.505
'0:06.611',-0.405,-0.500
'0:06.614',-0.410,-0.505
'0:06.617',-0.405,-0.500
'0:06.619',-0.410,-0.515
'0:06.622',-0.430,-0.520
'0:06.625',-0.425,-0.515
'0:06.628',-0.405,-0.510
'0:06.631',-0.390,-0.520
'0:06.633',-0.400,-0.520
'0:06.636',-0.405,-0.535
'0:06.639',-0.425,-0.535
'0:06.642',-0.415,-0.525
'0:06.644',-0.390,-0.520
'0:06.647',-0.400,-0.520
'0:06.650',-0.390,-0.500
'0:06.653',-0.395,-0.515
'0:06.656',-0.400,-0.525
'0:06.658',-0.405,-0.520
'0:06.661',-0.405,-0.510
'0:06.664',-0.400,-0.515
'0:06.667',-0.395,-0.525
'0:06.669',-0.410,-0.540
'0:06.672',-0.425,-0.545
'0:06.675',-0.405,-0.540
'0:06.678',-0.390,-0.525
'0:06.681',-0.380,-0.515
'0:06.683',-0.375,-0.525
'0:06.686',-0.400,-0.535
'0:06.689',-0.405,-0.540
'0:06.692',-0.395,-0.535
'0:06.694',-0.370,-0.515
'0:06.697',-0.365,-0.520
'0:06.700',-0.360,-0.515
'0:06.703',-0.380,-0.520
'0:06.706',-0.395,-0.490
'0:06.708',-0.405,-0.470
'0:06.711',-0.405,-0.440
'0:06.714',-0.415,-0.420
'0:06.717',-0.420,-0.405
'0:06.719',-0.425,-0.405
'0:06.722',-0.375,-0.445
'0:06.725',-0.255,-0.470
'0:06.728',-0.135,-0.510
'0:06.731',-0.015,-0.590
'0:06.733',0.060,-0.700
'0:06.736',0.080,-0.790
'0:06.739',0.090,-0.880
'0:06.742',0.160,-0.970
'0:06.744',0.270,-1.110
'0:06.747',0.395,-1.310
'0:06.750',0.490,-1.480
'0:06.753',0.555,-1.600
'0:06.756',0.590,-1.645
'0:06.758',0.615,-1.650
'0:06.761',0.615,-1.635
'0:06.764',0.605,-1.610
'0:06.767',0.580,-1.560
'0:06.769',0.525,-1.515
'0:06.772',0.430,-1.450
'0:06.775',0.355,-1.375
'0:06.778',0.295,-1.305
'0:06.781',0.240,-1.240
'0:06.783',0.165,-1.170
'0:06.786',0.060,-1.135
'0:06.789',-0.095,-1.070
'0:06.792',-0.255,-1.000
'0:06.794',-0.400,-0.945
'0:06.797',-0.525,-0.900
'0:06.800',-0.650,-0.885
'0:06.803',-0.765,-0.860
'0:06.806',-0.835,-0.825
'0:06.808',-0.870,-0.785
'0:06.811',-0.880,-0.735
'0:06.814',-0.870,-0.700
'0:06.817',-0.880,-0.685
'0:06.819',-0.880,-0.670
'0:06.822',-0.890,-0.650
'0:06.825',-0.880,-0.610
'0:06.828',-0.870,-0.580
'0:06.831',-0.835,-0.555
'0:06.833',-0.795,-0.515
'0:06.836',-0.785,-0.510
'0:06.839',-0.760,-0.480
'0:06.842',-0.730,-0.445
'0:06.844',-0.705,-0.410
'0:06.847',-0.670,-0.400
'0:06.850',-0.650,-0.395
'0:06.853',-0.650,-0.380
'0:06.856',-0.635,-0.370
'0:06.858',-0.605,-0.365
'0:06.861',-0.575,-0.345
'0:06.864',-0.555,-0.330
'0:06.867',-0.550,-0.335
'0:06.869',-0.555,-0.330
'0:06.872',-0.560,-0.340
'0:06.875',-0.540,-0.325
'0:06.878',-0.540,-0.310
'0:06.881',-0.545,-0.315
'0:06.883',-0.545,-0.315
'0:06.886',-0.540,-0.320
'0:06.889',-0.550,-0.320
'0:06.892',-0.560,-0.315
'0:06.894',-0.545,-0.285
'0:06.897',-0.535,-0.295
'0:06.900',-0.530,-0.295
'0:06.903',-0.540,-0.300
'0:06.906',-0.560,-0.295
'0:06.908',-0.550,-0.290
'0:06.911',-0.545,-0.270
'0:06.914',-0.535,-0.260
'0:06.917',-0.530,-0.270
'0:06.919',-0.545,-0.275
'0:06.922',-0.555,-0.275
'0:06.925',-0.555,-0.255
'0:06.928',-0.540,-0.245
'0:06.931',-0.525,-0.240
'0:06.933',-0.515,-0.240
'0:06.936',-0.520,-0.255
'0:06.939',-0.535,-0.250
'0:06.942',-0.525,-0.225
'0:06.944',-0.500,-0.230
'0:06.947',-0.495,-0.225
'0:06.950',-0.490,-0.235
'0:06.953',-0.495,-0.240
'0:06.956',-0.495,-0.250
'0:06.958',-0.495,-0.235
'0:06.961',-0.465,-0.230
'0:06.964',-0.465,-0.220
'0:06.967',-0.450,-0.220
'0:06.969',-0.460,-0.235
'0:06.972',-0.460,-0.230
'0:06.975',-0.435,-0.220
'0:06.978',-0.415,-0.205
'0:06.981',-0.420,-0.215
'0:06.983',-0.405,-0.225
'0:06.986',-0.410,-0.230
'0:06.989',-0.410,-0.235
'0:06.992',-0.380,-0.230
'0:06.994',-0.365,-0.205
'0:06.997',-0.330,-0.215
'0:07.000',-0.325,-0.220
'0:07.003',-0.315,-0.240
'0:07.006',-0.315,-0.255
'0:07.008',-0.315,-0.250
'0:07.011',-0.285,-0.240
'0:07.014',-0.260,-0.230
'0:07.017',-0.240,-0.230
'0:07.019',-0.230,-0.235
'0:07.022',-0.235,-0.265
'0:07.025',-0.235,-0.275
'0:07.028',-0.220,-0.275
'0:07.031',-0.205,-0.255
'0:07.033',-0.185,-0.245
'0:07.036',-0.200,-0.255
'0:07.039',-0.200,-0.260
'0:07.042',-0.180,-0.300
'0:07.044',-0.160,-0.325
'0:07.047',-0.130,-0.365
'0:07.050',-0.115,-0.360
'0:07.053',-0.115,-0.360
'0:07.056',-0.135,-0.355
'0:07.058',-0.130,-0.355
'0:07.061',-0.125,-0.370
'0:07.064',-0.105,-0.380
'0:07.067',-0.105,-0.375
'0:07.069',-0.095,-0.385
'0:07.072',-0.080,-0.385
'0:07.075',-0.055,-0.390
'0:07.078',-0.010,-0.375
'0:07.081',0.010,-0.405
'0:07.083',0.010,-0.415
'0:07.086',-0.020,-0.430
'0:07.089',-0.035,-0.435
'0:07.092',0.005,-0.440
'0:07.094',0.050,-0.440
'0:07.097',0.065,-0.460
'0:07.100',0.015,-0.460
'0:07.103',-0.065,-0.465
'0:07.106',-0.150,-0.435
'0:07.108',-0.180,-0.430
'0:07.111',-0.165,-0.410
'0:07.114',-0.145,-0.410
'0:07.117',-0.115,-0.420
'0:07.119',-0.105,-0.420
'0:07.122',-0.095,-0.450
'0:07.125',-0.075,-0.420
'0:07.128',-0.065,-0.420
'0:07.131',-0.065,-0.430
'0:07.133',-0.080,-0.430
'0:07.136',-0.080,-0.440
'0:07.139',-0.070,-0.440
'0:07.142',-0.070,-0.425
'0:07.144',-0.060,-0.400
'0:07.147',-0.060,-0.415
'0:07.150',-0.060,-0.400
'0:07.153',-0.075,-0.425
'0:07.156',-0.105,-0.435
'0:07.158',-0.115,-0.400
'0:07.161',-0.115,-0.340
'0:07.164',-0.115,-0.260
'0:07.167',-0.110,-0.235
'0:07.169',-0.110,-0.285
'0:07.172',-0.135,-0.350
'0:07.175',-0.155,-0.430
'0:07.178',-0.175,-0.470
'0:07.181',-0.200,-0.500
'0:07.183',-0.220,-0.515
'0:07.186',-0.245,-0.525
'0:07.189',-0.260,-0.515
'0:07.192',-0.255,-0.490
'0:07.194',-0.260,-0.465
'0:07.197',-0.280,-0.450
'0:07.200',-0.320,-0.425
'0:07.203',-0.350,-0.430
'0:07.206',-0.365,-0.430
'0:07.208',-0.340,-0.420
'0:07.211',-0.265,-0.410
'0:07.214',-0.205,-0.435
'0:07.217',-0.185,-0.460
'0:07.219',-0.225,-0.460
'0:07.222',-0.300,-0.440
'0:07.225',-0.360,-0.425
'0:07.228',-0.405,-0.370
'0:07.231',-0.435,-0.350
'0:07.233',-0.455,-0.320
'0:07.236',-0.475,-0.305
'0:07.239',-0.475,-0.295
'0:07.242',-0.455,-0.230
'0:07.244',-0.445,-0.195
'0:07.247',-0.425,-0.175
'0:07.250',-0.400,-0.145
'0:07.253',-0.395,-0.165
'0:07.256',-0.400,-0.210
'0:07.258',-0.425,-0.290
'0:07.261',-0.430,-0.355
'0:07.264',-0.415,-0.440
'0:07.267',-0.390,-0.480
'0:07.269',-0.385,-0.485
'0:07.272',-0.410,-0.415
'0:07.275',-0.425,-0.330
'0:07.278',-0.425,-0.285
'0:07.281',-0.400,-0.335
'0:07.283',-0.375,-0.435
'0:07.286',-0.355,-0.525
'0:07.289',-0.355,-0.575
'0:07.292',-0.345,-0.570
'0:07.294',-0.330,-0.535
'0:07.297',-0.295,-0.515
'0:07.300',-0.275,-0.495
'0:07.303',-0.260,-0.490
'0:07.306',-0.285,-0.480
'0:07.308',-0.285,-0.460
'0:07.311',-0.300,-0.450
'0:07.314',-0.330,-0.440
'0:07.317',-0.350,-0.430
'0:07.319',-0.350,-0.430
'0:07.322',-0.325,-0.410
'0:07.325',-0.315,-0.385
'0:07.328',-0.330,-0.345
'0:07.331',-0.355,-0.320
'0:07.333',-0.355,-0.295
'0:07.336',-0.325,-0.305
'0:07.339',-0.235,-0.315
'0:07.342',-0.145,-0.345
'0:07.344',-0.070,-0.360
'0:07.347',-0.040,-0.410
'0:07.350',0.005,-0.475
'0:07.353',0.065,-0.550
'0:07.356',0.140,-0.590
'0:07.358',0.230,-0.595
'0:07.361',0.330,-0.625
'0:07.364',0.405,-0.705
'0:07.367',0.435,-0.820
'0:07.369',0.460,-0.970
'0:07.372',0.520,-1.130
'0:07.375',0.625,-1.255
'0:07.378',0.695,-1.270
'0:07.381',0.700,-1.215
'0:07.383',0.650,-1.125
'0:07.386',0.595,-1.095
'0:07.389',0.575,-1.185
'0:07.392',0.595,-1.275
'0:07.394',0.600,-1.260
'0:07.397',0.550,-1.145
'0:07.400',0.475,-0.935
'0:07.403',0.405,-0.865
'0:07.406',0.330,-0.955
'0:07.408',0.265,-1.150
'0:07.411',0.195,-1.320
'0:07.414',0.100,-1.385
'0:07.417',-0.045,-1.330
'0:07.419',-0.215,-1.205
'0:07.422',-0.405,-1.070
'0:07.425',-0.560,-0.940
'0:07.428',-0.690,-0.835
'0:07.431',-0.750,-0.775
'0:07.433',-0.800,-0.725
'0:07.436',-0.850,-0.685
'0:07.439',-0.920,-0.630
'0:07.442',-0.945,-0.595
'0:07.444',-0.955,-0.560
'0:07.447',-0.945,-0.535
'0:07.450',-0.915,-0.505
'0:07.453',-0.930,-0.490
'0:07.456',-0.920,-0.470
'0:07.458',-0.865,-0.425
'0:07.461',-0.810,-0.375
'0:07.464',-0.770,-0.360
'0:07.467',-0.740,-0.350
'0:07.469',-0.715,-0.340
'0:07.472',-0.680,-0.305
'0:07.475',-0.665,-0.260
'0:07.478',-0.620,-0.245
'0:07.481',-0.600,-0.225
'0:07.483',-0.590,-0.215
'0:07.486',-0.585,-0.155
'0:07.489',-0.560,-0.105
'0:07.492',-0.505,-0.070
'0:07.494',-0.480,-0.050
'0:07.497',-0.475,-0.055
'0:07.500',-0.480,-0.055
'0:07.503',-0.490,-0.085
'0:07.506',-0.455,-0.135
'0:07.508',-0.425,-0.185
'0:07.511',-0.415,-0.220
'0:07.514',-0.390,-0.225
'0:07.517',-0.355,-0.190
'0:07.519',-0.360,-0.150
'0:07.522',-0.425,-0.125
'0:07.525',-0.485,-0.090
'0:07.528',-0.525,-0.155
'0:07.531',-0.505,-0.295
'0:07.533',-0.530,-0.445
'0:07.536',-0.560,-0.495
'0:07.539',-0.620,-0.400
'0:07.542',-0.635,-0.235
'0:07.544',-0.630,-0.110
'0:07.547',-0.615,-0.085
'0:07.550',-0.615,-0.100
'0:07.553',-0.605,-0.165
'0:07.556',-0.605,-0.200
'0:07.558',-0.605,-0.190
'0:07.561',-0.610,-0.140
'0:07.564',-0.595,-0.130
'0:07.567',-0.590,-0.105
'0:07.569',-0.595,-0.110
'0:07.572',-0.590,-0.105
'0:07.575',-0.575,-0.110
'0:07.578',-0.565,-0.105
'0:07.581',-0.565,-0.090
'0:07.583',-0.525,-0.070
'0:07.586',-0.515,-0.045
'0:07.589',-0.505,-0.005
'0:07.592',-0.500,0.010
'0:07.594',-0.495,0.010
'0:07.597',-0.475,-0.040
'0:07.600',-0.450,-0.115
'0:07.603',-0.440,-0.165
'0:07.606',-0.420,-0.140
'0:07.608',-0.400,-0.035
'0:07.611',-0.335,0.110
'0:07.614',-0.280,0.135
'0:07.617',-0.250,0.015
'0:07.619',-0.270,-0.135
'0:07.622',-0.330,-0.215
'0:07.625',-0.410,-0.210
'0:07.628',-0.445,-0.170
'0:07.631',-0.420,-0.115
'0:07.633',-0.355,-0.045
'0:07.636',-0.285,-0.050
'0:07.639',-0.235,-0.115
'0:07.642',-0.200,-0.200
'0:07.644',-0.205,-0.285
'0:07.647',-0.185,-0.320
'0:07.650',-0.150,-0.315
'0:07.653',-0.145,-0.280
'0:07.656',-0.175,-0.240
'0:07.658',-0.205,-0.215
'0:07.661',-0.185,-0.190
'0:07.664',-0.155,-0.190
'0:07.667',-0.115,-0.205
'0:07.669',-0.115,-0.215
'0:07.672',-0.125,-0.210
'0:07.675',-0.120,-0.225
'0:07.678',-0.150,-0.205
'0:07.681',-0.165,-0.210
'0:07.683',-0.180,-0.195
'0:07.686',-0.195,-0.220
'0:07.689',-0.225,-0.215
'0:07.692',-0.200,-0.210
'0:07.694',-0.155,-0.200
'0:07.697',-0.055,-0.215
'0:07.700',0.050,-0.230
'0:07.703',0.075,-0.245
'0:07.706',0.070,-0.250
'0:07.708',0.015,-0.245
'0:07.711',-0.050,-0.240
'0:07.714',-0.080,-0.235
'0:07.717',-0.080,-0.255
'0:07.719',-0.060,-0.265
'0:07.722',-0.030,-0.280
'0:07.725',0.015,-0.300
'0:07.728',0.055,-0.295
'0:07.731',0.080,-0.315
'0:07.733',0.095,-0.315
'0:07.736',0.110,-0.335
'0:07.739',0.145,-0.340
'0:07.742',0.105,-0.330
'0:07.744',-0.025,-0.300
'0:07.747',-0.135,-0.270
'0:07.750',-0.175,-0.260
'0:07.753',-0.145,-0.260
'0:07.756',-0.110,-0.265
'0:07.758',-0.120,-0.265
'0:07.761',-0.170,-0.255
'0:07.764',-0.195,-0.270
'0:07.767',-0.150,-0.275
'0:07.769',-0.105,-0.295
'0:07.772',-0.060,-0.300
'0:07.775',-0.030,-0.285
'0:07.778',-0.055,-0.270
'0:07.781',-0.065,-0.260
'0:07.783',-0.080,-0.255
'0:07.786',-0.105,-0.255
'0:07.789',-0.155,-0.250
'0:07.792',-0.215,-0.245
'0:07.794',-0.280,-0.235
'0:07.797',-0.295,-0.225
'0:07.800',-0.290,-0.235
'0:07.803',-0.285,-0.245
'0:07.806',-0.305,-0.255
'0:07.808',-0.310,-0.240
'0:07.811',-0.320,-0.235
'0:07.814',-0.310,-0.235
'0:07.817',-0.300,-0.235
'0:07.819',-0.280,-0.235
'0:07.822',-0.310,-0.255
'0:07.825',-0.320,-0.250
'0:07.828',-0.300,-0.245
'0:07.831',-0.255,-0.245
'0:07.833',-0.235,-0.245
'0:07.836',-0.285,-0.255
'0:07.839',-0.365,-0.255
'0:07.842',-0.400,-0.235
'0:07.844',-0.405,-0.225
'0:07.847',-0.355,-0.220
'0:07.850',-0.370,-0.230
'0:07.853',-0.405,-0.225
'0:07.856',-0.440,-0.225
'0:07.858',-0.425,-0.215
'0:07.861',-0.400,-0.200
'0:07.864',-0.370,-0.200
'0:07.867',-0.350,-0.235
'0:07.869',-0.350,-0.245
'0:07.872',-0.355,-0.240
'0:07.875',-0.350,-0.245
'0:07.878',-0.340,-0.230
'0:07.881',-0.350,-0.240
'0:07.883',-0.350,-0.235
'0:07.886',-0.370,-0.225
'0:07.889',-0.350,-0.225
'0:07.892',-0.340,-0.210
'0:07.894',-0.335,-0.190
'0:07.897',-0.335,-0.205
'0:07.900',-0.330,-0.210
'0:07.903',-0.320,-0.215
'0:07.906',-0.325,-0.230
'0:07.908',-0.320,-0.220
'0:07.911',-0.315,-0.215
'0:07.914',-0.285,-0.205
'0:07.917',-0.280,-0.210
'0:07.919',-0.290,-0.235
'0:07.922',-0.280,-0.240
'0:07.925',-0.265,-0.225
'0:07.928',-0.240,-0.205
'0:07.931',-0.230,-0.210
'0:07.933',-0.270,-0.200
'0:07.936',-0.300,-0.200
'0:07.939',-0.345,-0.190
'0:07.942',-0.365,-0.175
'0:07.944',-0.360,-0.120
'0:07.947',-0.345,-0.105
'0:07.950',-0.340,-0.095
'0:07.953',-0.335,-0.090
'0:07.956',-0.310,-0.105
'0:07.958',-0.235,-0.110
'0:07.961',-0.110,-0.145
'0:07.964',-0.005,-0.185
'0:07.967',0.085,-0.260
'0:07.969',0.165,-0.340
'0:07.972',0.205,-0.435
'0:07.975',0.200,-0.480
'0:07.978',0.200,-0.540
'0:07.981',0.250,-0.630
'0:07.983',0.345,-0.770
'0:07.986',0.445,-0.925
'0:07.989',0.540,-1.085
'0:07.992',0.635,-1.180
'0:07.994',0.725,-1.240
'0:07.997',0.795,-1.275
'0:08.000',0.805,-1.295
'0:08.003',0.790,-1.315
'0:08.006',0.755,-1.310
'0:08.008',0.745,-1.265
'0:08.011',0.725,-1.210
'0:08.014',0.680,-1.155
'0:08.017',0.570,-1.085
'0:08.019',0.485,-1.040
'0:08.022',0.425,-0.985
'0:08.025',0.360,-0.915
'0:08.028',0.290,-0.855
'0:08.031',0.200,-0.795
'0:08.033',0.065,-0.750
'0:08.036',-0.075,-0.700
'0:08.039',-0.215,-0.670
'0:08.042',-0.325,-0.625
'0:08.044',-0.430,-0.575
'0:08.047',-0.530,-0.560
'0:08.050',-0.615,-0.525
'0:08.053',-0.695,-0.490
'0:08.056',-0.745,-0.470
'0:08.058',-0.775,-0.435
'0:08.061',-0.785,-0.400
'0:08.064',-0.800,-0.390
'0:08.067',-0.800,-0.360
'0:08.069',-0.795,-0.360
'0:08.072',-0.795,-0.345
'0:08.075',-0.800,-0.310
'0:08.078',-0.810,-0.290
'0:08.081',-0.785,-0.260
'0:08.083',-0.765,-0.240
'0:08.086',-0.725,-0.220
'0:08.089',-0.695,-0.190
'0:08.092',-0.655,-0.150
'0:08.094',-0.625,-0.130
'0:08.097',-0.605,-0.115
'0:08.100',-0.590,-0.095
'0:08.103',-0.590,-0.085
'0:08.106',-0.590,-0.090
'0:08.108',-0.560,-0.055
'0:08.111',-0.535,-0.025
'0:08.114',-0.510,-0.010
'0:08.117',-0.475,-0.010
'0:08.119',-0.475,-0.025
'0:08.122',-0.460,-0.020
'0:08.125',-0.450,0.005
'0:08.128',-0.435,0.015
'0:08.131',-0.420,0.000
'0:08.133',-0.420,0.000
'0:08.136',-0.440,-0.005
'0:08.139',-0.435,-0.005
'0:08.142',-0.425,0.005
'0:08.144',-0.420,0.020
'0:08.147',-0.435,0.010
'0:08.150',-0.425,0.020
'0:08.153',-0.435,0.025
'0:08.156',-0.440,0.025
'0:08.158',-0.450,0.020
'0:08.161',-0.435,0.035
'0:08.164',-0.430,0.050
'0:08.167',-0.440,0.040
'0:08.169',-0.445,0.045
'0:08.172',-0.460,0.040
'0:08.175',-0.450,0.055
'0:08.178',-0.440,0.070
'0:08.181',-0.430,0.070
'0:08.183',-0.425,0.060
'0:08.186',-0.440,0.070
'0:08.189',-0.450,0.075
'0:08.192',-0.440,0.085
'0:08.194',-0.425,0.100
'0:08.197',-0.425,0.085
'0:08.200',-0.415,0.085
'0:08.203',-0.425,0.090
'0:08.206',-0.440,0.090
'0:08.208',-0.425,0.085
'0:08.211',-0.420,0.100
'0:08.214',-0.410,0.100
'0:08.217',-0.405,0.100
'0:08.219',-0.415,0.090
'0:08.222',-0.410,0.095
'0:08.225',-0.405,0.115
'0:08.228',-0.385,0.130
'0:08.231',-0.360,0.115
'0:08.233',-0.355,0.110
'0:08.236',-0.365,0.105
'0:08.239',-0.365,0.090
'0:08.242',-0.340,0.105
'0:08.244',-0.320,0.100
'0:08.247',-0.305,0.115
'0:08.250',-0.305,0.115
'0:08.253',-0.295,0.090
'0:08.256',-0.290,0.100
'0:08.258',-0.265,0.110
'0:08.261',-0.235,0.115
'0:08.264',-0.225,0.090
'0:08.267',-0.220,0.100
'0:08.269',-0.225,0.090
'0:08.272',-0.240,0.090
'0:08.275',-0.215,0.080
'0:08.278',-0.190,0.085
'0:08.281',-0.160,0.070
'0:08.283',-0.140,0.070
'0:08.286',-0.135,0.055
'0:08.289',-0.135,0.035
'0:08.292',-0.120,0.055
'0:08.294',-0.095,0.065
'0:08.297',-0.080,0.070
'0:08.300',-0.075,0.045
'0:08.303',-0.075,0.040
'0:08.306',-0.075,0.035
'0:08.308',-0.055,0.025
'0:08.311',-0.030,0.030
'0:08.314',-0.030,0.010
'0:08.317',-0.030,0.015
'0:08.319',-0.015,0.000
'0:08.322',-0.015,-0.020
'0:08.325',-0.005,-0.015
'0:08.328',0.015,-0.010
'0:08.331',0.035,-0.020
'0:08.333',0.035,-0.030
'0:08.336',0.035,-0.035
'0:08.339',0.030,-0.045
'0:08.342',0.055,-0.035
'0:08.344',0.075,-0.025
'0:08.347',0.095,-0.030
'0:08.350',0.100,-0.040
'0:08.353',0.105,-0.060
'0:08.356',0.095,-0.055
'0:08.358',0.105,-0.060
'0:08.361',0.115,-0.055
'0:08.364',0.110,-0.065
'0:08.367',0.105,-0.080
'0:08.369',0.075,-0.100
'0:08.372',0.065,-0.115
'0:08.375',0.065,-0.110
'0:08.378',0.080,-0.090
'0:08.381',0.095,-0.095
'0:08.383',0.095,-0.095
'0:08.386',0.110,-0.110
'0:08.389',0.095,-0.120
'0:08.392',0.100,-0.110
'0:08.394',0.110,-0.100
'0:08.397',0.095,-0.110
'0:08.400',0.090,-0.120
'0:08.403',0.080,-0.115
'0:08.406',0.060,-0.115
'0:08.408',0.070,-0.110
'0:08.411',0.065,-0.095
'0:08.414',0.060,-0.090
'0:08.417',0.065,-0.100
'0:08.419',0.060,-0.110
'0:08.422',0.055,-0.115
'0:08.425',0.060,-0.100
'0:08.428',0.080,-0.080
'0:08.431',0.075,-0.080
'0:08.433',0.055,-0.080
'0:08.436',0.020,-0.090
'0:08.439',-0.015,-0.090
'0:08.442',-0.050,-0.075
'0:08.444',-0.065,-0.060
'0:08.447',-0.090,-0.060
'0:08.450',-0.110,-0.060
'0:08.453',-0.135,-0.080
'0:08.456',-0.175,-0.065
'0:08.458',-0.195,-0.075
'0:08.461',-0.210,-0.065
'0:08.464',-0.210,-0.055
'0:08.467',-0.210,-0.065
'0:08.469',-0.220,-0.075
'0:08.472',-0.245,-0.070
'0:08.475',-0.250,-0.065
'0:08.478',-0.235,-0.055
'0:08.481',-0.220,-0.065
'0:08.483',-0.230,-0.060
'0:08.486',-0.230,-0.075
'0:08.489',-0.240,-0.070
'0:08.492',-0.245,-0.065
'0:08.494',-0.235,-0.060
'0:08.497',-0.230,-0.065
'0:08.500',-0.235,-0.070
'0:08.503',-0.240,-0.080
'0:08.506',-0.255,-0.085
'0:08.508',-0.250,-0.075
'0:08.511',-0.230,-0.060
'0:08.514',-0.235,-0.070
'0:08.517',-0.240,-0.080
'0:08.519',-0.265,-0.095
'0:08.522',-0.255,-0.080
'0:08.525',-0.260,-0.085
'0:08.528',-0.250,-0.075
'0:08.531',-0.230,-0.080
'0:08.533',-0.235,-0.085
'0:08.536',-0.235,-0.095
'0:08.539',-0.240,-0.090
'0:08.542',-0.230,-0.085
'0:08.544',-0.225,-0.085
'0:08.547',-0.235,-0.080
'0:08.550',-0.240,-0.075
'0:08.553',-0.240,-0.080
'0:08.556',-0.240,-0.095
'0:08.558',-0.220,-0.090
'0:08.561',-0.215,-0.080
'0:08.564',-0.205,-0.085
'0:08.567',-0.210,-0.090
'0:08.569',-0.215,-0.085
'0:08.572',-0.220,-0.090
'0:08.575',-0.225,-0.070
'0:08.578',-0.210,-0.065
'0:08.581',-0.210,-0.070
'0:08.583',-0.210,-0.070
'0:08.586',-0.215,-0.060
'0:08.589',-0.235,-0.060
'0:08.592',-0.255,-0.030
'0:08.594',-0.260,-0.005
'0:08.597',-0.265,0.020
'0:08.600',-0.265,0.045
'0:08.603',-0.270,0.045
'0:08.606',-0.250,0.030
'0:08.608',-0.155,0.015
'0:08.611',-0.040,-0.010
'0:08.614',0.050,-0.060
'0:08.617',0.150,-0.140
'0:08.619',0.215,-0.220
'0:08.622',0.275,-0.315
'0:08.625',0.320,-0.395
'0:08.628',0.390,-0.455
'0:08.631',0.490,-0.585
'0:08.633',0.595,-0.755
'0:08.636',0.690,-0.925
'0:08.639',0.780,-1.060
'0:08.642',0.860,-1.165
'0:08.644',0.935,-1.210
'0:08.647',0.970,-1.240
'0:08.650',0.980,-1.260
'0:08.653',0.950,-1.270
'0:08.656',0.940,-1.265
'0:08.658',0.915,-1.215
'0:08.661',0.880,-1.155
'0:08.664',0.800,-1.095
'0:08.667',0.685,-1.035
'0:08.669',0.585,-0.985
'0:08.672',0.495,-0.930
'0:08.675',0.410,-0.865
'0:08.678',0.315,-0.785
'0:08.681',0.200,-0.730
'0:08.683',0.070,-0.665
'0:08.686',-0.100,-0.620
'0:08.689',-0.265,-0.570
'0:08.692',-0.375,-0.510
'0:08.694',-0.480,-0.465
'0:08.697',-0.590,-0.450
'0:08.700',-0.680,-0.420
'0:08.703',-0.750,-0.395
'0:08.706',-0.790,-0.355
'0:08.708',-0.825,-0.315
'0:08.711',-0.830,-0.290
'0:08.714',-0.835,-0.260
'0:08.717',-0.835,-0.245
'0:08.719',-0.830,-0.235
'0:08.722',-0.845,-0.200
'0:08.725',-0.845,-0.180
'0:08.728',-0.820,-0.145
'0:08.731',-0.775,-0.115
'0:08.733',-0.755,-0.085
'0:08.736',-0.730,-0.080
'0:08.739',-0.700,-0.065
'0:08.742',-0.670,-0.025
'0:08.744',-0.650,0.005
'0:08.747',-0.625,0.025
'0:08.750',-0.610,0.055
'0:08.753',-0.605,0.055
'0:08.756',-0.590,0.065
'0:08.758',-0.555,0.090
'0:08.761',-0.515,0.120
'0:08.764',-0.490,0.120
'0:08.767',-0.490,0.135
'0:08.769',-0.480,0.125
'0:08.772',-0.490,0.135
'0:08.775',-0.465,0.145
'0:08.778',-0.455,0.165
'0:08.781',-0.455,0.160
'0:08.783',-0.445,0.160
'0:08.786',-0.450,0.150
'0:08.789',-0.460,0.155
'0:08.792',-0.465,0.165
'0:08.794',-0.460,0.170
'0:08.797',-0.465,0.180
'0:08.800',-0.455,0.175
'0:08.803',-0.475,0.185
'0:08.806',-0.475,0.170
'0:08.808',-0.475,0.190
'0:08.811',-0.460,0.200
'0:08.814',-0.465,0.190
'0:08.817',-0.460,0.185
'0:08.819',-0.475,0.180
'0:08.822',-0.485,0.195
'0:08.825',-0.495,0.210
'0:08.828',-0.485,0.220
'0:08.831',-0.480,0.225
'0:08.833',-0.480,0.225
'0:08.836',-0.500,0.225
'0:08.839',-0.510,0.235
'0:08.842',-0.505,0.245
'0:08.844',-0.490,0.260
'0:08.847',-0.490,0.260
'0:08.850',-0.495,0.245
'0:08.853',-0.495,0.240
'0:08.856',-0.500,0.245
'0:08.858',-0.500,0.250
'0:08.861',-0.485,0.260
'0:08.864',-0.470,0.265
'0:08.867',-0.475,0.255
'0:08.869',-0.470,0.250
'0:08.872',-0.475,0.250
'0:08.875',-0.470,0.265
'0:08.878',-0.450,0.270
'0:08.881',-0.435,0.275
'0:08.883',-0.435,0.265
'0:08.886',-0.435,0.270
'0:08.889',-0.430,0.260
'0:08.892',-0.415,0.260
'0:08.894',-0.410,0.275
'0:08.897',-0.390,0.270
'0:08.900',-0.390,0.275
'0:08.903',-0.385,0.255
'0:08.906',-0.385,0.250
'0:08.908',-0.375,0.255
'0:08.911',-0.365,0.265
'0:08.914',-0.335,0.260
'0:08.917',-0.315,0.250
'0:08.919',-0.310,0.245
'0:08.922',-0.315,0.240
'0:08.925',-0.305,0.235
'0:08.928',-0.285,0.245
'0:08.931',-0.255,0.255
'0:08.933',-0.245,0.240
'0:08.936',-0.235,0.245
'0:08.939',-0.240,0.235
'0:08.942',-0.225,0.230
'0:08.944',-0.215,0.245
'0:08.947',-0.175,0.225
'0:08.950',-0.160,0.215
'0:08.953',-0.145,0.195
'0:08.956',-0.155,0.200
'0:08.958',-0.150,0.200
'0:08.961',-0.135,0.210
'0:08.964',-0.120,0.205
'0:08.967',-0.120,0.195
'0:08.969',-0.110,0.160
'0:08.972',-0.110,0.165
'0:08.975',-0.100,0.170
'0:08.978',-0.080,0.170
'0:08.981',-0.060,0.175
'0:08.983',-0.050,0.160
'0:08.986',-0.045,0.145
'0:08.989',-0.055,0.135
'0:08.992',-0.040,0.140
'0:08.994',-0.040,0.135
'0:08.997',-0.010,0.135
'0:09.000',0.015,0.125
'0:09.003',0.020,0.110
'0:09.006',0.015,0.120
'0:09.008',0.000,0.120
'0:09.011',0.010,0.135
'0:09.014',0.025,0.120
'0:09.017',0.025,0.115
'0:09.019',0.020,0.100
'0:09.022',0.015,0.095
'0:09.025',0.015,0.085
'0:09.028',0.025,0.090
'0:09.031',0.015,0.080
'0:09.033',-0.005,0.065
'0:09.036',-0.025,0.065
'0:09.039',-0.035,0.050
'0:09.042',-0.025,0.055
'0:09.044',0.000,0.080
'0:09.047',0.025,0.070
'0:09.050',0.030,0.055
'0:09.053',0.015,0.055
'0:09.056',-0.005,0.065
'0:09.058',-0.015,0.075
'0:09.061',-0.005,0.110
'0:09.064',-0.005,0.145
'0:09.067',-0.005,0.190
'0:09.069',-0.030,0.195
'0:09.072',-0.035,0.185
'0:09.075',-0.035,0.165
'0:09.078',-0.035,0.125
'0:09.081',-0.030,0.105
'0:09.083',-0.035,0.080
'0:09.086',-0.060,0.110
'0:09.089',-0.065,0.135
'0:09.092',-0.050,0.150
'0:09.094',-0.040,0.135
'0:09.097',-0.045,0.100
'0:09.100',-0.060,0.060
'0:09.103',-0.095,0.015
'0:09.106',-0.135,-0.020
'0:09.108',-0.160,-0.030
'0:09.111',-0.180,-0.025
'0:09.114',-0.200,-0.005
'0:09.117',-0.225,-0.010
'0:09.119',-0.265,0.000
'0:09.122',-0.290,0.015
'0:09.125',-0.320,0.040
'0:09.128',-0.325,0.060
'0:09.131',-0.335,0.075
'0:09.133',-0.345,0.080
'0:09.136',-0.360,0.070
'0:09.139',-0.385,0.080
'0:09.142',-0.370,0.080
'0:09.144',-0.360,0.090
'0:09.147',-0.335,0.095
'0:09.150',-0.345,0.075
'0:09.153',-0.345,0.070
'0:09.156',-0.360,0.075
'0:09.158',-0.365,0.075
'0:09.161',-0.350,0.085
'0:09.164',-0.335,0.080
'0:09.167',-0.340,0.075
'0:09.169',-0.355,0.060
'0:09.172',-0.365,0.055
'0:09.175',-0.360,0.070
'0:09.178',-0.345,0.080
'0:09.181',-0.335,0.085
'0:09.183',-0.345,0.075
'0:09.186',-0.360,0.065
'0:09.189',-0.365,0.070
'0:09.192',-0.360,0.070
'0:09.194',-0.350,0.095
'0:09.197',-0.335,0.070
'0:09.200',-0.345,0.065
'0:09.203',-0.350,0.065
'0:09.206',-0.375,0.065
'0:09.208',-0.350,0.075
'0:09.211',-0.340,0.075
'0:09.214',-0.320,0.080
'0:09.217',-0.325,0.075
'0:09.219',-0.335,0.075
'0:09.222',-0.345,0.065
'0:09.225',-0.345,0.070
'0:09.228',-0.340,0.080
'0:09.231',-0.330,0.075
'0:09.233',-0.305,0.075
'0:09.236',-0.315,0.075
'0:09.239',-0.330,0.070
'0:09.242',-0.330,0.085
'0:09.244',-0.310,0.100
'0:09.247',-0.315,0.100
'0:09.250',-0.310,0.110
'0:09.253',-0.325,0.125
'0:09.256',-0.355,0.140
'0:09.258',-0.350,0.165
'0:09.261',-0.305,0.185
'0:09.264',-0.220,0.185
'0:09.267',-0.110,0.160
'0:09.269',0.020,0.100
'0:09.272',0.120,0.050
'0:09.275',0.200,-0.010
'0:09.278',0.285,-0.085
'0:09.281',0.345,-0.165
'0:09.283',0.395,-0.220
'0:09.286',0.430,-0.295
'0:09.289',0.495,-0.365
'0:09.292',0.565,-0.470
'0:09.294',0.655,-0.585
'0:09.297',0.740,-0.725
'0:09.300',0.805,-0.855
'0:09.303',0.820,-0.960
'0:09.306',0.795,-1.000
'0:09.308',0.755,-0.980
'0:09.311',0.730,-0.940
'0:09.314',0.700,-0.890
'0:09.317',0.650,-0.850
'0:09.319',0.560,-0.815
'0:09.322',0.445,-0.765
'0:09.325',0.365,-0.705
'0:09.328',0.295,-0.665
'0:09.331',0.210,-0.610
'0:09.333',0.110,-0.545
'0:09.336',0.005,-0.515
'0:09.339',-0.150,-0.465
'0:09.342',-0.305,-0.390
'0:09.344',-0.450,-0.350
'0:09.347',-0.555,-0.315
'0:09.350',-0.660,-0.295
'0:09.353',-0.770,-0.275
'0:09.356',-0.870,-0.250
'0:09.358',-0.925,-0.195
'0:09.361',-0.950,-0.140
'0:09.364',-0.970,-0.115
'0:09.367',-0.960,-0.115
'0:09.369',-0.975,-0.100
'0:09.372',-0.975,-0.080
'0:09.375',-0.950,-0.050
'0:09.378',-0.940,-0.020
'0:09.381',-0.915,0.000
'0:09.383',-0.895,0.025
'0:09.386',-0.860,0.035
'0:09.389',-0.840,0.060
'0:09.392',-0.820,0.090
'0:09.394',-0.775,0.125
'0:09.397',-0.750,0.140
'0:09.400',-0.720,0.150
'0:09.403',-0.725,0.160
'0:09.406',-0.705,0.165
'0:09.408',-0.685,0.185
'0:09.411',-0.640,0.205
'0:09.414',-0.610,0.220
'0:09.417',-0.610,0.220
'0:09.419',-0.600,0.215
'0:09.422',-0.610,0.220
'0:09.425',-0.575,0.240
'0:09.428',-0.545,0.250
'0:09.431',-0.530,0.240
'0:09.433',-0.530,0.240
'0:09.436',-0.545,0.235
'0:09.439',-0.555,0.235
'0:09.442',-0.560,0.230
'0:09.444',-0.555,0.245
'0:09.447',-0.550,0.245
'0:09.450',-0.545,0.245
'0:09.453',-0.560,0.240
'0:09.456',-0.565,0.225
'0:09.458',-0.565,0.255
'0:09.461',-0.565,0.270
'0:09.464',-0.540,0.260
'0:09.467',-0.560,0.260
'0:09.469',-0.565,0.250
'0:09.472',-0.580,0.265
'0:09.475',-0.565,0.275
'0:09.478',-0.555,0.270
'0:09.481',-0.540,0.275
'0:09.483',-0.550,0.265
'0:09.486',-0.560,0.270
'0:09.489',-0.560,0.270
'0:09.492',-0.545,0.275
'0:09.494',-0.540,0.285
'0:09.497',-0.525,0.290
'0:09.500',-0.535,0.275
'0:09.503',-0.535,0.275
'0:09.506',-0.545,0.280
'0:09.508',-0.535,0.290
'0:09.511',-0.525,0.285
'0:09.514',-0.510,0.300
'0:09.517',-0.505,0.295
'0:09.519',-0.500,0.290
'0:09.522',-0.500,0.295
'0:09.525',-0.475,0.305
'0:09.528',-0.460,0.295
'0:09.531',-0.435,0.300
'0:09.533',-0.435,0.290
'0:09.536',-0.445,0.285
'0:09.539',-0.445,0.275
'0:09.542',-0.420,0.280
'0:09.544',-0.410,0.285
'0:09.547',-0.395,0.290
'0:09.550',-0.385,0.285
'0:09.553',-0.400,0.270
'0:09.556',-0.380,0.275
'0:09.558',-0.370,0.280
'0:09.561',-0.360,0.275
'0:09.564',-0.340,0.285
'0:09.567',-0.320,0.265
'0:09.569',-0.325,0.250
'0:09.572',-0.330,0.260
'0:09.575',-0.315,0.255
'0:09.578',-0.285,0.270
'0:09.581',-0.265,0.275
'0:09.583',-0.255,0.255
'0:09.586',-0.230,0.250
'0:09.589',-0.225,0.255
'0:09.592',-0.210,0.270
'0:09.594',-0.205,0.275
'0:09.597',-0.175,0.240
'0:09.600',-0.175,0.220
'0:09.603',-0.160,0.190
'0:09.606',-0.175,0.195
'0:09.608',-0.170,0.200
'0:09.611',-0.160,0.200
'0:09.614',-0.135,0.190
'0:09.617',-0.140,0.200
'0:09.619',-0.135,0.180
'0:09.622',-0.135,0.180
'0:09.625',-0.120,0.180
'0:09.628',-0.110,0.190
'0:09.631',-0.100,0.185
'0:09.633',-0.085,0.195
'0:09.636',-0.085,0.195
'0:09.639',-0.090,0.200
'0:09.642',-0.065,0.200
'0:09.644',-0.050,0.205
'0:09.647',-0.040,0.165
'0:09.650',-0.050,0.135
'0:09.653',-0.045,0.125
'0:09.656',-0.050,0.130
'0:09.658',-0.040,0.135
'0:09.661',-0.020,0.145
'0:09.664',-0.015,0.120
'0:09.667',-0.035,0.105
'0:09.669',-0.055,0.065
'0:09.672',-0.075,0.075
'0:09.675',-0.085,0.085
'0:09.678',-0.050,0.075
'0:09.681',-0.040,0.075
'0:09.683',-0.040,0.075
'0:09.686',-0.050,0.070
'0:09.689',-0.055,0.065
'0:09.692',-0.075,0.085
'0:09.694',-0.075,0.085
'0:09.697',-0.065,0.080
'0:09.700',-0.065,0.075
'0:09.703',-0.075,0.070
'0:09.706',-0.080,0.075
'0:09.708',-0.085,0.075
'0:09.711',-0.075,0.085
'0:09.714',-0.065,0.085
'0:09.717',-0.070,0.085
'0:09.719',-0.075,0.065
'0:09.722',-0.095,0.065
'0:09.725',-0.105,0.075
'0:09.728',-0.090,0.095
'0:09.731',-0.080,0.095
'0:09.733',-0.080,0.090
'0:09.736',-0.090,0.085
'0:09.739',-0.110,0.090
'0:09.742',-0.130,0.105
'0:09.744',-0.135,0.115
'0:09.747',-0.170,0.115
'0:09.750',-0.185,0.105
'0:09.753',-0.225,0.100
'0:09.756',-0.265,0.100
'0:09.758',-0.290,0.115
'0:09.761',-0.305,0.120
'0:09.764',-0.325,0.120
'0:09.767',-0.340,0.120
'0:09.769',-0.365,0.125
'0:09.772',-0.360,0.150
'0:09.775',-0.355,0.165
'0:09.778',-0.350,0.170
'0:09.781',-0.355,0.170
'0:09.783',-0.360,0.145
'0:09.786',-0.365,0.110
'0:09.789',-0.375,0.100
'0:09.792',-0.365,0.110
'0:09.794',-0.365,0.105
'0:09.797',-0.350,0.095
'0:09.800',-0.360,0.095
'0:09.803',-0.380,0.070
'0:09.806',-0.370,0.070
'0:09.808',-0.370,0.080
'0:09.811',-0.350,0.080
'0:09.814',-0.355,0.080
'0:09.817',-0.375,0.090
'0:09.819',-0.380,0.090
'0:09.822',-0.395,0.085
'0:09.825',-0.380,0.085
'0:09.828',-0.365,0.095
'0:09.831',-0.355,0.095
'0:09.833',-0.335,0.095
'0:09.836',-0.355,0.095
'0:09.839',-0.365,0.080
'0:09.842',-0.365,0.080
'0:09.844',-0.370,0.105
'0:09.847',-0.355,0.090
'0:09.850',-0.360,0.080
'0:09.853',-0.360,0.090
'0:09.856',-0.370,0.090
'0:09.858',-0.360,0.095
'0:09.861',-0.365,0.105
'0:09.864',-0.350,0.085
'0:09.867',-0.350,0.095
'0:09.869',-0.345,0.075
'0:09.872',-0.370,0.085
'0:09.875',-0.365,0.095
'0:09.878',-0.355,0.090
'0:09.881',-0.350,0.110
'0:09.883',-0.345,0.090
'0:09.886',-0.340,0.085
'0:09.889',-0.330,0.090
'0:09.892',-0.325,0.115
'0:09.894',-0.320,0.140
'0:09.897',-0.335,0.145
'0:09.900',-0.360,0.170
'0:09.903',-0.380,0.165
'0:09.906',-0.390,0.175
'0:09.908',-0.365,0.200
'0:09.911',-0.320,0.205
'0:09.914',-0.205,0.175
'0:09.917',-0.080,0.125
'0:09.919',0.025,0.075
'0:09.922',0.085,0.005
'0:09.925',0.145,-0.050
'0:09.928',0.170,-0.105
'0:09.931',0.195,-0.175
'0:09.933',0.240,-0.260
'0:09.936',0.295,-0.380
'0:09.939',0.355,-0.525
'0:09.942',0.430,-0.665
'0:09.944',0.510,-0.785
'0:09.947',0.585,-0.900
'0:09.950',0.595,-0.965
'0:09.953',0.590,-0.980
'0:09.956',0.550,-0.980
'0:09.958',0.545,-0.955
'0:09.961',0.540,-0.915
'0:09.964',0.530,-0.900
'0:09.967',0.505,-0.850
'0:09.969',0.435,-0.795
'0:09.972',0.360,-0.740
'0:09.975',0.300,-0.680
'0:09.978',0.235,-0.615
'0:09.981',0.175,-0.560
'0:09.983',0.110,-0.510
'0:09.986',0.000,-0.470
'0:09.989',-0.125,-0.425
'0:09.992',-0.245,-0.375
'0:09.994',-0.355,-0.320
'0:09.997',-0.465,-0.290
