'Elapsed time','MLII','V1'
'hh:mm:ss.mmm','mV','mV'
'0:00.000',-0.580,-0.335
'0:00.003',-0.580,-0.335
'0:00.006',-0.580,-0.335
'0:00.008',-0.580,-0.335
'0:00.011',-0.580,-0.335
'0:00.014',-0.580,-0.335
'0:00.017',-0.580,-0.335
'0:00.019',-0.580,-0.335
'0:00.022',-0.585,-0.330
'0:00.025',-0.590,-0.320
'0:00.028',-0.580,-0.320
'0:00.031',-0.580,-0.315
'0:00.033',-0.575,-0.300
'0:00.036',-0.555,-0.315
'0:00.039',-0.570,-0.310
'0:00.042',-0.575,-0.320
'0:00.044',-0.585,-0.330
'0:00.047',-0.585,-0.330
'0:00.050',-0.595,-0.340
'0:00.053',-0.595,-0.340
'0:00.056',-0.610,-0.335
'0:00.058',-0.605,-0.320
'0:00.061',-0.590,-0.330
'0:00.064',-0.585,-0.320
'0:00.067',-0.580,-0.305
'0:00.069',-0.580,-0.310
'0:00.072',-0.585,-0.320
'0:00.075',-0.590,-0.330
'0:00.078',-0.595,-0.335
'0:00.081',-0.605,-0.345
'0:00.083',-0.600,-0.350
'0:00.086',-0.600,-0.345
'0:00.089',-0.605,-0.335
'0:00.092',-0.605,-0.325
'0:00.094',-0.590,-0.330
'0:00.097',-0.585,-0.320
'0:00.100',-0.590,-0.310
'0:00.103',-0.575,-0.330
'0:00.106',-0.580,-0.325
'0:00.108',-0.585,-0.320
'0:00.111',-0.585,-0.330
'0:00.114',-0.575,-0.340
'0:00.117',-0.595,-0.340
'0:00.119',-0.600,-0.335
'0:00.122',-0.605,-0.345
'0:00.125',-0.595,-0.330
'0:00.128',-0.590,-0.315
'0:00.131',-0.600,-0.320
'0:00.133',-0.590,-0.315
'0:00.136',-0.585,-0.320
'0:00.139',-0.580,-0.320
'0:00.142',-0.580,-0.330
'0:00.144',-0.585,-0.345
'0:00.147',-0.600,-0.340
'0:00.150',-0.605,-0.345
'0:00.153',-0.605,-0.340
'0:00.156',-0.620,-0.345
'0:00.158',-0.610,-0.335
'0:00.161',-0.610,-0.325
'0:00.164',-0.600,-0.315
'0:00.167',-0.600,-0.310
'0:00.169',-0.585,-0.310
'0:00.172',-0.595,-0.330
'0:00.175',-0.590,-0.330
'0:00.178',-0.610,-0.330
'0:00.181',-0.610,-0.345
'0:00.183',-0.610,-0.350
'0:00.186',-0.605,-0.345
'0:00.189',-0.605,-0.340
'0:00.192',-0.595,-0.335
'0:00.194',-0.595,-0.320
'0:00.197',-0.590,-0.310
'0:00.200',-0.565,-0.300
'0:00.203',-0.585,-0.315
'0:00.206',-0.570,-0.315
'0:00.208',-0.575,-0.315
'0:00.211',-0.580,-0.315
'0:00.214',-0.585,-0.310
'0:00.217',-0.590,-0.325
'0:00.219',-0.595,-0.310
'0:00.222',-0.590,-0.295
'0:00.225',-0.575,-0.275
'0:00.228',-0.560,-0.275
'0:00.231',-0.550,-0.250
'0:00.233',-0.535,-0.240
'0:00.236',-0.525,-0.255
'0:00.239',-0.515,-0.260
'0:00.242',-0.510,-0.265
'0:00.244',-0.490,-0.290
'0:00.247',-0.495,-0.310
'0:00.250',-0.490,-0.320
'0:00.253',-0.495,-0.325
'0:00.256',-0.480,-0.340
'0:00.258',-0.465,-0.340
'0:00.261',-0.455,-0.335
'0:00.264',-0.445,-0.315
'0:00.267',-0.430,-0.300
'0:00.269',-0.435,-0.320
'0:00.272',-0.440,-0.305
'0:00.275',-0.445,-0.330
'0:00.278',-0.475,-0.315
'0:00.281',-0.480,-0.330
'0:00.283',-0.485,-0.340
'0:00.286',-0.490,-0.325
'0:00.289',-0.495,-0.330
'0:00.292',-0.485,-0.320
'0:00.294',-0.480,-0.310
'0:00.297',-0.480,-0.320
'0:00.300',-0.470,-0.315
'0:00.303',-0.470,-0.325
'0:00.306',-0.485,-0.335
'0:00.308',-0.500,-0.345
'0:00.311',-0.535,-0.350
'0:00.314',-0.545,-0.365
'0:00.317',-0.565,-0.370
'0:00.319',-0.575,-0.365
'0:00.322',-0.585,-0.360
'0:00.325',-0.585,-0.345
'0:00.328',-0.580,-0.345
'0:00.331',-0.565,-0.340
'0:00.333',-0.570,-0.335
'0:00.336',-0.565,-0.345
'0:00.339',-0.560,-0.345
'0:00.342',-0.575,-0.355
'0:00.344',-0.580,-0.355
'0:00.347',-0.585,-0.355
'0:00.350',-0.605,-0.360
'0:00.353',-0.610,-0.365
'0:00.356',-0.600,-0.365
'0:00.358',-0.590,-0.340
'0:00.361',-0.600,-0.345
'0:00.364',-0.595,-0.345
'0:00.367',-0.575,-0.335
'0:00.369',-0.555,-0.345
'0:00.372',-0.565,-0.350
'0:00.375',-0.575,-0.350
'0:00.378',-0.575,-0.350
'0:00.381',-0.590,-0.345
'0:00.383',-0.590,-0.365
'0:00.386',-0.590,-0.350
'0:00.389',-0.575,-0.350
'0:00.392',-0.585,-0.345
'0:00.394',-0.575,-0.345
'0:00.397',-0.565,-0.335
'0:00.400',-0.540,-0.315
'0:00.403',-0.530,-0.310
'0:00.406',-0.525,-0.300
'0:00.408',-0.525,-0.300
'0:00.411',-0.520,-0.295
'0:00.414',-0.515,-0.315
'0:00.417',-0.515,-0.350
'0:00.419',-0.510,-0.390
'0:00.422',-0.495,-0.440
'0:00.425',-0.450,-0.505
'0:00.428',-0.375,-0.585
'0:00.431',-0.260,-0.660
'0:00.433',-0.100,-0.740
'0:00.436',0.125,-0.795
'0:00.439',0.425,-0.835
'0:00.442',0.775,-0.815
'0:00.444',1.155,-0.775
'0:00.447',1.470,-0.700
'0:00.450',1.665,-0.605
'0:00.453',1.670,-0.525
'0:00.456',1.455,-0.450
'0:00.458',0.995,-0.395
'0:00.461',0.360,-0.375
'0:00.464',-0.280,-0.385
'0:00.467',-0.905,-0.395
'0:00.469',-1.260,-0.425
'0:00.472',-1.360,-0.430
'0:00.475',-1.255,-0.430
'0:00.478',-1.035,-0.390
'0:00.481',-0.800,-0.360
'0:00.483',-0.605,-0.325
'0:00.486',-0.490,-0.295
'0:00.489',-0.430,-0.275
'0:00.492',-0.415,-0.280
'0:00.494',-0.430,-0.265
'0:00.497',-0.470,-0.275
'0:00.500',-0.490,-0.265
'0:00.503',-0.505,-0.275
'0:00.506',-0.520,-0.285
'0:00.508',-0.510,-0.280
'0:00.511',-0.515,-0.285
'0:00.514',-0.500,-0.295
'0:00.517',-0.500,-0.300
'0:00.519',-0.500,-0.295
'0:00.522',-0.500,-0.290
'0:00.525',-0.490,-0.285
'0:00.528',-0.490,-0.285
'0:00.531',-0.490,-0.270
'0:00.533',-0.485,-0.255
'0:00.536',-0.480,-0.270
'0:00.539',-0.475,-0.265
'0:00.542',-0.485,-0.285
'0:00.544',-0.475,-0.285
'0:00.547',-0.480,-0.295
'0:00.550',-0.495,-0.300
'0:00.553',-0.490,-0.295
'0:00.556',-0.510,-0.310
'0:00.558',-0.505,-0.285
'0:00.561',-0.480,-0.270
'0:00.564',-0.470,-0.280
'0:00.567',-0.480,-0.270
'0:00.569',-0.465,-0.275
'0:00.572',-0.470,-0.285
'0:00.575',-0.465,-0.290
'0:00.578',-0.470,-0.285
'0:00.581',-0.485,-0.300
'0:00.583',-0.495,-0.305
'0:00.586',-0.490,-0.305
'0:00.589',-0.475,-0.300
'0:00.592',-0.475,-0.295
'0:00.594',-0.475,-0.285
'0:00.597',-0.470,-0.280
'0:00.600',-0.470,-0.285
'0:00.603',-0.460,-0.285
'0:00.606',-0.465,-0.280
'0:00.608',-0.465,-0.290
'0:00.611',-0.470,-0.295
'0:00.614',-0.485,-0.305
'0:00.617',-0.490,-0.310
'0:00.619',-0.485,-0.310
'0:00.622',-0.485,-0.310
'0:00.625',-0.495,-0.305
'0:00.628',-0.490,-0.300
'0:00.631',-0.490,-0.295
'0:00.633',-0.470,-0.285
'0:00.636',-0.465,-0.290
'0:00.639',-0.465,-0.275
'0:00.642',-0.455,-0.305
'0:00.644',-0.475,-0.315
'0:00.647',-0.465,-0.310
'0:00.650',-0.480,-0.320
'0:00.653',-0.485,-0.320
'0:00.656',-0.480,-0.310
'0:00.658',-0.470,-0.310
'0:00.661',-0.465,-0.300
'0:00.664',-0.470,-0.295
'0:00.667',-0.465,-0.285
'0:00.669',-0.445,-0.290
'0:00.672',-0.440,-0.300
'0:00.675',-0.440,-0.305
'0:00.678',-0.440,-0.310
'0:00.681',-0.445,-0.320
'0:00.683',-0.440,-0.315
'0:00.686',-0.460,-0.325
'0:00.689',-0.455,-0.320
'0:00.692',-0.455,-0.325
'0:00.694',-0.440,-0.305
'0:00.697',-0.430,-0.300
'0:00.700',-0.435,-0.305
'0:00.703',-0.425,-0.310
'0:00.706',-0.415,-0.305
'0:00.708',-0.415,-0.310
'0:00.711',-0.420,-0.330
'0:00.714',-0.420,-0.330
'0:00.717',-0.430,-0.325
'0:00.719',-0.425,-0.335
'0:00.722',-0.415,-0.320
'0:00.725',-0.430,-0.310
'0:00.728',-0.410,-0.305
'0:00.731',-0.410,-0.295
'0:00.733',-0.400,-0.290
'0:00.736',-0.385,-0.295
'0:00.739',-0.370,-0.295
'0:00.742',-0.375,-0.310
'0:00.744',-0.380,-0.330
'0:00.747',-0.390,-0.330
'0:00.750',-0.395,-0.340
'0:00.753',-0.395,-0.330
'0:00.756',-0.390,-0.335
'0:00.758',-0.395,-0.325
'0:00.761',-0.385,-0.315
'0:00.764',-0.370,-0.315
'0:00.767',-0.360,-0.310
'0:00.769',-0.365,-0.315
'0:00.772',-0.365,-0.315
'0:00.775',-0.365,-0.325
'0:00.778',-0.375,-0.320
'0:00.781',-0.380,-0.335
'0:00.783',-0.385,-0.340
'0:00.786',-0.385,-0.335
'0:00.789',-0.385,-0.335
'0:00.792',-0.380,-0.335
'0:00.794',-0.375,-0.325
'0:00.797',-0.375,-0.310
'0:00.800',-0.365,-0.305
'0:00.803',-0.345,-0.315
'0:00.806',-0.355,-0.325
'0:00.808',-0.360,-0.320
'0:00.811',-0.365,-0.335
'0:00.814',-0.355,-0.345
'0:00.817',-0.365,-0.340
'0:00.819',-0.370,-0.335
'0:00.822',-0.365,-0.340
'0:00.825',-0.380,-0.325
'0:00.828',-0.365,-0.320
'0:00.831',-0.380,-0.305
'0:00.833',-0.380,-0.305
'0:00.836',-0.365,-0.315
'0:00.839',-0.390,-0.295
'0:00.842',-0.395,-0.315
'0:00.844',-0.395,-0.305
'0:00.847',-0.425,-0.315
'0:00.850',-0.445,-0.320
'0:00.853',-0.465,-0.320
'0:00.856',-0.475,-0.320
'0:00.858',-0.490,-0.305
'0:00.861',-0.495,-0.300
'0:00.864',-0.495,-0.290
'0:00.867',-0.505,-0.290
'0:00.869',-0.500,-0.285
'0:00.872',-0.530,-0.295
'0:00.875',-0.535,-0.295
'0:00.878',-0.545,-0.310
'0:00.881',-0.550,-0.310
'0:00.883',-0.565,-0.320
'0:00.886',-0.570,-0.310
'0:00.889',-0.570,-0.295
'0:00.892',-0.580,-0.300
'0:00.894',-0.565,-0.285
'0:00.897',-0.575,-0.280
'0:00.900',-0.560,-0.270
'0:00.903',-0.555,-0.275
'0:00.906',-0.560,-0.280
'0:00.908',-0.585,-0.280
'0:00.911',-0.575,-0.290
'0:00.914',-0.585,-0.295
'0:00.917',-0.585,-0.300
'0:00.919',-0.595,-0.295
'0:00.922',-0.590,-0.295
'0:00.925',-0.590,-0.285
'0:00.928',-0.580,-0.280
'0:00.931',-0.580,-0.280
'0:00.933',-0.565,-0.275
'0:00.936',-0.555,-0.265
'0:00.939',-0.550,-0.265
'0:00.942',-0.555,-0.275
'0:00.944',-0.565,-0.290
'0:00.947',-0.580,-0.290
'0:00.950',-0.580,-0.300
'0:00.953',-0.585,-0.290
'0:00.956',-0.575,-0.285
'0:00.958',-0.570,-0.275
'0:00.961',-0.565,-0.275
'0:00.964',-0.550,-0.270
'0:00.967',-0.545,-0.265
'0:00.969',-0.540,-0.260
'0:00.972',-0.540,-0.270
'0:00.975',-0.540,-0.280
'0:00.978',-0.550,-0.295
'0:00.981',-0.550,-0.295
'0:00.983',-0.565,-0.300
'0:00.986',-0.565,-0.290
'0:00.989',-0.550,-0.280
'0:00.992',-0.550,-0.280
'0:00.994',-0.545,-0.270
'0:00.997',-0.530,-0.270
'0:01.000',-0.525,-0.245
'0:01.003',-0.525,-0.260
'0:01.006',-0.525,-0.270
'0:01.008',-0.525,-0.280
'0:01.011',-0.525,-0.290
'0:01.014',-0.540,-0.295
'0:01.017',-0.560,-0.295
'0:01.019',-0.555,-0.290
'0:01.022',-0.555,-0.300
'0:01.025',-0.550,-0.295
'0:01.028',-0.555,-0.290
'0:01.031',-0.550,-0.285
'0:01.033',-0.550,-0.255
'0:01.036',-0.540,-0.275
'0:01.039',-0.540,-0.285
'0:01.042',-0.545,-0.290
'0:01.044',-0.565,-0.295
'0:01.047',-0.565,-0.300
'0:01.050',-0.570,-0.315
'0:01.053',-0.575,-0.315
'0:01.056',-0.580,-0.305
'0:01.058',-0.575,-0.295
'0:01.061',-0.580,-0.290
'0:01.064',-0.570,-0.290
'0:01.067',-0.565,-0.270
'0:01.069',-0.555,-0.285
'0:01.072',-0.565,-0.290
'0:01.075',-0.570,-0.285
'0:01.078',-0.570,-0.295
'0:01.081',-0.580,-0.310
'0:01.083',-0.575,-0.305
'0:01.086',-0.600,-0.310
'0:01.089',-0.590,-0.305
'0:01.092',-0.585,-0.290
'0:01.094',-0.595,-0.290
'0:01.097',-0.595,-0.275
'0:01.100',-0.580,-0.275
'0:01.103',-0.575,-0.280
'0:01.106',-0.580,-0.290
'0:01.108',-0.590,-0.295
'0:01.111',-0.590,-0.300
'0:01.114',-0.610,-0.310
'0:01.117',-0.610,-0.305
'0:01.119',-0.610,-0.310
'0:01.122',-0.615,-0.310
'0:01.125',-0.610,-0.305
'0:01.128',-0.615,-0.285
'0:01.131',-0.610,-0.290
'0:01.133',-0.595,-0.270
'0:01.136',-0.595,-0.280
'0:01.139',-0.590,-0.280
'0:01.142',-0.585,-0.300
'0:01.144',-0.590,-0.290
'0:01.147',-0.600,-0.300
'0:01.150',-0.605,-0.305
'0:01.153',-0.610,-0.300
'0:01.156',-0.625,-0.300
'0:01.158',-0.615,-0.305
'0:01.161',-0.610,-0.290
'0:01.164',-0.595,-0.280
'0:01.167',-0.590,-0.275
'0:01.169',-0.590,-0.285
'0:01.172',-0.590,-0.285
'0:01.175',-0.585,-0.285
'0:01.178',-0.595,-0.295
'0:01.181',-0.605,-0.305
'0:01.183',-0.610,-0.305
'0:01.186',-0.615,-0.305
'0:01.189',-0.610,-0.310
'0:01.192',-0.615,-0.290
'0:01.194',-0.605,-0.290
'0:01.197',-0.605,-0.285
'0:01.200',-0.595,-0.270
'0:01.203',-0.590,-0.270
'0:01.206',-0.595,-0.280
'0:01.208',-0.595,-0.280
'0:01.211',-0.605,-0.280
'0:01.214',-0.600,-0.275
'0:01.217',-0.605,-0.275
'0:01.219',-0.590,-0.265
'0:01.222',-0.605,-0.260
'0:01.225',-0.590,-0.240
'0:01.228',-0.575,-0.225
'0:01.231',-0.565,-0.225
'0:01.233',-0.550,-0.200
'0:01.236',-0.530,-0.205
'0:01.239',-0.520,-0.220
'0:01.242',-0.515,-0.240
'0:01.244',-0.515,-0.240
'0:01.247',-0.515,-0.270
'0:01.250',-0.500,-0.280
'0:01.253',-0.495,-0.305
'0:01.256',-0.490,-0.305
'0:01.258',-0.490,-0.295
'0:01.261',-0.475,-0.280
'0:01.264',-0.470,-0.270
'0:01.267',-0.455,-0.260
'0:01.269',-0.435,-0.270
'0:01.272',-0.460,-0.275
'0:01.275',-0.470,-0.280
'0:01.278',-0.485,-0.270
'0:01.281',-0.485,-0.290
'0:01.283',-0.480,-0.290
'0:01.286',-0.480,-0.290
'0:01.289',-0.490,-0.285
'0:01.292',-0.480,-0.290
'0:01.294',-0.480,-0.280
'0:01.297',-0.490,-0.285
'0:01.300',-0.480,-0.270
'0:01.303',-0.500,-0.280
'0:01.306',-0.525,-0.295
'0:01.308',-0.545,-0.300
'0:01.311',-0.560,-0.300
'0:01.314',-0.585,-0.305
'0:01.317',-0.600,-0.310
'0:01.319',-0.610,-0.310
'0:01.322',-0.615,-0.305
'0:01.325',-0.620,-0.300
'0:01.328',-0.605,-0.290
'0:01.331',-0.600,-0.300
'0:01.333',-0.595,-0.275
'0:01.336',-0.595,-0.285
'0:01.339',-0.605,-0.295
'0:01.342',-0.605,-0.300
'0:01.344',-0.610,-0.295
'0:01.347',-0.615,-0.300
'0:01.350',-0.630,-0.305
'0:01.353',-0.630,-0.315
'0:01.356',-0.625,-0.310
'0:01.358',-0.625,-0.305
'0:01.361',-0.620,-0.305
'0:01.364',-0.615,-0.285
'0:01.367',-0.605,-0.275
'0:01.369',-0.615,-0.275
'0:01.372',-0.615,-0.295
'0:01.375',-0.610,-0.290
'0:01.378',-0.595,-0.295
'0:01.381',-0.605,-0.300
'0:01.383',-0.605,-0.305
'0:01.386',-0.605,-0.305
'0:01.389',-0.595,-0.280
'0:01.392',-0.600,-0.270
'0:01.394',-0.585,-0.250
'0:01.397',-0.575,-0.230
'0:01.400',-0.550,-0.230
'0:01.403',-0.545,-0.240
'0:01.406',-0.540,-0.265
'0:01.408',-0.520,-0.310
'0:01.411',-0.525,-0.360
'0:01.414',-0.505,-0.435
'0:01.417',-0.465,-0.515
'0:01.419',-0.400,-0.595
'0:01.422',-0.270,-0.660
'0:01.425',-0.085,-0.705
'0:01.428',0.155,-0.730
'0:01.431',0.460,-0.705
'0:01.433',0.825,-0.650
'0:01.436',1.200,-0.580
'0:01.439',1.485,-0.490
'0:01.442',1.610,-0.400
'0:01.444',1.490,-0.330
'0:01.447',1.095,-0.285
'0:01.450',0.455,-0.285
'0:01.453',-0.185,-0.295
'0:01.456',-0.825,-0.315
'0:01.458',-1.280,-0.335
'0:01.461',-1.370,-0.350
'0:01.464',-1.230,-0.330
'0:01.467',-0.995,-0.305
'0:01.469',-0.745,-0.265
'0:01.472',-0.535,-0.240
'0:01.475',-0.425,-0.210
'0:01.478',-0.400,-0.230
'0:01.481',-0.425,-0.225
'0:01.483',-0.470,-0.245
'0:01.486',-0.515,-0.250
'0:01.489',-0.545,-0.245
'0:01.492',-0.555,-0.255
'0:01.494',-0.575,-0.240
'0:01.497',-0.565,-0.240
'0:01.500',-0.530,-0.230
'0:01.503',-0.520,-0.225
'0:01.506',-0.515,-0.235
'0:01.508',-0.515,-0.235
'0:01.511',-0.530,-0.245
'0:01.514',-0.535,-0.255
'0:01.517',-0.530,-0.265
'0:01.519',-0.530,-0.260
'0:01.522',-0.530,-0.255
'0:01.525',-0.520,-0.245
'0:01.528',-0.525,-0.245
'0:01.531',-0.525,-0.245
'0:01.533',-0.505,-0.220
'0:01.536',-0.500,-0.225
'0:01.539',-0.505,-0.225
'0:01.542',-0.505,-0.240
'0:01.544',-0.510,-0.255
'0:01.547',-0.520,-0.255
'0:01.550',-0.515,-0.265
'0:01.553',-0.525,-0.270
'0:01.556',-0.525,-0.260
'0:01.558',-0.520,-0.250
'0:01.561',-0.505,-0.250
'0:01.564',-0.495,-0.235
'0:01.567',-0.495,-0.235
'0:01.569',-0.485,-0.245
'0:01.572',-0.485,-0.250
'0:01.575',-0.490,-0.255
'0:01.578',-0.495,-0.255
'0:01.581',-0.505,-0.265
'0:01.583',-0.510,-0.270
'0:01.586',-0.515,-0.265
'0:01.589',-0.510,-0.260
'0:01.592',-0.520,-0.260
'0:01.594',-0.500,-0.245
'0:01.597',-0.505,-0.250
'0:01.600',-0.485,-0.240
'0:01.603',-0.485,-0.245
'0:01.606',-0.475,-0.255
'0:01.608',-0.485,-0.245
'0:01.611',-0.485,-0.250
'0:01.614',-0.490,-0.265
'0:01.617',-0.510,-0.270
'0:01.619',-0.510,-0.265
'0:01.622',-0.510,-0.270
'0:01.625',-0.510,-0.260
'0:01.628',-0.505,-0.260
'0:01.631',-0.495,-0.245
'0:01.633',-0.475,-0.255
'0:01.636',-0.470,-0.250
'0:01.639',-0.465,-0.250
'0:01.642',-0.465,-0.260
'0:01.644',-0.475,-0.270
'0:01.647',-0.475,-0.275
'0:01.650',-0.490,-0.275
'0:01.653',-0.505,-0.280
'0:01.656',-0.495,-0.270
'0:01.658',-0.490,-0.270
'0:01.661',-0.490,-0.260
'0:01.664',-0.495,-0.260
'0:01.667',-0.475,-0.255
'0:01.669',-0.450,-0.250
'0:01.672',-0.480,-0.265
'0:01.675',-0.465,-0.270
'0:01.678',-0.465,-0.270
'0:01.681',-0.470,-0.275
'0:01.683',-0.485,-0.285
'0:01.686',-0.480,-0.295
'0:01.689',-0.480,-0.290
'0:01.692',-0.490,-0.285
'0:01.694',-0.465,-0.275
'0:01.697',-0.475,-0.270
'0:01.700',-0.460,-0.260
'0:01.703',-0.445,-0.260
'0:01.706',-0.445,-0.275
'0:01.708',-0.435,-0.275
'0:01.711',-0.440,-0.280
'0:01.714',-0.445,-0.295
'0:01.717',-0.430,-0.285
'0:01.719',-0.435,-0.295
'0:01.722',-0.435,-0.290
'0:01.725',-0.435,-0.290
'0:01.728',-0.430,-0.280
'0:01.731',-0.415,-0.275
'0:01.733',-0.415,-0.270
'0:01.736',-0.410,-0.270
'0:01.739',-0.410,-0.290
'0:01.742',-0.405,-0.280
'0:01.744',-0.415,-0.300
'0:01.747',-0.415,-0.305
'0:01.750',-0.405,-0.310
'0:01.753',-0.415,-0.310
'0:01.756',-0.415,-0.310
'0:01.758',-0.425,-0.305
'0:01.761',-0.420,-0.295
'0:01.764',-0.415,-0.290
'0:01.767',-0.400,-0.280
'0:01.769',-0.390,-0.285
'0:01.772',-0.385,-0.295
'0:01.775',-0.385,-0.290
'0:01.778',-0.390,-0.300
'0:01.781',-0.400,-0.290
'0:01.783',-0.415,-0.315
'0:01.786',-0.415,-0.310
'0:01.789',-0.425,-0.305
'0:01.792',-0.410,-0.290
'0:01.794',-0.415,-0.290
'0:01.797',-0.410,-0.285
'0:01.800',-0.400,-0.280
'0:01.803',-0.390,-0.270
'0:01.806',-0.380,-0.285
'0:01.808',-0.400,-0.280
'0:01.811',-0.390,-0.295
'0:01.814',-0.400,-0.285
'0:01.817',-0.410,-0.300
'0:01.819',-0.425,-0.280
'0:01.822',-0.440,-0.275
'0:01.825',-0.440,-0.275
'0:01.828',-0.445,-0.260
'0:01.831',-0.450,-0.265
'0:01.833',-0.455,-0.255
'0:01.836',-0.460,-0.245
'0:01.839',-0.475,-0.245
'0:01.842',-0.495,-0.250
'0:01.844',-0.505,-0.245
'0:01.847',-0.515,-0.265
'0:01.850',-0.530,-0.265
'0:01.853',-0.555,-0.265
'0:01.856',-0.565,-0.255
'0:01.858',-0.570,-0.250
'0:01.861',-0.580,-0.235
'0:01.864',-0.590,-0.245
'0:01.867',-0.605,-0.240
'0:01.869',-0.595,-0.225
'0:01.872',-0.590,-0.240
'0:01.875',-0.600,-0.245
'0:01.878',-0.605,-0.245
'0:01.881',-0.610,-0.255
'0:01.883',-0.620,-0.260
'0:01.886',-0.630,-0.260
'0:01.889',-0.635,-0.255
'0:01.892',-0.645,-0.245
'0:01.894',-0.640,-0.240
'0:01.897',-0.640,-0.240
'0:01.900',-0.630,-0.225
'0:01.903',-0.625,-0.225
'0:01.906',-0.615,-0.240
'0:01.908',-0.610,-0.245
'0:01.911',-0.620,-0.255
'0:01.914',-0.615,-0.250
'0:01.917',-0.625,-0.260
'0:01.919',-0.635,-0.260
'0:01.922',-0.630,-0.255
'0:01.925',-0.630,-0.245
'0:01.928',-0.625,-0.250
'0:01.931',-0.605,-0.240
'0:01.933',-0.600,-0.245
'0:01.936',-0.580,-0.235
'0:01.939',-0.585,-0.255
'0:01.942',-0.585,-0.250
'0:01.944',-0.580,-0.255
'0:01.947',-0.590,-0.270
'0:01.950',-0.605,-0.270
'0:01.953',-0.605,-0.270
'0:01.956',-0.605,-0.270
'0:01.958',-0.605,-0.250
'0:01.961',-0.600,-0.255
'0:01.964',-0.600,-0.240
'0:01.967',-0.575,-0.240
'0:01.969',-0.575,-0.240
'0:01.972',-0.580,-0.250
'0:01.975',-0.580,-0.260
'0:01.978',-0.585,-0.265
'0:01.981',-0.580,-0.265
'0:01.983',-0.595,-0.270
'0:01.986',-0.600,-0.280
'0:01.989',-0.605,-0.280
'0:01.992',-0.600,-0.260
'0:01.994',-0.600,-0.265
'0:01.997',-0.600,-0.260
'0:02.000',-0.595,-0.260
'0:02.003',-0.595,-0.250
'0:02.006',-0.605,-0.255
'0:02.008',-0.595,-0.260
'0:02.011',-0.600,-0.265
'0:02.014',-0.620,-0.275
'0:02.017',-0.625,-0.275
'0:02.019',-0.610,-0.285
'0:02.022',-0.615,-0.275
'0:02.025',-0.620,-0.275
'0:02.028',-0.615,-0.260
'0:02.031',-0.615,-0.260
'0:02.033',-0.620,-0.260
'0:02.036',-0.600,-0.260
'0:02.039',-0.600,-0.250
'0:02.042',-0.605,-0.255
'0:02.044',-0.610,-0.270
'0:02.047',-0.625,-0.270
'0:02.050',-0.645,-0.280
'0:02.053',-0.660,-0.285
'0:02.056',-0.645,-0.285
'0:02.058',-0.640,-0.275
'0:02.061',-0.640,-0.275
'0:02.064',-0.640,-0.260
'0:02.067',-0.630,-0.255
'0:02.069',-0.625,-0.255
'0:02.072',-0.625,-0.260
'0:02.075',-0.630,-0.260
'0:02.078',-0.640,-0.265
'0:02.081',-0.645,-0.285
'0:02.083',-0.660,-0.285
'0:02.086',-0.655,-0.280
'0:02.089',-0.650,-0.280
'0:02.092',-0.650,-0.280
'0:02.094',-0.650,-0.275
'0:02.097',-0.645,-0.255
'0:02.100',-0.635,-0.265
'0:02.103',-0.645,-0.260
'0:02.106',-0.645,-0.275
'0:02.108',-0.645,-0.280
'0:02.111',-0.645,-0.275
'0:02.114',-0.645,-0.285
'0:02.117',-0.660,-0.280
'0:02.119',-0.660,-0.265
'0:02.122',-0.660,-0.250
'0:02.125',-0.655,-0.250
'0:02.128',-0.660,-0.235
'0:02.131',-0.650,-0.225
'0:02.133',-0.635,-0.210
'0:02.136',-0.615,-0.200
'0:02.139',-0.615,-0.200
'0:02.142',-0.610,-0.215
'0:02.144',-0.600,-0.225
'0:02.147',-0.605,-0.240
'0:02.150',-0.590,-0.255
'0:02.153',-0.595,-0.260
'0:02.156',-0.580,-0.275
'0:02.158',-0.560,-0.285
'0:02.161',-0.540,-0.275
'0:02.164',-0.525,-0.265
'0:02.167',-0.500,-0.270
'0:02.169',-0.480,-0.245
'0:02.172',-0.480,-0.250
'0:02.175',-0.500,-0.255
'0:02.178',-0.500,-0.250
'0:02.181',-0.515,-0.270
'0:02.183',-0.520,-0.280
'0:02.186',-0.530,-0.275
'0:02.189',-0.525,-0.270
'0:02.192',-0.520,-0.265
'0:02.194',-0.520,-0.260
'0:02.197',-0.510,-0.250
'0:02.200',-0.520,-0.260
'0:02.203',-0.510,-0.260
'0:02.206',-0.520,-0.275
'0:02.208',-0.535,-0.280
'0:02.211',-0.540,-0.300
'0:02.214',-0.565,-0.310
'0:02.217',-0.600,-0.310
'0:02.219',-0.610,-0.310
'0:02.222',-0.640,-0.310
'0:02.225',-0.635,-0.305
'0:02.228',-0.650,-0.290
'0:02.231',-0.645,-0.300
'0:02.233',-0.635,-0.290
'0:02.236',-0.635,-0.295
'0:02.239',-0.635,-0.295
'0:02.242',-0.645,-0.305
'0:02.244',-0.640,-0.305
'0:02.247',-0.670,-0.320
'0:02.250',-0.665,-0.325
'0:02.253',-0.670,-0.325
'0:02.256',-0.665,-0.325
'0:02.258',-0.675,-0.310
'0:02.261',-0.665,-0.305
'0:02.264',-0.665,-0.295
'0:02.267',-0.655,-0.295
'0:02.269',-0.645,-0.280
'0:02.272',-0.645,-0.290
'0:02.275',-0.650,-0.300
'0:02.278',-0.660,-0.305
'0:02.281',-0.660,-0.310
'0:02.283',-0.670,-0.320
'0:02.286',-0.670,-0.315
'0:02.289',-0.680,-0.320
'0:02.292',-0.680,-0.310
'0:02.294',-0.665,-0.295
'0:02.297',-0.660,-0.300
'0:02.300',-0.645,-0.290
'0:02.303',-0.635,-0.295
'0:02.306',-0.625,-0.295
'0:02.308',-0.630,-0.295
'0:02.311',-0.630,-0.305
'0:02.314',-0.630,-0.295
'0:02.317',-0.630,-0.290
'0:02.319',-0.620,-0.280
'0:02.322',-0.600,-0.270
'0:02.325',-0.600,-0.280
'0:02.328',-0.600,-0.305
'0:02.331',-0.580,-0.335
'0:02.333',-0.545,-0.390
'0:02.336',-0.500,-0.465
'0:02.339',-0.435,-0.550
'0:02.342',-0.300,-0.645
'0:02.344',-0.145,-0.715
'0:02.347',0.085,-0.760
'0:02.350',0.375,-0.775
'0:02.353',0.715,-0.755
'0:02.356',1.070,-0.685
'0:02.358',1.405,-0.610
'0:02.361',1.635,-0.515
'0:02.364',1.710,-0.440
'0:02.367',1.590,-0.370
'0:02.369',1.255,-0.315
'0:02.372',0.745,-0.295
'0:02.375',0.115,-0.315
'0:02.378',-0.510,-0.325
'0:02.381',-1.025,-0.355
'0:02.383',-1.320,-0.385
'0:02.386',-1.370,-0.385
'0:02.389',-1.225,-0.385
'0:02.392',-0.990,-0.350
'0:02.394',-0.770,-0.315
'0:02.397',-0.600,-0.275
'0:02.400',-0.500,-0.230
'0:02.403',-0.460,-0.225
'0:02.406',-0.455,-0.240
'0:02.408',-0.490,-0.255
'0:02.411',-0.520,-0.260
'0:02.414',-0.565,-0.265
'0:02.417',-0.575,-0.265
'0:02.419',-0.580,-0.275
'0:02.422',-0.590,-0.270
'0:02.425',-0.580,-0.265
'0:02.428',-0.560,-0.260
'0:02.431',-0.560,-0.255
'0:02.433',-0.555,-0.260
'0:02.436',-0.535,-0.235
'0:02.439',-0.535,-0.255
'0:02.442',-0.535,-0.260
'0:02.444',-0.545,-0.255
'0:02.447',-0.550,-0.275
'0:02.450',-0.565,-0.285
'0:02.453',-0.550,-0.275
'0:02.456',-0.565,-0.275
'0:02.458',-0.565,-0.265
'0:02.461',-0.560,-0.250
'0:02.464',-0.540,-0.255
'0:02.467',-0.540,-0.250
'0:02.469',-0.520,-0.250
'0:02.472',-0.525,-0.255
'0:02.475',-0.540,-0.265
'0:02.478',-0.530,-0.275
'0:02.481',-0.555,-0.285
'0:02.483',-0.550,-0.285
'0:02.486',-0.545,-0.290
'0:02.489',-0.545,-0.285
'0:02.492',-0.550,-0.270
'0:02.494',-0.540,-0.280
'0:02.497',-0.530,-0.275
'0:02.500',-0.530,-0.265
'0:02.503',-0.530,-0.260
'0:02.506',-0.520,-0.265
'0:02.508',-0.520,-0.275
'0:02.511',-0.530,-0.285
'0:02.514',-0.530,-0.280
'0:02.517',-0.530,-0.295
'0:02.519',-0.525,-0.300
'0:02.522',-0.530,-0.290
'0:02.525',-0.540,-0.290
'0:02.528',-0.545,-0.275
'0:02.531',-0.525,-0.280
'0:02.533',-0.510,-0.270
'0:02.536',-0.510,-0.275
'0:02.539',-0.530,-0.285
'0:02.542',-0.515,-0.290
'0:02.544',-0.515,-0.285
'0:02.547',-0.515,-0.285
'0:02.550',-0.515,-0.290
'0:02.553',-0.525,-0.305
'0:02.556',-0.515,-0.305
'0:02.558',-0.525,-0.295
'0:02.561',-0.505,-0.280
'0:02.564',-0.500,-0.290
'0:02.567',-0.495,-0.285
'0:02.569',-0.480,-0.265
'0:02.572',-0.480,-0.265
'0:02.575',-0.490,-0.275
'0:02.578',-0.495,-0.290
'0:02.581',-0.495,-0.290
'0:02.583',-0.495,-0.300
'0:02.586',-0.505,-0.300
'0:02.589',-0.500,-0.295
'0:02.592',-0.510,-0.300
'0:02.594',-0.495,-0.280
'0:02.597',-0.485,-0.275
'0:02.600',-0.480,-0.275
'0:02.603',-0.470,-0.265
'0:02.606',-0.470,-0.270
'0:02.608',-0.465,-0.285
'0:02.611',-0.465,-0.300
'0:02.614',-0.470,-0.300
'0:02.617',-0.475,-0.300
'0:02.619',-0.465,-0.320
'0:02.622',-0.470,-0.310
'0:02.625',-0.460,-0.295
'0:02.628',-0.450,-0.295
'0:02.631',-0.445,-0.280
'0:02.633',-0.445,-0.285
'0:02.636',-0.425,-0.280
'0:02.639',-0.425,-0.280
'0:02.642',-0.425,-0.290
'0:02.644',-0.435,-0.300
'0:02.647',-0.430,-0.305
'0:02.650',-0.445,-0.305
'0:02.653',-0.425,-0.300
'0:02.656',-0.425,-0.305
'0:02.658',-0.415,-0.315
'0:02.661',-0.415,-0.300
'0:02.664',-0.410,-0.305
'0:02.667',-0.395,-0.295
'0:02.669',-0.375,-0.285
'0:02.672',-0.380,-0.295
'0:02.675',-0.375,-0.300
'0:02.678',-0.380,-0.315
'0:02.681',-0.370,-0.320
'0:02.683',-0.385,-0.315
'0:02.686',-0.380,-0.325
'0:02.689',-0.395,-0.315
'0:02.692',-0.390,-0.310
'0:02.694',-0.385,-0.315
'0:02.697',-0.380,-0.300
'0:02.700',-0.380,-0.300
'0:02.703',-0.365,-0.300
'0:02.706',-0.360,-0.305
'0:02.708',-0.360,-0.305
'0:02.711',-0.375,-0.325
'0:02.714',-0.370,-0.320
'0:02.717',-0.380,-0.330
'0:02.719',-0.395,-0.330
'0:02.722',-0.385,-0.330
'0:02.725',-0.390,-0.325
'0:02.728',-0.395,-0.320
'0:02.731',-0.400,-0.300
'0:02.733',-0.410,-0.300
'0:02.736',-0.410,-0.290
'0:02.739',-0.415,-0.305
'0:02.742',-0.455,-0.290
'0:02.744',-0.475,-0.305
'0:02.747',-0.485,-0.300
'0:02.750',-0.500,-0.305
'0:02.753',-0.510,-0.315
'0:02.756',-0.530,-0.305
'0:02.758',-0.550,-0.290
'0:02.761',-0.555,-0.280
'0:02.764',-0.555,-0.285
'0:02.767',-0.580,-0.265
'0:02.769',-0.570,-0.260
'0:02.772',-0.580,-0.270
'0:02.775',-0.600,-0.275
'0:02.778',-0.605,-0.285
'0:02.781',-0.635,-0.295
'0:02.783',-0.645,-0.295
'0:02.786',-0.645,-0.290
'0:02.789',-0.660,-0.295
'0:02.792',-0.650,-0.275
'0:02.794',-0.650,-0.270
'0:02.797',-0.655,-0.265
'0:02.800',-0.635,-0.270
'0:02.803',-0.635,-0.270
'0:02.806',-0.645,-0.270
'0:02.808',-0.655,-0.285
'0:02.811',-0.660,-0.285
'0:02.814',-0.650,-0.300
'0:02.817',-0.670,-0.305
'0:02.819',-0.660,-0.310
'0:02.822',-0.655,-0.290
'0:02.825',-0.660,-0.285
'0:02.828',-0.650,-0.280
'0:02.831',-0.655,-0.270
'0:02.833',-0.645,-0.265
'0:02.836',-0.635,-0.270
'0:02.839',-0.630,-0.275
'0:02.842',-0.625,-0.285
'0:02.844',-0.630,-0.285
'0:02.847',-0.635,-0.290
'0:02.850',-0.635,-0.305
'0:02.853',-0.630,-0.290
'0:02.856',-0.630,-0.290
'0:02.858',-0.630,-0.285
'0:02.861',-0.610,-0.280
'0:02.864',-0.615,-0.285
'0:02.867',-0.610,-0.265
'0:02.869',-0.595,-0.280
'0:02.872',-0.590,-0.290
'0:02.875',-0.590,-0.285
'0:02.878',-0.600,-0.290
'0:02.881',-0.595,-0.310
'0:02.883',-0.600,-0.310
'0:02.886',-0.605,-0.310
'0:02.889',-0.605,-0.300
'0:02.892',-0.605,-0.295
'0:02.894',-0.595,-0.300
'0:02.897',-0.590,-0.290
'0:02.900',-0.580,-0.285
'0:02.903',-0.585,-0.285
'0:02.906',-0.580,-0.290
'0:02.908',-0.590,-0.305
'0:02.911',-0.600,-0.315
'0:02.914',-0.595,-0.305
'0:02.917',-0.605,-0.320
'0:02.919',-0.610,-0.325
'0:02.922',-0.605,-0.305
'0:02.925',-0.610,-0.310
'0:02.928',-0.610,-0.295
'0:02.931',-0.595,-0.295
'0:02.933',-0.590,-0.280
'0:02.936',-0.600,-0.295
'0:02.939',-0.605,-0.310
'0:02.942',-0.610,-0.310
'0:02.944',-0.625,-0.315
'0:02.947',-0.615,-0.330
'0:02.950',-0.630,-0.330
'0:02.953',-0.635,-0.315
'0:02.956',-0.635,-0.315
'0:02.958',-0.630,-0.305
'0:02.961',-0.620,-0.300
'0:02.964',-0.630,-0.300
'0:02.967',-0.615,-0.285
'0:02.969',-0.620,-0.300
'0:02.972',-0.610,-0.305
'0:02.975',-0.615,-0.315
'0:02.978',-0.625,-0.320
'0:02.981',-0.625,-0.325
'0:02.983',-0.645,-0.315
'0:02.986',-0.665,-0.330
'0:02.989',-0.645,-0.315
'0:02.992',-0.640,-0.325
'0:02.994',-0.640,-0.325
'0:02.997',-0.630,-0.305
'0:03.000',-0.625,-0.290
'0:03.003',-0.620,-0.300
'0:03.006',-0.615,-0.310
'0:03.008',-0.635,-0.315
'0:03.011',-0.630,-0.320
'0:03.014',-0.640,-0.330
'0:03.017',-0.640,-0.335
'0:03.019',-0.650,-0.325
'0:03.022',-0.650,-0.330
'0:03.025',-0.635,-0.310
'0:03.028',-0.640,-0.315
'0:03.031',-0.635,-0.305
'0:03.033',-0.640,-0.290
'0:03.036',-0.630,-0.310
'0:03.039',-0.630,-0.305
'0:03.042',-0.630,-0.315
'0:03.044',-0.640,-0.325
'0:03.047',-0.645,-0.340
'0:03.050',-0.650,-0.330
'0:03.053',-0.650,-0.330
'0:03.056',-0.660,-0.325
'0:03.058',-0.655,-0.315
'0:03.061',-0.655,-0.315
'0:03.064',-0.640,-0.300
'0:03.067',-0.645,-0.305
'0:03.069',-0.635,-0.315
'0:03.072',-0.635,-0.320
'0:03.075',-0.640,-0.320
'0:03.078',-0.650,-0.330
'0:03.081',-0.655,-0.330
'0:03.083',-0.650,-0.335
'0:03.086',-0.655,-0.330
'0:03.089',-0.640,-0.335
'0:03.092',-0.660,-0.335
'0:03.094',-0.660,-0.315
'0:03.097',-0.640,-0.315
'0:03.100',-0.625,-0.300
'0:03.103',-0.630,-0.320
'0:03.106',-0.630,-0.315
'0:03.108',-0.635,-0.320
'0:03.111',-0.660,-0.325
'0:03.114',-0.640,-0.330
'0:03.117',-0.655,-0.335
'0:03.119',-0.645,-0.320
'0:03.122',-0.635,-0.305
'0:03.125',-0.630,-0.285
'0:03.128',-0.640,-0.280
'0:03.131',-0.610,-0.275
'0:03.133',-0.610,-0.255
'0:03.136',-0.605,-0.255
'0:03.139',-0.590,-0.255
'0:03.142',-0.570,-0.265
'0:03.144',-0.565,-0.265
'0:03.147',-0.580,-0.280
'0:03.150',-0.580,-0.300
'0:03.153',-0.565,-0.300
'0:03.156',-0.550,-0.295
'0:03.158',-0.550,-0.305
'0:03.161',-0.535,-0.295
'0:03.164',-0.510,-0.310
'0:03.167',-0.505,-0.310
'0:03.169',-0.495,-0.310
'0:03.172',-0.490,-0.310
'0:03.175',-0.485,-0.315
'0:03.178',-0.490,-0.315
'0:03.181',-0.505,-0.320
'0:03.183',-0.505,-0.335
'0:03.186',-0.530,-0.325
'0:03.189',-0.530,-0.315
'0:03.192',-0.530,-0.310
'0:03.194',-0.530,-0.310
'0:03.197',-0.515,-0.290
'0:03.200',-0.500,-0.295
'0:03.203',-0.500,-0.300
'0:03.206',-0.500,-0.305
'0:03.208',-0.510,-0.315
'0:03.211',-0.530,-0.330
'0:03.214',-0.540,-0.340
'0:03.217',-0.565,-0.350
'0:03.219',-0.580,-0.345
'0:03.222',-0.590,-0.340
'0:03.225',-0.600,-0.325
'0:03.228',-0.620,-0.335
'0:03.231',-0.610,-0.325
'0:03.233',-0.610,-0.320
'0:03.236',-0.605,-0.330
'0:03.239',-0.615,-0.325
'0:03.242',-0.610,-0.345
'0:03.244',-0.625,-0.350
'0:03.247',-0.630,-0.345
'0:03.250',-0.640,-0.360
'0:03.253',-0.640,-0.355
'0:03.256',-0.640,-0.350
'0:03.258',-0.630,-0.340
'0:03.261',-0.630,-0.330
'0:03.264',-0.640,-0.325
'0:03.267',-0.625,-0.320
'0:03.269',-0.620,-0.325
'0:03.272',-0.625,-0.340
'0:03.275',-0.630,-0.340
'0:03.278',-0.635,-0.340
'0:03.281',-0.635,-0.340
'0:03.283',-0.650,-0.350
'0:03.286',-0.635,-0.350
'0:03.289',-0.645,-0.345
'0:03.292',-0.635,-0.330
'0:03.294',-0.635,-0.330
'0:03.297',-0.615,-0.315
'0:03.300',-0.610,-0.310
'0:03.303',-0.610,-0.315
'0:03.306',-0.600,-0.320
'0:03.308',-0.595,-0.330
'0:03.311',-0.605,-0.340
'0:03.314',-0.595,-0.340
'0:03.317',-0.605,-0.320
'0:03.319',-0.595,-0.315
'0:03.322',-0.590,-0.300
'0:03.325',-0.585,-0.275
'0:03.328',-0.575,-0.270
'0:03.331',-0.545,-0.265
'0:03.333',-0.530,-0.290
'0:03.336',-0.520,-0.365
'0:03.339',-0.495,-0.420
'0:03.342',-0.445,-0.510
'0:03.344',-0.365,-0.610
'0:03.347',-0.235,-0.710
'0:03.350',-0.035,-0.770
'0:03.353',0.225,-0.815
'0:03.356',0.575,-0.810
'0:03.358',0.950,-0.765
'0:03.361',1.305,-0.705
'0:03.364',1.595,-0.615
'0:03.367',1.745,-0.530
'0:03.369',1.695,-0.460
'0:03.372',1.430,-0.415
'0:03.375',0.960,-0.375
'0:03.378',0.340,-0.380
'0:03.381',-0.280,-0.380
'0:03.383',-0.830,-0.400
'0:03.386',-1.220,-0.415
'0:03.389',-1.375,-0.425
'0:03.392',-1.320,-0.415
'0:03.394',-1.120,-0.385
'0:03.397',-0.900,-0.350
'0:03.400',-0.700,-0.305
'0:03.403',-0.550,-0.275
'0:03.406',-0.475,-0.255
'0:03.408',-0.445,-0.245
'0:03.411',-0.445,-0.265
'0:03.414',-0.480,-0.280
'0:03.417',-0.510,-0.285
'0:03.419',-0.545,-0.285
'0:03.422',-0.550,-0.280
'0:03.425',-0.550,-0.265
'0:03.428',-0.545,-0.255
'0:03.431',-0.535,-0.255
'0:03.433',-0.525,-0.260
'0:03.436',-0.510,-0.260
'0:03.439',-0.505,-0.255
'0:03.442',-0.515,-0.265
'0:03.444',-0.520,-0.270
'0:03.447',-0.525,-0.290
'0:03.450',-0.530,-0.280
'0:03.453',-0.535,-0.275
'0:03.456',-0.530,-0.265
'0:03.458',-0.530,-0.270
'0:03.461',-0.515,-0.265
'0:03.464',-0.515,-0.260
'0:03.467',-0.505,-0.250
'0:03.469',-0.505,-0.260
'0:03.472',-0.500,-0.265
'0:03.475',-0.500,-0.280
'0:03.478',-0.520,-0.280
'0:03.481',-0.515,-0.285
'0:03.483',-0.520,-0.280
'0:03.486',-0.535,-0.295
'0:03.489',-0.530,-0.280
'0:03.492',-0.515,-0.280
'0:03.494',-0.505,-0.250
'0:03.497',-0.500,-0.255
'0:03.500',-0.500,-0.245
'0:03.503',-0.495,-0.265
'0:03.506',-0.495,-0.270
'0:03.508',-0.495,-0.275
'0:03.511',-0.510,-0.280
'0:03.514',-0.505,-0.285
'0:03.517',-0.515,-0.300
'0:03.519',-0.515,-0.290
'0:03.522',-0.515,-0.280
'0:03.525',-0.515,-0.270
'0:03.528',-0.500,-0.270
'0:03.531',-0.495,-0.265
'0:03.533',-0.490,-0.255
'0:03.536',-0.485,-0.260
'0:03.539',-0.485,-0.265
'0:03.542',-0.495,-0.280
'0:03.544',-0.495,-0.275
'0:03.547',-0.505,-0.295
'0:03.550',-0.520,-0.290
'0:03.553',-0.510,-0.285
'0:03.556',-0.520,-0.285
'0:03.558',-0.510,-0.295
'0:03.561',-0.500,-0.280
'0:03.564',-0.490,-0.270
'0:03.567',-0.490,-0.260
'0:03.569',-0.500,-0.265
'0:03.572',-0.480,-0.285
'0:03.575',-0.480,-0.275
'0:03.578',-0.480,-0.290
'0:03.581',-0.480,-0.295
'0:03.583',-0.490,-0.305
'0:03.586',-0.500,-0.300
'0:03.589',-0.495,-0.285
'0:03.592',-0.490,-0.275
'0:03.594',-0.480,-0.270
'0:03.597',-0.470,-0.270
'0:03.600',-0.460,-0.265
'0:03.603',-0.450,-0.275
'0:03.606',-0.455,-0.280
'0:03.608',-0.450,-0.290
'0:03.611',-0.450,-0.295
'0:03.614',-0.470,-0.295
'0:03.617',-0.475,-0.305
'0:03.619',-0.475,-0.305
'0:03.622',-0.465,-0.305
'0:03.625',-0.460,-0.280
'0:03.628',-0.455,-0.280
'0:03.631',-0.430,-0.260
'0:03.633',-0.425,-0.270
'0:03.636',-0.415,-0.270
'0:03.639',-0.415,-0.270
'0:03.642',-0.425,-0.280
'0:03.644',-0.425,-0.285
'0:03.647',-0.425,-0.305
'0:03.650',-0.430,-0.300
'0:03.653',-0.425,-0.300
'0:03.656',-0.430,-0.295
'0:03.658',-0.415,-0.285
'0:03.661',-0.415,-0.275
'0:03.664',-0.405,-0.275
'0:03.667',-0.405,-0.270
'0:03.669',-0.395,-0.270
'0:03.672',-0.390,-0.270
'0:03.675',-0.395,-0.290
'0:03.678',-0.400,-0.300
'0:03.681',-0.395,-0.300
'0:03.683',-0.405,-0.305
'0:03.686',-0.405,-0.305
'0:03.689',-0.405,-0.295
'0:03.692',-0.415,-0.285
'0:03.694',-0.400,-0.300
'0:03.697',-0.380,-0.285
'0:03.700',-0.370,-0.280
'0:03.703',-0.370,-0.280
'0:03.706',-0.380,-0.300
'0:03.708',-0.380,-0.295
'0:03.711',-0.380,-0.300
'0:03.714',-0.370,-0.315
'0:03.717',-0.380,-0.325
'0:03.719',-0.380,-0.320
'0:03.722',-0.370,-0.310
'0:03.725',-0.385,-0.315
'0:03.728',-0.380,-0.295
'0:03.731',-0.370,-0.285
'0:03.733',-0.360,-0.275
'0:03.736',-0.370,-0.295
'0:03.739',-0.365,-0.290
'0:03.742',-0.385,-0.295
'0:03.744',-0.400,-0.300
'0:03.747',-0.435,-0.315
'0:03.750',-0.445,-0.305
'0:03.753',-0.460,-0.300
'0:03.756',-0.475,-0.285
'0:03.758',-0.490,-0.290
'0:03.761',-0.490,-0.280
'0:03.764',-0.505,-0.275
'0:03.767',-0.510,-0.255
'0:03.769',-0.510,-0.265
'0:03.772',-0.525,-0.260
'0:03.775',-0.535,-0.265
'0:03.778',-0.555,-0.275
'0:03.781',-0.570,-0.285
'0:03.783',-0.575,-0.285
'0:03.786',-0.595,-0.280
'0:03.789',-0.590,-0.270
'0:03.792',-0.605,-0.270
'0:03.794',-0.600,-0.255
'0:03.797',-0.600,-0.260
'0:03.800',-0.615,-0.245
'0:03.803',-0.590,-0.250
'0:03.806',-0.600,-0.265
'0:03.808',-0.595,-0.275
'0:03.811',-0.600,-0.265
'0:03.814',-0.620,-0.265
'0:03.817',-0.620,-0.270
'0:03.819',-0.620,-0.270
'0:03.822',-0.610,-0.265
'0:03.825',-0.610,-0.255
'0:03.828',-0.600,-0.260
'0:03.831',-0.605,-0.250
'0:03.833',-0.595,-0.245
'0:03.836',-0.590,-0.255
'0:03.839',-0.585,-0.250
'0:03.842',-0.585,-0.265
'0:03.844',-0.590,-0.265
'0:03.847',-0.590,-0.265
'0:03.850',-0.595,-0.260
'0:03.853',-0.610,-0.275
'0:03.856',-0.600,-0.270
'0:03.858',-0.595,-0.255
'0:03.861',-0.585,-0.255
'0:03.864',-0.580,-0.245
'0:03.867',-0.570,-0.255
'0:03.869',-0.575,-0.245
'0:03.872',-0.575,-0.250
'0:03.875',-0.565,-0.260
'0:03.878',-0.580,-0.265
'0:03.881',-0.575,-0.275
'0:03.883',-0.575,-0.275
'0:03.886',-0.575,-0.280
'0:03.889',-0.570,-0.260
'0:03.892',-0.585,-0.260
'0:03.894',-0.555,-0.265
'0:03.897',-0.560,-0.245
'0:03.900',-0.555,-0.245
'0:03.903',-0.550,-0.250
'0:03.906',-0.560,-0.260
'0:03.908',-0.555,-0.270
'0:03.911',-0.555,-0.275
'0:03.914',-0.565,-0.280
'0:03.917',-0.575,-0.280
'0:03.919',-0.560,-0.285
'0:03.922',-0.565,-0.285
'0:03.925',-0.560,-0.275
'0:03.928',-0.565,-0.265
'0:03.931',-0.555,-0.265
'0:03.933',-0.555,-0.260
'0:03.936',-0.550,-0.265
'0:03.939',-0.550,-0.270
'0:03.942',-0.555,-0.270
'0:03.944',-0.565,-0.280
'0:03.947',-0.570,-0.285
'0:03.950',-0.580,-0.295
'0:03.953',-0.585,-0.295
'0:03.956',-0.585,-0.280
'0:03.958',-0.600,-0.285
'0:03.961',-0.605,-0.285
'0:03.964',-0.590,-0.280
'0:03.967',-0.585,-0.270
'0:03.969',-0.590,-0.270
'0:03.972',-0.585,-0.285
'0:03.975',-0.590,-0.280
'0:03.978',-0.590,-0.285
'0:03.981',-0.595,-0.290
'0:03.983',-0.605,-0.290
'0:03.986',-0.620,-0.300
'0:03.989',-0.605,-0.290
'0:03.992',-0.615,-0.280
'0:03.994',-0.605,-0.280
'0:03.997',-0.600,-0.270
'0:04.000',-0.585,-0.260
'0:04.003',-0.595,-0.265
'0:04.006',-0.600,-0.285
'0:04.008',-0.595,-0.280
'0:04.011',-0.605,-0.285
'0:04.014',-0.620,-0.300
'0:04.017',-0.620,-0.300
'0:04.019',-0.625,-0.300
'0:04.022',-0.620,-0.295
'0:04.025',-0.620,-0.290
'0:04.028',-0.615,-0.285
'0:04.031',-0.605,-0.280
'0:04.033',-0.605,-0.270
'0:04.036',-0.605,-0.280
'0:04.039',-0.605,-0.295
'0:04.042',-0.610,-0.295
'0:04.044',-0.610,-0.290
'0:04.047',-0.615,-0.300
'0:04.050',-0.615,-0.305
'0:04.053',-0.630,-0.305
'0:04.056',-0.635,-0.295
'0:04.058',-0.635,-0.300
'0:04.061',-0.620,-0.290
'0:04.064',-0.610,-0.275
'0:04.067',-0.605,-0.265
'0:04.069',-0.600,-0.275
'0:04.072',-0.610,-0.285
'0:04.075',-0.605,-0.295
'0:04.078',-0.620,-0.290
'0:04.081',-0.625,-0.300
'0:04.083',-0.625,-0.300
'0:04.086',-0.630,-0.295
'0:04.089',-0.625,-0.305
'0:04.092',-0.630,-0.290
'0:04.094',-0.625,-0.275
'0:04.097',-0.605,-0.280
'0:04.100',-0.610,-0.270
'0:04.103',-0.600,-0.270
'0:04.106',-0.610,-0.270
'0:04.108',-0.600,-0.285
'0:04.111',-0.620,-0.290
'0:04.114',-0.610,-0.295
'0:04.117',-0.625,-0.295
'0:04.119',-0.620,-0.300
'0:04.122',-0.615,-0.295
'0:04.125',-0.620,-0.290
'0:04.128',-0.620,-0.280
'0:04.131',-0.610,-0.280
'0:04.133',-0.600,-0.270
'0:04.136',-0.610,-0.275
'0:04.139',-0.595,-0.270
'0:04.142',-0.600,-0.290
'0:04.144',-0.610,-0.305
'0:04.147',-0.610,-0.290
'0:04.150',-0.620,-0.305
'0:04.153',-0.630,-0.305
'0:04.156',-0.615,-0.305
'0:04.158',-0.630,-0.295
'0:04.161',-0.625,-0.285
'0:04.164',-0.620,-0.290
'0:04.167',-0.615,-0.270
'0:04.169',-0.605,-0.285
'0:04.172',-0.600,-0.285
'0:04.175',-0.595,-0.290
'0:04.178',-0.615,-0.290
'0:04.181',-0.615,-0.295
'0:04.183',-0.620,-0.305
'0:04.186',-0.615,-0.305
'0:04.189',-0.620,-0.280
'0:04.192',-0.620,-0.285
'0:04.194',-0.615,-0.275
'0:04.197',-0.605,-0.275
'0:04.200',-0.600,-0.265
'0:04.203',-0.595,-0.275
'0:04.206',-0.610,-0.285
'0:04.208',-0.615,-0.290
'0:04.211',-0.610,-0.295
'0:04.214',-0.620,-0.290
'0:04.217',-0.625,-0.300
'0:04.219',-0.635,-0.305
'0:04.222',-0.620,-0.290
'0:04.225',-0.605,-0.285
'0:04.228',-0.600,-0.275
'0:04.231',-0.610,-0.265
'0:04.233',-0.600,-0.260
'0:04.236',-0.600,-0.270
'0:04.239',-0.605,-0.270
'0:04.242',-0.595,-0.280
'0:04.244',-0.615,-0.285
'0:04.247',-0.620,-0.290
'0:04.250',-0.625,-0.290
'0:04.253',-0.625,-0.285
'0:04.256',-0.610,-0.295
'0:04.258',-0.610,-0.275
'0:04.261',-0.600,-0.265
'0:04.264',-0.600,-0.265
'0:04.267',-0.590,-0.255
'0:04.269',-0.590,-0.265
'0:04.272',-0.595,-0.270
'0:04.275',-0.595,-0.265
'0:04.278',-0.605,-0.275
'0:04.281',-0.615,-0.280
'0:04.283',-0.625,-0.295
'0:04.286',-0.625,-0.280
'0:04.289',-0.635,-0.265
'0:04.292',-0.620,-0.255
'0:04.294',-0.615,-0.245
'0:04.297',-0.600,-0.235
'0:04.300',-0.590,-0.220
'0:04.303',-0.580,-0.215
'0:04.306',-0.585,-0.205
'0:04.308',-0.570,-0.205
'0:04.311',-0.565,-0.210
'0:04.314',-0.580,-0.215
'0:04.317',-0.565,-0.220
'0:04.319',-0.550,-0.225
'0:04.322',-0.540,-0.230
'0:04.325',-0.530,-0.235
'0:04.328',-0.500,-0.235
'0:04.331',-0.485,-0.255
'0:04.333',-0.480,-0.255
'0:04.336',-0.460,-0.260
'0:04.339',-0.465,-0.255
'0:04.342',-0.460,-0.260
'0:04.344',-0.460,-0.265
'0:04.347',-0.470,-0.255
'0:04.350',-0.490,-0.265
'0:04.353',-0.500,-0.270
'0:04.356',-0.490,-0.270
'0:04.358',-0.495,-0.260
'0:04.361',-0.485,-0.255
'0:04.364',-0.485,-0.250
'0:04.367',-0.470,-0.235
'0:04.369',-0.460,-0.230
'0:04.372',-0.470,-0.260
'0:04.375',-0.470,-0.255
'0:04.378',-0.500,-0.265
'0:04.381',-0.515,-0.285
'0:04.383',-0.545,-0.290
'0:04.386',-0.560,-0.290
'0:04.389',-0.575,-0.280
'0:04.392',-0.580,-0.285
'0:04.394',-0.590,-0.275
'0:04.397',-0.585,-0.270
'0:04.400',-0.575,-0.265
'0:04.403',-0.570,-0.260
'0:04.406',-0.580,-0.270
'0:04.408',-0.590,-0.275
'0:04.411',-0.585,-0.280
'0:04.414',-0.595,-0.280
'0:04.417',-0.610,-0.295
'0:04.419',-0.620,-0.295
'0:04.422',-0.630,-0.285
'0:04.425',-0.620,-0.285
'0:04.428',-0.615,-0.270
'0:04.431',-0.620,-0.260
'0:04.433',-0.615,-0.260
'0:04.436',-0.590,-0.255
'0:04.439',-0.590,-0.280
'0:04.442',-0.590,-0.285
'0:04.444',-0.600,-0.290
'0:04.447',-0.610,-0.285
'0:04.450',-0.625,-0.300
'0:04.453',-0.620,-0.290
'0:04.456',-0.630,-0.285
'0:04.458',-0.600,-0.270
'0:04.461',-0.600,-0.270
'0:04.464',-0.605,-0.265
'0:04.467',-0.590,-0.255
'0:04.469',-0.580,-0.260
'0:04.472',-0.595,-0.260
'0:04.475',-0.585,-0.265
'0:04.478',-0.580,-0.270
'0:04.481',-0.575,-0.260
'0:04.483',-0.580,-0.245
'0:04.486',-0.570,-0.235
'0:04.489',-0.555,-0.230
'0:04.492',-0.550,-0.240
'0:04.494',-0.535,-0.250
'0:04.497',-0.520,-0.285
'0:04.500',-0.505,-0.335
'0:04.503',-0.465,-0.405
'0:04.506',-0.415,-0.495
'0:04.508',-0.330,-0.585
'0:04.511',-0.200,-0.675
'0:04.514',-0.015,-0.735
'0:04.517',0.225,-0.760
'0:04.519',0.565,-0.735
'0:04.522',0.940,-0.660
'0:04.525',1.295,-0.565
'0:04.528',1.545,-0.465
'0:04.531',1.580,-0.355
'0:04.533',1.320,-0.290
'0:04.536',0.785,-0.250
'0:04.539',0.145,-0.270
'0:04.542',-0.495,-0.295
'0:04.544',-1.135,-0.345
'0:04.547',-1.350,-0.355
'0:04.550',-1.310,-0.340
'0:04.553',-1.100,-0.305
'0:04.556',-0.840,-0.260
'0:04.558',-0.595,-0.215
'0:04.561',-0.445,-0.190
'0:04.564',-0.380,-0.180
'0:04.567',-0.380,-0.190
'0:04.569',-0.430,-0.205
'0:04.572',-0.470,-0.190
'0:04.575',-0.515,-0.200
'0:04.578',-0.545,-0.220
'0:04.581',-0.545,-0.215
'0:04.583',-0.545,-0.220
'0:04.586',-0.540,-0.215
'0:04.589',-0.525,-0.210
'0:04.592',-0.525,-0.210
'0:04.594',-0.510,-0.195
'0:04.597',-0.520,-0.195
'0:04.600',-0.515,-0.185
'0:04.603',-0.505,-0.195
'0:04.606',-0.505,-0.200
'0:04.608',-0.515,-0.200
'0:04.611',-0.515,-0.200
'0:04.614',-0.510,-0.215
'0:04.617',-0.520,-0.220
'0:04.619',-0.525,-0.225
'0:04.622',-0.520,-0.215
'0:04.625',-0.515,-0.210
'0:04.628',-0.510,-0.195
'0:04.631',-0.505,-0.190
'0:04.633',-0.500,-0.190
'0:04.636',-0.485,-0.190
'0:04.639',-0.490,-0.200
'0:04.642',-0.490,-0.200
'0:04.644',-0.490,-0.210
'0:04.647',-0.500,-0.225
'0:04.650',-0.510,-0.205
'0:04.653',-0.515,-0.215
'0:04.656',-0.510,-0.210
'0:04.658',-0.505,-0.205
'0:04.661',-0.500,-0.205
'0:04.664',-0.505,-0.200
'0:04.667',-0.500,-0.195
'0:04.669',-0.500,-0.200
'0:04.672',-0.495,-0.205
'0:04.675',-0.510,-0.210
'0:04.678',-0.505,-0.220
'0:04.681',-0.520,-0.230
'0:04.683',-0.520,-0.225
'0:04.686',-0.505,-0.230
'0:04.689',-0.500,-0.230
'0:04.692',-0.500,-0.220
'0:04.694',-0.485,-0.215
'0:04.697',-0.490,-0.200
'0:04.700',-0.475,-0.210
'0:04.703',-0.490,-0.215
'0:04.706',-0.465,-0.215
'0:04.708',-0.480,-0.225
'0:04.711',-0.485,-0.220
'0:04.714',-0.495,-0.235
'0:04.717',-0.500,-0.230
'0:04.719',-0.500,-0.245
'0:04.722',-0.510,-0.230
'0:04.725',-0.500,-0.230
'0:04.728',-0.495,-0.220
'0:04.731',-0.495,-0.215
'0:04.733',-0.480,-0.200
'0:04.736',-0.470,-0.210
'0:04.739',-0.455,-0.220
'0:04.742',-0.470,-0.230
'0:04.744',-0.470,-0.225
'0:04.747',-0.475,-0.250
'0:04.750',-0.470,-0.240
'0:04.753',-0.480,-0.240
'0:04.756',-0.485,-0.235
'0:04.758',-0.465,-0.230
'0:04.761',-0.470,-0.235
'0:04.764',-0.455,-0.225
'0:04.767',-0.450,-0.210
'0:04.769',-0.435,-0.220
'0:04.772',-0.450,-0.230
'0:04.775',-0.450,-0.225
'0:04.778',-0.445,-0.240
'0:04.781',-0.460,-0.240
'0:04.783',-0.450,-0.250
'0:04.786',-0.455,-0.245
'0:04.789',-0.450,-0.245
'0:04.792',-0.445,-0.240
'0:04.794',-0.440,-0.225
'0:04.797',-0.445,-0.225
'0:04.800',-0.425,-0.220
'0:04.803',-0.425,-0.215
'0:04.806',-0.410,-0.230
'0:04.808',-0.430,-0.240
'0:04.811',-0.430,-0.240
'0:04.814',-0.430,-0.255
'0:04.817',-0.420,-0.260
'0:04.819',-0.425,-0.265
'0:04.822',-0.430,-0.250
'0:04.825',-0.425,-0.250
'0:04.828',-0.425,-0.245
'0:04.831',-0.430,-0.240
'0:04.833',-0.420,-0.235
'0:04.836',-0.405,-0.240
'0:04.839',-0.410,-0.240
'0:04.842',-0.420,-0.245
'0:04.844',-0.420,-0.250
'0:04.847',-0.430,-0.260
'0:04.850',-0.435,-0.260
'0:04.853',-0.445,-0.270
'0:04.856',-0.445,-0.260
'0:04.858',-0.445,-0.255
'0:04.861',-0.445,-0.240
'0:04.864',-0.445,-0.240
'0:04.867',-0.430,-0.230
'0:04.869',-0.430,-0.240
'0:04.872',-0.425,-0.255
'0:04.875',-0.425,-0.240
'0:04.878',-0.420,-0.260
'0:04.881',-0.430,-0.260
'0:04.883',-0.420,-0.265
'0:04.886',-0.430,-0.265
'0:04.889',-0.430,-0.255
'0:04.892',-0.435,-0.245
'0:04.894',-0.430,-0.245
'0:04.897',-0.425,-0.230
'0:04.900',-0.425,-0.220
'0:04.903',-0.430,-0.220
'0:04.906',-0.450,-0.225
'0:04.908',-0.460,-0.225
'0:04.911',-0.470,-0.230
'0:04.914',-0.495,-0.235
'0:04.917',-0.500,-0.235
'0:04.919',-0.520,-0.230
'0:04.922',-0.535,-0.215
'0:04.925',-0.535,-0.220
'0:04.928',-0.555,-0.210
'0:04.931',-0.570,-0.195
'0:04.933',-0.565,-0.180
'0:04.936',-0.560,-0.190
'0:04.939',-0.565,-0.200
'0:04.942',-0.575,-0.200
'0:04.944',-0.585,-0.200
'0:04.947',-0.590,-0.205
'0:04.950',-0.605,-0.210
'0:04.953',-0.615,-0.210
'0:04.956',-0.605,-0.220
'0:04.958',-0.620,-0.205
'0:04.961',-0.620,-0.195
'0:04.964',-0.615,-0.190
'0:04.967',-0.595,-0.185
'0:04.969',-0.595,-0.180
'0:04.972',-0.600,-0.190
'0:04.975',-0.600,-0.190
'0:04.978',-0.605,-0.210
'0:04.981',-0.625,-0.210
'0:04.983',-0.630,-0.220
'0:04.986',-0.630,-0.210
'0:04.989',-0.615,-0.200
'0:04.992',-0.615,-0.205
'0:04.994',-0.615,-0.195
'0:04.997',-0.610,-0.185
'0:05.000',-0.605,-0.195
'0:05.003',-0.580,-0.180
'0:05.006',-0.580,-0.190
'0:05.008',-0.590,-0.200
'0:05.011',-0.600,-0.200
'0:05.014',-0.600,-0.210
'0:05.017',-0.595,-0.220
'0:05.019',-0.595,-0.215
'0:05.022',-0.590,-0.200
'0:05.025',-0.600,-0.210
'0:05.028',-0.590,-0.190
'0:05.031',-0.585,-0.195
'0:05.033',-0.585,-0.185
'0:05.036',-0.560,-0.195
'0:05.039',-0.580,-0.200
'0:05.042',-0.570,-0.195
'0:05.044',-0.580,-0.195
'0:05.047',-0.590,-0.205
'0:05.050',-0.600,-0.220
'0:05.053',-0.595,-0.215
'0:05.056',-0.595,-0.225
'0:05.058',-0.595,-0.205
'0:05.061',-0.585,-0.205
'0:05.064',-0.570,-0.200
'0:05.067',-0.565,-0.185
'0:05.069',-0.565,-0.190
'0:05.072',-0.565,-0.195
'0:05.075',-0.575,-0.200
'0:05.078',-0.565,-0.215
'0:05.081',-0.570,-0.220
'0:05.083',-0.585,-0.225
'0:05.086',-0.595,-0.225
'0:05.089',-0.605,-0.220
'0:05.092',-0.605,-0.225
'0:05.094',-0.585,-0.210
'0:05.097',-0.595,-0.205
'0:05.100',-0.585,-0.200
'0:05.103',-0.585,-0.190
'0:05.106',-0.585,-0.210
'0:05.108',-0.600,-0.205
'0:05.111',-0.590,-0.210
'0:05.114',-0.595,-0.220
'0:05.117',-0.605,-0.220
'0:05.119',-0.620,-0.230
'0:05.122',-0.620,-0.225
'0:05.125',-0.625,-0.220
'0:05.128',-0.630,-0.210
'0:05.131',-0.620,-0.215
'0:05.133',-0.600,-0.200
'0:05.136',-0.600,-0.215
'0:05.139',-0.605,-0.190
'0:05.142',-0.610,-0.200
'0:05.144',-0.620,-0.220
'0:05.147',-0.630,-0.220
'0:05.150',-0.635,-0.235
'0:05.153',-0.655,-0.240
'0:05.156',-0.635,-0.220
'0:05.158',-0.645,-0.220
'0:05.161',-0.635,-0.210
'0:05.164',-0.645,-0.195
'0:05.167',-0.645,-0.200
'0:05.169',-0.640,-0.205
'0:05.172',-0.620,-0.210
'0:05.175',-0.630,-0.215
'0:05.178',-0.635,-0.225
'0:05.181',-0.640,-0.225
'0:05.183',-0.645,-0.225
'0:05.186',-0.645,-0.240
'0:05.189',-0.655,-0.230
'0:05.192',-0.650,-0.220
'0:05.194',-0.645,-0.205
'0:05.197',-0.650,-0.210
'0:05.200',-0.640,-0.210
'0:05.203',-0.635,-0.195
'0:05.206',-0.630,-0.200
'0:05.208',-0.635,-0.215
'0:05.211',-0.640,-0.220
'0:05.214',-0.645,-0.230
'0:05.217',-0.660,-0.235
'0:05.219',-0.660,-0.230
'0:05.222',-0.655,-0.225
'0:05.225',-0.655,-0.220
'0:05.228',-0.650,-0.215
'0:05.231',-0.645,-0.210
'0:05.233',-0.635,-0.195
'0:05.236',-0.630,-0.200
'0:05.239',-0.630,-0.200
'0:05.242',-0.645,-0.210
'0:05.244',-0.635,-0.215
'0:05.247',-0.655,-0.225
'0:05.250',-0.670,-0.215
'0:05.253',-0.670,-0.220
'0:05.256',-0.680,-0.215
'0:05.258',-0.655,-0.200
'0:05.261',-0.665,-0.185
'0:05.264',-0.655,-0.170
'0:05.267',-0.645,-0.155
'0:05.269',-0.630,-0.155
'0:05.272',-0.630,-0.170
'0:05.275',-0.620,-0.165
'0:05.278',-0.620,-0.165
'0:05.281',-0.630,-0.155
'0:05.283',-0.625,-0.170
'0:05.286',-0.615,-0.175
'0:05.289',-0.610,-0.160
'0:05.292',-0.600,-0.175
'0:05.294',-0.580,-0.185
'0:05.297',-0.565,-0.185
'0:05.300',-0.560,-0.200
'0:05.303',-0.545,-0.185
'0:05.306',-0.535,-0.205
'0:05.308',-0.525,-0.205
'0:05.311',-0.515,-0.210
'0:05.314',-0.520,-0.210
'0:05.317',-0.525,-0.210
'0:05.319',-0.525,-0.215
'0:05.322',-0.540,-0.215
'0:05.325',-0.550,-0.210
'0:05.328',-0.550,-0.210
'0:05.331',-0.540,-0.195
'0:05.333',-0.555,-0.195
'0:05.336',-0.530,-0.180
'0:05.339',-0.530,-0.200
'0:05.342',-0.540,-0.215
'0:05.344',-0.535,-0.220
'0:05.347',-0.555,-0.225
'0:05.350',-0.580,-0.235
'0:05.353',-0.605,-0.235
'0:05.356',-0.625,-0.250
'0:05.358',-0.630,-0.250
'0:05.361',-0.640,-0.235
'0:05.364',-0.650,-0.220
'0:05.367',-0.635,-0.230
'0:05.369',-0.635,-0.225
'0:05.372',-0.645,-0.225
'0:05.375',-0.625,-0.225
'0:05.378',-0.635,-0.235
'0:05.381',-0.650,-0.240
'0:05.383',-0.665,-0.245
'0:05.386',-0.665,-0.255
'0:05.389',-0.670,-0.240
'0:05.392',-0.670,-0.240
'0:05.394',-0.670,-0.225
'0:05.397',-0.670,-0.215
'0:05.400',-0.655,-0.215
'0:05.403',-0.665,-0.210
'0:05.406',-0.650,-0.220
'0:05.408',-0.645,-0.225
'0:05.411',-0.665,-0.220
'0:05.414',-0.675,-0.245
'0:05.417',-0.660,-0.245
'0:05.419',-0.675,-0.235
'0:05.422',-0.680,-0.225
'0:05.425',-0.680,-0.230
'0:05.428',-0.665,-0.230
'0:05.431',-0.665,-0.220
'0:05.433',-0.650,-0.215
'0:05.436',-0.635,-0.215
'0:05.439',-0.635,-0.220
'0:05.442',-0.625,-0.210
'0:05.444',-0.630,-0.220
'0:05.447',-0.630,-0.210
'0:05.450',-0.625,-0.205
'0:05.453',-0.630,-0.200
'0:05.456',-0.610,-0.200
'0:05.458',-0.610,-0.220
'0:05.461',-0.610,-0.255
'0:05.464',-0.575,-0.295
'0:05.467',-0.540,-0.360
'0:05.469',-0.470,-0.425
'0:05.472',-0.385,-0.525
'0:05.475',-0.235,-0.595
'0:05.478',-0.030,-0.635
'0:05.481',0.280,-0.650
'0:05.483',0.620,-0.615
'0:05.486',0.990,-0.555
'0:05.489',1.335,-0.475
'0:05.492',1.585,-0.390
'0:05.494',1.670,-0.310
'0:05.497',1.555,-0.245
'0:05.500',1.210,-0.190
'0:05.503',0.665,-0.170
'0:05.506',0.025,-0.185
'0:05.508',-0.615,-0.210
'0:05.511',-1.170,-0.245
'0:05.514',-1.400,-0.260
'0:05.517',-1.365,-0.275
'0:05.519',-1.170,-0.270
'0:05.522',-0.920,-0.235
'0:05.525',-0.700,-0.220
'0:05.528',-0.540,-0.180
'0:05.531',-0.455,-0.155
'0:05.533',-0.445,-0.155
'0:05.536',-0.470,-0.155
'0:05.539',-0.515,-0.165
'0:05.542',-0.555,-0.170
'0:05.544',-0.585,-0.180
'0:05.547',-0.595,-0.185
'0:05.550',-0.595,-0.200
'0:05.553',-0.585,-0.200
'0:05.556',-0.595,-0.190
'0:05.558',-0.565,-0.185
'0:05.561',-0.555,-0.180
'0:05.564',-0.550,-0.180
'0:05.567',-0.545,-0.170
'0:05.569',-0.540,-0.175
'0:05.572',-0.550,-0.180
'0:05.575',-0.550,-0.180
'0:05.578',-0.550,-0.190
'0:05.581',-0.565,-0.195
'0:05.583',-0.560,-0.195
'0:05.586',-0.575,-0.210
'0:05.589',-0.570,-0.195
'0:05.592',-0.575,-0.190
'0:05.594',-0.565,-0.195
'0:05.597',-0.555,-0.195
'0:05.600',-0.550,-0.180
'0:05.603',-0.540,-0.175
'0:05.606',-0.525,-0.185
'0:05.608',-0.535,-0.185
'0:05.611',-0.550,-0.200
'0:05.614',-0.540,-0.200
'0:05.617',-0.540,-0.200
'0:05.619',-0.550,-0.210
'0:05.622',-0.550,-0.210
'0:05.625',-0.545,-0.200
'0:05.628',-0.545,-0.195
'0:05.631',-0.540,-0.190
'0:05.633',-0.530,-0.190
'0:05.636',-0.520,-0.185
'0:05.639',-0.520,-0.195
'0:05.642',-0.525,-0.195
'0:05.644',-0.540,-0.200
'0:05.647',-0.540,-0.220
'0:05.650',-0.550,-0.220
'0:05.653',-0.555,-0.215
'0:05.656',-0.560,-0.210
'0:05.658',-0.550,-0.215
'0:05.661',-0.560,-0.210
'0:05.664',-0.550,-0.205
'0:05.667',-0.535,-0.195
'0:05.669',-0.525,-0.200
'0:05.672',-0.520,-0.210
'0:05.675',-0.530,-0.205
'0:05.678',-0.530,-0.215
'0:05.681',-0.535,-0.220
'0:05.683',-0.530,-0.225
'0:05.686',-0.545,-0.220
'0:05.689',-0.535,-0.220
'0:05.692',-0.540,-0.220
'0:05.694',-0.530,-0.225
'0:05.697',-0.520,-0.205
'0:05.700',-0.510,-0.200
'0:05.703',-0.510,-0.195
'0:05.706',-0.505,-0.210
'0:05.708',-0.505,-0.210
'0:05.711',-0.510,-0.215
'0:05.714',-0.520,-0.225
'0:05.717',-0.520,-0.235
'0:05.719',-0.525,-0.230
'0:05.722',-0.530,-0.230
'0:05.725',-0.520,-0.225
'0:05.728',-0.505,-0.220
'0:05.731',-0.515,-0.215
'0:05.733',-0.510,-0.210
'0:05.736',-0.500,-0.210
'0:05.739',-0.495,-0.220
'0:05.742',-0.495,-0.230
'0:05.744',-0.500,-0.225
'0:05.747',-0.495,-0.240
'0:05.750',-0.500,-0.245
'0:05.753',-0.500,-0.235
'0:05.756',-0.500,-0.230
'0:05.758',-0.500,-0.235
'0:05.761',-0.485,-0.225
'0:05.764',-0.480,-0.220
'0:05.767',-0.470,-0.220
'0:05.769',-0.460,-0.215
'0:05.772',-0.455,-0.230
'0:05.775',-0.460,-0.230
'0:05.778',-0.465,-0.235
'0:05.781',-0.465,-0.250
'0:05.783',-0.465,-0.250
'0:05.786',-0.475,-0.250
'0:05.789',-0.465,-0.250
'0:05.792',-0.470,-0.235
'0:05.794',-0.460,-0.240
'0:05.797',-0.445,-0.235
'0:05.800',-0.440,-0.230
'0:05.803',-0.435,-0.230
'0:05.806',-0.445,-0.240
'0:05.808',-0.430,-0.240
'0:05.811',-0.440,-0.240
'0:05.814',-0.465,-0.260
'0:05.817',-0.460,-0.255
'0:05.819',-0.455,-0.265
'0:05.822',-0.465,-0.250
'0:05.825',-0.455,-0.250
'0:05.828',-0.455,-0.245
'0:05.831',-0.455,-0.240
'0:05.833',-0.440,-0.240
'0:05.836',-0.440,-0.230
'0:05.839',-0.440,-0.245
'0:05.842',-0.455,-0.240
'0:05.844',-0.470,-0.235
'0:05.847',-0.460,-0.245
'0:05.850',-0.465,-0.250
'0:05.853',-0.470,-0.260
'0:05.856',-0.490,-0.240
'0:05.858',-0.495,-0.235
'0:05.861',-0.500,-0.230
'0:05.864',-0.505,-0.215
'0:05.867',-0.505,-0.210
'0:05.869',-0.495,-0.220
'0:05.872',-0.515,-0.210
'0:05.875',-0.535,-0.220
'0:05.878',-0.540,-0.215
'0:05.881',-0.555,-0.220
'0:05.883',-0.580,-0.225
'0:05.886',-0.595,-0.230
'0:05.889',-0.595,-0.205
'0:05.892',-0.620,-0.215
'0:05.894',-0.625,-0.205
'0:05.897',-0.625,-0.195
'0:05.900',-0.635,-0.205
'0:05.903',-0.625,-0.195
'0:05.906',-0.635,-0.190
'0:05.908',-0.640,-0.200
'0:05.911',-0.650,-0.210
'0:05.914',-0.650,-0.210
'0:05.917',-0.675,-0.210
'0:05.919',-0.685,-0.225
'0:05.922',-0.695,-0.205
'0:05.925',-0.700,-0.215
'0:05.928',-0.690,-0.205
'0:05.931',-0.680,-0.200
'0:05.933',-0.675,-0.185
'0:05.936',-0.670,-0.175
'0:05.939',-0.685,-0.185
'0:05.942',-0.685,-0.200
'0:05.944',-0.685,-0.210
'0:05.947',-0.695,-0.215
'0:05.950',-0.705,-0.220
'0:05.953',-0.700,-0.215
'0:05.956',-0.695,-0.210
'0:05.958',-0.680,-0.205
'0:05.961',-0.680,-0.205
'0:05.964',-0.680,-0.195
'0:05.967',-0.670,-0.200
'0:05.969',-0.650,-0.190
'0:05.972',-0.660,-0.205
'0:05.975',-0.645,-0.205
'0:05.978',-0.645,-0.205
'0:05.981',-0.665,-0.215
'0:05.983',-0.650,-0.220
'0:05.986',-0.660,-0.225
'0:05.989',-0.665,-0.220
'0:05.992',-0.660,-0.215
'0:05.994',-0.645,-0.210
'0:05.997',-0.640,-0.210
'0:06.000',-0.625,-0.210
'0:06.003',-0.620,-0.210
'0:06.006',-0.610,-0.210
'0:06.008',-0.615,-0.210
'0:06.011',-0.620,-0.215
'0:06.014',-0.625,-0.225
'0:06.017',-0.635,-0.235
'0:06.019',-0.645,-0.235
'0:06.022',-0.640,-0.220
'0:06.025',-0.635,-0.210
'0:06.028',-0.640,-0.220
'0:06.031',-0.635,-0.220
'0:06.033',-0.615,-0.205
'0:06.036',-0.615,-0.200
'0:06.039',-0.625,-0.220
'0:06.042',-0.615,-0.210
'0:06.044',-0.615,-0.225
'0:06.047',-0.630,-0.225
'0:06.050',-0.635,-0.240
'0:06.053',-0.645,-0.235
'0:06.056',-0.645,-0.245
'0:06.058',-0.645,-0.240
'0:06.061',-0.645,-0.230
'0:06.064',-0.645,-0.225
'0:06.067',-0.640,-0.220
'0:06.069',-0.625,-0.195
'0:06.072',-0.640,-0.215
'0:06.075',-0.640,-0.220
'0:06.078',-0.640,-0.225
'0:06.081',-0.655,-0.240
'0:06.083',-0.660,-0.235
'0:06.086',-0.655,-0.245
'0:06.089',-0.660,-0.245
'0:06.092',-0.680,-0.235
'0:06.094',-0.675,-0.235
'0:06.097',-0.665,-0.230
'0:06.100',-0.670,-0.230
'0:06.103',-0.655,-0.215
'0:06.106',-0.655,-0.230
'0:06.108',-0.660,-0.230
'0:06.111',-0.665,-0.235
'0:06.114',-0.670,-0.245
'0:06.117',-0.675,-0.245
'0:06.119',-0.680,-0.255
'0:06.122',-0.685,-0.255
'0:06.125',-0.685,-0.250
'0:06.128',-0.685,-0.235
'0:06.131',-0.675,-0.245
'0:06.133',-0.675,-0.230
'0:06.136',-0.665,-0.215
'0:06.139',-0.665,-0.235
'0:06.142',-0.665,-0.235
'0:06.144',-0.680,-0.240
'0:06.147',-0.690,-0.250
'0:06.150',-0.680,-0.255
'0:06.153',-0.690,-0.255
'0:06.156',-0.685,-0.265
'0:06.158',-0.695,-0.260
'0:06.161',-0.685,-0.240
'0:06.164',-0.675,-0.245
'0:06.167',-0.670,-0.230
'0:06.169',-0.670,-0.225
'0:06.172',-0.660,-0.230
'0:06.175',-0.670,-0.245
'0:06.178',-0.680,-0.250
'0:06.181',-0.680,-0.255
'0:06.183',-0.690,-0.255
'0:06.186',-0.700,-0.265
'0:06.189',-0.695,-0.265
'0:06.192',-0.695,-0.255
'0:06.194',-0.690,-0.255
'0:06.197',-0.685,-0.245
'0:06.200',-0.675,-0.235
'0:06.203',-0.675,-0.240
'0:06.206',-0.670,-0.245
'0:06.208',-0.665,-0.240
'0:06.211',-0.665,-0.240
'0:06.214',-0.680,-0.255
'0:06.217',-0.695,-0.255
'0:06.219',-0.685,-0.265
'0:06.222',-0.700,-0.245
'0:06.225',-0.690,-0.230
'0:06.228',-0.685,-0.220
'0:06.231',-0.675,-0.215
'0:06.233',-0.660,-0.200
'0:06.236',-0.655,-0.195
'0:06.239',-0.640,-0.180
'0:06.242',-0.645,-0.180
'0:06.244',-0.620,-0.180
'0:06.247',-0.615,-0.195
'0:06.250',-0.620,-0.200
'0:06.253',-0.615,-0.220
'0:06.256',-0.605,-0.225
'0:06.258',-0.590,-0.235
'0:06.261',-0.580,-0.240
'0:06.264',-0.575,-0.235
'0:06.267',-0.565,-0.240
'0:06.269',-0.555,-0.230
'0:06.272',-0.545,-0.240
'0:06.275',-0.545,-0.235
'0:06.278',-0.530,-0.220
'0:06.281',-0.535,-0.245
'0:06.283',-0.535,-0.240
'0:06.286',-0.540,-0.260
'0:06.289',-0.565,-0.245
'0:06.292',-0.570,-0.245
'0:06.294',-0.550,-0.245
'0:06.297',-0.545,-0.230
'0:06.300',-0.560,-0.225
'0:06.303',-0.550,-0.225
'0:06.306',-0.520,-0.220
'0:06.308',-0.535,-0.240
'0:06.311',-0.535,-0.235
'0:06.314',-0.560,-0.245
'0:06.317',-0.575,-0.275
'0:06.319',-0.590,-0.275
'0:06.322',-0.615,-0.265
'0:06.325',-0.640,-0.275
'0:06.328',-0.650,-0.270
'0:06.331',-0.660,-0.255
'0:06.333',-0.660,-0.255
'0:06.336',-0.655,-0.250
'0:06.339',-0.645,-0.260
'0:06.342',-0.655,-0.265
'0:06.344',-0.670,-0.265
'0:06.347',-0.665,-0.275
'0:06.350',-0.685,-0.275
'0:06.353',-0.670,-0.290
'0:06.356',-0.680,-0.275
'0:06.358',-0.680,-0.285
'0:06.361',-0.675,-0.260
'0:06.364',-0.680,-0.260
'0:06.367',-0.680,-0.260
'0:06.369',-0.670,-0.240
'0:06.372',-0.660,-0.255
'0:06.375',-0.665,-0.260
'0:06.378',-0.670,-0.260
'0:06.381',-0.670,-0.280
'0:06.383',-0.675,-0.275
'0:06.386',-0.680,-0.280
'0:06.389',-0.675,-0.275
'0:06.392',-0.680,-0.270
'0:06.394',-0.675,-0.265
'0:06.397',-0.660,-0.260
'0:06.400',-0.660,-0.255
'0:06.403',-0.645,-0.245
'0:06.406',-0.635,-0.245
'0:06.408',-0.645,-0.245
'0:06.411',-0.645,-0.265
'0:06.414',-0.640,-0.260
'0:06.417',-0.645,-0.265
'0:06.419',-0.640,-0.250
'0:06.422',-0.635,-0.235
'0:06.425',-0.630,-0.225
'0:06.428',-0.625,-0.210
'0:06.431',-0.605,-0.220
'0:06.433',-0.600,-0.255
'0:06.436',-0.585,-0.285
'0:06.439',-0.555,-0.350
'0:06.442',-0.515,-0.435
'0:06.444',-0.430,-0.515
'0:06.447',-0.300,-0.620
'0:06.450',-0.110,-0.695
'0:06.453',0.140,-0.730
'0:06.456',0.480,-0.740
'0:06.458',0.870,-0.690
'0:06.461',1.245,-0.625
'0:06.464',1.560,-0.530
'0:06.467',1.700,-0.445
'0:06.469',1.620,-0.350
'0:06.472',1.275,-0.320
'0:06.475',0.715,-0.285
'0:06.478',0.075,-0.300
'0:06.481',-0.565,-0.320
'0:06.483',-1.130,-0.355
'0:06.486',-1.395,-0.365
'0:06.489',-1.420,-0.360
'0:06.492',-1.265,-0.330
'0:06.494',-1.030,-0.285
'0:06.497',-0.800,-0.240
'0:06.500',-0.620,-0.205
'0:06.503',-0.525,-0.180
'0:06.506',-0.480,-0.175
'0:06.508',-0.485,-0.185
'0:06.511',-0.520,-0.195
'0:06.514',-0.550,-0.210
'0:06.517',-0.570,-0.220
'0:06.519',-0.600,-0.225
'0:06.522',-0.615,-0.210
'0:06.525',-0.605,-0.220
'0:06.528',-0.595,-0.195
'0:06.531',-0.580,-0.195
'0:06.533',-0.570,-0.195
'0:06.536',-0.575,-0.185
'0:06.539',-0.555,-0.190
'0:06.542',-0.565,-0.190
'0:06.544',-0.570,-0.200
'0:06.547',-0.570,-0.200
'0:06.550',-0.570,-0.215
'0:06.553',-0.580,-0.220
'0:06.556',-0.580,-0.220
'0:06.558',-0.585,-0.195
'0:06.561',-0.580,-0.195
'0:06.564',-0.565,-0.195
'0:06.567',-0.560,-0.190
'0:06.569',-0.555,-0.175
'0:06.572',-0.555,-0.185
'0:06.575',-0.550,-0.200
'0:06.578',-0.550,-0.200
'0:06.581',-0.550,-0.210
'0:06.583',-0.555,-0.215
'0:06.586',-0.575,-0.220
'0:06.589',-0.580,-0.205
'0:06.592',-0.570,-0.215
'0:06.594',-0.560,-0.210
'0:06.597',-0.565,-0.200
'0:06.600',-0.555,-0.195
'0:06.603',-0.545,-0.185
'0:06.606',-0.545,-0.205
'0:06.608',-0.550,-0.200
'0:06.611',-0.550,-0.200
'0:06.614',-0.570,-0.210
'0:06.617',-0.565,-0.215
'0:06.619',-0.565,-0.220
'0:06.622',-0.575,-0.240
'0:06.625',-0.580,-0.210
'0:06.628',-0.565,-0.210
'0:06.631',-0.560,-0.195
'0:06.633',-0.560,-0.195
'0:06.636',-0.550,-0.195
'0:06.639',-0.555,-0.195
'0:06.642',-0.550,-0.205
'0:06.644',-0.550,-0.200
'0:06.647',-0.540,-0.225
'0:06.650',-0.545,-0.225
'0:06.653',-0.555,-0.225
'0:06.656',-0.555,-0.220
'0:06.658',-0.565,-0.225
'0:06.661',-0.545,-0.215
'0:06.664',-0.535,-0.200
'0:06.667',-0.540,-0.200
'0:06.669',-0.540,-0.195
'0:06.672',-0.525,-0.205
'0:06.675',-0.525,-0.200
'0:06.678',-0.530,-0.215
'0:06.681',-0.530,-0.215
'0:06.683',-0.530,-0.225
'0:06.686',-0.540,-0.230
'0:06.689',-0.545,-0.225
'0:06.692',-0.535,-0.215
'0:06.694',-0.535,-0.215
'0:06.697',-0.515,-0.205
'0:06.700',-0.510,-0.200
'0:06.703',-0.500,-0.190
'0:06.706',-0.515,-0.195
'0:06.708',-0.495,-0.205
'0:06.711',-0.490,-0.215
'0:06.714',-0.500,-0.220
'0:06.717',-0.510,-0.225
'0:06.719',-0.510,-0.235
'0:06.722',-0.515,-0.225
'0:06.725',-0.510,-0.225
'0:06.728',-0.505,-0.225
'0:06.731',-0.485,-0.215
'0:06.733',-0.485,-0.210
'0:06.736',-0.475,-0.205
'0:06.739',-0.465,-0.205
'0:06.742',-0.480,-0.205
'0:06.744',-0.465,-0.210
'0:06.747',-0.470,-0.220
'0:06.750',-0.475,-0.235
'0:06.753',-0.480,-0.220
'0:06.756',-0.480,-0.230
'0:06.758',-0.465,-0.225
'0:06.761',-0.465,-0.215
'0:06.764',-0.455,-0.210
'0:06.767',-0.450,-0.220
'0:06.769',-0.450,-0.190
'0:06.772',-0.420,-0.210
'0:06.775',-0.425,-0.210
'0:06.778',-0.420,-0.225
'0:06.781',-0.435,-0.235
'0:06.783',-0.435,-0.230
'0:06.786',-0.440,-0.235
'0:06.789',-0.450,-0.230
'0:06.792',-0.420,-0.235
'0:06.794',-0.425,-0.230
'0:06.797',-0.410,-0.210
'0:06.800',-0.415,-0.205
'0:06.803',-0.405,-0.205
'0:06.806',-0.400,-0.210
'0:06.808',-0.395,-0.210
'0:06.811',-0.395,-0.230
'0:06.814',-0.415,-0.230
'0:06.817',-0.410,-0.235
'0:06.819',-0.420,-0.235
'0:06.822',-0.410,-0.230
'0:06.825',-0.420,-0.230
'0:06.828',-0.415,-0.230
'0:06.831',-0.400,-0.225
'0:06.833',-0.390,-0.220
'0:06.836',-0.375,-0.200
'0:06.839',-0.385,-0.220
'0:06.842',-0.385,-0.220
'0:06.844',-0.405,-0.230
'0:06.847',-0.420,-0.235
'0:06.850',-0.430,-0.235
'0:06.853',-0.450,-0.245
'0:06.856',-0.455,-0.230
'0:06.858',-0.475,-0.220
'0:06.861',-0.485,-0.210
'0:06.864',-0.490,-0.205
'0:06.867',-0.510,-0.200
'0:06.869',-0.515,-0.185
'0:06.872',-0.515,-0.205
'0:06.875',-0.535,-0.200
'0:06.878',-0.550,-0.200
'0:06.881',-0.570,-0.205
'0:06.883',-0.590,-0.215
'0:06.886',-0.595,-0.215
'0:06.889',-0.615,-0.210
'0:06.892',-0.620,-0.210
'0:06.894',-0.625,-0.195
'0:06.897',-0.610,-0.190
'0:06.900',-0.620,-0.185
'0:06.903',-0.620,-0.185
'0:06.906',-0.615,-0.190
'0:06.908',-0.625,-0.175
'0:06.911',-0.645,-0.195
'0:06.914',-0.655,-0.205
'0:06.917',-0.655,-0.205
'0:06.919',-0.665,-0.225
'0:06.922',-0.665,-0.200
'0:06.925',-0.665,-0.205
'0:06.928',-0.650,-0.195
'0:06.931',-0.655,-0.185
'0:06.933',-0.650,-0.185
'0:06.936',-0.635,-0.175
'0:06.939',-0.645,-0.185
'0:06.942',-0.640,-0.190
'0:06.944',-0.650,-0.195
'0:06.947',-0.650,-0.190
'0:06.950',-0.650,-0.200
'0:06.953',-0.660,-0.205
'0:06.956',-0.655,-0.190
'0:06.958',-0.640,-0.190
'0:06.961',-0.635,-0.190
'0:06.964',-0.630,-0.180
'0:06.967',-0.620,-0.180
'0:06.969',-0.605,-0.180
'0:06.972',-0.605,-0.185
'0:06.975',-0.600,-0.185
'0:06.978',-0.595,-0.190
'0:06.981',-0.600,-0.195
'0:06.983',-0.610,-0.200
'0:06.986',-0.610,-0.210
'0:06.989',-0.605,-0.200
'0:06.992',-0.600,-0.210
'0:06.994',-0.595,-0.195
'0:06.997',-0.585,-0.195
'0:07.000',-0.575,-0.195
'0:07.003',-0.570,-0.170
'0:07.006',-0.570,-0.180
'0:07.008',-0.560,-0.195
'0:07.011',-0.560,-0.190
'0:07.014',-0.570,-0.205
'0:07.017',-0.570,-0.200
'0:07.019',-0.580,-0.205
'0:07.022',-0.570,-0.205
'0:07.025',-0.575,-0.195
'0:07.028',-0.565,-0.195
'0:07.031',-0.575,-0.195
'0:07.033',-0.560,-0.185
'0:07.036',-0.550,-0.180
'0:07.039',-0.540,-0.180
'0:07.042',-0.550,-0.185
'0:07.044',-0.555,-0.200
'0:07.047',-0.575,-0.220
'0:07.050',-0.565,-0.220
'0:07.053',-0.580,-0.220
'0:07.056',-0.580,-0.205
'0:07.058',-0.570,-0.220
'0:07.061',-0.575,-0.205
'0:07.064',-0.575,-0.190
'0:07.067',-0.575,-0.190
'0:07.069',-0.565,-0.190
'0:07.072',-0.565,-0.195
'0:07.075',-0.570,-0.195
'0:07.078',-0.570,-0.200
'0:07.081',-0.580,-0.215
'0:07.083',-0.585,-0.215
'0:07.086',-0.590,-0.225
'0:07.089',-0.600,-0.225
'0:07.092',-0.610,-0.225
'0:07.094',-0.595,-0.215
'0:07.097',-0.595,-0.205
'0:07.100',-0.585,-0.200
'0:07.103',-0.585,-0.195
'0:07.106',-0.570,-0.205
'0:07.108',-0.580,-0.200
'0:07.111',-0.585,-0.205
'0:07.114',-0.600,-0.215
'0:07.117',-0.600,-0.220
'0:07.119',-0.595,-0.230
'0:07.122',-0.600,-0.225
'0:07.125',-0.605,-0.220
'0:07.128',-0.600,-0.215
'0:07.131',-0.595,-0.215
'0:07.133',-0.590,-0.195
'0:07.136',-0.590,-0.200
'0:07.139',-0.580,-0.200
'0:07.142',-0.595,-0.195
'0:07.144',-0.590,-0.205
'0:07.147',-0.600,-0.215
'0:07.150',-0.610,-0.215
'0:07.153',-0.610,-0.230
'0:07.156',-0.600,-0.225
'0:07.158',-0.610,-0.210
'0:07.161',-0.605,-0.205
'0:07.164',-0.595,-0.205
'0:07.167',-0.585,-0.205
'0:07.169',-0.570,-0.205
'0:07.172',-0.580,-0.200
'0:07.175',-0.590,-0.205
'0:07.178',-0.595,-0.220
'0:07.181',-0.600,-0.225
'0:07.183',-0.590,-0.230
'0:07.186',-0.610,-0.235
'0:07.189',-0.610,-0.225
'0:07.192',-0.605,-0.235
'0:07.194',-0.600,-0.215
'0:07.197',-0.600,-0.205
'0:07.200',-0.595,-0.195
'0:07.203',-0.590,-0.190
'0:07.206',-0.580,-0.205
'0:07.208',-0.575,-0.210
'0:07.211',-0.585,-0.200
'0:07.214',-0.585,-0.215
'0:07.217',-0.580,-0.225
'0:07.219',-0.580,-0.220
'0:07.222',-0.590,-0.220
'0:07.225',-0.590,-0.225
'0:07.228',-0.575,-0.210
'0:07.231',-0.580,-0.215
'0:07.233',-0.565,-0.215
'0:07.236',-0.560,-0.205
'0:07.239',-0.560,-0.205
'0:07.242',-0.565,-0.200
'0:07.244',-0.550,-0.210
'0:07.247',-0.565,-0.220
'0:07.250',-0.560,-0.220
'0:07.253',-0.575,-0.230
'0:07.256',-0.565,-0.215
'0:07.258',-0.570,-0.225
'0:07.261',-0.570,-0.210
'0:07.264',-0.565,-0.190
'0:07.267',-0.560,-0.180
'0:07.269',-0.555,-0.170
'0:07.272',-0.555,-0.170
'0:07.275',-0.545,-0.170
'0:07.278',-0.540,-0.165
'0:07.281',-0.535,-0.160
'0:07.283',-0.530,-0.165
'0:07.286',-0.535,-0.160
'0:07.289',-0.525,-0.155
'0:07.292',-0.520,-0.155
'0:07.294',-0.510,-0.145
'0:07.297',-0.500,-0.155
'0:07.300',-0.475,-0.160
'0:07.303',-0.455,-0.165
'0:07.306',-0.440,-0.185
'0:07.308',-0.425,-0.195
'0:07.311',-0.425,-0.215
'0:07.314',-0.415,-0.210
'0:07.317',-0.415,-0.220
'0:07.319',-0.410,-0.220
'0:07.322',-0.420,-0.205
'0:07.325',-0.410,-0.210
'0:07.328',-0.420,-0.200
'0:07.331',-0.425,-0.185
'0:07.333',-0.415,-0.180
'0:07.336',-0.415,-0.185
'0:07.339',-0.415,-0.185
'0:07.342',-0.415,-0.185
'0:07.344',-0.415,-0.205
'0:07.347',-0.415,-0.200
'0:07.350',-0.410,-0.215
'0:07.353',-0.430,-0.225
'0:07.356',-0.435,-0.230
'0:07.358',-0.460,-0.210
'0:07.361',-0.445,-0.220
'0:07.364',-0.455,-0.225
'0:07.367',-0.460,-0.205
'0:07.369',-0.475,-0.210
'0:07.372',-0.480,-0.215
'0:07.375',-0.485,-0.220
'0:07.378',-0.510,-0.235
'0:07.381',-0.510,-0.230
'0:07.383',-0.505,-0.225
'0:07.386',-0.545,-0.240
'0:07.389',-0.535,-0.235
'0:07.392',-0.515,-0.235
'0:07.394',-0.525,-0.230
'0:07.397',-0.515,-0.225
'0:07.400',-0.515,-0.225
'0:07.403',-0.505,-0.225
'0:07.406',-0.505,-0.220
'0:07.408',-0.510,-0.215
'0:07.411',-0.515,-0.230
'0:07.414',-0.530,-0.225
'0:07.417',-0.530,-0.240
'0:07.419',-0.535,-0.240
'0:07.422',-0.535,-0.235
'0:07.425',-0.535,-0.230
'0:07.428',-0.535,-0.235
'0:07.431',-0.535,-0.220
'0:07.433',-0.520,-0.200
'0:07.436',-0.510,-0.210
'0:07.439',-0.515,-0.210
'0:07.442',-0.510,-0.215
'0:07.444',-0.495,-0.225
'0:07.447',-0.500,-0.220
'0:07.450',-0.515,-0.220
'0:07.453',-0.495,-0.225
'0:07.456',-0.495,-0.200
'0:07.458',-0.480,-0.200
'0:07.461',-0.470,-0.185
'0:07.464',-0.450,-0.165
'0:07.467',-0.440,-0.185
'0:07.469',-0.425,-0.215
'0:07.472',-0.410,-0.275
'0:07.475',-0.370,-0.350
'0:07.478',-0.310,-0.450
'0:07.481',-0.210,-0.560
'0:07.483',-0.055,-0.660
'0:07.486',0.175,-0.710
'0:07.489',0.470,-0.715
'0:07.492',0.850,-0.680
'0:07.494',1.240,-0.610
'0:07.497',1.580,-0.510
'0:07.500',1.765,-0.410
'0:07.503',1.735,-0.315
'0:07.506',1.415,-0.260
'0:07.508',0.860,-0.225
'0:07.511',0.220,-0.230
'0:07.514',-0.420,-0.260
'0:07.517',-1.025,-0.295
'0:07.519',-1.270,-0.325
'0:07.522',-1.235,-0.315
'0:07.525',-1.045,-0.285
'0:07.528',-0.785,-0.245
'0:07.531',-0.560,-0.205
'0:07.533',-0.410,-0.160
'0:07.536',-0.325,-0.130
'0:07.539',-0.300,-0.130
'0:07.542',-0.310,-0.145
'0:07.544',-0.325,-0.145
'0:07.547',-0.370,-0.160
'0:07.550',-0.400,-0.180
'0:07.553',-0.415,-0.185
'0:07.556',-0.415,-0.175
'0:07.558',-0.415,-0.160
'0:07.561',-0.395,-0.160
'0:07.564',-0.390,-0.150
'0:07.567',-0.370,-0.140
'0:07.569',-0.370,-0.150
'0:07.572',-0.365,-0.145
'0:07.575',-0.375,-0.145
'0:07.578',-0.380,-0.160
'0:07.581',-0.385,-0.170
'0:07.583',-0.370,-0.170
'0:07.586',-0.390,-0.175
'0:07.589',-0.400,-0.185
'0:07.592',-0.390,-0.175
'0:07.594',-0.395,-0.155
'0:07.597',-0.385,-0.160
'0:07.600',-0.370,-0.145
'0:07.603',-0.360,-0.150
'0:07.606',-0.365,-0.155
'0:07.608',-0.360,-0.160
'0:07.611',-0.365,-0.160
'0:07.614',-0.370,-0.165
'0:07.617',-0.360,-0.175
'0:07.619',-0.370,-0.185
'0:07.622',-0.370,-0.185
'0:07.625',-0.380,-0.175
'0:07.628',-0.365,-0.175
'0:07.631',-0.355,-0.165
'0:07.633',-0.360,-0.165
'0:07.636',-0.350,-0.140
'0:07.639',-0.335,-0.160
'0:07.642',-0.340,-0.160
'0:07.644',-0.330,-0.165
'0:07.647',-0.345,-0.175
'0:07.650',-0.340,-0.185
'0:07.653',-0.345,-0.175
'0:07.656',-0.345,-0.185
'0:07.658',-0.360,-0.185
'0:07.661',-0.370,-0.180
'0:07.664',-0.340,-0.165
'0:07.667',-0.355,-0.160
'0:07.669',-0.340,-0.160
'0:07.672',-0.325,-0.170
'0:07.675',-0.330,-0.170
'0:07.678',-0.335,-0.175
'0:07.681',-0.330,-0.185
'0:07.683',-0.335,-0.190
'0:07.686',-0.350,-0.195
'0:07.689',-0.365,-0.185
'0:07.692',-0.340,-0.185
'0:07.694',-0.345,-0.185
'0:07.697',-0.325,-0.175
'0:07.700',-0.325,-0.170
'0:07.703',-0.320,-0.165
'0:07.706',-0.300,-0.170
'0:07.708',-0.300,-0.175
'0:07.711',-0.295,-0.180
'0:07.714',-0.295,-0.190
'0:07.717',-0.310,-0.190
'0:07.719',-0.320,-0.200
'0:07.722',-0.325,-0.190
'0:07.725',-0.335,-0.185
'0:07.728',-0.315,-0.185
'0:07.731',-0.305,-0.185
'0:07.733',-0.290,-0.180
'0:07.736',-0.280,-0.165
'0:07.739',-0.280,-0.170
'0:07.742',-0.270,-0.180
'0:07.744',-0.270,-0.180
'0:07.747',-0.280,-0.180
'0:07.750',-0.280,-0.195
'0:07.753',-0.280,-0.200
'0:07.756',-0.290,-0.205
'0:07.758',-0.280,-0.195
'0:07.761',-0.285,-0.185
'0:07.764',-0.280,-0.185
'0:07.767',-0.265,-0.180
'0:07.769',-0.255,-0.165
'0:07.772',-0.230,-0.170
'0:07.775',-0.230,-0.180
'0:07.778',-0.230,-0.190
'0:07.781',-0.230,-0.195
'0:07.783',-0.235,-0.200
'0:07.786',-0.235,-0.200
'0:07.789',-0.245,-0.205
'0:07.792',-0.230,-0.195
'0:07.794',-0.235,-0.195
'0:07.797',-0.215,-0.195
'0:07.800',-0.210,-0.185
'0:07.803',-0.205,-0.190
'0:07.806',-0.200,-0.180
'0:07.808',-0.215,-0.195
'0:07.811',-0.200,-0.190
'0:07.814',-0.200,-0.205
'0:07.817',-0.210,-0.190
'0:07.819',-0.215,-0.205
'0:07.822',-0.220,-0.210
'0:07.825',-0.230,-0.205
'0:07.828',-0.225,-0.210
'0:07.831',-0.225,-0.195
'0:07.833',-0.215,-0.200
'0:07.836',-0.215,-0.195
'0:07.839',-0.200,-0.200
'0:07.842',-0.190,-0.200
'0:07.844',-0.190,-0.195
'0:07.847',-0.200,-0.215
'0:07.850',-0.210,-0.225
'0:07.853',-0.220,-0.220
'0:07.856',-0.210,-0.220
'0:07.858',-0.200,-0.215
'0:07.861',-0.215,-0.210
'0:07.864',-0.220,-0.200
'0:07.867',-0.215,-0.195
'0:07.869',-0.210,-0.185
'0:07.872',-0.220,-0.195
'0:07.875',-0.225,-0.190
'0:07.878',-0.240,-0.205
'0:07.881',-0.260,-0.210
'0:07.883',-0.275,-0.210
'0:07.886',-0.305,-0.205
'0:07.889',-0.295,-0.195
'0:07.892',-0.320,-0.185
'0:07.894',-0.330,-0.185
'0:07.897',-0.340,-0.165
'0:07.900',-0.340,-0.155
'0:07.903',-0.345,-0.160
'0:07.906',-0.345,-0.160
'0:07.908',-0.360,-0.180
'0:07.911',-0.380,-0.170
'0:07.914',-0.405,-0.170
'0:07.917',-0.395,-0.185
'0:07.919',-0.420,-0.175
'0:07.922',-0.420,-0.190
'0:07.925',-0.430,-0.175
'0:07.928',-0.425,-0.180
'0:07.931',-0.430,-0.180
'0:07.933',-0.430,-0.170
'0:07.936',-0.425,-0.165
'0:07.939',-0.420,-0.165
'0:07.942',-0.425,-0.170
'0:07.944',-0.430,-0.170
'0:07.947',-0.430,-0.180
'0:07.950',-0.435,-0.190
'0:07.953',-0.455,-0.185
'0:07.956',-0.455,-0.185
'0:07.958',-0.455,-0.185
'0:07.961',-0.450,-0.170
'0:07.964',-0.440,-0.165
'0:07.967',-0.435,-0.160
'0:07.969',-0.430,-0.150
'0:07.972',-0.410,-0.150
'0:07.975',-0.420,-0.170
'0:07.978',-0.420,-0.170
'0:07.981',-0.430,-0.180
'0:07.983',-0.425,-0.190
'0:07.986',-0.440,-0.185
'0:07.989',-0.445,-0.190
'0:07.992',-0.435,-0.185
'0:07.994',-0.430,-0.170
'0:07.997',-0.425,-0.160
'0:08.000',-0.420,-0.155
'0:08.003',-0.410,-0.155
'0:08.006',-0.400,-0.160
'0:08.008',-0.400,-0.165
'0:08.011',-0.395,-0.170
'0:08.014',-0.405,-0.180
'0:08.017',-0.405,-0.185
'0:08.019',-0.410,-0.195
'0:08.022',-0.395,-0.185
'0:08.025',-0.400,-0.200
'0:08.028',-0.395,-0.175
'0:08.031',-0.400,-0.170
'0:08.033',-0.395,-0.170
'0:08.036',-0.390,-0.160
'0:08.039',-0.375,-0.170
'0:08.042',-0.380,-0.170
'0:08.044',-0.380,-0.170
'0:08.047',-0.390,-0.175
'0:08.050',-0.395,-0.190
'0:08.053',-0.390,-0.205
'0:08.056',-0.405,-0.195
'0:08.058',-0.390,-0.200
'0:08.061',-0.390,-0.180
'0:08.064',-0.395,-0.185
'0:08.067',-0.390,-0.180
'0:08.069',-0.390,-0.185
'0:08.072',-0.395,-0.180
'0:08.075',-0.380,-0.175
'0:08.078',-0.400,-0.190
'0:08.081',-0.400,-0.200
'0:08.083',-0.400,-0.195
'0:08.086',-0.415,-0.205
'0:08.089',-0.420,-0.205
'0:08.092',-0.430,-0.200
'0:08.094',-0.415,-0.195
'0:08.097',-0.415,-0.195
'0:08.100',-0.410,-0.195
'0:08.103',-0.405,-0.185
'0:08.106',-0.395,-0.185
'0:08.108',-0.400,-0.185
'0:08.111',-0.405,-0.195
'0:08.114',-0.410,-0.200
'0:08.117',-0.415,-0.215
'0:08.119',-0.425,-0.215
'0:08.122',-0.435,-0.215
'0:08.125',-0.435,-0.205
'0:08.128',-0.425,-0.205
'0:08.131',-0.415,-0.190
'0:08.133',-0.415,-0.185
'0:08.136',-0.410,-0.185
'0:08.139',-0.410,-0.180
'0:08.142',-0.420,-0.195
'0:08.144',-0.405,-0.200
'0:08.147',-0.415,-0.205
'0:08.150',-0.425,-0.215
'0:08.153',-0.435,-0.215
'0:08.156',-0.445,-0.215
'0:08.158',-0.440,-0.200
'0:08.161',-0.435,-0.205
'0:08.164',-0.435,-0.195
'0:08.167',-0.425,-0.185
'0:08.169',-0.450,-0.185
'0:08.172',-0.430,-0.180
'0:08.175',-0.415,-0.200
'0:08.178',-0.415,-0.200
'0:08.181',-0.420,-0.210
'0:08.183',-0.435,-0.210
'0:08.186',-0.440,-0.210
'0:08.189',-0.450,-0.215
'0:08.192',-0.460,-0.200
'0:08.194',-0.445,-0.200
'0:08.197',-0.440,-0.195
'0:08.200',-0.430,-0.210
'0:08.203',-0.430,-0.185
'0:08.206',-0.415,-0.200
'0:08.208',-0.425,-0.190
'0:08.211',-0.420,-0.190
'0:08.214',-0.435,-0.205
'0:08.217',-0.430,-0.215
'0:08.219',-0.450,-0.220
'0:08.222',-0.455,-0.215
'0:08.225',-0.450,-0.205
'0:08.228',-0.445,-0.205
'0:08.231',-0.440,-0.205
'0:08.233',-0.435,-0.205
'0:08.236',-0.430,-0.195
'0:08.239',-0.425,-0.200
'0:08.242',-0.430,-0.200
'0:08.244',-0.440,-0.195
'0:08.247',-0.435,-0.205
'0:08.250',-0.445,-0.220
'0:08.253',-0.435,-0.215
'0:08.256',-0.460,-0.225
'0:08.258',-0.450,-0.210
'0:08.261',-0.455,-0.210
'0:08.264',-0.455,-0.205
'0:08.267',-0.450,-0.200
'0:08.269',-0.435,-0.180
'0:08.272',-0.430,-0.195
'0:08.275',-0.440,-0.195
'0:08.278',-0.445,-0.200
'0:08.281',-0.440,-0.215
'0:08.283',-0.440,-0.215
'0:08.286',-0.455,-0.210
'0:08.289',-0.455,-0.205
'0:08.292',-0.460,-0.195
'0:08.294',-0.445,-0.185
'0:08.297',-0.435,-0.155
'0:08.300',-0.425,-0.145
'0:08.303',-0.410,-0.135
'0:08.306',-0.405,-0.130
'0:08.308',-0.400,-0.130
'0:08.311',-0.380,-0.140
'0:08.314',-0.380,-0.135
'0:08.317',-0.380,-0.145
'0:08.319',-0.380,-0.155
'0:08.322',-0.360,-0.180
'0:08.325',-0.345,-0.185
'0:08.328',-0.345,-0.195
'0:08.331',-0.325,-0.195
'0:08.333',-0.305,-0.200
'0:08.336',-0.305,-0.205
'0:08.339',-0.295,-0.200
'0:08.342',-0.280,-0.195
'0:08.344',-0.280,-0.190
'0:08.347',-0.285,-0.190
'0:08.350',-0.290,-0.190
'0:08.353',-0.320,-0.200
'0:08.356',-0.320,-0.195
'0:08.358',-0.330,-0.205
'0:08.361',-0.330,-0.185
'0:08.364',-0.320,-0.185
'0:08.367',-0.315,-0.185
'0:08.369',-0.300,-0.185
'0:08.372',-0.305,-0.190
'0:08.375',-0.320,-0.195
'0:08.378',-0.335,-0.210
'0:08.381',-0.345,-0.215
'0:08.383',-0.370,-0.215
'0:08.386',-0.390,-0.230
'0:08.389',-0.410,-0.235
'0:08.392',-0.430,-0.230
'0:08.394',-0.440,-0.220
'0:08.397',-0.440,-0.225
'0:08.400',-0.440,-0.225
'0:08.403',-0.425,-0.210
'0:08.406',-0.420,-0.215
'0:08.408',-0.425,-0.215
'0:08.411',-0.425,-0.220
'0:08.414',-0.425,-0.225
'0:08.417',-0.435,-0.235
'0:08.419',-0.445,-0.245
'0:08.422',-0.455,-0.240
'0:08.425',-0.465,-0.225
'0:08.428',-0.465,-0.230
'0:08.431',-0.455,-0.220
'0:08.433',-0.455,-0.210
'0:08.436',-0.440,-0.200
'0:08.439',-0.435,-0.200
'0:08.442',-0.430,-0.220
'0:08.444',-0.430,-0.215
'0:08.447',-0.440,-0.225
'0:08.450',-0.440,-0.230
'0:08.453',-0.455,-0.230
'0:08.456',-0.450,-0.230
'0:08.458',-0.460,-0.230
'0:08.461',-0.445,-0.215
'0:08.464',-0.435,-0.210
'0:08.467',-0.420,-0.195
'0:08.469',-0.405,-0.195
'0:08.472',-0.400,-0.170
'0:08.475',-0.400,-0.175
'0:08.478',-0.390,-0.155
'0:08.481',-0.385,-0.170
'0:08.483',-0.380,-0.180
'0:08.486',-0.380,-0.210
'0:08.489',-0.370,-0.265
'0:08.492',-0.340,-0.335
'0:08.494',-0.290,-0.430
'0:08.497',-0.185,-0.530
'0:08.500',-0.030,-0.615
'0:08.503',0.200,-0.665
'0:08.506',0.510,-0.675
'0:08.508',0.875,-0.665
'0:08.511',1.270,-0.610
'0:08.514',1.600,-0.520
'0:08.517',1.790,-0.430
'0:08.519',1.800,-0.335
'0:08.522',1.590,-0.270
'0:08.525',1.145,-0.235
'0:08.528',0.545,-0.200
'0:08.531',-0.095,-0.220
'0:08.533',-0.715,-0.235
'0:08.536',-1.090,-0.255
'0:08.539',-1.210,-0.270
'0:08.542',-1.130,-0.275
'0:08.544',-0.920,-0.245
'0:08.547',-0.680,-0.215
'0:08.550',-0.475,-0.175
'0:08.553',-0.340,-0.160
'0:08.556',-0.280,-0.155
'0:08.558',-0.280,-0.135
'0:08.561',-0.295,-0.145
'0:08.564',-0.325,-0.150
'0:08.567',-0.360,-0.140
'0:08.569',-0.375,-0.150
'0:08.572',-0.375,-0.140
'0:08.575',-0.385,-0.145
'0:08.578',-0.375,-0.140
'0:08.581',-0.375,-0.150
'0:08.583',-0.360,-0.150
'0:08.586',-0.375,-0.160
'0:08.589',-0.370,-0.155
'0:08.592',-0.370,-0.150
'0:08.594',-0.360,-0.155
'0:08.597',-0.350,-0.145
'0:08.600',-0.350,-0.140
'0:08.603',-0.345,-0.135
'0:08.606',-0.345,-0.135
'0:08.608',-0.345,-0.140
'0:08.611',-0.340,-0.135
'0:08.614',-0.355,-0.150
'0:08.617',-0.355,-0.155
'0:08.619',-0.360,-0.160
'0:08.622',-0.375,-0.160
'0:08.625',-0.360,-0.155
'0:08.628',-0.355,-0.150
'0:08.631',-0.355,-0.145
'0:08.633',-0.340,-0.140
'0:08.636',-0.335,-0.135
'0:08.639',-0.330,-0.130
'0:08.642',-0.335,-0.145
'0:08.644',-0.345,-0.160
'0:08.647',-0.340,-0.160
'0:08.650',-0.345,-0.155
'0:08.653',-0.350,-0.170
'0:08.656',-0.350,-0.160
'0:08.658',-0.350,-0.165
'0:08.661',-0.350,-0.155
'0:08.664',-0.350,-0.155
'0:08.667',-0.345,-0.150
'0:08.669',-0.340,-0.130
'0:08.672',-0.335,-0.140
'0:08.675',-0.350,-0.135
'0:08.678',-0.335,-0.145
'0:08.681',-0.355,-0.155
'0:08.683',-0.340,-0.155
'0:08.686',-0.370,-0.170
'0:08.689',-0.360,-0.175
'0:08.692',-0.360,-0.165
'0:08.694',-0.350,-0.155
'0:08.697',-0.335,-0.160
'0:08.700',-0.345,-0.150
'0:08.703',-0.350,-0.145
'0:08.706',-0.335,-0.135
'0:08.708',-0.325,-0.150
'0:08.711',-0.330,-0.155
'0:08.714',-0.335,-0.170
'0:08.717',-0.335,-0.170
'0:08.719',-0.340,-0.175
'0:08.722',-0.350,-0.180
'0:08.725',-0.345,-0.170
'0:08.728',-0.340,-0.165
'0:08.731',-0.340,-0.160
'0:08.733',-0.335,-0.150
'0:08.736',-0.330,-0.155
'0:08.739',-0.310,-0.140
'0:08.742',-0.310,-0.165
'0:08.744',-0.335,-0.165
'0:08.747',-0.335,-0.170
'0:08.750',-0.330,-0.175
'0:08.753',-0.325,-0.175
'0:08.756',-0.335,-0.180
'0:08.758',-0.335,-0.180
'0:08.761',-0.340,-0.170
'0:08.764',-0.330,-0.160
'0:08.767',-0.320,-0.155
'0:08.769',-0.315,-0.155
'0:08.772',-0.295,-0.145
'0:08.775',-0.290,-0.155
'0:08.778',-0.285,-0.165
'0:08.781',-0.295,-0.170
'0:08.783',-0.295,-0.180
'0:08.786',-0.285,-0.180
'0:08.789',-0.295,-0.165
'0:08.792',-0.305,-0.170
'0:08.794',-0.295,-0.165
'0:08.797',-0.280,-0.160
'0:08.800',-0.275,-0.150
'0:08.803',-0.270,-0.160
'0:08.806',-0.275,-0.170
'0:08.808',-0.280,-0.170
'0:08.811',-0.270,-0.165
'0:08.814',-0.265,-0.185
'0:08.817',-0.265,-0.175
'0:08.819',-0.275,-0.190
'0:08.822',-0.280,-0.185
'0:08.825',-0.275,-0.190
'0:08.828',-0.275,-0.190
'0:08.831',-0.260,-0.180
'0:08.833',-0.255,-0.175
'0:08.836',-0.245,-0.170
'0:08.839',-0.245,-0.175
'0:08.842',-0.230,-0.180
'0:08.844',-0.250,-0.180
'0:08.847',-0.245,-0.190
'0:08.850',-0.260,-0.185
'0:08.853',-0.255,-0.200
'0:08.856',-0.275,-0.195
'0:08.858',-0.270,-0.190
'0:08.861',-0.265,-0.190
'0:08.864',-0.270,-0.190
'0:08.867',-0.255,-0.185
'0:08.869',-0.250,-0.170
'0:08.872',-0.245,-0.175
'0:08.875',-0.255,-0.180
'0:08.878',-0.260,-0.190
'0:08.881',-0.265,-0.195
'0:08.883',-0.260,-0.205
'0:08.886',-0.255,-0.200
'0:08.889',-0.265,-0.210
'0:08.892',-0.275,-0.195
'0:08.894',-0.280,-0.195
'0:08.897',-0.280,-0.175
'0:08.900',-0.290,-0.150
'0:08.903',-0.295,-0.150
'0:08.906',-0.310,-0.150
'0:08.908',-0.330,-0.155
'0:08.911',-0.335,-0.155
'0:08.914',-0.360,-0.165
'0:08.917',-0.390,-0.165
'0:08.919',-0.405,-0.165
'0:08.922',-0.415,-0.170
'0:08.925',-0.430,-0.165
'0:08.928',-0.435,-0.155
'0:08.931',-0.450,-0.145
'0:08.933',-0.460,-0.140
'0:08.936',-0.460,-0.130
'0:08.939',-0.465,-0.140
'0:08.942',-0.465,-0.140
'0:08.944',-0.465,-0.135
'0:08.947',-0.490,-0.140
'0:08.950',-0.505,-0.155
'0:08.953',-0.505,-0.165
'0:08.956',-0.520,-0.155
'0:08.958',-0.515,-0.150
'0:08.961',-0.515,-0.160
'0:08.964',-0.515,-0.130
'0:08.967',-0.505,-0.140
'0:08.969',-0.500,-0.130
'0:08.972',-0.495,-0.125
'0:08.975',-0.505,-0.135
'0:08.978',-0.505,-0.125
'0:08.981',-0.510,-0.145
'0:08.983',-0.525,-0.145
'0:08.986',-0.520,-0.155
'0:08.989',-0.525,-0.155
'0:08.992',-0.530,-0.145
'0:08.994',-0.530,-0.140
'0:08.997',-0.520,-0.125
'0:09.000',-0.515,-0.135
'0:09.003',-0.510,-0.130
'0:09.006',-0.500,-0.125
'0:09.008',-0.495,-0.125
'0:09.011',-0.495,-0.130
'0:09.014',-0.500,-0.150
'0:09.017',-0.505,-0.160
'0:09.019',-0.515,-0.150
'0:09.022',-0.510,-0.160
'0:09.025',-0.505,-0.145
'0:09.028',-0.505,-0.150
'0:09.031',-0.490,-0.140
'0:09.033',-0.505,-0.140
'0:09.036',-0.495,-0.145
'0:09.039',-0.470,-0.120
'0:09.042',-0.475,-0.135
'0:09.044',-0.470,-0.150
'0:09.047',-0.485,-0.150
'0:09.050',-0.490,-0.160
'0:09.053',-0.490,-0.150
'0:09.056',-0.495,-0.160
'0:09.058',-0.490,-0.165
'0:09.061',-0.495,-0.150
'0:09.064',-0.490,-0.145
'0:09.067',-0.480,-0.145
'0:09.069',-0.470,-0.135
'0:09.072',-0.470,-0.140
'0:09.075',-0.475,-0.150
'0:09.078',-0.460,-0.145
'0:09.081',-0.465,-0.160
'0:09.083',-0.470,-0.165
'0:09.086',-0.495,-0.175
'0:09.089',-0.500,-0.180
'0:09.092',-0.495,-0.165
'0:09.094',-0.500,-0.160
'0:09.097',-0.500,-0.160
'0:09.100',-0.495,-0.145
'0:09.103',-0.500,-0.150
'0:09.106',-0.480,-0.140
'0:09.108',-0.490,-0.160
'0:09.111',-0.495,-0.150
'0:09.114',-0.515,-0.155
'0:09.117',-0.530,-0.175
'0:09.119',-0.540,-0.180
'0:09.122',-0.535,-0.175
'0:09.125',-0.535,-0.170
'0:09.128',-0.530,-0.170
'0:09.131',-0.530,-0.165
'0:09.133',-0.520,-0.155
'0:09.136',-0.525,-0.145
'0:09.139',-0.505,-0.155
'0:09.142',-0.505,-0.155
'0:09.144',-0.520,-0.155
'0:09.147',-0.530,-0.165
'0:09.150',-0.530,-0.185
'0:09.153',-0.530,-0.190
'0:09.156',-0.540,-0.190
'0:09.158',-0.545,-0.185
'0:09.161',-0.545,-0.180
'0:09.164',-0.540,-0.170
'0:09.167',-0.535,-0.170
'0:09.169',-0.540,-0.150
'0:09.172',-0.530,-0.155
'0:09.175',-0.535,-0.165
'0:09.178',-0.540,-0.180
'0:09.181',-0.540,-0.175
'0:09.183',-0.540,-0.185
'0:09.186',-0.545,-0.185
'0:09.189',-0.555,-0.185
'0:09.192',-0.555,-0.170
'0:09.194',-0.555,-0.180
'0:09.197',-0.550,-0.165
'0:09.200',-0.540,-0.165
'0:09.203',-0.555,-0.165
'0:09.206',-0.545,-0.150
'0:09.208',-0.555,-0.155
'0:09.211',-0.555,-0.155
'0:09.214',-0.565,-0.170
'0:09.217',-0.565,-0.175
'0:09.219',-0.570,-0.175
'0:09.222',-0.590,-0.170
'0:09.225',-0.570,-0.155
'0:09.228',-0.565,-0.145
'0:09.231',-0.555,-0.125
'0:09.233',-0.540,-0.110
'0:09.236',-0.525,-0.110
'0:09.239',-0.505,-0.100
'0:09.242',-0.500,-0.100
'0:09.244',-0.490,-0.105
'0:09.247',-0.490,-0.110
'0:09.250',-0.490,-0.120
'0:09.253',-0.495,-0.150
'0:09.256',-0.495,-0.160
'0:09.258',-0.490,-0.170
'0:09.261',-0.480,-0.170
'0:09.264',-0.460,-0.175
'0:09.267',-0.445,-0.180
'0:09.269',-0.420,-0.165
'0:09.272',-0.415,-0.135
'0:09.275',-0.400,-0.140
'0:09.278',-0.405,-0.150
'0:09.281',-0.420,-0.145
'0:09.283',-0.440,-0.155
'0:09.286',-0.450,-0.170
'0:09.289',-0.435,-0.170
'0:09.292',-0.455,-0.165
'0:09.294',-0.430,-0.175
'0:09.297',-0.425,-0.160
'0:09.300',-0.425,-0.155
'0:09.303',-0.415,-0.155
'0:09.306',-0.410,-0.160
'0:09.308',-0.415,-0.165
'0:09.311',-0.420,-0.165
'0:09.314',-0.455,-0.185
'0:09.317',-0.480,-0.185
'0:09.319',-0.520,-0.200
'0:09.322',-0.535,-0.190
'0:09.325',-0.550,-0.190
'0:09.328',-0.565,-0.190
'0:09.331',-0.570,-0.190
'0:09.333',-0.570,-0.175
'0:09.336',-0.560,-0.185
'0:09.339',-0.550,-0.170
'0:09.342',-0.540,-0.185
'0:09.344',-0.540,-0.175
'0:09.347',-0.560,-0.195
'0:09.350',-0.565,-0.200
'0:09.353',-0.575,-0.200
'0:09.356',-0.580,-0.205
'0:09.358',-0.595,-0.195
'0:09.361',-0.590,-0.185
'0:09.364',-0.590,-0.180
'0:09.367',-0.590,-0.180
'0:09.369',-0.575,-0.180
'0:09.372',-0.580,-0.160
'0:09.375',-0.575,-0.185
'0:09.378',-0.585,-0.175
'0:09.381',-0.595,-0.180
'0:09.383',-0.600,-0.190
'0:09.386',-0.605,-0.195
'0:09.389',-0.595,-0.195
'0:09.392',-0.600,-0.195
'0:09.394',-0.585,-0.180
'0:09.397',-0.590,-0.180
'0:09.400',-0.580,-0.180
'0:09.403',-0.570,-0.170
'0:09.406',-0.555,-0.175
'0:09.408',-0.560,-0.180
'0:09.411',-0.545,-0.165
'0:09.414',-0.545,-0.175
'0:09.417',-0.545,-0.170
'0:09.419',-0.555,-0.170
'0:09.422',-0.540,-0.155
'0:09.425',-0.550,-0.150
'0:09.428',-0.535,-0.165
'0:09.431',-0.525,-0.180
'0:09.433',-0.505,-0.225
'0:09.436',-0.480,-0.270
'0:09.439',-0.445,-0.345
'0:09.442',-0.365,-0.435
'0:09.444',-0.255,-0.530
'0:09.447',-0.085,-0.605
'0:09.450',0.165,-0.635
'0:09.453',0.495,-0.620
'0:09.456',0.875,-0.570
'0:09.458',1.240,-0.485
'0:09.461',1.540,-0.400
'0:09.464',1.710,-0.300
'0:09.467',1.655,-0.215
'0:09.469',1.365,-0.175
'0:09.472',0.855,-0.140
'0:09.475',0.215,-0.140
'0:09.478',-0.425,-0.150
'0:09.481',-1.015,-0.185
'0:09.483',-1.325,-0.205
'0:09.486',-1.370,-0.225
'0:09.489',-1.210,-0.245
'0:09.492',-0.975,-0.235
'0:09.494',-0.745,-0.225
'0:09.497',-0.570,-0.175
'0:09.500',-0.465,-0.155
'0:09.503',-0.415,-0.120
'0:09.506',-0.415,-0.110
'0:09.508',-0.445,-0.125
'0:09.511',-0.475,-0.125
'0:09.514',-0.495,-0.145
'0:09.517',-0.500,-0.155
'0:09.519',-0.510,-0.155
'0:09.522',-0.520,-0.160
'0:09.525',-0.520,-0.155
'0:09.528',-0.520,-0.155
'0:09.531',-0.515,-0.145
'0:09.533',-0.495,-0.135
'0:09.536',-0.490,-0.140
'0:09.539',-0.480,-0.130
'0:09.542',-0.475,-0.140
'0:09.544',-0.480,-0.145
'0:09.547',-0.485,-0.145
'0:09.550',-0.490,-0.160
'0:09.553',-0.500,-0.160
'0:09.556',-0.495,-0.170
'0:09.558',-0.500,-0.170
'0:09.561',-0.495,-0.155
'0:09.564',-0.490,-0.155
'0:09.567',-0.485,-0.150
'0:09.569',-0.470,-0.150
'0:09.572',-0.460,-0.135
'0:09.575',-0.470,-0.140
'0:09.578',-0.470,-0.150
'0:09.581',-0.470,-0.155
'0:09.583',-0.475,-0.160
'0:09.586',-0.475,-0.155
'0:09.589',-0.490,-0.175
'0:09.592',-0.485,-0.160
'0:09.594',-0.490,-0.165
'0:09.597',-0.475,-0.160
'0:09.600',-0.475,-0.150
'0:09.603',-0.465,-0.150
'0:09.606',-0.455,-0.150
'0:09.608',-0.460,-0.150
'0:09.611',-0.470,-0.160
'0:09.614',-0.475,-0.160
'0:09.617',-0.485,-0.165
'0:09.619',-0.480,-0.180
'0:09.622',-0.495,-0.180
'0:09.625',-0.505,-0.175
'0:09.628',-0.490,-0.180
'0:09.631',-0.495,-0.165
'0:09.633',-0.480,-0.160
'0:09.636',-0.475,-0.155
'0:09.639',-0.485,-0.165
'0:09.642',-0.475,-0.155
'0:09.644',-0.455,-0.165
'0:09.647',-0.460,-0.170
'0:09.650',-0.470,-0.170
'0:09.653',-0.480,-0.180
'0:09.656',-0.480,-0.190
'0:09.658',-0.480,-0.180
'0:09.661',-0.490,-0.185
'0:09.664',-0.475,-0.170
'0:09.667',-0.470,-0.170
'0:09.669',-0.460,-0.145
'0:09.672',-0.450,-0.150
'0:09.675',-0.455,-0.165
'0:09.678',-0.450,-0.170
'0:09.681',-0.460,-0.175
'0:09.683',-0.460,-0.180
'0:09.686',-0.460,-0.185
'0:09.689',-0.470,-0.190
'0:09.692',-0.470,-0.175
'0:09.694',-0.475,-0.175
'0:09.697',-0.460,-0.165
'0:09.700',-0.455,-0.170
'0:09.703',-0.450,-0.165
'0:09.706',-0.445,-0.160
'0:09.708',-0.425,-0.165
'0:09.711',-0.430,-0.165
'0:09.714',-0.440,-0.175
'0:09.717',-0.435,-0.185
'0:09.719',-0.435,-0.190
'0:09.722',-0.435,-0.195
'0:09.725',-0.445,-0.185
'0:09.728',-0.435,-0.190
'0:09.731',-0.420,-0.175
'0:09.733',-0.420,-0.175
'0:09.736',-0.400,-0.160
'0:09.739',-0.390,-0.165
'0:09.742',-0.390,-0.170
'0:09.744',-0.390,-0.175
'0:09.747',-0.400,-0.180
'0:09.750',-0.405,-0.190
'0:09.753',-0.410,-0.205
'0:09.756',-0.410,-0.205
'0:09.758',-0.405,-0.200
'0:09.761',-0.405,-0.195
'0:09.764',-0.395,-0.185
'0:09.767',-0.380,-0.180
'0:09.769',-0.380,-0.185
'0:09.772',-0.365,-0.175
'0:09.775',-0.355,-0.185
'0:09.778',-0.365,-0.195
'0:09.781',-0.370,-0.205
'0:09.783',-0.365,-0.195
'0:09.786',-0.375,-0.210
'0:09.789',-0.370,-0.220
'0:09.792',-0.375,-0.210
'0:09.794',-0.365,-0.210
'0:09.797',-0.360,-0.200
'0:09.800',-0.345,-0.200
'0:09.803',-0.340,-0.195
'0:09.806',-0.345,-0.200
'0:09.808',-0.340,-0.195
'0:09.811',-0.345,-0.205
'0:09.814',-0.350,-0.220
'0:09.817',-0.360,-0.215
'0:09.819',-0.360,-0.215
'0:09.822',-0.370,-0.220
'0:09.825',-0.385,-0.220
'0:09.828',-0.365,-0.205
'0:09.831',-0.370,-0.200
'0:09.833',-0.355,-0.200
'0:09.836',-0.355,-0.180
'0:09.839',-0.360,-0.175
'0:09.842',-0.365,-0.185
'0:09.844',-0.375,-0.195
'0:09.847',-0.385,-0.180
'0:09.850',-0.410,-0.175
'0:09.853',-0.440,-0.190
'0:09.856',-0.465,-0.180
'0:09.858',-0.470,-0.180
'0:09.861',-0.480,-0.170
'0:09.864',-0.485,-0.160
'0:09.867',-0.500,-0.150
'0:09.869',-0.515,-0.150
'0:09.872',-0.525,-0.135
'0:09.875',-0.550,-0.150
'0:09.878',-0.560,-0.145
'0:09.881',-0.575,-0.155
'0:09.883',-0.590,-0.155
'0:09.886',-0.595,-0.160
'0:09.889',-0.605,-0.175
'0:09.892',-0.625,-0.165
'0:09.894',-0.625,-0.155
'0:09.897',-0.615,-0.150
'0:09.900',-0.620,-0.140
'0:09.903',-0.635,-0.145
'0:09.906',-0.630,-0.145
'0:09.908',-0.625,-0.135
'0:09.911',-0.625,-0.140
'0:09.914',-0.635,-0.145
'0:09.917',-0.640,-0.155
'0:09.919',-0.660,-0.165
'0:09.922',-0.650,-0.165
'0:09.925',-0.655,-0.145
'0:09.928',-0.640,-0.150
'0:09.931',-0.630,-0.150
'0:09.933',-0.630,-0.145
'0:09.936',-0.625,-0.135
'0:09.939',-0.615,-0.130
'0:09.942',-0.620,-0.145
'0:09.944',-0.610,-0.135
'0:09.947',-0.625,-0.150
'0:09.950',-0.625,-0.150
'0:09.953',-0.630,-0.165
'0:09.956',-0.630,-0.165
'0:09.958',-0.630,-0.170
'0:09.961',-0.630,-0.155
'0:09.964',-0.620,-0.155
'0:09.967',-0.615,-0.150
'0:09.969',-0.615,-0.135
'0:09.972',-0.600,-0.140
'0:09.975',-0.585,-0.145
'0:09.978',-0.585,-0.145
'0:09.981',-0.580,-0.160
'0:09.983',-0.605,-0.170
'0:09.986',-0.600,-0.170
'0:09.989',-0.605,-0.175
'0:09.992',-0.605,-0.170
'0:09.994',-0.610,-0.170
'0:09.997',-0.595,-0.165
