'Elapsed time','MLII','V1'
'hh:mm:ss.mmm','mV','mV'
'0:00.000',-0.320,-1.240
'0:00.003',-0.320,-1.240
'0:00.006',-0.320,-1.240
'0:00.008',-0.320,-1.240
'0:00.011',-0.320,-1.240
'0:00.014',-0.320,-1.240
'0:00.017',-0.320,-1.240
'0:00.019',-0.320,-1.310
'0:00.022',-0.025,-1.375
'0:00.025',0.265,-1.445
'0:00.028',0.580,-1.515
'0:00.031',0.925,-1.565
'0:00.033',1.310,-1.575
'0:00.036',1.670,-1.575
'0:00.039',2.010,-1.540
'0:00.042',2.240,-1.465
'0:00.044',2.315,-1.365
'0:00.047',2.185,-1.245
'0:00.050',1.770,-1.145
'0:00.053',1.130,-1.055
'0:00.056',0.490,-1.020
'0:00.058',-0.150,-0.975
'0:00.061',-0.790,-0.945
'0:00.064',-1.430,-0.910
'0:00.067',-1.640,-0.870
'0:00.069',-1.385,-0.850
'0:00.072',-1.105,-0.850
'0:00.075',-0.920,-0.865
'0:00.078',-0.855,-0.880
'0:00.081',-0.900,-0.885
'0:00.083',-0.995,-0.875
'0:00.086',-1.090,-0.850
'0:00.089',-1.170,-0.835
'0:00.092',-1.200,-0.820
'0:00.094',-1.180,-0.800
'0:00.097',-1.185,-0.805
'0:00.100',-1.155,-0.765
'0:00.103',-1.145,-0.765
'0:00.106',-1.125,-0.775
'0:00.108',-1.135,-0.785
'0:00.111',-1.155,-0.795
'0:00.114',-1.165,-0.790
'0:00.117',-1.175,-0.790
'0:00.119',-1.185,-0.775
'0:00.122',-1.185,-0.780
'0:00.125',-1.185,-0.755
'0:00.128',-1.145,-0.755
'0:00.131',-1.135,-0.735
'0:00.133',-1.120,-0.755
'0:00.136',-1.100,-0.760
'0:00.139',-1.075,-0.760
'0:00.142',-1.090,-0.770
'0:00.144',-1.100,-0.790
'0:00.147',-1.105,-0.795
'0:00.150',-1.110,-0.780
'0:00.153',-1.110,-0.775
'0:00.156',-1.115,-0.760
'0:00.158',-1.110,-0.740
'0:00.161',-1.075,-0.725
'0:00.164',-1.080,-0.735
'0:00.167',-1.050,-0.730
'0:00.169',-1.035,-0.730
'0:00.172',-1.035,-0.740
'0:00.175',-1.025,-0.750
'0:00.178',-1.020,-0.730
'0:00.181',-1.010,-0.760
'0:00.183',-1.000,-0.755
'0:00.186',-1.000,-0.755
'0:00.189',-0.980,-0.730
'0:00.192',-0.960,-0.720
'0:00.194',-0.935,-0.690
'0:00.197',-0.920,-0.680
'0:00.200',-0.895,-0.680
'0:00.203',-0.885,-0.690
'0:00.206',-0.895,-0.705
'0:00.208',-0.865,-0.710
'0:00.211',-0.840,-0.710
'0:00.214',-0.830,-0.700
'0:00.217',-0.820,-0.695
'0:00.219',-0.810,-0.670
'0:00.222',-0.775,-0.655
'0:00.225',-0.735,-0.640
'0:00.228',-0.695,-0.635
'0:00.231',-0.655,-0.625
'0:00.233',-0.610,-0.620
'0:00.236',-0.575,-0.625
'0:00.239',-0.555,-0.630
'0:00.242',-0.515,-0.640
'0:00.244',-0.515,-0.640
'0:00.247',-0.490,-0.650
'0:00.250',-0.485,-0.645
'0:00.253',-0.470,-0.640
'0:00.256',-0.470,-0.625
'0:00.258',-0.445,-0.615
'0:00.261',-0.425,-0.600
'0:00.264',-0.395,-0.575
'0:00.267',-0.355,-0.575
'0:00.269',-0.340,-0.590
'0:00.272',-0.335,-0.595
'0:00.275',-0.340,-0.625
'0:00.278',-0.350,-0.640
'0:00.281',-0.375,-0.650
'0:00.283',-0.390,-0.640
'0:00.286',-0.415,-0.625
'0:00.289',-0.440,-0.625
'0:00.292',-0.480,-0.625
'0:00.294',-0.495,-0.630
'0:00.297',-0.530,-0.645
'0:00.300',-0.565,-0.645
'0:00.303',-0.605,-0.660
'0:00.306',-0.660,-0.680
'0:00.308',-0.700,-0.700
'0:00.311',-0.740,-0.710
'0:00.314',-0.800,-0.740
'0:00.317',-0.835,-0.735
'0:00.319',-0.895,-0.710
'0:00.322',-0.945,-0.725
'0:00.325',-0.990,-0.725
'0:00.328',-1.020,-0.725
'0:00.331',-1.050,-0.730
'0:00.333',-1.060,-0.700
'0:00.336',-1.090,-0.695
'0:00.339',-1.120,-0.680
'0:00.342',-1.120,-0.710
'0:00.344',-1.145,-0.740
'0:00.347',-1.170,-0.790
'0:00.350',-1.205,-0.810
'0:00.353',-1.255,-0.820
'0:00.356',-1.260,-0.790
'0:00.358',-1.260,-0.775
'0:00.361',-1.245,-0.725
'0:00.364',-1.225,-0.720
'0:00.367',-1.215,-0.735
'0:00.369',-1.215,-0.750
'0:00.372',-1.230,-0.760
'0:00.375',-1.240,-0.765
'0:00.378',-1.245,-0.780
'0:00.381',-1.260,-0.775
'0:00.383',-1.265,-0.775
'0:00.386',-1.275,-0.735
'0:00.389',-1.270,-0.745
'0:00.392',-1.280,-0.745
'0:00.394',-1.260,-0.745
'0:00.397',-1.260,-0.740
'0:00.400',-1.235,-0.750
'0:00.403',-1.240,-0.735
'0:00.406',-1.240,-0.730
'0:00.408',-1.235,-0.735
'0:00.411',-1.245,-0.750
'0:00.414',-1.245,-0.745
'0:00.417',-1.250,-0.750
'0:00.419',-1.270,-0.755
'0:00.422',-1.265,-0.740
'0:00.425',-1.245,-0.730
'0:00.428',-1.230,-0.720
'0:00.431',-1.210,-0.715
'0:00.433',-1.205,-0.710
'0:00.436',-1.215,-0.700
'0:00.439',-1.230,-0.720
'0:00.442',-1.235,-0.730
'0:00.444',-1.250,-0.725
'0:00.447',-1.265,-0.740
'0:00.450',-1.265,-0.720
'0:00.453',-1.270,-0.705
'0:00.456',-1.270,-0.720
'0:00.458',-1.265,-0.705
'0:00.461',-1.250,-0.710
'0:00.464',-1.240,-0.725
'0:00.467',-1.225,-0.735
'0:00.469',-1.235,-0.760
'0:00.472',-1.245,-0.760
'0:00.475',-1.260,-0.740
'0:00.478',-1.280,-0.760
'0:00.481',-1.300,-0.750
'0:00.483',-1.300,-0.755
'0:00.486',-1.305,-0.775
'0:00.489',-1.305,-0.785
'0:00.492',-1.285,-0.775
'0:00.494',-1.290,-0.755
'0:00.497',-1.295,-0.745
'0:00.500',-1.295,-0.725
'0:00.503',-1.300,-0.715
'0:00.506',-1.305,-0.715
'0:00.508',-1.310,-0.760
'0:00.511',-1.325,-0.770
'0:00.514',-1.315,-0.790
'0:00.517',-1.340,-0.790
'0:00.519',-1.340,-0.775
'0:00.522',-1.345,-0.780
'0:00.525',-1.325,-0.750
'0:00.528',-1.330,-0.735
'0:00.531',-1.315,-0.720
'0:00.533',-1.305,-0.700
'0:00.536',-1.295,-0.710
'0:00.539',-1.305,-0.725
'0:00.542',-1.300,-0.740
'0:00.544',-1.305,-0.760
'0:00.547',-1.320,-0.765
'0:00.550',-1.335,-0.765
'0:00.553',-1.335,-0.755
'0:00.556',-1.360,-0.775
'0:00.558',-1.355,-0.760
'0:00.561',-1.350,-0.730
'0:00.564',-1.355,-0.730
'0:00.567',-1.340,-0.715
'0:00.569',-1.345,-0.705
'0:00.572',-1.350,-0.705
'0:00.575',-1.375,-0.725
'0:00.578',-1.385,-0.735
'0:00.581',-1.385,-0.780
'0:00.583',-1.365,-0.755
'0:00.586',-1.365,-0.760
'0:00.589',-1.370,-0.750
'0:00.592',-1.360,-0.725
'0:00.594',-1.345,-0.700
'0:00.597',-1.325,-0.670
'0:00.600',-1.305,-0.665
'0:00.603',-1.270,-0.650
'0:00.606',-1.270,-0.665
'0:00.608',-1.265,-0.650
'0:00.611',-1.275,-0.670
'0:00.614',-1.305,-0.690
'0:00.617',-1.325,-0.695
'0:00.619',-1.330,-0.700
'0:00.622',-1.325,-0.720
'0:00.625',-1.300,-0.715
'0:00.628',-1.270,-0.705
'0:00.631',-1.255,-0.705
'0:00.633',-1.240,-0.695
'0:00.636',-1.235,-0.685
'0:00.639',-1.210,-0.700
'0:00.642',-1.195,-0.680
'0:00.644',-1.195,-0.690
'0:00.647',-1.200,-0.700
'0:00.650',-1.205,-0.720
'0:00.653',-1.200,-0.740
'0:00.656',-1.200,-0.775
'0:00.658',-1.205,-0.760
'0:00.661',-1.215,-0.740
'0:00.664',-1.210,-0.700
'0:00.667',-1.215,-0.690
'0:00.669',-1.230,-0.690
'0:00.672',-1.245,-0.695
'0:00.675',-1.260,-0.725
'0:00.678',-1.280,-0.735
'0:00.681',-1.300,-0.755
'0:00.683',-1.310,-0.770
'0:00.686',-1.350,-0.765
'0:00.689',-1.375,-0.770
'0:00.692',-1.385,-0.745
'0:00.694',-1.400,-0.750
'0:00.697',-1.400,-0.740
'0:00.700',-1.400,-0.755
'0:00.703',-1.400,-0.750
'0:00.706',-1.390,-0.760
'0:00.708',-1.375,-0.760
'0:00.711',-1.385,-0.775
'0:00.714',-1.380,-0.780
'0:00.717',-1.390,-0.775
'0:00.719',-1.410,-0.775
'0:00.722',-1.425,-0.760
'0:00.725',-1.430,-0.740
'0:00.728',-1.420,-0.740
'0:00.731',-1.420,-0.715
'0:00.733',-1.400,-0.695
'0:00.736',-1.385,-0.700
'0:00.739',-1.395,-0.710
'0:00.742',-1.395,-0.740
'0:00.744',-1.395,-0.775
'0:00.747',-1.375,-0.825
'0:00.750',-1.340,-0.860
'0:00.753',-1.290,-0.905
'0:00.756',-1.205,-0.945
'0:00.758',-1.045,-0.970
'0:00.761',-0.870,-1.005
'0:00.764',-0.625,-1.035
'0:00.767',-0.380,-1.080
'0:00.769',-0.105,-1.135
'0:00.772',0.135,-1.195
'0:00.775',0.395,-1.280
'0:00.778',0.665,-1.350
'0:00.781',0.975,-1.360
'0:00.783',1.255,-1.310
'0:00.786',1.430,-1.205
'0:00.789',1.450,-1.080
'0:00.792',1.205,-0.970
'0:00.794',0.665,-0.920
'0:00.797',0.025,-0.885
'0:00.800',-0.615,-0.890
'0:00.803',-1.255,-0.875
'0:00.806',-1.895,-0.870
'0:00.808',-2.070,-0.855
'0:00.811',-1.900,-0.825
'0:00.814',-1.640,-0.785
'0:00.817',-1.390,-0.745
'0:00.819',-1.235,-0.725
'0:00.822',-1.185,-0.720
'0:00.825',-1.200,-0.720
'0:00.828',-1.240,-0.720
'0:00.831',-1.285,-0.740
'0:00.833',-1.320,-0.715
'0:00.836',-1.350,-0.720
'0:00.839',-1.360,-0.710
'0:00.842',-1.360,-0.710
'0:00.844',-1.365,-0.710
'0:00.847',-1.365,-0.695
'0:00.850',-1.365,-0.720
'0:00.853',-1.395,-0.710
'0:00.856',-1.395,-0.715
'0:00.858',-1.380,-0.695
'0:00.861',-1.380,-0.690
'0:00.864',-1.365,-0.695
'0:00.867',-1.335,-0.675
'0:00.869',-1.305,-0.685
'0:00.872',-1.290,-0.685
'0:00.875',-1.285,-0.695
'0:00.878',-1.295,-0.695
'0:00.881',-1.300,-0.715
'0:00.883',-1.290,-0.710
'0:00.886',-1.290,-0.715
'0:00.889',-1.295,-0.695
'0:00.892',-1.275,-0.685
'0:00.894',-1.260,-0.660
'0:00.897',-1.235,-0.675
'0:00.900',-1.225,-0.630
'0:00.903',-1.225,-0.635
'0:00.906',-1.215,-0.650
'0:00.908',-1.210,-0.665
'0:00.911',-1.230,-0.690
'0:00.914',-1.215,-0.695
'0:00.917',-1.195,-0.705
'0:00.919',-1.190,-0.705
'0:00.922',-1.180,-0.695
'0:00.925',-1.155,-0.680
'0:00.928',-1.135,-0.665
'0:00.931',-1.100,-0.665
'0:00.933',-1.075,-0.665
'0:00.936',-1.065,-0.655
'0:00.939',-1.045,-0.680
'0:00.942',-1.035,-0.670
'0:00.944',-1.040,-0.685
'0:00.947',-1.045,-0.675
'0:00.950',-1.025,-0.665
'0:00.953',-1.025,-0.675
'0:00.956',-1.015,-0.650
'0:00.958',-0.980,-0.640
'0:00.961',-0.945,-0.625
'0:00.964',-0.925,-0.615
'0:00.967',-0.875,-0.595
'0:00.969',-0.855,-0.605
'0:00.972',-0.830,-0.615
'0:00.975',-0.810,-0.600
'0:00.978',-0.770,-0.610
'0:00.981',-0.750,-0.625
'0:00.983',-0.730,-0.630
'0:00.986',-0.755,-0.620
'0:00.989',-0.700,-0.620
'0:00.992',-0.705,-0.590
'0:00.994',-0.685,-0.575
'0:00.997',-0.660,-0.565
'0:01.000',-0.635,-0.575
'0:01.003',-0.610,-0.595
'0:01.006',-0.600,-0.600
'0:01.008',-0.600,-0.620
'0:01.011',-0.600,-0.615
'0:01.014',-0.600,-0.620
'0:01.017',-0.605,-0.605
'0:01.019',-0.620,-0.595
'0:01.022',-0.615,-0.585
'0:01.025',-0.640,-0.585
'0:01.028',-0.640,-0.600
'0:01.031',-0.650,-0.625
'0:01.033',-0.665,-0.610
'0:01.036',-0.700,-0.620
'0:01.039',-0.750,-0.625
'0:01.042',-0.770,-0.630
'0:01.044',-0.830,-0.655
'0:01.047',-0.885,-0.675
'0:01.050',-0.925,-0.690
'0:01.053',-0.975,-0.680
'0:01.056',-0.995,-0.675
'0:01.058',-1.010,-0.675
'0:01.061',-1.055,-0.675
'0:01.064',-1.065,-0.680
'0:01.067',-1.070,-0.690
'0:01.069',-1.080,-0.690
'0:01.072',-1.115,-0.695
'0:01.075',-1.130,-0.705
'0:01.078',-1.155,-0.715
'0:01.081',-1.180,-0.725
'0:01.083',-1.210,-0.715
'0:01.086',-1.235,-0.750
'0:01.089',-1.240,-0.735
'0:01.092',-1.230,-0.745
'0:01.094',-1.225,-0.765
'0:01.097',-1.220,-0.745
'0:01.100',-1.215,-0.735
'0:01.103',-1.220,-0.735
'0:01.106',-1.210,-0.745
'0:01.108',-1.230,-0.745
'0:01.111',-1.235,-0.740
'0:01.114',-1.245,-0.745
'0:01.117',-1.250,-0.740
'0:01.119',-1.250,-0.730
'0:01.122',-1.255,-0.725
'0:01.125',-1.250,-0.715
'0:01.128',-1.240,-0.720
'0:01.131',-1.230,-0.720
'0:01.133',-1.215,-0.720
'0:01.136',-1.200,-0.715
'0:01.139',-1.205,-0.745
'0:01.142',-1.200,-0.765
'0:01.144',-1.215,-0.770
'0:01.147',-1.220,-0.755
'0:01.150',-1.190,-0.750
'0:01.153',-1.200,-0.730
'0:01.156',-1.190,-0.720
'0:01.158',-1.185,-0.720
'0:01.161',-1.165,-0.690
'0:01.164',-1.150,-0.670
'0:01.167',-1.150,-0.690
'0:01.169',-1.140,-0.705
'0:01.172',-1.145,-0.700
'0:01.175',-1.145,-0.725
'0:01.178',-1.155,-0.745
'0:01.181',-1.165,-0.755
'0:01.183',-1.155,-0.780
'0:01.186',-1.150,-0.770
'0:01.189',-1.150,-0.775
'0:01.192',-1.150,-0.760
'0:01.194',-1.160,-0.755
'0:01.197',-1.160,-0.740
'0:01.200',-1.155,-0.715
'0:01.203',-1.145,-0.715
'0:01.206',-1.140,-0.730
'0:01.208',-1.120,-0.725
'0:01.211',-1.135,-0.725
'0:01.214',-1.135,-0.725
'0:01.217',-1.135,-0.725
'0:01.219',-1.165,-0.735
'0:01.222',-1.160,-0.720
'0:01.225',-1.150,-0.715
'0:01.228',-1.145,-0.705
'0:01.231',-1.145,-0.695
'0:01.233',-1.135,-0.680
'0:01.236',-1.140,-0.680
'0:01.239',-1.175,-0.680
'0:01.242',-1.170,-0.705
'0:01.244',-1.185,-0.725
'0:01.247',-1.195,-0.765
'0:01.250',-1.190,-0.780
'0:01.253',-1.190,-0.790
'0:01.256',-1.210,-0.775
'0:01.258',-1.205,-0.760
'0:01.261',-1.180,-0.750
'0:01.264',-1.175,-0.750
'0:01.267',-1.160,-0.745
'0:01.269',-1.170,-0.750
'0:01.272',-1.175,-0.730
'0:01.275',-1.185,-0.730
'0:01.278',-1.175,-0.720
'0:01.281',-1.185,-0.755
'0:01.283',-1.195,-0.785
'0:01.286',-1.200,-0.800
'0:01.289',-1.200,-0.820
'0:01.292',-1.205,-0.820
'0:01.294',-1.210,-0.785
'0:01.297',-1.210,-0.755
'0:01.300',-1.175,-0.735
'0:01.303',-1.175,-0.710
'0:01.306',-1.165,-0.695
'0:01.308',-1.150,-0.720
'0:01.311',-1.165,-0.730
'0:01.314',-1.190,-0.745
'0:01.317',-1.205,-0.765
'0:01.319',-1.235,-0.790
'0:01.322',-1.240,-0.785
'0:01.325',-1.220,-0.770
'0:01.328',-1.205,-0.760
'0:01.331',-1.200,-0.750
'0:01.333',-1.190,-0.735
'0:01.336',-1.205,-0.730
'0:01.339',-1.195,-0.740
'0:01.342',-1.200,-0.745
'0:01.344',-1.225,-0.765
'0:01.347',-1.205,-0.765
'0:01.350',-1.215,-0.760
'0:01.353',-1.210,-0.730
'0:01.356',-1.205,-0.705
'0:01.358',-1.200,-0.670
'0:01.361',-1.160,-0.675
'0:01.364',-1.140,-0.680
'0:01.367',-1.125,-0.710
'0:01.369',-1.120,-0.710
'0:01.372',-1.115,-0.720
'0:01.375',-1.105,-0.715
'0:01.378',-1.090,-0.695
'0:01.381',-1.090,-0.695
'0:01.383',-1.105,-0.685
'0:01.386',-1.105,-0.695
'0:01.389',-1.110,-0.695
'0:01.392',-1.115,-0.700
'0:01.394',-1.095,-0.715
'0:01.397',-1.090,-0.715
'0:01.400',-1.075,-0.705
'0:01.403',-1.050,-0.715
'0:01.406',-1.050,-0.730
'0:01.408',-1.015,-0.740
'0:01.411',-0.995,-0.755
'0:01.414',-0.985,-0.765
'0:01.417',-0.970,-0.775
'0:01.419',-0.965,-0.770
'0:01.422',-0.990,-0.765
'0:01.425',-1.005,-0.740
'0:01.428',-1.015,-0.720
'0:01.431',-0.995,-0.715
'0:01.433',-0.995,-0.705
'0:01.436',-0.985,-0.705
'0:01.439',-0.990,-0.730
'0:01.442',-1.005,-0.730
'0:01.444',-1.035,-0.745
'0:01.447',-1.065,-0.745
'0:01.450',-1.075,-0.750
'0:01.453',-1.110,-0.745
'0:01.456',-1.145,-0.740
'0:01.458',-1.155,-0.735
'0:01.461',-1.185,-0.725
'0:01.464',-1.180,-0.740
'0:01.467',-1.185,-0.735
'0:01.469',-1.200,-0.760
'0:01.472',-1.210,-0.750
'0:01.475',-1.210,-0.750
'0:01.478',-1.220,-0.755
'0:01.481',-1.205,-0.755
'0:01.483',-1.210,-0.755
'0:01.486',-1.205,-0.750
'0:01.489',-1.205,-0.740
'0:01.492',-1.200,-0.740
'0:01.494',-1.200,-0.715
'0:01.497',-1.200,-0.720
'0:01.500',-1.185,-0.705
'0:01.503',-1.175,-0.720
'0:01.506',-1.175,-0.740
'0:01.508',-1.170,-0.740
'0:01.511',-1.205,-0.750
'0:01.514',-1.230,-0.770
'0:01.517',-1.215,-0.800
'0:01.519',-1.205,-0.825
'0:01.522',-1.190,-0.825
'0:01.525',-1.135,-0.890
'0:01.528',-1.020,-0.940
'0:01.531',-0.870,-1.015
'0:01.533',-0.660,-1.090
'0:01.536',-0.360,-1.185
'0:01.539',-0.020,-1.255
'0:01.542',0.350,-1.340
'0:01.544',0.740,-1.420
'0:01.547',1.130,-1.510
'0:01.550',1.520,-1.545
'0:01.553',1.875,-1.560
'0:01.556',2.135,-1.510
'0:01.558',2.315,-1.420
'0:01.561',2.375,-1.285
'0:01.564',2.320,-1.170
'0:01.567',2.070,-1.030
'0:01.569',1.565,-0.950
'0:01.572',0.925,-0.915
'0:01.575',0.285,-0.915
'0:01.578',-0.355,-0.905
'0:01.581',-0.995,-0.885
'0:01.583',-1.635,-0.855
'0:01.586',-1.670,-0.800
'0:01.589',-1.400,-0.765
'0:01.592',-1.105,-0.725
'0:01.594',-0.880,-0.720
'0:01.597',-0.800,-0.690
'0:01.600',-0.840,-0.710
'0:01.603',-0.915,-0.725
'0:01.606',-1.020,-0.745
'0:01.608',-1.105,-0.750
'0:01.611',-1.160,-0.765
'0:01.614',-1.160,-0.755
'0:01.617',-1.165,-0.730
'0:01.619',-1.145,-0.720
'0:01.622',-1.150,-0.705
'0:01.625',-1.135,-0.675
'0:01.628',-1.140,-0.660
'0:01.631',-1.145,-0.660
'0:01.633',-1.135,-0.675
'0:01.636',-1.125,-0.665
'0:01.639',-1.135,-0.680
'0:01.642',-1.120,-0.685
'0:01.644',-1.105,-0.705
'0:01.647',-1.100,-0.705
'0:01.650',-1.100,-0.690
'0:01.653',-1.120,-0.710
'0:01.656',-1.115,-0.700
'0:01.658',-1.100,-0.705
'0:01.661',-1.085,-0.700
'0:01.664',-1.065,-0.675
'0:01.667',-1.060,-0.665
'0:01.669',-1.040,-0.655
'0:01.672',-1.040,-0.655
'0:01.675',-1.040,-0.640
'0:01.678',-1.040,-0.665
'0:01.681',-1.030,-0.680
'0:01.683',-1.040,-0.690
'0:01.686',-1.040,-0.700
'0:01.689',-1.025,-0.705
'0:01.692',-1.020,-0.675
'0:01.694',-1.005,-0.670
'0:01.697',-1.000,-0.640
'0:01.700',-0.975,-0.635
'0:01.703',-0.950,-0.640
'0:01.706',-0.955,-0.640
'0:01.708',-0.930,-0.670
'0:01.711',-0.920,-0.680
'0:01.714',-0.915,-0.675
'0:01.717',-0.895,-0.670
'0:01.719',-0.875,-0.655
'0:01.722',-0.860,-0.650
'0:01.725',-0.855,-0.620
'0:01.728',-0.840,-0.605
'0:01.731',-0.825,-0.615
'0:01.733',-0.790,-0.610
'0:01.736',-0.770,-0.610
'0:01.739',-0.720,-0.610
'0:01.742',-0.700,-0.615
'0:01.744',-0.660,-0.625
'0:01.747',-0.660,-0.620
'0:01.750',-0.660,-0.630
'0:01.753',-0.645,-0.640
'0:01.756',-0.630,-0.645
'0:01.758',-0.605,-0.620
'0:01.761',-0.565,-0.595
'0:01.764',-0.515,-0.595
'0:01.767',-0.475,-0.560
'0:01.769',-0.415,-0.560
'0:01.772',-0.380,-0.560
'0:01.775',-0.355,-0.555
'0:01.778',-0.335,-0.565
'0:01.781',-0.330,-0.590
'0:01.783',-0.325,-0.575
'0:01.786',-0.295,-0.570
'0:01.789',-0.275,-0.560
'0:01.792',-0.250,-0.535
'0:01.794',-0.230,-0.530
'0:01.797',-0.210,-0.525
'0:01.800',-0.205,-0.550
'0:01.803',-0.190,-0.555
'0:01.806',-0.210,-0.575
'0:01.808',-0.185,-0.585
'0:01.811',-0.225,-0.580
'0:01.814',-0.225,-0.585
'0:01.817',-0.250,-0.590
'0:01.819',-0.280,-0.590
'0:01.822',-0.305,-0.615
'0:01.825',-0.350,-0.605
'0:01.828',-0.380,-0.630
'0:01.831',-0.435,-0.630
'0:01.833',-0.485,-0.640
'0:01.836',-0.535,-0.630
'0:01.839',-0.615,-0.640
'0:01.842',-0.680,-0.665
'0:01.844',-0.750,-0.685
'0:01.847',-0.815,-0.715
'0:01.850',-0.885,-0.740
'0:01.853',-0.930,-0.760
'0:01.856',-0.975,-0.740
'0:01.858',-0.990,-0.730
'0:01.861',-0.995,-0.710
'0:01.864',-1.020,-0.680
'0:01.867',-1.020,-0.675
'0:01.869',-1.020,-0.675
'0:01.872',-1.040,-0.700
'0:01.875',-1.050,-0.710
'0:01.878',-1.065,-0.740
'0:01.881',-1.090,-0.735
'0:01.883',-1.105,-0.745
'0:01.886',-1.125,-0.730
'0:01.889',-1.125,-0.730
'0:01.892',-1.140,-0.715
'0:01.894',-1.140,-0.710
'0:01.897',-1.135,-0.695
'0:01.900',-1.130,-0.665
'0:01.903',-1.110,-0.670
'0:01.906',-1.110,-0.700
'0:01.908',-1.110,-0.715
'0:01.911',-1.120,-0.745
'0:01.914',-1.145,-0.765
'0:01.917',-1.135,-0.770
'0:01.919',-1.135,-0.745
'0:01.922',-1.145,-0.720
'0:01.925',-1.130,-0.720
'0:01.928',-1.130,-0.685
'0:01.931',-1.115,-0.675
'0:01.933',-1.110,-0.670
'0:01.936',-1.100,-0.670
'0:01.939',-1.095,-0.700
'0:01.942',-1.110,-0.695
'0:01.944',-1.110,-0.710
'0:01.947',-1.110,-0.720
'0:01.950',-1.105,-0.740
'0:01.953',-1.095,-0.725
'0:01.956',-1.105,-0.730
'0:01.958',-1.110,-0.730
'0:01.961',-1.095,-0.710
'0:01.964',-1.085,-0.710
'0:01.967',-1.080,-0.690
'0:01.969',-1.065,-0.690
'0:01.972',-1.060,-0.690
'0:01.975',-1.080,-0.685
'0:01.978',-1.075,-0.690
'0:01.981',-1.090,-0.700
'0:01.983',-1.095,-0.705
'0:01.986',-1.110,-0.695
'0:01.989',-1.115,-0.710
'0:01.992',-1.105,-0.700
'0:01.994',-1.115,-0.700
'0:01.997',-1.125,-0.690
'0:02.000',-1.105,-0.675
'0:02.003',-1.095,-0.670
'0:02.006',-1.075,-0.700
'0:02.008',-1.110,-0.705
'0:02.011',-1.105,-0.720
'0:02.014',-1.115,-0.705
'0:02.017',-1.135,-0.725
'0:02.019',-1.155,-0.720
'0:02.022',-1.160,-0.700
'0:02.025',-1.155,-0.700
'0:02.028',-1.150,-0.705
'0:02.031',-1.145,-0.705
'0:02.033',-1.140,-0.705
'0:02.036',-1.120,-0.715
'0:02.039',-1.135,-0.710
'0:02.042',-1.140,-0.695
'0:02.044',-1.140,-0.720
'0:02.047',-1.160,-0.720
'0:02.050',-1.180,-0.730
'0:02.053',-1.180,-0.720
'0:02.056',-1.175,-0.720
'0:02.058',-1.185,-0.715
'0:02.061',-1.185,-0.705
'0:02.064',-1.185,-0.690
'0:02.067',-1.180,-0.685
'0:02.069',-1.175,-0.680
'0:02.072',-1.190,-0.670
'0:02.075',-1.185,-0.685
'0:02.078',-1.190,-0.690
'0:02.081',-1.185,-0.695
'0:02.083',-1.195,-0.730
'0:02.086',-1.195,-0.730
'0:02.089',-1.200,-0.725
'0:02.092',-1.195,-0.730
'0:02.094',-1.200,-0.725
'0:02.097',-1.190,-0.710
'0:02.100',-1.190,-0.695
'0:02.103',-1.190,-0.690
'0:02.106',-1.200,-0.695
'0:02.108',-1.205,-0.685
'0:02.111',-1.210,-0.695
'0:02.114',-1.210,-0.720
'0:02.117',-1.220,-0.735
'0:02.119',-1.230,-0.715
'0:02.122',-1.235,-0.720
'0:02.125',-1.225,-0.705
'0:02.128',-1.210,-0.675
'0:02.131',-1.195,-0.660
'0:02.133',-1.175,-0.645
'0:02.136',-1.135,-0.620
'0:02.139',-1.125,-0.605
'0:02.142',-1.105,-0.605
'0:02.144',-1.095,-0.605
'0:02.147',-1.115,-0.615
'0:02.150',-1.120,-0.645
'0:02.153',-1.115,-0.655
'0:02.156',-1.130,-0.660
'0:02.158',-1.110,-0.665
'0:02.161',-1.110,-0.665
'0:02.164',-1.100,-0.665
'0:02.167',-1.080,-0.630
'0:02.169',-1.065,-0.645
'0:02.172',-1.040,-0.650
'0:02.175',-1.030,-0.665
'0:02.178',-1.005,-0.690
'0:02.181',-1.010,-0.710
'0:02.183',-1.000,-0.715
'0:02.186',-1.015,-0.710
'0:02.189',-1.010,-0.700
'0:02.192',-1.000,-0.685
'0:02.194',-1.005,-0.690
'0:02.197',-1.000,-0.655
'0:02.200',-1.010,-0.655
'0:02.203',-1.010,-0.660
'0:02.206',-1.030,-0.680
'0:02.208',-1.070,-0.695
'0:02.211',-1.085,-0.710
'0:02.214',-1.090,-0.700
'0:02.217',-1.110,-0.690
'0:02.219',-1.105,-0.690
'0:02.222',-1.125,-0.680
'0:02.225',-1.160,-0.680
'0:02.228',-1.180,-0.685
'0:02.231',-1.195,-0.675
'0:02.233',-1.225,-0.685
'0:02.236',-1.230,-0.680
'0:02.239',-1.230,-0.690
'0:02.242',-1.250,-0.710
'0:02.244',-1.265,-0.725
'0:02.247',-1.275,-0.735
'0:02.250',-1.275,-0.730
'0:02.253',-1.270,-0.725
'0:02.256',-1.285,-0.695
'0:02.258',-1.290,-0.680
'0:02.261',-1.265,-0.675
'0:02.264',-1.265,-0.655
'0:02.267',-1.240,-0.650
'0:02.269',-1.225,-0.655
'0:02.272',-1.225,-0.675
'0:02.275',-1.210,-0.680
'0:02.278',-1.215,-0.675
'0:02.281',-1.225,-0.670
'0:02.283',-1.240,-0.685
'0:02.286',-1.230,-0.720
'0:02.289',-1.205,-0.765
'0:02.292',-1.165,-0.810
'0:02.294',-1.070,-0.875
'0:02.297',-0.925,-0.985
'0:02.300',-0.720,-1.060
'0:02.303',-0.415,-1.140
'0:02.306',-0.065,-1.220
'0:02.308',0.315,-1.305
'0:02.311',0.745,-1.385
'0:02.314',1.175,-1.460
'0:02.317',1.610,-1.505
'0:02.319',1.975,-1.520
'0:02.322',2.260,-1.460
'0:02.325',2.435,-1.360
'0:02.328',2.495,-1.225
'0:02.331',2.440,-1.070
'0:02.333',2.220,-0.930
'0:02.336',1.790,-0.830
'0:02.339',1.150,-0.785
'0:02.342',0.510,-0.795
'0:02.344',-0.130,-0.800
'0:02.347',-0.770,-0.795
'0:02.350',-1.410,-0.760
'0:02.353',-1.750,-0.740
'0:02.356',-1.505,-0.700
'0:02.358',-1.200,-0.660
'0:02.361',-0.945,-0.620
'0:02.364',-0.820,-0.615
'0:02.367',-0.820,-0.605
'0:02.369',-0.890,-0.625
'0:02.372',-1.020,-0.625
'0:02.375',-1.110,-0.640
'0:02.378',-1.165,-0.615
'0:02.381',-1.185,-0.615
'0:02.383',-1.185,-0.610
'0:02.386',-1.165,-0.595
'0:02.389',-1.150,-0.595
'0:02.392',-1.135,-0.595
'0:02.394',-1.115,-0.590
'0:02.397',-1.145,-0.590
'0:02.400',-1.150,-0.565
'0:02.403',-1.165,-0.565
'0:02.406',-1.175,-0.580
'0:02.408',-1.175,-0.590
'0:02.411',-1.170,-0.610
'0:02.414',-1.165,-0.615
'0:02.417',-1.160,-0.640
'0:02.419',-1.115,-0.615
'0:02.422',-1.100,-0.615
'0:02.425',-1.110,-0.585
'0:02.428',-1.100,-0.570
'0:02.431',-1.100,-0.550
'0:02.433',-1.090,-0.540
'0:02.436',-1.050,-0.535
'0:02.439',-1.055,-0.540
'0:02.442',-1.040,-0.570
'0:02.444',-1.055,-0.595
'0:02.447',-1.050,-0.620
'0:02.450',-1.050,-0.625
'0:02.453',-1.050,-0.595
'0:02.456',-1.050,-0.570
'0:02.458',-1.030,-0.550
'0:02.461',-1.020,-0.535
'0:02.464',-1.000,-0.545
'0:02.467',-0.970,-0.540
'0:02.469',-0.950,-0.550
'0:02.472',-0.930,-0.580
'0:02.475',-0.920,-0.595
'0:02.478',-0.930,-0.595
'0:02.481',-0.925,-0.595
'0:02.483',-0.930,-0.595
'0:02.486',-0.910,-0.590
'0:02.489',-0.890,-0.575
'0:02.492',-0.865,-0.560
'0:02.494',-0.840,-0.560
'0:02.497',-0.825,-0.535
'0:02.500',-0.795,-0.530
'0:02.503',-0.770,-0.510
'0:02.506',-0.745,-0.500
'0:02.508',-0.700,-0.500
'0:02.511',-0.680,-0.505
'0:02.514',-0.675,-0.525
'0:02.517',-0.675,-0.535
'0:02.519',-0.630,-0.540
'0:02.522',-0.615,-0.540
'0:02.525',-0.580,-0.525
'0:02.528',-0.540,-0.510
'0:02.531',-0.500,-0.500
'0:02.533',-0.450,-0.495
'0:02.536',-0.400,-0.495
'0:02.539',-0.365,-0.480
'0:02.542',-0.325,-0.470
'0:02.544',-0.310,-0.470
'0:02.547',-0.305,-0.480
'0:02.550',-0.280,-0.485
'0:02.553',-0.270,-0.495
'0:02.556',-0.275,-0.480
'0:02.558',-0.255,-0.455
'0:02.561',-0.250,-0.455
'0:02.564',-0.230,-0.445
'0:02.567',-0.230,-0.450
'0:02.569',-0.225,-0.455
'0:02.572',-0.240,-0.470
'0:02.575',-0.230,-0.490
'0:02.578',-0.240,-0.495
'0:02.581',-0.275,-0.500
'0:02.583',-0.310,-0.500
'0:02.586',-0.355,-0.525
'0:02.589',-0.390,-0.545
'0:02.592',-0.445,-0.560
'0:02.594',-0.485,-0.585
'0:02.597',-0.550,-0.560
'0:02.600',-0.600,-0.545
'0:02.603',-0.650,-0.550
'0:02.606',-0.715,-0.585
'0:02.608',-0.760,-0.585
'0:02.611',-0.810,-0.620
'0:02.614',-0.880,-0.630
'0:02.617',-0.935,-0.635
'0:02.619',-0.995,-0.625
'0:02.622',-1.030,-0.630
'0:02.625',-1.065,-0.600
'0:02.628',-1.055,-0.585
'0:02.631',-1.075,-0.575
'0:02.633',-1.075,-0.565
'0:02.636',-1.090,-0.560
'0:02.639',-1.085,-0.590
'0:02.642',-1.105,-0.595
'0:02.644',-1.125,-0.615
'0:02.647',-1.125,-0.620
'0:02.650',-1.150,-0.640
'0:02.653',-1.160,-0.650
'0:02.656',-1.165,-0.640
'0:02.658',-1.165,-0.645
'0:02.661',-1.175,-0.610
'0:02.664',-1.170,-0.580
'0:02.667',-1.175,-0.590
'0:02.669',-1.175,-0.580
'0:02.672',-1.135,-0.595
'0:02.675',-1.160,-0.630
'0:02.678',-1.175,-0.635
'0:02.681',-1.175,-0.660
'0:02.683',-1.175,-0.660
'0:02.686',-1.180,-0.640
'0:02.689',-1.175,-0.605
'0:02.692',-1.160,-0.590
'0:02.694',-1.135,-0.585
'0:02.697',-1.130,-0.580
'0:02.700',-1.110,-0.595
'0:02.703',-1.100,-0.595
'0:02.706',-1.120,-0.620
'0:02.708',-1.110,-0.635
'0:02.711',-1.140,-0.615
'0:02.714',-1.150,-0.605
'0:02.717',-1.145,-0.595
'0:02.719',-1.150,-0.605
'0:02.722',-1.150,-0.600
'0:02.725',-1.160,-0.590
'0:02.728',-1.145,-0.600
'0:02.731',-1.140,-0.600
'0:02.733',-1.140,-0.605
'0:02.736',-1.145,-0.595
'0:02.739',-1.140,-0.585
'0:02.742',-1.145,-0.580
'0:02.744',-1.120,-0.585
'0:02.747',-1.135,-0.585
'0:02.750',-1.150,-0.585
'0:02.753',-1.150,-0.595
'0:02.756',-1.170,-0.600
'0:02.758',-1.155,-0.595
'0:02.761',-1.160,-0.580
'0:02.764',-1.145,-0.580
'0:02.767',-1.150,-0.570
'0:02.769',-1.145,-0.565
'0:02.772',-1.150,-0.570
'0:02.775',-1.170,-0.585
'0:02.778',-1.190,-0.590
'0:02.781',-1.215,-0.600
'0:02.783',-1.225,-0.605
'0:02.786',-1.235,-0.600
'0:02.789',-1.210,-0.600
'0:02.792',-1.225,-0.580
'0:02.794',-1.220,-0.575
'0:02.797',-1.200,-0.560
'0:02.800',-1.200,-0.570
'0:02.803',-1.205,-0.585
'0:02.806',-1.195,-0.595
'0:02.808',-1.205,-0.595
'0:02.811',-1.225,-0.605
'0:02.814',-1.230,-0.620
'0:02.817',-1.235,-0.600
'0:02.819',-1.250,-0.595
'0:02.822',-1.260,-0.580
'0:02.825',-1.280,-0.575
'0:02.828',-1.255,-0.550
'0:02.831',-1.245,-0.530
'0:02.833',-1.225,-0.545
'0:02.836',-1.235,-0.580
'0:02.839',-1.245,-0.600
'0:02.842',-1.260,-0.620
'0:02.844',-1.275,-0.615
'0:02.847',-1.280,-0.615
'0:02.850',-1.305,-0.595
'0:02.853',-1.310,-0.575
'0:02.856',-1.310,-0.580
'0:02.858',-1.285,-0.570
'0:02.861',-1.285,-0.560
'0:02.864',-1.275,-0.570
'0:02.867',-1.260,-0.545
'0:02.869',-1.265,-0.550
'0:02.872',-1.260,-0.560
'0:02.875',-1.270,-0.545
'0:02.878',-1.275,-0.565
'0:02.881',-1.290,-0.565
'0:02.883',-1.300,-0.575
'0:02.886',-1.295,-0.575
'0:02.889',-1.290,-0.545
'0:02.892',-1.280,-0.530
'0:02.894',-1.255,-0.510
'0:02.897',-1.240,-0.480
'0:02.900',-1.220,-0.465
'0:02.903',-1.195,-0.465
'0:02.906',-1.185,-0.490
'0:02.908',-1.210,-0.515
'0:02.911',-1.215,-0.515
'0:02.914',-1.215,-0.540
'0:02.917',-1.225,-0.535
'0:02.919',-1.210,-0.545
'0:02.922',-1.210,-0.535
'0:02.925',-1.180,-0.520
'0:02.928',-1.160,-0.520
'0:02.931',-1.140,-0.495
'0:02.933',-1.120,-0.520
'0:02.936',-1.105,-0.560
'0:02.939',-1.095,-0.570
'0:02.942',-1.090,-0.575
'0:02.944',-1.100,-0.585
'0:02.947',-1.140,-0.575
'0:02.950',-1.145,-0.545
'0:02.953',-1.180,-0.545
'0:02.956',-1.210,-0.530
'0:02.958',-1.215,-0.535
'0:02.961',-1.215,-0.525
'0:02.964',-1.230,-0.530
'0:02.967',-1.215,-0.540
'0:02.969',-1.240,-0.530
'0:02.972',-1.260,-0.535
'0:02.975',-1.285,-0.550
'0:02.978',-1.320,-0.550
'0:02.981',-1.345,-0.540
'0:02.983',-1.350,-0.530
'0:02.986',-1.365,-0.540
'0:02.989',-1.385,-0.540
'0:02.992',-1.390,-0.545
'0:02.994',-1.405,-0.535
'0:02.997',-1.400,-0.540
'0:03.000',-1.375,-0.525
'0:03.003',-1.385,-0.515
'0:03.006',-1.365,-0.510
'0:03.008',-1.365,-0.510
'0:03.011',-1.370,-0.510
'0:03.014',-1.380,-0.540
'0:03.017',-1.390,-0.545
'0:03.019',-1.405,-0.550
'0:03.022',-1.405,-0.545
'0:03.025',-1.400,-0.535
'0:03.028',-1.390,-0.510
'0:03.031',-1.370,-0.520
'0:03.033',-1.340,-0.520
'0:03.036',-1.305,-0.580
'0:03.039',-1.220,-0.665
'0:03.042',-1.140,-0.775
'0:03.044',-1.005,-0.875
'0:03.047',-0.785,-0.965
'0:03.050',-0.475,-1.070
'0:03.053',-0.075,-1.145
'0:03.056',0.380,-1.225
'0:03.058',0.915,-1.280
'0:03.061',1.435,-1.280
'0:03.064',1.900,-1.200
'0:03.067',2.225,-1.055
'0:03.069',2.330,-0.915
'0:03.072',2.130,-0.795
'0:03.075',1.580,-0.705
'0:03.078',0.940,-0.655
'0:03.081',0.300,-0.655
'0:03.083',-0.340,-0.655
'0:03.086',-0.980,-0.655
'0:03.089',-1.620,-0.605
'0:03.092',-1.975,-0.570
'0:03.094',-1.625,-0.545
'0:03.097',-1.280,-0.495
'0:03.100',-1.050,-0.480
'0:03.103',-0.980,-0.475
'0:03.106',-1.025,-0.480
'0:03.108',-1.125,-0.495
'0:03.111',-1.250,-0.520
'0:03.114',-1.355,-0.545
'0:03.117',-1.395,-0.525
'0:03.119',-1.405,-0.510
'0:03.122',-1.380,-0.475
'0:03.125',-1.350,-0.450
'0:03.128',-1.335,-0.440
'0:03.131',-1.310,-0.425
'0:03.133',-1.310,-0.430
'0:03.136',-1.300,-0.455
'0:03.139',-1.335,-0.470
'0:03.142',-1.325,-0.490
'0:03.144',-1.350,-0.500
'0:03.147',-1.340,-0.495
'0:03.150',-1.350,-0.495
'0:03.153',-1.335,-0.485
'0:03.156',-1.340,-0.490
'0:03.158',-1.340,-0.465
'0:03.161',-1.310,-0.450
'0:03.164',-1.305,-0.445
'0:03.167',-1.255,-0.390
'0:03.169',-1.255,-0.400
'0:03.172',-1.260,-0.425
'0:03.175',-1.245,-0.420
'0:03.178',-1.245,-0.445
'0:03.181',-1.250,-0.450
'0:03.183',-1.245,-0.475
'0:03.186',-1.240,-0.460
'0:03.189',-1.230,-0.460
'0:03.192',-1.220,-0.450
'0:03.194',-1.185,-0.420
'0:03.197',-1.185,-0.395
'0:03.200',-1.150,-0.410
'0:03.203',-1.130,-0.415
'0:03.206',-1.125,-0.425
'0:03.208',-1.125,-0.450
'0:03.211',-1.105,-0.450
'0:03.214',-1.105,-0.450
'0:03.217',-1.090,-0.450
'0:03.219',-1.080,-0.450
'0:03.222',-1.065,-0.440
'0:03.225',-1.050,-0.410
'0:03.228',-1.025,-0.415
'0:03.231',-1.010,-0.420
'0:03.233',-0.975,-0.390
'0:03.236',-0.975,-0.405
'0:03.239',-0.950,-0.395
'0:03.242',-0.955,-0.400
'0:03.244',-0.900,-0.405
'0:03.247',-0.875,-0.405
'0:03.250',-0.840,-0.390
'0:03.253',-0.820,-0.380
'0:03.256',-0.810,-0.375
'0:03.258',-0.775,-0.375
'0:03.261',-0.750,-0.370
'0:03.264',-0.705,-0.355
'0:03.267',-0.655,-0.345
'0:03.269',-0.610,-0.350
'0:03.272',-0.600,-0.365
'0:03.275',-0.595,-0.380
'0:03.278',-0.595,-0.395
'0:03.281',-0.580,-0.385
'0:03.283',-0.555,-0.375
'0:03.286',-0.545,-0.380
'0:03.289',-0.540,-0.375
'0:03.292',-0.505,-0.375
'0:03.294',-0.475,-0.360
'0:03.297',-0.450,-0.355
'0:03.300',-0.430,-0.335
'0:03.303',-0.430,-0.330
'0:03.306',-0.430,-0.355
'0:03.308',-0.445,-0.340
'0:03.311',-0.470,-0.365
'0:03.314',-0.495,-0.375
'0:03.317',-0.520,-0.410
'0:03.319',-0.570,-0.410
'0:03.322',-0.610,-0.420
'0:03.325',-0.675,-0.385
'0:03.328',-0.715,-0.365
'0:03.331',-0.740,-0.365
'0:03.333',-0.785,-0.380
'0:03.336',-0.835,-0.380
'0:03.339',-0.915,-0.415
'0:03.342',-0.965,-0.445
'0:03.344',-0.995,-0.450
'0:03.347',-1.035,-0.470
'0:03.350',-1.100,-0.460
'0:03.353',-1.155,-0.445
'0:03.356',-1.195,-0.450
'0:03.358',-1.225,-0.435
'0:03.361',-1.240,-0.435
'0:03.364',-1.260,-0.440
'0:03.367',-1.275,-0.445
'0:03.369',-1.295,-0.455
'0:03.372',-1.310,-0.470
'0:03.375',-1.335,-0.480
'0:03.378',-1.350,-0.465
'0:03.381',-1.380,-0.470
'0:03.383',-1.380,-0.480
'0:03.386',-1.395,-0.470
'0:03.389',-1.400,-0.460
'0:03.392',-1.385,-0.465
'0:03.394',-1.380,-0.450
'0:03.397',-1.395,-0.460
'0:03.400',-1.365,-0.445
'0:03.403',-1.365,-0.460
'0:03.406',-1.365,-0.460
'0:03.408',-1.370,-0.480
'0:03.411',-1.395,-0.475
'0:03.414',-1.390,-0.475
'0:03.417',-1.405,-0.450
'0:03.419',-1.415,-0.460
'0:03.422',-1.415,-0.460
'0:03.425',-1.400,-0.445
'0:03.428',-1.375,-0.460
'0:03.431',-1.365,-0.455
'0:03.433',-1.350,-0.455
'0:03.436',-1.345,-0.475
'0:03.439',-1.345,-0.500
'0:03.442',-1.350,-0.490
'0:03.444',-1.345,-0.500
'0:03.447',-1.355,-0.500
'0:03.450',-1.350,-0.490
'0:03.453',-1.355,-0.490
'0:03.456',-1.365,-0.465
'0:03.458',-1.370,-0.450
'0:03.461',-1.360,-0.445
'0:03.464',-1.345,-0.445
'0:03.467',-1.340,-0.445
'0:03.469',-1.330,-0.455
'0:03.472',-1.330,-0.470
'0:03.475',-1.335,-0.455
'0:03.478',-1.345,-0.470
'0:03.481',-1.360,-0.475
'0:03.483',-1.365,-0.470
'0:03.486',-1.365,-0.475
'0:03.489',-1.375,-0.475
'0:03.492',-1.365,-0.465
'0:03.494',-1.350,-0.470
'0:03.497',-1.350,-0.465
'0:03.500',-1.350,-0.450
'0:03.503',-1.360,-0.445
'0:03.506',-1.395,-0.450
'0:03.508',-1.405,-0.470
'0:03.511',-1.420,-0.480
'0:03.514',-1.420,-0.490
'0:03.517',-1.435,-0.470
'0:03.519',-1.415,-0.485
'0:03.522',-1.430,-0.475
'0:03.525',-1.435,-0.465
'0:03.528',-1.430,-0.460
'0:03.531',-1.405,-0.460
'0:03.533',-1.385,-0.450
'0:03.536',-1.385,-0.465
'0:03.539',-1.385,-0.460
'0:03.542',-1.405,-0.470
'0:03.544',-1.410,-0.470
'0:03.547',-1.420,-0.485
'0:03.550',-1.420,-0.455
'0:03.553',-1.445,-0.460
'0:03.556',-1.445,-0.460
'0:03.558',-1.445,-0.450
'0:03.561',-1.430,-0.445
'0:03.564',-1.435,-0.445
'0:03.567',-1.420,-0.445
'0:03.569',-1.425,-0.445
'0:03.572',-1.405,-0.450
'0:03.575',-1.415,-0.460
'0:03.578',-1.425,-0.475
'0:03.581',-1.410,-0.480
'0:03.583',-1.425,-0.475
'0:03.586',-1.435,-0.490
'0:03.589',-1.440,-0.505
'0:03.592',-1.445,-0.475
'0:03.594',-1.440,-0.480
'0:03.597',-1.440,-0.450
'0:03.600',-1.435,-0.445
'0:03.603',-1.435,-0.440
'0:03.606',-1.425,-0.440
'0:03.608',-1.440,-0.455
'0:03.611',-1.430,-0.440
'0:03.614',-1.425,-0.440
'0:03.617',-1.400,-0.410
'0:03.619',-1.405,-0.405
'0:03.622',-1.390,-0.390
'0:03.625',-1.360,-0.365
'0:03.628',-1.330,-0.380
'0:03.631',-1.325,-0.365
'0:03.633',-1.305,-0.390
'0:03.636',-1.310,-0.390
'0:03.639',-1.310,-0.415
'0:03.642',-1.310,-0.425
'0:03.644',-1.330,-0.430
'0:03.647',-1.325,-0.445
'0:03.650',-1.325,-0.460
'0:03.653',-1.330,-0.455
'0:03.656',-1.325,-0.455
'0:03.658',-1.335,-0.445
'0:03.661',-1.305,-0.445
'0:03.664',-1.275,-0.420
'0:03.667',-1.245,-0.425
'0:03.669',-1.215,-0.420
'0:03.672',-1.205,-0.430
'0:03.675',-1.195,-0.435
'0:03.678',-1.210,-0.455
'0:03.681',-1.230,-0.485
'0:03.683',-1.245,-0.480
'0:03.686',-1.275,-0.480
'0:03.689',-1.300,-0.470
'0:03.692',-1.305,-0.475
'0:03.694',-1.295,-0.450
'0:03.697',-1.295,-0.450
'0:03.700',-1.280,-0.435
'0:03.703',-1.295,-0.440
'0:03.706',-1.315,-0.455
'0:03.708',-1.335,-0.475
'0:03.711',-1.370,-0.470
'0:03.714',-1.405,-0.480
'0:03.717',-1.410,-0.470
'0:03.719',-1.415,-0.470
'0:03.722',-1.435,-0.460
'0:03.725',-1.430,-0.485
'0:03.728',-1.435,-0.455
'0:03.731',-1.435,-0.465
'0:03.733',-1.420,-0.430
'0:03.736',-1.430,-0.425
'0:03.739',-1.430,-0.440
'0:03.742',-1.425,-0.475
'0:03.744',-1.420,-0.490
'0:03.747',-1.425,-0.500
'0:03.750',-1.425,-0.490
'0:03.753',-1.435,-0.450
'0:03.756',-1.425,-0.430
'0:03.758',-1.410,-0.420
'0:03.761',-1.400,-0.425
'0:03.764',-1.385,-0.435
'0:03.767',-1.365,-0.450
'0:03.769',-1.340,-0.510
'0:03.772',-1.280,-0.570
'0:03.775',-1.230,-0.645
'0:03.778',-1.125,-0.720
'0:03.781',-0.965,-0.800
'0:03.783',-0.690,-0.870
'0:03.786',-0.390,-0.950
'0:03.789',0.015,-1.020
'0:03.792',0.470,-1.090
'0:03.794',0.930,-1.130
'0:03.797',1.395,-1.135
'0:03.800',1.845,-1.080
'0:03.803',2.120,-0.965
'0:03.806',2.185,-0.810
'0:03.808',2.000,-0.690
'0:03.811',1.475,-0.590
'0:03.814',0.835,-0.560
'0:03.817',0.195,-0.555
'0:03.819',-0.445,-0.585
'0:03.822',-1.085,-0.550
'0:03.825',-1.725,-0.520
'0:03.828',-2.095,-0.485
'0:03.831',-1.770,-0.465
'0:03.833',-1.420,-0.455
'0:03.836',-1.160,-0.465
'0:03.839',-1.050,-0.455
'0:03.842',-1.045,-0.450
'0:03.844',-1.100,-0.445
'0:03.847',-1.195,-0.450
'0:03.850',-1.265,-0.450
'0:03.853',-1.340,-0.440
'0:03.856',-1.360,-0.450
'0:03.858',-1.370,-0.435
'0:03.861',-1.355,-0.435
'0:03.864',-1.310,-0.425
'0:03.867',-1.305,-0.400
'0:03.869',-1.295,-0.405
'0:03.872',-1.295,-0.395
'0:03.875',-1.300,-0.390
'0:03.878',-1.305,-0.420
'0:03.881',-1.300,-0.420
'0:03.883',-1.290,-0.425
'0:03.886',-1.285,-0.415
'0:03.889',-1.285,-0.430
'0:03.892',-1.275,-0.410
'0:03.894',-1.260,-0.405
'0:03.897',-1.255,-0.385
'0:03.900',-1.225,-0.390
'0:03.903',-1.215,-0.385
'0:03.906',-1.215,-0.375
'0:03.908',-1.210,-0.385
'0:03.911',-1.220,-0.390
'0:03.914',-1.225,-0.395
'0:03.917',-1.220,-0.405
'0:03.919',-1.210,-0.400
'0:03.922',-1.190,-0.400
'0:03.925',-1.180,-0.385
'0:03.928',-1.135,-0.365
'0:03.931',-1.105,-0.360
'0:03.933',-1.085,-0.370
'0:03.936',-1.055,-0.385
'0:03.939',-1.050,-0.410
'0:03.942',-1.050,-0.425
'0:03.944',-1.055,-0.415
'0:03.947',-1.065,-0.410
'0:03.950',-1.060,-0.385
'0:03.953',-1.060,-0.390
'0:03.956',-1.060,-0.360
'0:03.958',-1.045,-0.355
'0:03.961',-0.995,-0.340
'0:03.964',-0.970,-0.345
'0:03.967',-0.940,-0.345
'0:03.969',-0.915,-0.380
'0:03.972',-0.865,-0.375
'0:03.975',-0.845,-0.375
'0:03.978',-0.830,-0.385
'0:03.981',-0.810,-0.375
'0:03.983',-0.795,-0.355
'0:03.986',-0.790,-0.345
'0:03.989',-0.785,-0.340
'0:03.992',-0.735,-0.310
'0:03.994',-0.695,-0.310
'0:03.997',-0.655,-0.300
'0:04.000',-0.610,-0.295
'0:04.003',-0.580,-0.305
'0:04.006',-0.545,-0.305
'0:04.008',-0.520,-0.315
'0:04.011',-0.505,-0.315
'0:04.014',-0.495,-0.315
'0:04.017',-0.465,-0.310
'0:04.019',-0.460,-0.285
'0:04.022',-0.445,-0.270
'0:04.025',-0.415,-0.265
'0:04.028',-0.395,-0.255
'0:04.031',-0.390,-0.275
'0:04.033',-0.370,-0.275
'0:04.036',-0.380,-0.290
'0:04.039',-0.390,-0.300
'0:04.042',-0.405,-0.315
'0:04.044',-0.420,-0.320
'0:04.047',-0.440,-0.320
'0:04.050',-0.470,-0.310
'0:04.053',-0.500,-0.315
'0:04.056',-0.535,-0.315
'0:04.058',-0.560,-0.300
'0:04.061',-0.605,-0.320
'0:04.064',-0.645,-0.310
'0:04.067',-0.675,-0.305
'0:04.069',-0.710,-0.325
'0:04.072',-0.755,-0.340
'0:04.075',-0.805,-0.380
'0:04.078',-0.865,-0.405
'0:04.081',-0.925,-0.420
'0:04.083',-0.975,-0.405
'0:04.086',-1.040,-0.400
'0:04.089',-1.080,-0.405
'0:04.092',-1.125,-0.385
'0:04.094',-1.155,-0.400
'0:04.097',-1.175,-0.380
'0:04.100',-1.170,-0.385
'0:04.103',-1.195,-0.380
'0:04.106',-1.215,-0.390
'0:04.108',-1.230,-0.395
'0:04.111',-1.255,-0.420
'0:04.114',-1.270,-0.450
'0:04.117',-1.285,-0.455
'0:04.119',-1.295,-0.440
'0:04.122',-1.325,-0.425
'0:04.125',-1.315,-0.400
'0:04.128',-1.320,-0.405
'0:04.131',-1.315,-0.390
'0:04.133',-1.280,-0.395
'0:04.136',-1.285,-0.410
'0:04.139',-1.275,-0.405
'0:04.142',-1.265,-0.450
'0:04.144',-1.280,-0.455
'0:04.147',-1.290,-0.440
'0:04.150',-1.280,-0.440
'0:04.153',-1.305,-0.430
'0:04.156',-1.310,-0.410
'0:04.158',-1.295,-0.390
'0:04.161',-1.260,-0.405
'0:04.164',-1.245,-0.410
'0:04.167',-1.235,-0.405
'0:04.169',-1.225,-0.405
'0:04.172',-1.225,-0.400
'0:04.175',-1.235,-0.385
'0:04.178',-1.225,-0.410
'0:04.181',-1.230,-0.420
'0:04.183',-1.225,-0.435
'0:04.186',-1.235,-0.450
'0:04.189',-1.250,-0.455
'0:04.192',-1.250,-0.425
'0:04.194',-1.240,-0.420
'0:04.197',-1.245,-0.415
'0:04.200',-1.230,-0.405
'0:04.203',-1.225,-0.405
'0:04.206',-1.220,-0.410
'0:04.208',-1.225,-0.400
'0:04.211',-1.235,-0.400
'0:04.214',-1.240,-0.395
'0:04.217',-1.250,-0.390
'0:04.219',-1.255,-0.425
'0:04.222',-1.270,-0.440
'0:04.225',-1.260,-0.445
'0:04.228',-1.250,-0.450
'0:04.231',-1.250,-0.450
'0:04.233',-1.240,-0.445
'0:04.236',-1.265,-0.430
'0:04.239',-1.260,-0.395
'0:04.242',-1.265,-0.405
'0:04.244',-1.275,-0.390
'0:04.247',-1.290,-0.400
'0:04.250',-1.315,-0.415
'0:04.253',-1.320,-0.445
'0:04.256',-1.330,-0.460
'0:04.258',-1.320,-0.445
'0:04.261',-1.320,-0.450
'0:04.264',-1.320,-0.435
'0:04.267',-1.305,-0.405
'0:04.269',-1.290,-0.405
'0:04.272',-1.300,-0.395
'0:04.275',-1.300,-0.410
'0:04.278',-1.300,-0.435
'0:04.281',-1.310,-0.455
'0:04.283',-1.330,-0.450
'0:04.286',-1.340,-0.450
'0:04.289',-1.350,-0.425
'0:04.292',-1.360,-0.415
'0:04.294',-1.345,-0.395
'0:04.297',-1.335,-0.400
'0:04.300',-1.325,-0.385
'0:04.303',-1.320,-0.405
'0:04.306',-1.320,-0.395
'0:04.308',-1.315,-0.420
'0:04.311',-1.330,-0.430
'0:04.314',-1.340,-0.465
'0:04.317',-1.340,-0.490
'0:04.319',-1.355,-0.480
'0:04.322',-1.350,-0.470
'0:04.325',-1.340,-0.450
'0:04.328',-1.330,-0.415
'0:04.331',-1.325,-0.400
'0:04.333',-1.330,-0.385
'0:04.336',-1.325,-0.400
'0:04.339',-1.330,-0.405
'0:04.342',-1.325,-0.420
'0:04.344',-1.340,-0.445
'0:04.347',-1.340,-0.480
'0:04.350',-1.360,-0.480
'0:04.353',-1.365,-0.465
'0:04.356',-1.375,-0.445
'0:04.358',-1.370,-0.420
'0:04.361',-1.380,-0.395
'0:04.364',-1.345,-0.375
'0:04.367',-1.320,-0.355
'0:04.369',-1.310,-0.370
'0:04.372',-1.290,-0.385
'0:04.375',-1.290,-0.395
'0:04.378',-1.280,-0.400
'0:04.381',-1.265,-0.400
'0:04.383',-1.265,-0.385
'0:04.386',-1.285,-0.390
'0:04.389',-1.275,-0.375
'0:04.392',-1.285,-0.375
'0:04.394',-1.280,-0.360
'0:04.397',-1.260,-0.375
'0:04.400',-1.235,-0.400
'0:04.403',-1.230,-0.440
'0:04.406',-1.215,-0.465
'0:04.408',-1.210,-0.470
'0:04.411',-1.200,-0.455
'0:04.414',-1.205,-0.435
'0:04.417',-1.205,-0.430
'0:04.419',-1.185,-0.435
'0:04.422',-1.155,-0.410
'0:04.425',-1.125,-0.430
'0:04.428',-1.120,-0.415
'0:04.431',-1.125,-0.425
'0:04.433',-1.125,-0.425
'0:04.436',-1.155,-0.425
'0:04.439',-1.185,-0.440
'0:04.442',-1.210,-0.440
'0:04.444',-1.240,-0.465
'0:04.447',-1.260,-0.465
'0:04.450',-1.270,-0.455
'0:04.453',-1.280,-0.450
'0:04.456',-1.290,-0.455
'0:04.458',-1.310,-0.440
'0:04.461',-1.340,-0.455
'0:04.464',-1.355,-0.450
'0:04.467',-1.365,-0.430
'0:04.469',-1.380,-0.450
'0:04.472',-1.375,-0.470
'0:04.475',-1.400,-0.475
'0:04.478',-1.420,-0.475
'0:04.481',-1.400,-0.490
'0:04.483',-1.405,-0.470
'0:04.486',-1.390,-0.475
'0:04.489',-1.400,-0.495
'0:04.492',-1.400,-0.480
'0:04.494',-1.410,-0.470
'0:04.497',-1.400,-0.460
'0:04.500',-1.370,-0.440
'0:04.503',-1.380,-0.420
'0:04.506',-1.370,-0.390
'0:04.508',-1.390,-0.410
'0:04.511',-1.395,-0.415
'0:04.514',-1.380,-0.450
'0:04.517',-1.370,-0.510
'0:04.519',-1.325,-0.570
'0:04.522',-1.260,-0.610
'0:04.525',-1.140,-0.660
'0:04.528',-0.960,-0.735
'0:04.531',-0.730,-0.790
'0:04.533',-0.440,-0.870
'0:04.536',-0.085,-0.985
'0:04.539',0.300,-1.090
'0:04.542',0.710,-1.190
'0:04.544',1.170,-1.250
'0:04.547',1.625,-1.270
'0:04.550',1.990,-1.215
'0:04.553',2.240,-1.065
'0:04.556',2.310,-0.915
'0:04.558',2.150,-0.735
'0:04.561',1.670,-0.635
'0:04.564',1.030,-0.575
'0:04.567',0.390,-0.555
'0:04.569',-0.250,-0.560
'0:04.572',-0.890,-0.545
'0:04.575',-1.530,-0.520
'0:04.578',-1.875,-0.505
'0:04.581',-1.605,-0.495
'0:04.583',-1.290,-0.470
'0:04.586',-1.070,-0.460
'0:04.589',-0.990,-0.430
'0:04.592',-1.000,-0.415
'0:04.594',-1.090,-0.395
'0:04.597',-1.195,-0.365
'0:04.600',-1.280,-0.365
'0:04.603',-1.310,-0.375
'0:04.606',-1.340,-0.380
'0:04.608',-1.325,-0.380
'0:04.611',-1.325,-0.395
'0:04.614',-1.300,-0.365
'0:04.617',-1.310,-0.370
'0:04.619',-1.305,-0.375
'0:04.622',-1.320,-0.360
'0:04.625',-1.315,-0.360
'0:04.628',-1.300,-0.350
'0:04.631',-1.300,-0.345
'0:04.633',-1.295,-0.355
'0:04.636',-1.265,-0.360
'0:04.639',-1.265,-0.370
'0:04.642',-1.250,-0.395
'0:04.644',-1.260,-0.415
'0:04.647',-1.265,-0.400
'0:04.650',-1.270,-0.410
'0:04.653',-1.270,-0.385
'0:04.656',-1.260,-0.395
'0:04.658',-1.260,-0.380
'0:04.661',-1.240,-0.365
'0:04.664',-1.215,-0.355
'0:04.667',-1.200,-0.355
'0:04.669',-1.170,-0.350
'0:04.672',-1.165,-0.345
'0:04.675',-1.170,-0.365
'0:04.678',-1.175,-0.355
'0:04.681',-1.165,-0.340
'0:04.683',-1.175,-0.350
'0:04.686',-1.170,-0.345
'0:04.689',-1.155,-0.330
'0:04.692',-1.145,-0.315
'0:04.694',-1.125,-0.335
'0:04.697',-1.080,-0.320
'0:04.700',-1.080,-0.340
'0:04.703',-1.030,-0.360
'0:04.706',-1.030,-0.385
'0:04.708',-1.015,-0.365
'0:04.711',-1.015,-0.370
'0:04.714',-1.010,-0.365
'0:04.717',-1.000,-0.365
'0:04.719',-0.995,-0.340
'0:04.722',-0.975,-0.330
'0:04.725',-0.950,-0.305
'0:04.728',-0.935,-0.295
'0:04.731',-0.895,-0.285
'0:04.733',-0.855,-0.285
'0:04.736',-0.820,-0.280
'0:04.739',-0.790,-0.275
'0:04.742',-0.760,-0.300
'0:04.744',-0.735,-0.310
'0:04.747',-0.700,-0.315
'0:04.750',-0.670,-0.325
'0:04.753',-0.640,-0.340
'0:04.756',-0.625,-0.330
'0:04.758',-0.595,-0.305
'0:04.761',-0.555,-0.270
'0:04.764',-0.540,-0.250
'0:04.767',-0.510,-0.245
'0:04.769',-0.500,-0.255
'0:04.772',-0.450,-0.245
'0:04.775',-0.425,-0.245
'0:04.778',-0.425,-0.265
'0:04.781',-0.400,-0.280
'0:04.783',-0.400,-0.285
'0:04.786',-0.395,-0.275
'0:04.789',-0.380,-0.260
'0:04.792',-0.365,-0.270
'0:04.794',-0.360,-0.260
'0:04.797',-0.345,-0.255
'0:04.800',-0.335,-0.260
'0:04.803',-0.370,-0.255
'0:04.806',-0.400,-0.280
'0:04.808',-0.435,-0.295
'0:04.811',-0.485,-0.320
'0:04.814',-0.515,-0.320
'0:04.817',-0.550,-0.335
'0:04.819',-0.595,-0.325
'0:04.822',-0.650,-0.330
'0:04.825',-0.700,-0.330
'0:04.828',-0.730,-0.325
'0:04.831',-0.780,-0.335
'0:04.833',-0.800,-0.305
'0:04.836',-0.855,-0.315
'0:04.839',-0.905,-0.350
'0:04.842',-0.955,-0.370
'0:04.844',-1.035,-0.400
'0:04.847',-1.085,-0.410
'0:04.850',-1.120,-0.425
'0:04.853',-1.165,-0.395
'0:04.856',-1.195,-0.380
'0:04.858',-1.215,-0.355
'0:04.861',-1.225,-0.345
'0:04.864',-1.230,-0.360
'0:04.867',-1.230,-0.370
'0:04.869',-1.235,-0.400
'0:04.872',-1.255,-0.410
'0:04.875',-1.260,-0.425
'0:04.878',-1.260,-0.405
'0:04.881',-1.270,-0.415
'0:04.883',-1.265,-0.370
'0:04.886',-1.285,-0.385
'0:04.889',-1.285,-0.370
'0:04.892',-1.295,-0.370
'0:04.894',-1.300,-0.370
'0:04.897',-1.290,-0.375
'0:04.900',-1.290,-0.360
'0:04.903',-1.290,-0.370
'0:04.906',-1.265,-0.365
'0:04.908',-1.275,-0.360
'0:04.911',-1.275,-0.380
'0:04.914',-1.280,-0.400
'0:04.917',-1.270,-0.420
'0:04.919',-1.280,-0.425
'0:04.922',-1.270,-0.400
'0:04.925',-1.260,-0.385
'0:04.928',-1.245,-0.360
'0:04.931',-1.245,-0.325
'0:04.933',-1.225,-0.330
'0:04.936',-1.220,-0.315
'0:04.939',-1.220,-0.350
'0:04.942',-1.225,-0.370
'0:04.944',-1.235,-0.390
'0:04.947',-1.255,-0.420
'0:04.950',-1.270,-0.405
'0:04.953',-1.275,-0.415
'0:04.956',-1.280,-0.395
'0:04.958',-1.265,-0.390
'0:04.961',-1.255,-0.365
'0:04.964',-1.235,-0.370
'0:04.967',-1.225,-0.360
'0:04.969',-1.215,-0.365
'0:04.972',-1.245,-0.365
'0:04.975',-1.255,-0.365
'0:04.978',-1.260,-0.380
'0:04.981',-1.255,-0.400
'0:04.983',-1.270,-0.415
'0:04.986',-1.275,-0.415
'0:04.989',-1.280,-0.410
'0:04.992',-1.280,-0.405
'0:04.994',-1.285,-0.390
'0:04.997',-1.280,-0.370
'0:05.000',-1.270,-0.360
'0:05.003',-1.265,-0.360
'0:05.006',-1.255,-0.370
'0:05.008',-1.275,-0.370
'0:05.011',-1.285,-0.370
'0:05.014',-1.300,-0.385
'0:05.017',-1.330,-0.380
'0:05.019',-1.340,-0.380
'0:05.022',-1.350,-0.385
'0:05.025',-1.345,-0.370
'0:05.028',-1.335,-0.395
'0:05.031',-1.310,-0.390
'0:05.033',-1.315,-0.400
'0:05.036',-1.310,-0.430
'0:05.039',-1.330,-0.390
'0:05.042',-1.335,-0.400
'0:05.044',-1.340,-0.375
'0:05.047',-1.340,-0.375
'0:05.050',-1.340,-0.375
'0:05.053',-1.345,-0.385
'0:05.056',-1.375,-0.385
'0:05.058',-1.380,-0.390
'0:05.061',-1.375,-0.395
'0:05.064',-1.370,-0.370
'0:05.067',-1.380,-0.370
'0:05.069',-1.335,-0.365
'0:05.072',-1.335,-0.355
'0:05.075',-1.345,-0.360
'0:05.078',-1.345,-0.400
'0:05.081',-1.360,-0.410
'0:05.083',-1.365,-0.415
'0:05.086',-1.380,-0.415
'0:05.089',-1.380,-0.405
'0:05.092',-1.385,-0.390
'0:05.094',-1.365,-0.385
'0:05.097',-1.340,-0.385
'0:05.100',-1.335,-0.360
'0:05.103',-1.335,-0.375
'0:05.106',-1.355,-0.365
'0:05.108',-1.360,-0.360
'0:05.111',-1.350,-0.360
'0:05.114',-1.360,-0.365
'0:05.117',-1.335,-0.370
'0:05.119',-1.330,-0.350
'0:05.122',-1.325,-0.345
'0:05.125',-1.310,-0.335
'0:05.128',-1.295,-0.315
'0:05.131',-1.280,-0.315
'0:05.133',-1.265,-0.310
'0:05.136',-1.255,-0.325
'0:05.139',-1.260,-0.355
'0:05.142',-1.260,-0.375
'0:05.144',-1.270,-0.385
'0:05.147',-1.250,-0.380
'0:05.150',-1.260,-0.370
'0:05.153',-1.220,-0.355
'0:05.156',-1.220,-0.345
'0:05.158',-1.195,-0.345
'0:05.161',-1.175,-0.330
'0:05.164',-1.155,-0.340
'0:05.167',-1.135,-0.345
'0:05.169',-1.130,-0.375
'0:05.172',-1.140,-0.380
'0:05.175',-1.170,-0.390
'0:05.178',-1.210,-0.395
'0:05.181',-1.235,-0.390
'0:05.183',-1.260,-0.380
'0:05.186',-1.280,-0.400
'0:05.189',-1.275,-0.400
'0:05.192',-1.280,-0.385
'0:05.194',-1.285,-0.390
'0:05.197',-1.270,-0.365
'0:05.200',-1.285,-0.365
'0:05.203',-1.295,-0.365
'0:05.206',-1.330,-0.365
'0:05.208',-1.375,-0.395
'0:05.211',-1.410,-0.405
'0:05.214',-1.410,-0.405
'0:05.217',-1.440,-0.395
'0:05.219',-1.450,-0.385
'0:05.222',-1.440,-0.385
'0:05.225',-1.410,-0.390
'0:05.228',-1.390,-0.380
'0:05.231',-1.375,-0.385
'0:05.233',-1.355,-0.370
'0:05.236',-1.365,-0.365
'0:05.239',-1.355,-0.355
'0:05.242',-1.375,-0.365
'0:05.244',-1.390,-0.365
'0:05.247',-1.410,-0.385
'0:05.250',-1.415,-0.375
'0:05.253',-1.425,-0.375
'0:05.256',-1.415,-0.360
'0:05.258',-1.400,-0.355
'0:05.261',-1.385,-0.370
'0:05.264',-1.355,-0.390
'0:05.267',-1.320,-0.400
'0:05.269',-1.260,-0.470
'0:05.272',-1.185,-0.535
'0:05.275',-1.070,-0.590
'0:05.278',-0.935,-0.685
'0:05.281',-0.740,-0.775
'0:05.283',-0.500,-0.835
'0:05.286',-0.225,-0.895
'0:05.289',0.090,-0.955
'0:05.292',0.440,-1.010
'0:05.294',0.840,-1.070
'0:05.297',1.275,-1.075
'0:05.300',1.680,-1.015
'0:05.303',1.990,-0.925
'0:05.306',2.145,-0.790
'0:05.308',2.040,-0.645
'0:05.311',1.615,-0.540
'0:05.314',0.975,-0.505
'0:05.317',0.335,-0.510
'0:05.319',-0.305,-0.550
'0:05.322',-0.945,-0.570
'0:05.325',-1.585,-0.520
'0:05.328',-2.055,-0.485
'0:05.331',-1.815,-0.430
'0:05.333',-1.475,-0.380
'0:05.336',-1.220,-0.335
'0:05.339',-1.055,-0.345
'0:05.342',-1.020,-0.340
'0:05.344',-1.090,-0.340
'0:05.347',-1.190,-0.355
'0:05.350',-1.295,-0.380
'0:05.353',-1.350,-0.385
'0:05.356',-1.395,-0.395
'0:05.358',-1.385,-0.380
'0:05.361',-1.380,-0.360
'0:05.364',-1.340,-0.360
'0:05.367',-1.335,-0.330
'0:05.369',-1.335,-0.320
'0:05.372',-1.345,-0.325
'0:05.375',-1.360,-0.320
'0:05.378',-1.350,-0.355
'0:05.381',-1.340,-0.360
'0:05.383',-1.350,-0.345
'0:05.386',-1.340,-0.355
'0:05.389',-1.335,-0.345
'0:05.392',-1.315,-0.335
'0:05.394',-1.300,-0.335
'0:05.397',-1.285,-0.340
'0:05.400',-1.270,-0.320
'0:05.403',-1.265,-0.320
'0:05.406',-1.270,-0.305
'0:05.408',-1.275,-0.330
'0:05.411',-1.280,-0.335
'0:05.414',-1.280,-0.335
'0:05.417',-1.290,-0.330
'0:05.419',-1.280,-0.350
'0:05.422',-1.270,-0.345
'0:05.425',-1.260,-0.335
'0:05.428',-1.250,-0.330
'0:05.431',-1.215,-0.310
'0:05.433',-1.205,-0.270
'0:05.436',-1.175,-0.275
'0:05.439',-1.160,-0.300
'0:05.442',-1.155,-0.335
'0:05.444',-1.160,-0.350
'0:05.447',-1.150,-0.375
'0:05.450',-1.135,-0.370
'0:05.453',-1.145,-0.320
'0:05.456',-1.125,-0.305
'0:05.458',-1.105,-0.270
'0:05.461',-1.100,-0.270
'0:05.464',-1.065,-0.265
'0:05.467',-1.040,-0.280
'0:05.469',-1.005,-0.300
'0:05.472',-0.990,-0.305
'0:05.475',-0.970,-0.325
'0:05.478',-0.970,-0.300
'0:05.481',-0.965,-0.320
'0:05.483',-0.960,-0.300
'0:05.486',-0.955,-0.305
'0:05.489',-0.915,-0.295
'0:05.492',-0.885,-0.285
'0:05.494',-0.830,-0.290
'0:05.497',-0.795,-0.255
'0:05.500',-0.760,-0.225
'0:05.503',-0.715,-0.200
'0:05.506',-0.705,-0.180
'0:05.508',-0.685,-0.205
'0:05.511',-0.670,-0.210
'0:05.514',-0.640,-0.230
'0:05.517',-0.625,-0.245
'0:05.519',-0.595,-0.275
'0:05.522',-0.575,-0.270
'0:05.525',-0.575,-0.280
'0:05.528',-0.570,-0.270
'0:05.531',-0.545,-0.220
'0:05.533',-0.520,-0.205
'0:05.536',-0.515,-0.195
'0:05.539',-0.490,-0.180
'0:05.542',-0.490,-0.200
'0:05.544',-0.510,-0.195
'0:05.547',-0.515,-0.230
'0:05.550',-0.540,-0.230
'0:05.553',-0.545,-0.235
'0:05.556',-0.565,-0.240
'0:05.558',-0.575,-0.245
'0:05.561',-0.600,-0.265
'0:05.564',-0.625,-0.270
'0:05.567',-0.650,-0.270
'0:05.569',-0.700,-0.275
'0:05.572',-0.750,-0.260
'0:05.575',-0.800,-0.270
'0:05.578',-0.855,-0.270
'0:05.581',-0.895,-0.295
'0:05.583',-0.945,-0.295
'0:05.586',-1.010,-0.290
'0:05.589',-1.050,-0.285
'0:05.592',-1.090,-0.270
'0:05.594',-1.115,-0.280
'0:05.597',-1.160,-0.305
'0:05.600',-1.170,-0.320
'0:05.603',-1.180,-0.345
'0:05.606',-1.220,-0.340
'0:05.608',-1.240,-0.370
'0:05.611',-1.270,-0.375
'0:05.614',-1.295,-0.390
'0:05.617',-1.310,-0.365
'0:05.619',-1.320,-0.370
'0:05.622',-1.330,-0.350
'0:05.625',-1.335,-0.345
'0:05.628',-1.325,-0.350
'0:05.631',-1.335,-0.335
'0:05.633',-1.335,-0.320
'0:05.636',-1.320,-0.325
'0:05.639',-1.335,-0.340
'0:05.642',-1.335,-0.335
'0:05.644',-1.345,-0.345
'0:05.647',-1.345,-0.355
'0:05.650',-1.345,-0.360
'0:05.653',-1.355,-0.375
'0:05.656',-1.340,-0.365
'0:05.658',-1.340,-0.360
'0:05.661',-1.330,-0.330
'0:05.664',-1.320,-0.335
'0:05.667',-1.315,-0.315
'0:05.669',-1.310,-0.335
'0:05.672',-1.310,-0.345
'0:05.675',-1.315,-0.380
'0:05.678',-1.320,-0.375
'0:05.681',-1.330,-0.380
'0:05.683',-1.335,-0.365
'0:05.686',-1.350,-0.375
'0:05.689',-1.370,-0.355
'0:05.692',-1.350,-0.335
'0:05.694',-1.335,-0.320
'0:05.697',-1.305,-0.325
'0:05.700',-1.295,-0.340
'0:05.703',-1.275,-0.345
'0:05.706',-1.265,-0.340
'0:05.708',-1.275,-0.355
'0:05.711',-1.280,-0.355
'0:05.714',-1.295,-0.360
'0:05.717',-1.315,-0.375
'0:05.719',-1.310,-0.355
'0:05.722',-1.320,-0.360
'0:05.725',-1.310,-0.345
'0:05.728',-1.305,-0.330
'0:05.731',-1.295,-0.330
'0:05.733',-1.300,-0.320
'0:05.736',-1.290,-0.345
'0:05.739',-1.305,-0.365
'0:05.742',-1.305,-0.370
'0:05.744',-1.310,-0.375
'0:05.747',-1.320,-0.390
'0:05.750',-1.310,-0.380
'0:05.753',-1.315,-0.395
'0:05.756',-1.315,-0.365
'0:05.758',-1.335,-0.360
'0:05.761',-1.345,-0.345
'0:05.764',-1.365,-0.340
'0:05.767',-1.370,-0.335
'0:05.769',-1.375,-0.345
'0:05.772',-1.385,-0.350
'0:05.775',-1.380,-0.375
'0:05.778',-1.395,-0.365
'0:05.781',-1.390,-0.390
'0:05.783',-1.400,-0.380
'0:05.786',-1.400,-0.385
'0:05.789',-1.410,-0.390
'0:05.792',-1.420,-0.385
'0:05.794',-1.400,-0.355
'0:05.797',-1.405,-0.340
'0:05.800',-1.400,-0.320
'0:05.803',-1.390,-0.340
'0:05.806',-1.385,-0.365
'0:05.808',-1.400,-0.380
'0:05.811',-1.400,-0.390
'0:05.814',-1.410,-0.395
'0:05.817',-1.425,-0.385
'0:05.819',-1.415,-0.395
'0:05.822',-1.420,-0.395
'0:05.825',-1.415,-0.385
'0:05.828',-1.400,-0.360
'0:05.831',-1.405,-0.360
'0:05.833',-1.390,-0.335
'0:05.836',-1.380,-0.345
'0:05.839',-1.385,-0.360
'0:05.842',-1.385,-0.370
'0:05.844',-1.395,-0.400
'0:05.847',-1.415,-0.400
'0:05.850',-1.415,-0.395
'0:05.853',-1.410,-0.395
'0:05.856',-1.435,-0.365
'0:05.858',-1.450,-0.370
'0:05.861',-1.440,-0.345
'0:05.864',-1.435,-0.350
'0:05.867',-1.430,-0.335
'0:05.869',-1.405,-0.320
'0:05.872',-1.380,-0.325
'0:05.875',-1.375,-0.315
'0:05.878',-1.335,-0.315
'0:05.881',-1.320,-0.330
'0:05.883',-1.330,-0.330
'0:05.886',-1.330,-0.330
'0:05.889',-1.335,-0.335
'0:05.892',-1.340,-0.320
'0:05.894',-1.340,-0.305
'0:05.897',-1.345,-0.310
'0:05.900',-1.320,-0.290
'0:05.903',-1.315,-0.290
'0:05.906',-1.305,-0.300
'0:05.908',-1.310,-0.345
'0:05.911',-1.310,-0.365
'0:05.914',-1.305,-0.380
'0:05.917',-1.290,-0.395
'0:05.919',-1.250,-0.385
'0:05.922',-1.240,-0.370
'0:05.925',-1.235,-0.335
'0:05.928',-1.235,-0.335
'0:05.931',-1.220,-0.330
'0:05.933',-1.230,-0.345
'0:05.936',-1.235,-0.360
'0:05.939',-1.250,-0.375
'0:05.942',-1.260,-0.370
'0:05.944',-1.300,-0.350
'0:05.947',-1.325,-0.370
'0:05.950',-1.330,-0.370
'0:05.953',-1.315,-0.370
'0:05.956',-1.310,-0.410
'0:05.958',-1.340,-0.400
'0:05.961',-1.335,-0.415
'0:05.964',-1.355,-0.405
'0:05.967',-1.380,-0.395
'0:05.969',-1.400,-0.390
'0:05.972',-1.430,-0.395
'0:05.975',-1.455,-0.405
'0:05.978',-1.460,-0.400
'0:05.981',-1.475,-0.390
'0:05.983',-1.480,-0.390
'0:05.986',-1.480,-0.385
'0:05.989',-1.465,-0.385
'0:05.992',-1.465,-0.380
'0:05.994',-1.455,-0.370
'0:05.997',-1.445,-0.360
'0:06.000',-1.420,-0.360
'0:06.003',-1.410,-0.350
'0:06.006',-1.415,-0.340
'0:06.008',-1.425,-0.325
'0:06.011',-1.445,-0.355
'0:06.014',-1.465,-0.375
'0:06.017',-1.450,-0.405
'0:06.019',-1.415,-0.455
'0:06.022',-1.365,-0.495
'0:06.025',-1.265,-0.560
'0:06.028',-1.125,-0.645
'0:06.031',-0.935,-0.720
'0:06.033',-0.665,-0.790
'0:06.036',-0.330,-0.880
'0:06.039',0.045,-0.955
'0:06.042',0.470,-1.035
'0:06.044',0.880,-1.115
'0:06.047',1.290,-1.155
'0:06.050',1.645,-1.135
'0:06.053',1.900,-1.085
'0:06.056',2.065,-0.980
'0:06.058',2.095,-0.840
'0:06.061',1.910,-0.710
'0:06.064',1.465,-0.615
'0:06.067',0.825,-0.580
'0:06.069',0.185,-0.535
'0:06.072',-0.455,-0.535
'0:06.075',-1.095,-0.525
'0:06.078',-1.735,-0.500
'0:06.081',-1.995,-0.450
'0:06.083',-1.735,-0.405
'0:06.086',-1.450,-0.375
'0:06.089',-1.230,-0.335
'0:06.092',-1.145,-0.335
'0:06.094',-1.145,-0.345
'0:06.097',-1.220,-0.350
'0:06.100',-1.310,-0.355
'0:06.103',-1.370,-0.365
'0:06.106',-1.415,-0.365
'0:06.108',-1.425,-0.360
'0:06.111',-1.420,-0.365
'0:06.114',-1.410,-0.365
'0:06.117',-1.410,-0.370
'0:06.119',-1.405,-0.350
'0:06.122',-1.400,-0.325
'0:06.125',-1.395,-0.310
'0:06.128',-1.400,-0.295
'0:06.131',-1.385,-0.295
'0:06.133',-1.390,-0.285
'0:06.136',-1.350,-0.290
'0:06.139',-1.330,-0.310
'0:06.142',-1.325,-0.335
'0:06.144',-1.325,-0.355
'0:06.147',-1.330,-0.365
'0:06.150',-1.340,-0.365
'0:06.153',-1.325,-0.350
'0:06.156',-1.335,-0.345
'0:06.158',-1.345,-0.340
'0:06.161',-1.330,-0.335
'0:06.164',-1.320,-0.305
'0:06.167',-1.305,-0.295
'0:06.169',-1.285,-0.285
'0:06.172',-1.260,-0.290
'0:06.175',-1.265,-0.280
'0:06.178',-1.255,-0.300
'0:06.181',-1.255,-0.310
'0:06.183',-1.265,-0.325
'0:06.186',-1.240,-0.340
'0:06.189',-1.235,-0.350
'0:06.192',-1.225,-0.345
'0:06.194',-1.190,-0.325
'0:06.197',-1.165,-0.290
'0:06.200',-1.130,-0.280
'0:06.203',-1.110,-0.255
'0:06.206',-1.095,-0.250
'0:06.208',-1.090,-0.235
'0:06.211',-1.090,-0.260
'0:06.214',-1.075,-0.275
'0:06.217',-1.065,-0.295
'0:06.219',-1.040,-0.305
'0:06.222',-1.030,-0.305
'0:06.225',-1.005,-0.340
'0:06.228',-0.975,-0.310
'0:06.231',-0.955,-0.295
'0:06.233',-0.950,-0.275
'0:06.236',-0.915,-0.255
'0:06.239',-0.880,-0.250
'0:06.242',-0.845,-0.235
'0:06.244',-0.830,-0.260
'0:06.247',-0.805,-0.230
'0:06.250',-0.810,-0.240
'0:06.253',-0.765,-0.230
'0:06.256',-0.730,-0.250
'0:06.258',-0.710,-0.235
'0:06.261',-0.675,-0.230
'0:06.264',-0.645,-0.220
'0:06.267',-0.605,-0.190
'0:06.269',-0.595,-0.195
'0:06.272',-0.565,-0.180
'0:06.275',-0.565,-0.185
'0:06.278',-0.570,-0.225
'0:06.281',-0.585,-0.230
'0:06.283',-0.600,-0.240
'0:06.286',-0.605,-0.230
'0:06.289',-0.620,-0.225
'0:06.292',-0.615,-0.215
'0:06.294',-0.605,-0.190
'0:06.297',-0.595,-0.170
'0:06.300',-0.625,-0.195
'0:06.303',-0.605,-0.215
'0:06.306',-0.635,-0.235
'0:06.308',-0.675,-0.245
'0:06.311',-0.725,-0.265
'0:06.314',-0.790,-0.285
'0:06.317',-0.845,-0.305
'0:06.319',-0.905,-0.320
'0:06.322',-0.945,-0.335
'0:06.325',-0.985,-0.340
'0:06.328',-1.015,-0.370
'0:06.331',-1.060,-0.375
'0:06.333',-1.100,-0.390
'0:06.336',-1.105,-0.380
'0:06.339',-1.125,-0.360
'0:06.342',-1.160,-0.365
'0:06.344',-1.190,-0.355
'0:06.347',-1.210,-0.370
'0:06.350',-1.250,-0.370
'0:06.353',-1.255,-0.385
'0:06.356',-1.285,-0.395
'0:06.358',-1.295,-0.390
'0:06.361',-1.290,-0.370
'0:06.364',-1.295,-0.360
'0:06.367',-1.295,-0.355
'0:06.369',-1.285,-0.355
'0:06.372',-1.295,-0.360
'0:06.375',-1.305,-0.390
'0:06.378',-1.340,-0.410
'0:06.381',-1.340,-0.365
'0:06.383',-1.335,-0.385
'0:06.386',-1.340,-0.380
'0:06.389',-1.345,-0.390
'0:06.392',-1.345,-0.380
'0:06.394',-1.325,-0.370
'0:06.397',-1.310,-0.360
'0:06.400',-1.300,-0.375
'0:06.403',-1.290,-0.380
'0:06.406',-1.290,-0.380
'0:06.408',-1.295,-0.390
'0:06.411',-1.305,-0.410
'0:06.414',-1.325,-0.395
'0:06.417',-1.315,-0.410
'0:06.419',-1.315,-0.415
'0:06.422',-1.315,-0.405
'0:06.425',-1.310,-0.405
'0:06.428',-1.300,-0.410
'0:06.431',-1.275,-0.380
'0:06.433',-1.270,-0.370
'0:06.436',-1.290,-0.360
'0:06.439',-1.280,-0.370
'0:06.442',-1.280,-0.370
'0:06.444',-1.270,-0.380
'0:06.447',-1.275,-0.400
'0:06.450',-1.285,-0.410
'0:06.453',-1.300,-0.430
'0:06.456',-1.295,-0.445
'0:06.458',-1.285,-0.420
'0:06.461',-1.280,-0.395
'0:06.464',-1.280,-0.385
'0:06.467',-1.255,-0.380
'0:06.469',-1.250,-0.375
'0:06.472',-1.255,-0.370
'0:06.475',-1.255,-0.370
'0:06.478',-1.265,-0.385
'0:06.481',-1.280,-0.380
'0:06.483',-1.295,-0.380
'0:06.486',-1.290,-0.385
'0:06.489',-1.290,-0.390
'0:06.492',-1.305,-0.395
'0:06.494',-1.295,-0.400
'0:06.497',-1.305,-0.400
'0:06.500',-1.285,-0.380
'0:06.503',-1.280,-0.385
'0:06.506',-1.285,-0.400
'0:06.508',-1.280,-0.410
'0:06.511',-1.310,-0.425
'0:06.514',-1.325,-0.420
'0:06.517',-1.330,-0.425
'0:06.519',-1.335,-0.420
'0:06.522',-1.320,-0.400
'0:06.525',-1.320,-0.390
'0:06.528',-1.305,-0.385
'0:06.531',-1.300,-0.400
'0:06.533',-1.300,-0.390
'0:06.536',-1.310,-0.410
'0:06.539',-1.315,-0.415
'0:06.542',-1.335,-0.410
'0:06.544',-1.340,-0.430
'0:06.547',-1.335,-0.415
'0:06.550',-1.335,-0.430
'0:06.553',-1.345,-0.420
'0:06.556',-1.340,-0.440
'0:06.558',-1.345,-0.430
'0:06.561',-1.335,-0.405
'0:06.564',-1.315,-0.400
'0:06.567',-1.315,-0.390
'0:06.569',-1.310,-0.395
'0:06.572',-1.315,-0.385
'0:06.575',-1.295,-0.395
'0:06.578',-1.315,-0.400
'0:06.581',-1.325,-0.420
'0:06.583',-1.320,-0.430
'0:06.586',-1.335,-0.410
'0:06.589',-1.345,-0.425
'0:06.592',-1.335,-0.415
'0:06.594',-1.340,-0.415
'0:06.597',-1.325,-0.400
'0:06.600',-1.325,-0.385
'0:06.603',-1.310,-0.380
'0:06.606',-1.300,-0.370
'0:06.608',-1.300,-0.365
'0:06.611',-1.295,-0.370
'0:06.614',-1.290,-0.365
'0:06.617',-1.280,-0.375
'0:06.619',-1.280,-0.360
'0:06.622',-1.265,-0.355
'0:06.625',-1.250,-0.360
'0:06.628',-1.240,-0.365
'0:06.631',-1.235,-0.365
'0:06.633',-1.225,-0.355
'0:06.636',-1.220,-0.350
'0:06.639',-1.210,-0.350
'0:06.642',-1.210,-0.355
'0:06.644',-1.220,-0.355
'0:06.647',-1.225,-0.375
'0:06.650',-1.210,-0.390
'0:06.653',-1.215,-0.395
'0:06.656',-1.195,-0.410
'0:06.658',-1.180,-0.385
'0:06.661',-1.160,-0.385
'0:06.664',-1.125,-0.365
'0:06.667',-1.120,-0.365
'0:06.669',-1.125,-0.360
'0:06.672',-1.115,-0.375
'0:06.675',-1.145,-0.385
'0:06.678',-1.160,-0.380
'0:06.681',-1.175,-0.405
'0:06.683',-1.205,-0.420
'0:06.686',-1.215,-0.420
'0:06.689',-1.225,-0.435
'0:06.692',-1.215,-0.450
'0:06.694',-1.225,-0.440
'0:06.697',-1.210,-0.430
'0:06.700',-1.220,-0.410
'0:06.703',-1.235,-0.405
'0:06.706',-1.260,-0.410
'0:06.708',-1.280,-0.420
'0:06.711',-1.315,-0.435
'0:06.714',-1.345,-0.445
'0:06.717',-1.365,-0.450
'0:06.719',-1.385,-0.445
'0:06.722',-1.390,-0.435
'0:06.725',-1.385,-0.440
'0:06.728',-1.380,-0.440
'0:06.731',-1.370,-0.430
'0:06.733',-1.355,-0.410
'0:06.736',-1.340,-0.385
'0:06.739',-1.330,-0.390
'0:06.742',-1.330,-0.410
'0:06.744',-1.345,-0.425
'0:06.747',-1.345,-0.430
'0:06.750',-1.355,-0.420
'0:06.753',-1.335,-0.420
'0:06.756',-1.345,-0.425
'0:06.758',-1.330,-0.430
'0:06.761',-1.315,-0.450
'0:06.764',-1.290,-0.500
'0:06.767',-1.235,-0.565
'0:06.769',-1.135,-0.665
'0:06.772',-1.000,-0.775
'0:06.775',-0.790,-0.860
'0:06.778',-0.510,-0.955
'0:06.781',-0.150,-1.055
'0:06.783',0.240,-1.130
'0:06.786',0.685,-1.205
'0:06.789',1.150,-1.235
'0:06.792',1.630,-1.235
'0:06.794',2.020,-1.175
'0:06.797',2.285,-1.075
'0:06.800',2.390,-0.945
'0:06.803',2.275,-0.840
'0:06.806',1.905,-0.765
'0:06.808',1.290,-0.710
'0:06.811',0.650,-0.680
'0:06.814',0.010,-0.675
'0:06.817',-0.630,-0.655
'0:06.819',-1.270,-0.625
'0:06.822',-1.860,-0.565
'0:06.825',-1.780,-0.515
'0:06.828',-1.520,-0.455
'0:06.831',-1.255,-0.405
'0:06.833',-1.065,-0.400
'0:06.836',-0.985,-0.420
'0:06.839',-1.000,-0.435
'0:06.842',-1.085,-0.450
'0:06.844',-1.195,-0.435
'0:06.847',-1.265,-0.430
'0:06.850',-1.310,-0.435
'0:06.853',-1.310,-0.425
'0:06.856',-1.330,-0.405
'0:06.858',-1.300,-0.370
'0:06.861',-1.270,-0.370
'0:06.864',-1.250,-0.370
'0:06.867',-1.250,-0.375
'0:06.869',-1.255,-0.385
'0:06.872',-1.255,-0.385
'0:06.875',-1.265,-0.390
'0:06.878',-1.260,-0.385
'0:06.881',-1.270,-0.390
'0:06.883',-1.270,-0.395
'0:06.886',-1.260,-0.405
'0:06.889',-1.265,-0.405
'0:06.892',-1.245,-0.385
'0:06.894',-1.230,-0.350
'0:06.897',-1.215,-0.335
'0:06.900',-1.200,-0.315
'0:06.903',-1.190,-0.310
'0:06.906',-1.185,-0.345
'0:06.908',-1.185,-0.370
'0:06.911',-1.195,-0.385
'0:06.914',-1.185,-0.390
'0:06.917',-1.190,-0.360
'0:06.919',-1.190,-0.335
'0:06.922',-1.180,-0.340
'0:06.925',-1.165,-0.340
'0:06.928',-1.160,-0.345
'0:06.931',-1.135,-0.365
'0:06.933',-1.105,-0.370
'0:06.936',-1.080,-0.360
'0:06.939',-1.075,-0.345
'0:06.942',-1.070,-0.360
'0:06.944',-1.045,-0.360
'0:06.947',-1.050,-0.355
'0:06.950',-1.035,-0.370
'0:06.953',-1.040,-0.375
'0:06.956',-1.015,-0.360
'0:06.958',-1.010,-0.345
'0:06.961',-0.975,-0.315
'0:06.964',-0.955,-0.305
'0:06.967',-0.920,-0.295
'0:06.969',-0.870,-0.305
'0:06.972',-0.830,-0.295
'0:06.975',-0.815,-0.300
'0:06.978',-0.810,-0.305
'0:06.981',-0.795,-0.290
'0:06.983',-0.780,-0.310
'0:06.986',-0.735,-0.305
'0:06.989',-0.745,-0.285
'0:06.992',-0.720,-0.265
'0:06.994',-0.680,-0.230
'0:06.997',-0.645,-0.235
'0:07.000',-0.590,-0.235
'0:07.003',-0.555,-0.235
'0:07.006',-0.545,-0.250
'0:07.008',-0.525,-0.260
'0:07.011',-0.515,-0.260
'0:07.014',-0.485,-0.250
'0:07.017',-0.485,-0.270
'0:07.019',-0.470,-0.255
'0:07.022',-0.475,-0.270
'0:07.025',-0.465,-0.245
'0:07.028',-0.460,-0.220
'0:07.031',-0.465,-0.225
'0:07.033',-0.475,-0.240
'0:07.036',-0.485,-0.225
'0:07.039',-0.480,-0.225
'0:07.042',-0.505,-0.245
'0:07.044',-0.540,-0.285
'0:07.047',-0.585,-0.320
'0:07.050',-0.615,-0.350
'0:07.053',-0.655,-0.370
'0:07.056',-0.705,-0.375
'0:07.058',-0.760,-0.345
'0:07.061',-0.810,-0.350
'0:07.064',-0.855,-0.345
'0:07.067',-0.905,-0.360
'0:07.069',-0.920,-0.390
'0:07.072',-0.975,-0.390
'0:07.075',-1.015,-0.410
'0:07.078',-1.065,-0.430
'0:07.081',-1.105,-0.450
'0:07.083',-1.150,-0.460
'0:07.086',-1.185,-0.465
'0:07.089',-1.195,-0.465
'0:07.092',-1.225,-0.450
'0:07.094',-1.215,-0.450
'0:07.097',-1.220,-0.445
'0:07.100',-1.230,-0.420
'0:07.103',-1.235,-0.415
'0:07.106',-1.245,-0.415
'0:07.108',-1.265,-0.430
'0:07.111',-1.265,-0.430
'0:07.114',-1.280,-0.455
'0:07.117',-1.280,-0.445
'0:07.119',-1.295,-0.460
'0:07.122',-1.310,-0.455
'0:07.125',-1.315,-0.450
'0:07.128',-1.310,-0.420
'0:07.131',-1.290,-0.435
'0:07.133',-1.280,-0.435
'0:07.136',-1.280,-0.415
'0:07.139',-1.275,-0.440
'0:07.142',-1.265,-0.430
'0:07.144',-1.275,-0.460
'0:07.147',-1.290,-0.475
'0:07.150',-1.285,-0.470
'0:07.153',-1.290,-0.490
'0:07.156',-1.295,-0.500
'0:07.158',-1.280,-0.480
'0:07.161',-1.280,-0.460
'0:07.164',-1.265,-0.450
'0:07.167',-1.260,-0.435
'0:07.169',-1.245,-0.415
'0:07.172',-1.255,-0.430
'0:07.175',-1.250,-0.430
'0:07.178',-1.240,-0.465
'0:07.181',-1.250,-0.475
'0:07.183',-1.250,-0.475
'0:07.186',-1.250,-0.470
'0:07.189',-1.265,-0.450
'0:07.192',-1.265,-0.425
'0:07.194',-1.280,-0.420
'0:07.197',-1.265,-0.410
'0:07.200',-1.265,-0.420
'0:07.203',-1.245,-0.430
'0:07.206',-1.220,-0.450
'0:07.208',-1.220,-0.465
'0:07.211',-1.230,-0.470
'0:07.214',-1.240,-0.470
'0:07.217',-1.255,-0.440
'0:07.219',-1.270,-0.455
'0:07.222',-1.285,-0.440
'0:07.225',-1.285,-0.445
'0:07.228',-1.285,-0.465
'0:07.231',-1.265,-0.465
'0:07.233',-1.275,-0.465
'0:07.236',-1.270,-0.465
'0:07.239',-1.295,-0.450
'0:07.242',-1.300,-0.445
'0:07.244',-1.315,-0.470
'0:07.247',-1.320,-0.465
'0:07.250',-1.295,-0.485
'0:07.253',-1.290,-0.505
'0:07.256',-1.315,-0.515
'0:07.258',-1.315,-0.500
'0:07.261',-1.325,-0.495
'0:07.264',-1.305,-0.465
'0:07.267',-1.305,-0.450
'0:07.269',-1.290,-0.435
'0:07.272',-1.275,-0.440
'0:07.275',-1.270,-0.465
'0:07.278',-1.280,-0.490
'0:07.281',-1.300,-0.485
'0:07.283',-1.310,-0.510
'0:07.286',-1.320,-0.505
'0:07.289',-1.330,-0.500
'0:07.292',-1.335,-0.530
'0:07.294',-1.330,-0.500
'0:07.297',-1.320,-0.505
'0:07.300',-1.320,-0.485
'0:07.303',-1.325,-0.490
'0:07.306',-1.335,-0.490
'0:07.308',-1.325,-0.490
'0:07.311',-1.325,-0.500
'0:07.314',-1.325,-0.485
'0:07.317',-1.325,-0.500
'0:07.319',-1.320,-0.500
'0:07.322',-1.335,-0.490
'0:07.325',-1.330,-0.500
'0:07.328',-1.330,-0.495
'0:07.331',-1.320,-0.505
'0:07.333',-1.305,-0.490
'0:07.336',-1.300,-0.495
'0:07.339',-1.300,-0.495
'0:07.342',-1.315,-0.490
'0:07.344',-1.300,-0.480
'0:07.347',-1.315,-0.500
'0:07.350',-1.330,-0.495
'0:07.353',-1.345,-0.485
'0:07.356',-1.355,-0.490
'0:07.358',-1.350,-0.475
'0:07.361',-1.320,-0.455
'0:07.364',-1.275,-0.445
'0:07.367',-1.240,-0.430
'0:07.369',-1.225,-0.420
'0:07.372',-1.210,-0.405
'0:07.375',-1.210,-0.400
'0:07.378',-1.210,-0.420
'0:07.381',-1.230,-0.435
'0:07.383',-1.230,-0.450
'0:07.386',-1.240,-0.475
'0:07.389',-1.245,-0.475
'0:07.392',-1.230,-0.455
'0:07.394',-1.210,-0.430
'0:07.397',-1.190,-0.420
'0:07.400',-1.170,-0.415
'0:07.403',-1.140,-0.430
'0:07.406',-1.135,-0.465
'0:07.408',-1.140,-0.480
'0:07.411',-1.130,-0.500
'0:07.414',-1.135,-0.515
'0:07.417',-1.145,-0.505
'0:07.419',-1.165,-0.500
'0:07.422',-1.180,-0.485
'0:07.425',-1.185,-0.480
'0:07.428',-1.190,-0.465
'0:07.431',-1.190,-0.475
'0:07.433',-1.205,-0.480
'0:07.436',-1.180,-0.485
'0:07.439',-1.195,-0.505
'0:07.442',-1.205,-0.515
'0:07.444',-1.215,-0.530
'0:07.447',-1.240,-0.545
'0:07.450',-1.275,-0.560
'0:07.453',-1.300,-0.545
'0:07.456',-1.330,-0.550
'0:07.458',-1.355,-0.535
'0:07.461',-1.355,-0.525
'0:07.464',-1.365,-0.515
'0:07.467',-1.365,-0.510
'0:07.469',-1.350,-0.510
'0:07.472',-1.335,-0.545
'0:07.475',-1.340,-0.555
'0:07.478',-1.330,-0.550
'0:07.481',-1.345,-0.540
'0:07.483',-1.345,-0.535
'0:07.486',-1.360,-0.535
'0:07.489',-1.365,-0.540
'0:07.492',-1.365,-0.535
'0:07.494',-1.360,-0.530
'0:07.497',-1.335,-0.505
'0:07.500',-1.320,-0.500
'0:07.503',-1.305,-0.495
'0:07.506',-1.320,-0.495
'0:07.508',-1.320,-0.495
'0:07.511',-1.310,-0.550
'0:07.514',-1.290,-0.590
'0:07.517',-1.255,-0.655
'0:07.519',-1.175,-0.730
'0:07.522',-1.060,-0.785
'0:07.525',-0.910,-0.860
'0:07.528',-0.700,-0.875
'0:07.531',-0.445,-0.920
'0:07.533',-0.185,-0.955
'0:07.536',0.095,-1.030
'0:07.539',0.375,-1.105
'0:07.542',0.665,-1.190
'0:07.544',1.000,-1.255
'0:07.547',1.345,-1.245
'0:07.550',1.640,-1.180
'0:07.553',1.835,-1.065
'0:07.556',1.845,-0.930
'0:07.558',1.575,-0.850
'0:07.561',1.020,-0.780
'0:07.564',0.380,-0.765
'0:07.567',-0.260,-0.740
'0:07.569',-0.900,-0.710
'0:07.572',-1.540,-0.665
'0:07.575',-1.910,-0.630
'0:07.578',-1.775,-0.590
'0:07.581',-1.525,-0.585
'0:07.583',-1.255,-0.575
'0:07.586',-1.075,-0.585
'0:07.589',-1.020,-0.565
'0:07.592',-1.045,-0.550
'0:07.594',-1.100,-0.545
'0:07.597',-1.170,-0.535
'0:07.600',-1.225,-0.520
'0:07.603',-1.245,-0.510
'0:07.606',-1.260,-0.520
'0:07.608',-1.245,-0.525
'0:07.611',-1.250,-0.525
'0:07.614',-1.235,-0.540
'0:07.617',-1.250,-0.570
'0:07.619',-1.255,-0.560
'0:07.622',-1.265,-0.555
'0:07.625',-1.265,-0.540
'0:07.628',-1.260,-0.520
'0:07.631',-1.240,-0.500
'0:07.633',-1.235,-0.490
'0:07.636',-1.220,-0.480
'0:07.639',-1.240,-0.500
'0:07.642',-1.220,-0.515
'0:07.644',-1.220,-0.540
'0:07.647',-1.225,-0.560
'0:07.650',-1.205,-0.570
'0:07.653',-1.190,-0.555
'0:07.656',-1.195,-0.550
'0:07.658',-1.175,-0.545
'0:07.661',-1.160,-0.520
'0:07.664',-1.170,-0.490
'0:07.667',-1.130,-0.480
'0:07.669',-1.140,-0.475
'0:07.672',-1.110,-0.480
'0:07.675',-1.125,-0.495
'0:07.678',-1.120,-0.515
'0:07.681',-1.130,-0.510
'0:07.683',-1.110,-0.520
'0:07.686',-1.100,-0.515
'0:07.689',-1.085,-0.515
'0:07.692',-1.075,-0.525
'0:07.694',-1.055,-0.515
'0:07.697',-1.040,-0.490
'0:07.700',-1.015,-0.495
'0:07.703',-1.000,-0.485
'0:07.706',-0.985,-0.475
'0:07.708',-0.975,-0.480
'0:07.711',-0.955,-0.485
'0:07.714',-0.935,-0.495
'0:07.717',-0.920,-0.490
'0:07.719',-0.895,-0.485
'0:07.722',-0.890,-0.480
'0:07.725',-0.875,-0.495
'0:07.728',-0.855,-0.490
'0:07.731',-0.840,-0.475
'0:07.733',-0.815,-0.450
'0:07.736',-0.785,-0.420
'0:07.739',-0.750,-0.425
'0:07.742',-0.725,-0.410
'0:07.744',-0.710,-0.430
'0:07.747',-0.670,-0.465
'0:07.750',-0.650,-0.465
'0:07.753',-0.615,-0.470
'0:07.756',-0.605,-0.460
'0:07.758',-0.580,-0.450
'0:07.761',-0.550,-0.435
'0:07.764',-0.515,-0.430
'0:07.767',-0.490,-0.405
'0:07.769',-0.435,-0.380
'0:07.772',-0.410,-0.390
'0:07.775',-0.380,-0.395
'0:07.778',-0.360,-0.395
'0:07.781',-0.350,-0.410
'0:07.783',-0.345,-0.405
'0:07.786',-0.350,-0.395
'0:07.789',-0.350,-0.410
'0:07.792',-0.360,-0.390
'0:07.794',-0.350,-0.405
'0:07.797',-0.325,-0.390
'0:07.800',-0.315,-0.385
'0:07.803',-0.290,-0.375
'0:07.806',-0.295,-0.390
'0:07.808',-0.315,-0.410
'0:07.811',-0.335,-0.440
'0:07.814',-0.380,-0.435
'0:07.817',-0.445,-0.450
'0:07.819',-0.495,-0.480
'0:07.822',-0.545,-0.470
'0:07.825',-0.600,-0.470
'0:07.828',-0.630,-0.480
'0:07.831',-0.670,-0.490
'0:07.833',-0.710,-0.470
'0:07.836',-0.730,-0.470
'0:07.839',-0.765,-0.485
'0:07.842',-0.815,-0.505
'0:07.844',-0.860,-0.535
'0:07.847',-0.895,-0.560
'0:07.850',-0.930,-0.570
'0:07.853',-0.950,-0.570
'0:07.856',-0.985,-0.585
'0:07.858',-0.995,-0.580
'0:07.861',-0.990,-0.545
'0:07.864',-1.005,-0.535
'0:07.867',-1.010,-0.525
'0:07.869',-1.030,-0.520
'0:07.872',-1.045,-0.525
'0:07.875',-1.050,-0.560
'0:07.878',-1.070,-0.565
'0:07.881',-1.080,-0.575
'0:07.883',-1.075,-0.605
'0:07.886',-1.080,-0.595
'0:07.889',-1.085,-0.580
'0:07.892',-1.090,-0.575
'0:07.894',-1.090,-0.550
'0:07.897',-1.075,-0.555
'0:07.900',-1.075,-0.550
'0:07.903',-1.050,-0.535
'0:07.906',-1.040,-0.560
'0:07.908',-1.035,-0.570
'0:07.911',-1.050,-0.580
'0:07.914',-1.065,-0.605
'0:07.917',-1.070,-0.615
'0:07.919',-1.085,-0.600
'0:07.922',-1.080,-0.600
'0:07.925',-1.075,-0.575
'0:07.928',-1.060,-0.575
'0:07.931',-1.045,-0.545
'0:07.933',-1.035,-0.530
'0:07.936',-1.015,-0.535
'0:07.939',-1.010,-0.550
'0:07.942',-1.000,-0.555
'0:07.944',-1.005,-0.550
'0:07.947',-1.020,-0.575
'0:07.950',-1.020,-0.590
'0:07.953',-1.025,-0.605
'0:07.956',-1.025,-0.605
'0:07.958',-1.030,-0.590
'0:07.961',-1.030,-0.585
'0:07.964',-1.015,-0.570
'0:07.967',-0.985,-0.555
'0:07.969',-0.970,-0.525
'0:07.972',-0.965,-0.535
'0:07.975',-0.985,-0.530
'0:07.978',-0.995,-0.550
'0:07.981',-1.010,-0.585
'0:07.983',-1.010,-0.590
'0:07.986',-1.020,-0.600
'0:07.989',-1.035,-0.610
'0:07.992',-1.040,-0.615
'0:07.994',-1.030,-0.615
'0:07.997',-1.035,-0.580
'0:08.000',-1.040,-0.565
'0:08.003',-1.035,-0.545
'0:08.006',-1.020,-0.540
'0:08.008',-1.020,-0.535
'0:08.011',-1.030,-0.550
'0:08.014',-1.050,-0.560
'0:08.017',-1.050,-0.570
'0:08.019',-1.065,-0.590
'0:08.022',-1.060,-0.600
'0:08.025',-1.065,-0.620
'0:08.028',-1.060,-0.615
'0:08.031',-1.055,-0.585
'0:08.033',-1.040,-0.600
'0:08.036',-1.030,-0.600
'0:08.039',-1.045,-0.580
'0:08.042',-1.055,-0.585
'0:08.044',-1.070,-0.595
'0:08.047',-1.080,-0.610
'0:08.050',-1.085,-0.620
'0:08.053',-1.075,-0.615
'0:08.056',-1.090,-0.600
'0:08.058',-1.085,-0.590
'0:08.061',-1.085,-0.585
'0:08.064',-1.075,-0.585
'0:08.067',-1.070,-0.585
'0:08.069',-1.050,-0.590
'0:08.072',-1.055,-0.605
'0:08.075',-1.055,-0.600
'0:08.078',-1.060,-0.620
'0:08.081',-1.085,-0.630
'0:08.083',-1.095,-0.640
'0:08.086',-1.095,-0.635
'0:08.089',-1.090,-0.620
'0:08.092',-1.085,-0.595
'0:08.094',-1.080,-0.585
'0:08.097',-1.090,-0.580
'0:08.100',-1.075,-0.595
'0:08.103',-1.040,-0.595
'0:08.106',-1.055,-0.605
'0:08.108',-1.050,-0.610
'0:08.111',-1.070,-0.595
'0:08.114',-1.065,-0.610
'0:08.117',-1.055,-0.590
'0:08.119',-1.045,-0.575
'0:08.122',-1.025,-0.555
'0:08.125',-0.990,-0.535
'0:08.128',-0.990,-0.520
'0:08.131',-0.960,-0.510
'0:08.133',-0.960,-0.525
'0:08.136',-0.940,-0.545
'0:08.139',-0.920,-0.570
'0:08.142',-0.920,-0.570
'0:08.144',-0.935,-0.575
'0:08.147',-0.940,-0.585
'0:08.150',-0.960,-0.575
'0:08.153',-0.950,-0.580
'0:08.156',-0.940,-0.590
'0:08.158',-0.915,-0.615
'0:08.161',-0.890,-0.610
'0:08.164',-0.870,-0.610
'0:08.167',-0.870,-0.620
'0:08.169',-0.860,-0.590
'0:08.172',-0.875,-0.580
'0:08.175',-0.875,-0.565
'0:08.178',-0.875,-0.565
'0:08.181',-0.890,-0.605
'0:08.183',-0.905,-0.610
'0:08.186',-0.905,-0.615
'0:08.189',-0.945,-0.630
'0:08.192',-0.960,-0.620
'0:08.194',-0.980,-0.605
'0:08.197',-0.995,-0.610
'0:08.200',-1.020,-0.595
'0:08.203',-1.025,-0.605
'0:08.206',-1.045,-0.605
'0:08.208',-1.060,-0.640
'0:08.211',-1.060,-0.665
'0:08.214',-1.085,-0.670
'0:08.217',-1.100,-0.670
'0:08.219',-1.130,-0.660
'0:08.222',-1.145,-0.650
'0:08.225',-1.130,-0.630
'0:08.228',-1.125,-0.625
'0:08.231',-1.095,-0.615
'0:08.233',-1.090,-0.620
'0:08.236',-1.080,-0.615
'0:08.239',-1.085,-0.615
'0:08.242',-1.075,-0.615
'0:08.244',-1.095,-0.615
'0:08.247',-1.105,-0.615
'0:08.250',-1.130,-0.630
'0:08.253',-1.135,-0.625
'0:08.256',-1.135,-0.635
'0:08.258',-1.130,-0.660
'0:08.261',-1.085,-0.670
'0:08.264',-1.030,-0.715
'0:08.267',-0.945,-0.755
'0:08.269',-0.830,-0.830
'0:08.272',-0.680,-0.925
'0:08.275',-0.470,-1.020
'0:08.278',-0.210,-1.120
'0:08.281',0.120,-1.240
'0:08.283',0.485,-1.310
'0:08.286',0.890,-1.395
'0:08.289',1.330,-1.445
'0:08.292',1.735,-1.450
'0:08.294',2.100,-1.400
'0:08.297',2.345,-1.295
'0:08.300',2.435,-1.170
'0:08.303',2.315,-1.035
'0:08.306',1.900,-0.940
'0:08.308',1.260,-0.870
'0:08.311',0.620,-0.835
'0:08.314',-0.020,-0.820
'0:08.317',-0.660,-0.805
'0:08.319',-1.300,-0.760
'0:08.322',-1.675,-0.730
'0:08.325',-1.425,-0.670
'0:08.328',-1.085,-0.625
'0:08.331',-0.800,-0.635
'0:08.333',-0.660,-0.630
'0:08.336',-0.650,-0.640
'0:08.339',-0.725,-0.625
'0:08.342',-0.845,-0.635
'0:08.344',-0.960,-0.650
'0:08.347',-1.035,-0.640
'0:08.350',-1.070,-0.635
'0:08.353',-1.085,-0.635
'0:08.356',-1.080,-0.630
'0:08.358',-1.060,-0.595
'0:08.361',-1.045,-0.580
'0:08.364',-1.030,-0.570
'0:08.367',-1.025,-0.565
'0:08.369',-1.015,-0.555
'0:08.372',-1.005,-0.590
'0:08.375',-1.000,-0.605
'0:08.378',-0.990,-0.605
'0:08.381',-0.990,-0.625
'0:08.383',-1.000,-0.615
'0:08.386',-1.000,-0.605
'0:08.389',-0.995,-0.605
'0:08.392',-1.015,-0.610
'0:08.394',-1.020,-0.595
'0:08.397',-1.005,-0.580
'0:08.400',-1.015,-0.580
'0:08.403',-0.990,-0.570
'0:08.406',-0.985,-0.545
'0:08.408',-0.965,-0.555
'0:08.411',-0.960,-0.545
'0:08.414',-0.960,-0.545
'0:08.417',-0.960,-0.555
'0:08.419',-0.950,-0.565
'0:08.422',-0.935,-0.580
'0:08.425',-0.920,-0.600
'0:08.428',-0.910,-0.590
'0:08.431',-0.900,-0.565
'0:08.433',-0.895,-0.565
'0:08.436',-0.870,-0.530
'0:08.439',-0.870,-0.510
'0:08.442',-0.865,-0.525
'0:08.444',-0.850,-0.530
'0:08.447',-0.870,-0.550
'0:08.450',-0.865,-0.560
'0:08.453',-0.840,-0.565
'0:08.456',-0.830,-0.570
'0:08.458',-0.810,-0.555
'0:08.461',-0.800,-0.550
'0:08.464',-0.775,-0.530
'0:08.467',-0.740,-0.505
'0:08.469',-0.705,-0.490
'0:08.472',-0.680,-0.490
'0:08.475',-0.665,-0.465
'0:08.478',-0.645,-0.480
'0:08.481',-0.635,-0.505
'0:08.483',-0.615,-0.485
'0:08.486',-0.610,-0.495
'0:08.489',-0.580,-0.485
'0:08.492',-0.550,-0.480
'0:08.494',-0.515,-0.465
'0:08.497',-0.490,-0.460
'0:08.500',-0.450,-0.455
'0:08.503',-0.430,-0.445
'0:08.506',-0.375,-0.440
'0:08.508',-0.340,-0.445
'0:08.511',-0.320,-0.440
'0:08.514',-0.305,-0.460
'0:08.517',-0.290,-0.480
'0:08.519',-0.290,-0.485
'0:08.522',-0.265,-0.465
'0:08.525',-0.255,-0.460
'0:08.528',-0.245,-0.425
'0:08.531',-0.225,-0.425
'0:08.533',-0.215,-0.410
'0:08.536',-0.180,-0.390
'0:08.539',-0.165,-0.395
'0:08.542',-0.165,-0.435
'0:08.544',-0.185,-0.445
'0:08.547',-0.200,-0.460
'0:08.550',-0.235,-0.485
'0:08.553',-0.255,-0.490
'0:08.556',-0.290,-0.495
'0:08.558',-0.330,-0.500
'0:08.561',-0.390,-0.510
'0:08.564',-0.420,-0.500
'0:08.567',-0.455,-0.480
'0:08.569',-0.500,-0.490
'0:08.572',-0.540,-0.490
'0:08.575',-0.585,-0.515
'0:08.578',-0.625,-0.540
'0:08.581',-0.685,-0.575
'0:08.583',-0.740,-0.590
'0:08.586',-0.755,-0.615
'0:08.589',-0.805,-0.615
'0:08.592',-0.820,-0.610
'0:08.594',-0.840,-0.580
'0:08.597',-0.870,-0.585
'0:08.600',-0.885,-0.605
'0:08.603',-0.910,-0.615
'0:08.606',-0.925,-0.630
'0:08.608',-0.950,-0.655
'0:08.611',-0.975,-0.660
'0:08.614',-0.990,-0.665
'0:08.617',-1.025,-0.645
'0:08.619',-1.025,-0.645
'0:08.622',-1.015,-0.645
'0:08.625',-1.040,-0.650
'0:08.628',-1.035,-0.640
'0:08.631',-1.005,-0.625
'0:08.633',-0.990,-0.630
'0:08.636',-0.980,-0.620
'0:08.639',-0.980,-0.620
'0:08.642',-0.970,-0.620
'0:08.644',-0.990,-0.635
'0:08.647',-0.985,-0.645
'0:08.650',-1.005,-0.655
'0:08.653',-1.010,-0.670
'0:08.656',-1.020,-0.665
'0:08.658',-1.010,-0.650
'0:08.661',-1.025,-0.625
'0:08.664',-1.010,-0.605
'0:08.667',-1.025,-0.610
'0:08.669',-1.010,-0.605
'0:08.672',-1.010,-0.625
'0:08.675',-1.010,-0.620
'0:08.678',-1.015,-0.635
'0:08.681',-1.010,-0.640
'0:08.683',-1.005,-0.635
'0:08.686',-0.995,-0.640
'0:08.689',-1.000,-0.620
'0:08.692',-1.000,-0.610
'0:08.694',-0.975,-0.625
'0:08.697',-0.980,-0.625
'0:08.700',-0.970,-0.625
'0:08.703',-0.960,-0.640
'0:08.706',-0.970,-0.640
'0:08.708',-0.980,-0.645
'0:08.711',-0.990,-0.655
'0:08.714',-1.020,-0.650
'0:08.717',-1.015,-0.640
'0:08.719',-1.010,-0.625
'0:08.722',-1.010,-0.625
'0:08.725',-1.015,-0.620
'0:08.728',-1.025,-0.640
'0:08.731',-1.010,-0.625
'0:08.733',-1.010,-0.620
'0:08.736',-0.990,-0.625
'0:08.739',-0.970,-0.630
'0:08.742',-0.980,-0.650
'0:08.744',-0.980,-0.645
'0:08.747',-1.005,-0.675
'0:08.750',-1.015,-0.690
'0:08.753',-1.030,-0.665
'0:08.756',-1.035,-0.680
'0:08.758',-1.030,-0.665
'0:08.761',-1.015,-0.650
'0:08.764',-1.010,-0.640
'0:08.767',-1.000,-0.630
'0:08.769',-0.990,-0.625
'0:08.772',-1.010,-0.640
'0:08.775',-1.035,-0.650
'0:08.778',-1.060,-0.685
'0:08.781',-1.060,-0.685
'0:08.783',-1.050,-0.695
'0:08.786',-1.055,-0.680
'0:08.789',-1.050,-0.680
'0:08.792',-1.030,-0.670
'0:08.794',-1.040,-0.655
'0:08.797',-1.050,-0.655
'0:08.800',-1.035,-0.655
'0:08.803',-1.040,-0.640
'0:08.806',-1.030,-0.635
'0:08.808',-1.020,-0.625
'0:08.811',-1.025,-0.650
'0:08.814',-1.050,-0.660
'0:08.817',-1.060,-0.675
'0:08.819',-1.055,-0.685
'0:08.822',-1.060,-0.690
'0:08.825',-1.050,-0.715
'0:08.828',-1.045,-0.675
'0:08.831',-1.045,-0.700
'0:08.833',-1.050,-0.675
'0:08.836',-1.040,-0.665
'0:08.839',-1.045,-0.660
'0:08.842',-1.070,-0.640
'0:08.844',-1.070,-0.645
'0:08.847',-1.075,-0.660
'0:08.850',-1.080,-0.675
'0:08.853',-1.090,-0.690
'0:08.856',-1.085,-0.685
'0:08.858',-1.080,-0.675
'0:08.861',-1.065,-0.645
'0:08.864',-1.050,-0.620
'0:08.867',-1.025,-0.600
'0:08.869',-0.985,-0.580
'0:08.872',-0.950,-0.605
'0:08.875',-0.940,-0.600
'0:08.878',-0.925,-0.635
'0:08.881',-0.915,-0.630
'0:08.883',-0.930,-0.645
'0:08.886',-0.925,-0.650
'0:08.889',-0.930,-0.630
'0:08.892',-0.940,-0.625
'0:08.894',-0.950,-0.635
'0:08.897',-0.945,-0.610
'0:08.900',-0.935,-0.615
'0:08.903',-0.920,-0.595
'0:08.906',-0.895,-0.595
'0:08.908',-0.855,-0.620
'0:08.911',-0.850,-0.640
'0:08.914',-0.835,-0.640
'0:08.917',-0.840,-0.645
'0:08.919',-0.860,-0.645
'0:08.922',-0.875,-0.650
'0:08.925',-0.885,-0.670
'0:08.928',-0.890,-0.650
'0:08.931',-0.890,-0.655
'0:08.933',-0.910,-0.645
'0:08.936',-0.915,-0.665
'0:08.939',-0.925,-0.670
'0:08.942',-0.930,-0.680
'0:08.944',-0.940,-0.680
'0:08.947',-0.965,-0.685
'0:08.950',-0.985,-0.660
'0:08.953',-1.000,-0.670
'0:08.956',-1.035,-0.690
'0:08.958',-1.070,-0.690
'0:08.961',-1.085,-0.710
'0:08.964',-1.100,-0.720
'0:08.967',-1.100,-0.695
'0:08.969',-1.095,-0.680
'0:08.972',-1.110,-0.665
'0:08.975',-1.105,-0.670
'0:08.978',-1.125,-0.685
'0:08.981',-1.130,-0.690
'0:08.983',-1.120,-0.700
'0:08.986',-1.125,-0.700
'0:08.989',-1.115,-0.700
'0:08.992',-1.125,-0.700
'0:08.994',-1.105,-0.690
'0:08.997',-1.100,-0.670
'0:09.000',-1.090,-0.665
'0:09.003',-1.085,-0.650
'0:09.006',-1.070,-0.660
'0:09.008',-1.075,-0.670
'0:09.011',-1.080,-0.695
'0:09.014',-1.050,-0.750
'0:09.017',-0.995,-0.830
'0:09.019',-0.880,-0.955
'0:09.022',-0.695,-1.065
'0:09.025',-0.410,-1.190
'0:09.028',-0.040,-1.305
'0:09.031',0.435,-1.390
'0:09.033',0.955,-1.470
'0:09.036',1.490,-1.510
'0:09.039',1.965,-1.490
'0:09.042',2.310,-1.425
'0:09.044',2.475,-1.310
'0:09.047',2.400,-1.180
'0:09.050',2.015,-1.065
'0:09.053',1.375,-1.000
'0:09.056',0.735,-0.950
'0:09.058',0.095,-0.935
'0:09.061',-0.545,-0.895
'0:09.064',-1.185,-0.845
'0:09.067',-1.805,-0.780
'0:09.069',-1.530,-0.735
'0:09.072',-1.155,-0.695
'0:09.075',-0.845,-0.660
'0:09.078',-0.690,-0.650
'0:09.081',-0.685,-0.665
'0:09.083',-0.775,-0.680
'0:09.086',-0.910,-0.685
'0:09.089',-1.010,-0.720
'0:09.092',-1.085,-0.715
'0:09.094',-1.110,-0.695
'0:09.097',-1.105,-0.660
'0:09.100',-1.085,-0.660
'0:09.103',-1.065,-0.615
'0:09.106',-1.035,-0.605
'0:09.108',-1.055,-0.640
'0:09.111',-1.050,-0.645
'0:09.114',-1.055,-0.675
'0:09.117',-1.055,-0.685
'0:09.119',-1.050,-0.695
'0:09.122',-1.060,-0.680
'0:09.125',-1.045,-0.660
'0:09.128',-1.055,-0.645
'0:09.131',-1.050,-0.630
'0:09.133',-1.025,-0.625
'0:09.136',-1.010,-0.630
'0:09.139',-1.015,-0.625
'0:09.142',-1.005,-0.615
'0:09.144',-0.985,-0.625
'0:09.147',-0.980,-0.630
'0:09.150',-0.980,-0.640
'0:09.153',-0.980,-0.650
'0:09.156',-0.975,-0.660
'0:09.158',-0.965,-0.645
'0:09.161',-0.965,-0.610
'0:09.164',-0.935,-0.575
'0:09.167',-0.905,-0.555
'0:09.169',-0.895,-0.550
'0:09.172',-0.885,-0.555
'0:09.175',-0.865,-0.585
'0:09.178',-0.870,-0.630
'0:09.181',-0.850,-0.640
'0:09.183',-0.865,-0.635
'0:09.186',-0.875,-0.640
'0:09.189',-0.860,-0.610
'0:09.192',-0.855,-0.615
'0:09.194',-0.840,-0.570
'0:09.197',-0.820,-0.560
'0:09.200',-0.800,-0.555
'0:09.203',-0.775,-0.565
'0:09.206',-0.740,-0.565
'0:09.208',-0.715,-0.550
'0:09.211',-0.685,-0.550
'0:09.214',-0.675,-0.540
'0:09.217',-0.640,-0.545
'0:09.219',-0.630,-0.550
'0:09.222',-0.605,-0.545
'0:09.225',-0.575,-0.540
'0:09.228',-0.555,-0.520
'0:09.231',-0.520,-0.520
'0:09.233',-0.475,-0.525
'0:09.236',-0.455,-0.510
'0:09.239',-0.425,-0.500
'0:09.242',-0.415,-0.485
'0:09.244',-0.405,-0.470
'0:09.247',-0.390,-0.475
'0:09.250',-0.370,-0.475
'0:09.253',-0.335,-0.485
'0:09.256',-0.310,-0.500
'0:09.258',-0.300,-0.495
'0:09.261',-0.270,-0.495
'0:09.264',-0.240,-0.485
'0:09.267',-0.220,-0.475
'0:09.269',-0.200,-0.480
'0:09.272',-0.185,-0.480
'0:09.275',-0.190,-0.500
'0:09.278',-0.195,-0.505
'0:09.281',-0.195,-0.510
'0:09.283',-0.215,-0.495
'0:09.286',-0.235,-0.505
'0:09.289',-0.250,-0.500
'0:09.292',-0.285,-0.500
'0:09.294',-0.305,-0.515
'0:09.297',-0.340,-0.530
'0:09.300',-0.355,-0.545
'0:09.303',-0.385,-0.560
'0:09.306',-0.430,-0.570
'0:09.308',-0.470,-0.600
'0:09.311',-0.520,-0.610
'0:09.314',-0.570,-0.625
'0:09.317',-0.605,-0.620
'0:09.319',-0.660,-0.630
'0:09.322',-0.705,-0.650
'0:09.325',-0.745,-0.665
'0:09.328',-0.780,-0.650
'0:09.331',-0.815,-0.645
'0:09.333',-0.845,-0.635
'0:09.336',-0.860,-0.615
'0:09.339',-0.880,-0.620
'0:09.342',-0.900,-0.640
'0:09.344',-0.925,-0.665
'0:09.347',-0.945,-0.700
'0:09.350',-0.965,-0.715
'0:09.353',-0.970,-0.725
'0:09.356',-0.975,-0.720
'0:09.358',-0.995,-0.695
'0:09.361',-0.990,-0.670
'0:09.364',-0.980,-0.670
'0:09.367',-0.990,-0.665
'0:09.369',-0.985,-0.660
'0:09.372',-0.980,-0.685
'0:09.375',-0.985,-0.690
'0:09.378',-0.995,-0.710
'0:09.381',-1.025,-0.705
'0:09.383',-1.040,-0.710
'0:09.386',-1.040,-0.680
'0:09.389',-1.035,-0.680
'0:09.392',-1.035,-0.670
'0:09.394',-1.050,-0.675
'0:09.397',-1.060,-0.680
'0:09.400',-1.030,-0.705
'0:09.403',-1.010,-0.695
'0:09.406',-1.010,-0.700
'0:09.408',-1.005,-0.690
'0:09.411',-1.010,-0.675
'0:09.414',-1.010,-0.665
'0:09.417',-1.015,-0.690
'0:09.419',-1.005,-0.695
'0:09.422',-1.005,-0.710
'0:09.425',-1.005,-0.710
'0:09.428',-1.010,-0.710
'0:09.431',-0.995,-0.690
'0:09.433',-1.005,-0.660
'0:09.436',-0.995,-0.655
'0:09.439',-0.995,-0.655
'0:09.442',-1.015,-0.680
'0:09.444',-1.000,-0.685
'0:09.447',-1.005,-0.700
'0:09.450',-1.015,-0.720
'0:09.453',-1.025,-0.690
'0:09.456',-1.020,-0.670
'0:09.458',-1.010,-0.665
'0:09.461',-0.995,-0.660
'0:09.464',-0.995,-0.655
'0:09.467',-1.000,-0.665
'0:09.469',-0.990,-0.665
'0:09.472',-0.980,-0.695
'0:09.475',-0.995,-0.720
'0:09.478',-1.005,-0.710
'0:09.481',-1.020,-0.730
'0:09.483',-1.020,-0.745
'0:09.486',-1.030,-0.735
'0:09.489',-1.045,-0.730
'0:09.492',-1.045,-0.685
'0:09.494',-1.060,-0.665
'0:09.497',-1.050,-0.680
'0:09.500',-1.070,-0.660
'0:09.503',-1.060,-0.640
'0:09.506',-1.040,-0.660
'0:09.508',-1.055,-0.670
'0:09.511',-1.060,-0.695
'0:09.514',-1.055,-0.720
'0:09.517',-1.075,-0.725
'0:09.519',-1.085,-0.725
'0:09.522',-1.095,-0.715
'0:09.525',-1.105,-0.700
'0:09.528',-1.115,-0.695
'0:09.531',-1.105,-0.695
'0:09.533',-1.105,-0.680
'0:09.536',-1.100,-0.680
'0:09.539',-1.090,-0.675
'0:09.542',-1.115,-0.695
'0:09.544',-1.125,-0.700
'0:09.547',-1.130,-0.695
'0:09.550',-1.135,-0.700
'0:09.553',-1.145,-0.700
'0:09.556',-1.140,-0.710
'0:09.558',-1.120,-0.715
'0:09.561',-1.115,-0.695
'0:09.564',-1.100,-0.705
'0:09.567',-1.110,-0.695
'0:09.569',-1.125,-0.680
'0:09.572',-1.120,-0.675
'0:09.575',-1.120,-0.670
'0:09.578',-1.125,-0.665
'0:09.581',-1.125,-0.680
'0:09.583',-1.150,-0.695
'0:09.586',-1.155,-0.690
'0:09.589',-1.180,-0.680
'0:09.592',-1.180,-0.710
'0:09.594',-1.170,-0.700
'0:09.597',-1.145,-0.700
'0:09.600',-1.135,-0.680
'0:09.603',-1.125,-0.675
'0:09.606',-1.125,-0.655
'0:09.608',-1.105,-0.655
'0:09.611',-1.115,-0.655
'0:09.614',-1.110,-0.670
'0:09.617',-1.100,-0.655
'0:09.619',-1.100,-0.665
'0:09.622',-1.070,-0.655
'0:09.625',-1.060,-0.675
'0:09.628',-1.050,-0.655
'0:09.631',-1.045,-0.630
'0:09.633',-1.045,-0.630
'0:09.636',-1.035,-0.605
'0:09.639',-1.050,-0.615
'0:09.642',-1.040,-0.635
'0:09.644',-1.055,-0.650
'0:09.647',-1.040,-0.670
'0:09.650',-1.040,-0.680
'0:09.653',-1.025,-0.680
'0:09.656',-1.005,-0.695
'0:09.658',-1.000,-0.685
'0:09.661',-0.985,-0.675
'0:09.664',-0.965,-0.660
'0:09.667',-0.940,-0.670
'0:09.669',-0.935,-0.660
'0:09.672',-0.930,-0.655
'0:09.675',-0.955,-0.665
'0:09.678',-0.955,-0.655
'0:09.681',-0.975,-0.660
'0:09.683',-1.005,-0.655
'0:09.686',-1.015,-0.670
'0:09.689',-1.035,-0.690
'0:09.692',-1.050,-0.710
'0:09.694',-1.055,-0.710
'0:09.697',-1.045,-0.700
'0:09.700',-1.060,-0.700
'0:09.703',-1.080,-0.680
'0:09.706',-1.085,-0.670
'0:09.708',-1.125,-0.700
'0:09.711',-1.160,-0.720
'0:09.714',-1.205,-0.750
'0:09.717',-1.235,-0.760
'0:09.719',-1.255,-0.760
'0:09.722',-1.265,-0.735
'0:09.725',-1.270,-0.710
'0:09.728',-1.245,-0.690
'0:09.731',-1.220,-0.685
'0:09.733',-1.205,-0.700
'0:09.736',-1.190,-0.700
'0:09.739',-1.195,-0.715
'0:09.742',-1.185,-0.725
'0:09.744',-1.170,-0.715
'0:09.747',-1.170,-0.735
'0:09.750',-1.160,-0.705
'0:09.753',-1.180,-0.710
'0:09.756',-1.180,-0.695
'0:09.758',-1.195,-0.690
'0:09.761',-1.195,-0.690
'0:09.764',-1.220,-0.700
'0:09.767',-1.200,-0.740
'0:09.769',-1.175,-0.780
'0:09.772',-1.110,-0.845
'0:09.775',-0.975,-0.930
'0:09.778',-0.805,-1.045
'0:09.781',-0.550,-1.140
'0:09.783',-0.230,-1.230
'0:09.786',0.145,-1.340
'0:09.789',0.600,-1.405
'0:09.792',1.070,-1.475
'0:09.794',1.570,-1.535
'0:09.797',2.000,-1.525
'0:09.800',2.310,-1.485
'0:09.803',2.485,-1.390
'0:09.806',2.510,-1.275
'0:09.808',2.345,-1.120
'0:09.811',1.930,-1.030
'0:09.814',1.290,-0.985
'0:09.817',0.650,-0.950
'0:09.819',0.010,-0.935
'0:09.822',-0.630,-0.900
'0:09.825',-1.270,-0.845
'0:09.828',-1.730,-0.780
'0:09.831',-1.455,-0.705
'0:09.833',-1.155,-0.670
'0:09.836',-0.935,-0.645
'0:09.839',-0.855,-0.630
'0:09.842',-0.885,-0.670
'0:09.844',-0.985,-0.685
'0:09.847',-1.100,-0.705
'0:09.850',-1.185,-0.700
'0:09.853',-1.220,-0.725
'0:09.856',-1.215,-0.695
'0:09.858',-1.215,-0.675
'0:09.861',-1.180,-0.670
'0:09.864',-1.165,-0.655
'0:09.867',-1.145,-0.650
'0:09.869',-1.145,-0.610
'0:09.872',-1.145,-0.625
'0:09.875',-1.160,-0.635
'0:09.878',-1.160,-0.635
'0:09.881',-1.160,-0.665
'0:09.883',-1.170,-0.650
'0:09.886',-1.165,-0.655
'0:09.889',-1.175,-0.640
'0:09.892',-1.165,-0.625
'0:09.894',-1.160,-0.620
'0:09.897',-1.135,-0.615
'0:09.900',-1.120,-0.610
'0:09.903',-1.100,-0.595
'0:09.906',-1.085,-0.600
'0:09.908',-1.080,-0.620
'0:09.911',-1.075,-0.635
'0:09.914',-1.090,-0.635
'0:09.917',-1.085,-0.650
'0:09.919',-1.085,-0.645
'0:09.922',-1.075,-0.650
'0:09.925',-1.065,-0.635
'0:09.928',-1.085,-0.625
'0:09.931',-1.065,-0.595
'0:09.933',-1.065,-0.605
'0:09.936',-1.035,-0.595
'0:09.939',-1.010,-0.600
'0:09.942',-0.985,-0.605
'0:09.944',-0.965,-0.605
'0:09.947',-0.945,-0.615
'0:09.950',-0.930,-0.605
'0:09.953',-0.930,-0.605
'0:09.956',-0.925,-0.610
'0:09.958',-0.915,-0.600
'0:09.961',-0.910,-0.600
'0:09.964',-0.880,-0.605
'0:09.967',-0.860,-0.600
'0:09.969',-0.820,-0.600
'0:09.972',-0.795,-0.585
'0:09.975',-0.775,-0.570
'0:09.978',-0.760,-0.565
'0:09.981',-0.745,-0.560
'0:09.983',-0.730,-0.560
'0:09.986',-0.725,-0.545
'0:09.989',-0.715,-0.535
'0:09.992',-0.675,-0.535
'0:09.994',-0.635,-0.525
'0:09.997',-0.605,-0.505
