'Elapsed time','MLII','V2'
'hh:mm:ss.mmm','mV','mV'
'0:00.000',-0.925,-0.470
'0:00.003',-0.925,-0.470
'0:00.006',-0.925,-0.470
'0:00.008',-0.925,-0.470
'0:00.011',-0.925,-0.470
'0:00.014',-0.925,-0.470
'0:00.017',-0.925,-0.470
'0:00.019',-0.920,-0.470
'0:00.022',-0.920,-0.470
'0:00.025',-0.940,-0.485
'0:00.028',-0.940,-0.490
'0:00.031',-0.955,-0.510
'0:00.033',-0.970,-0.515
'0:00.036',-0.970,-0.515
'0:00.039',-0.980,-0.515
'0:00.042',-0.980,-0.505
'0:00.044',-0.965,-0.500
'0:00.047',-0.950,-0.505
'0:00.050',-0.940,-0.480
'0:00.053',-0.910,-0.475
'0:00.056',-0.925,-0.505
'0:00.058',-0.930,-0.500
'0:00.061',-0.945,-0.530
'0:00.064',-0.950,-0.510
'0:00.067',-0.960,-0.530
'0:00.069',-0.960,-0.535
'0:00.072',-0.965,-0.515
'0:00.075',-0.970,-0.525
'0:00.078',-0.965,-0.510
'0:00.081',-0.970,-0.505
'0:00.083',-0.985,-0.495
'0:00.086',-0.950,-0.500
'0:00.089',-0.950,-0.525
'0:00.092',-0.950,-0.505
'0:00.094',-0.930,-0.525
'0:00.097',-0.925,-0.540
'0:00.100',-0.940,-0.535
'0:00.103',-0.950,-0.545
'0:00.106',-0.970,-0.540
'0:00.108',-0.955,-0.540
'0:00.111',-0.960,-0.515
'0:00.114',-0.960,-0.505
'0:00.117',-0.945,-0.505
'0:00.119',-0.930,-0.510
'0:00.122',-0.925,-0.505
'0:00.125',-0.940,-0.520
'0:00.128',-0.940,-0.525
'0:00.131',-0.940,-0.525
'0:00.133',-0.955,-0.545
'0:00.136',-0.950,-0.545
'0:00.139',-0.980,-0.550
'0:00.142',-0.960,-0.530
'0:00.144',-0.965,-0.530
'0:00.147',-0.945,-0.510
'0:00.150',-0.950,-0.515
'0:00.153',-0.945,-0.500
'0:00.156',-0.945,-0.510
'0:00.158',-0.955,-0.525
'0:00.161',-0.960,-0.530
'0:00.164',-0.955,-0.530
'0:00.167',-0.970,-0.545
'0:00.169',-0.980,-0.555
'0:00.172',-0.970,-0.540
'0:00.175',-0.975,-0.520
'0:00.178',-0.965,-0.525
'0:00.181',-0.950,-0.515
'0:00.183',-0.950,-0.515
'0:00.186',-0.935,-0.510
'0:00.189',-0.930,-0.515
'0:00.192',-0.930,-0.525
'0:00.194',-0.940,-0.535
'0:00.197',-0.935,-0.550
'0:00.200',-0.950,-0.570
'0:00.203',-0.970,-0.555
'0:00.206',-0.965,-0.560
'0:00.208',-0.965,-0.555
'0:00.211',-0.970,-0.530
'0:00.214',-0.970,-0.520
'0:00.217',-0.960,-0.520
'0:00.219',-0.930,-0.520
'0:00.222',-0.950,-0.530
'0:00.225',-0.960,-0.525
'0:00.228',-0.975,-0.545
'0:00.231',-0.955,-0.535
'0:00.233',-0.960,-0.565
'0:00.236',-0.960,-0.560
'0:00.239',-0.960,-0.560
'0:00.242',-0.970,-0.550
'0:00.244',-0.955,-0.535
'0:00.247',-0.940,-0.520
'0:00.250',-0.940,-0.525
'0:00.253',-0.930,-0.525
'0:00.256',-0.925,-0.510
'0:00.258',-0.930,-0.530
'0:00.261',-0.925,-0.535
'0:00.264',-0.935,-0.555
'0:00.267',-0.960,-0.580
'0:00.269',-0.950,-0.560
'0:00.272',-0.960,-0.575
'0:00.275',-0.955,-0.570
'0:00.278',-0.945,-0.535
'0:00.281',-0.940,-0.555
'0:00.283',-0.925,-0.550
'0:00.286',-0.920,-0.520
'0:00.289',-0.925,-0.550
'0:00.292',-0.920,-0.535
'0:00.294',-0.925,-0.555
'0:00.297',-0.935,-0.555
'0:00.300',-0.935,-0.570
'0:00.303',-0.935,-0.565
'0:00.306',-0.960,-0.570
'0:00.308',-0.945,-0.545
'0:00.311',-0.905,-0.550
'0:00.314',-0.885,-0.540
'0:00.317',-0.855,-0.525
'0:00.319',-0.825,-0.510
'0:00.322',-0.825,-0.530
'0:00.325',-0.815,-0.535
'0:00.328',-0.825,-0.535
'0:00.331',-0.810,-0.550
'0:00.333',-0.835,-0.555
'0:00.336',-0.835,-0.530
'0:00.339',-0.835,-0.515
'0:00.342',-0.785,-0.495
'0:00.344',-0.780,-0.480
'0:00.347',-0.760,-0.450
'0:00.350',-0.750,-0.435
'0:00.353',-0.760,-0.415
'0:00.356',-0.745,-0.400
'0:00.358',-0.750,-0.390
'0:00.361',-0.775,-0.390
'0:00.364',-0.780,-0.365
'0:00.367',-0.800,-0.360
'0:00.369',-0.825,-0.355
'0:00.372',-0.845,-0.360
'0:00.375',-0.840,-0.360
'0:00.378',-0.835,-0.355
'0:00.381',-0.825,-0.350
'0:00.383',-0.835,-0.345
'0:00.386',-0.850,-0.345
'0:00.389',-0.865,-0.375
'0:00.392',-0.895,-0.380
'0:00.394',-0.920,-0.415
'0:00.397',-0.930,-0.430
'0:00.400',-0.940,-0.470
'0:00.403',-0.945,-0.490
'0:00.406',-0.955,-0.495
'0:00.408',-0.980,-0.490
'0:00.411',-0.970,-0.505
'0:00.414',-0.970,-0.500
'0:00.417',-0.970,-0.475
'0:00.419',-0.935,-0.485
'0:00.422',-0.965,-0.480
'0:00.425',-0.960,-0.510
'0:00.428',-0.960,-0.515
'0:00.431',-0.965,-0.545
'0:00.433',-0.985,-0.545
'0:00.436',-0.985,-0.555
'0:00.439',-0.990,-0.550
'0:00.442',-0.995,-0.540
'0:00.444',-0.975,-0.530
'0:00.447',-0.985,-0.520
'0:00.450',-0.970,-0.520
'0:00.453',-0.955,-0.510
'0:00.456',-0.945,-0.535
'0:00.458',-0.945,-0.535
'0:00.461',-0.955,-0.550
'0:00.464',-0.950,-0.565
'0:00.467',-0.970,-0.560
'0:00.469',-0.985,-0.585
'0:00.472',-0.975,-0.575
'0:00.475',-0.950,-0.545
'0:00.478',-0.905,-0.550
'0:00.481',-0.830,-0.535
'0:00.483',-0.750,-0.500
'0:00.486',-0.620,-0.425
'0:00.489',-0.500,-0.285
'0:00.492',-0.340,-0.095
'0:00.494',-0.175,0.120
'0:00.497',-0.035,0.370
'0:00.500',0.030,0.625
'0:00.503',0.010,0.890
'0:00.506',-0.110,1.085
'0:00.508',-0.330,1.190
'0:00.511',-0.580,1.175
'0:00.514',-0.865,1.005
'0:00.517',-1.155,0.720
'0:00.519',-1.415,0.380
'0:00.522',-1.625,-0.060
'0:00.525',-1.755,-0.425
'0:00.528',-1.760,-0.725
'0:00.531',-1.680,-0.865
'0:00.533',-1.565,-0.860
'0:00.536',-1.445,-0.785
'0:00.539',-1.330,-0.680
'0:00.542',-1.245,-0.585
'0:00.544',-1.165,-0.530
'0:00.547',-1.100,-0.515
'0:00.550',-1.015,-0.495
'0:00.553',-0.940,-0.485
'0:00.556',-0.885,-0.475
'0:00.558',-0.860,-0.490
'0:00.561',-0.865,-0.490
'0:00.564',-0.870,-0.490
'0:00.567',-0.885,-0.490
'0:00.569',-0.890,-0.505
'0:00.572',-0.905,-0.500
'0:00.575',-0.910,-0.490
'0:00.578',-0.890,-0.485
'0:00.581',-0.850,-0.475
'0:00.583',-0.845,-0.450
'0:00.586',-0.835,-0.460
'0:00.589',-0.845,-0.450
'0:00.592',-0.835,-0.465
'0:00.594',-0.840,-0.470
'0:00.597',-0.850,-0.485
'0:00.600',-0.830,-0.490
'0:00.603',-0.845,-0.495
'0:00.606',-0.845,-0.485
'0:00.608',-0.855,-0.475
'0:00.611',-0.820,-0.455
'0:00.614',-0.810,-0.435
'0:00.617',-0.810,-0.435
'0:00.619',-0.790,-0.440
'0:00.622',-0.785,-0.435
'0:00.625',-0.785,-0.445
'0:00.628',-0.775,-0.435
'0:00.631',-0.790,-0.450
'0:00.633',-0.780,-0.445
'0:00.636',-0.800,-0.445
'0:00.639',-0.785,-0.435
'0:00.642',-0.785,-0.450
'0:00.644',-0.780,-0.420
'0:00.647',-0.760,-0.410
'0:00.650',-0.755,-0.390
'0:00.653',-0.730,-0.395
'0:00.656',-0.720,-0.385
'0:00.658',-0.720,-0.400
'0:00.661',-0.725,-0.415
'0:00.664',-0.730,-0.405
'0:00.667',-0.725,-0.415
'0:00.669',-0.725,-0.400
'0:00.672',-0.720,-0.405
'0:00.675',-0.740,-0.380
'0:00.678',-0.725,-0.365
'0:00.681',-0.705,-0.350
'0:00.683',-0.685,-0.335
'0:00.686',-0.660,-0.335
'0:00.689',-0.680,-0.315
'0:00.692',-0.665,-0.305
'0:00.694',-0.655,-0.325
'0:00.697',-0.645,-0.325
'0:00.700',-0.650,-0.325
'0:00.703',-0.625,-0.300
'0:00.706',-0.630,-0.290
'0:00.708',-0.615,-0.265
'0:00.711',-0.590,-0.240
'0:00.714',-0.570,-0.215
'0:00.717',-0.560,-0.175
'0:00.719',-0.530,-0.180
'0:00.722',-0.515,-0.160
'0:00.725',-0.505,-0.140
'0:00.728',-0.485,-0.140
'0:00.731',-0.470,-0.135
'0:00.733',-0.480,-0.135
'0:00.736',-0.450,-0.120
'0:00.739',-0.450,-0.085
'0:00.742',-0.440,-0.065
'0:00.744',-0.395,-0.035
'0:00.747',-0.380,-0.010
'0:00.750',-0.335,0.020
'0:00.753',-0.305,0.055
'0:00.756',-0.305,0.050
'0:00.758',-0.290,0.070
'0:00.761',-0.275,0.065
'0:00.764',-0.275,0.090
'0:00.767',-0.250,0.070
'0:00.769',-0.255,0.080
'0:00.772',-0.250,0.100
'0:00.775',-0.240,0.125
'0:00.778',-0.220,0.145
'0:00.781',-0.200,0.165
'0:00.783',-0.195,0.185
'0:00.786',-0.175,0.185
'0:00.789',-0.170,0.195
'0:00.792',-0.170,0.185
'0:00.794',-0.175,0.190
'0:00.797',-0.180,0.175
'0:00.800',-0.195,0.170
'0:00.803',-0.195,0.165
'0:00.806',-0.230,0.135
'0:00.808',-0.235,0.125
'0:00.811',-0.265,0.140
'0:00.814',-0.265,0.125
'0:00.817',-0.280,0.115
'0:00.819',-0.300,0.075
'0:00.822',-0.335,0.030
'0:00.825',-0.360,0.000
'0:00.828',-0.400,-0.035
'0:00.831',-0.430,-0.085
'0:00.833',-0.470,-0.125
'0:00.836',-0.505,-0.170
'0:00.839',-0.540,-0.200
'0:00.842',-0.565,-0.225
'0:00.844',-0.590,-0.250
'0:00.847',-0.610,-0.280
'0:00.850',-0.630,-0.300
'0:00.853',-0.650,-0.325
'0:00.856',-0.665,-0.370
'0:00.858',-0.690,-0.400
'0:00.861',-0.735,-0.430
'0:00.864',-0.750,-0.450
'0:00.867',-0.775,-0.485
'0:00.869',-0.795,-0.495
'0:00.872',-0.790,-0.495
'0:00.875',-0.820,-0.525
'0:00.878',-0.810,-0.490
'0:00.881',-0.810,-0.510
'0:00.883',-0.810,-0.500
'0:00.886',-0.815,-0.515
'0:00.889',-0.815,-0.515
'0:00.892',-0.820,-0.550
'0:00.894',-0.825,-0.545
'0:00.897',-0.845,-0.555
'0:00.900',-0.865,-0.570
'0:00.903',-0.870,-0.560
'0:00.906',-0.890,-0.565
'0:00.908',-0.885,-0.565
'0:00.911',-0.875,-0.545
'0:00.914',-0.870,-0.550
'0:00.917',-0.870,-0.545
'0:00.919',-0.850,-0.545
'0:00.922',-0.860,-0.545
'0:00.925',-0.855,-0.550
'0:00.928',-0.855,-0.570
'0:00.931',-0.860,-0.575
'0:00.933',-0.870,-0.570
'0:00.936',-0.870,-0.580
'0:00.939',-0.870,-0.575
'0:00.942',-0.865,-0.570
'0:00.944',-0.865,-0.565
'0:00.947',-0.850,-0.540
'0:00.950',-0.840,-0.525
'0:00.953',-0.845,-0.525
'0:00.956',-0.820,-0.530
'0:00.958',-0.860,-0.520
'0:00.961',-0.870,-0.555
'0:00.964',-0.860,-0.555
'0:00.967',-0.865,-0.555
'0:00.969',-0.870,-0.550
'0:00.972',-0.865,-0.550
'0:00.975',-0.860,-0.535
'0:00.978',-0.845,-0.530
'0:00.981',-0.840,-0.530
'0:00.983',-0.820,-0.505
'0:00.986',-0.820,-0.505
'0:00.989',-0.820,-0.520
'0:00.992',-0.830,-0.510
'0:00.994',-0.825,-0.530
'0:00.997',-0.835,-0.530
'0:01.000',-0.850,-0.545
'0:01.003',-0.870,-0.550
'0:01.006',-0.875,-0.560
'0:01.008',-0.875,-0.530
'0:01.011',-0.880,-0.535
'0:01.014',-0.875,-0.525
'0:01.017',-0.875,-0.525
'0:01.019',-0.865,-0.535
'0:01.022',-0.855,-0.525
'0:01.025',-0.855,-0.525
'0:01.028',-0.865,-0.545
'0:01.031',-0.880,-0.550
'0:01.033',-0.875,-0.560
'0:01.036',-0.890,-0.595
'0:01.039',-0.895,-0.580
'0:01.042',-0.900,-0.580
'0:01.044',-0.890,-0.570
'0:01.047',-0.895,-0.555
'0:01.050',-0.885,-0.550
'0:01.053',-0.885,-0.555
'0:01.056',-0.885,-0.555
'0:01.058',-0.890,-0.575
'0:01.061',-0.900,-0.595
'0:01.064',-0.915,-0.600
'0:01.067',-0.915,-0.620
'0:01.069',-0.920,-0.625
'0:01.072',-0.935,-0.610
'0:01.075',-0.920,-0.605
'0:01.078',-0.925,-0.595
'0:01.081',-0.905,-0.580
'0:01.083',-0.900,-0.590
'0:01.086',-0.895,-0.565
'0:01.089',-0.905,-0.585
'0:01.092',-0.915,-0.600
'0:01.094',-0.930,-0.605
'0:01.097',-0.930,-0.610
'0:01.100',-0.950,-0.610
'0:01.103',-0.945,-0.620
'0:01.106',-0.975,-0.625
'0:01.108',-0.955,-0.605
'0:01.111',-0.930,-0.610
'0:01.114',-0.935,-0.605
'0:01.117',-0.910,-0.590
'0:01.119',-0.905,-0.590
'0:01.122',-0.895,-0.595
'0:01.125',-0.910,-0.595
'0:01.128',-0.905,-0.615
'0:01.131',-0.915,-0.615
'0:01.133',-0.915,-0.620
'0:01.136',-0.935,-0.615
'0:01.139',-0.930,-0.640
'0:01.142',-0.935,-0.620
'0:01.144',-0.930,-0.600
'0:01.147',-0.920,-0.605
'0:01.150',-0.915,-0.590
'0:01.153',-0.905,-0.600
'0:01.156',-0.920,-0.600
'0:01.158',-0.920,-0.600
'0:01.161',-0.925,-0.620
'0:01.164',-0.915,-0.625
'0:01.167',-0.930,-0.640
'0:01.169',-0.940,-0.620
'0:01.172',-0.945,-0.620
'0:01.175',-0.950,-0.615
'0:01.178',-0.930,-0.590
'0:01.181',-0.920,-0.615
'0:01.183',-0.920,-0.590
'0:01.186',-0.910,-0.580
'0:01.189',-0.920,-0.585
'0:01.192',-0.915,-0.605
'0:01.194',-0.920,-0.625
'0:01.197',-0.940,-0.620
'0:01.200',-0.950,-0.650
'0:01.203',-0.945,-0.650
'0:01.206',-0.940,-0.630
'0:01.208',-0.945,-0.635
'0:01.211',-0.945,-0.620
'0:01.214',-0.940,-0.615
'0:01.217',-0.925,-0.610
'0:01.219',-0.930,-0.615
'0:01.222',-0.920,-0.620
'0:01.225',-0.925,-0.635
'0:01.228',-0.935,-0.635
'0:01.231',-0.935,-0.640
'0:01.233',-0.945,-0.640
'0:01.236',-0.945,-0.675
'0:01.239',-0.975,-0.660
'0:01.242',-0.975,-0.665
'0:01.244',-0.960,-0.650
'0:01.247',-0.935,-0.635
'0:01.250',-0.925,-0.630
'0:01.253',-0.915,-0.635
'0:01.256',-0.925,-0.625
'0:01.258',-0.925,-0.635
'0:01.261',-0.920,-0.645
'0:01.264',-0.925,-0.655
'0:01.267',-0.935,-0.670
'0:01.269',-0.935,-0.665
'0:01.272',-0.950,-0.665
'0:01.275',-0.940,-0.665
'0:01.278',-0.935,-0.645
'0:01.281',-0.925,-0.645
'0:01.283',-0.925,-0.635
'0:01.286',-0.915,-0.620
'0:01.289',-0.920,-0.620
'0:01.292',-0.925,-0.635
'0:01.294',-0.920,-0.620
'0:01.297',-0.935,-0.620
'0:01.300',-0.945,-0.620
'0:01.303',-0.955,-0.620
'0:01.306',-0.955,-0.635
'0:01.308',-0.955,-0.625
'0:01.311',-0.950,-0.605
'0:01.314',-0.930,-0.590
'0:01.317',-0.930,-0.585
'0:01.319',-0.915,-0.580
'0:01.322',-0.920,-0.590
'0:01.325',-0.930,-0.595
'0:01.328',-0.945,-0.615
'0:01.331',-0.955,-0.615
'0:01.333',-0.970,-0.615
'0:01.336',-0.980,-0.620
'0:01.339',-0.960,-0.620
'0:01.342',-0.975,-0.645
'0:01.344',-0.945,-0.610
'0:01.347',-0.940,-0.610
'0:01.350',-0.935,-0.595
'0:01.353',-0.915,-0.585
'0:01.356',-0.920,-0.600
'0:01.358',-0.930,-0.610
'0:01.361',-0.925,-0.615
'0:01.364',-0.940,-0.620
'0:01.367',-0.940,-0.630
'0:01.369',-0.935,-0.640
'0:01.372',-0.945,-0.625
'0:01.375',-0.940,-0.645
'0:01.378',-0.935,-0.605
'0:01.381',-0.925,-0.605
'0:01.383',-0.920,-0.590
'0:01.386',-0.920,-0.605
'0:01.389',-0.915,-0.605
'0:01.392',-0.930,-0.610
'0:01.394',-0.920,-0.615
'0:01.397',-0.920,-0.625
'0:01.400',-0.930,-0.640
'0:01.403',-0.940,-0.640
'0:01.406',-0.945,-0.615
'0:01.408',-0.935,-0.620
'0:01.411',-0.930,-0.610
'0:01.414',-0.925,-0.605
'0:01.417',-0.915,-0.600
'0:01.419',-0.910,-0.595
'0:01.422',-0.905,-0.600
'0:01.425',-0.905,-0.615
'0:01.428',-0.915,-0.630
'0:01.431',-0.935,-0.625
'0:01.433',-0.935,-0.635
'0:01.436',-0.945,-0.635
'0:01.439',-0.930,-0.630
'0:01.442',-0.905,-0.620
'0:01.444',-0.885,-0.625
'0:01.447',-0.860,-0.615
'0:01.450',-0.845,-0.600
'0:01.453',-0.815,-0.595
'0:01.456',-0.810,-0.605
'0:01.458',-0.800,-0.605
'0:01.461',-0.805,-0.615
'0:01.464',-0.830,-0.605
'0:01.467',-0.820,-0.605
'0:01.469',-0.825,-0.595
'0:01.472',-0.800,-0.590
'0:01.475',-0.795,-0.570
'0:01.478',-0.785,-0.555
'0:01.481',-0.760,-0.525
'0:01.483',-0.735,-0.505
'0:01.486',-0.720,-0.490
'0:01.489',-0.725,-0.465
'0:01.492',-0.740,-0.465
'0:01.494',-0.750,-0.450
'0:01.497',-0.770,-0.445
'0:01.500',-0.800,-0.470
'0:01.503',-0.810,-0.480
'0:01.506',-0.820,-0.475
'0:01.508',-0.810,-0.470
'0:01.511',-0.825,-0.480
'0:01.514',-0.825,-0.460
'0:01.517',-0.845,-0.460
'0:01.519',-0.840,-0.465
'0:01.522',-0.875,-0.505
'0:01.525',-0.885,-0.515
'0:01.528',-0.920,-0.525
'0:01.531',-0.925,-0.565
'0:01.533',-0.945,-0.585
'0:01.536',-0.950,-0.620
'0:01.539',-0.950,-0.615
'0:01.542',-0.955,-0.635
'0:01.544',-0.945,-0.615
'0:01.547',-0.945,-0.620
'0:01.550',-0.940,-0.620
'0:01.553',-0.925,-0.610
'0:01.556',-0.930,-0.625
'0:01.558',-0.945,-0.620
'0:01.561',-0.945,-0.650
'0:01.564',-0.950,-0.645
'0:01.567',-0.960,-0.670
'0:01.569',-0.980,-0.670
'0:01.572',-0.970,-0.680
'0:01.575',-0.970,-0.660
'0:01.578',-0.970,-0.675
'0:01.581',-0.960,-0.645
'0:01.583',-0.960,-0.635
'0:01.586',-0.945,-0.650
'0:01.589',-0.955,-0.625
'0:01.592',-0.950,-0.640
'0:01.594',-0.955,-0.630
'0:01.597',-0.965,-0.635
'0:01.600',-0.960,-0.655
'0:01.603',-0.960,-0.660
'0:01.606',-0.955,-0.660
'0:01.608',-0.945,-0.640
'0:01.611',-0.920,-0.635
'0:01.614',-0.910,-0.635
'0:01.617',-0.860,-0.635
'0:01.619',-0.785,-0.610
'0:01.622',-0.715,-0.580
'0:01.625',-0.600,-0.495
'0:01.628',-0.490,-0.380
'0:01.631',-0.355,-0.200
'0:01.633',-0.225,0.035
'0:01.636',-0.100,0.280
'0:01.639',-0.045,0.550
'0:01.642',-0.090,0.800
'0:01.644',-0.210,0.975
'0:01.647',-0.430,1.060
'0:01.650',-0.690,1.005
'0:01.653',-0.970,0.820
'0:01.656',-1.240,0.510
'0:01.658',-1.490,0.105
'0:01.661',-1.665,-0.310
'0:01.664',-1.730,-0.660
'0:01.667',-1.700,-0.895
'0:01.669',-1.600,-0.975
'0:01.672',-1.490,-0.940
'0:01.675',-1.375,-0.840
'0:01.678',-1.275,-0.745
'0:01.681',-1.200,-0.690
'0:01.683',-1.120,-0.620
'0:01.686',-1.035,-0.615
'0:01.689',-0.980,-0.610
'0:01.692',-0.930,-0.605
'0:01.694',-0.885,-0.595
'0:01.697',-0.890,-0.590
'0:01.700',-0.890,-0.585
'0:01.703',-0.870,-0.590
'0:01.706',-0.895,-0.600
'0:01.708',-0.910,-0.605
'0:01.711',-0.895,-0.595
'0:01.714',-0.870,-0.575
'0:01.717',-0.855,-0.580
'0:01.719',-0.840,-0.565
'0:01.722',-0.820,-0.585
'0:01.725',-0.830,-0.560
'0:01.728',-0.820,-0.585
'0:01.731',-0.835,-0.575
'0:01.733',-0.845,-0.590
'0:01.736',-0.840,-0.585
'0:01.739',-0.845,-0.570
'0:01.742',-0.835,-0.590
'0:01.744',-0.830,-0.565
'0:01.747',-0.830,-0.570
'0:01.750',-0.810,-0.540
'0:01.753',-0.790,-0.545
'0:01.756',-0.790,-0.540
'0:01.758',-0.790,-0.555
'0:01.761',-0.790,-0.565
'0:01.764',-0.800,-0.565
'0:01.767',-0.800,-0.565
'0:01.769',-0.800,-0.570
'0:01.772',-0.800,-0.555
'0:01.775',-0.810,-0.535
'0:01.778',-0.785,-0.535
'0:01.781',-0.780,-0.520
'0:01.783',-0.775,-0.520
'0:01.786',-0.755,-0.495
'0:01.789',-0.755,-0.515
'0:01.792',-0.760,-0.505
'0:01.794',-0.755,-0.500
'0:01.797',-0.755,-0.535
'0:01.800',-0.760,-0.530
'0:01.803',-0.770,-0.535
'0:01.806',-0.755,-0.490
'0:01.808',-0.765,-0.495
'0:01.811',-0.755,-0.470
'0:01.814',-0.745,-0.470
'0:01.817',-0.730,-0.475
'0:01.819',-0.705,-0.460
'0:01.822',-0.740,-0.455
'0:01.825',-0.710,-0.455
'0:01.828',-0.705,-0.450
'0:01.831',-0.715,-0.470
'0:01.833',-0.710,-0.470
'0:01.836',-0.710,-0.450
'0:01.839',-0.705,-0.460
'0:01.842',-0.690,-0.440
'0:01.844',-0.665,-0.415
'0:01.847',-0.645,-0.395
'0:01.850',-0.610,-0.375
'0:01.853',-0.595,-0.365
'0:01.856',-0.590,-0.360
'0:01.858',-0.595,-0.365
'0:01.861',-0.580,-0.365
'0:01.864',-0.575,-0.355
'0:01.867',-0.565,-0.345
'0:01.869',-0.560,-0.330
'0:01.872',-0.550,-0.315
'0:01.875',-0.530,-0.295
'0:01.878',-0.515,-0.255
'0:01.881',-0.480,-0.225
'0:01.883',-0.465,-0.205
'0:01.886',-0.430,-0.180
'0:01.889',-0.405,-0.165
'0:01.892',-0.375,-0.155
'0:01.894',-0.390,-0.140
'0:01.897',-0.380,-0.130
'0:01.900',-0.365,-0.120
'0:01.903',-0.345,-0.105
'0:01.906',-0.345,-0.085
'0:01.908',-0.315,-0.075
'0:01.911',-0.300,-0.035
'0:01.914',-0.280,-0.025
'0:01.917',-0.250,-0.005
'0:01.919',-0.250,0.010
'0:01.922',-0.240,0.030
'0:01.925',-0.230,0.015
'0:01.928',-0.225,0.015
'0:01.931',-0.220,0.020
'0:01.933',-0.235,0.005
'0:01.936',-0.235,0.015
'0:01.939',-0.230,0.010
'0:01.942',-0.225,0.015
'0:01.944',-0.245,0.035
'0:01.947',-0.240,0.035
'0:01.950',-0.250,0.055
'0:01.953',-0.250,0.030
'0:01.956',-0.260,0.000
'0:01.958',-0.270,-0.015
'0:01.961',-0.305,-0.050
'0:01.964',-0.335,-0.075
'0:01.967',-0.375,-0.115
'0:01.969',-0.415,-0.145
'0:01.972',-0.450,-0.180
'0:01.975',-0.480,-0.195
'0:01.978',-0.500,-0.230
'0:01.981',-0.505,-0.245
'0:01.983',-0.550,-0.280
'0:01.986',-0.575,-0.315
'0:01.989',-0.585,-0.340
'0:01.992',-0.615,-0.385
'0:01.994',-0.645,-0.425
'0:01.997',-0.680,-0.455
'0:02.000',-0.720,-0.475
'0:02.003',-0.750,-0.515
'0:02.006',-0.775,-0.550
'0:02.008',-0.775,-0.570
'0:02.011',-0.800,-0.560
'0:02.014',-0.810,-0.595
'0:02.017',-0.810,-0.600
'0:02.019',-0.815,-0.590
'0:02.022',-0.820,-0.625
'0:02.025',-0.840,-0.640
'0:02.028',-0.865,-0.660
'0:02.031',-0.875,-0.675
'0:02.033',-0.885,-0.710
'0:02.036',-0.900,-0.705
'0:02.039',-0.890,-0.695
'0:02.042',-0.895,-0.710
'0:02.044',-0.900,-0.690
'0:02.047',-0.885,-0.685
'0:02.050',-0.885,-0.685
'0:02.053',-0.885,-0.685
'0:02.056',-0.890,-0.695
'0:02.058',-0.880,-0.705
'0:02.061',-0.885,-0.715
'0:02.064',-0.895,-0.710
'0:02.067',-0.910,-0.725
'0:02.069',-0.905,-0.740
'0:02.072',-0.910,-0.720
'0:02.075',-0.895,-0.715
'0:02.078',-0.890,-0.690
'0:02.081',-0.890,-0.700
'0:02.083',-0.880,-0.690
'0:02.086',-0.865,-0.670
'0:02.089',-0.865,-0.695
'0:02.092',-0.865,-0.690
'0:02.094',-0.855,-0.690
'0:02.097',-0.885,-0.695
'0:02.100',-0.870,-0.685
'0:02.103',-0.880,-0.695
'0:02.106',-0.900,-0.700
'0:02.108',-0.895,-0.695
'0:02.111',-0.885,-0.685
'0:02.114',-0.870,-0.665
'0:02.117',-0.870,-0.655
'0:02.119',-0.855,-0.660
'0:02.122',-0.850,-0.665
'0:02.125',-0.850,-0.660
'0:02.128',-0.855,-0.665
'0:02.131',-0.865,-0.675
'0:02.133',-0.870,-0.680
'0:02.136',-0.875,-0.670
'0:02.139',-0.895,-0.685
'0:02.142',-0.905,-0.685
'0:02.144',-0.895,-0.675
'0:02.147',-0.895,-0.670
'0:02.150',-0.900,-0.645
'0:02.153',-0.875,-0.645
'0:02.156',-0.885,-0.640
'0:02.158',-0.885,-0.650
'0:02.161',-0.885,-0.675
'0:02.164',-0.900,-0.675
'0:02.167',-0.910,-0.705
'0:02.169',-0.915,-0.715
'0:02.172',-0.930,-0.720
'0:02.175',-0.940,-0.705
'0:02.178',-0.935,-0.685
'0:02.181',-0.930,-0.685
'0:02.183',-0.915,-0.675
'0:02.186',-0.910,-0.675
'0:02.189',-0.920,-0.685
'0:02.192',-0.905,-0.690
'0:02.194',-0.925,-0.700
'0:02.197',-0.945,-0.710
'0:02.200',-0.940,-0.720
'0:02.203',-0.960,-0.735
'0:02.206',-0.975,-0.720
'0:02.208',-0.965,-0.720
'0:02.211',-0.960,-0.720
'0:02.214',-0.955,-0.705
'0:02.217',-0.955,-0.700
'0:02.219',-0.970,-0.700
'0:02.222',-0.945,-0.710
'0:02.225',-0.945,-0.710
'0:02.228',-0.945,-0.725
'0:02.231',-0.965,-0.730
'0:02.233',-0.970,-0.740
'0:02.236',-0.980,-0.755
'0:02.239',-0.995,-0.750
'0:02.242',-1.010,-0.760
'0:02.244',-1.020,-0.740
'0:02.247',-0.995,-0.725
'0:02.250',-0.990,-0.725
'0:02.253',-0.970,-0.700
'0:02.256',-0.970,-0.725
'0:02.258',-0.970,-0.735
'0:02.261',-0.965,-0.725
'0:02.264',-0.990,-0.740
'0:02.267',-0.995,-0.750
'0:02.269',-1.005,-0.760
'0:02.272',-1.015,-0.760
'0:02.275',-1.000,-0.740
'0:02.278',-0.995,-0.730
'0:02.281',-0.990,-0.730
'0:02.283',-0.990,-0.730
'0:02.286',-0.990,-0.710
'0:02.289',-1.000,-0.730
'0:02.292',-0.995,-0.710
'0:02.294',-1.000,-0.725
'0:02.297',-1.000,-0.730
'0:02.300',-1.005,-0.730
'0:02.303',-1.020,-0.740
'0:02.306',-1.035,-0.740
'0:02.308',-1.030,-0.740
'0:02.311',-1.025,-0.725
'0:02.314',-1.020,-0.715
'0:02.317',-1.010,-0.710
'0:02.319',-0.995,-0.695
'0:02.322',-1.005,-0.705
'0:02.325',-1.000,-0.720
'0:02.328',-1.010,-0.740
'0:02.331',-1.030,-0.735
'0:02.333',-1.025,-0.725
'0:02.336',-1.030,-0.750
'0:02.339',-1.045,-0.750
'0:02.342',-1.045,-0.730
'0:02.344',-1.025,-0.725
'0:02.347',-1.035,-0.720
'0:02.350',-1.020,-0.705
'0:02.353',-1.005,-0.700
'0:02.356',-1.005,-0.710
'0:02.358',-1.005,-0.715
'0:02.361',-1.010,-0.735
'0:02.364',-1.020,-0.740
'0:02.367',-1.015,-0.745
'0:02.369',-1.035,-0.740
'0:02.372',-1.040,-0.750
'0:02.375',-1.045,-0.730
'0:02.378',-1.050,-0.720
'0:02.381',-1.030,-0.720
'0:02.383',-1.025,-0.700
'0:02.386',-1.015,-0.690
'0:02.389',-1.020,-0.705
'0:02.392',-1.015,-0.715
'0:02.394',-1.010,-0.730
'0:02.397',-1.040,-0.740
'0:02.400',-1.035,-0.750
'0:02.403',-1.050,-0.765
'0:02.406',-1.050,-0.760
'0:02.408',-1.050,-0.740
'0:02.411',-1.045,-0.760
'0:02.414',-1.045,-0.740
'0:02.417',-1.020,-0.735
'0:02.419',-1.000,-0.720
'0:02.422',-1.000,-0.705
'0:02.425',-1.015,-0.715
'0:02.428',-1.010,-0.720
'0:02.431',-1.010,-0.730
'0:02.433',-1.020,-0.755
'0:02.436',-1.035,-0.750
'0:02.439',-1.060,-0.750
'0:02.442',-1.060,-0.735
'0:02.444',-1.030,-0.715
'0:02.447',-1.040,-0.715
'0:02.450',-1.030,-0.705
'0:02.453',-1.010,-0.710
'0:02.456',-1.015,-0.715
'0:02.458',-1.020,-0.715
'0:02.461',-1.000,-0.725
'0:02.464',-1.010,-0.700
'0:02.467',-1.015,-0.720
'0:02.469',-1.030,-0.720
'0:02.472',-1.030,-0.710
'0:02.475',-1.035,-0.690
'0:02.478',-1.035,-0.705
'0:02.481',-1.035,-0.685
'0:02.483',-1.030,-0.680
'0:02.486',-1.025,-0.680
'0:02.489',-1.000,-0.670
'0:02.492',-1.005,-0.695
'0:02.494',-1.025,-0.700
'0:02.497',-1.030,-0.695
'0:02.500',-1.025,-0.710
'0:02.503',-1.045,-0.710
'0:02.506',-1.050,-0.730
'0:02.508',-1.040,-0.705
'0:02.511',-1.040,-0.710
'0:02.514',-1.010,-0.690
'0:02.517',-1.010,-0.685
'0:02.519',-1.005,-0.675
'0:02.522',-1.010,-0.675
'0:02.525',-1.010,-0.680
'0:02.528',-1.020,-0.690
'0:02.531',-1.020,-0.695
'0:02.533',-1.010,-0.710
'0:02.536',-1.020,-0.695
'0:02.539',-1.025,-0.705
'0:02.542',-1.040,-0.685
'0:02.544',-1.020,-0.690
'0:02.547',-1.015,-0.670
'0:02.550',-1.005,-0.670
'0:02.553',-0.990,-0.675
'0:02.556',-0.995,-0.670
'0:02.558',-0.980,-0.675
'0:02.561',-0.980,-0.685
'0:02.564',-0.985,-0.690
'0:02.567',-1.000,-0.690
'0:02.569',-1.000,-0.695
'0:02.572',-0.995,-0.690
'0:02.575',-0.985,-0.680
'0:02.578',-0.965,-0.665
'0:02.581',-0.955,-0.675
'0:02.583',-0.930,-0.660
'0:02.586',-0.925,-0.655
'0:02.589',-0.925,-0.675
'0:02.592',-0.920,-0.675
'0:02.594',-0.930,-0.670
'0:02.597',-0.920,-0.675
'0:02.600',-0.900,-0.670
'0:02.603',-0.895,-0.660
'0:02.606',-0.885,-0.650
'0:02.608',-0.875,-0.625
'0:02.611',-0.875,-0.600
'0:02.614',-0.845,-0.595
'0:02.617',-0.825,-0.570
'0:02.619',-0.820,-0.560
'0:02.622',-0.805,-0.540
'0:02.625',-0.810,-0.540
'0:02.628',-0.820,-0.520
'0:02.631',-0.840,-0.505
'0:02.633',-0.865,-0.505
'0:02.636',-0.890,-0.520
'0:02.639',-0.900,-0.525
'0:02.642',-0.915,-0.530
'0:02.644',-0.905,-0.525
'0:02.647',-0.895,-0.525
'0:02.650',-0.910,-0.510
'0:02.653',-0.915,-0.510
'0:02.656',-0.940,-0.545
'0:02.658',-0.960,-0.545
'0:02.661',-0.975,-0.555
'0:02.664',-1.005,-0.590
'0:02.667',-1.005,-0.610
'0:02.669',-1.010,-0.625
'0:02.672',-1.010,-0.630
'0:02.675',-1.030,-0.635
'0:02.678',-1.035,-0.630
'0:02.681',-1.040,-0.630
'0:02.683',-1.015,-0.630
'0:02.686',-1.015,-0.625
'0:02.689',-1.025,-0.630
'0:02.692',-1.020,-0.630
'0:02.694',-1.025,-0.650
'0:02.697',-1.045,-0.680
'0:02.700',-1.045,-0.675
'0:02.703',-1.055,-0.685
'0:02.706',-1.060,-0.685
'0:02.708',-1.060,-0.690
'0:02.711',-1.060,-0.675
'0:02.714',-1.045,-0.670
'0:02.717',-1.040,-0.660
'0:02.719',-1.035,-0.650
'0:02.722',-1.015,-0.645
'0:02.725',-1.010,-0.660
'0:02.728',-1.005,-0.650
'0:02.731',-1.035,-0.665
'0:02.733',-1.020,-0.660
'0:02.736',-1.035,-0.660
'0:02.739',-1.035,-0.680
'0:02.742',-1.020,-0.660
'0:02.744',-0.980,-0.655
'0:02.747',-0.910,-0.635
'0:02.750',-0.830,-0.585
'0:02.753',-0.715,-0.495
'0:02.756',-0.600,-0.345
'0:02.758',-0.460,-0.160
'0:02.761',-0.335,0.070
'0:02.764',-0.215,0.305
'0:02.767',-0.165,0.560
'0:02.769',-0.200,0.765
'0:02.772',-0.335,0.925
'0:02.775',-0.815,0.945
'0:02.778',-1.095,0.795
'0:02.781',-1.375,0.540
'0:02.783',-1.605,0.170
'0:02.786',-1.795,-0.235
'0:02.789',-1.905,-0.660
'0:02.792',-1.925,-1.010
'0:02.794',-1.860,-1.195
'0:02.797',-1.760,-1.235
'0:02.800',-1.645,-1.125
'0:02.803',-1.550,-1.000
'0:02.806',-1.465,-0.890
'0:02.808',-1.395,-0.800
'0:02.811',-1.310,-0.750
'0:02.814',-1.225,-0.715
'0:02.817',-1.155,-0.680
'0:02.819',-1.075,-0.670
'0:02.822',-1.020,-0.625
'0:02.825',-0.985,-0.615
'0:02.828',-0.995,-0.605
'0:02.831',-0.990,-0.590
'0:02.833',-1.000,-0.590
'0:02.836',-1.005,-0.595
'0:02.839',-1.005,-0.585
'0:02.842',-0.990,-0.580
'0:02.844',-0.990,-0.575
'0:02.847',-0.975,-0.565
'0:02.850',-0.960,-0.565
'0:02.853',-0.940,-0.565
'0:02.856',-0.920,-0.565
'0:02.858',-0.925,-0.560
'0:02.861',-0.935,-0.560
'0:02.864',-0.935,-0.560
'0:02.867',-0.930,-0.560
'0:02.869',-0.945,-0.545
'0:02.872',-0.920,-0.535
'0:02.875',-0.930,-0.520
'0:02.878',-0.925,-0.505
'0:02.881',-0.910,-0.500
'0:02.883',-0.890,-0.495
'0:02.886',-0.880,-0.485
'0:02.889',-0.870,-0.490
'0:02.892',-0.870,-0.505
'0:02.894',-0.895,-0.500
'0:02.897',-0.890,-0.510
'0:02.900',-0.905,-0.505
'0:02.903',-0.905,-0.505
'0:02.906',-0.895,-0.500
'0:02.908',-0.895,-0.485
'0:02.911',-0.875,-0.470
'0:02.914',-0.875,-0.445
'0:02.917',-0.850,-0.445
'0:02.919',-0.855,-0.440
'0:02.922',-0.840,-0.435
'0:02.925',-0.845,-0.440
'0:02.928',-0.870,-0.440
'0:02.931',-0.865,-0.465
'0:02.933',-0.865,-0.435
'0:02.936',-0.855,-0.445
'0:02.939',-0.855,-0.430
'0:02.942',-0.835,-0.425
'0:02.944',-0.820,-0.400
'0:02.947',-0.795,-0.385
'0:02.950',-0.810,-0.370
'0:02.953',-0.790,-0.370
'0:02.956',-0.785,-0.370
'0:02.958',-0.780,-0.360
'0:02.961',-0.785,-0.350
'0:02.964',-0.795,-0.355
'0:02.967',-0.790,-0.345
'0:02.969',-0.770,-0.335
'0:02.972',-0.770,-0.330
'0:02.975',-0.745,-0.310
'0:02.978',-0.735,-0.290
'0:02.981',-0.725,-0.275
'0:02.983',-0.695,-0.230
'0:02.986',-0.660,-0.220
'0:02.989',-0.645,-0.225
'0:02.992',-0.650,-0.210
'0:02.994',-0.635,-0.190
'0:02.997',-0.620,-0.185
'0:03.000',-0.615,-0.155
'0:03.003',-0.610,-0.155
'0:03.006',-0.585,-0.115
'0:03.008',-0.565,-0.085
'0:03.011',-0.535,-0.075
'0:03.014',-0.510,-0.050
'0:03.017',-0.490,-0.035
'0:03.019',-0.470,-0.005
'0:03.022',-0.445,0.010
'0:03.025',-0.430,0.020
'0:03.028',-0.430,0.035
'0:03.031',-0.430,0.040
'0:03.033',-0.415,0.070
'0:03.036',-0.400,0.075
'0:03.039',-0.390,0.105
'0:03.042',-0.375,0.140
'0:03.044',-0.355,0.160
'0:03.047',-0.330,0.165
'0:03.050',-0.295,0.205
'0:03.053',-0.285,0.210
'0:03.056',-0.285,0.225
'0:03.058',-0.265,0.210
'0:03.061',-0.280,0.200
'0:03.064',-0.280,0.195
'0:03.067',-0.285,0.210
'0:03.069',-0.315,0.210
'0:03.072',-0.295,0.215
'0:03.075',-0.310,0.205
'0:03.078',-0.295,0.215
'0:03.081',-0.300,0.195
'0:03.083',-0.305,0.200
'0:03.086',-0.320,0.155
'0:03.089',-0.345,0.120
'0:03.092',-0.370,0.085
'0:03.094',-0.400,0.050
'0:03.097',-0.430,-0.010
'0:03.100',-0.480,-0.045
'0:03.103',-0.525,-0.090
'0:03.106',-0.560,-0.130
'0:03.108',-0.595,-0.160
'0:03.111',-0.615,-0.185
'0:03.114',-0.640,-0.230
'0:03.117',-0.655,-0.255
'0:03.119',-0.675,-0.305
'0:03.122',-0.710,-0.350
'0:03.125',-0.730,-0.380
'0:03.128',-0.760,-0.415
'0:03.131',-0.775,-0.455
'0:03.133',-0.800,-0.470
'0:03.136',-0.830,-0.500
'0:03.139',-0.845,-0.520
'0:03.142',-0.860,-0.525
'0:03.144',-0.865,-0.530
'0:03.147',-0.870,-0.530
'0:03.150',-0.860,-0.535
'0:03.153',-0.865,-0.555
'0:03.156',-0.880,-0.555
'0:03.158',-0.890,-0.580
'0:03.161',-0.910,-0.600
'0:03.164',-0.915,-0.620
'0:03.167',-0.935,-0.610
'0:03.169',-0.930,-0.630
'0:03.172',-0.930,-0.620
'0:03.175',-0.930,-0.620
'0:03.178',-0.915,-0.625
'0:03.181',-0.915,-0.615
'0:03.183',-0.905,-0.600
'0:03.186',-0.905,-0.615
'0:03.189',-0.910,-0.615
'0:03.192',-0.900,-0.625
'0:03.194',-0.935,-0.650
'0:03.197',-0.935,-0.645
'0:03.200',-0.960,-0.650
'0:03.203',-0.950,-0.660
'0:03.206',-0.940,-0.650
'0:03.208',-0.930,-0.635
'0:03.211',-0.925,-0.640
'0:03.214',-0.910,-0.620
'0:03.217',-0.895,-0.605
'0:03.219',-0.895,-0.605
'0:03.222',-0.875,-0.610
'0:03.225',-0.885,-0.615
'0:03.228',-0.895,-0.615
'0:03.231',-0.895,-0.635
'0:03.233',-0.910,-0.650
'0:03.236',-0.915,-0.625
'0:03.239',-0.910,-0.625
'0:03.242',-0.895,-0.595
'0:03.244',-0.905,-0.590
'0:03.247',-0.900,-0.580
'0:03.250',-0.885,-0.570
'0:03.253',-0.880,-0.575
'0:03.256',-0.875,-0.590
'0:03.258',-0.885,-0.585
'0:03.261',-0.890,-0.610
'0:03.264',-0.885,-0.615
'0:03.267',-0.895,-0.610
'0:03.269',-0.910,-0.595
'0:03.272',-0.900,-0.605
'0:03.275',-0.905,-0.590
'0:03.278',-0.895,-0.575
'0:03.281',-0.890,-0.580
'0:03.283',-0.890,-0.565
'0:03.286',-0.880,-0.580
'0:03.289',-0.875,-0.580
'0:03.292',-0.905,-0.600
'0:03.294',-0.900,-0.595
'0:03.297',-0.910,-0.615
'0:03.300',-0.930,-0.610
'0:03.303',-0.925,-0.620
'0:03.306',-0.935,-0.615
'0:03.308',-0.930,-0.605
'0:03.311',-0.935,-0.610
'0:03.314',-0.920,-0.595
'0:03.317',-0.905,-0.585
'0:03.319',-0.900,-0.600
'0:03.322',-0.905,-0.615
'0:03.325',-0.905,-0.635
'0:03.328',-0.935,-0.650
'0:03.331',-0.940,-0.675
'0:03.333',-0.950,-0.675
'0:03.336',-0.955,-0.670
'0:03.339',-0.955,-0.665
'0:03.342',-0.965,-0.660
'0:03.344',-0.945,-0.650
'0:03.347',-0.935,-0.645
'0:03.350',-0.930,-0.640
'0:03.353',-0.935,-0.635
'0:03.356',-0.945,-0.655
'0:03.358',-0.935,-0.660
'0:03.361',-0.945,-0.655
'0:03.364',-0.940,-0.675
'0:03.367',-0.965,-0.685
'0:03.369',-0.970,-0.695
'0:03.372',-0.965,-0.680
'0:03.375',-0.960,-0.675
'0:03.378',-0.955,-0.655
'0:03.381',-0.955,-0.650
'0:03.383',-0.955,-0.655
'0:03.386',-0.945,-0.665
'0:03.389',-0.945,-0.665
'0:03.392',-0.950,-0.680
'0:03.394',-0.970,-0.695
'0:03.397',-0.960,-0.685
'0:03.400',-0.970,-0.700
'0:03.403',-0.970,-0.700
'0:03.406',-0.975,-0.695
'0:03.408',-0.965,-0.690
'0:03.411',-0.965,-0.675
'0:03.414',-0.955,-0.665
'0:03.417',-0.955,-0.645
'0:03.419',-0.955,-0.665
'0:03.422',-0.955,-0.665
'0:03.425',-0.965,-0.670
'0:03.428',-0.965,-0.680
'0:03.431',-0.975,-0.680
'0:03.433',-0.980,-0.675
'0:03.436',-1.000,-0.685
'0:03.439',-0.985,-0.685
'0:03.442',-0.975,-0.680
'0:03.444',-0.975,-0.665
'0:03.447',-0.955,-0.655
'0:03.450',-0.950,-0.645
'0:03.453',-0.950,-0.650
'0:03.456',-0.955,-0.665
'0:03.458',-0.965,-0.665
'0:03.461',-0.970,-0.665
'0:03.464',-0.960,-0.680
'0:03.467',-0.965,-0.685
'0:03.469',-0.980,-0.680
'0:03.472',-0.975,-0.680
'0:03.475',-0.975,-0.660
'0:03.478',-0.975,-0.655
'0:03.481',-0.965,-0.645
'0:03.483',-0.950,-0.640
'0:03.486',-0.960,-0.670
'0:03.489',-0.970,-0.660
'0:03.492',-0.980,-0.660
'0:03.494',-0.945,-0.670
'0:03.497',-0.965,-0.680
'0:03.500',-0.980,-0.675
'0:03.503',-0.990,-0.685
'0:03.506',-0.985,-0.690
'0:03.508',-0.975,-0.670
'0:03.511',-0.980,-0.660
'0:03.514',-0.965,-0.650
'0:03.517',-0.960,-0.650
'0:03.519',-0.950,-0.655
'0:03.522',-0.955,-0.670
'0:03.525',-0.955,-0.680
'0:03.528',-0.955,-0.665
'0:03.531',-0.970,-0.675
'0:03.533',-0.970,-0.680
'0:03.536',-0.965,-0.680
'0:03.539',-0.980,-0.680
'0:03.542',-0.970,-0.670
'0:03.544',-0.960,-0.665
'0:03.547',-0.955,-0.655
'0:03.550',-0.950,-0.650
'0:03.553',-0.940,-0.640
'0:03.556',-0.945,-0.655
'0:03.558',-0.945,-0.670
'0:03.561',-0.970,-0.685
'0:03.564',-0.965,-0.670
'0:03.567',-0.970,-0.675
'0:03.569',-0.975,-0.675
'0:03.572',-0.975,-0.660
'0:03.575',-0.975,-0.675
'0:03.578',-0.960,-0.650
'0:03.581',-0.950,-0.645
'0:03.583',-0.950,-0.635
'0:03.586',-0.950,-0.630
'0:03.589',-0.930,-0.640
'0:03.592',-0.925,-0.655
'0:03.594',-0.935,-0.655
'0:03.597',-0.940,-0.675
'0:03.600',-0.950,-0.665
'0:03.603',-0.960,-0.670
'0:03.606',-0.960,-0.660
'0:03.608',-0.955,-0.650
'0:03.611',-0.970,-0.635
'0:03.614',-0.960,-0.625
'0:03.617',-0.950,-0.620
'0:03.619',-0.955,-0.625
'0:03.622',-0.945,-0.625
'0:03.625',-0.945,-0.635
'0:03.628',-0.940,-0.650
'0:03.631',-0.945,-0.650
'0:03.633',-0.965,-0.655
'0:03.636',-0.960,-0.645
'0:03.639',-0.960,-0.645
'0:03.642',-0.950,-0.625
'0:03.644',-0.950,-0.630
'0:03.647',-0.950,-0.635
'0:03.650',-0.930,-0.620
'0:03.653',-0.930,-0.625
'0:03.656',-0.930,-0.610
'0:03.658',-0.930,-0.630
'0:03.661',-0.940,-0.640
'0:03.664',-0.935,-0.645
'0:03.667',-0.960,-0.670
'0:03.669',-0.955,-0.675
'0:03.672',-0.950,-0.675
'0:03.675',-0.945,-0.645
'0:03.678',-0.945,-0.650
'0:03.681',-0.930,-0.630
'0:03.683',-0.925,-0.610
'0:03.686',-0.910,-0.615
'0:03.689',-0.915,-0.630
'0:03.692',-0.920,-0.615
'0:03.694',-0.920,-0.630
'0:03.697',-0.910,-0.625
'0:03.700',-0.895,-0.645
'0:03.703',-0.905,-0.635
'0:03.706',-0.875,-0.620
'0:03.708',-0.875,-0.615
'0:03.711',-0.845,-0.605
'0:03.714',-0.830,-0.615
'0:03.717',-0.835,-0.590
'0:03.719',-0.815,-0.595
'0:03.722',-0.810,-0.595
'0:03.725',-0.800,-0.570
'0:03.728',-0.805,-0.560
'0:03.731',-0.780,-0.565
'0:03.733',-0.790,-0.530
'0:03.736',-0.780,-0.540
'0:03.739',-0.775,-0.520
'0:03.742',-0.770,-0.490
'0:03.744',-0.770,-0.460
'0:03.747',-0.770,-0.445
'0:03.750',-0.785,-0.425
'0:03.753',-0.810,-0.420
'0:03.756',-0.800,-0.445
'0:03.758',-0.810,-0.445
'0:03.761',-0.815,-0.455
'0:03.764',-0.830,-0.455
'0:03.767',-0.845,-0.480
'0:03.769',-0.845,-0.475
'0:03.772',-0.875,-0.490
'0:03.775',-0.900,-0.480
'0:03.778',-0.905,-0.480
'0:03.781',-0.910,-0.500
'0:03.783',-0.925,-0.515
'0:03.786',-0.920,-0.535
'0:03.789',-0.925,-0.550
'0:03.792',-0.920,-0.585
'0:03.794',-0.915,-0.580
'0:03.797',-0.940,-0.605
'0:03.800',-0.955,-0.610
'0:03.803',-0.975,-0.615
'0:03.806',-0.970,-0.595
'0:03.808',-0.970,-0.585
'0:03.811',-0.955,-0.590
'0:03.814',-0.955,-0.590
'0:03.817',-0.955,-0.570
'0:03.819',-0.960,-0.590
'0:03.822',-0.960,-0.605
'0:03.825',-0.935,-0.605
'0:03.828',-0.950,-0.610
'0:03.831',-0.960,-0.640
'0:03.833',-0.965,-0.625
'0:03.836',-0.965,-0.620
'0:03.839',-0.970,-0.610
'0:03.842',-0.965,-0.620
'0:03.844',-0.945,-0.600
'0:03.847',-0.945,-0.600
'0:03.850',-0.935,-0.585
'0:03.853',-0.925,-0.600
'0:03.856',-0.930,-0.600
'0:03.858',-0.920,-0.605
'0:03.861',-0.925,-0.600
'0:03.864',-0.935,-0.625
'0:03.867',-0.905,-0.640
'0:03.869',-0.860,-0.635
'0:03.872',-0.795,-0.615
'0:03.875',-0.700,-0.545
'0:03.878',-0.575,-0.430
'0:03.881',-0.435,-0.265
'0:03.883',-0.265,-0.045
'0:03.886',-0.150,0.180
'0:03.889',-0.035,0.440
'0:03.892',-0.020,0.690
'0:03.894',-0.060,0.920
'0:03.897',-0.205,1.095
'0:03.900',-0.425,1.165
'0:03.903',-0.700,1.075
'0:03.906',-0.980,0.845
'0:03.908',-1.245,0.530
'0:03.911',-1.475,0.140
'0:03.914',-1.620,-0.240
'0:03.917',-1.660,-0.575
'0:03.919',-1.615,-0.810
'0:03.922',-1.500,-0.860
'0:03.925',-1.375,-0.820
'0:03.928',-1.265,-0.735
'0:03.931',-1.165,-0.665
'0:03.933',-1.105,-0.605
'0:03.936',-1.045,-0.580
'0:03.939',-0.985,-0.580
'0:03.942',-0.915,-0.580
'0:03.944',-0.905,-0.575
'0:03.947',-0.870,-0.555
'0:03.950',-0.835,-0.540
'0:03.953',-0.835,-0.540
'0:03.956',-0.840,-0.545
'0:03.958',-0.855,-0.570
'0:03.961',-0.870,-0.580
'0:03.964',-0.855,-0.590
'0:03.967',-0.845,-0.575
'0:03.969',-0.855,-0.585
'0:03.972',-0.835,-0.575
'0:03.975',-0.825,-0.580
'0:03.978',-0.820,-0.560
'0:03.981',-0.810,-0.540
'0:03.983',-0.805,-0.530
'0:03.986',-0.795,-0.530
'0:03.989',-0.795,-0.525
'0:03.992',-0.785,-0.520
'0:03.994',-0.785,-0.525
'0:03.997',-0.795,-0.525
'0:04.000',-0.805,-0.515
'0:04.003',-0.805,-0.535
'0:04.006',-0.805,-0.525
'0:04.008',-0.820,-0.505
'0:04.011',-0.790,-0.490
'0:04.014',-0.785,-0.485
'0:04.017',-0.760,-0.465
'0:04.019',-0.750,-0.465
'0:04.022',-0.740,-0.475
'0:04.025',-0.745,-0.465
'0:04.028',-0.740,-0.485
'0:04.031',-0.765,-0.480
'0:04.033',-0.765,-0.475
'0:04.036',-0.780,-0.490
'0:04.039',-0.760,-0.470
'0:04.042',-0.760,-0.460
'0:04.044',-0.745,-0.450
'0:04.047',-0.735,-0.430
'0:04.050',-0.725,-0.425
'0:04.053',-0.720,-0.415
'0:04.056',-0.705,-0.415
'0:04.058',-0.705,-0.430
'0:04.061',-0.710,-0.430
'0:04.064',-0.710,-0.430
'0:04.067',-0.705,-0.425
'0:04.069',-0.735,-0.425
'0:04.072',-0.705,-0.415
'0:04.075',-0.695,-0.395
'0:04.078',-0.685,-0.390
'0:04.081',-0.665,-0.370
'0:04.083',-0.650,-0.350
'0:04.086',-0.645,-0.350
'0:04.089',-0.630,-0.345
'0:04.092',-0.635,-0.355
'0:04.094',-0.635,-0.355
'0:04.097',-0.645,-0.350
'0:04.100',-0.640,-0.330
'0:04.103',-0.615,-0.335
'0:04.106',-0.600,-0.310
'0:04.108',-0.590,-0.295
'0:04.111',-0.580,-0.275
'0:04.114',-0.550,-0.250
'0:04.117',-0.535,-0.240
'0:04.119',-0.515,-0.225
'0:04.122',-0.510,-0.240
'0:04.125',-0.495,-0.220
'0:04.128',-0.480,-0.210
'0:04.131',-0.475,-0.200
'0:04.133',-0.465,-0.195
'0:04.136',-0.455,-0.195
'0:04.139',-0.440,-0.170
'0:04.142',-0.435,-0.135
'0:04.144',-0.410,-0.115
'0:04.147',-0.375,-0.080
'0:04.150',-0.355,-0.070
'0:04.153',-0.330,-0.050
'0:04.156',-0.305,-0.035
'0:04.158',-0.300,-0.025
'0:04.161',-0.300,-0.005
'0:04.164',-0.285,-0.005
'0:04.167',-0.295,0.010
'0:04.169',-0.260,0.035
'0:04.172',-0.250,0.045
'0:04.175',-0.250,0.060
'0:04.178',-0.215,0.100
'0:04.181',-0.195,0.115
'0:04.183',-0.200,0.125
'0:04.186',-0.175,0.135
'0:04.189',-0.175,0.145
'0:04.192',-0.150,0.125
'0:04.194',-0.160,0.125
'0:04.197',-0.165,0.120
'0:04.200',-0.170,0.135
'0:04.203',-0.185,0.130
'0:04.206',-0.185,0.145
'0:04.208',-0.195,0.130
'0:04.211',-0.190,0.125
'0:04.214',-0.210,0.125
'0:04.217',-0.215,0.110
'0:04.219',-0.230,0.075
'0:04.222',-0.255,0.065
'0:04.225',-0.300,0.015
'0:04.228',-0.330,-0.020
'0:04.231',-0.375,-0.070
'0:04.233',-0.400,-0.085
'0:04.236',-0.430,-0.125
'0:04.239',-0.445,-0.150
'0:04.242',-0.475,-0.175
'0:04.244',-0.505,-0.200
'0:04.247',-0.520,-0.235
'0:04.250',-0.550,-0.245
'0:04.253',-0.555,-0.285
'0:04.256',-0.580,-0.335
'0:04.258',-0.605,-0.350
'0:04.261',-0.650,-0.390
'0:04.264',-0.685,-0.420
'0:04.267',-0.705,-0.430
'0:04.269',-0.725,-0.460
'0:04.272',-0.740,-0.475
'0:04.275',-0.740,-0.480
'0:04.278',-0.750,-0.490
'0:04.281',-0.760,-0.495
'0:04.283',-0.765,-0.500
'0:04.286',-0.760,-0.515
'0:04.289',-0.775,-0.515
'0:04.292',-0.785,-0.560
'0:04.294',-0.790,-0.565
'0:04.297',-0.800,-0.580
'0:04.300',-0.810,-0.590
'0:04.303',-0.825,-0.595
'0:04.306',-0.830,-0.600
'0:04.308',-0.825,-0.590
'0:04.311',-0.825,-0.580
'0:04.314',-0.815,-0.590
'0:04.317',-0.805,-0.580
'0:04.319',-0.815,-0.600
'0:04.322',-0.805,-0.595
'0:04.325',-0.820,-0.610
'0:04.328',-0.820,-0.600
'0:04.331',-0.830,-0.630
'0:04.333',-0.845,-0.630
'0:04.336',-0.845,-0.635
'0:04.339',-0.845,-0.635
'0:04.342',-0.850,-0.615
'0:04.344',-0.840,-0.610
'0:04.347',-0.815,-0.615
'0:04.350',-0.800,-0.620
'0:04.353',-0.800,-0.605
'0:04.356',-0.795,-0.600
'0:04.358',-0.790,-0.620
'0:04.361',-0.795,-0.625
'0:04.364',-0.800,-0.625
'0:04.367',-0.815,-0.640
'0:04.369',-0.820,-0.620
'0:04.372',-0.855,-0.630
'0:04.375',-0.840,-0.630
'0:04.378',-0.830,-0.590
'0:04.381',-0.800,-0.590
'0:04.383',-0.785,-0.600
'0:04.386',-0.780,-0.590
'0:04.389',-0.785,-0.605
'0:04.392',-0.785,-0.620
'0:04.394',-0.790,-0.620
'0:04.397',-0.805,-0.610
'0:04.400',-0.815,-0.630
'0:04.403',-0.830,-0.635
'0:04.406',-0.840,-0.620
'0:04.408',-0.825,-0.615
'0:04.411',-0.815,-0.610
'0:04.414',-0.815,-0.600
'0:04.417',-0.810,-0.585
'0:04.419',-0.815,-0.600
'0:04.422',-0.820,-0.610
'0:04.425',-0.835,-0.605
'0:04.428',-0.820,-0.645
'0:04.431',-0.840,-0.645
'0:04.433',-0.855,-0.650
'0:04.436',-0.855,-0.660
'0:04.439',-0.865,-0.635
'0:04.442',-0.850,-0.640
'0:04.444',-0.855,-0.630
'0:04.447',-0.845,-0.625
'0:04.450',-0.840,-0.615
'0:04.453',-0.850,-0.605
'0:04.456',-0.850,-0.625
'0:04.458',-0.855,-0.640
'0:04.461',-0.875,-0.640
'0:04.464',-0.890,-0.645
'0:04.467',-0.885,-0.625
'0:04.469',-0.895,-0.650
'0:04.472',-0.895,-0.645
'0:04.475',-0.895,-0.625
'0:04.478',-0.885,-0.630
'0:04.481',-0.905,-0.635
'0:04.483',-0.880,-0.615
'0:04.486',-0.885,-0.615
'0:04.489',-0.870,-0.625
'0:04.492',-0.885,-0.640
'0:04.494',-0.880,-0.650
'0:04.497',-0.890,-0.665
'0:04.500',-0.905,-0.670
'0:04.503',-0.905,-0.680
'0:04.506',-0.910,-0.670
'0:04.508',-0.900,-0.670
'0:04.511',-0.915,-0.660
'0:04.514',-0.905,-0.655
'0:04.517',-0.905,-0.645
'0:04.519',-0.885,-0.665
'0:04.522',-0.895,-0.665
'0:04.525',-0.900,-0.670
'0:04.528',-0.900,-0.690
'0:04.531',-0.905,-0.690
'0:04.533',-0.910,-0.700
'0:04.536',-0.910,-0.710
'0:04.539',-0.910,-0.695
'0:04.542',-0.905,-0.680
'0:04.544',-0.930,-0.685
'0:04.547',-0.905,-0.675
'0:04.550',-0.900,-0.680
'0:04.553',-0.900,-0.680
'0:04.556',-0.905,-0.670
'0:04.558',-0.905,-0.690
'0:04.561',-0.935,-0.695
'0:04.564',-0.925,-0.705
'0:04.567',-0.920,-0.725
'0:04.569',-0.935,-0.730
'0:04.572',-0.940,-0.700
'0:04.575',-0.925,-0.710
'0:04.578',-0.935,-0.685
'0:04.581',-0.910,-0.700
'0:04.583',-0.910,-0.680
'0:04.586',-0.915,-0.670
'0:04.589',-0.920,-0.680
'0:04.592',-0.920,-0.685
'0:04.594',-0.920,-0.685
'0:04.597',-0.930,-0.700
'0:04.600',-0.920,-0.705
'0:04.603',-0.940,-0.705
'0:04.606',-0.945,-0.700
'0:04.608',-0.940,-0.680
'0:04.611',-0.935,-0.690
'0:04.614',-0.945,-0.685
'0:04.617',-0.935,-0.670
'0:04.619',-0.925,-0.665
'0:04.622',-0.935,-0.675
'0:04.625',-0.920,-0.690
'0:04.628',-0.935,-0.680
'0:04.631',-0.935,-0.690
'0:04.633',-0.935,-0.690
'0:04.636',-0.945,-0.715
'0:04.639',-0.940,-0.710
'0:04.642',-0.950,-0.680
'0:04.644',-0.925,-0.680
'0:04.647',-0.935,-0.675
'0:04.650',-0.925,-0.655
'0:04.653',-0.925,-0.685
'0:04.656',-0.925,-0.685
'0:04.658',-0.925,-0.690
'0:04.661',-0.945,-0.715
'0:04.664',-0.945,-0.720
'0:04.667',-0.945,-0.705
'0:04.669',-0.960,-0.715
'0:04.672',-0.955,-0.705
'0:04.675',-0.945,-0.705
'0:04.678',-0.940,-0.685
'0:04.681',-0.920,-0.685
'0:04.683',-0.915,-0.685
'0:04.686',-0.910,-0.690
'0:04.689',-0.910,-0.700
'0:04.692',-0.910,-0.700
'0:04.694',-0.930,-0.715
'0:04.697',-0.925,-0.715
'0:04.700',-0.930,-0.710
'0:04.703',-0.950,-0.700
'0:04.706',-0.955,-0.700
'0:04.708',-0.935,-0.695
'0:04.711',-0.920,-0.705
'0:04.714',-0.940,-0.670
'0:04.717',-0.925,-0.700
'0:04.719',-0.915,-0.695
'0:04.722',-0.910,-0.700
'0:04.725',-0.910,-0.700
'0:04.728',-0.925,-0.715
'0:04.731',-0.930,-0.725
'0:04.733',-0.950,-0.725
'0:04.736',-0.950,-0.730
'0:04.739',-0.960,-0.720
'0:04.742',-0.950,-0.710
'0:04.744',-0.935,-0.680
'0:04.747',-0.940,-0.685
'0:04.750',-0.930,-0.680
'0:04.753',-0.930,-0.685
'0:04.756',-0.920,-0.695
'0:04.758',-0.930,-0.695
'0:04.761',-0.925,-0.695
'0:04.764',-0.925,-0.715
'0:04.767',-0.930,-0.700
'0:04.769',-0.940,-0.695
'0:04.772',-0.940,-0.705
'0:04.775',-0.920,-0.685
'0:04.778',-0.915,-0.690
'0:04.781',-0.925,-0.675
'0:04.783',-0.910,-0.665
'0:04.786',-0.915,-0.675
'0:04.789',-0.910,-0.675
'0:04.792',-0.900,-0.670
'0:04.794',-0.910,-0.680
'0:04.797',-0.930,-0.700
'0:04.800',-0.925,-0.690
'0:04.803',-0.945,-0.695
'0:04.806',-0.950,-0.700
'0:04.808',-0.945,-0.675
'0:04.811',-0.935,-0.660
'0:04.814',-0.915,-0.665
'0:04.817',-0.905,-0.655
'0:04.819',-0.900,-0.660
'0:04.822',-0.895,-0.655
'0:04.825',-0.890,-0.675
'0:04.828',-0.895,-0.670
'0:04.831',-0.900,-0.695
'0:04.833',-0.925,-0.685
'0:04.836',-0.935,-0.680
'0:04.839',-0.925,-0.680
'0:04.842',-0.920,-0.680
'0:04.844',-0.920,-0.665
'0:04.847',-0.920,-0.670
'0:04.850',-0.915,-0.665
'0:04.853',-0.895,-0.680
'0:04.856',-0.895,-0.670
'0:04.858',-0.895,-0.670
'0:04.861',-0.900,-0.685
'0:04.864',-0.900,-0.675
'0:04.867',-0.905,-0.695
'0:04.869',-0.900,-0.695
'0:04.872',-0.885,-0.685
'0:04.875',-0.885,-0.695
'0:04.878',-0.865,-0.660
'0:04.881',-0.850,-0.650
'0:04.883',-0.830,-0.655
'0:04.886',-0.830,-0.660
'0:04.889',-0.810,-0.660
'0:04.892',-0.830,-0.665
'0:04.894',-0.820,-0.670
'0:04.897',-0.820,-0.665
'0:04.900',-0.820,-0.640
'0:04.903',-0.810,-0.655
'0:04.906',-0.795,-0.650
'0:04.908',-0.785,-0.620
'0:04.911',-0.755,-0.595
'0:04.914',-0.730,-0.570
'0:04.917',-0.730,-0.565
'0:04.919',-0.710,-0.560
'0:04.922',-0.700,-0.545
'0:04.925',-0.710,-0.520
'0:04.928',-0.745,-0.520
'0:04.931',-0.750,-0.515
'0:04.933',-0.785,-0.515
'0:04.936',-0.820,-0.530
'0:04.939',-0.815,-0.520
'0:04.942',-0.820,-0.505
'0:04.944',-0.810,-0.505
'0:04.947',-0.810,-0.515
'0:04.950',-0.820,-0.505
'0:04.953',-0.820,-0.505
'0:04.956',-0.835,-0.530
'0:04.958',-0.855,-0.545
'0:04.961',-0.895,-0.570
'0:04.964',-0.910,-0.595
'0:04.967',-0.915,-0.620
'0:04.969',-0.925,-0.640
'0:04.972',-0.925,-0.650
'0:04.975',-0.925,-0.640
'0:04.978',-0.915,-0.635
'0:04.981',-0.930,-0.645
'0:04.983',-0.920,-0.635
'0:04.986',-0.920,-0.640
'0:04.989',-0.935,-0.645
'0:04.992',-0.950,-0.655
'0:04.994',-0.965,-0.675
'0:04.997',-0.965,-0.675
'0:05.000',-0.995,-0.680
'0:05.003',-0.980,-0.690
'0:05.006',-0.985,-0.685
'0:05.008',-0.975,-0.675
'0:05.011',-0.955,-0.660
'0:05.014',-0.970,-0.665
'0:05.017',-0.940,-0.650
'0:05.019',-0.925,-0.655
'0:05.022',-0.940,-0.670
'0:05.025',-0.960,-0.670
'0:05.028',-0.950,-0.695
'0:05.031',-0.950,-0.685
'0:05.033',-0.975,-0.695
'0:05.036',-0.965,-0.685
'0:05.039',-0.960,-0.670
'0:05.042',-0.960,-0.665
'0:05.044',-0.925,-0.675
'0:05.047',-0.900,-0.675
'0:05.050',-0.860,-0.670
'0:05.053',-0.790,-0.650
'0:05.056',-0.705,-0.590
'0:05.058',-0.605,-0.500
'0:05.061',-0.495,-0.350
'0:05.064',-0.355,-0.165
'0:05.067',-0.230,0.050
'0:05.069',-0.145,0.300
'0:05.072',-0.110,0.565
'0:05.075',-0.180,0.775
'0:05.078',-0.310,0.925
'0:05.081',-0.530,0.970
'0:05.083',-0.770,0.875
'0:05.086',-1.010,0.650
'0:05.089',-1.280,0.315
'0:05.092',-1.495,-0.065
'0:05.094',-1.670,-0.455
'0:05.097',-1.710,-0.785
'0:05.100',-1.695,-0.995
'0:05.103',-1.600,-1.050
'0:05.106',-1.490,-0.990
'0:05.108',-1.380,-0.885
'0:05.111',-1.255,-0.765
'0:05.114',-1.155,-0.725
'0:05.117',-1.095,-0.675
'0:05.119',-1.015,-0.660
'0:05.122',-0.960,-0.645
'0:05.125',-0.900,-0.645
'0:05.128',-0.890,-0.640
'0:05.131',-0.875,-0.645
'0:05.133',-0.875,-0.645
'0:05.136',-0.885,-0.640
'0:05.139',-0.900,-0.655
'0:05.142',-0.915,-0.640
'0:05.144',-0.905,-0.635
'0:05.147',-0.880,-0.630
'0:05.150',-0.850,-0.625
'0:05.153',-0.840,-0.625
'0:05.156',-0.835,-0.625
'0:05.158',-0.845,-0.625
'0:05.161',-0.835,-0.625
'0:05.164',-0.825,-0.635
'0:05.167',-0.845,-0.625
'0:05.169',-0.835,-0.620
'0:05.172',-0.850,-0.615
'0:05.175',-0.840,-0.595
'0:05.178',-0.840,-0.575
'0:05.181',-0.825,-0.575
'0:05.183',-0.830,-0.560
'0:05.186',-0.815,-0.580
'0:05.189',-0.805,-0.570
'0:05.192',-0.820,-0.575
'0:05.194',-0.815,-0.600
'0:05.197',-0.820,-0.600
'0:05.200',-0.825,-0.590
'0:05.203',-0.830,-0.595
'0:05.206',-0.820,-0.585
'0:05.208',-0.805,-0.565
'0:05.211',-0.790,-0.535
'0:05.214',-0.785,-0.545
'0:05.217',-0.770,-0.520
'0:05.219',-0.775,-0.510
'0:05.222',-0.765,-0.515
'0:05.225',-0.765,-0.515
'0:05.228',-0.770,-0.535
'0:05.231',-0.765,-0.530
'0:05.233',-0.795,-0.540
'0:05.236',-0.790,-0.530
'0:05.239',-0.795,-0.545
'0:05.242',-0.795,-0.500
'0:05.244',-0.765,-0.490
'0:05.247',-0.750,-0.495
'0:05.250',-0.755,-0.465
'0:05.253',-0.730,-0.490
'0:05.256',-0.735,-0.475
'0:05.258',-0.725,-0.475
'0:05.261',-0.720,-0.465
'0:05.264',-0.725,-0.490
'0:05.267',-0.730,-0.475
'0:05.269',-0.730,-0.480
'0:05.272',-0.725,-0.460
'0:05.275',-0.735,-0.445
'0:05.278',-0.705,-0.420
'0:05.281',-0.685,-0.395
'0:05.283',-0.675,-0.370
'0:05.286',-0.650,-0.370
'0:05.289',-0.635,-0.370
'0:05.292',-0.635,-0.350
'0:05.294',-0.625,-0.360
'0:05.297',-0.625,-0.345
'0:05.300',-0.610,-0.325
'0:05.303',-0.615,-0.320
'0:05.306',-0.600,-0.305
'0:05.308',-0.575,-0.280
'0:05.311',-0.560,-0.250
'0:05.314',-0.545,-0.235
'0:05.317',-0.525,-0.200
'0:05.319',-0.485,-0.195
'0:05.322',-0.475,-0.170
'0:05.325',-0.460,-0.150
'0:05.328',-0.425,-0.150
'0:05.331',-0.425,-0.140
'0:05.333',-0.405,-0.140
'0:05.336',-0.430,-0.105
'0:05.339',-0.395,-0.090
'0:05.342',-0.375,-0.070
'0:05.344',-0.365,-0.035
'0:05.347',-0.345,-0.015
'0:05.350',-0.295,0.005
'0:05.353',-0.265,0.045
'0:05.356',-0.255,0.055
'0:05.358',-0.245,0.050
'0:05.361',-0.250,0.050
'0:05.364',-0.260,0.075
'0:05.367',-0.260,0.075
'0:05.369',-0.270,0.080
'0:05.372',-0.260,0.090
'0:05.375',-0.260,0.110
'0:05.378',-0.255,0.100
'0:05.381',-0.260,0.110
'0:05.383',-0.270,0.110
'0:05.386',-0.260,0.090
'0:05.389',-0.265,0.075
'0:05.392',-0.290,0.055
'0:05.394',-0.320,0.000
'0:05.397',-0.345,-0.030
'0:05.400',-0.390,-0.065
'0:05.403',-0.405,-0.095
'0:05.406',-0.455,-0.120
'0:05.408',-0.490,-0.165
'0:05.411',-0.510,-0.185
'0:05.414',-0.530,-0.220
'0:05.417',-0.570,-0.260
'0:05.419',-0.600,-0.310
'0:05.422',-0.620,-0.330
'0:05.425',-0.650,-0.385
'0:05.428',-0.690,-0.430
'0:05.431',-0.715,-0.465
'0:05.433',-0.755,-0.490
'0:05.436',-0.765,-0.520
'0:05.439',-0.790,-0.545
'0:05.442',-0.810,-0.565
'0:05.444',-0.815,-0.555
'0:05.447',-0.820,-0.560
'0:05.450',-0.810,-0.565
'0:05.453',-0.820,-0.550
'0:05.456',-0.840,-0.575
'0:05.458',-0.855,-0.595
'0:05.461',-0.860,-0.590
'0:05.464',-0.880,-0.610
'0:05.467',-0.885,-0.620
'0:05.469',-0.890,-0.630
'0:05.472',-0.895,-0.630
'0:05.475',-0.895,-0.630
'0:05.478',-0.895,-0.630
'0:05.481',-0.890,-0.630
'0:05.483',-0.880,-0.625
'0:05.486',-0.885,-0.630
'0:05.489',-0.885,-0.650
'0:05.492',-0.870,-0.660
'0:05.494',-0.880,-0.660
'0:05.497',-0.895,-0.670
'0:05.500',-0.900,-0.670
'0:05.503',-0.890,-0.685
'0:05.506',-0.905,-0.665
'0:05.508',-0.915,-0.670
'0:05.511',-0.915,-0.645
'0:05.514',-0.885,-0.630
'0:05.517',-0.895,-0.625
'0:05.519',-0.875,-0.630
'0:05.522',-0.900,-0.645
'0:05.525',-0.915,-0.635
'0:05.528',-0.910,-0.660
'0:05.531',-0.910,-0.685
'0:05.533',-0.905,-0.650
'0:05.536',-0.910,-0.665
'0:05.539',-0.910,-0.640
'0:05.542',-0.925,-0.645
'0:05.544',-0.910,-0.630
'0:05.547',-0.895,-0.630
'0:05.550',-0.895,-0.610
'0:05.553',-0.890,-0.620
'0:05.556',-0.880,-0.620
'0:05.558',-0.895,-0.615
'0:05.561',-0.890,-0.615
'0:05.564',-0.900,-0.615
'0:05.567',-0.905,-0.635
'0:05.569',-0.915,-0.635
'0:05.572',-0.925,-0.635
'0:05.575',-0.925,-0.625
'0:05.578',-0.910,-0.620
'0:05.581',-0.895,-0.590
'0:05.583',-0.895,-0.590
'0:05.586',-0.870,-0.585
'0:05.589',-0.885,-0.590
'0:05.592',-0.885,-0.585
'0:05.594',-0.905,-0.595
'0:05.597',-0.920,-0.620
'0:05.600',-0.930,-0.640
'0:05.603',-0.920,-0.635
'0:05.606',-0.935,-0.615
'0:05.608',-0.945,-0.635
'0:05.611',-0.935,-0.610
'0:05.614',-0.955,-0.615
'0:05.617',-0.930,-0.615
'0:05.619',-0.920,-0.590
'0:05.622',-0.930,-0.610
'0:05.625',-0.945,-0.615
'0:05.628',-0.950,-0.640
'0:05.631',-0.960,-0.650
'0:05.633',-0.980,-0.655
'0:05.636',-0.975,-0.665
'0:05.639',-0.975,-0.645
'0:05.642',-0.990,-0.650
'0:05.644',-0.970,-0.650
'0:05.647',-0.965,-0.635
'0:05.650',-0.960,-0.630
'0:05.653',-0.945,-0.640
'0:05.656',-0.955,-0.635
'0:05.658',-0.950,-0.635
'0:05.661',-0.985,-0.665
'0:05.664',-1.000,-0.680
'0:05.667',-1.015,-0.685
'0:05.669',-1.000,-0.680
'0:05.672',-1.000,-0.675
'0:05.675',-0.990,-0.670
'0:05.678',-0.995,-0.660
'0:05.681',-0.980,-0.640
'0:05.683',-0.975,-0.635
'0:05.686',-0.970,-0.645
'0:05.689',-0.960,-0.645
'0:05.692',-0.965,-0.665
'0:05.694',-0.985,-0.665
'0:05.697',-1.000,-0.690
'0:05.700',-1.005,-0.690
'0:05.703',-1.010,-0.690
'0:05.706',-1.015,-0.680
'0:05.708',-1.015,-0.680
'0:05.711',-1.010,-0.670
'0:05.714',-1.000,-0.650
'0:05.717',-0.990,-0.655
'0:05.719',-0.990,-0.645
'0:05.722',-0.980,-0.660
'0:05.725',-0.975,-0.670
'0:05.728',-0.985,-0.665
'0:05.731',-0.980,-0.680
'0:05.733',-0.995,-0.700
'0:05.736',-1.005,-0.700
'0:05.739',-1.025,-0.695
'0:05.742',-1.025,-0.705
'0:05.744',-1.005,-0.685
'0:05.747',-1.010,-0.680
'0:05.750',-0.990,-0.660
'0:05.753',-0.990,-0.655
'0:05.756',-0.980,-0.665
'0:05.758',-1.000,-0.665
'0:05.761',-1.005,-0.680
'0:05.764',-1.015,-0.695
'0:05.767',-1.030,-0.710
'0:05.769',-1.025,-0.700
'0:05.772',-1.020,-0.690
'0:05.775',-1.025,-0.700
'0:05.778',-1.010,-0.680
'0:05.781',-1.010,-0.680
'0:05.783',-0.995,-0.665
'0:05.786',-1.000,-0.660
'0:05.789',-1.020,-0.665
'0:05.792',-1.020,-0.690
'0:05.794',-1.035,-0.690
'0:05.797',-1.025,-0.695
'0:05.800',-1.030,-0.705
'0:05.803',-1.055,-0.720
'0:05.806',-1.055,-0.705
'0:05.808',-1.055,-0.705
'0:05.811',-1.035,-0.680
'0:05.814',-1.010,-0.675
'0:05.817',-1.005,-0.655
'0:05.819',-1.000,-0.640
'0:05.822',-1.010,-0.650
'0:05.825',-1.000,-0.670
'0:05.828',-1.005,-0.685
'0:05.831',-1.030,-0.675
'0:05.833',-1.025,-0.685
'0:05.836',-1.035,-0.685
'0:05.839',-1.035,-0.690
'0:05.842',-1.030,-0.675
'0:05.844',-1.025,-0.675
'0:05.847',-1.025,-0.655
'0:05.850',-1.015,-0.665
'0:05.853',-1.020,-0.675
'0:05.856',-1.020,-0.680
'0:05.858',-1.010,-0.690
'0:05.861',-1.015,-0.695
'0:05.864',-1.035,-0.695
'0:05.867',-1.045,-0.720
'0:05.869',-1.040,-0.710
'0:05.872',-1.030,-0.705
'0:05.875',-1.040,-0.700
'0:05.878',-1.040,-0.695
'0:05.881',-1.030,-0.675
'0:05.883',-1.020,-0.670
'0:05.886',-1.010,-0.670
'0:05.889',-0.995,-0.665
'0:05.892',-1.000,-0.690
'0:05.894',-1.005,-0.695
'0:05.897',-1.035,-0.715
'0:05.900',-1.060,-0.710
'0:05.903',-1.045,-0.710
'0:05.906',-1.045,-0.700
'0:05.908',-1.040,-0.695
'0:05.911',-1.025,-0.690
'0:05.914',-1.030,-0.680
'0:05.917',-1.010,-0.665
'0:05.919',-1.000,-0.680
'0:05.922',-1.005,-0.670
'0:05.925',-1.015,-0.675
'0:05.928',-1.005,-0.660
'0:05.931',-1.020,-0.680
'0:05.933',-1.025,-0.695
'0:05.936',-1.015,-0.685
'0:05.939',-1.030,-0.680
'0:05.942',-1.020,-0.675
'0:05.944',-1.025,-0.660
'0:05.947',-1.020,-0.650
'0:05.950',-1.025,-0.655
'0:05.953',-1.000,-0.650
'0:05.956',-1.010,-0.630
'0:05.958',-1.010,-0.640
'0:05.961',-0.995,-0.675
'0:05.964',-1.005,-0.660
'0:05.967',-1.010,-0.650
'0:05.969',-1.010,-0.655
'0:05.972',-1.025,-0.670
'0:05.975',-1.030,-0.650
'0:05.978',-1.015,-0.650
'0:05.981',-1.020,-0.630
'0:05.983',-1.005,-0.630
'0:05.986',-0.990,-0.635
'0:05.989',-0.995,-0.630
'0:05.992',-0.985,-0.640
'0:05.994',-1.010,-0.635
'0:05.997',-1.005,-0.660
'0:06.000',-1.005,-0.675
'0:06.003',-1.020,-0.665
'0:06.006',-1.030,-0.670
'0:06.008',-1.015,-0.650
'0:06.011',-1.005,-0.645
'0:06.014',-0.990,-0.625
'0:06.017',-0.970,-0.620
'0:06.019',-0.970,-0.610
'0:06.022',-0.965,-0.630
'0:06.025',-0.970,-0.620
'0:06.028',-0.940,-0.650
'0:06.031',-0.925,-0.645
'0:06.033',-0.925,-0.675
'0:06.036',-0.930,-0.680
'0:06.039',-0.940,-0.680
'0:06.042',-0.940,-0.665
'0:06.044',-0.935,-0.645
'0:06.047',-0.915,-0.625
'0:06.050',-0.895,-0.585
'0:06.053',-0.870,-0.585
'0:06.056',-0.860,-0.590
'0:06.058',-0.830,-0.565
'0:06.061',-0.840,-0.565
'0:06.064',-0.840,-0.560
'0:06.067',-0.845,-0.555
'0:06.069',-0.840,-0.540
'0:06.072',-0.855,-0.510
'0:06.075',-0.865,-0.500
'0:06.078',-0.870,-0.490
'0:06.081',-0.865,-0.470
'0:06.083',-0.860,-0.475
'0:06.086',-0.865,-0.480
'0:06.089',-0.875,-0.490
'0:06.092',-0.875,-0.515
'0:06.094',-0.895,-0.490
'0:06.097',-0.930,-0.530
'0:06.100',-0.960,-0.530
'0:06.103',-1.005,-0.550
'0:06.106',-1.010,-0.550
'0:06.108',-1.015,-0.575
'0:06.111',-1.040,-0.560
'0:06.114',-1.025,-0.565
'0:06.117',-1.010,-0.590
'0:06.119',-1.015,-0.605
'0:06.122',-1.005,-0.610
'0:06.125',-1.010,-0.630
'0:06.128',-1.015,-0.645
'0:06.131',-1.030,-0.645
'0:06.133',-1.040,-0.660
'0:06.136',-1.045,-0.655
'0:06.139',-1.060,-0.655
'0:06.142',-1.060,-0.660
'0:06.144',-1.065,-0.655
'0:06.147',-1.065,-0.650
'0:06.150',-1.045,-0.630
'0:06.153',-1.030,-0.635
'0:06.156',-1.030,-0.620
'0:06.158',-1.015,-0.635
'0:06.161',-1.020,-0.640
'0:06.164',-1.030,-0.660
'0:06.167',-1.030,-0.665
'0:06.169',-1.030,-0.670
'0:06.172',-1.040,-0.665
'0:06.175',-1.040,-0.660
'0:06.178',-1.035,-0.640
'0:06.181',-1.025,-0.615
'0:06.183',-1.015,-0.620
'0:06.186',-1.000,-0.600
'0:06.189',-0.985,-0.630
'0:06.192',-0.995,-0.630
'0:06.194',-0.975,-0.635
'0:06.197',-0.960,-0.650
'0:06.200',-0.885,-0.615
'0:06.203',-0.800,-0.565
'0:06.206',-0.710,-0.465
'0:06.208',-0.600,-0.300
'0:06.211',-0.445,-0.075
'0:06.214',-0.300,0.170
'0:06.217',-0.180,0.430
'0:06.219',-0.130,0.680
'0:06.222',-0.195,0.885
'0:06.225',-0.360,1.020
'0:06.228',-0.600,1.030
'0:06.231',-0.885,0.935
'0:06.233',-1.185,0.695
'0:06.236',-1.455,0.355
'0:06.239',-1.700,-0.060
'0:06.242',-1.860,-0.500
'0:06.244',-1.920,-0.885
'0:06.247',-1.875,-1.145
'0:06.250',-1.760,-1.210
'0:06.253',-1.620,-1.125
'0:06.256',-1.505,-0.995
'0:06.258',-1.415,-0.885
'0:06.261',-1.340,-0.805
'0:06.264',-1.290,-0.785
'0:06.267',-1.230,-0.760
'0:06.269',-1.165,-0.735
'0:06.272',-1.095,-0.700
'0:06.275',-1.040,-0.655
'0:06.278',-0.990,-0.630
'0:06.281',-0.960,-0.620
'0:06.283',-0.945,-0.600
'0:06.286',-0.935,-0.605
'0:06.289',-0.940,-0.605
'0:06.292',-0.940,-0.625
'0:06.294',-0.945,-0.625
'0:06.297',-0.935,-0.625
'0:06.300',-0.945,-0.635
'0:06.303',-0.930,-0.625
'0:06.306',-0.935,-0.610
'0:06.308',-0.930,-0.620
'0:06.311',-0.910,-0.585
'0:06.314',-0.890,-0.585
'0:06.317',-0.885,-0.565
'0:06.319',-0.870,-0.565
'0:06.322',-0.885,-0.575
'0:06.325',-0.875,-0.570
'0:06.328',-0.875,-0.575
'0:06.331',-0.880,-0.585
'0:06.333',-0.885,-0.580
'0:06.336',-0.880,-0.575
'0:06.339',-0.890,-0.570
'0:06.342',-0.875,-0.560
'0:06.344',-0.870,-0.550
'0:06.347',-0.855,-0.550
'0:06.350',-0.845,-0.530
'0:06.353',-0.820,-0.545
'0:06.356',-0.825,-0.525
'0:06.358',-0.815,-0.515
'0:06.361',-0.830,-0.520
'0:06.364',-0.835,-0.540
'0:06.367',-0.865,-0.535
'0:06.369',-0.860,-0.545
'0:06.372',-0.845,-0.510
'0:06.375',-0.845,-0.515
'0:06.378',-0.830,-0.510
'0:06.381',-0.815,-0.485
'0:06.383',-0.795,-0.470
'0:06.386',-0.805,-0.465
'0:06.389',-0.800,-0.460
'0:06.392',-0.790,-0.470
'0:06.394',-0.775,-0.465
'0:06.397',-0.780,-0.470
'0:06.400',-0.775,-0.465
'0:06.403',-0.775,-0.460
'0:06.406',-0.785,-0.445
'0:06.408',-0.770,-0.440
'0:06.411',-0.745,-0.420
'0:06.414',-0.740,-0.400
'0:06.417',-0.715,-0.390
'0:06.419',-0.705,-0.395
'0:06.422',-0.700,-0.390
'0:06.425',-0.700,-0.365
'0:06.428',-0.685,-0.375
'0:06.431',-0.695,-0.355
'0:06.433',-0.690,-0.360
'0:06.436',-0.665,-0.355
'0:06.439',-0.650,-0.335
'0:06.442',-0.645,-0.310
'0:06.444',-0.620,-0.275
'0:06.447',-0.605,-0.260
'0:06.450',-0.585,-0.245
'0:06.453',-0.555,-0.230
'0:06.456',-0.540,-0.205
'0:06.458',-0.520,-0.205
'0:06.461',-0.495,-0.195
'0:06.464',-0.485,-0.190
'0:06.467',-0.495,-0.190
'0:06.469',-0.475,-0.180
'0:06.472',-0.480,-0.150
'0:06.475',-0.455,-0.130
'0:06.478',-0.420,-0.090
'0:06.481',-0.400,-0.090
'0:06.483',-0.390,-0.030
'0:06.486',-0.365,-0.035
'0:06.489',-0.375,-0.015
'0:06.492',-0.355,-0.025
'0:06.494',-0.365,0.000
'0:06.497',-0.335,0.005
'0:06.500',-0.325,-0.005
'0:06.503',-0.320,0.015
'0:06.506',-0.305,0.030
'0:06.508',-0.310,0.040
'0:06.511',-0.295,0.050
'0:06.514',-0.295,0.070
'0:06.517',-0.295,0.080
'0:06.519',-0.285,0.095
'0:06.522',-0.280,0.090
'0:06.525',-0.300,0.075
'0:06.528',-0.305,0.070
'0:06.531',-0.320,0.060
'0:06.533',-0.305,0.035
'0:06.536',-0.335,0.030
'0:06.539',-0.340,0.025
'0:06.542',-0.350,0.010
'0:06.544',-0.365,0.005
'0:06.547',-0.370,-0.020
'0:06.550',-0.380,-0.055
'0:06.553',-0.390,-0.085
'0:06.556',-0.415,-0.125
'0:06.558',-0.460,-0.150
'0:06.561',-0.500,-0.195
'0:06.564',-0.550,-0.230
'0:06.567',-0.565,-0.285
'0:06.569',-0.595,-0.320
'0:06.572',-0.620,-0.350
'0:06.575',-0.655,-0.375
'0:06.578',-0.680,-0.385
'0:06.581',-0.685,-0.410
'0:06.583',-0.700,-0.445
'0:06.586',-0.725,-0.480
'0:06.589',-0.755,-0.490
'0:06.592',-0.775,-0.510
'0:06.594',-0.800,-0.565
'0:06.597',-0.825,-0.580
'0:06.600',-0.835,-0.620
'0:06.603',-0.845,-0.620
'0:06.606',-0.865,-0.645
'0:06.608',-0.860,-0.640
'0:06.611',-0.865,-0.630
'0:06.614',-0.875,-0.640
'0:06.617',-0.880,-0.645
'0:06.619',-0.865,-0.655
'0:06.622',-0.880,-0.665
'0:06.625',-0.900,-0.670
'0:06.628',-0.905,-0.700
'0:06.631',-0.915,-0.700
'0:06.633',-0.910,-0.725
'0:06.636',-0.920,-0.720
'0:06.639',-0.920,-0.725
'0:06.642',-0.915,-0.705
'0:06.644',-0.900,-0.710
'0:06.647',-0.900,-0.705
'0:06.650',-0.895,-0.695
'0:06.653',-0.890,-0.695
'0:06.656',-0.895,-0.695
'0:06.658',-0.895,-0.695
'0:06.661',-0.900,-0.720
'0:06.664',-0.900,-0.715
'0:06.667',-0.910,-0.740
'0:06.669',-0.915,-0.745
'0:06.672',-0.925,-0.745
'0:06.675',-0.910,-0.735
'0:06.678',-0.915,-0.715
'0:06.681',-0.900,-0.715
'0:06.683',-0.885,-0.705
'0:06.686',-0.865,-0.685
'0:06.689',-0.875,-0.695
'0:06.692',-0.875,-0.690
'0:06.694',-0.885,-0.705
'0:06.697',-0.900,-0.710
'0:06.700',-0.900,-0.725
'0:06.703',-0.900,-0.725
'0:06.706',-0.910,-0.700
'0:06.708',-0.925,-0.710
'0:06.711',-0.890,-0.695
'0:06.714',-0.895,-0.685
'0:06.717',-0.875,-0.685
'0:06.719',-0.885,-0.670
'0:06.722',-0.890,-0.680
'0:06.725',-0.895,-0.675
'0:06.728',-0.890,-0.695
'0:06.731',-0.900,-0.695
'0:06.733',-0.910,-0.705
'0:06.736',-0.915,-0.700
'0:06.739',-0.930,-0.705
'0:06.742',-0.905,-0.680
'0:06.744',-0.915,-0.685
'0:06.747',-0.900,-0.665
'0:06.750',-0.895,-0.660
'0:06.753',-0.890,-0.665
'0:06.756',-0.890,-0.670
'0:06.758',-0.895,-0.675
'0:06.761',-0.900,-0.680
'0:06.764',-0.930,-0.690
'0:06.767',-0.935,-0.700
'0:06.769',-0.945,-0.705
'0:06.772',-0.950,-0.700
'0:06.775',-0.965,-0.705
'0:06.778',-0.960,-0.700
'0:06.781',-0.950,-0.680
'0:06.783',-0.935,-0.670
'0:06.786',-0.905,-0.675
'0:06.789',-0.920,-0.675
'0:06.792',-0.920,-0.695
'0:06.794',-0.930,-0.710
'0:06.797',-0.950,-0.730
'0:06.800',-0.950,-0.730
'0:06.803',-0.965,-0.725
'0:06.806',-0.980,-0.735
'0:06.808',-0.965,-0.740
'0:06.811',-0.960,-0.720
'0:06.814',-0.965,-0.730
'0:06.817',-0.940,-0.720
'0:06.819',-0.940,-0.725
'0:06.822',-0.945,-0.730
'0:06.825',-0.940,-0.740
'0:06.828',-0.950,-0.750
'0:06.831',-0.970,-0.760
'0:06.833',-0.970,-0.760
'0:06.836',-0.980,-0.770
'0:06.839',-0.990,-0.770
'0:06.842',-0.980,-0.750
'0:06.844',-0.970,-0.740
'0:06.847',-0.970,-0.750
'0:06.850',-0.960,-0.730
'0:06.853',-0.950,-0.740
'0:06.856',-0.955,-0.735
'0:06.858',-0.955,-0.735
'0:06.861',-0.975,-0.755
'0:06.864',-0.990,-0.780
'0:06.867',-0.990,-0.775
'0:06.869',-0.995,-0.775
'0:06.872',-0.995,-0.770
'0:06.875',-0.990,-0.785
'0:06.878',-0.990,-0.780
'0:06.881',-0.980,-0.755
'0:06.883',-0.980,-0.760
'0:06.886',-0.980,-0.765
'0:06.889',-0.970,-0.765
'0:06.892',-0.965,-0.760
'0:06.894',-0.970,-0.770
'0:06.897',-0.980,-0.790
'0:06.900',-0.990,-0.795
'0:06.903',-0.980,-0.800
'0:06.906',-0.985,-0.785
'0:06.908',-1.000,-0.790
'0:06.911',-1.010,-0.775
'0:06.914',-0.985,-0.745
'0:06.917',-0.975,-0.765
'0:06.919',-0.970,-0.745
'0:06.922',-0.975,-0.755
'0:06.925',-0.980,-0.755
'0:06.928',-0.995,-0.770
'0:06.931',-0.990,-0.780
'0:06.933',-1.005,-0.775
'0:06.936',-0.990,-0.765
'0:06.939',-1.005,-0.750
'0:06.942',-1.010,-0.755
'0:06.944',-0.980,-0.740
'0:06.947',-0.980,-0.740
'0:06.950',-0.980,-0.700
'0:06.953',-0.965,-0.720
'0:06.956',-0.965,-0.700
'0:06.958',-0.970,-0.715
'0:06.961',-0.980,-0.735
'0:06.964',-0.980,-0.755
'0:06.967',-0.985,-0.750
'0:06.969',-0.980,-0.750
'0:06.972',-1.000,-0.740
'0:06.975',-0.990,-0.730
'0:06.978',-0.990,-0.745
'0:06.981',-0.985,-0.730
'0:06.983',-0.960,-0.705
'0:06.986',-0.945,-0.720
'0:06.989',-0.955,-0.710
'0:06.992',-0.975,-0.725
'0:06.994',-0.980,-0.740
'0:06.997',-0.975,-0.735
'0:07.000',-0.985,-0.750
'0:07.003',-0.990,-0.755
'0:07.006',-1.005,-0.740
'0:07.008',-1.010,-0.735
'0:07.011',-1.005,-0.720
'0:07.014',-0.990,-0.715
'0:07.017',-0.980,-0.715
'0:07.019',-0.970,-0.715
'0:07.022',-0.975,-0.710
'0:07.025',-0.995,-0.720
'0:07.028',-0.980,-0.735
'0:07.031',-0.980,-0.725
'0:07.033',-0.990,-0.750
'0:07.036',-0.995,-0.745
'0:07.039',-0.995,-0.730
'0:07.042',-0.990,-0.735
'0:07.044',-0.985,-0.725
'0:07.047',-0.980,-0.715
'0:07.050',-0.970,-0.710
'0:07.053',-0.965,-0.700
'0:07.056',-0.970,-0.710
'0:07.058',-0.985,-0.720
'0:07.061',-0.980,-0.720
'0:07.064',-0.990,-0.725
'0:07.067',-1.000,-0.740
'0:07.069',-1.000,-0.750
'0:07.072',-0.995,-0.725
'0:07.075',-0.995,-0.740
'0:07.078',-0.985,-0.730
'0:07.081',-0.965,-0.715
'0:07.083',-0.960,-0.715
'0:07.086',-0.945,-0.715
'0:07.089',-0.945,-0.720
'0:07.092',-0.950,-0.720
'0:07.094',-0.960,-0.720
'0:07.097',-0.965,-0.745
'0:07.100',-0.980,-0.760
'0:07.103',-0.975,-0.745
'0:07.106',-0.990,-0.740
'0:07.108',-0.980,-0.765
'0:07.111',-0.980,-0.740
'0:07.114',-0.985,-0.730
'0:07.117',-0.970,-0.725
'0:07.119',-0.980,-0.720
'0:07.122',-0.960,-0.725
'0:07.125',-0.960,-0.705
'0:07.128',-0.950,-0.725
'0:07.131',-0.975,-0.730
'0:07.133',-0.975,-0.745
'0:07.136',-0.980,-0.730
'0:07.139',-0.975,-0.720
'0:07.142',-0.985,-0.715
'0:07.144',-0.975,-0.705
'0:07.147',-0.960,-0.690
'0:07.150',-0.955,-0.690
'0:07.153',-0.955,-0.695
'0:07.156',-0.950,-0.690
'0:07.158',-0.955,-0.705
'0:07.161',-0.960,-0.720
'0:07.164',-0.965,-0.720
'0:07.167',-0.960,-0.730
'0:07.169',-0.970,-0.715
'0:07.172',-1.000,-0.715
'0:07.175',-0.985,-0.700
'0:07.178',-0.960,-0.695
'0:07.181',-0.955,-0.680
'0:07.183',-0.945,-0.680
'0:07.186',-0.940,-0.680
'0:07.189',-0.945,-0.690
'0:07.192',-0.930,-0.680
'0:07.194',-0.945,-0.705
'0:07.197',-0.965,-0.700
'0:07.200',-0.960,-0.705
'0:07.203',-0.965,-0.705
'0:07.206',-0.975,-0.700
'0:07.208',-0.955,-0.680
'0:07.211',-0.950,-0.670
'0:07.214',-0.935,-0.660
'0:07.217',-0.920,-0.650
'0:07.219',-0.900,-0.655
'0:07.222',-0.885,-0.650
'0:07.225',-0.870,-0.670
'0:07.228',-0.860,-0.675
'0:07.231',-0.860,-0.695
'0:07.233',-0.850,-0.715
'0:07.236',-0.860,-0.715
'0:07.239',-0.865,-0.695
'0:07.242',-0.870,-0.670
'0:07.244',-0.850,-0.640
'0:07.247',-0.845,-0.625
'0:07.250',-0.800,-0.595
'0:07.253',-0.780,-0.585
'0:07.256',-0.770,-0.585
'0:07.258',-0.780,-0.580
'0:07.261',-0.790,-0.580
'0:07.264',-0.780,-0.570
'0:07.267',-0.795,-0.560
'0:07.269',-0.795,-0.540
'0:07.272',-0.825,-0.535
'0:07.275',-0.840,-0.530
'0:07.278',-0.830,-0.515
'0:07.281',-0.825,-0.515
'0:07.283',-0.840,-0.505
'0:07.286',-0.835,-0.500
'0:07.289',-0.850,-0.525
'0:07.292',-0.855,-0.520
'0:07.294',-0.865,-0.540
'0:07.297',-0.890,-0.560
'0:07.300',-0.915,-0.585
'0:07.303',-0.935,-0.600
'0:07.306',-0.965,-0.620
'0:07.308',-0.965,-0.610
'0:07.311',-0.970,-0.620
'0:07.314',-0.970,-0.640
'0:07.317',-0.970,-0.630
'0:07.319',-0.950,-0.640
'0:07.322',-0.960,-0.665
'0:07.325',-0.945,-0.680
'0:07.328',-0.955,-0.675
'0:07.331',-0.965,-0.675
'0:07.333',-0.990,-0.700
'0:07.336',-1.010,-0.695
'0:07.339',-1.005,-0.695
'0:07.342',-1.010,-0.695
'0:07.344',-1.010,-0.680
'0:07.347',-1.010,-0.680
'0:07.350',-0.990,-0.665
'0:07.353',-0.980,-0.680
'0:07.356',-0.990,-0.680
'0:07.358',-0.965,-0.685
'0:07.361',-0.965,-0.700
'0:07.364',-0.975,-0.700
'0:07.367',-0.980,-0.705
'0:07.369',-0.985,-0.705
'0:07.372',-0.975,-0.710
'0:07.375',-0.965,-0.675
'0:07.378',-0.950,-0.670
'0:07.381',-0.955,-0.665
'0:07.383',-0.950,-0.645
'0:07.386',-0.930,-0.645
'0:07.389',-0.890,-0.670
'0:07.392',-0.870,-0.670
'0:07.394',-0.805,-0.640
'0:07.397',-0.725,-0.595
'0:07.400',-0.595,-0.470
'0:07.403',-0.465,-0.275
'0:07.406',-0.315,-0.025
'0:07.408',-0.165,0.265
'0:07.411',-0.090,0.560
'0:07.414',-0.090,0.825
'0:07.417',-0.205,1.020
'0:07.419',-0.400,1.135
'0:07.422',-0.645,1.050
'0:07.425',-0.925,0.835
'0:07.428',-1.200,0.500
'0:07.431',-1.455,0.130
'0:07.433',-1.645,-0.280
'0:07.436',-1.715,-0.630
'0:07.439',-1.695,-0.860
'0:07.442',-1.600,-0.950
'0:07.444',-1.475,-0.885
'0:07.447',-1.345,-0.795
'0:07.450',-1.240,-0.690
'0:07.453',-1.150,-0.640
'0:07.456',-1.075,-0.630
'0:07.458',-1.015,-0.605
'0:07.461',-0.955,-0.620
'0:07.464',-0.925,-0.625
'0:07.467',-0.910,-0.625
'0:07.469',-0.900,-0.635
'0:07.472',-0.920,-0.650
'0:07.475',-0.915,-0.620
'0:07.478',-0.910,-0.625
'0:07.481',-0.910,-0.615
'0:07.483',-0.905,-0.620
'0:07.486',-0.885,-0.615
'0:07.489',-0.875,-0.615
'0:07.492',-0.865,-0.625
'0:07.494',-0.870,-0.605
'0:07.497',-0.865,-0.635
'0:07.500',-0.880,-0.630
'0:07.503',-0.885,-0.635
'0:07.506',-0.880,-0.615
'0:07.508',-0.875,-0.610
'0:07.511',-0.865,-0.605
'0:07.514',-0.855,-0.595
'0:07.517',-0.850,-0.575
'0:07.519',-0.825,-0.545
'0:07.522',-0.835,-0.570
'0:07.525',-0.845,-0.580
'0:07.528',-0.850,-0.575
'0:07.531',-0.835,-0.575
'0:07.533',-0.840,-0.585
'0:07.536',-0.840,-0.580
'0:07.539',-0.840,-0.590
'0:07.542',-0.855,-0.565
'0:07.544',-0.830,-0.545
'0:07.547',-0.820,-0.525
'0:07.550',-0.810,-0.520
'0:07.553',-0.805,-0.525
'0:07.556',-0.810,-0.510
'0:07.558',-0.795,-0.515
'0:07.561',-0.805,-0.525
'0:07.564',-0.800,-0.545
'0:07.567',-0.790,-0.530
'0:07.569',-0.800,-0.540
'0:07.572',-0.790,-0.525
'0:07.575',-0.800,-0.505
'0:07.578',-0.775,-0.480
'0:07.581',-0.770,-0.470
'0:07.583',-0.760,-0.465
'0:07.586',-0.740,-0.465
'0:07.589',-0.740,-0.455
'0:07.592',-0.745,-0.455
'0:07.594',-0.755,-0.460
'0:07.597',-0.740,-0.460
'0:07.600',-0.735,-0.455
'0:07.603',-0.735,-0.455
'0:07.606',-0.735,-0.440
'0:07.608',-0.725,-0.420
'0:07.611',-0.690,-0.395
'0:07.614',-0.685,-0.400
'0:07.617',-0.675,-0.370
'0:07.619',-0.660,-0.360
'0:07.622',-0.635,-0.340
'0:07.625',-0.620,-0.350
'0:07.628',-0.615,-0.335
'0:07.631',-0.615,-0.325
'0:07.633',-0.610,-0.330
'0:07.636',-0.595,-0.325
'0:07.639',-0.585,-0.285
'0:07.642',-0.580,-0.275
'0:07.644',-0.545,-0.255
'0:07.647',-0.510,-0.225
'0:07.650',-0.485,-0.215
'0:07.653',-0.470,-0.195
'0:07.656',-0.465,-0.175
'0:07.658',-0.460,-0.155
'0:07.661',-0.445,-0.145
'0:07.664',-0.415,-0.140
'0:07.667',-0.405,-0.120
'0:07.669',-0.400,-0.125
'0:07.672',-0.385,-0.100
'0:07.675',-0.360,-0.075
'0:07.678',-0.350,-0.045
'0:07.681',-0.320,-0.020
'0:07.683',-0.305,0.010
'0:07.686',-0.270,0.025
'0:07.689',-0.255,0.035
'0:07.692',-0.240,0.040
'0:07.694',-0.235,0.055
'0:07.697',-0.235,0.055
'0:07.700',-0.245,0.040
'0:07.703',-0.230,0.035
'0:07.706',-0.230,0.060
'0:07.708',-0.230,0.075
'0:07.711',-0.220,0.080
'0:07.714',-0.205,0.125
'0:07.717',-0.210,0.150
'0:07.719',-0.200,0.140
'0:07.722',-0.215,0.110
'0:07.725',-0.220,0.105
'0:07.728',-0.235,0.075
'0:07.731',-0.255,0.065
'0:07.733',-0.305,0.025
'0:07.736',-0.320,0.000
'0:07.739',-0.360,-0.030
'0:07.742',-0.390,-0.045
'0:07.744',-0.405,-0.080
'0:07.747',-0.445,-0.110
'0:07.750',-0.455,-0.120
'0:07.753',-0.470,-0.165
'0:07.756',-0.500,-0.200
'0:07.758',-0.550,-0.230
'0:07.761',-0.575,-0.290
'0:07.764',-0.620,-0.330
'0:07.767',-0.675,-0.365
'0:07.769',-0.675,-0.395
'0:07.772',-0.710,-0.430
'0:07.775',-0.750,-0.445
'0:07.778',-0.760,-0.455
'0:07.781',-0.765,-0.470
'0:07.783',-0.780,-0.470
'0:07.786',-0.785,-0.495
'0:07.789',-0.800,-0.515
'0:07.792',-0.815,-0.540
'0:07.794',-0.840,-0.560
'0:07.797',-0.835,-0.580
'0:07.800',-0.865,-0.595
'0:07.803',-0.890,-0.605
'0:07.806',-0.905,-0.605
'0:07.808',-0.895,-0.600
'0:07.811',-0.885,-0.605
'0:07.814',-0.885,-0.600
'0:07.817',-0.885,-0.590
'0:07.819',-0.870,-0.605
'0:07.822',-0.885,-0.605
'0:07.825',-0.885,-0.615
'0:07.828',-0.885,-0.625
'0:07.831',-0.900,-0.625
'0:07.833',-0.910,-0.655
'0:07.836',-0.925,-0.655
'0:07.839',-0.900,-0.650
'0:07.842',-0.905,-0.650
'0:07.844',-0.900,-0.630
'0:07.847',-0.895,-0.640
'0:07.850',-0.890,-0.630
'0:07.853',-0.875,-0.615
'0:07.856',-0.875,-0.640
'0:07.858',-0.895,-0.635
'0:07.861',-0.895,-0.635
'0:07.864',-0.900,-0.635
'0:07.867',-0.910,-0.660
'0:07.869',-0.905,-0.665
'0:07.872',-0.920,-0.645
'0:07.875',-0.915,-0.655
'0:07.878',-0.900,-0.645
'0:07.881',-0.895,-0.625
'0:07.883',-0.885,-0.620
'0:07.886',-0.865,-0.615
'0:07.889',-0.875,-0.620
'0:07.892',-0.865,-0.625
'0:07.894',-0.860,-0.640
'0:07.897',-0.880,-0.640
'0:07.900',-0.875,-0.650
'0:07.903',-0.895,-0.645
'0:07.906',-0.895,-0.635
'0:07.908',-0.885,-0.650
'0:07.911',-0.890,-0.615
'0:07.914',-0.870,-0.605
'0:07.917',-0.870,-0.590
'0:07.919',-0.850,-0.600
'0:07.922',-0.860,-0.595
'0:07.925',-0.875,-0.600
'0:07.928',-0.875,-0.600
'0:07.931',-0.875,-0.625
'0:07.933',-0.905,-0.620
'0:07.936',-0.890,-0.635
'0:07.939',-0.910,-0.630
'0:07.942',-0.910,-0.630
'0:07.944',-0.910,-0.620
'0:07.947',-0.890,-0.635
'0:07.950',-0.890,-0.605
'0:07.953',-0.890,-0.600
'0:07.956',-0.885,-0.615
'0:07.958',-0.885,-0.605
'0:07.961',-0.895,-0.630
'0:07.964',-0.900,-0.635
'0:07.967',-0.930,-0.655
'0:07.969',-0.945,-0.650
'0:07.972',-0.950,-0.650
'0:07.975',-0.950,-0.640
'0:07.978',-0.945,-0.635
'0:07.981',-0.940,-0.630
'0:07.983',-0.925,-0.620
'0:07.986',-0.910,-0.610
'0:07.989',-0.905,-0.630
'0:07.992',-0.935,-0.635
'0:07.994',-0.935,-0.655
'0:07.997',-0.945,-0.650
'0:08.000',-0.965,-0.675
'0:08.003',-0.965,-0.685
'0:08.006',-0.965,-0.670
'0:08.008',-0.965,-0.650
'0:08.011',-0.955,-0.650
'0:08.014',-0.955,-0.635
'0:08.017',-0.950,-0.645
'0:08.019',-0.940,-0.640
'0:08.022',-0.930,-0.635
'0:08.025',-0.940,-0.650
'0:08.028',-0.945,-0.670
'0:08.031',-0.960,-0.680
'0:08.033',-0.955,-0.680
'0:08.036',-0.960,-0.690
'0:08.039',-0.960,-0.705
'0:08.042',-0.960,-0.670
'0:08.044',-0.970,-0.665
'0:08.047',-0.955,-0.640
'0:08.050',-0.960,-0.655
'0:08.053',-0.940,-0.645
'0:08.056',-0.940,-0.650
'0:08.058',-0.930,-0.655
'0:08.061',-0.940,-0.670
'0:08.064',-0.950,-0.685
'0:08.067',-0.975,-0.680
'0:08.069',-0.975,-0.700
'0:08.072',-0.980,-0.680
'0:08.075',-0.970,-0.665
'0:08.078',-0.960,-0.665
'0:08.081',-0.950,-0.660
'0:08.083',-0.935,-0.655
'0:08.086',-0.930,-0.630
'0:08.089',-0.925,-0.645
'0:08.092',-0.925,-0.650
'0:08.094',-0.940,-0.660
'0:08.097',-0.950,-0.670
'0:08.100',-0.945,-0.675
'0:08.103',-0.955,-0.680
'0:08.106',-0.960,-0.675
'0:08.108',-0.960,-0.650
'0:08.111',-0.950,-0.640
'0:08.114',-0.950,-0.645
'0:08.117',-0.950,-0.620
'0:08.119',-0.940,-0.635
'0:08.122',-0.945,-0.630
'0:08.125',-0.950,-0.650
'0:08.128',-0.945,-0.655
'0:08.131',-0.950,-0.675
'0:08.133',-0.955,-0.680
'0:08.136',-0.955,-0.670
'0:08.139',-0.965,-0.650
'0:08.142',-0.960,-0.665
'0:08.144',-0.965,-0.650
'0:08.147',-0.960,-0.645
'0:08.150',-0.950,-0.650
'0:08.153',-0.940,-0.625
'0:08.156',-0.940,-0.635
'0:08.158',-0.945,-0.640
'0:08.161',-0.945,-0.655
'0:08.164',-0.955,-0.675
'0:08.167',-0.960,-0.685
'0:08.169',-0.970,-0.690
'0:08.172',-0.975,-0.700
'0:08.175',-0.955,-0.680
'0:08.178',-0.955,-0.665
'0:08.181',-0.950,-0.665
'0:08.183',-0.945,-0.650
'0:08.186',-0.940,-0.655
'0:08.189',-0.940,-0.650
'0:08.192',-0.940,-0.655
'0:08.194',-0.940,-0.680
'0:08.197',-0.935,-0.665
'0:08.200',-0.970,-0.675
'0:08.203',-0.960,-0.680
'0:08.206',-0.960,-0.680
'0:08.208',-0.960,-0.650
'0:08.211',-0.965,-0.650
'0:08.214',-0.960,-0.640
'0:08.217',-0.935,-0.650
'0:08.219',-0.935,-0.630
'0:08.222',-0.935,-0.630
'0:08.225',-0.930,-0.650
'0:08.228',-0.925,-0.655
'0:08.231',-0.935,-0.675
'0:08.233',-0.940,-0.660
'0:08.236',-0.960,-0.675
'0:08.239',-0.970,-0.670
'0:08.242',-0.970,-0.660
'0:08.244',-0.940,-0.655
'0:08.247',-0.940,-0.655
'0:08.250',-0.935,-0.645
'0:08.253',-0.920,-0.645
'0:08.256',-0.915,-0.640
'0:08.258',-0.920,-0.635
'0:08.261',-0.930,-0.650
'0:08.264',-0.945,-0.670
'0:08.267',-0.955,-0.670
'0:08.269',-0.930,-0.675
'0:08.272',-0.945,-0.670
'0:08.275',-0.955,-0.655
'0:08.278',-0.940,-0.645
'0:08.281',-0.935,-0.640
'0:08.283',-0.920,-0.640
'0:08.286',-0.905,-0.635
'0:08.289',-0.925,-0.615
'0:08.292',-0.940,-0.625
'0:08.294',-0.925,-0.625
'0:08.297',-0.930,-0.645
'0:08.300',-0.940,-0.655
'0:08.303',-0.940,-0.660
'0:08.306',-0.960,-0.645
'0:08.308',-0.965,-0.640
'0:08.311',-0.950,-0.645
'0:08.314',-0.925,-0.625
'0:08.317',-0.930,-0.620
'0:08.319',-0.915,-0.630
'0:08.322',-0.920,-0.635
'0:08.325',-0.930,-0.635
'0:08.328',-0.925,-0.645
'0:08.331',-0.945,-0.660
'0:08.333',-0.935,-0.645
'0:08.336',-0.935,-0.640
'0:08.339',-0.950,-0.650
'0:08.342',-0.950,-0.640
'0:08.344',-0.945,-0.620
'0:08.347',-0.935,-0.625
'0:08.350',-0.910,-0.615
'0:08.353',-0.910,-0.610
'0:08.356',-0.915,-0.625
'0:08.358',-0.920,-0.625
'0:08.361',-0.915,-0.630
'0:08.364',-0.930,-0.640
'0:08.367',-0.925,-0.650
'0:08.369',-0.935,-0.645
'0:08.372',-0.935,-0.630
'0:08.375',-0.945,-0.625
'0:08.378',-0.940,-0.625
'0:08.381',-0.925,-0.610
'0:08.383',-0.920,-0.620
'0:08.386',-0.905,-0.605
'0:08.389',-0.910,-0.600
'0:08.392',-0.930,-0.610
'0:08.394',-0.910,-0.610
'0:08.397',-0.920,-0.625
'0:08.400',-0.935,-0.645
'0:08.403',-0.925,-0.650
'0:08.406',-0.910,-0.625
'0:08.408',-0.905,-0.620
'0:08.411',-0.880,-0.625
'0:08.414',-0.865,-0.620
'0:08.417',-0.835,-0.620
'0:08.419',-0.820,-0.605
'0:08.422',-0.820,-0.610
'0:08.425',-0.810,-0.600
'0:08.428',-0.825,-0.595
'0:08.431',-0.820,-0.590
'0:08.433',-0.815,-0.590
'0:08.436',-0.810,-0.585
'0:08.439',-0.785,-0.565
'0:08.442',-0.765,-0.540
'0:08.444',-0.760,-0.530
'0:08.447',-0.755,-0.515
'0:08.450',-0.755,-0.480
'0:08.453',-0.755,-0.455
'0:08.456',-0.740,-0.440
'0:08.458',-0.755,-0.440
'0:08.461',-0.770,-0.435
'0:08.464',-0.790,-0.460
'0:08.467',-0.805,-0.470
'0:08.469',-0.830,-0.470
'0:08.472',-0.845,-0.470
'0:08.475',-0.840,-0.485
'0:08.478',-0.850,-0.455
'0:08.481',-0.865,-0.455
'0:08.483',-0.870,-0.460
'0:08.486',-0.895,-0.450
'0:08.489',-0.900,-0.490
'0:08.492',-0.895,-0.520
'0:08.494',-0.915,-0.540
'0:08.497',-0.925,-0.565
'0:08.500',-0.935,-0.575
'0:08.503',-0.960,-0.600
'0:08.506',-0.965,-0.610
'0:08.508',-0.950,-0.595
'0:08.511',-0.955,-0.590
'0:08.514',-0.955,-0.590
'0:08.517',-0.940,-0.580
'0:08.519',-0.960,-0.590
'0:08.522',-0.970,-0.600
'0:08.525',-0.970,-0.605
'0:08.528',-0.955,-0.615
'0:08.531',-0.970,-0.620
'0:08.533',-0.975,-0.635
'0:08.536',-0.980,-0.645
'0:08.539',-0.985,-0.645
'0:08.542',-0.990,-0.640
'0:08.544',-0.975,-0.635
'0:08.547',-0.965,-0.625
'0:08.550',-0.965,-0.615
'0:08.553',-0.945,-0.625
'0:08.556',-0.925,-0.630
'0:08.558',-0.920,-0.620
'0:08.561',-0.925,-0.645
'0:08.564',-0.925,-0.650
'0:08.567',-0.945,-0.635
'0:08.569',-0.955,-0.635
'0:08.572',-0.940,-0.630
'0:08.575',-0.930,-0.620
'0:08.578',-0.890,-0.605
'0:08.581',-0.810,-0.570
'0:08.583',-0.735,-0.510
'0:08.586',-0.630,-0.410
'0:08.589',-0.500,-0.250
'0:08.592',-0.355,-0.045
'0:08.594',-0.235,0.200
'0:08.597',-0.130,0.460
'0:08.600',-0.120,0.705
'0:08.603',-0.205,0.885
'0:08.606',-0.385,1.000
'0:08.608',-0.640,0.985
'0:08.611',-0.925,0.815
'0:08.614',-1.205,0.540
'0:08.617',-1.480,0.155
'0:08.619',-1.665,-0.275
'0:08.622',-1.760,-0.670
'0:08.625',-1.750,-0.960
'0:08.628',-1.670,-1.065
'0:08.631',-1.545,-1.040
'0:08.633',-1.430,-0.935
'0:08.636',-1.320,-0.825
'0:08.639',-1.230,-0.745
'0:08.642',-1.130,-0.685
'0:08.644',-1.065,-0.635
'0:08.647',-0.985,-0.605
'0:08.650',-0.940,-0.575
'0:08.653',-0.905,-0.565
'0:08.656',-0.895,-0.560
'0:08.658',-0.895,-0.555
'0:08.661',-0.905,-0.555
'0:08.664',-0.915,-0.575
'0:08.667',-0.920,-0.575
'0:08.669',-0.925,-0.590
'0:08.672',-0.910,-0.580
'0:08.675',-0.905,-0.585
'0:08.678',-0.880,-0.560
'0:08.681',-0.865,-0.530
'0:08.683',-0.855,-0.525
'0:08.686',-0.835,-0.505
'0:08.689',-0.825,-0.525
'0:08.692',-0.845,-0.525
'0:08.694',-0.830,-0.535
'0:08.697',-0.845,-0.525
'0:08.700',-0.830,-0.540
'0:08.703',-0.840,-0.530
'0:08.706',-0.830,-0.515
'0:08.708',-0.840,-0.535
'0:08.711',-0.830,-0.505
'0:08.714',-0.820,-0.505
'0:08.717',-0.820,-0.485
'0:08.719',-0.820,-0.485
'0:08.722',-0.800,-0.480
'0:08.725',-0.800,-0.485
'0:08.728',-0.800,-0.500
'0:08.731',-0.790,-0.505
'0:08.733',-0.805,-0.505
'0:08.736',-0.800,-0.485
'0:08.739',-0.815,-0.485
'0:08.742',-0.800,-0.480
'0:08.744',-0.800,-0.460
'0:08.747',-0.795,-0.460
'0:08.750',-0.780,-0.455
'0:08.753',-0.770,-0.435
'0:08.756',-0.765,-0.445
'0:08.758',-0.770,-0.440
'0:08.761',-0.770,-0.440
'0:08.764',-0.775,-0.430
'0:08.767',-0.775,-0.450
'0:08.769',-0.770,-0.460
'0:08.772',-0.775,-0.430
'0:08.775',-0.765,-0.420
'0:08.778',-0.760,-0.400
'0:08.781',-0.735,-0.405
'0:08.783',-0.715,-0.385
'0:08.786',-0.710,-0.365
'0:08.789',-0.675,-0.335
'0:08.792',-0.680,-0.355
'0:08.794',-0.680,-0.340
'0:08.797',-0.675,-0.345
'0:08.800',-0.680,-0.355
'0:08.803',-0.670,-0.340
'0:08.806',-0.670,-0.330
'0:08.808',-0.645,-0.310
'0:08.811',-0.630,-0.285
'0:08.814',-0.610,-0.255
'0:08.817',-0.575,-0.240
'0:08.819',-0.560,-0.200
'0:08.822',-0.555,-0.190
'0:08.825',-0.525,-0.175
'0:08.828',-0.510,-0.175
'0:08.831',-0.510,-0.155
'0:08.833',-0.500,-0.155
'0:08.836',-0.490,-0.145
'0:08.839',-0.465,-0.110
'0:08.842',-0.445,-0.090
'0:08.844',-0.430,-0.055
'0:08.847',-0.400,-0.030
'0:08.850',-0.380,0.005
'0:08.853',-0.355,0.025
'0:08.856',-0.335,0.050
'0:08.858',-0.315,0.060
'0:08.861',-0.310,0.070
'0:08.864',-0.295,0.080
'0:08.867',-0.290,0.085
'0:08.869',-0.290,0.115
'0:08.872',-0.285,0.125
'0:08.875',-0.275,0.155
'0:08.878',-0.235,0.160
'0:08.881',-0.235,0.180
'0:08.883',-0.220,0.205
'0:08.886',-0.195,0.200
'0:08.889',-0.180,0.195
'0:08.892',-0.170,0.200
'0:08.894',-0.185,0.200
'0:08.897',-0.180,0.190
'0:08.900',-0.200,0.195
'0:08.903',-0.195,0.175
'0:08.906',-0.230,0.165
'0:08.908',-0.240,0.190
'0:08.911',-0.235,0.170
'0:08.914',-0.260,0.160
'0:08.917',-0.270,0.160
'0:08.919',-0.280,0.135
'0:08.922',-0.305,0.105
'0:08.925',-0.320,0.070
'0:08.928',-0.360,0.030
'0:08.931',-0.385,-0.025
'0:08.933',-0.420,-0.060
'0:08.936',-0.460,-0.095
'0:08.939',-0.505,-0.125
'0:08.942',-0.520,-0.160
'0:08.944',-0.555,-0.190
'0:08.947',-0.600,-0.210
'0:08.950',-0.620,-0.240
'0:08.953',-0.635,-0.280
'0:08.956',-0.670,-0.325
'0:08.958',-0.680,-0.360
'0:08.961',-0.710,-0.405
'0:08.964',-0.735,-0.405
'0:08.967',-0.750,-0.455
'0:08.969',-0.770,-0.455
'0:08.972',-0.820,-0.480
'0:08.975',-0.805,-0.485
'0:08.978',-0.810,-0.490
'0:08.981',-0.820,-0.500
'0:08.983',-0.830,-0.490
'0:08.986',-0.820,-0.480
'0:08.989',-0.825,-0.495
'0:08.992',-0.835,-0.520
'0:08.994',-0.855,-0.540
'0:08.997',-0.870,-0.565
'0:09.000',-0.865,-0.560
'0:09.003',-0.870,-0.585
'0:09.006',-0.885,-0.585
'0:09.008',-0.885,-0.590
'0:09.011',-0.885,-0.565
'0:09.014',-0.890,-0.570
'0:09.017',-0.885,-0.570
'0:09.019',-0.875,-0.545
'0:09.022',-0.865,-0.550
'0:09.025',-0.870,-0.580
'0:09.028',-0.865,-0.575
'0:09.031',-0.880,-0.610
'0:09.033',-0.890,-0.610
'0:09.036',-0.885,-0.595
'0:09.039',-0.885,-0.610
'0:09.042',-0.890,-0.595
'0:09.044',-0.890,-0.590
'0:09.047',-0.875,-0.565
'0:09.050',-0.870,-0.575
'0:09.053',-0.855,-0.565
'0:09.056',-0.850,-0.570
'0:09.058',-0.865,-0.555
'0:09.061',-0.870,-0.565
'0:09.064',-0.870,-0.560
'0:09.067',-0.865,-0.580
'0:09.069',-0.875,-0.555
'0:09.072',-0.875,-0.555
'0:09.075',-0.860,-0.550
'0:09.078',-0.860,-0.535
'0:09.081',-0.845,-0.540
'0:09.083',-0.850,-0.530
'0:09.086',-0.835,-0.525
'0:09.089',-0.845,-0.530
'0:09.092',-0.840,-0.540
'0:09.094',-0.855,-0.535
'0:09.097',-0.870,-0.550
'0:09.100',-0.870,-0.540
'0:09.103',-0.880,-0.550
'0:09.106',-0.880,-0.560
'0:09.108',-0.875,-0.520
'0:09.111',-0.865,-0.530
'0:09.114',-0.860,-0.525
'0:09.117',-0.850,-0.520
'0:09.119',-0.845,-0.510
'0:09.122',-0.850,-0.520
'0:09.125',-0.845,-0.520
'0:09.128',-0.865,-0.540
'0:09.131',-0.870,-0.555
'0:09.133',-0.885,-0.550
'0:09.136',-0.900,-0.555
'0:09.139',-0.915,-0.570
'0:09.142',-0.895,-0.575
'0:09.144',-0.900,-0.565
'0:09.147',-0.910,-0.550
'0:09.150',-0.905,-0.535
'0:09.153',-0.885,-0.535
'0:09.156',-0.900,-0.540
'0:09.158',-0.915,-0.540
'0:09.161',-0.895,-0.560
'0:09.164',-0.900,-0.575
'0:09.167',-0.915,-0.575
'0:09.169',-0.945,-0.570
'0:09.172',-0.930,-0.580
'0:09.175',-0.935,-0.580
'0:09.178',-0.935,-0.580
'0:09.181',-0.920,-0.570
'0:09.183',-0.915,-0.570
'0:09.186',-0.915,-0.550
'0:09.189',-0.910,-0.575
'0:09.192',-0.915,-0.585
'0:09.194',-0.910,-0.580
'0:09.197',-0.930,-0.580
'0:09.200',-0.945,-0.605
'0:09.203',-0.960,-0.605
'0:09.206',-0.950,-0.635
'0:09.208',-0.945,-0.590
'0:09.211',-0.930,-0.580
'0:09.214',-0.930,-0.585
'0:09.217',-0.915,-0.555
'0:09.219',-0.910,-0.550
'0:09.222',-0.900,-0.585
'0:09.225',-0.895,-0.580
'0:09.228',-0.905,-0.595
'0:09.231',-0.920,-0.595
'0:09.233',-0.935,-0.615
'0:09.236',-0.980,-0.600
'0:09.239',-0.955,-0.630
'0:09.242',-0.980,-0.610
'0:09.244',-0.965,-0.590
'0:09.247',-0.960,-0.580
'0:09.250',-0.960,-0.565
'0:09.253',-0.935,-0.560
'0:09.256',-0.940,-0.565
'0:09.258',-0.945,-0.565
'0:09.261',-0.930,-0.585
'0:09.264',-0.945,-0.590
'0:09.267',-0.965,-0.605
'0:09.269',-0.970,-0.605
'0:09.272',-0.955,-0.615
'0:09.275',-0.975,-0.600
'0:09.278',-0.950,-0.590
'0:09.281',-0.945,-0.590
'0:09.283',-0.930,-0.575
'0:09.286',-0.925,-0.575
'0:09.289',-0.920,-0.570
'0:09.292',-0.935,-0.590
'0:09.294',-0.945,-0.585
'0:09.297',-0.950,-0.590
'0:09.300',-0.950,-0.605
'0:09.303',-0.955,-0.600
'0:09.306',-0.965,-0.600
'0:09.308',-0.960,-0.595
'0:09.311',-0.955,-0.570
'0:09.314',-0.945,-0.580
'0:09.317',-0.930,-0.570
'0:09.319',-0.925,-0.560
'0:09.322',-0.930,-0.575
'0:09.325',-0.940,-0.560
'0:09.328',-0.960,-0.570
'0:09.331',-0.960,-0.585
'0:09.333',-0.950,-0.575
'0:09.336',-0.975,-0.600
'0:09.339',-0.970,-0.590
'0:09.342',-0.965,-0.600
'0:09.344',-0.965,-0.575
'0:09.347',-0.960,-0.585
'0:09.350',-0.960,-0.575
'0:09.353',-0.945,-0.555
'0:09.356',-0.940,-0.560
'0:09.358',-0.945,-0.565
'0:09.361',-0.935,-0.585
'0:09.364',-0.940,-0.580
'0:09.367',-0.955,-0.585
'0:09.369',-0.965,-0.600
'0:09.372',-0.970,-0.595
'0:09.375',-0.960,-0.600
'0:09.378',-0.950,-0.585
'0:09.381',-0.950,-0.575
'0:09.383',-0.935,-0.570
'0:09.386',-0.930,-0.565
'0:09.389',-0.935,-0.585
'0:09.392',-0.935,-0.570
'0:09.394',-0.945,-0.580
'0:09.397',-0.965,-0.595
'0:09.400',-0.945,-0.605
'0:09.403',-0.965,-0.605
'0:09.406',-0.970,-0.600
'0:09.408',-0.955,-0.590
'0:09.411',-0.950,-0.595
'0:09.414',-0.950,-0.575
'0:09.417',-0.935,-0.590
'0:09.419',-0.910,-0.575
'0:09.422',-0.910,-0.585
'0:09.425',-0.915,-0.580
'0:09.428',-0.925,-0.585
'0:09.431',-0.930,-0.590
'0:09.433',-0.935,-0.590
'0:09.436',-0.980,-0.595
'0:09.439',-0.965,-0.610
'0:09.442',-0.955,-0.590
'0:09.444',-0.965,-0.600
'0:09.447',-0.950,-0.585
'0:09.450',-0.950,-0.565
'0:09.453',-0.960,-0.560
'0:09.456',-0.940,-0.560
'0:09.458',-0.935,-0.570
'0:09.461',-0.940,-0.570
'0:09.464',-0.945,-0.570
'0:09.467',-0.935,-0.580
'0:09.469',-0.960,-0.585
'0:09.472',-0.960,-0.585
'0:09.475',-0.960,-0.590
'0:09.478',-0.960,-0.585
'0:09.481',-0.945,-0.570
'0:09.483',-0.935,-0.575
'0:09.486',-0.925,-0.565
'0:09.489',-0.920,-0.575
'0:09.492',-0.920,-0.575
'0:09.494',-0.925,-0.585
'0:09.497',-0.930,-0.595
'0:09.500',-0.935,-0.585
'0:09.503',-0.945,-0.600
'0:09.506',-0.950,-0.580
'0:09.508',-0.945,-0.590
'0:09.511',-0.945,-0.575
'0:09.514',-0.940,-0.580
'0:09.517',-0.930,-0.585
'0:09.519',-0.915,-0.545
'0:09.522',-0.915,-0.575
'0:09.525',-0.910,-0.560
'0:09.528',-0.920,-0.565
'0:09.531',-0.930,-0.590
'0:09.533',-0.945,-0.585
'0:09.536',-0.945,-0.600
'0:09.539',-0.950,-0.600
'0:09.542',-0.950,-0.575
'0:09.544',-0.940,-0.580
'0:09.547',-0.925,-0.570
'0:09.550',-0.920,-0.575
'0:09.553',-0.915,-0.570
'0:09.556',-0.920,-0.570
'0:09.558',-0.910,-0.570
'0:09.561',-0.910,-0.570
'0:09.564',-0.905,-0.585
'0:09.567',-0.925,-0.590
'0:09.569',-0.920,-0.590
'0:09.572',-0.920,-0.585
'0:09.575',-0.910,-0.595
'0:09.578',-0.905,-0.570
'0:09.581',-0.895,-0.570
'0:09.583',-0.870,-0.555
'0:09.586',-0.845,-0.565
'0:09.589',-0.840,-0.550
'0:09.592',-0.830,-0.565
'0:09.594',-0.825,-0.580
'0:09.597',-0.835,-0.590
'0:09.600',-0.840,-0.585
'0:09.603',-0.830,-0.570
'0:09.606',-0.830,-0.580
'0:09.608',-0.805,-0.555
'0:09.611',-0.780,-0.535
'0:09.614',-0.755,-0.530
'0:09.617',-0.740,-0.495
'0:09.619',-0.725,-0.470
'0:09.622',-0.720,-0.460
'0:09.625',-0.720,-0.465
'0:09.628',-0.730,-0.440
'0:09.631',-0.730,-0.425
'0:09.633',-0.755,-0.415
'0:09.636',-0.765,-0.420
'0:09.639',-0.800,-0.420
'0:09.642',-0.805,-0.415
'0:09.644',-0.800,-0.410
'0:09.647',-0.800,-0.405
'0:09.650',-0.805,-0.420
'0:09.653',-0.810,-0.410
'0:09.656',-0.840,-0.425
'0:09.658',-0.845,-0.430
'0:09.661',-0.875,-0.445
'0:09.664',-0.885,-0.470
'0:09.667',-0.895,-0.500
'0:09.669',-0.905,-0.535
'0:09.672',-0.900,-0.545
'0:09.675',-0.930,-0.535
'0:09.678',-0.925,-0.535
'0:09.681',-0.910,-0.535
'0:09.683',-0.910,-0.530
'0:09.686',-0.900,-0.525
'0:09.689',-0.885,-0.520
'0:09.692',-0.900,-0.525
'0:09.694',-0.915,-0.545
'0:09.697',-0.925,-0.550
'0:09.700',-0.930,-0.570
'0:09.703',-0.955,-0.570
'0:09.706',-0.945,-0.585
'0:09.708',-0.940,-0.570
'0:09.711',-0.925,-0.575
'0:09.714',-0.935,-0.565
'0:09.717',-0.905,-0.550
'0:09.719',-0.905,-0.555
'0:09.722',-0.895,-0.555
'0:09.725',-0.905,-0.555
'0:09.728',-0.900,-0.575
'0:09.731',-0.910,-0.575
'0:09.733',-0.925,-0.570
'0:09.736',-0.925,-0.580
'0:09.739',-0.930,-0.590
'0:09.742',-0.920,-0.570
'0:09.744',-0.915,-0.555
'0:09.747',-0.905,-0.550
'0:09.750',-0.885,-0.535
'0:09.753',-0.865,-0.530
'0:09.756',-0.850,-0.535
'0:09.758',-0.800,-0.550
'0:09.761',-0.750,-0.540
'0:09.764',-0.650,-0.495
'0:09.767',-0.560,-0.380
'0:09.769',-0.440,-0.215
'0:09.772',-0.300,0.000
'0:09.775',-0.155,0.250
'0:09.778',-0.030,0.545
'0:09.781',0.000,0.820
'0:09.783',-0.040,1.055
'0:09.786',-0.175,1.205
'0:09.789',-0.395,1.230
'0:09.792',-0.660,1.125
'0:09.794',-0.980,0.880
'0:09.797',-1.230,0.525
'0:09.800',-1.475,0.095
'0:09.803',-1.640,-0.335
'0:09.806',-1.695,-0.705
'0:09.808',-1.650,-0.930
'0:09.811',-1.570,-0.985
'0:09.814',-1.435,-0.935
'0:09.817',-1.315,-0.805
'0:09.819',-1.230,-0.720
'0:09.822',-1.155,-0.645
'0:09.825',-1.090,-0.625
'0:09.828',-1.030,-0.605
'0:09.831',-0.960,-0.590
'0:09.833',-0.910,-0.585
'0:09.836',-0.875,-0.555
'0:09.839',-0.855,-0.540
'0:09.842',-0.815,-0.550
'0:09.844',-0.830,-0.515
'0:09.847',-0.825,-0.515
'0:09.850',-0.830,-0.495
'0:09.853',-0.810,-0.500
'0:09.856',-0.795,-0.500
'0:09.858',-0.795,-0.500
'0:09.861',-0.765,-0.485
'0:09.864',-0.780,-0.495
'0:09.867',-0.775,-0.505
'0:09.869',-0.780,-0.520
'0:09.872',-0.790,-0.520
'0:09.875',-0.785,-0.510
'0:09.878',-0.790,-0.485
'0:09.881',-0.775,-0.495
'0:09.883',-0.765,-0.470
'0:09.886',-0.750,-0.455
'0:09.889',-0.740,-0.470
'0:09.892',-0.730,-0.475
'0:09.894',-0.740,-0.470
'0:09.897',-0.735,-0.465
'0:09.900',-0.740,-0.480
'0:09.903',-0.750,-0.480
'0:09.906',-0.750,-0.455
'0:09.908',-0.750,-0.450
'0:09.911',-0.735,-0.440
'0:09.914',-0.720,-0.440
'0:09.917',-0.715,-0.415
'0:09.919',-0.695,-0.410
'0:09.922',-0.690,-0.410
'0:09.925',-0.690,-0.415
'0:09.928',-0.715,-0.425
'0:09.931',-0.700,-0.435
'0:09.933',-0.710,-0.435
'0:09.936',-0.715,-0.420
'0:09.939',-0.705,-0.435
'0:09.942',-0.700,-0.430
'0:09.944',-0.690,-0.400
'0:09.947',-0.680,-0.385
'0:09.950',-0.655,-0.370
'0:09.953',-0.660,-0.365
'0:09.956',-0.630,-0.360
'0:09.958',-0.625,-0.370
'0:09.961',-0.620,-0.360
'0:09.964',-0.635,-0.360
'0:09.967',-0.620,-0.350
'0:09.969',-0.625,-0.360
'0:09.972',-0.620,-0.350
'0:09.975',-0.605,-0.345
'0:09.978',-0.600,-0.325
'0:09.981',-0.580,-0.300
'0:09.983',-0.575,-0.285
'0:09.986',-0.560,-0.265
'0:09.989',-0.540,-0.270
'0:09.992',-0.535,-0.255
'0:09.994',-0.520,-0.250
'0:09.997',-0.520,-0.250
