'Elapsed time','MLII','V1'
'hh:mm:ss.mmm','mV','mV'
'0:00.000',-0.835,-0.515
'0:00.003',-0.835,-0.515
'0:00.006',-0.835,-0.515
'0:00.008',-0.835,-0.515
'0:00.011',-0.835,-0.515
'0:00.014',-0.835,-0.515
'0:00.017',-0.835,-0.515
'0:00.019',-0.815,-0.515
'0:00.022',-0.815,-0.485
'0:00.025',-0.830,-0.500
'0:00.028',-0.840,-0.515
'0:00.031',-0.850,-0.550
'0:00.033',-0.875,-0.590
'0:00.036',-0.885,-0.635
'0:00.039',-0.920,-0.650
'0:00.042',-0.970,-0.665
'0:00.044',-1.010,-0.640
'0:00.047',-1.040,-0.625
'0:00.050',-1.065,-0.615
'0:00.053',-1.095,-0.615
'0:00.056',-1.085,-0.615
'0:00.058',-1.065,-0.650
'0:00.061',-1.070,-0.675
'0:00.064',-1.060,-0.680
'0:00.067',-1.050,-0.690
'0:00.069',-1.060,-0.705
'0:00.072',-1.060,-0.685
'0:00.075',-1.065,-0.685
'0:00.078',-1.065,-0.675
'0:00.081',-1.065,-0.640
'0:00.083',-1.080,-0.640
'0:00.086',-1.080,-0.645
'0:00.089',-1.115,-0.630
'0:00.092',-1.115,-0.630
'0:00.094',-1.095,-0.640
'0:00.097',-1.070,-0.640
'0:00.100',-1.055,-0.665
'0:00.103',-1.055,-0.675
'0:00.106',-1.075,-0.690
'0:00.108',-1.100,-0.680
'0:00.111',-1.100,-0.690
'0:00.114',-1.115,-0.680
'0:00.117',-1.110,-0.685
'0:00.119',-1.110,-0.695
'0:00.122',-1.105,-0.700
'0:00.125',-1.105,-0.705
'0:00.128',-1.110,-0.695
'0:00.131',-1.100,-0.680
'0:00.133',-1.105,-0.685
'0:00.136',-1.090,-0.650
'0:00.139',-1.090,-0.655
'0:00.142',-1.080,-0.660
'0:00.144',-1.065,-0.700
'0:00.147',-1.080,-0.720
'0:00.150',-1.050,-0.765
'0:00.153',-1.035,-0.845
'0:00.156',-0.995,-0.930
'0:00.158',-0.900,-1.035
'0:00.161',-0.755,-1.175
'0:00.164',-0.570,-1.330
'0:00.167',-0.395,-1.485
'0:00.169',-0.275,-1.610
'0:00.172',-0.235,-1.670
'0:00.175',-0.240,-1.610
'0:00.178',-0.230,-1.500
'0:00.181',-0.200,-1.325
'0:00.183',-0.130,-1.175
'0:00.186',-0.015,-1.040
'0:00.189',0.110,-0.910
'0:00.192',0.225,-0.755
'0:00.194',0.245,-0.510
'0:00.197',0.155,-0.195
'0:00.200',-0.140,0.110
'0:00.203',-0.575,0.340
'0:00.206',-1.080,0.405
'0:00.208',-1.500,0.300
'0:00.211',-1.790,0.070
'0:00.214',-1.920,-0.210
'0:00.217',-1.980,-0.445
'0:00.219',-2.010,-0.610
'0:00.222',-2.050,-0.695
'0:00.225',-2.120,-0.740
'0:00.228',-2.170,-0.775
'0:00.231',-2.170,-0.800
'0:00.233',-2.140,-0.855
'0:00.236',-2.075,-0.925
'0:00.239',-2.060,-0.985
'0:00.242',-2.045,-1.005
'0:00.244',-2.025,-1.010
'0:00.247',-1.985,-0.970
'0:00.250',-1.950,-0.950
'0:00.253',-1.900,-0.965
'0:00.256',-1.800,-0.950
'0:00.258',-1.685,-0.960
'0:00.261',-1.570,-0.930
'0:00.264',-1.445,-0.920
'0:00.267',-1.335,-0.875
'0:00.269',-1.230,-0.840
'0:00.272',-1.175,-0.760
'0:00.275',-1.140,-0.700
'0:00.278',-1.150,-0.645
'0:00.281',-1.170,-0.600
'0:00.283',-1.170,-0.565
'0:00.286',-1.140,-0.565
'0:00.289',-1.095,-0.585
'0:00.292',-1.060,-0.605
'0:00.294',-1.100,-0.620
'0:00.297',-1.180,-0.610
'0:00.300',-1.230,-0.595
'0:00.303',-1.210,-0.585
'0:00.306',-1.095,-0.600
'0:00.308',-0.985,-0.635
'0:00.311',-0.960,-0.670
'0:00.314',-0.995,-0.710
'0:00.317',-1.035,-0.705
'0:00.319',-1.070,-0.720
'0:00.322',-1.080,-0.705
'0:00.325',-1.040,-0.720
'0:00.328',-1.015,-0.755
'0:00.331',-0.995,-0.775
'0:00.333',-1.010,-0.785
'0:00.336',-1.045,-0.800
'0:00.339',-1.085,-0.785
'0:00.342',-1.115,-0.770
'0:00.344',-1.105,-0.775
'0:00.347',-1.105,-0.785
'0:00.350',-1.125,-0.830
'0:00.353',-1.140,-0.885
'0:00.356',-1.175,-0.935
'0:00.358',-1.185,-0.970
'0:00.361',-1.175,-0.995
'0:00.364',-1.185,-0.990
'0:00.367',-1.205,-0.990
'0:00.369',-1.200,-0.975
'0:00.372',-1.205,-0.965
'0:00.375',-1.200,-0.960
'0:00.378',-1.165,-0.960
'0:00.381',-1.130,-0.970
'0:00.383',-1.135,-0.985
'0:00.386',-1.150,-1.000
'0:00.389',-1.210,-1.050
'0:00.392',-1.225,-1.040
'0:00.394',-1.205,-1.060
'0:00.397',-1.215,-1.055
'0:00.400',-1.230,-1.045
'0:00.403',-1.265,-1.065
'0:00.406',-1.260,-1.055
'0:00.408',-1.210,-1.050
'0:00.411',-1.150,-1.055
'0:00.414',-1.150,-1.080
'0:00.417',-1.175,-1.125
'0:00.419',-1.205,-1.145
'0:00.422',-1.250,-1.165
'0:00.425',-1.320,-1.160
'0:00.428',-1.395,-1.150
'0:00.431',-1.470,-1.140
'0:00.433',-1.495,-1.150
'0:00.436',-1.485,-1.160
'0:00.439',-1.430,-1.120
'0:00.442',-1.375,-1.095
'0:00.444',-1.335,-1.075
'0:00.447',-1.275,-1.030
'0:00.450',-1.210,-0.985
'0:00.453',-1.155,-0.975
'0:00.456',-1.160,-0.965
'0:00.458',-1.215,-0.960
'0:00.461',-1.270,-0.975
'0:00.464',-1.300,-0.975
'0:00.467',-1.290,-0.980
'0:00.469',-1.260,-0.980
'0:00.472',-1.215,-0.975
'0:00.475',-1.170,-0.965
'0:00.478',-1.135,-0.955
'0:00.481',-1.090,-0.935
'0:00.483',-1.065,-0.930
'0:00.486',-1.040,-0.925
'0:00.489',-1.035,-0.930
'0:00.492',-1.025,-0.925
'0:00.494',-1.055,-0.900
'0:00.497',-1.070,-0.885
'0:00.500',-1.070,-0.860
'0:00.503',-1.040,-0.845
'0:00.506',-0.990,-0.825
'0:00.508',-0.960,-0.810
'0:00.511',-0.920,-0.820
'0:00.514',-0.885,-0.830
'0:00.517',-0.875,-0.830
'0:00.519',-0.890,-0.830
'0:00.522',-0.890,-0.830
'0:00.525',-0.915,-0.820
'0:00.528',-0.965,-0.790
'0:00.531',-1.005,-0.765
'0:00.533',-1.035,-0.725
'0:00.536',-1.040,-0.720
'0:00.539',-0.975,-0.700
'0:00.542',-0.905,-0.690
'0:00.544',-0.885,-0.690
'0:00.547',-0.850,-0.700
'0:00.550',-0.855,-0.700
'0:00.553',-0.905,-0.705
'0:00.556',-0.920,-0.705
'0:00.558',-0.955,-0.695
'0:00.561',-0.980,-0.680
'0:00.564',-0.955,-0.670
'0:00.567',-0.940,-0.670
'0:00.569',-0.935,-0.660
'0:00.572',-0.950,-0.655
'0:00.575',-0.960,-0.635
'0:00.578',-0.920,-0.635
'0:00.581',-0.915,-0.625
'0:00.583',-0.900,-0.665
'0:00.586',-0.930,-0.675
'0:00.589',-0.945,-0.675
'0:00.592',-0.945,-0.660
'0:00.594',-0.925,-0.665
'0:00.597',-0.915,-0.650
'0:00.600',-0.970,-0.665
'0:00.603',-1.035,-0.695
'0:00.606',-1.060,-0.685
'0:00.608',-1.050,-0.680
'0:00.611',-1.005,-0.695
'0:00.614',-0.940,-0.700
'0:00.617',-0.925,-0.685
'0:00.619',-0.920,-0.680
'0:00.622',-0.925,-0.670
'0:00.625',-0.930,-0.670
'0:00.628',-0.925,-0.660
'0:00.631',-0.930,-0.670
'0:00.633',-0.935,-0.675
'0:00.636',-0.925,-0.685
'0:00.639',-0.940,-0.675
'0:00.642',-0.985,-0.640
'0:00.644',-1.040,-0.615
'0:00.647',-1.075,-0.615
'0:00.650',-1.040,-0.610
'0:00.653',-0.975,-0.645
'0:00.656',-0.935,-0.680
'0:00.658',-0.905,-0.745
'0:00.661',-0.900,-0.750
'0:00.664',-0.960,-0.765
'0:00.667',-1.020,-0.745
'0:00.669',-1.070,-0.710
'0:00.672',-1.060,-0.680
'0:00.675',-1.020,-0.675
'0:00.678',-0.955,-0.660
'0:00.681',-0.890,-0.690
'0:00.683',-0.850,-0.710
'0:00.686',-0.870,-0.730
'0:00.689',-0.915,-0.730
'0:00.692',-0.975,-0.730
'0:00.694',-1.040,-0.705
'0:00.697',-1.045,-0.685
'0:00.700',-1.025,-0.680
'0:00.703',-0.975,-0.670
'0:00.706',-0.935,-0.705
'0:00.708',-0.905,-0.720
'0:00.711',-0.925,-0.720
'0:00.714',-0.940,-0.730
'0:00.717',-0.950,-0.705
'0:00.719',-0.955,-0.705
'0:00.722',-0.980,-0.690
'0:00.725',-0.975,-0.695
'0:00.728',-0.975,-0.720
'0:00.731',-0.985,-0.740
'0:00.733',-0.990,-0.740
'0:00.736',-0.965,-0.755
'0:00.739',-0.950,-0.760
'0:00.742',-0.930,-0.730
'0:00.744',-0.890,-0.720
'0:00.747',-0.865,-0.705
'0:00.750',-0.880,-0.730
'0:00.753',-0.875,-0.750
'0:00.756',-0.925,-0.745
'0:00.758',-0.960,-0.735
'0:00.761',-0.970,-0.725
'0:00.764',-0.980,-0.730
'0:00.767',-0.940,-0.735
'0:00.769',-0.900,-0.745
'0:00.772',-0.910,-0.745
'0:00.775',-0.920,-0.750
'0:00.778',-0.945,-0.745
'0:00.781',-0.915,-0.735
'0:00.783',-0.860,-0.735
'0:00.786',-0.820,-0.735
'0:00.789',-0.835,-0.735
'0:00.792',-0.870,-0.755
'0:00.794',-0.875,-0.760
'0:00.797',-0.855,-0.750
'0:00.800',-0.820,-0.750
'0:00.803',-0.760,-0.785
'0:00.806',-0.730,-0.825
'0:00.808',-0.700,-0.865
'0:00.811',-0.690,-0.865
'0:00.814',-0.700,-0.865
'0:00.817',-0.745,-0.800
'0:00.819',-0.780,-0.740
'0:00.822',-0.830,-0.695
'0:00.825',-0.830,-0.690
'0:00.828',-0.835,-0.685
'0:00.831',-0.820,-0.715
'0:00.833',-0.815,-0.770
'0:00.836',-0.840,-0.810
'0:00.839',-0.850,-0.820
'0:00.842',-0.875,-0.760
'0:00.844',-0.800,-0.695
'0:00.847',-0.725,-0.625
'0:00.850',-0.675,-0.590
'0:00.853',-0.650,-0.590
'0:00.856',-0.670,-0.605
'0:00.858',-0.740,-0.605
'0:00.861',-0.815,-0.630
'0:00.864',-0.900,-0.645
'0:00.867',-0.930,-0.680
'0:00.869',-0.910,-0.710
'0:00.872',-0.880,-0.745
'0:00.875',-0.840,-0.775
'0:00.878',-0.855,-0.805
'0:00.881',-0.870,-0.815
'0:00.883',-0.900,-0.775
'0:00.886',-0.950,-0.765
'0:00.889',-1.010,-0.750
'0:00.892',-1.050,-0.750
'0:00.894',-1.075,-0.765
'0:00.897',-1.085,-0.785
'0:00.900',-1.095,-0.800
'0:00.903',-1.070,-0.795
'0:00.906',-1.045,-0.775
'0:00.908',-1.000,-0.765
'0:00.911',-0.950,-0.745
'0:00.914',-0.930,-0.750
'0:00.917',-0.930,-0.765
'0:00.919',-0.955,-0.765
'0:00.922',-0.980,-0.765
'0:00.925',-1.010,-0.755
'0:00.928',-1.020,-0.745
'0:00.931',-0.995,-0.735
'0:00.933',-1.010,-0.725
'0:00.936',-1.000,-0.720
'0:00.939',-1.005,-0.710
'0:00.942',-1.010,-0.700
'0:00.944',-0.985,-0.705
'0:00.947',-0.965,-0.685
'0:00.950',-0.955,-0.690
'0:00.953',-0.910,-0.715
'0:00.956',-0.880,-0.745
'0:00.958',-0.865,-0.775
'0:00.961',-0.895,-0.765
'0:00.964',-0.970,-0.765
'0:00.967',-1.050,-0.710
'0:00.969',-1.060,-0.685
'0:00.972',-0.995,-0.685
'0:00.975',-0.910,-0.730
'0:00.978',-0.850,-0.800
'0:00.981',-0.850,-0.860
'0:00.983',-0.905,-0.900
'0:00.986',-0.950,-0.955
'0:00.989',-1.010,-1.000
'0:00.992',-0.995,-1.070
'0:00.994',-0.910,-1.170
'0:00.997',-0.785,-1.335
'0:01.000',-0.645,-1.500
'0:01.003',-0.490,-1.675
'0:01.006',-0.410,-1.805
'0:01.008',-0.370,-1.815
'0:01.011',-0.370,-1.750
'0:01.014',-0.370,-1.580
'0:01.017',-0.325,-1.370
'0:01.019',-0.185,-1.125
'0:01.022',0.035,-0.920
'0:01.025',0.280,-0.670
'0:01.028',0.425,-0.410
'0:01.031',0.410,-0.115
'0:01.033',0.210,0.205
'0:01.036',-0.170,0.440
'0:01.039',-0.635,0.585
'0:01.042',-1.055,0.590
'0:01.044',-1.335,0.420
'0:01.047',-1.515,0.180
'0:01.050',-1.620,-0.045
'0:01.053',-1.700,-0.230
'0:01.056',-1.820,-0.365
'0:01.058',-1.950,-0.395
'0:01.061',-2.030,-0.460
'0:01.064',-2.110,-0.520
'0:01.067',-2.145,-0.565
'0:01.069',-2.150,-0.630
'0:01.072',-2.135,-0.675
'0:01.075',-2.100,-0.680
'0:01.078',-2.095,-0.675
'0:01.081',-2.095,-0.650
'0:01.083',-2.080,-0.625
'0:01.086',-2.060,-0.645
'0:01.089',-2.010,-0.695
'0:01.092',-1.935,-0.735
'0:01.094',-1.875,-0.770
'0:01.097',-1.845,-0.805
'0:01.100',-1.805,-0.820
'0:01.103',-1.705,-0.800
'0:01.106',-1.585,-0.745
'0:01.108',-1.445,-0.660
'0:01.111',-1.305,-0.620
'0:01.114',-1.205,-0.600
'0:01.117',-1.145,-0.605
'0:01.119',-1.115,-0.620
'0:01.122',-1.105,-0.625
'0:01.125',-1.115,-0.605
'0:01.128',-1.140,-0.620
'0:01.131',-1.170,-0.605
'0:01.133',-1.160,-0.600
'0:01.136',-1.105,-0.570
'0:01.139',-1.030,-0.550
'0:01.142',-0.970,-0.550
'0:01.144',-0.970,-0.555
'0:01.147',-0.995,-0.565
'0:01.150',-1.040,-0.545
'0:01.153',-1.080,-0.560
'0:01.156',-1.100,-0.575
'0:01.158',-1.090,-0.605
'0:01.161',-1.070,-0.625
'0:01.164',-1.050,-0.660
'0:01.167',-1.025,-0.675
'0:01.169',-1.005,-0.675
'0:01.172',-0.990,-0.680
'0:01.175',-1.010,-0.665
'0:01.178',-1.020,-0.655
'0:01.181',-1.060,-0.655
'0:01.183',-1.065,-0.655
'0:01.186',-1.070,-0.655
'0:01.189',-1.065,-0.680
'0:01.192',-1.045,-0.705
'0:01.194',-1.050,-0.735
'0:01.197',-1.075,-0.765
'0:01.200',-1.105,-0.775
'0:01.203',-1.130,-0.775
'0:01.206',-1.150,-0.775
'0:01.208',-1.170,-0.760
'0:01.211',-1.185,-0.780
'0:01.214',-1.205,-0.800
'0:01.217',-1.185,-0.790
'0:01.219',-1.170,-0.820
'0:01.222',-1.155,-0.845
'0:01.225',-1.155,-0.870
'0:01.228',-1.160,-0.900
'0:01.231',-1.160,-0.900
'0:01.233',-1.170,-0.900
'0:01.236',-1.190,-0.885
'0:01.239',-1.245,-0.885
'0:01.242',-1.295,-0.895
'0:01.244',-1.310,-0.885
'0:01.247',-1.290,-0.905
'0:01.250',-1.240,-0.910
'0:01.253',-1.185,-0.935
'0:01.256',-1.160,-0.980
'0:01.258',-1.165,-1.010
'0:01.261',-1.240,-1.015
'0:01.264',-1.320,-0.995
'0:01.267',-1.375,-0.980
'0:01.269',-1.355,-0.960
'0:01.272',-1.265,-0.975
'0:01.275',-1.200,-0.990
'0:01.278',-1.165,-1.040
'0:01.281',-1.175,-1.060
'0:01.283',-1.220,-1.050
'0:01.286',-1.265,-1.005
'0:01.289',-1.280,-0.990
'0:01.292',-1.290,-0.990
'0:01.294',-1.260,-1.000
'0:01.297',-1.205,-1.040
'0:01.300',-1.215,-1.060
'0:01.303',-1.205,-1.065
'0:01.306',-1.205,-1.020
'0:01.308',-1.185,-0.950
'0:01.311',-1.185,-0.905
'0:01.314',-1.165,-0.870
'0:01.317',-1.125,-0.860
'0:01.319',-1.075,-0.880
'0:01.322',-1.010,-0.925
'0:01.325',-0.970,-0.935
'0:01.328',-0.980,-0.945
'0:01.331',-1.000,-0.940
'0:01.333',-1.040,-0.905
'0:01.336',-1.045,-0.875
'0:01.339',-1.010,-0.845
'0:01.342',-0.975,-0.820
'0:01.344',-0.970,-0.810
'0:01.347',-0.945,-0.770
'0:01.350',-0.950,-0.745
'0:01.353',-0.945,-0.715
'0:01.356',-0.910,-0.705
'0:01.358',-0.890,-0.685
'0:01.361',-0.885,-0.695
'0:01.364',-0.920,-0.720
'0:01.367',-0.935,-0.735
'0:01.369',-0.900,-0.735
'0:01.372',-0.860,-0.730
'0:01.375',-0.830,-0.720
'0:01.378',-0.830,-0.690
'0:01.381',-0.855,-0.685
'0:01.383',-0.900,-0.645
'0:01.386',-0.935,-0.645
'0:01.389',-0.940,-0.640
'0:01.392',-0.945,-0.650
'0:01.394',-0.935,-0.650
'0:01.397',-0.915,-0.650
'0:01.400',-0.870,-0.655
'0:01.403',-0.830,-0.650
'0:01.406',-0.815,-0.670
'0:01.408',-0.825,-0.665
'0:01.411',-0.850,-0.655
'0:01.414',-0.865,-0.650
'0:01.417',-0.870,-0.640
'0:01.419',-0.870,-0.635
'0:01.422',-0.855,-0.620
'0:01.425',-0.840,-0.615
'0:01.428',-0.855,-0.605
'0:01.431',-0.905,-0.600
'0:01.433',-0.960,-0.595
'0:01.436',-0.975,-0.585
'0:01.439',-0.950,-0.615
'0:01.442',-0.900,-0.610
'0:01.444',-0.865,-0.630
'0:01.447',-0.875,-0.625
'0:01.450',-0.920,-0.660
'0:01.453',-0.930,-0.655
'0:01.456',-0.950,-0.660
'0:01.458',-0.935,-0.650
'0:01.461',-0.950,-0.680
'0:01.464',-0.990,-0.690
'0:01.467',-1.000,-0.680
'0:01.469',-0.985,-0.690
'0:01.472',-0.955,-0.685
'0:01.475',-0.920,-0.680
'0:01.478',-0.900,-0.670
'0:01.481',-0.875,-0.665
'0:01.483',-0.865,-0.645
'0:01.486',-0.880,-0.650
'0:01.489',-0.895,-0.645
'0:01.492',-0.895,-0.665
'0:01.494',-0.900,-0.675
'0:01.497',-0.930,-0.665
'0:01.500',-0.950,-0.670
'0:01.503',-0.980,-0.655
'0:01.506',-0.945,-0.635
'0:01.508',-0.895,-0.620
'0:01.511',-0.870,-0.595
'0:01.514',-0.870,-0.595
'0:01.517',-0.915,-0.630
'0:01.519',-0.945,-0.635
'0:01.522',-0.955,-0.660
'0:01.525',-0.940,-0.655
'0:01.528',-0.905,-0.660
'0:01.531',-0.905,-0.645
'0:01.533',-0.935,-0.640
'0:01.536',-0.960,-0.645
'0:01.539',-0.955,-0.660
'0:01.542',-0.940,-0.665
'0:01.544',-0.885,-0.675
'0:01.547',-0.875,-0.670
'0:01.550',-0.840,-0.640
'0:01.553',-0.845,-0.620
'0:01.556',-0.850,-0.605
'0:01.558',-0.880,-0.575
'0:01.561',-0.920,-0.560
'0:01.564',-0.925,-0.540
'0:01.567',-0.895,-0.565
'0:01.569',-0.855,-0.590
'0:01.572',-0.835,-0.615
'0:01.575',-0.855,-0.610
'0:01.578',-0.860,-0.610
'0:01.581',-0.860,-0.610
'0:01.583',-0.855,-0.590
'0:01.586',-0.865,-0.595
'0:01.589',-0.900,-0.595
'0:01.592',-0.905,-0.590
'0:01.594',-0.900,-0.595
'0:01.597',-0.870,-0.630
'0:01.600',-0.850,-0.670
'0:01.603',-0.830,-0.725
'0:01.606',-0.850,-0.730
'0:01.608',-0.895,-0.730
'0:01.611',-0.920,-0.685
'0:01.614',-0.945,-0.645
'0:01.617',-0.930,-0.615
'0:01.619',-0.910,-0.605
'0:01.622',-0.875,-0.605
'0:01.625',-0.865,-0.625
'0:01.628',-0.870,-0.620
'0:01.631',-0.855,-0.610
'0:01.633',-0.855,-0.625
'0:01.636',-0.860,-0.635
'0:01.639',-0.855,-0.625
'0:01.642',-0.835,-0.600
'0:01.644',-0.820,-0.590
'0:01.647',-0.790,-0.590
'0:01.650',-0.775,-0.600
'0:01.653',-0.755,-0.630
'0:01.656',-0.755,-0.665
'0:01.658',-0.735,-0.700
'0:01.661',-0.720,-0.695
'0:01.664',-0.720,-0.710
'0:01.667',-0.710,-0.685
'0:01.669',-0.710,-0.635
'0:01.672',-0.700,-0.585
'0:01.675',-0.705,-0.535
'0:01.678',-0.720,-0.525
'0:01.681',-0.750,-0.535
'0:01.683',-0.770,-0.525
'0:01.686',-0.805,-0.570
'0:01.689',-0.815,-0.575
'0:01.692',-0.785,-0.610
'0:01.694',-0.715,-0.590
'0:01.697',-0.670,-0.585
'0:01.700',-0.630,-0.565
'0:01.703',-0.655,-0.545
'0:01.706',-0.685,-0.485
'0:01.708',-0.720,-0.445
'0:01.711',-0.715,-0.410
'0:01.714',-0.700,-0.385
'0:01.717',-0.745,-0.400
'0:01.719',-0.820,-0.435
'0:01.722',-0.895,-0.470
'0:01.725',-0.925,-0.490
'0:01.728',-0.910,-0.510
'0:01.731',-0.885,-0.545
'0:01.733',-0.865,-0.565
'0:01.736',-0.835,-0.590
'0:01.739',-0.845,-0.605
'0:01.742',-0.880,-0.610
'0:01.744',-0.895,-0.615
'0:01.747',-0.905,-0.610
'0:01.750',-0.925,-0.605
'0:01.753',-0.935,-0.595
'0:01.756',-0.965,-0.580
'0:01.758',-0.975,-0.575
'0:01.761',-0.980,-0.590
'0:01.764',-0.985,-0.605
'0:01.767',-0.990,-0.640
'0:01.769',-0.965,-0.665
'0:01.772',-0.935,-0.645
'0:01.775',-0.905,-0.655
'0:01.778',-0.895,-0.635
'0:01.781',-0.925,-0.620
'0:01.783',-0.960,-0.620
'0:01.786',-0.990,-0.620
'0:01.789',-1.030,-0.610
'0:01.792',-1.025,-0.620
'0:01.794',-1.000,-0.640
'0:01.797',-0.975,-0.655
'0:01.800',-0.975,-0.665
'0:01.803',-0.995,-0.675
'0:01.806',-1.000,-0.655
'0:01.808',-0.975,-0.620
'0:01.811',-0.935,-0.595
'0:01.814',-0.940,-0.575
'0:01.817',-0.925,-0.585
'0:01.819',-0.955,-0.615
'0:01.822',-0.990,-0.625
'0:01.825',-1.010,-0.635
'0:01.828',-1.015,-0.650
'0:01.831',-1.005,-0.675
'0:01.833',-1.025,-0.720
'0:01.836',-1.035,-0.800
'0:01.839',-1.015,-0.900
'0:01.842',-0.915,-1.025
'0:01.844',-0.765,-1.185
'0:01.847',-0.610,-1.370
'0:01.850',-0.455,-1.550
'0:01.853',-0.350,-1.705
'0:01.856',-0.325,-1.770
'0:01.858',-0.355,-1.720
'0:01.861',-0.400,-1.570
'0:01.864',-0.370,-1.370
'0:01.867',-0.230,-1.155
'0:01.869',-0.005,-0.970
'0:01.872',0.245,-0.755
'0:01.875',0.420,-0.505
'0:01.878',0.435,-0.200
'0:01.881',0.260,0.090
'0:01.883',-0.100,0.325
'0:01.886',-0.535,0.435
'0:01.889',-0.975,0.420
'0:01.892',-1.335,0.285
'0:01.894',-1.605,0.050
'0:01.897',-1.770,-0.165
'0:01.900',-1.865,-0.330
'0:01.903',-1.900,-0.410
'0:01.906',-1.930,-0.490
'0:01.908',-1.945,-0.525
'0:01.911',-1.985,-0.590
'0:01.914',-2.045,-0.655
'0:01.917',-2.085,-0.725
'0:01.919',-2.120,-0.765
'0:01.922',-2.110,-0.800
'0:01.925',-2.085,-0.795
'0:01.928',-2.090,-0.775
'0:01.931',-2.085,-0.760
'0:01.933',-2.065,-0.770
'0:01.936',-2.020,-0.765
'0:01.939',-1.970,-0.785
'0:01.942',-1.905,-0.780
'0:01.944',-1.830,-0.765
'0:01.947',-1.755,-0.765
'0:01.950',-1.660,-0.720
'0:01.953',-1.530,-0.670
'0:01.956',-1.400,-0.630
'0:01.958',-1.285,-0.595
'0:01.961',-1.185,-0.575
'0:01.964',-1.120,-0.560
'0:01.967',-1.110,-0.585
'0:01.969',-1.115,-0.585
'0:01.972',-1.130,-0.595
'0:01.975',-1.150,-0.535
'0:01.978',-1.125,-0.505
'0:01.981',-1.105,-0.465
'0:01.983',-1.060,-0.430
'0:01.986',-1.015,-0.420
'0:01.989',-1.010,-0.445
'0:01.992',-0.990,-0.485
'0:01.994',-0.970,-0.530
'0:01.997',-0.980,-0.525
'0:02.000',-1.040,-0.540
'0:02.003',-1.125,-0.540
'0:02.006',-1.180,-0.530
'0:02.008',-1.200,-0.500
'0:02.011',-1.145,-0.485
'0:02.014',-1.085,-0.490
'0:02.017',-1.025,-0.505
'0:02.019',-0.995,-0.530
'0:02.022',-0.955,-0.580
'0:02.025',-0.955,-0.600
'0:02.028',-0.975,-0.640
'0:02.031',-1.005,-0.650
'0:02.033',-1.080,-0.655
'0:02.036',-1.150,-0.645
'0:02.039',-1.185,-0.645
'0:02.042',-1.175,-0.665
'0:02.044',-1.160,-0.670
'0:02.047',-1.145,-0.685
'0:02.050',-1.155,-0.720
'0:02.053',-1.155,-0.740
'0:02.056',-1.160,-0.755
'0:02.058',-1.160,-0.775
'0:02.061',-1.205,-0.795
'0:02.064',-1.240,-0.810
'0:02.067',-1.285,-0.815
'0:02.069',-1.305,-0.825
'0:02.072',-1.305,-0.825
'0:02.075',-1.295,-0.805
'0:02.078',-1.270,-0.815
'0:02.081',-1.240,-0.815
'0:02.083',-1.220,-0.840
'0:02.086',-1.200,-0.860
'0:02.089',-1.195,-0.885
'0:02.092',-1.225,-0.875
'0:02.094',-1.265,-0.885
'0:02.097',-1.285,-0.870
'0:02.100',-1.320,-0.860
'0:02.103',-1.340,-0.880
'0:02.106',-1.360,-0.895
'0:02.108',-1.360,-0.910
'0:02.111',-1.355,-0.925
'0:02.114',-1.305,-0.940
'0:02.117',-1.240,-0.940
'0:02.119',-1.210,-0.965
'0:02.122',-1.210,-0.940
'0:02.125',-1.200,-0.970
'0:02.128',-1.230,-0.975
'0:02.131',-1.265,-0.980
'0:02.133',-1.290,-0.985
'0:02.136',-1.315,-0.990
'0:02.139',-1.335,-0.985
'0:02.142',-1.320,-0.965
'0:02.144',-1.310,-0.945
'0:02.147',-1.275,-0.910
'0:02.150',-1.245,-0.880
'0:02.153',-1.200,-0.875
'0:02.156',-1.170,-0.870
'0:02.158',-1.165,-0.860
'0:02.161',-1.125,-0.865
'0:02.164',-1.125,-0.865
'0:02.167',-1.095,-0.870
'0:02.169',-1.065,-0.850
'0:02.172',-1.055,-0.815
'0:02.175',-1.035,-0.770
'0:02.178',-1.020,-0.765
'0:02.181',-1.015,-0.730
'0:02.183',-1.065,-0.695
'0:02.186',-1.130,-0.700
'0:02.189',-1.160,-0.680
'0:02.192',-1.070,-0.685
'0:02.194',-0.975,-0.680
'0:02.197',-0.885,-0.720
'0:02.200',-0.840,-0.730
'0:02.203',-0.845,-0.745
'0:02.206',-0.865,-0.720
'0:02.208',-0.920,-0.675
'0:02.211',-0.945,-0.620
'0:02.214',-0.950,-0.590
'0:02.217',-0.935,-0.565
'0:02.219',-0.935,-0.570
'0:02.222',-0.955,-0.595
'0:02.225',-0.970,-0.600
'0:02.228',-0.965,-0.605
'0:02.231',-0.950,-0.625
'0:02.233',-0.930,-0.615
'0:02.236',-0.935,-0.610
'0:02.239',-0.940,-0.585
'0:02.242',-0.965,-0.565
'0:02.244',-0.945,-0.540
'0:02.247',-0.965,-0.535
'0:02.250',-0.970,-0.530
'0:02.253',-0.975,-0.520
'0:02.256',-0.960,-0.510
'0:02.258',-0.990,-0.510
'0:02.261',-1.030,-0.495
'0:02.264',-1.080,-0.495
'0:02.267',-1.030,-0.485
'0:02.269',-0.950,-0.505
'0:02.272',-0.865,-0.510
'0:02.275',-0.815,-0.550
'0:02.278',-0.815,-0.575
'0:02.281',-0.835,-0.580
'0:02.283',-0.900,-0.550
'0:02.286',-0.960,-0.525
'0:02.289',-1.015,-0.510
'0:02.292',-1.040,-0.485
'0:02.294',-1.055,-0.495
'0:02.297',-1.020,-0.535
'0:02.300',-1.005,-0.545
'0:02.303',-0.995,-0.565
'0:02.306',-1.005,-0.555
'0:02.308',-1.020,-0.515
'0:02.311',-1.045,-0.500
'0:02.314',-1.035,-0.505
'0:02.317',-1.010,-0.505
'0:02.319',-0.950,-0.525
'0:02.322',-0.925,-0.540
'0:02.325',-0.915,-0.555
'0:02.328',-0.925,-0.540
'0:02.331',-0.950,-0.525
'0:02.333',-0.970,-0.515
'0:02.336',-1.015,-0.485
'0:02.339',-1.025,-0.485
'0:02.342',-0.995,-0.490
'0:02.344',-0.950,-0.515
'0:02.347',-0.905,-0.510
'0:02.350',-0.895,-0.515
'0:02.353',-0.925,-0.520
'0:02.356',-0.940,-0.535
'0:02.358',-0.955,-0.525
'0:02.361',-0.970,-0.515
'0:02.364',-0.975,-0.510
'0:02.367',-0.990,-0.515
'0:02.369',-1.005,-0.515
'0:02.372',-1.025,-0.500
'0:02.375',-1.045,-0.495
'0:02.378',-1.025,-0.490
'0:02.381',-0.990,-0.505
'0:02.383',-0.960,-0.505
'0:02.386',-0.945,-0.510
'0:02.389',-0.915,-0.515
'0:02.392',-0.915,-0.520
'0:02.394',-0.905,-0.495
'0:02.397',-0.910,-0.465
'0:02.400',-0.915,-0.470
'0:02.403',-0.940,-0.470
'0:02.406',-0.935,-0.455
'0:02.408',-0.935,-0.445
'0:02.411',-0.970,-0.445
'0:02.414',-0.985,-0.475
'0:02.417',-0.985,-0.475
'0:02.419',-0.950,-0.500
'0:02.422',-0.900,-0.505
'0:02.425',-0.835,-0.515
'0:02.428',-0.780,-0.505
'0:02.431',-0.775,-0.520
'0:02.433',-0.795,-0.505
'0:02.436',-0.850,-0.510
'0:02.439',-0.910,-0.485
'0:02.442',-0.955,-0.450
'0:02.444',-0.965,-0.460
'0:02.447',-0.945,-0.435
'0:02.450',-0.935,-0.440
'0:02.453',-0.910,-0.445
'0:02.456',-0.915,-0.465
'0:02.458',-0.925,-0.470
'0:02.461',-0.950,-0.470
'0:02.464',-0.955,-0.455
'0:02.467',-0.945,-0.450
'0:02.469',-0.935,-0.455
'0:02.472',-0.900,-0.455
'0:02.475',-0.900,-0.455
'0:02.478',-0.855,-0.455
'0:02.481',-0.835,-0.455
'0:02.483',-0.850,-0.455
'0:02.486',-0.870,-0.470
'0:02.489',-0.865,-0.455
'0:02.492',-0.850,-0.470
'0:02.494',-0.800,-0.495
'0:02.497',-0.795,-0.525
'0:02.500',-0.790,-0.530
'0:02.503',-0.765,-0.535
'0:02.506',-0.745,-0.550
'0:02.508',-0.745,-0.535
'0:02.511',-0.745,-0.500
'0:02.514',-0.760,-0.485
'0:02.517',-0.760,-0.475
'0:02.519',-0.730,-0.440
'0:02.522',-0.715,-0.445
'0:02.525',-0.715,-0.420
'0:02.528',-0.740,-0.415
'0:02.531',-0.760,-0.410
'0:02.533',-0.805,-0.425
'0:02.536',-0.840,-0.440
'0:02.539',-0.875,-0.450
'0:02.542',-0.855,-0.440
'0:02.544',-0.820,-0.440
'0:02.547',-0.750,-0.420
'0:02.550',-0.700,-0.395
'0:02.553',-0.660,-0.375
'0:02.556',-0.625,-0.350
'0:02.558',-0.640,-0.330
'0:02.561',-0.695,-0.325
'0:02.564',-0.775,-0.305
'0:02.567',-0.910,-0.295
'0:02.569',-0.960,-0.325
'0:02.572',-0.960,-0.340
'0:02.575',-0.930,-0.400
'0:02.578',-0.895,-0.440
'0:02.581',-0.855,-0.455
'0:02.583',-0.860,-0.455
'0:02.586',-0.870,-0.450
'0:02.589',-0.895,-0.425
'0:02.592',-0.890,-0.410
'0:02.594',-0.915,-0.415
'0:02.597',-0.965,-0.400
'0:02.600',-1.030,-0.420
'0:02.603',-1.085,-0.425
'0:02.606',-1.070,-0.440
'0:02.608',-1.050,-0.435
'0:02.611',-1.030,-0.440
'0:02.614',-1.005,-0.455
'0:02.617',-0.980,-0.435
'0:02.619',-0.965,-0.430
'0:02.622',-0.955,-0.425
'0:02.625',-0.950,-0.420
'0:02.628',-0.940,-0.450
'0:02.631',-0.920,-0.450
'0:02.633',-0.870,-0.475
'0:02.636',-0.845,-0.480
'0:02.639',-0.860,-0.470
'0:02.642',-0.870,-0.445
'0:02.644',-0.895,-0.435
'0:02.647',-0.900,-0.420
'0:02.650',-0.905,-0.430
'0:02.653',-0.900,-0.445
'0:02.656',-0.940,-0.500
'0:02.658',-0.935,-0.525
'0:02.661',-0.925,-0.550
'0:02.664',-0.935,-0.565
'0:02.667',-0.935,-0.565
'0:02.669',-0.975,-0.540
'0:02.672',-1.015,-0.530
'0:02.675',-1.030,-0.520
'0:02.678',-1.050,-0.565
'0:02.681',-1.050,-0.600
'0:02.683',-1.015,-0.685
'0:02.686',-0.940,-0.780
'0:02.689',-0.840,-0.885
'0:02.692',-0.725,-1.000
'0:02.694',-0.595,-1.120
'0:02.697',-0.460,-1.215
'0:02.700',-0.320,-1.320
'0:02.703',-0.220,-1.360
'0:02.706',-0.185,-1.340
'0:02.708',-0.190,-1.250
'0:02.711',-0.215,-1.130
'0:02.714',-0.190,-0.990
'0:02.717',-0.140,-0.835
'0:02.719',0.010,-0.705
'0:02.722',0.175,-0.525
'0:02.725',0.290,-0.280
'0:02.728',0.295,0.040
'0:02.731',0.135,0.370
'0:02.733',-0.175,0.625
'0:02.736',-0.605,0.740
'0:02.739',-1.035,0.710
'0:02.742',-1.415,0.520
'0:02.744',-1.670,0.255
'0:02.747',-1.845,-0.030
'0:02.750',-1.940,-0.235
'0:02.753',-1.985,-0.375
'0:02.756',-2.015,-0.435
'0:02.758',-2.020,-0.480
'0:02.761',-2.010,-0.520
'0:02.764',-2.020,-0.555
'0:02.767',-2.050,-0.590
'0:02.769',-2.090,-0.630
'0:02.772',-2.115,-0.640
'0:02.775',-2.135,-0.635
'0:02.778',-2.145,-0.615
'0:02.781',-2.150,-0.585
'0:02.783',-2.130,-0.580
'0:02.786',-2.095,-0.580
'0:02.789',-1.990,-0.600
'0:02.792',-1.875,-0.650
'0:02.794',-1.760,-0.660
'0:02.797',-1.620,-0.665
'0:02.800',-1.465,-0.645
'0:02.803',-1.355,-0.580
'0:02.806',-1.235,-0.495
'0:02.808',-1.175,-0.430
'0:02.811',-1.135,-0.365
'0:02.814',-1.140,-0.330
'0:02.817',-1.125,-0.335
'0:02.819',-1.115,-0.350
'0:02.822',-1.090,-0.395
'0:02.825',-1.055,-0.435
'0:02.828',-1.040,-0.445
'0:02.831',-1.025,-0.420
'0:02.833',-1.070,-0.370
'0:02.836',-1.125,-0.300
'0:02.839',-1.160,-0.265
'0:02.842',-1.120,-0.260
'0:02.844',-1.070,-0.285
'0:02.847',-1.030,-0.340
'0:02.850',-1.030,-0.395
'0:02.853',-1.025,-0.435
'0:02.856',-1.050,-0.450
'0:02.858',-1.075,-0.460
'0:02.861',-1.095,-0.460
'0:02.864',-1.110,-0.470
'0:02.867',-1.125,-0.460
'0:02.869',-1.115,-0.480
'0:02.872',-1.120,-0.470
'0:02.875',-1.115,-0.485
'0:02.878',-1.125,-0.465
'0:02.881',-1.140,-0.500
'0:02.883',-1.140,-0.525
'0:02.886',-1.140,-0.555
'0:02.889',-1.150,-0.595
'0:02.892',-1.165,-0.605
'0:02.894',-1.185,-0.645
'0:02.897',-1.190,-0.635
'0:02.900',-1.210,-0.635
'0:02.903',-1.210,-0.630
'0:02.906',-1.225,-0.605
'0:02.908',-1.220,-0.610
'0:02.911',-1.230,-0.630
'0:02.914',-1.245,-0.645
'0:02.917',-1.250,-0.670
'0:02.919',-1.265,-0.705
'0:02.922',-1.285,-0.755
'0:02.925',-1.295,-0.765
'0:02.928',-1.300,-0.780
'0:02.931',-1.320,-0.780
'0:02.933',-1.320,-0.785
'0:02.936',-1.315,-0.790
'0:02.939',-1.295,-0.765
'0:02.942',-1.295,-0.770
'0:02.944',-1.315,-0.775
'0:02.947',-1.345,-0.800
'0:02.950',-1.365,-0.795
'0:02.953',-1.390,-0.805
'0:02.956',-1.365,-0.825
'0:02.958',-1.330,-0.830
'0:02.961',-1.310,-0.845
'0:02.964',-1.305,-0.860
'0:02.967',-1.300,-0.875
'0:02.969',-1.310,-0.875
'0:02.972',-1.315,-0.860
'0:02.975',-1.310,-0.840
'0:02.978',-1.315,-0.830
'0:02.981',-1.300,-0.815
'0:02.983',-1.280,-0.800
'0:02.986',-1.250,-0.800
'0:02.989',-1.230,-0.775
'0:02.992',-1.215,-0.765
'0:02.994',-1.195,-0.760
'0:02.997',-1.205,-0.755
'0:03.000',-1.200,-0.755
'0:03.003',-1.190,-0.745
'0:03.006',-1.170,-0.735
'0:03.008',-1.145,-0.720
'0:03.011',-1.110,-0.685
'0:03.014',-1.090,-0.680
'0:03.017',-1.075,-0.660
'0:03.019',-1.045,-0.640
'0:03.022',-1.015,-0.620
'0:03.025',-1.000,-0.600
'0:03.028',-1.000,-0.580
'0:03.031',-1.020,-0.540
'0:03.033',-1.045,-0.510
'0:03.036',-1.045,-0.485
'0:03.039',-1.010,-0.495
'0:03.042',-0.990,-0.475
'0:03.044',-0.965,-0.460
'0:03.047',-0.950,-0.445
'0:03.050',-0.945,-0.450
'0:03.053',-0.945,-0.455
'0:03.056',-0.940,-0.460
'0:03.058',-0.945,-0.470
'0:03.061',-0.945,-0.480
'0:03.064',-0.970,-0.475
'0:03.067',-0.960,-0.465
'0:03.069',-0.950,-0.420
'0:03.072',-0.955,-0.380
'0:03.075',-0.945,-0.370
'0:03.078',-0.950,-0.355
'0:03.081',-0.975,-0.340
'0:03.083',-0.970,-0.370
'0:03.086',-0.960,-0.370
'0:03.089',-0.970,-0.385
'0:03.092',-0.975,-0.400
'0:03.094',-0.965,-0.410
'0:03.097',-0.980,-0.420
'0:03.100',-0.965,-0.420
'0:03.103',-0.975,-0.425
'0:03.106',-0.970,-0.425
'0:03.108',-0.965,-0.435
'0:03.111',-0.970,-0.435
'0:03.114',-0.990,-0.420
'0:03.117',-1.000,-0.440
'0:03.119',-1.015,-0.440
'0:03.122',-1.005,-0.470
'0:03.125',-1.015,-0.480
'0:03.128',-1.020,-0.465
'0:03.131',-1.025,-0.455
'0:03.133',-1.015,-0.420
'0:03.136',-1.005,-0.415
'0:03.139',-1.000,-0.385
'0:03.142',-0.995,-0.385
'0:03.144',-0.990,-0.400
'0:03.147',-0.985,-0.385
'0:03.150',-0.975,-0.400
'0:03.153',-0.975,-0.390
'0:03.156',-1.000,-0.425
'0:03.158',-1.015,-0.435
'0:03.161',-0.990,-0.455
'0:03.164',-0.980,-0.450
'0:03.167',-0.960,-0.465
'0:03.169',-0.970,-0.440
'0:03.172',-1.005,-0.430
'0:03.175',-1.020,-0.440
'0:03.178',-1.030,-0.435
'0:03.181',-1.050,-0.450
'0:03.183',-1.040,-0.465
'0:03.186',-1.025,-0.470
'0:03.189',-1.045,-0.475
'0:03.192',-1.045,-0.470
'0:03.194',-1.045,-0.470
'0:03.197',-1.050,-0.470
'0:03.200',-1.035,-0.465
'0:03.203',-1.055,-0.475
'0:03.206',-1.045,-0.450
'0:03.208',-1.040,-0.455
'0:03.211',-1.035,-0.435
'0:03.214',-1.015,-0.425
'0:03.217',-1.025,-0.440
'0:03.219',-1.010,-0.430
'0:03.222',-1.020,-0.425
'0:03.225',-1.010,-0.440
'0:03.228',-1.020,-0.460
'0:03.231',-0.995,-0.475
'0:03.233',-0.995,-0.470
'0:03.236',-0.990,-0.470
'0:03.239',-0.985,-0.435
'0:03.242',-1.000,-0.455
'0:03.244',-1.030,-0.430
'0:03.247',-1.035,-0.425
'0:03.250',-1.045,-0.435
'0:03.253',-1.065,-0.470
'0:03.256',-1.080,-0.480
'0:03.258',-1.090,-0.485
'0:03.261',-1.095,-0.505
'0:03.264',-1.080,-0.515
'0:03.267',-1.055,-0.520
'0:03.269',-1.045,-0.500
'0:03.272',-1.040,-0.475
'0:03.275',-1.050,-0.465
'0:03.278',-1.040,-0.455
'0:03.281',-1.050,-0.470
'0:03.283',-1.055,-0.480
'0:03.286',-1.035,-0.495
'0:03.289',-1.025,-0.500
'0:03.292',-1.020,-0.500
'0:03.294',-0.995,-0.515
'0:03.297',-0.985,-0.490
'0:03.300',-0.960,-0.470
'0:03.303',-0.950,-0.430
'0:03.306',-0.950,-0.400
'0:03.308',-0.960,-0.405
'0:03.311',-0.950,-0.410
'0:03.314',-0.965,-0.410
'0:03.317',-0.985,-0.425
'0:03.319',-0.980,-0.445
'0:03.322',-0.965,-0.465
'0:03.325',-0.945,-0.500
'0:03.328',-0.960,-0.505
'0:03.331',-0.955,-0.515
'0:03.333',-0.950,-0.525
'0:03.336',-0.960,-0.520
'0:03.339',-0.950,-0.515
'0:03.342',-0.935,-0.515
'0:03.344',-0.910,-0.500
'0:03.347',-0.860,-0.510
'0:03.350',-0.825,-0.500
'0:03.353',-0.800,-0.500
'0:03.356',-0.795,-0.480
'0:03.358',-0.785,-0.435
'0:03.361',-0.810,-0.395
'0:03.364',-0.835,-0.365
'0:03.367',-0.855,-0.370
'0:03.369',-0.885,-0.355
'0:03.372',-0.895,-0.405
'0:03.375',-0.905,-0.420
'0:03.378',-0.900,-0.460
'0:03.381',-0.875,-0.460
'0:03.383',-0.840,-0.450
'0:03.386',-0.805,-0.400
'0:03.389',-0.805,-0.345
'0:03.392',-0.790,-0.335
'0:03.394',-0.805,-0.290
'0:03.397',-0.810,-0.270
'0:03.400',-0.840,-0.260
'0:03.403',-0.855,-0.270
'0:03.406',-0.870,-0.295
'0:03.408',-0.895,-0.320
'0:03.411',-0.915,-0.355
'0:03.414',-0.935,-0.360
'0:03.417',-0.950,-0.385
'0:03.419',-0.960,-0.385
'0:03.422',-0.970,-0.405
'0:03.425',-0.965,-0.405
'0:03.428',-0.975,-0.415
'0:03.431',-0.965,-0.420
'0:03.433',-0.970,-0.450
'0:03.436',-0.975,-0.430
'0:03.439',-0.985,-0.445
'0:03.442',-0.995,-0.440
'0:03.444',-1.010,-0.440
'0:03.447',-1.000,-0.430
'0:03.450',-0.995,-0.455
'0:03.453',-1.005,-0.450
'0:03.456',-1.025,-0.445
'0:03.458',-1.045,-0.460
'0:03.461',-1.055,-0.425
'0:03.464',-1.065,-0.450
'0:03.467',-1.065,-0.475
'0:03.469',-1.075,-0.475
'0:03.472',-1.075,-0.490
'0:03.475',-1.060,-0.475
'0:03.478',-1.060,-0.465
'0:03.481',-1.060,-0.455
'0:03.483',-1.050,-0.505
'0:03.486',-1.045,-0.495
'0:03.489',-1.060,-0.530
'0:03.492',-1.065,-0.540
'0:03.494',-1.105,-0.535
'0:03.497',-1.125,-0.545
'0:03.500',-1.165,-0.555
'0:03.503',-1.175,-0.550
'0:03.506',-1.165,-0.555
'0:03.508',-1.130,-0.565
'0:03.511',-1.095,-0.565
'0:03.514',-1.090,-0.550
'0:03.517',-1.075,-0.535
'0:03.519',-1.080,-0.545
'0:03.522',-1.055,-0.590
'0:03.525',-1.060,-0.645
'0:03.528',-1.000,-0.740
'0:03.531',-0.910,-0.840
'0:03.533',-0.805,-0.970
'0:03.536',-0.660,-1.100
'0:03.539',-0.515,-1.205
'0:03.542',-0.360,-1.315
'0:03.544',-0.240,-1.375
'0:03.547',-0.185,-1.415
'0:03.550',-0.190,-1.355
'0:03.553',-0.205,-1.250
'0:03.556',-0.200,-1.110
'0:03.558',-0.160,-0.970
'0:03.561',-0.065,-0.790
'0:03.564',0.070,-0.635
'0:03.567',0.205,-0.455
'0:03.569',0.280,-0.220
'0:03.572',0.275,0.085
'0:03.575',0.140,0.370
'0:03.578',-0.120,0.615
'0:03.581',-0.495,0.730
'0:03.583',-0.905,0.690
'0:03.586',-1.280,0.515
'0:03.589',-1.575,0.240
'0:03.592',-1.765,-0.040
'0:03.594',-1.865,-0.270
'0:03.597',-1.905,-0.395
'0:03.600',-1.940,-0.460
'0:03.603',-1.970,-0.490
'0:03.606',-2.000,-0.540
'0:03.608',-2.030,-0.580
'0:03.611',-2.045,-0.630
'0:03.614',-2.050,-0.660
'0:03.617',-2.060,-0.670
'0:03.619',-2.085,-0.665
'0:03.622',-2.085,-0.675
'0:03.625',-2.095,-0.640
'0:03.628',-2.075,-0.625
'0:03.631',-2.045,-0.630
'0:03.633',-2.025,-0.645
'0:03.636',-1.975,-0.675
'0:03.639',-1.895,-0.670
'0:03.642',-1.785,-0.675
'0:03.644',-1.650,-0.660
'0:03.647',-1.505,-0.625
'0:03.650',-1.355,-0.585
'0:03.653',-1.245,-0.505
'0:03.656',-1.150,-0.460
'0:03.658',-1.085,-0.415
'0:03.661',-1.065,-0.385
'0:03.664',-1.090,-0.370
'0:03.667',-1.080,-0.395
'0:03.669',-1.095,-0.385
'0:03.672',-1.090,-0.385
'0:03.675',-1.055,-0.390
'0:03.678',-1.025,-0.365
'0:03.681',-1.005,-0.345
'0:03.683',-0.990,-0.350
'0:03.686',-0.980,-0.350
'0:03.689',-0.980,-0.370
'0:03.692',-0.995,-0.380
'0:03.694',-1.010,-0.390
'0:03.697',-1.030,-0.400
'0:03.700',-1.030,-0.400
'0:03.703',-1.040,-0.400
'0:03.706',-1.040,-0.385
'0:03.708',-1.030,-0.395
'0:03.711',-1.025,-0.390
'0:03.714',-1.015,-0.400
'0:03.717',-1.030,-0.415
'0:03.719',-1.040,-0.435
'0:03.722',-1.065,-0.465
'0:03.725',-1.075,-0.490
'0:03.728',-1.100,-0.495
'0:03.731',-1.105,-0.510
'0:03.733',-1.095,-0.535
'0:03.736',-1.100,-0.530
'0:03.739',-1.115,-0.550
'0:03.742',-1.115,-0.560
'0:03.744',-1.125,-0.565
'0:03.747',-1.130,-0.590
'0:03.750',-1.110,-0.590
'0:03.753',-1.130,-0.605
'0:03.756',-1.155,-0.630
'0:03.758',-1.170,-0.665
'0:03.761',-1.205,-0.675
'0:03.764',-1.215,-0.685
'0:03.767',-1.230,-0.715
'0:03.769',-1.240,-0.730
'0:03.772',-1.240,-0.740
'0:03.775',-1.235,-0.740
'0:03.778',-1.245,-0.740
'0:03.781',-1.235,-0.745
'0:03.783',-1.250,-0.735
'0:03.786',-1.260,-0.750
'0:03.789',-1.250,-0.775
'0:03.792',-1.270,-0.805
'0:03.794',-1.270,-0.815
'0:03.797',-1.290,-0.825
'0:03.800',-1.305,-0.855
'0:03.803',-1.310,-0.845
'0:03.806',-1.325,-0.845
'0:03.808',-1.320,-0.850
'0:03.811',-1.310,-0.850
'0:03.814',-1.300,-0.845
'0:03.817',-1.285,-0.855
'0:03.819',-1.270,-0.865
'0:03.822',-1.275,-0.860
'0:03.825',-1.270,-0.880
'0:03.828',-1.265,-0.865
'0:03.831',-1.270,-0.870
'0:03.833',-1.250,-0.865
'0:03.836',-1.275,-0.860
'0:03.839',-1.235,-0.855
'0:03.842',-1.215,-0.850
'0:03.844',-1.185,-0.825
'0:03.847',-1.160,-0.810
'0:03.850',-1.155,-0.790
'0:03.853',-1.135,-0.775
'0:03.856',-1.130,-0.770
'0:03.858',-1.130,-0.765
'0:03.861',-1.120,-0.750
'0:03.864',-1.095,-0.745
'0:03.867',-1.080,-0.740
'0:03.869',-1.070,-0.710
'0:03.872',-1.055,-0.670
'0:03.875',-1.030,-0.650
'0:03.878',-1.015,-0.625
'0:03.881',-0.990,-0.600
'0:03.883',-0.990,-0.590
'0:03.886',-0.975,-0.615
'0:03.889',-0.950,-0.620
'0:03.892',-0.945,-0.625
'0:03.894',-0.945,-0.605
'0:03.897',-0.940,-0.615
'0:03.900',-0.935,-0.585
'0:03.903',-0.930,-0.560
'0:03.906',-0.925,-0.540
'0:03.908',-0.900,-0.520
'0:03.911',-0.900,-0.520
'0:03.914',-0.875,-0.510
'0:03.917',-0.870,-0.485
'0:03.919',-0.875,-0.490
'0:03.922',-0.870,-0.495
'0:03.925',-0.865,-0.500
'0:03.928',-0.880,-0.495
'0:03.931',-0.885,-0.505
'0:03.933',-0.895,-0.500
'0:03.936',-0.890,-0.495
'0:03.939',-0.890,-0.495
'0:03.942',-0.890,-0.475
'0:03.944',-0.880,-0.470
'0:03.947',-0.880,-0.445
'0:03.950',-0.855,-0.450
'0:03.953',-0.865,-0.455
'0:03.956',-0.855,-0.445
'0:03.958',-0.880,-0.470
'0:03.961',-0.885,-0.470
'0:03.964',-0.880,-0.495
'0:03.967',-0.885,-0.495
'0:03.969',-0.890,-0.500
'0:03.972',-0.885,-0.480
'0:03.975',-0.900,-0.465
'0:03.978',-0.880,-0.455
'0:03.981',-0.870,-0.440
'0:03.983',-0.870,-0.445
'0:03.986',-0.885,-0.445
'0:03.989',-0.875,-0.445
'0:03.992',-0.885,-0.450
'0:03.994',-0.900,-0.455
'0:03.997',-0.905,-0.470
'0:04.000',-0.890,-0.490
'0:04.003',-0.900,-0.480
'0:04.006',-0.905,-0.480
'0:04.008',-0.895,-0.450
'0:04.011',-0.890,-0.440
'0:04.014',-0.890,-0.435
'0:04.017',-0.870,-0.420
'0:04.019',-0.870,-0.430
'0:04.022',-0.890,-0.435
'0:04.025',-0.885,-0.465
'0:04.028',-0.920,-0.480
'0:04.031',-0.910,-0.485
'0:04.033',-0.915,-0.475
'0:04.036',-0.905,-0.485
'0:04.039',-0.920,-0.480
'0:04.042',-0.880,-0.475
'0:04.044',-0.885,-0.465
'0:04.047',-0.860,-0.460
'0:04.050',-0.865,-0.455
'0:04.053',-0.880,-0.455
'0:04.056',-0.870,-0.480
'0:04.058',-0.875,-0.495
'0:04.061',-0.885,-0.495
'0:04.064',-0.890,-0.510
'0:04.067',-0.895,-0.510
'0:04.069',-0.895,-0.500
'0:04.072',-0.890,-0.500
'0:04.075',-0.880,-0.475
'0:04.078',-0.865,-0.475
'0:04.081',-0.855,-0.455
'0:04.083',-0.855,-0.475
'0:04.086',-0.870,-0.485
'0:04.089',-0.885,-0.480
'0:04.092',-0.885,-0.500
'0:04.094',-0.880,-0.500
'0:04.097',-0.880,-0.525
'0:04.100',-0.890,-0.515
'0:04.103',-0.890,-0.510
'0:04.106',-0.875,-0.500
'0:04.108',-0.870,-0.500
'0:04.111',-0.875,-0.485
'0:04.114',-0.850,-0.475
'0:04.117',-0.850,-0.485
'0:04.119',-0.855,-0.480
'0:04.122',-0.850,-0.500
'0:04.125',-0.860,-0.500
'0:04.128',-0.860,-0.505
'0:04.131',-0.870,-0.515
'0:04.133',-0.865,-0.505
'0:04.136',-0.890,-0.535
'0:04.139',-0.875,-0.515
'0:04.142',-0.855,-0.520
'0:04.144',-0.835,-0.480
'0:04.147',-0.835,-0.485
'0:04.150',-0.825,-0.470
'0:04.153',-0.840,-0.465
'0:04.156',-0.840,-0.455
'0:04.158',-0.815,-0.450
'0:04.161',-0.825,-0.470
'0:04.164',-0.825,-0.490
'0:04.167',-0.820,-0.470
'0:04.169',-0.820,-0.495
'0:04.172',-0.795,-0.485
'0:04.175',-0.795,-0.480
'0:04.178',-0.765,-0.505
'0:04.181',-0.750,-0.490
'0:04.183',-0.730,-0.515
'0:04.186',-0.720,-0.535
'0:04.189',-0.730,-0.525
'0:04.192',-0.730,-0.545
'0:04.194',-0.720,-0.550
'0:04.197',-0.705,-0.550
'0:04.200',-0.680,-0.540
'0:04.203',-0.670,-0.540
'0:04.206',-0.655,-0.495
'0:04.208',-0.660,-0.470
'0:04.211',-0.660,-0.445
'0:04.214',-0.650,-0.430
'0:04.217',-0.645,-0.435
'0:04.219',-0.690,-0.460
'0:04.222',-0.700,-0.465
'0:04.225',-0.725,-0.495
'0:04.228',-0.735,-0.505
'0:04.231',-0.725,-0.500
'0:04.233',-0.710,-0.495
'0:04.236',-0.670,-0.455
'0:04.239',-0.645,-0.425
'0:04.242',-0.615,-0.370
'0:04.244',-0.610,-0.330
'0:04.247',-0.605,-0.305
'0:04.250',-0.625,-0.300
'0:04.253',-0.680,-0.335
'0:04.256',-0.710,-0.365
'0:04.258',-0.735,-0.410
'0:04.261',-0.760,-0.480
'0:04.264',-0.780,-0.495
'0:04.267',-0.785,-0.490
'0:04.269',-0.805,-0.475
'0:04.272',-0.820,-0.450
'0:04.275',-0.815,-0.445
'0:04.278',-0.830,-0.445
'0:04.281',-0.825,-0.440
'0:04.283',-0.815,-0.455
'0:04.286',-0.825,-0.480
'0:04.289',-0.855,-0.505
'0:04.292',-0.855,-0.520
'0:04.294',-0.860,-0.515
'0:04.297',-0.860,-0.515
'0:04.300',-0.865,-0.500
'0:04.303',-0.870,-0.470
'0:04.306',-0.875,-0.485
'0:04.308',-0.850,-0.470
'0:04.311',-0.840,-0.485
'0:04.314',-0.845,-0.480
'0:04.317',-0.840,-0.485
'0:04.319',-0.850,-0.490
'0:04.322',-0.845,-0.500
'0:04.325',-0.845,-0.510
'0:04.328',-0.845,-0.525
'0:04.331',-0.850,-0.535
'0:04.333',-0.845,-0.525
'0:04.336',-0.845,-0.535
'0:04.339',-0.840,-0.530
'0:04.342',-0.825,-0.520
'0:04.344',-0.840,-0.515
'0:04.347',-0.825,-0.520
'0:04.350',-0.825,-0.520
'0:04.353',-0.825,-0.535
'0:04.356',-0.835,-0.555
'0:04.358',-0.860,-0.580
'0:04.361',-0.875,-0.605
'0:04.364',-0.895,-0.650
'0:04.367',-0.905,-0.725
'0:04.369',-0.895,-0.770
'0:04.372',-0.840,-0.870
'0:04.375',-0.745,-0.970
'0:04.378',-0.610,-1.105
'0:04.381',-0.455,-1.235
'0:04.383',-0.320,-1.380
'0:04.386',-0.205,-1.480
'0:04.389',-0.185,-1.540
'0:04.392',-0.185,-1.520
'0:04.394',-0.215,-1.425
'0:04.397',-0.260,-1.300
'0:04.400',-0.230,-1.145
'0:04.403',-0.180,-0.980
'0:04.406',-0.045,-0.800
'0:04.408',0.130,-0.585
'0:04.411',0.270,-0.345
'0:04.414',0.345,-0.015
'0:04.417',0.275,0.285
'0:04.419',0.035,0.535
'0:04.422',-0.335,0.650
'0:04.425',-0.730,0.615
'0:04.428',-1.090,0.435
'0:04.431',-1.345,0.190
'0:04.433',-1.510,-0.065
'0:04.436',-1.615,-0.245
'0:04.439',-1.685,-0.380
'0:04.442',-1.720,-0.450
'0:04.444',-1.770,-0.475
'0:04.447',-1.805,-0.515
'0:04.450',-1.830,-0.550
'0:04.453',-1.850,-0.605
'0:04.456',-1.855,-0.645
'0:04.458',-1.865,-0.670
'0:04.461',-1.875,-0.675
'0:04.464',-1.870,-0.685
'0:04.467',-1.870,-0.680
'0:04.469',-1.885,-0.680
'0:04.472',-1.850,-0.670
'0:04.475',-1.805,-0.655
'0:04.478',-1.750,-0.680
'0:04.481',-1.655,-0.695
'0:04.483',-1.500,-0.695
'0:04.486',-1.355,-0.660
'0:04.489',-1.200,-0.635
'0:04.492',-1.065,-0.585
'0:04.494',-0.970,-0.540
'0:04.497',-0.915,-0.520
'0:04.500',-0.880,-0.475
'0:04.503',-0.885,-0.475
'0:04.506',-0.885,-0.465
'0:04.508',-0.860,-0.455
'0:04.511',-0.850,-0.455
'0:04.514',-0.840,-0.465
'0:04.517',-0.815,-0.475
'0:04.519',-0.830,-0.465
'0:04.522',-0.820,-0.490
'0:04.525',-0.835,-0.510
'0:04.528',-0.850,-0.505
'0:04.531',-0.860,-0.515
'0:04.533',-0.860,-0.520
'0:04.536',-0.885,-0.525
'0:04.539',-0.880,-0.520
'0:04.542',-0.895,-0.505
'0:04.544',-0.870,-0.530
'0:04.547',-0.875,-0.515
'0:04.550',-0.865,-0.530
'0:04.553',-0.865,-0.555
'0:04.556',-0.885,-0.565
'0:04.558',-0.905,-0.575
'0:04.561',-0.915,-0.595
'0:04.564',-0.945,-0.620
'0:04.567',-0.965,-0.640
'0:04.569',-0.975,-0.640
'0:04.572',-0.975,-0.650
'0:04.575',-0.990,-0.660
'0:04.578',-0.975,-0.640
'0:04.581',-0.975,-0.655
'0:04.583',-0.975,-0.680
'0:04.586',-0.975,-0.685
'0:04.589',-1.010,-0.700
'0:04.592',-1.020,-0.735
'0:04.594',-1.035,-0.755
'0:04.597',-1.045,-0.770
'0:04.600',-1.070,-0.780
'0:04.603',-1.085,-0.800
'0:04.606',-1.095,-0.800
'0:04.608',-1.115,-0.800
'0:04.611',-1.125,-0.790
'0:04.614',-1.145,-0.800
'0:04.617',-1.160,-0.815
'0:04.619',-1.180,-0.835
'0:04.622',-1.200,-0.830
'0:04.625',-1.225,-0.855
'0:04.628',-1.245,-0.865
'0:04.631',-1.275,-0.875
'0:04.633',-1.280,-0.905
'0:04.636',-1.310,-0.890
'0:04.639',-1.315,-0.885
'0:04.642',-1.310,-0.870
'0:04.644',-1.280,-0.880
'0:04.647',-1.275,-0.855
'0:04.650',-1.235,-0.880
'0:04.653',-1.230,-0.880
'0:04.656',-1.205,-0.890
'0:04.658',-1.185,-0.905
'0:04.661',-1.160,-0.915
'0:04.664',-1.125,-0.925
'0:04.667',-1.100,-0.925
'0:04.669',-1.075,-0.920
'0:04.672',-1.055,-0.910
'0:04.675',-1.020,-0.890
'0:04.678',-1.005,-0.895
'0:04.681',-0.985,-0.865
'0:04.683',-0.945,-0.850
'0:04.686',-0.950,-0.850
'0:04.689',-0.925,-0.840
'0:04.692',-0.910,-0.820
'0:04.694',-0.910,-0.815
'0:04.697',-0.905,-0.805
'0:04.700',-0.885,-0.800
'0:04.703',-0.905,-0.770
'0:04.706',-0.900,-0.750
'0:04.708',-0.880,-0.720
'0:04.711',-0.860,-0.700
'0:04.714',-0.840,-0.685
'0:04.717',-0.840,-0.670
'0:04.719',-0.825,-0.660
'0:04.722',-0.835,-0.640
'0:04.725',-0.825,-0.640
'0:04.728',-0.840,-0.650
'0:04.731',-0.835,-0.650
'0:04.733',-0.840,-0.630
'0:04.736',-0.840,-0.610
'0:04.739',-0.825,-0.595
'0:04.742',-0.820,-0.575
'0:04.744',-0.785,-0.580
'0:04.747',-0.795,-0.565
'0:04.750',-0.780,-0.560
'0:04.753',-0.780,-0.565
'0:04.756',-0.775,-0.550
'0:04.758',-0.765,-0.550
'0:04.761',-0.780,-0.560
'0:04.764',-0.790,-0.560
'0:04.767',-0.810,-0.555
'0:04.769',-0.805,-0.550
'0:04.772',-0.805,-0.560
'0:04.775',-0.805,-0.540
'0:04.778',-0.795,-0.540
'0:04.781',-0.790,-0.525
'0:04.783',-0.770,-0.505
'0:04.786',-0.765,-0.535
'0:04.789',-0.785,-0.530
'0:04.792',-0.795,-0.540
'0:04.794',-0.800,-0.570
'0:04.797',-0.820,-0.570
'0:04.800',-0.825,-0.575
'0:04.803',-0.845,-0.560
'0:04.806',-0.845,-0.575
'0:04.808',-0.845,-0.580
'0:04.811',-0.835,-0.570
'0:04.814',-0.825,-0.560
'0:04.817',-0.825,-0.565
'0:04.819',-0.825,-0.570
'0:04.822',-0.825,-0.580
'0:04.825',-0.835,-0.580
'0:04.828',-0.860,-0.595
'0:04.831',-0.855,-0.620
'0:04.833',-0.855,-0.625
'0:04.836',-0.885,-0.625
'0:04.839',-0.870,-0.610
'0:04.842',-0.865,-0.600
'0:04.844',-0.860,-0.615
'0:04.847',-0.855,-0.625
'0:04.850',-0.865,-0.625
'0:04.853',-0.855,-0.630
'0:04.856',-0.875,-0.635
'0:04.858',-0.860,-0.640
'0:04.861',-0.855,-0.655
'0:04.864',-0.855,-0.655
'0:04.867',-0.855,-0.670
'0:04.869',-0.865,-0.660
'0:04.872',-0.855,-0.670
'0:04.875',-0.840,-0.635
'0:04.878',-0.845,-0.650
'0:04.881',-0.840,-0.645
'0:04.883',-0.835,-0.650
'0:04.886',-0.835,-0.655
'0:04.889',-0.830,-0.640
'0:04.892',-0.845,-0.665
'0:04.894',-0.865,-0.665
'0:04.897',-0.865,-0.680
'0:04.900',-0.870,-0.675
'0:04.903',-0.875,-0.680
'0:04.906',-0.870,-0.685
'0:04.908',-0.855,-0.665
'0:04.911',-0.845,-0.660
'0:04.914',-0.820,-0.620
'0:04.917',-0.815,-0.615
'0:04.919',-0.830,-0.630
'0:04.922',-0.835,-0.645
'0:04.925',-0.840,-0.650
'0:04.928',-0.855,-0.650
'0:04.931',-0.860,-0.680
'0:04.933',-0.855,-0.665
'0:04.936',-0.865,-0.675
'0:04.939',-0.845,-0.670
'0:04.942',-0.850,-0.655
'0:04.944',-0.835,-0.630
'0:04.947',-0.855,-0.645
'0:04.950',-0.815,-0.630
'0:04.953',-0.835,-0.630
'0:04.956',-0.825,-0.650
'0:04.958',-0.835,-0.690
'0:04.961',-0.835,-0.710
'0:04.964',-0.840,-0.725
'0:04.967',-0.840,-0.725
'0:04.969',-0.835,-0.710
'0:04.972',-0.815,-0.710
'0:04.975',-0.800,-0.685
'0:04.978',-0.785,-0.675
'0:04.981',-0.775,-0.680
'0:04.983',-0.760,-0.675
'0:04.986',-0.765,-0.700
'0:04.989',-0.740,-0.720
'0:04.992',-0.750,-0.735
'0:04.994',-0.750,-0.765
'0:04.997',-0.740,-0.765
'0:05.000',-0.740,-0.775
'0:05.003',-0.725,-0.750
'0:05.006',-0.705,-0.720
'0:05.008',-0.670,-0.695
'0:05.011',-0.650,-0.685
'0:05.014',-0.630,-0.670
'0:05.017',-0.625,-0.655
'0:05.019',-0.645,-0.655
'0:05.022',-0.660,-0.670
'0:05.025',-0.690,-0.680
'0:05.028',-0.715,-0.695
'0:05.031',-0.730,-0.715
'0:05.033',-0.750,-0.715
'0:05.036',-0.750,-0.705
'0:05.039',-0.720,-0.715
'0:05.042',-0.680,-0.685
'0:05.044',-0.650,-0.655
'0:05.047',-0.630,-0.595
'0:05.050',-0.620,-0.580
'0:05.053',-0.640,-0.560
'0:05.056',-0.675,-0.540
'0:05.058',-0.710,-0.575
'0:05.061',-0.760,-0.600
'0:05.064',-0.795,-0.630
'0:05.067',-0.825,-0.655
'0:05.069',-0.840,-0.685
'0:05.072',-0.830,-0.660
'0:05.075',-0.835,-0.660
'0:05.078',-0.825,-0.640
'0:05.081',-0.840,-0.640
'0:05.083',-0.830,-0.635
'0:05.086',-0.865,-0.660
'0:05.089',-0.865,-0.685
'0:05.092',-0.900,-0.705
'0:05.094',-0.900,-0.725
'0:05.097',-0.920,-0.720
'0:05.100',-0.905,-0.755
'0:05.103',-0.910,-0.760
'0:05.106',-0.910,-0.770
'0:05.108',-0.915,-0.745
'0:05.111',-0.895,-0.755
'0:05.114',-0.870,-0.735
'0:05.117',-0.870,-0.740
'0:05.119',-0.865,-0.740
'0:05.122',-0.870,-0.735
'0:05.125',-0.885,-0.755
'0:05.128',-0.900,-0.745
'0:05.131',-0.915,-0.760
'0:05.133',-0.910,-0.770
'0:05.136',-0.925,-0.770
'0:05.139',-0.935,-0.755
'0:05.142',-0.930,-0.765
'0:05.144',-0.925,-0.730
'0:05.147',-0.915,-0.750
'0:05.150',-0.905,-0.740
'0:05.153',-0.885,-0.765
'0:05.156',-0.890,-0.765
'0:05.158',-0.900,-0.765
'0:05.161',-0.890,-0.780
'0:05.164',-0.885,-0.780
'0:05.167',-0.910,-0.800
'0:05.169',-0.935,-0.795
'0:05.172',-0.940,-0.805
'0:05.175',-0.940,-0.815
'0:05.178',-0.920,-0.835
'0:05.181',-0.900,-0.895
'0:05.183',-0.845,-0.970
'0:05.186',-0.765,-1.080
'0:05.189',-0.650,-1.185
'0:05.192',-0.520,-1.310
'0:05.194',-0.395,-1.415
'0:05.197',-0.245,-1.515
'0:05.200',-0.145,-1.590
'0:05.203',-0.110,-1.620
'0:05.206',-0.135,-1.560
'0:05.208',-0.160,-1.435
'0:05.211',-0.150,-1.295
'0:05.214',-0.090,-1.155
'0:05.217',0.035,-1.025
'0:05.219',0.180,-0.885
'0:05.222',0.335,-0.685
'0:05.225',0.405,-0.455
'0:05.228',0.355,-0.145
'0:05.231',0.145,0.140
'0:05.233',-0.220,0.330
'0:05.236',-0.665,0.400
'0:05.239',-1.110,0.295
'0:05.242',-1.455,0.055
'0:05.244',-1.685,-0.220
'0:05.247',-1.805,-0.460
'0:05.250',-1.890,-0.640
'0:05.253',-1.915,-0.755
'0:05.256',-1.965,-0.825
'0:05.258',-2.000,-0.880
'0:05.261',-2.025,-0.920
'0:05.264',-2.050,-0.955
'0:05.267',-2.055,-0.980
'0:05.269',-2.055,-1.010
'0:05.272',-2.060,-1.000
'0:05.275',-2.040,-0.985
'0:05.278',-2.025,-0.950
'0:05.281',-2.010,-0.940
'0:05.283',-1.980,-0.935
'0:05.286',-1.940,-0.955
'0:05.289',-1.880,-0.975
'0:05.292',-1.780,-1.000
'0:05.294',-1.665,-1.010
'0:05.297',-1.505,-0.985
'0:05.300',-1.360,-0.930
'0:05.303',-1.240,-0.850
'0:05.306',-1.130,-0.760
'0:05.308',-1.045,-0.690
'0:05.311',-0.995,-0.630
'0:05.314',-0.980,-0.600
'0:05.317',-0.970,-0.585
'0:05.319',-0.975,-0.595
'0:05.322',-0.965,-0.605
'0:05.325',-0.955,-0.625
'0:05.328',-0.945,-0.650
'0:05.331',-0.950,-0.675
'0:05.333',-0.950,-0.665
'0:05.336',-0.945,-0.660
'0:05.339',-0.930,-0.655
'0:05.342',-0.935,-0.635
'0:05.344',-0.935,-0.620
'0:05.347',-0.940,-0.610
'0:05.350',-0.935,-0.600
'0:05.353',-0.955,-0.625
'0:05.356',-0.945,-0.645
'0:05.358',-0.940,-0.650
'0:05.361',-0.960,-0.670
'0:05.364',-0.985,-0.685
'0:05.367',-0.980,-0.695
'0:05.369',-0.985,-0.685
'0:05.372',-0.985,-0.675
'0:05.375',-0.985,-0.670
'0:05.378',-1.005,-0.675
'0:05.381',-1.000,-0.680
'0:05.383',-1.005,-0.720
'0:05.386',-1.015,-0.760
'0:05.389',-1.000,-0.790
'0:05.392',-1.030,-0.820
'0:05.394',-1.040,-0.870
'0:05.397',-1.055,-0.875
'0:05.400',-1.075,-0.875
'0:05.403',-1.080,-0.895
'0:05.406',-1.100,-0.910
'0:05.408',-1.095,-0.915
'0:05.411',-1.105,-0.930
'0:05.414',-1.095,-0.945
'0:05.417',-1.095,-0.980
'0:05.419',-1.110,-0.985
'0:05.422',-1.140,-1.020
'0:05.425',-1.140,-1.030
'0:05.428',-1.165,-1.035
'0:05.431',-1.190,-1.045
'0:05.433',-1.205,-1.045
'0:05.436',-1.195,-1.035
'0:05.439',-1.200,-1.045
'0:05.442',-1.190,-1.035
'0:05.444',-1.180,-1.040
'0:05.447',-1.185,-1.025
'0:05.450',-1.165,-1.030
'0:05.453',-1.180,-1.010
'0:05.456',-1.185,-1.010
'0:05.458',-1.180,-1.020
'0:05.461',-1.180,-1.040
'0:05.464',-1.190,-1.045
'0:05.467',-1.200,-1.040
'0:05.469',-1.220,-1.040
'0:05.472',-1.195,-1.020
'0:05.475',-1.175,-1.030
'0:05.478',-1.160,-1.015
'0:05.481',-1.135,-1.000
'0:05.483',-1.135,-0.985
'0:05.486',-1.105,-0.985
'0:05.489',-1.100,-0.975
'0:05.492',-1.080,-0.965
'0:05.494',-1.080,-0.960
'0:05.497',-1.065,-0.950
'0:05.500',-1.065,-0.940
'0:05.503',-1.045,-0.900
'0:05.506',-1.025,-0.910
'0:05.508',-1.005,-0.890
'0:05.511',-0.980,-0.875
'0:05.514',-0.950,-0.840
'0:05.517',-0.925,-0.820
'0:05.519',-0.930,-0.805
'0:05.522',-0.930,-0.775
'0:05.525',-0.915,-0.770
'0:05.528',-0.900,-0.750
'0:05.531',-0.895,-0.740
'0:05.533',-0.870,-0.700
'0:05.536',-0.870,-0.690
'0:05.539',-0.865,-0.660
'0:05.542',-0.855,-0.670
'0:05.544',-0.855,-0.645
'0:05.547',-0.845,-0.620
'0:05.550',-0.835,-0.610
'0:05.553',-0.825,-0.600
'0:05.556',-0.825,-0.605
'0:05.558',-0.825,-0.620
'0:05.561',-0.820,-0.625
'0:05.564',-0.830,-0.640
'0:05.567',-0.825,-0.635
'0:05.569',-0.845,-0.630
'0:05.572',-0.845,-0.610
'0:05.575',-0.825,-0.600
'0:05.578',-0.830,-0.580
'0:05.581',-0.825,-0.585
'0:05.583',-0.820,-0.570
'0:05.586',-0.820,-0.580
'0:05.589',-0.805,-0.575
'0:05.592',-0.810,-0.590
'0:05.594',-0.840,-0.605
'0:05.597',-0.810,-0.600
'0:05.600',-0.820,-0.600
'0:05.603',-0.830,-0.575
'0:05.606',-0.840,-0.560
'0:05.608',-0.850,-0.565
'0:05.611',-0.850,-0.560
'0:05.614',-0.830,-0.570
'0:05.617',-0.835,-0.580
'0:05.619',-0.810,-0.585
'0:05.622',-0.815,-0.590
'0:05.625',-0.810,-0.600
'0:05.628',-0.820,-0.590
'0:05.631',-0.835,-0.610
'0:05.633',-0.855,-0.605
'0:05.636',-0.840,-0.575
'0:05.639',-0.850,-0.590
'0:05.642',-0.855,-0.575
'0:05.644',-0.855,-0.540
'0:05.647',-0.850,-0.545
'0:05.650',-0.835,-0.550
'0:05.653',-0.845,-0.565
'0:05.656',-0.850,-0.580
'0:05.658',-0.835,-0.585
'0:05.661',-0.860,-0.590
'0:05.664',-0.875,-0.590
'0:05.667',-0.860,-0.600
'0:05.669',-0.855,-0.570
'0:05.672',-0.855,-0.555
'0:05.675',-0.840,-0.555
'0:05.678',-0.830,-0.545
'0:05.681',-0.835,-0.535
'0:05.683',-0.820,-0.555
'0:05.686',-0.825,-0.545
'0:05.689',-0.840,-0.580
'0:05.692',-0.840,-0.580
'0:05.694',-0.845,-0.600
'0:05.697',-0.845,-0.610
'0:05.700',-0.840,-0.610
'0:05.703',-0.835,-0.595
'0:05.706',-0.845,-0.600
'0:05.708',-0.815,-0.605
'0:05.711',-0.820,-0.585
'0:05.714',-0.810,-0.565
'0:05.717',-0.805,-0.575
'0:05.719',-0.820,-0.575
'0:05.722',-0.810,-0.565
'0:05.725',-0.820,-0.585
'0:05.728',-0.825,-0.595
'0:05.731',-0.830,-0.605
'0:05.733',-0.830,-0.615
'0:05.736',-0.825,-0.605
'0:05.739',-0.820,-0.605
'0:05.742',-0.800,-0.580
'0:05.744',-0.800,-0.570
'0:05.747',-0.795,-0.565
'0:05.750',-0.780,-0.550
'0:05.753',-0.785,-0.580
'0:05.756',-0.790,-0.600
'0:05.758',-0.795,-0.615
'0:05.761',-0.795,-0.635
'0:05.764',-0.800,-0.635
'0:05.767',-0.810,-0.630
'0:05.769',-0.820,-0.630
'0:05.772',-0.795,-0.615
'0:05.775',-0.785,-0.595
'0:05.778',-0.785,-0.590
'0:05.781',-0.775,-0.585
'0:05.783',-0.760,-0.570
'0:05.786',-0.755,-0.595
'0:05.789',-0.765,-0.580
'0:05.792',-0.775,-0.605
'0:05.794',-0.770,-0.610
'0:05.797',-0.775,-0.630
'0:05.800',-0.750,-0.640
'0:05.803',-0.740,-0.670
'0:05.806',-0.735,-0.650
'0:05.808',-0.715,-0.655
'0:05.811',-0.695,-0.670
'0:05.814',-0.675,-0.640
'0:05.817',-0.660,-0.615
'0:05.819',-0.655,-0.620
'0:05.822',-0.655,-0.615
'0:05.825',-0.660,-0.635
'0:05.828',-0.670,-0.635
'0:05.831',-0.660,-0.635
'0:05.833',-0.650,-0.640
'0:05.836',-0.650,-0.630
'0:05.839',-0.630,-0.615
'0:05.842',-0.605,-0.575
'0:05.844',-0.600,-0.540
'0:05.847',-0.610,-0.510
'0:05.850',-0.610,-0.490
'0:05.853',-0.645,-0.480
'0:05.856',-0.665,-0.495
'0:05.858',-0.685,-0.530
'0:05.861',-0.695,-0.570
'0:05.864',-0.725,-0.555
'0:05.867',-0.715,-0.560
'0:05.869',-0.710,-0.545
'0:05.872',-0.695,-0.510
'0:05.875',-0.685,-0.460
'0:05.878',-0.670,-0.430
'0:05.881',-0.650,-0.400
'0:05.883',-0.670,-0.375
'0:05.886',-0.690,-0.375
'0:05.889',-0.720,-0.410
'0:05.892',-0.760,-0.420
'0:05.894',-0.800,-0.465
'0:05.897',-0.835,-0.515
'0:05.900',-0.845,-0.530
'0:05.903',-0.865,-0.540
'0:05.906',-0.875,-0.505
'0:05.908',-0.885,-0.495
'0:05.911',-0.885,-0.495
'0:05.914',-0.880,-0.480
'0:05.917',-0.880,-0.490
'0:05.919',-0.880,-0.520
'0:05.922',-0.905,-0.540
'0:05.925',-0.900,-0.540
'0:05.928',-0.910,-0.535
'0:05.931',-0.925,-0.540
'0:05.933',-0.945,-0.550
'0:05.936',-0.955,-0.540
'0:05.939',-0.950,-0.555
'0:05.942',-0.935,-0.540
'0:05.944',-0.940,-0.545
'0:05.947',-0.920,-0.545
'0:05.950',-0.905,-0.535
'0:05.953',-0.920,-0.540
'0:05.956',-0.920,-0.530
'0:05.958',-0.925,-0.510
'0:05.961',-0.925,-0.525
'0:05.964',-0.925,-0.525
'0:05.967',-0.935,-0.545
'0:05.969',-0.940,-0.525
'0:05.972',-0.920,-0.545
'0:05.975',-0.915,-0.525
'0:05.978',-0.915,-0.540
'0:05.981',-0.890,-0.520
'0:05.983',-0.880,-0.520
'0:05.986',-0.880,-0.520
'0:05.989',-0.865,-0.525
'0:05.992',-0.885,-0.560
'0:05.994',-0.905,-0.595
'0:05.997',-0.945,-0.640
'0:06.000',-0.940,-0.680
'0:06.003',-0.965,-0.720
'0:06.006',-0.950,-0.770
'0:06.008',-0.885,-0.850
'0:06.011',-0.775,-0.955
'0:06.014',-0.650,-1.045
'0:06.017',-0.480,-1.185
'0:06.019',-0.330,-1.285
'0:06.022',-0.195,-1.395
'0:06.025',-0.135,-1.440
'0:06.028',-0.125,-1.410
'0:06.031',-0.140,-1.330
'0:06.033',-0.135,-1.190
'0:06.036',-0.100,-1.060
'0:06.039',0.030,-0.910
'0:06.042',0.185,-0.725
'0:06.044',0.335,-0.500
'0:06.047',0.415,-0.220
'0:06.050',0.340,0.120
'0:06.053',0.095,0.420
'0:06.056',-0.285,0.575
'0:06.058',-0.725,0.550
'0:06.061',-1.135,0.380
'0:06.064',-1.440,0.085
'0:06.067',-1.650,-0.180
'0:06.069',-1.765,-0.385
'0:06.072',-1.815,-0.505
'0:06.075',-1.830,-0.555
'0:06.078',-1.850,-0.580
'0:06.081',-1.870,-0.590
'0:06.083',-1.880,-0.640
'0:06.086',-1.900,-0.690
'0:06.089',-1.910,-0.710
'0:06.092',-1.925,-0.745
'0:06.094',-1.945,-0.750
'0:06.097',-1.945,-0.735
'0:06.100',-1.935,-0.725
'0:06.103',-1.920,-0.715
'0:06.106',-1.895,-0.705
'0:06.108',-1.850,-0.725
'0:06.111',-1.765,-0.740
'0:06.114',-1.660,-0.745
'0:06.117',-1.510,-0.725
'0:06.119',-1.370,-0.710
'0:06.122',-1.240,-0.670
'0:06.125',-1.135,-0.615
'0:06.128',-1.055,-0.580
'0:06.131',-1.015,-0.545
'0:06.133',-1.020,-0.515
'0:06.136',-1.005,-0.495
'0:06.139',-1.010,-0.475
'0:06.142',-1.010,-0.485
'0:06.144',-0.980,-0.505
'0:06.147',-0.960,-0.500
'0:06.150',-0.960,-0.500
'0:06.153',-0.935,-0.505
'0:06.156',-0.930,-0.515
'0:06.158',-0.930,-0.535
'0:06.161',-0.930,-0.550
'0:06.164',-0.945,-0.545
'0:06.167',-0.945,-0.585
'0:06.169',-0.985,-0.560
'0:06.172',-0.965,-0.580
'0:06.175',-0.955,-0.565
'0:06.178',-0.955,-0.560
'0:06.181',-0.950,-0.570
'0:06.183',-0.940,-0.565
'0:06.186',-0.945,-0.575
'0:06.189',-0.950,-0.585
'0:06.192',-0.975,-0.620
'0:06.194',-0.975,-0.635
'0:06.197',-0.995,-0.655
'0:06.200',-1.000,-0.660
'0:06.203',-1.005,-0.665
'0:06.206',-1.010,-0.670
'0:06.208',-1.020,-0.665
'0:06.211',-1.025,-0.670
'0:06.214',-1.035,-0.700
'0:06.217',-1.020,-0.700
'0:06.219',-1.020,-0.730
'0:06.222',-1.040,-0.770
'0:06.225',-1.055,-0.795
'0:06.228',-1.070,-0.825
'0:06.231',-1.080,-0.840
'0:06.233',-1.090,-0.855
'0:06.236',-1.095,-0.840
'0:06.239',-1.115,-0.860
'0:06.242',-1.125,-0.835
'0:06.244',-1.130,-0.855
'0:06.247',-1.105,-0.865
'0:06.250',-1.115,-0.870
'0:06.253',-1.120,-0.895
'0:06.256',-1.120,-0.910
'0:06.258',-1.140,-0.925
'0:06.261',-1.145,-0.935
'0:06.264',-1.160,-0.955
'0:06.267',-1.180,-0.960
'0:06.269',-1.185,-0.960
'0:06.272',-1.200,-0.955
'0:06.275',-1.190,-0.955
'0:06.278',-1.185,-0.950
'0:06.281',-1.185,-0.945
'0:06.283',-1.175,-0.945
'0:06.286',-1.165,-0.945
'0:06.289',-1.160,-0.955
'0:06.292',-1.160,-0.965
'0:06.294',-1.170,-0.965
'0:06.297',-1.175,-0.980
'0:06.300',-1.175,-0.985
'0:06.303',-1.155,-0.975
'0:06.306',-1.145,-0.985
'0:06.308',-1.135,-0.960
'0:06.311',-1.105,-0.950
'0:06.314',-1.095,-0.950
'0:06.317',-1.080,-0.940
'0:06.319',-1.050,-0.915
'0:06.322',-1.020,-0.930
'0:06.325',-1.010,-0.925
'0:06.328',-0.990,-0.925
'0:06.331',-0.965,-0.920
'0:06.333',-0.955,-0.885
'0:06.336',-0.955,-0.870
'0:06.339',-0.940,-0.855
'0:06.342',-0.920,-0.825
'0:06.344',-0.910,-0.805
'0:06.347',-0.890,-0.770
'0:06.350',-0.870,-0.745
'0:06.353',-0.860,-0.750
'0:06.356',-0.835,-0.765
'0:06.358',-0.850,-0.755
'0:06.361',-0.850,-0.760
'0:06.364',-0.835,-0.745
'0:06.367',-0.825,-0.745
'0:06.369',-0.825,-0.710
'0:06.372',-0.805,-0.700
'0:06.375',-0.810,-0.660
'0:06.378',-0.795,-0.625
'0:06.381',-0.770,-0.610
'0:06.383',-0.765,-0.615
'0:06.386',-0.765,-0.605
'0:06.389',-0.765,-0.600
'0:06.392',-0.770,-0.620
'0:06.394',-0.760,-0.625
'0:06.397',-0.770,-0.635
'0:06.400',-0.765,-0.625
'0:06.403',-0.760,-0.615
'0:06.406',-0.755,-0.605
'0:06.408',-0.760,-0.590
'0:06.411',-0.745,-0.565
'0:06.414',-0.740,-0.545
'0:06.417',-0.735,-0.535
'0:06.419',-0.735,-0.550
'0:06.422',-0.750,-0.550
'0:06.425',-0.760,-0.565
'0:06.428',-0.760,-0.565
'0:06.431',-0.760,-0.575
'0:06.433',-0.770,-0.565
'0:06.436',-0.765,-0.560
'0:06.439',-0.760,-0.560
'0:06.442',-0.755,-0.545
'0:06.444',-0.740,-0.530
'0:06.447',-0.740,-0.545
'0:06.450',-0.740,-0.505
'0:06.453',-0.740,-0.515
'0:06.456',-0.760,-0.505
'0:06.458',-0.765,-0.520
'0:06.461',-0.775,-0.530
'0:06.464',-0.800,-0.535
'0:06.467',-0.800,-0.550
'0:06.469',-0.795,-0.525
'0:06.472',-0.785,-0.515
'0:06.475',-0.780,-0.495
'0:06.478',-0.785,-0.490
'0:06.481',-0.785,-0.465
'0:06.483',-0.790,-0.460
'0:06.486',-0.780,-0.470
'0:06.489',-0.810,-0.475
'0:06.492',-0.805,-0.495
'0:06.494',-0.840,-0.520
'0:06.497',-0.845,-0.525
'0:06.500',-0.860,-0.510
'0:06.503',-0.875,-0.525
'0:06.506',-0.870,-0.515
'0:06.508',-0.875,-0.480
'0:06.511',-0.860,-0.495
'0:06.514',-0.855,-0.475
'0:06.517',-0.845,-0.480
'0:06.519',-0.835,-0.460
'0:06.522',-0.835,-0.495
'0:06.525',-0.850,-0.500
'0:06.528',-0.865,-0.510
'0:06.531',-0.870,-0.515
'0:06.533',-0.875,-0.515
'0:06.536',-0.875,-0.520
'0:06.539',-0.865,-0.500
'0:06.542',-0.870,-0.505
'0:06.544',-0.870,-0.480
'0:06.547',-0.875,-0.480
'0:06.550',-0.865,-0.470
'0:06.553',-0.860,-0.500
'0:06.556',-0.850,-0.510
'0:06.558',-0.855,-0.520
'0:06.561',-0.865,-0.555
'0:06.564',-0.875,-0.570
'0:06.567',-0.880,-0.575
'0:06.569',-0.890,-0.575
'0:06.572',-0.885,-0.555
'0:06.575',-0.880,-0.560
'0:06.578',-0.880,-0.525
'0:06.581',-0.875,-0.525
'0:06.583',-0.870,-0.515
'0:06.586',-0.860,-0.520
'0:06.589',-0.870,-0.530
'0:06.592',-0.875,-0.535
'0:06.594',-0.885,-0.540
'0:06.597',-0.880,-0.555
'0:06.600',-0.895,-0.565
'0:06.603',-0.895,-0.575
'0:06.606',-0.900,-0.570
'0:06.608',-0.890,-0.560
'0:06.611',-0.890,-0.555
'0:06.614',-0.880,-0.540
'0:06.617',-0.855,-0.520
'0:06.619',-0.830,-0.530
'0:06.622',-0.815,-0.540
'0:06.625',-0.815,-0.540
'0:06.628',-0.810,-0.575
'0:06.631',-0.810,-0.580
'0:06.633',-0.820,-0.595
'0:06.636',-0.805,-0.615
'0:06.639',-0.780,-0.610
'0:06.642',-0.795,-0.615
'0:06.644',-0.760,-0.620
'0:06.647',-0.745,-0.605
'0:06.650',-0.720,-0.590
'0:06.653',-0.715,-0.585
'0:06.656',-0.710,-0.580
'0:06.658',-0.680,-0.570
'0:06.661',-0.670,-0.565
'0:06.664',-0.675,-0.550
'0:06.667',-0.690,-0.540
'0:06.669',-0.710,-0.535
'0:06.672',-0.730,-0.525
'0:06.675',-0.735,-0.530
'0:06.678',-0.720,-0.555
'0:06.681',-0.745,-0.550
'0:06.683',-0.745,-0.565
'0:06.686',-0.720,-0.585
'0:06.689',-0.715,-0.560
'0:06.692',-0.685,-0.565
'0:06.694',-0.690,-0.545
'0:06.697',-0.685,-0.490
'0:06.700',-0.670,-0.480
'0:06.703',-0.670,-0.465
'0:06.706',-0.680,-0.445
'0:06.708',-0.715,-0.440
'0:06.711',-0.720,-0.460
'0:06.714',-0.750,-0.485
'0:06.717',-0.775,-0.515
'0:06.719',-0.785,-0.550
'0:06.722',-0.805,-0.585
'0:06.725',-0.840,-0.590
'0:06.728',-0.865,-0.605
'0:06.731',-0.860,-0.610
'0:06.733',-0.890,-0.595
'0:06.736',-0.915,-0.610
'0:06.739',-0.905,-0.575
'0:06.742',-0.905,-0.590
'0:06.744',-0.885,-0.575
'0:06.747',-0.875,-0.570
'0:06.750',-0.880,-0.545
'0:06.753',-0.865,-0.565
'0:06.756',-0.885,-0.585
'0:06.758',-0.905,-0.590
'0:06.761',-0.905,-0.585
'0:06.764',-0.890,-0.615
'0:06.767',-0.905,-0.615
'0:06.769',-0.910,-0.610
'0:06.772',-0.920,-0.605
'0:06.775',-0.915,-0.575
'0:06.778',-0.900,-0.575
'0:06.781',-0.920,-0.565
'0:06.783',-0.885,-0.540
'0:06.786',-0.885,-0.550
'0:06.789',-0.895,-0.575
'0:06.792',-0.895,-0.580
'0:06.794',-0.900,-0.605
'0:06.797',-0.910,-0.630
'0:06.800',-0.940,-0.650
'0:06.803',-0.930,-0.645
'0:06.806',-0.930,-0.630
'0:06.808',-0.915,-0.630
'0:06.811',-0.910,-0.595
'0:06.814',-0.895,-0.605
'0:06.817',-0.890,-0.585
'0:06.819',-0.875,-0.610
'0:06.822',-0.885,-0.630
'0:06.825',-0.895,-0.645
'0:06.828',-0.930,-0.650
'0:06.831',-0.925,-0.665
'0:06.833',-0.920,-0.715
'0:06.836',-0.915,-0.785
'0:06.839',-0.855,-0.880
'0:06.842',-0.755,-0.990
'0:06.844',-0.625,-1.095
'0:06.847',-0.480,-1.190
'0:06.850',-0.305,-1.295
'0:06.853',-0.195,-1.405
'0:06.856',-0.150,-1.455
'0:06.858',-0.125,-1.430
'0:06.861',-0.165,-1.365
'0:06.864',-0.190,-1.250
'0:06.867',-0.160,-1.105
'0:06.869',-0.070,-0.975
'0:06.872',0.085,-0.825
'0:06.875',0.245,-0.660
'0:06.878',0.370,-0.390
'0:06.881',0.400,-0.090
'0:06.883',0.275,0.210
'0:06.886',-0.035,0.455
'0:06.889',-0.430,0.550
'0:06.892',-0.870,0.500
'0:06.894',-1.250,0.300
'0:06.897',-1.515,0.020
'0:06.900',-1.695,-0.230
'0:06.903',-1.795,-0.425
'0:06.906',-1.845,-0.545
'0:06.908',-1.910,-0.595
'0:06.911',-1.960,-0.650
'0:06.914',-1.985,-0.670
'0:06.917',-2.000,-0.730
'0:06.919',-2.020,-0.770
'0:06.922',-2.010,-0.795
'0:06.925',-2.015,-0.815
'0:06.928',-2.015,-0.810
'0:06.931',-2.010,-0.805
'0:06.933',-2.005,-0.790
'0:06.936',-1.985,-0.800
'0:06.939',-1.930,-0.800
'0:06.942',-1.840,-0.825
'0:06.944',-1.710,-0.825
'0:06.947',-1.555,-0.805
'0:06.950',-1.395,-0.765
'0:06.953',-1.255,-0.705
'0:06.956',-1.155,-0.655
'0:06.958',-1.070,-0.610
'0:06.961',-1.025,-0.560
'0:06.964',-1.010,-0.550
'0:06.967',-1.010,-0.515
'0:06.969',-1.020,-0.520
'0:06.972',-1.015,-0.510
'0:06.975',-1.005,-0.490
'0:06.978',-0.975,-0.475
'0:06.981',-0.975,-0.475
'0:06.983',-0.950,-0.465
'0:06.986',-0.945,-0.490
'0:06.989',-0.955,-0.505
'0:06.992',-0.970,-0.525
'0:06.994',-0.995,-0.535
'0:06.997',-1.000,-0.545
'0:07.000',-0.980,-0.555
'0:07.003',-0.990,-0.555
'0:07.006',-0.995,-0.560
'0:07.008',-1.000,-0.570
'0:07.011',-0.975,-0.585
'0:07.014',-0.970,-0.580
'0:07.017',-0.950,-0.580
'0:07.019',-0.975,-0.585
'0:07.022',-0.980,-0.595
'0:07.025',-1.020,-0.600
'0:07.028',-1.040,-0.600
'0:07.031',-1.035,-0.620
'0:07.033',-1.050,-0.630
'0:07.036',-1.065,-0.635
'0:07.039',-1.070,-0.665
'0:07.042',-1.060,-0.670
'0:07.044',-1.060,-0.670
'0:07.047',-1.065,-0.700
'0:07.050',-1.075,-0.705
'0:07.053',-1.105,-0.730
'0:07.056',-1.085,-0.755
'0:07.058',-1.110,-0.755
'0:07.061',-1.120,-0.775
'0:07.064',-1.125,-0.780
'0:07.067',-1.155,-0.810
'0:07.069',-1.165,-0.825
'0:07.072',-1.180,-0.825
'0:07.075',-1.175,-0.845
'0:07.078',-1.185,-0.845
'0:07.081',-1.185,-0.860
'0:07.083',-1.175,-0.850
'0:07.086',-1.185,-0.865
'0:07.089',-1.190,-0.860
'0:07.092',-1.190,-0.860
'0:07.094',-1.210,-0.880
'0:07.097',-1.205,-0.910
'0:07.100',-1.230,-0.930
'0:07.103',-1.230,-0.955
'0:07.106',-1.235,-0.965
'0:07.108',-1.220,-0.945
'0:07.111',-1.215,-0.940
'0:07.114',-1.200,-0.920
'0:07.117',-1.190,-0.905
'0:07.119',-1.160,-0.915
'0:07.122',-1.150,-0.895
'0:07.125',-1.155,-0.905
'0:07.128',-1.155,-0.910
'0:07.131',-1.130,-0.900
'0:07.133',-1.125,-0.885
'0:07.136',-1.130,-0.870
'0:07.139',-1.120,-0.845
'0:07.142',-1.095,-0.830
'0:07.144',-1.090,-0.825
'0:07.147',-1.050,-0.835
'0:07.150',-1.030,-0.805
'0:07.153',-1.005,-0.785
'0:07.156',-0.985,-0.770
'0:07.158',-0.960,-0.745
'0:07.161',-0.970,-0.730
'0:07.164',-0.960,-0.745
'0:07.167',-0.955,-0.740
'0:07.169',-0.940,-0.715
'0:07.172',-0.935,-0.685
'0:07.175',-0.920,-0.655
'0:07.178',-0.895,-0.625
'0:07.181',-0.895,-0.590
'0:07.183',-0.885,-0.570
'0:07.186',-0.890,-0.580
'0:07.189',-0.900,-0.580
'0:07.192',-0.895,-0.575
'0:07.194',-0.885,-0.575
'0:07.197',-0.885,-0.595
'0:07.200',-0.905,-0.580
'0:07.203',-0.890,-0.575
'0:07.206',-0.875,-0.565
'0:07.208',-0.875,-0.550
'0:07.211',-0.860,-0.530
'0:07.214',-0.860,-0.515
'0:07.217',-0.845,-0.490
'0:07.219',-0.850,-0.490
'0:07.222',-0.845,-0.490
'0:07.225',-0.845,-0.485
'0:07.228',-0.845,-0.490
'0:07.231',-0.850,-0.505
'0:07.233',-0.870,-0.505
'0:07.236',-0.885,-0.510
'0:07.239',-0.885,-0.520
'0:07.242',-0.875,-0.505
'0:07.244',-0.865,-0.485
'0:07.247',-0.855,-0.460
'0:07.250',-0.860,-0.460
'0:07.253',-0.865,-0.475
'0:07.256',-0.850,-0.485
'0:07.258',-0.860,-0.500
'0:07.261',-0.860,-0.495
'0:07.264',-0.885,-0.535
'0:07.267',-0.880,-0.530
'0:07.269',-0.895,-0.535
'0:07.272',-0.905,-0.515
'0:07.275',-0.900,-0.470
'0:07.278',-0.885,-0.475
'0:07.281',-0.885,-0.470
'0:07.283',-0.865,-0.465
'0:07.286',-0.875,-0.480
'0:07.289',-0.875,-0.470
'0:07.292',-0.880,-0.475
'0:07.294',-0.895,-0.510
'0:07.297',-0.900,-0.510
'0:07.300',-0.910,-0.525
'0:07.303',-0.920,-0.535
'0:07.306',-0.915,-0.555
'0:07.308',-0.925,-0.515
'0:07.311',-0.910,-0.505
'0:07.314',-0.890,-0.460
'0:07.317',-0.895,-0.465
'0:07.319',-0.885,-0.475
'0:07.322',-0.890,-0.490
'0:07.325',-0.890,-0.500
'0:07.328',-0.900,-0.525
'0:07.331',-0.895,-0.500
'0:07.333',-0.905,-0.515
'0:07.336',-0.875,-0.515
'0:07.339',-0.900,-0.500
'0:07.342',-0.900,-0.480
'0:07.344',-0.885,-0.465
'0:07.347',-0.890,-0.460
'0:07.350',-0.900,-0.430
'0:07.353',-0.875,-0.450
'0:07.356',-0.895,-0.465
'0:07.358',-0.895,-0.480
'0:07.361',-0.875,-0.510
'0:07.364',-0.885,-0.520
'0:07.367',-0.885,-0.510
'0:07.369',-0.885,-0.490
'0:07.372',-0.885,-0.475
'0:07.375',-0.875,-0.465
'0:07.378',-0.855,-0.460
'0:07.381',-0.860,-0.450
'0:07.383',-0.840,-0.445
'0:07.386',-0.845,-0.450
'0:07.389',-0.855,-0.465
'0:07.392',-0.865,-0.475
'0:07.394',-0.880,-0.480
'0:07.397',-0.890,-0.480
'0:07.400',-0.885,-0.495
'0:07.403',-0.885,-0.500
'0:07.406',-0.875,-0.490
'0:07.408',-0.875,-0.490
'0:07.411',-0.880,-0.475
'0:07.414',-0.860,-0.465
'0:07.417',-0.835,-0.445
'0:07.419',-0.850,-0.445
'0:07.422',-0.840,-0.460
'0:07.425',-0.835,-0.470
'0:07.428',-0.840,-0.490
'0:07.431',-0.840,-0.480
'0:07.433',-0.845,-0.470
'0:07.436',-0.840,-0.485
'0:07.439',-0.855,-0.485
'0:07.442',-0.835,-0.470
'0:07.444',-0.820,-0.450
'0:07.447',-0.795,-0.440
'0:07.450',-0.785,-0.440
'0:07.453',-0.770,-0.465
'0:07.456',-0.765,-0.485
'0:07.458',-0.760,-0.500
'0:07.461',-0.775,-0.540
'0:07.464',-0.765,-0.525
'0:07.467',-0.765,-0.530
'0:07.469',-0.760,-0.510
'0:07.472',-0.740,-0.500
'0:07.475',-0.715,-0.475
'0:07.478',-0.685,-0.430
'0:07.481',-0.680,-0.410
'0:07.483',-0.675,-0.370
'0:07.486',-0.705,-0.380
'0:07.489',-0.715,-0.405
'0:07.492',-0.730,-0.425
'0:07.494',-0.755,-0.445
'0:07.497',-0.765,-0.470
'0:07.500',-0.775,-0.475
'0:07.503',-0.755,-0.460
'0:07.506',-0.745,-0.420
'0:07.508',-0.720,-0.385
'0:07.511',-0.695,-0.335
'0:07.514',-0.685,-0.300
'0:07.517',-0.680,-0.265
'0:07.519',-0.685,-0.290
'0:07.522',-0.715,-0.305
'0:07.525',-0.750,-0.340
'0:07.528',-0.785,-0.395
'0:07.531',-0.805,-0.430
'0:07.533',-0.830,-0.450
'0:07.536',-0.845,-0.465
'0:07.539',-0.840,-0.450
'0:07.542',-0.840,-0.435
'0:07.544',-0.865,-0.395
'0:07.547',-0.870,-0.395
'0:07.550',-0.870,-0.380
'0:07.553',-0.865,-0.405
'0:07.556',-0.880,-0.435
'0:07.558',-0.890,-0.460
'0:07.561',-0.895,-0.475
'0:07.564',-0.905,-0.490
'0:07.567',-0.915,-0.490
'0:07.569',-0.915,-0.505
'0:07.572',-0.920,-0.495
'0:07.575',-0.910,-0.475
'0:07.578',-0.900,-0.460
'0:07.581',-0.885,-0.435
'0:07.583',-0.890,-0.430
'0:07.586',-0.890,-0.425
'0:07.589',-0.890,-0.435
'0:07.592',-0.905,-0.465
'0:07.594',-0.925,-0.460
'0:07.597',-0.920,-0.470
'0:07.600',-0.925,-0.485
'0:07.603',-0.930,-0.500
'0:07.606',-0.925,-0.505
'0:07.608',-0.910,-0.470
'0:07.611',-0.905,-0.470
'0:07.614',-0.910,-0.460
'0:07.617',-0.900,-0.450
'0:07.619',-0.890,-0.465
'0:07.622',-0.885,-0.470
'0:07.625',-0.905,-0.485
'0:07.628',-0.920,-0.500
'0:07.631',-0.925,-0.505
'0:07.633',-0.940,-0.515
'0:07.636',-0.950,-0.525
'0:07.639',-0.945,-0.550
'0:07.642',-0.955,-0.575
'0:07.644',-0.945,-0.625
'0:07.647',-0.920,-0.690
'0:07.650',-0.870,-0.790
'0:07.653',-0.765,-0.910
'0:07.656',-0.645,-1.040
'0:07.658',-0.500,-1.170
'0:07.661',-0.375,-1.290
'0:07.664',-0.260,-1.380
'0:07.667',-0.215,-1.380
'0:07.669',-0.220,-1.325
'0:07.672',-0.245,-1.215
'0:07.675',-0.235,-1.035
'0:07.678',-0.195,-0.865
'0:07.681',-0.055,-0.725
'0:07.683',0.095,-0.550
'0:07.686',0.250,-0.315
'0:07.689',0.320,-0.025
'0:07.692',0.220,0.305
'0:07.694',-0.035,0.550
'0:07.697',-0.415,0.660
'0:07.700',-0.830,0.640
'0:07.703',-1.160,0.425
'0:07.706',-1.410,0.175
'0:07.708',-1.540,-0.055
'0:07.711',-1.605,-0.230
'0:07.714',-1.640,-0.320
'0:07.717',-1.690,-0.355
'0:07.719',-1.725,-0.425
'0:07.722',-1.785,-0.470
'0:07.725',-1.825,-0.520
'0:07.728',-1.845,-0.570
'0:07.731',-1.865,-0.610
'0:07.733',-1.880,-0.610
'0:07.736',-1.885,-0.605
'0:07.739',-1.895,-0.590
'0:07.742',-1.890,-0.600
'0:07.744',-1.870,-0.585
'0:07.747',-1.830,-0.600
'0:07.750',-1.755,-0.610
'0:07.753',-1.655,-0.625
'0:07.756',-1.525,-0.640
'0:07.758',-1.405,-0.620
'0:07.761',-1.270,-0.600
'0:07.764',-1.145,-0.540
'0:07.767',-1.075,-0.490
'0:07.769',-1.035,-0.445
'0:07.772',-1.005,-0.405
'0:07.775',-1.010,-0.395
'0:07.778',-1.015,-0.395
'0:07.781',-1.005,-0.395
'0:07.783',-0.975,-0.385
'0:07.786',-0.950,-0.395
'0:07.789',-0.930,-0.400
'0:07.792',-0.935,-0.395
'0:07.794',-0.945,-0.400
'0:07.797',-0.950,-0.410
'0:07.800',-0.940,-0.410
'0:07.803',-0.930,-0.425
'0:07.806',-0.920,-0.425
'0:07.808',-0.925,-0.425
'0:07.811',-0.945,-0.450
'0:07.814',-0.945,-0.435
'0:07.817',-0.950,-0.450
'0:07.819',-0.940,-0.430
'0:07.822',-0.955,-0.445
'0:07.825',-0.960,-0.455
'0:07.828',-0.950,-0.500
'0:07.831',-0.970,-0.525
'0:07.833',-0.960,-0.550
'0:07.836',-0.970,-0.570
'0:07.839',-0.975,-0.575
'0:07.842',-0.975,-0.580
'0:07.844',-0.980,-0.580
'0:07.847',-0.985,-0.580
'0:07.850',-0.970,-0.605
'0:07.853',-0.985,-0.635
'0:07.856',-1.015,-0.650
'0:07.858',-1.040,-0.670
'0:07.861',-1.065,-0.680
'0:07.864',-1.085,-0.720
'0:07.867',-1.070,-0.725
'0:07.869',-1.070,-0.755
'0:07.872',-1.070,-0.740
'0:07.875',-1.070,-0.750
'0:07.878',-1.070,-0.750
'0:07.881',-1.080,-0.755
'0:07.883',-1.095,-0.790
'0:07.886',-1.100,-0.800
'0:07.889',-1.110,-0.830
'0:07.892',-1.145,-0.860
'0:07.894',-1.145,-0.850
'0:07.897',-1.165,-0.900
'0:07.900',-1.160,-0.880
'0:07.903',-1.180,-0.875
'0:07.906',-1.175,-0.905
'0:07.908',-1.185,-0.880
'0:07.911',-1.185,-0.910
'0:07.914',-1.185,-0.895
'0:07.917',-1.170,-0.880
'0:07.919',-1.160,-0.910
'0:07.922',-1.160,-0.905
'0:07.925',-1.165,-0.905
'0:07.928',-1.160,-0.935
'0:07.931',-1.165,-0.945
'0:07.933',-1.170,-0.945
'0:07.936',-1.175,-0.935
'0:07.939',-1.165,-0.925
'0:07.942',-1.150,-0.890
'0:07.944',-1.120,-0.865
'0:07.947',-1.105,-0.850
'0:07.950',-1.085,-0.830
'0:07.953',-1.060,-0.840
'0:07.956',-1.040,-0.830
'0:07.958',-1.030,-0.835
'0:07.961',-1.030,-0.835
'0:07.964',-1.035,-0.810
'0:07.967',-1.005,-0.790
'0:07.969',-0.995,-0.770
'0:07.972',-0.980,-0.750
'0:07.975',-0.960,-0.715
'0:07.978',-0.930,-0.695
'0:07.981',-0.920,-0.685
'0:07.983',-0.890,-0.675
'0:07.986',-0.880,-0.670
'0:07.989',-0.870,-0.660
'0:07.992',-0.875,-0.660
'0:07.994',-0.870,-0.645
'0:07.997',-0.855,-0.650
'0:08.000',-0.870,-0.625
'0:08.003',-0.870,-0.645
'0:08.006',-0.875,-0.635
'0:08.008',-0.870,-0.625
'0:08.011',-0.840,-0.575
'0:08.014',-0.825,-0.570
'0:08.017',-0.830,-0.570
'0:08.019',-0.805,-0.560
'0:08.022',-0.815,-0.570
'0:08.025',-0.825,-0.545
'0:08.028',-0.835,-0.560
'0:08.031',-0.850,-0.560
'0:08.033',-0.845,-0.560
'0:08.036',-0.840,-0.540
'0:08.039',-0.825,-0.545
'0:08.042',-0.830,-0.510
'0:08.044',-0.815,-0.520
'0:08.047',-0.810,-0.500
'0:08.050',-0.800,-0.500
'0:08.053',-0.805,-0.495
'0:08.056',-0.800,-0.495
'0:08.058',-0.810,-0.505
'0:08.061',-0.820,-0.525
'0:08.064',-0.845,-0.530
'0:08.067',-0.855,-0.525
'0:08.069',-0.845,-0.520
'0:08.072',-0.850,-0.530
'0:08.075',-0.840,-0.505
'0:08.078',-0.830,-0.500
'0:08.081',-0.835,-0.490
'0:08.083',-0.835,-0.495
'0:08.086',-0.830,-0.500
'0:08.089',-0.835,-0.495
'0:08.092',-0.840,-0.495
'0:08.094',-0.860,-0.515
'0:08.097',-0.865,-0.525
'0:08.100',-0.885,-0.520
'0:08.103',-0.895,-0.520
'0:08.106',-0.885,-0.530
'0:08.108',-0.895,-0.535
'0:08.111',-0.890,-0.530
'0:08.114',-0.885,-0.520
'0:08.117',-0.885,-0.510
'0:08.119',-0.865,-0.520
'0:08.122',-0.840,-0.520
'0:08.125',-0.815,-0.515
'0:08.128',-0.820,-0.535
'0:08.131',-0.845,-0.535
'0:08.133',-0.865,-0.545
'0:08.136',-0.915,-0.545
'0:08.139',-0.945,-0.540
'0:08.142',-0.915,-0.520
'0:08.144',-0.880,-0.510
'0:08.147',-0.865,-0.480
'0:08.150',-0.835,-0.480
'0:08.153',-0.855,-0.490
'0:08.156',-0.880,-0.510
'0:08.158',-0.920,-0.520
'0:08.161',-0.935,-0.510
'0:08.164',-0.940,-0.510
'0:08.167',-0.935,-0.500
'0:08.169',-0.945,-0.505
'0:08.172',-0.930,-0.495
'0:08.175',-0.935,-0.505
'0:08.178',-0.915,-0.510
'0:08.181',-0.910,-0.515
'0:08.183',-0.885,-0.530
'0:08.186',-0.885,-0.520
'0:08.189',-0.895,-0.515
'0:08.192',-0.890,-0.545
'0:08.194',-0.905,-0.550
'0:08.197',-0.925,-0.540
'0:08.200',-0.900,-0.535
'0:08.203',-0.910,-0.490
'0:08.206',-0.910,-0.480
'0:08.208',-0.895,-0.485
'0:08.211',-0.885,-0.495
'0:08.214',-0.865,-0.500
'0:08.217',-0.855,-0.510
'0:08.219',-0.850,-0.515
'0:08.222',-0.855,-0.525
'0:08.225',-0.865,-0.540
'0:08.228',-0.870,-0.550
'0:08.231',-0.870,-0.565
'0:08.233',-0.850,-0.565
'0:08.236',-0.865,-0.545
'0:08.239',-0.830,-0.540
'0:08.242',-0.835,-0.510
'0:08.244',-0.805,-0.510
'0:08.247',-0.765,-0.495
'0:08.250',-0.770,-0.510
'0:08.253',-0.750,-0.530
'0:08.256',-0.745,-0.540
'0:08.258',-0.735,-0.555
'0:08.261',-0.745,-0.570
'0:08.264',-0.745,-0.570
'0:08.267',-0.760,-0.565
'0:08.269',-0.775,-0.550
'0:08.272',-0.780,-0.525
'0:08.275',-0.765,-0.485
'0:08.278',-0.760,-0.445
'0:08.281',-0.750,-0.435
'0:08.283',-0.735,-0.420
'0:08.286',-0.765,-0.430
'0:08.289',-0.775,-0.455
'0:08.292',-0.765,-0.455
'0:08.294',-0.760,-0.475
'0:08.297',-0.735,-0.490
'0:08.300',-0.715,-0.485
'0:08.303',-0.730,-0.490
'0:08.306',-0.725,-0.460
'0:08.308',-0.750,-0.435
'0:08.311',-0.750,-0.400
'0:08.314',-0.790,-0.380
'0:08.317',-0.795,-0.345
'0:08.319',-0.830,-0.385
'0:08.322',-0.895,-0.410
'0:08.325',-0.920,-0.445
'0:08.328',-0.925,-0.505
'0:08.331',-0.930,-0.530
'0:08.333',-0.945,-0.540
'0:08.336',-0.940,-0.570
'0:08.339',-0.935,-0.565
'0:08.342',-0.935,-0.545
'0:08.344',-0.940,-0.535
'0:08.347',-0.950,-0.515
'0:08.350',-0.980,-0.495
'0:08.353',-0.965,-0.480
'0:08.356',-0.960,-0.470
'0:08.358',-0.965,-0.495
'0:08.361',-0.980,-0.520
'0:08.364',-0.995,-0.535
'0:08.367',-0.990,-0.550
'0:08.369',-0.985,-0.545
'0:08.372',-0.970,-0.545
'0:08.375',-0.980,-0.525
'0:08.378',-0.955,-0.510
'0:08.381',-0.975,-0.510
'0:08.383',-0.960,-0.505
'0:08.386',-0.970,-0.525
'0:08.389',-0.965,-0.535
'0:08.392',-0.985,-0.555
'0:08.394',-0.990,-0.565
'0:08.397',-1.000,-0.580
'0:08.400',-1.010,-0.560
'0:08.403',-1.035,-0.570
'0:08.406',-1.040,-0.580
'0:08.408',-1.035,-0.580
'0:08.411',-1.020,-0.560
'0:08.414',-1.015,-0.555
'0:08.417',-1.005,-0.560
'0:08.419',-1.000,-0.565
'0:08.422',-0.995,-0.560
'0:08.425',-1.015,-0.550
'0:08.428',-1.025,-0.555
'0:08.431',-1.040,-0.575
'0:08.433',-1.065,-0.605
'0:08.436',-1.095,-0.655
'0:08.439',-1.115,-0.730
'0:08.442',-1.120,-0.795
'0:08.444',-1.095,-0.895
'0:08.447',-1.065,-1.020
'0:08.450',-0.980,-1.180
'0:08.453',-0.885,-1.345
'0:08.456',-0.760,-1.495
'0:08.458',-0.660,-1.630
'0:08.461',-0.610,-1.680
'0:08.464',-0.590,-1.655
'0:08.467',-0.585,-1.545
'0:08.469',-0.575,-1.410
'0:08.472',-0.505,-1.240
'0:08.475',-0.370,-1.065
'0:08.478',-0.180,-0.920
'0:08.481',0.025,-0.740
'0:08.483',0.190,-0.485
'0:08.486',0.230,-0.175
'0:08.489',0.175,0.125
'0:08.492',-0.015,0.375
'0:08.494',-0.310,0.485
'0:08.497',-0.650,0.460
'0:08.500',-1.000,0.325
'0:08.503',-1.280,0.125
'0:08.506',-1.475,-0.070
'0:08.508',-1.595,-0.210
'0:08.511',-1.665,-0.285
'0:08.514',-1.695,-0.340
'0:08.517',-1.735,-0.360
'0:08.519',-1.785,-0.400
'0:08.522',-1.860,-0.430
'0:08.525',-1.905,-0.480
'0:08.528',-1.930,-0.505
'0:08.531',-1.950,-0.530
'0:08.533',-1.965,-0.545
'0:08.536',-1.975,-0.555
'0:08.539',-1.940,-0.570
'0:08.542',-1.935,-0.580
'0:08.544',-1.895,-0.615
'0:08.547',-1.845,-0.615
'0:08.550',-1.765,-0.640
'0:08.553',-1.665,-0.650
'0:08.556',-1.535,-0.630
'0:08.558',-1.405,-0.595
'0:08.561',-1.300,-0.570
'0:08.564',-1.210,-0.535
'0:08.567',-1.145,-0.505
'0:08.569',-1.125,-0.500
'0:08.572',-1.110,-0.475
'0:08.575',-1.125,-0.470
'0:08.578',-1.120,-0.495
'0:08.581',-1.110,-0.480
'0:08.583',-1.100,-0.475
'0:08.586',-1.090,-0.490
'0:08.589',-1.080,-0.475
'0:08.592',-1.080,-0.450
'0:08.594',-1.080,-0.445
'0:08.597',-1.070,-0.455
'0:08.600',-1.090,-0.480
'0:08.603',-1.085,-0.490
'0:08.606',-1.080,-0.485
'0:08.608',-1.065,-0.495
'0:08.611',-1.060,-0.470
'0:08.614',-1.070,-0.510
'0:08.617',-1.075,-0.510
'0:08.619',-1.060,-0.540
'0:08.622',-1.075,-0.565
'0:08.625',-1.080,-0.595
'0:08.628',-1.095,-0.630
'0:08.631',-1.120,-0.620
'0:08.633',-1.130,-0.620
'0:08.636',-1.150,-0.610
'0:08.639',-1.140,-0.605
'0:08.642',-1.150,-0.605
'0:08.644',-1.145,-0.610
'0:08.647',-1.145,-0.610
'0:08.650',-1.140,-0.645
'0:08.653',-1.155,-0.685
'0:08.656',-1.180,-0.705
'0:08.658',-1.185,-0.720
'0:08.661',-1.185,-0.725
'0:08.664',-1.175,-0.735
'0:08.667',-1.185,-0.730
'0:08.669',-1.220,-0.750
'0:08.672',-1.240,-0.775
'0:08.675',-1.265,-0.760
'0:08.678',-1.275,-0.770
'0:08.681',-1.255,-0.800
'0:08.683',-1.265,-0.815
'0:08.686',-1.250,-0.825
'0:08.689',-1.245,-0.830
'0:08.692',-1.245,-0.820
'0:08.694',-1.245,-0.810
'0:08.697',-1.255,-0.835
'0:08.700',-1.280,-0.860
'0:08.703',-1.300,-0.870
'0:08.706',-1.305,-0.885
'0:08.708',-1.295,-0.875
'0:08.711',-1.290,-0.875
'0:08.714',-1.295,-0.865
'0:08.717',-1.295,-0.865
'0:08.719',-1.280,-0.845
'0:08.722',-1.265,-0.860
'0:08.725',-1.265,-0.855
'0:08.728',-1.260,-0.845
'0:08.731',-1.275,-0.875
'0:08.733',-1.275,-0.885
'0:08.736',-1.295,-0.905
'0:08.739',-1.290,-0.915
'0:08.742',-1.270,-0.905
'0:08.744',-1.260,-0.895
'0:08.747',-1.235,-0.860
'0:08.750',-1.210,-0.850
'0:08.753',-1.185,-0.840
'0:08.756',-1.185,-0.835
'0:08.758',-1.175,-0.815
'0:08.761',-1.160,-0.800
'0:08.764',-1.160,-0.775
'0:08.767',-1.140,-0.775
'0:08.769',-1.135,-0.790
'0:08.772',-1.135,-0.785
'0:08.775',-1.105,-0.760
'0:08.778',-1.055,-0.750
'0:08.781',-1.050,-0.730
'0:08.783',-1.020,-0.700
'0:08.786',-0.995,-0.665
'0:08.789',-0.980,-0.650
'0:08.792',-0.965,-0.645
'0:08.794',-0.985,-0.645
'0:08.797',-1.005,-0.670
'0:08.800',-1.020,-0.665
'0:08.803',-1.040,-0.685
'0:08.806',-1.025,-0.655
'0:08.808',-1.015,-0.640
'0:08.811',-1.010,-0.615
'0:08.814',-1.000,-0.605
'0:08.817',-0.985,-0.585
'0:08.819',-0.960,-0.575
'0:08.822',-0.955,-0.555
'0:08.825',-0.955,-0.555
'0:08.828',-0.955,-0.560
'0:08.831',-0.985,-0.560
'0:08.833',-0.995,-0.595
'0:08.836',-0.990,-0.600
'0:08.839',-1.010,-0.590
'0:08.842',-0.990,-0.585
'0:08.844',-0.985,-0.560
'0:08.847',-0.985,-0.530
'0:08.850',-0.975,-0.500
'0:08.853',-0.960,-0.485
'0:08.856',-0.945,-0.495
'0:08.858',-0.935,-0.525
'0:08.861',-0.955,-0.540
'0:08.864',-0.995,-0.565
'0:08.867',-1.025,-0.585
'0:08.869',-1.045,-0.575
'0:08.872',-1.065,-0.565
'0:08.875',-1.065,-0.545
'0:08.878',-1.035,-0.520
'0:08.881',-0.995,-0.500
'0:08.883',-0.970,-0.505
'0:08.886',-0.970,-0.515
'0:08.889',-0.995,-0.525
'0:08.892',-1.030,-0.540
'0:08.894',-1.050,-0.570
'0:08.897',-1.055,-0.575
'0:08.900',-1.065,-0.580
'0:08.903',-1.035,-0.580
'0:08.906',-1.015,-0.580
'0:08.908',-1.000,-0.560
'0:08.911',-1.000,-0.545
'0:08.914',-1.005,-0.535
'0:08.917',-1.010,-0.540
'0:08.919',-1.040,-0.555
'0:08.922',-1.045,-0.570
'0:08.925',-1.065,-0.625
'0:08.928',-1.080,-0.630
'0:08.931',-1.065,-0.645
'0:08.933',-1.050,-0.630
'0:08.936',-1.040,-0.590
'0:08.939',-1.025,-0.565
'0:08.942',-1.025,-0.515
'0:08.944',-1.025,-0.510
'0:08.947',-1.025,-0.500
'0:08.950',-1.040,-0.490
'0:08.953',-1.040,-0.515
'0:08.956',-1.040,-0.535
'0:08.958',-1.060,-0.575
'0:08.961',-1.075,-0.595
'0:08.964',-1.080,-0.625
'0:08.967',-1.070,-0.615
'0:08.969',-1.060,-0.600
'0:08.972',-1.065,-0.575
'0:08.975',-1.045,-0.570
'0:08.978',-1.040,-0.520
'0:08.981',-1.055,-0.525
'0:08.983',-1.055,-0.530
'0:08.986',-1.060,-0.575
'0:08.989',-1.060,-0.575
'0:08.992',-1.100,-0.585
'0:08.994',-1.115,-0.615
'0:08.997',-1.130,-0.625
'0:09.000',-1.150,-0.625
'0:09.003',-1.155,-0.605
'0:09.006',-1.125,-0.600
'0:09.008',-1.075,-0.550
'0:09.011',-1.040,-0.540
'0:09.014',-1.020,-0.545
'0:09.017',-1.035,-0.540
'0:09.019',-1.060,-0.560
'0:09.022',-1.090,-0.560
'0:09.025',-1.115,-0.545
'0:09.028',-1.110,-0.540
'0:09.031',-1.115,-0.535
'0:09.033',-1.095,-0.525
'0:09.036',-1.105,-0.540
'0:09.039',-1.115,-0.555
'0:09.042',-1.125,-0.550
'0:09.044',-1.125,-0.550
'0:09.047',-1.095,-0.535
'0:09.050',-1.085,-0.510
'0:09.053',-1.075,-0.500
'0:09.056',-1.070,-0.515
'0:09.058',-1.070,-0.520
'0:09.061',-1.090,-0.535
'0:09.064',-1.110,-0.550
'0:09.067',-1.110,-0.570
'0:09.069',-1.125,-0.560
'0:09.072',-1.145,-0.575
'0:09.075',-1.130,-0.580
'0:09.078',-1.105,-0.565
'0:09.081',-1.100,-0.580
'0:09.083',-1.095,-0.595
'0:09.086',-1.100,-0.575
'0:09.089',-1.100,-0.580
'0:09.092',-1.100,-0.550
'0:09.094',-1.075,-0.545
'0:09.097',-1.075,-0.525
'0:09.100',-1.060,-0.545
'0:09.103',-1.065,-0.560
'0:09.106',-1.065,-0.600
'0:09.108',-1.070,-0.630
'0:09.111',-1.070,-0.645
'0:09.114',-1.060,-0.640
'0:09.117',-1.060,-0.620
'0:09.119',-1.015,-0.585
'0:09.122',-1.025,-0.580
'0:09.125',-1.015,-0.560
'0:09.128',-0.985,-0.585
'0:09.131',-0.970,-0.600
'0:09.133',-0.955,-0.600
'0:09.136',-0.955,-0.585
'0:09.139',-0.945,-0.560
'0:09.142',-0.945,-0.525
'0:09.144',-0.945,-0.500
'0:09.147',-0.965,-0.495
'0:09.150',-0.975,-0.505
'0:09.153',-0.995,-0.515
'0:09.156',-1.010,-0.545
'0:09.158',-1.010,-0.575
'0:09.161',-1.025,-0.585
'0:09.164',-1.010,-0.590
'0:09.167',-0.990,-0.565
'0:09.169',-0.960,-0.505
'0:09.172',-0.940,-0.455
'0:09.175',-0.935,-0.410
'0:09.178',-0.940,-0.360
'0:09.181',-0.970,-0.385
'0:09.183',-1.020,-0.390
'0:09.186',-1.060,-0.440
'0:09.189',-1.090,-0.490
'0:09.192',-1.110,-0.495
'0:09.194',-1.110,-0.540
'0:09.197',-1.130,-0.555
'0:09.200',-1.155,-0.560
'0:09.203',-1.160,-0.565
'0:09.206',-1.165,-0.570
'0:09.208',-1.185,-0.550
'0:09.211',-1.195,-0.535
'0:09.214',-1.190,-0.545
'0:09.217',-1.200,-0.525
'0:09.219',-1.190,-0.520
'0:09.222',-1.195,-0.540
'0:09.225',-1.200,-0.580
'0:09.228',-1.180,-0.580
'0:09.231',-1.175,-0.600
'0:09.233',-1.185,-0.610
'0:09.236',-1.210,-0.615
'0:09.239',-1.225,-0.595
'0:09.242',-1.245,-0.590
'0:09.244',-1.245,-0.585
'0:09.247',-1.240,-0.580
'0:09.250',-1.190,-0.580
'0:09.253',-1.180,-0.575
'0:09.256',-1.165,-0.610
'0:09.258',-1.205,-0.590
'0:09.261',-1.200,-0.590
'0:09.264',-1.225,-0.590
'0:09.267',-1.220,-0.625
'0:09.269',-1.230,-0.620
'0:09.272',-1.235,-0.635
'0:09.275',-1.225,-0.620
'0:09.278',-1.205,-0.610
'0:09.281',-1.185,-0.595
'0:09.283',-1.155,-0.570
'0:09.286',-1.150,-0.555
'0:09.289',-1.180,-0.575
'0:09.292',-1.210,-0.610
'0:09.294',-1.245,-0.650
'0:09.297',-1.285,-0.700
'0:09.300',-1.325,-0.760
'0:09.303',-1.330,-0.825
'0:09.306',-1.310,-0.880
'0:09.308',-1.240,-0.960
'0:09.311',-1.125,-1.040
'0:09.314',-0.960,-1.145
'0:09.317',-0.815,-1.270
'0:09.319',-0.685,-1.405
'0:09.322',-0.620,-1.520
'0:09.325',-0.560,-1.550
'0:09.328',-0.565,-1.545
'0:09.331',-0.585,-1.435
'0:09.333',-0.580,-1.310
'0:09.336',-0.550,-1.145
'0:09.339',-0.430,-0.990
'0:09.342',-0.270,-0.820
'0:09.344',-0.100,-0.640
'0:09.347',0.040,-0.415
'0:09.350',0.050,-0.130
'0:09.353',-0.040,0.150
'0:09.356',-0.345,0.355
'0:09.358',-0.765,0.415
'0:09.361',-1.180,0.330
'0:09.364',-1.560,0.095
'0:09.367',-1.845,-0.155
'0:09.369',-2.030,-0.400
'0:09.372',-2.165,-0.525
'0:09.375',-2.215,-0.610
'0:09.378',-2.245,-0.640
'0:09.381',-2.240,-0.665
'0:09.383',-2.240,-0.715
'0:09.386',-2.210,-0.760
'0:09.389',-2.215,-0.815
'0:09.392',-2.205,-0.830
'0:09.394',-2.215,-0.840
'0:09.397',-2.230,-0.815
'0:09.400',-2.260,-0.820
'0:09.403',-2.260,-0.810
'0:09.406',-2.235,-0.825
'0:09.408',-2.190,-0.825
'0:09.411',-2.090,-0.830
'0:09.414',-1.955,-0.845
'0:09.417',-1.815,-0.815
'0:09.419',-1.685,-0.785
'0:09.422',-1.575,-0.735
'0:09.425',-1.510,-0.670
'0:09.428',-1.430,-0.620
'0:09.431',-1.395,-0.600
'0:09.433',-1.385,-0.585
'0:09.436',-1.385,-0.580
'0:09.439',-1.375,-0.595
'0:09.442',-1.380,-0.595
'0:09.444',-1.350,-0.615
'0:09.447',-1.315,-0.605
'0:09.450',-1.290,-0.585
'0:09.453',-1.265,-0.570
'0:09.456',-1.265,-0.575
'0:09.458',-1.270,-0.560
'0:09.461',-1.290,-0.575
'0:09.464',-1.305,-0.590
'0:09.467',-1.300,-0.595
'0:09.469',-1.325,-0.595
'0:09.472',-1.345,-0.600
'0:09.475',-1.380,-0.595
'0:09.478',-1.365,-0.600
'0:09.481',-1.375,-0.630
'0:09.483',-1.335,-0.645
'0:09.486',-1.320,-0.650
'0:09.489',-1.305,-0.660
'0:09.492',-1.305,-0.660
'0:09.494',-1.345,-0.670
'0:09.497',-1.360,-0.670
'0:09.500',-1.360,-0.675
'0:09.503',-1.385,-0.685
'0:09.506',-1.390,-0.695
'0:09.508',-1.385,-0.710
'0:09.511',-1.380,-0.730
'0:09.514',-1.365,-0.745
'0:09.517',-1.380,-0.730
'0:09.519',-1.410,-0.760
'0:09.522',-1.430,-0.790
'0:09.525',-1.440,-0.810
'0:09.528',-1.445,-0.845
'0:09.531',-1.455,-0.870
'0:09.533',-1.465,-0.860
'0:09.536',-1.480,-0.860
'0:09.539',-1.500,-0.845
'0:09.542',-1.525,-0.875
'0:09.544',-1.525,-0.865
'0:09.547',-1.540,-0.890
'0:09.550',-1.525,-0.910
'0:09.553',-1.500,-0.910
'0:09.556',-1.515,-0.925
'0:09.558',-1.500,-0.950
'0:09.561',-1.495,-0.990
'0:09.564',-1.495,-1.000
'0:09.567',-1.535,-1.000
'0:09.569',-1.540,-1.000
'0:09.572',-1.550,-0.995
'0:09.575',-1.545,-0.990
'0:09.578',-1.535,-0.975
'0:09.581',-1.520,-0.985
'0:09.583',-1.495,-0.995
'0:09.586',-1.490,-0.990
'0:09.589',-1.495,-1.000
'0:09.592',-1.505,-1.000
'0:09.594',-1.500,-1.000
'0:09.597',-1.510,-1.015
'0:09.600',-1.505,-1.010
'0:09.603',-1.515,-1.000
'0:09.606',-1.520,-0.995
'0:09.608',-1.505,-0.960
'0:09.611',-1.475,-0.940
'0:09.614',-1.425,-0.900
'0:09.617',-1.375,-0.900
'0:09.619',-1.340,-0.885
'0:09.622',-1.315,-0.915
'0:09.625',-1.315,-0.890
'0:09.628',-1.330,-0.900
'0:09.631',-1.360,-0.910
'0:09.633',-1.395,-0.885
'0:09.636',-1.385,-0.880
'0:09.639',-1.355,-0.865
'0:09.642',-1.315,-0.830
'0:09.644',-1.255,-0.810
'0:09.647',-1.220,-0.775
'0:09.650',-1.205,-0.750
'0:09.653',-1.175,-0.740
'0:09.656',-1.170,-0.720
'0:09.658',-1.175,-0.700
'0:09.661',-1.160,-0.670
'0:09.664',-1.165,-0.645
'0:09.667',-1.160,-0.655
'0:09.669',-1.175,-0.650
'0:09.672',-1.185,-0.660
'0:09.675',-1.205,-0.680
'0:09.678',-1.215,-0.685
'0:09.681',-1.210,-0.685
'0:09.683',-1.205,-0.670
'0:09.686',-1.190,-0.635
'0:09.689',-1.175,-0.605
'0:09.692',-1.185,-0.580
'0:09.694',-1.185,-0.585
'0:09.697',-1.175,-0.605
'0:09.700',-1.180,-0.635
'0:09.703',-1.185,-0.645
'0:09.706',-1.185,-0.640
'0:09.708',-1.200,-0.625
'0:09.711',-1.195,-0.600
'0:09.714',-1.175,-0.600
'0:09.717',-1.165,-0.585
'0:09.719',-1.150,-0.575
'0:09.722',-1.160,-0.590
'0:09.725',-1.145,-0.595
'0:09.728',-1.155,-0.615
'0:09.731',-1.175,-0.625
'0:09.733',-1.160,-0.635
'0:09.736',-1.185,-0.650
'0:09.739',-1.200,-0.645
'0:09.742',-1.210,-0.645
'0:09.744',-1.175,-0.630
'0:09.747',-1.165,-0.630
'0:09.750',-1.185,-0.610
'0:09.753',-1.175,-0.600
'0:09.756',-1.165,-0.590
'0:09.758',-1.175,-0.580
'0:09.761',-1.205,-0.590
'0:09.764',-1.235,-0.610
'0:09.767',-1.260,-0.615
'0:09.769',-1.245,-0.645
'0:09.772',-1.245,-0.640
'0:09.775',-1.240,-0.660
'0:09.778',-1.205,-0.645
'0:09.781',-1.190,-0.635
'0:09.783',-1.175,-0.610
'0:09.786',-1.180,-0.645
'0:09.789',-1.190,-0.615
'0:09.792',-1.220,-0.620
'0:09.794',-1.235,-0.610
'0:09.797',-1.250,-0.615
'0:09.800',-1.240,-0.625
'0:09.803',-1.235,-0.645
'0:09.806',-1.230,-0.665
'0:09.808',-1.205,-0.650
'0:09.811',-1.205,-0.635
'0:09.814',-1.180,-0.610
'0:09.817',-1.200,-0.620
'0:09.819',-1.190,-0.600
'0:09.822',-1.185,-0.615
'0:09.825',-1.165,-0.605
'0:09.828',-1.150,-0.615
'0:09.831',-1.150,-0.620
'0:09.833',-1.180,-0.625
'0:09.836',-1.200,-0.635
'0:09.839',-1.240,-0.645
'0:09.842',-1.255,-0.675
'0:09.844',-1.255,-0.660
'0:09.847',-1.230,-0.675
'0:09.850',-1.225,-0.650
'0:09.853',-1.205,-0.645
'0:09.856',-1.175,-0.615
'0:09.858',-1.195,-0.605
'0:09.861',-1.185,-0.590
'0:09.864',-1.165,-0.615
'0:09.867',-1.170,-0.615
'0:09.869',-1.165,-0.630
'0:09.872',-1.180,-0.660
'0:09.875',-1.190,-0.655
'0:09.878',-1.200,-0.660
'0:09.881',-1.190,-0.655
'0:09.883',-1.195,-0.645
'0:09.886',-1.195,-0.650
'0:09.889',-1.180,-0.655
'0:09.892',-1.185,-0.640
'0:09.894',-1.185,-0.645
'0:09.897',-1.175,-0.640
'0:09.900',-1.170,-0.615
'0:09.903',-1.160,-0.630
'0:09.906',-1.175,-0.635
'0:09.908',-1.185,-0.620
'0:09.911',-1.180,-0.610
'0:09.914',-1.185,-0.595
'0:09.917',-1.195,-0.590
'0:09.919',-1.170,-0.580
'0:09.922',-1.175,-0.590
'0:09.925',-1.150,-0.635
'0:09.928',-1.150,-0.645
'0:09.931',-1.155,-0.655
'0:09.933',-1.160,-0.660
'0:09.936',-1.160,-0.645
'0:09.939',-1.160,-0.640
'0:09.942',-1.170,-0.620
'0:09.944',-1.160,-0.620
'0:09.947',-1.135,-0.600
'0:09.950',-1.130,-0.620
'0:09.953',-1.110,-0.610
'0:09.956',-1.125,-0.625
'0:09.958',-1.135,-0.615
'0:09.961',-1.160,-0.610
'0:09.964',-1.175,-0.610
'0:09.967',-1.180,-0.630
'0:09.969',-1.160,-0.630
'0:09.972',-1.145,-0.645
'0:09.975',-1.115,-0.645
'0:09.978',-1.095,-0.630
'0:09.981',-1.085,-0.625
'0:09.983',-1.075,-0.615
'0:09.986',-1.050,-0.630
'0:09.989',-1.055,-0.660
'0:09.992',-1.055,-0.685
'0:09.994',-1.040,-0.695
'0:09.997',-1.035,-0.690
