'Elapsed time','MLII','V1'
'hh:mm:ss.mmm','mV','mV'
'0:00.000',-0.995,-0.470
'0:00.003',-0.995,-0.470
'0:00.006',-0.995,-0.470
'0:00.008',-0.995,-0.470
'0:00.011',-0.995,-0.470
'0:00.014',-0.995,-0.470
'0:00.017',-0.995,-0.470
'0:00.019',-1.015,-0.470
'0:00.022',-0.985,-0.455
'0:00.025',-0.985,-0.450
'0:00.028',-0.970,-0.445
'0:00.031',-0.975,-0.410
'0:00.033',-0.970,-0.425
'0:00.036',-0.990,-0.415
'0:00.039',-1.000,-0.420
'0:00.042',-1.020,-0.425
'0:00.044',-1.025,-0.445
'0:00.047',-1.030,-0.450
'0:00.050',-1.045,-0.455
'0:00.053',-1.025,-0.445
'0:00.056',-1.035,-0.425
'0:00.058',-1.015,-0.405
'0:00.061',-1.015,-0.400
'0:00.064',-0.995,-0.385
'0:00.067',-0.990,-0.380
'0:00.069',-0.990,-0.385
'0:00.072',-0.995,-0.385
'0:00.075',-1.005,-0.405
'0:00.078',-1.005,-0.400
'0:00.081',-1.015,-0.415
'0:00.083',-1.010,-0.410
'0:00.086',-0.990,-0.405
'0:00.089',-1.020,-0.400
'0:00.092',-1.010,-0.380
'0:00.094',-1.015,-0.390
'0:00.097',-1.000,-0.370
'0:00.100',-0.990,-0.375
'0:00.103',-0.995,-0.385
'0:00.106',-1.010,-0.395
'0:00.108',-1.005,-0.415
'0:00.111',-1.015,-0.420
'0:00.114',-0.995,-0.410
'0:00.117',-1.005,-0.415
'0:00.119',-1.005,-0.420
'0:00.122',-0.985,-0.410
'0:00.125',-0.985,-0.370
'0:00.128',-0.980,-0.365
'0:00.131',-0.960,-0.350
'0:00.133',-0.940,-0.370
'0:00.136',-0.960,-0.370
'0:00.139',-0.940,-0.385
'0:00.142',-0.945,-0.380
'0:00.144',-0.945,-0.390
'0:00.147',-0.940,-0.385
'0:00.150',-0.950,-0.405
'0:00.153',-0.935,-0.380
'0:00.156',-0.915,-0.385
'0:00.158',-0.905,-0.370
'0:00.161',-0.890,-0.370
'0:00.164',-0.875,-0.360
'0:00.167',-0.860,-0.380
'0:00.169',-0.865,-0.385
'0:00.172',-0.860,-0.385
'0:00.175',-0.845,-0.380
'0:00.178',-0.850,-0.410
'0:00.181',-0.850,-0.385
'0:00.183',-0.840,-0.375
'0:00.186',-0.820,-0.390
'0:00.189',-0.805,-0.365
'0:00.192',-0.775,-0.350
'0:00.194',-0.755,-0.350
'0:00.197',-0.725,-0.325
'0:00.200',-0.705,-0.335
'0:00.203',-0.685,-0.330
'0:00.206',-0.670,-0.355
'0:00.208',-0.670,-0.365
'0:00.211',-0.660,-0.365
'0:00.214',-0.650,-0.365
'0:00.217',-0.630,-0.375
'0:00.219',-0.605,-0.385
'0:00.222',-0.600,-0.380
'0:00.225',-0.560,-0.365
'0:00.228',-0.530,-0.350
'0:00.231',-0.520,-0.355
'0:00.233',-0.495,-0.360
'0:00.236',-0.475,-0.360
'0:00.239',-0.470,-0.370
'0:00.242',-0.450,-0.400
'0:00.244',-0.450,-0.405
'0:00.247',-0.445,-0.400
'0:00.250',-0.435,-0.410
'0:00.253',-0.425,-0.400
'0:00.256',-0.415,-0.400
'0:00.258',-0.385,-0.380
'0:00.261',-0.370,-0.380
'0:00.264',-0.365,-0.365
'0:00.267',-0.365,-0.360
'0:00.269',-0.350,-0.385
'0:00.272',-0.370,-0.395
'0:00.275',-0.395,-0.405
'0:00.278',-0.420,-0.415
'0:00.281',-0.445,-0.410
'0:00.283',-0.470,-0.410
'0:00.286',-0.490,-0.405
'0:00.289',-0.525,-0.380
'0:00.292',-0.550,-0.380
'0:00.294',-0.555,-0.375
'0:00.297',-0.590,-0.385
'0:00.300',-0.615,-0.370
'0:00.303',-0.650,-0.360
'0:00.306',-0.685,-0.370
'0:00.308',-0.740,-0.365
'0:00.311',-0.765,-0.400
'0:00.314',-0.800,-0.400
'0:00.317',-0.830,-0.400
'0:00.319',-0.845,-0.390
'0:00.322',-0.850,-0.370
'0:00.325',-0.865,-0.375
'0:00.328',-0.875,-0.365
'0:00.331',-0.870,-0.370
'0:00.333',-0.865,-0.385
'0:00.336',-0.870,-0.385
'0:00.339',-0.890,-0.385
'0:00.342',-0.905,-0.395
'0:00.344',-0.925,-0.405
'0:00.347',-0.930,-0.430
'0:00.350',-0.945,-0.425
'0:00.353',-0.950,-0.430
'0:00.356',-0.935,-0.415
'0:00.358',-0.930,-0.405
'0:00.361',-0.930,-0.405
'0:00.364',-0.925,-0.395
'0:00.367',-0.930,-0.395
'0:00.369',-0.935,-0.395
'0:00.372',-0.940,-0.405
'0:00.375',-0.930,-0.415
'0:00.378',-0.950,-0.420
'0:00.381',-0.935,-0.435
'0:00.383',-0.950,-0.425
'0:00.386',-0.955,-0.410
'0:00.389',-0.960,-0.415
'0:00.392',-0.945,-0.410
'0:00.394',-0.920,-0.380
'0:00.397',-0.915,-0.375
'0:00.400',-0.905,-0.395
'0:00.403',-0.920,-0.390
'0:00.406',-0.915,-0.400
'0:00.408',-0.930,-0.405
'0:00.411',-0.935,-0.415
'0:00.414',-0.945,-0.415
'0:00.417',-0.920,-0.430
'0:00.419',-0.915,-0.430
'0:00.422',-0.905,-0.415
'0:00.425',-0.900,-0.420
'0:00.428',-0.905,-0.405
'0:00.431',-0.880,-0.390
'0:00.433',-0.875,-0.405
'0:00.436',-0.870,-0.390
'0:00.439',-0.870,-0.395
'0:00.442',-0.880,-0.405
'0:00.444',-0.880,-0.420
'0:00.447',-0.905,-0.420
'0:00.450',-0.900,-0.430
'0:00.453',-0.910,-0.435
'0:00.456',-0.900,-0.425
'0:00.458',-0.885,-0.410
'0:00.461',-0.865,-0.415
'0:00.464',-0.850,-0.400
'0:00.467',-0.850,-0.415
'0:00.469',-0.845,-0.420
'0:00.472',-0.855,-0.425
'0:00.475',-0.865,-0.425
'0:00.478',-0.875,-0.425
'0:00.481',-0.890,-0.440
'0:00.483',-0.895,-0.445
'0:00.486',-0.895,-0.450
'0:00.489',-0.890,-0.430
'0:00.492',-0.885,-0.435
'0:00.494',-0.875,-0.410
'0:00.497',-0.875,-0.405
'0:00.500',-0.860,-0.400
'0:00.503',-0.870,-0.405
'0:00.506',-0.880,-0.410
'0:00.508',-0.890,-0.420
'0:00.511',-0.900,-0.435
'0:00.514',-0.915,-0.425
'0:00.517',-0.930,-0.430
'0:00.519',-0.930,-0.430
'0:00.522',-0.905,-0.425
'0:00.525',-0.920,-0.430
'0:00.528',-0.880,-0.415
'0:00.531',-0.890,-0.410
'0:00.533',-0.885,-0.405
'0:00.536',-0.905,-0.420
'0:00.539',-0.885,-0.425
'0:00.542',-0.910,-0.445
'0:00.544',-0.900,-0.450
'0:00.547',-0.920,-0.455
'0:00.550',-0.925,-0.450
'0:00.553',-0.920,-0.430
'0:00.556',-0.925,-0.425
'0:00.558',-0.920,-0.425
'0:00.561',-0.920,-0.390
'0:00.564',-0.905,-0.390
'0:00.567',-0.900,-0.400
'0:00.569',-0.915,-0.410
'0:00.572',-0.920,-0.410
'0:00.575',-0.935,-0.430
'0:00.578',-0.945,-0.445
'0:00.581',-0.940,-0.440
'0:00.583',-0.965,-0.450
'0:00.586',-0.950,-0.445
'0:00.589',-0.960,-0.445
'0:00.592',-0.940,-0.425
'0:00.594',-0.940,-0.425
'0:00.597',-0.925,-0.420
'0:00.600',-0.910,-0.425
'0:00.603',-0.915,-0.410
'0:00.606',-0.920,-0.425
'0:00.608',-0.915,-0.440
'0:00.611',-0.920,-0.445
'0:00.614',-0.930,-0.450
'0:00.617',-0.940,-0.460
'0:00.619',-0.940,-0.450
'0:00.622',-0.935,-0.430
'0:00.625',-0.915,-0.415
'0:00.628',-0.915,-0.420
'0:00.631',-0.905,-0.395
'0:00.633',-0.895,-0.415
'0:00.636',-0.905,-0.410
'0:00.639',-0.900,-0.425
'0:00.642',-0.910,-0.435
'0:00.644',-0.910,-0.425
'0:00.647',-0.910,-0.445
'0:00.650',-0.925,-0.445
'0:00.653',-0.910,-0.425
'0:00.656',-0.890,-0.415
'0:00.658',-0.865,-0.400
'0:00.661',-0.845,-0.395
'0:00.664',-0.820,-0.365
'0:00.667',-0.800,-0.370
'0:00.669',-0.790,-0.365
'0:00.672',-0.770,-0.370
'0:00.675',-0.770,-0.370
'0:00.678',-0.755,-0.370
'0:00.681',-0.745,-0.340
'0:00.683',-0.720,-0.355
'0:00.686',-0.675,-0.340
'0:00.689',-0.640,-0.345
'0:00.692',-0.605,-0.325
'0:00.694',-0.580,-0.350
'0:00.697',-0.550,-0.345
'0:00.700',-0.560,-0.390
'0:00.703',-0.575,-0.410
'0:00.706',-0.610,-0.450
'0:00.708',-0.605,-0.465
'0:00.711',-0.625,-0.470
'0:00.714',-0.655,-0.465
'0:00.717',-0.665,-0.480
'0:00.719',-0.705,-0.480
'0:00.722',-0.745,-0.480
'0:00.725',-0.780,-0.480
'0:00.728',-0.850,-0.455
'0:00.731',-0.875,-0.455
'0:00.733',-0.910,-0.455
'0:00.736',-0.910,-0.440
'0:00.739',-0.925,-0.455
'0:00.742',-0.935,-0.470
'0:00.744',-0.950,-0.465
'0:00.747',-0.945,-0.475
'0:00.750',-0.950,-0.490
'0:00.753',-0.955,-0.480
'0:00.756',-0.960,-0.480
'0:00.758',-0.960,-0.475
'0:00.761',-0.945,-0.465
'0:00.764',-0.935,-0.450
'0:00.767',-0.940,-0.475
'0:00.769',-0.945,-0.460
'0:00.772',-0.950,-0.470
'0:00.775',-0.955,-0.495
'0:00.778',-0.965,-0.480
'0:00.781',-0.980,-0.490
'0:00.783',-0.970,-0.505
'0:00.786',-0.975,-0.500
'0:00.789',-0.975,-0.505
'0:00.792',-0.950,-0.490
'0:00.794',-0.955,-0.485
'0:00.797',-0.945,-0.465
'0:00.800',-0.930,-0.450
'0:00.803',-0.945,-0.460
'0:00.806',-0.970,-0.470
'0:00.808',-0.955,-0.460
'0:00.811',-0.950,-0.475
'0:00.814',-0.955,-0.485
'0:00.817',-0.965,-0.475
'0:00.819',-0.975,-0.470
'0:00.822',-0.990,-0.455
'0:00.825',-1.005,-0.425
'0:00.828',-1.000,-0.400
'0:00.831',-0.970,-0.335
'0:00.833',-0.890,-0.275
'0:00.836',-0.755,-0.245
'0:00.839',-0.570,-0.225
'0:00.842',-0.335,-0.260
'0:00.844',-0.040,-0.355
'0:00.847',0.320,-0.500
'0:00.850',0.665,-0.675
'0:00.853',0.945,-0.905
'0:00.856',1.115,-1.125
'0:00.858',1.205,-1.335
'0:00.861',1.175,-1.475
'0:00.864',1.040,-1.530
'0:00.867',0.820,-1.545
'0:00.869',0.450,-1.505
'0:00.872',-0.030,-1.445
'0:00.875',-0.535,-1.385
'0:00.878',-0.905,-1.290
'0:00.881',-1.085,-1.195
'0:00.883',-1.070,-1.090
'0:00.886',-0.965,-0.990
'0:00.889',-0.830,-0.890
'0:00.892',-0.735,-0.790
'0:00.894',-0.690,-0.720
'0:00.897',-0.710,-0.650
'0:00.900',-0.755,-0.595
'0:00.903',-0.825,-0.560
'0:00.906',-0.880,-0.510
'0:00.908',-0.920,-0.495
'0:00.911',-0.955,-0.495
'0:00.914',-0.955,-0.490
'0:00.917',-0.965,-0.485
'0:00.919',-0.955,-0.470
'0:00.922',-0.940,-0.455
'0:00.925',-0.935,-0.445
'0:00.928',-0.945,-0.420
'0:00.931',-0.930,-0.405
'0:00.933',-0.960,-0.400
'0:00.936',-0.945,-0.395
'0:00.939',-0.965,-0.400
'0:00.942',-0.970,-0.400
'0:00.944',-0.970,-0.410
'0:00.947',-0.980,-0.410
'0:00.950',-0.980,-0.425
'0:00.953',-0.985,-0.405
'0:00.956',-0.980,-0.405
'0:00.958',-0.980,-0.405
'0:00.961',-0.970,-0.385
'0:00.964',-0.965,-0.385
'0:00.967',-0.975,-0.390
'0:00.969',-0.970,-0.385
'0:00.972',-0.980,-0.390
'0:00.975',-0.975,-0.395
'0:00.978',-0.985,-0.405
'0:00.981',-1.000,-0.400
'0:00.983',-1.015,-0.410
'0:00.986',-0.990,-0.410
'0:00.989',-0.970,-0.390
'0:00.992',-0.970,-0.380
'0:00.994',-0.960,-0.370
'0:00.997',-0.960,-0.350
'0:01.000',-0.940,-0.355
'0:01.003',-0.950,-0.350
'0:01.006',-0.950,-0.355
'0:01.008',-0.975,-0.365
'0:01.011',-0.970,-0.380
'0:01.014',-0.965,-0.380
'0:01.017',-0.950,-0.400
'0:01.019',-0.960,-0.390
'0:01.022',-0.955,-0.390
'0:01.025',-0.930,-0.385
'0:01.028',-0.935,-0.360
'0:01.031',-0.915,-0.355
'0:01.033',-0.905,-0.365
'0:01.036',-0.905,-0.375
'0:01.039',-0.900,-0.385
'0:01.042',-0.910,-0.395
'0:01.044',-0.910,-0.395
'0:01.047',-0.920,-0.410
'0:01.050',-0.900,-0.395
'0:01.053',-0.895,-0.405
'0:01.056',-0.885,-0.375
'0:01.058',-0.885,-0.360
'0:01.061',-0.865,-0.360
'0:01.064',-0.835,-0.335
'0:01.067',-0.825,-0.335
'0:01.069',-0.820,-0.345
'0:01.072',-0.810,-0.360
'0:01.075',-0.815,-0.355
'0:01.078',-0.805,-0.355
'0:01.081',-0.810,-0.360
'0:01.083',-0.800,-0.350
'0:01.086',-0.780,-0.345
'0:01.089',-0.775,-0.320
'0:01.092',-0.745,-0.345
'0:01.094',-0.725,-0.325
'0:01.097',-0.685,-0.320
'0:01.100',-0.665,-0.315
'0:01.103',-0.650,-0.325
'0:01.106',-0.650,-0.330
'0:01.108',-0.650,-0.335
'0:01.111',-0.650,-0.325
'0:01.114',-0.610,-0.335
'0:01.117',-0.590,-0.355
'0:01.119',-0.555,-0.340
'0:01.122',-0.535,-0.320
'0:01.125',-0.500,-0.325
'0:01.128',-0.485,-0.315
'0:01.131',-0.455,-0.310
'0:01.133',-0.430,-0.320
'0:01.136',-0.405,-0.305
'0:01.139',-0.405,-0.340
'0:01.142',-0.395,-0.345
'0:01.144',-0.395,-0.355
'0:01.147',-0.385,-0.365
'0:01.150',-0.375,-0.365
'0:01.153',-0.370,-0.380
'0:01.156',-0.360,-0.370
'0:01.158',-0.340,-0.360
'0:01.161',-0.335,-0.360
'0:01.164',-0.305,-0.345
'0:01.167',-0.310,-0.365
'0:01.169',-0.345,-0.370
'0:01.172',-0.365,-0.365
'0:01.175',-0.380,-0.370
'0:01.178',-0.405,-0.375
'0:01.181',-0.425,-0.380
'0:01.183',-0.455,-0.375
'0:01.186',-0.485,-0.360
'0:01.189',-0.515,-0.365
'0:01.192',-0.535,-0.350
'0:01.194',-0.545,-0.330
'0:01.197',-0.580,-0.340
'0:01.200',-0.585,-0.325
'0:01.203',-0.625,-0.325
'0:01.206',-0.645,-0.350
'0:01.208',-0.685,-0.355
'0:01.211',-0.720,-0.375
'0:01.214',-0.735,-0.380
'0:01.217',-0.765,-0.385
'0:01.219',-0.785,-0.375
'0:01.222',-0.800,-0.380
'0:01.225',-0.805,-0.370
'0:01.228',-0.805,-0.370
'0:01.231',-0.805,-0.375
'0:01.233',-0.830,-0.380
'0:01.236',-0.825,-0.375
'0:01.239',-0.840,-0.385
'0:01.242',-0.870,-0.400
'0:01.244',-0.875,-0.395
'0:01.247',-0.890,-0.390
'0:01.250',-0.895,-0.415
'0:01.253',-0.890,-0.395
'0:01.256',-0.910,-0.395
'0:01.258',-0.900,-0.390
'0:01.261',-0.900,-0.395
'0:01.264',-0.905,-0.385
'0:01.267',-0.890,-0.375
'0:01.269',-0.910,-0.385
'0:01.272',-0.900,-0.385
'0:01.275',-0.910,-0.405
'0:01.278',-0.915,-0.415
'0:01.281',-0.915,-0.405
'0:01.283',-0.930,-0.415
'0:01.286',-0.925,-0.430
'0:01.289',-0.910,-0.405
'0:01.292',-0.895,-0.400
'0:01.294',-0.890,-0.395
'0:01.297',-0.870,-0.375
'0:01.300',-0.865,-0.380
'0:01.303',-0.870,-0.390
'0:01.306',-0.875,-0.400
'0:01.308',-0.885,-0.395
'0:01.311',-0.890,-0.410
'0:01.314',-0.890,-0.405
'0:01.317',-0.870,-0.415
'0:01.319',-0.855,-0.395
'0:01.322',-0.865,-0.380
'0:01.325',-0.850,-0.370
'0:01.328',-0.855,-0.350
'0:01.331',-0.855,-0.350
'0:01.333',-0.850,-0.345
'0:01.336',-0.855,-0.335
'0:01.339',-0.850,-0.325
'0:01.342',-0.860,-0.315
'0:01.344',-0.850,-0.295
'0:01.347',-0.830,-0.280
'0:01.350',-0.770,-0.230
'0:01.353',-0.685,-0.195
'0:01.356',-0.550,-0.175
'0:01.358',-0.410,-0.200
'0:01.361',-0.245,-0.275
'0:01.364',-0.100,-0.410
'0:01.367',0.075,-0.560
'0:01.369',0.235,-0.710
'0:01.372',0.445,-0.880
'0:01.375',0.630,-1.045
'0:01.378',0.835,-1.220
'0:01.381',1.060,-1.445
'0:01.383',1.260,-1.670
'0:01.386',1.440,-1.870
'0:01.389',1.610,-2.065
'0:01.392',1.735,-2.190
'0:01.394',1.825,-2.245
'0:01.397',1.885,-2.285
'0:01.400',1.910,-2.295
'0:01.403',1.905,-2.310
'0:01.406',1.875,-2.305
'0:01.408',1.825,-2.305
'0:01.411',1.760,-2.305
'0:01.414',1.675,-2.285
'0:01.417',1.575,-2.225
'0:01.419',1.530,-2.150
'0:01.422',1.510,-2.035
'0:01.425',1.550,-1.940
'0:01.428',1.560,-1.845
'0:01.431',1.540,-1.745
'0:01.433',1.535,-1.665
'0:01.436',1.445,-1.575
'0:01.439',1.335,-1.475
'0:01.442',1.200,-1.410
'0:01.444',1.065,-1.345
'0:01.447',0.890,-1.285
'0:01.450',0.710,-1.200
'0:01.453',0.480,-1.125
'0:01.456',0.180,-1.030
'0:01.458',-0.175,-0.935
'0:01.461',-0.520,-0.860
'0:01.464',-0.810,-0.755
'0:01.467',-0.975,-0.630
'0:01.469',-1.045,-0.530
'0:01.472',-1.065,-0.440
'0:01.475',-1.050,-0.375
'0:01.478',-1.050,-0.350
'0:01.481',-1.065,-0.360
'0:01.483',-1.110,-0.350
'0:01.486',-1.155,-0.345
'0:01.489',-1.220,-0.310
'0:01.492',-1.245,-0.290
'0:01.494',-1.270,-0.245
'0:01.497',-1.270,-0.225
'0:01.500',-1.280,-0.185
'0:01.503',-1.300,-0.175
'0:01.506',-1.320,-0.190
'0:01.508',-1.330,-0.170
'0:01.511',-1.365,-0.190
'0:01.514',-1.370,-0.185
'0:01.517',-1.390,-0.175
'0:01.519',-1.415,-0.175
'0:01.522',-1.405,-0.155
'0:01.525',-1.425,-0.145
'0:01.528',-1.425,-0.110
'0:01.531',-1.445,-0.095
'0:01.533',-1.435,-0.100
'0:01.536',-1.445,-0.100
'0:01.539',-1.480,-0.085
'0:01.542',-1.490,-0.100
'0:01.544',-1.505,-0.095
'0:01.547',-1.540,-0.085
'0:01.550',-1.535,-0.080
'0:01.553',-1.555,-0.065
'0:01.556',-1.545,-0.055
'0:01.558',-1.565,-0.020
'0:01.561',-1.565,-0.010
'0:01.564',-1.570,0.030
'0:01.567',-1.570,0.040
'0:01.569',-1.575,0.065
'0:01.572',-1.585,0.070
'0:01.575',-1.585,0.085
'0:01.578',-1.590,0.095
'0:01.581',-1.600,0.095
'0:01.583',-1.615,0.105
'0:01.586',-1.620,0.150
'0:01.589',-1.630,0.175
'0:01.592',-1.630,0.205
'0:01.594',-1.645,0.220
'0:01.597',-1.615,0.255
'0:01.600',-1.610,0.290
'0:01.603',-1.620,0.295
'0:01.606',-1.615,0.310
'0:01.608',-1.610,0.295
'0:01.611',-1.605,0.300
'0:01.614',-1.630,0.295
'0:01.617',-1.640,0.285
'0:01.619',-1.675,0.300
'0:01.622',-1.700,0.305
'0:01.625',-1.725,0.310
'0:01.628',-1.745,0.330
'0:01.631',-1.755,0.355
'0:01.633',-1.780,0.390
'0:01.636',-1.815,0.425
'0:01.639',-1.885,0.445
'0:01.642',-1.920,0.425
'0:01.644',-1.985,0.450
'0:01.647',-2.055,0.445
'0:01.650',-2.120,0.465
'0:01.653',-2.180,0.500
'0:01.656',-2.225,0.515
'0:01.658',-2.250,0.530
'0:01.661',-2.270,0.575
'0:01.664',-2.295,0.565
'0:01.667',-2.300,0.580
'0:01.669',-2.305,0.555
'0:01.672',-2.310,0.530
'0:01.675',-2.315,0.515
'0:01.678',-2.305,0.500
'0:01.681',-2.295,0.485
'0:01.683',-2.285,0.475
'0:01.686',-2.285,0.455
'0:01.689',-2.250,0.445
'0:01.692',-2.220,0.435
'0:01.694',-2.180,0.405
'0:01.697',-2.145,0.400
'0:01.700',-2.125,0.350
'0:01.703',-2.095,0.325
'0:01.706',-2.050,0.285
'0:01.708',-2.015,0.240
'0:01.711',-1.995,0.205
'0:01.714',-1.940,0.155
'0:01.717',-1.880,0.115
'0:01.719',-1.825,0.070
'0:01.722',-1.770,0.050
'0:01.725',-1.700,0.030
'0:01.728',-1.630,-0.010
'0:01.731',-1.575,-0.030
'0:01.733',-1.515,-0.075
'0:01.736',-1.485,-0.105
'0:01.739',-1.450,-0.140
'0:01.742',-1.420,-0.170
'0:01.744',-1.400,-0.220
'0:01.747',-1.370,-0.230
'0:01.750',-1.330,-0.260
'0:01.753',-1.310,-0.275
'0:01.756',-1.285,-0.295
'0:01.758',-1.255,-0.280
'0:01.761',-1.230,-0.295
'0:01.764',-1.230,-0.290
'0:01.767',-1.195,-0.300
'0:01.769',-1.195,-0.305
'0:01.772',-1.195,-0.315
'0:01.775',-1.210,-0.320
'0:01.778',-1.220,-0.350
'0:01.781',-1.235,-0.355
'0:01.783',-1.230,-0.370
'0:01.786',-1.220,-0.360
'0:01.789',-1.225,-0.355
'0:01.792',-1.215,-0.345
'0:01.794',-1.210,-0.345
'0:01.797',-1.175,-0.320
'0:01.800',-1.180,-0.320
'0:01.803',-1.185,-0.330
'0:01.806',-1.210,-0.315
'0:01.808',-1.190,-0.335
'0:01.811',-1.200,-0.340
'0:01.814',-1.205,-0.345
'0:01.817',-1.210,-0.345
'0:01.819',-1.210,-0.355
'0:01.822',-1.210,-0.340
'0:01.825',-1.205,-0.340
'0:01.828',-1.185,-0.325
'0:01.831',-1.195,-0.315
'0:01.833',-1.160,-0.310
'0:01.836',-1.175,-0.315
'0:01.839',-1.165,-0.320
'0:01.842',-1.170,-0.325
'0:01.844',-1.170,-0.330
'0:01.847',-1.175,-0.355
'0:01.850',-1.175,-0.360
'0:01.853',-1.165,-0.355
'0:01.856',-1.175,-0.345
'0:01.858',-1.155,-0.335
'0:01.861',-1.145,-0.335
'0:01.864',-1.160,-0.320
'0:01.867',-1.150,-0.305
'0:01.869',-1.140,-0.315
'0:01.872',-1.155,-0.330
'0:01.875',-1.155,-0.335
'0:01.878',-1.150,-0.325
'0:01.881',-1.140,-0.355
'0:01.883',-1.145,-0.335
'0:01.886',-1.155,-0.355
'0:01.889',-1.160,-0.340
'0:01.892',-1.135,-0.325
'0:01.894',-1.135,-0.325
'0:01.897',-1.120,-0.315
'0:01.900',-1.125,-0.320
'0:01.903',-1.130,-0.330
'0:01.906',-1.125,-0.325
'0:01.908',-1.130,-0.360
'0:01.911',-1.135,-0.365
'0:01.914',-1.145,-0.365
'0:01.917',-1.150,-0.360
'0:01.919',-1.145,-0.375
'0:01.922',-1.135,-0.370
'0:01.925',-1.125,-0.350
'0:01.928',-1.120,-0.345
'0:01.931',-1.100,-0.330
'0:01.933',-1.095,-0.335
'0:01.936',-1.100,-0.340
'0:01.939',-1.100,-0.350
'0:01.942',-1.110,-0.360
'0:01.944',-1.120,-0.355
'0:01.947',-1.135,-0.385
'0:01.950',-1.135,-0.385
'0:01.953',-1.135,-0.395
'0:01.956',-1.125,-0.385
'0:01.958',-1.125,-0.375
'0:01.961',-1.095,-0.375
'0:01.964',-1.110,-0.355
'0:01.967',-1.095,-0.365
'0:01.969',-1.120,-0.380
'0:01.972',-1.140,-0.385
'0:01.975',-1.115,-0.390
'0:01.978',-1.130,-0.390
'0:01.981',-1.100,-0.400
'0:01.983',-1.120,-0.405
'0:01.986',-1.130,-0.405
'0:01.989',-1.130,-0.390
'0:01.992',-1.120,-0.385
'0:01.994',-1.110,-0.380
'0:01.997',-1.100,-0.375
'0:02.000',-1.090,-0.380
'0:02.003',-1.100,-0.370
'0:02.006',-1.095,-0.380
'0:02.008',-1.095,-0.395
'0:02.011',-1.100,-0.395
'0:02.014',-1.125,-0.420
'0:02.017',-1.120,-0.405
'0:02.019',-1.130,-0.415
'0:02.022',-1.115,-0.410
'0:02.025',-1.105,-0.400
'0:02.028',-1.100,-0.400
'0:02.031',-1.085,-0.390
'0:02.033',-1.075,-0.390
'0:02.036',-1.085,-0.420
'0:02.039',-1.090,-0.400
'0:02.042',-1.085,-0.415
'0:02.044',-1.090,-0.435
'0:02.047',-1.100,-0.425
'0:02.050',-1.090,-0.425
'0:02.053',-1.095,-0.425
'0:02.056',-1.100,-0.400
'0:02.058',-1.080,-0.405
'0:02.061',-1.080,-0.400
'0:02.064',-1.085,-0.400
'0:02.067',-1.070,-0.390
'0:02.069',-1.080,-0.390
'0:02.072',-1.085,-0.415
'0:02.075',-1.075,-0.420
'0:02.078',-1.070,-0.405
'0:02.081',-1.080,-0.425
'0:02.083',-1.090,-0.430
'0:02.086',-1.085,-0.435
'0:02.089',-1.080,-0.425
'0:02.092',-1.075,-0.425
'0:02.094',-1.070,-0.410
'0:02.097',-1.065,-0.405
'0:02.100',-1.055,-0.415
'0:02.103',-1.050,-0.405
'0:02.106',-1.050,-0.415
'0:02.108',-1.060,-0.420
'0:02.111',-1.065,-0.420
'0:02.114',-1.075,-0.430
'0:02.117',-1.085,-0.430
'0:02.119',-1.085,-0.430
'0:02.122',-1.075,-0.430
'0:02.125',-1.080,-0.410
'0:02.128',-1.075,-0.400
'0:02.131',-1.075,-0.390
'0:02.133',-1.060,-0.390
'0:02.136',-1.060,-0.400
'0:02.139',-1.050,-0.400
'0:02.142',-1.055,-0.415
'0:02.144',-1.060,-0.420
'0:02.147',-1.070,-0.435
'0:02.150',-1.075,-0.440
'0:02.153',-1.065,-0.450
'0:02.156',-1.070,-0.435
'0:02.158',-1.070,-0.440
'0:02.161',-1.055,-0.420
'0:02.164',-1.050,-0.410
'0:02.167',-1.050,-0.430
'0:02.169',-1.045,-0.410
'0:02.172',-1.055,-0.410
'0:02.175',-1.055,-0.425
'0:02.178',-1.060,-0.430
'0:02.181',-1.060,-0.425
'0:02.183',-1.065,-0.450
'0:02.186',-1.070,-0.430
'0:02.189',-1.070,-0.445
'0:02.192',-1.075,-0.420
'0:02.194',-1.065,-0.420
'0:02.197',-1.050,-0.410
'0:02.200',-1.040,-0.420
'0:02.203',-1.040,-0.420
'0:02.206',-1.045,-0.430
'0:02.208',-1.050,-0.445
'0:02.211',-1.055,-0.450
'0:02.214',-1.070,-0.475
'0:02.217',-1.060,-0.460
'0:02.219',-1.080,-0.465
'0:02.222',-1.080,-0.470
'0:02.225',-1.070,-0.465
'0:02.228',-1.065,-0.430
'0:02.231',-1.055,-0.425
'0:02.233',-1.035,-0.425
'0:02.236',-1.040,-0.420
'0:02.239',-1.045,-0.430
'0:02.242',-1.035,-0.425
'0:02.244',-1.050,-0.455
'0:02.247',-1.055,-0.470
'0:02.250',-1.060,-0.475
'0:02.253',-1.055,-0.470
'0:02.256',-1.065,-0.465
'0:02.258',-1.050,-0.455
'0:02.261',-1.065,-0.450
'0:02.264',-1.055,-0.460
'0:02.267',-1.035,-0.435
'0:02.269',-1.045,-0.440
'0:02.272',-1.045,-0.440
'0:02.275',-1.035,-0.460
'0:02.278',-1.040,-0.460
'0:02.281',-1.040,-0.485
'0:02.283',-1.045,-0.495
'0:02.286',-1.045,-0.490
'0:02.289',-1.040,-0.465
'0:02.292',-1.045,-0.450
'0:02.294',-1.025,-0.430
'0:02.297',-1.010,-0.425
'0:02.300',-1.005,-0.415
'0:02.303',-1.020,-0.430
'0:02.306',-1.015,-0.410
'0:02.308',-1.025,-0.440
'0:02.311',-1.030,-0.455
'0:02.314',-1.050,-0.470
'0:02.317',-1.055,-0.465
'0:02.319',-1.065,-0.455
'0:02.322',-1.045,-0.445
'0:02.325',-1.020,-0.450
'0:02.328',-1.035,-0.435
'0:02.331',-1.025,-0.420
'0:02.333',-1.015,-0.430
'0:02.336',-1.030,-0.450
'0:02.339',-1.005,-0.430
'0:02.342',-1.020,-0.450
'0:02.344',-1.025,-0.450
'0:02.347',-1.030,-0.475
'0:02.350',-1.030,-0.470
'0:02.353',-1.040,-0.465
'0:02.356',-1.035,-0.435
'0:02.358',-1.035,-0.445
'0:02.361',-1.015,-0.435
'0:02.364',-1.030,-0.405
'0:02.367',-1.000,-0.415
'0:02.369',-0.995,-0.420
'0:02.372',-0.995,-0.420
'0:02.375',-1.005,-0.445
'0:02.378',-1.010,-0.445
'0:02.381',-1.035,-0.455
'0:02.383',-1.040,-0.450
'0:02.386',-1.045,-0.470
'0:02.389',-1.035,-0.450
'0:02.392',-1.030,-0.455
'0:02.394',-1.010,-0.445
'0:02.397',-1.015,-0.425
'0:02.400',-1.000,-0.425
'0:02.403',-1.000,-0.440
'0:02.406',-1.005,-0.435
'0:02.408',-1.010,-0.445
'0:02.411',-1.020,-0.450
'0:02.414',-1.020,-0.455
'0:02.417',-1.035,-0.470
'0:02.419',-1.050,-0.465
'0:02.422',-1.045,-0.450
'0:02.425',-1.050,-0.440
'0:02.428',-1.045,-0.430
'0:02.431',-1.030,-0.430
'0:02.433',-1.010,-0.410
'0:02.436',-1.000,-0.415
'0:02.439',-1.010,-0.425
'0:02.442',-1.010,-0.440
'0:02.444',-1.015,-0.455
'0:02.447',-1.025,-0.460
'0:02.450',-1.045,-0.470
'0:02.453',-1.045,-0.460
'0:02.456',-1.040,-0.460
'0:02.458',-1.020,-0.450
'0:02.461',-1.015,-0.440
'0:02.464',-1.015,-0.440
'0:02.467',-1.010,-0.450
'0:02.469',-1.010,-0.430
'0:02.472',-1.000,-0.445
'0:02.475',-0.995,-0.450
'0:02.478',-1.010,-0.450
'0:02.481',-1.015,-0.450
'0:02.483',-1.020,-0.460
'0:02.486',-1.025,-0.445
'0:02.489',-1.020,-0.455
'0:02.492',-1.015,-0.430
'0:02.494',-1.010,-0.440
'0:02.497',-0.985,-0.420
'0:02.500',-0.980,-0.425
'0:02.503',-0.985,-0.415
'0:02.506',-0.990,-0.425
'0:02.508',-0.995,-0.450
'0:02.511',-1.015,-0.440
'0:02.514',-1.015,-0.450
'0:02.517',-1.020,-0.470
'0:02.519',-1.010,-0.465
'0:02.522',-1.015,-0.445
'0:02.525',-0.990,-0.460
'0:02.528',-0.985,-0.440
'0:02.531',-0.970,-0.440
'0:02.533',-0.950,-0.435
'0:02.536',-0.930,-0.425
'0:02.539',-0.930,-0.415
'0:02.542',-0.915,-0.420
'0:02.544',-0.905,-0.420
'0:02.547',-0.895,-0.400
'0:02.550',-0.875,-0.395
'0:02.553',-0.860,-0.390
'0:02.556',-0.865,-0.365
'0:02.558',-0.830,-0.350
'0:02.561',-0.805,-0.355
'0:02.564',-0.780,-0.330
'0:02.567',-0.740,-0.330
'0:02.569',-0.700,-0.340
'0:02.572',-0.665,-0.345
'0:02.575',-0.630,-0.375
'0:02.578',-0.625,-0.410
'0:02.581',-0.655,-0.430
'0:02.583',-0.675,-0.465
'0:02.586',-0.705,-0.490
'0:02.589',-0.700,-0.465
'0:02.592',-0.685,-0.485
'0:02.594',-0.690,-0.485
'0:02.597',-0.705,-0.460
'0:02.600',-0.720,-0.460
'0:02.603',-0.770,-0.470
'0:02.606',-0.820,-0.460
'0:02.608',-0.885,-0.460
'0:02.611',-0.955,-0.480
'0:02.614',-0.995,-0.480
'0:02.617',-1.020,-0.485
'0:02.619',-1.015,-0.495
'0:02.622',-1.020,-0.490
'0:02.625',-1.020,-0.485
'0:02.628',-1.015,-0.485
'0:02.631',-0.985,-0.485
'0:02.633',-0.980,-0.490
'0:02.636',-1.000,-0.475
'0:02.639',-0.995,-0.480
'0:02.642',-1.020,-0.495
'0:02.644',-1.035,-0.495
'0:02.647',-1.030,-0.525
'0:02.650',-1.035,-0.530
'0:02.653',-1.030,-0.525
'0:02.656',-1.030,-0.520
'0:02.658',-1.035,-0.505
'0:02.661',-1.010,-0.500
'0:02.664',-1.000,-0.480
'0:02.667',-0.990,-0.465
'0:02.669',-0.995,-0.465
'0:02.672',-0.995,-0.480
'0:02.675',-1.015,-0.495
'0:02.678',-1.025,-0.500
'0:02.681',-1.060,-0.505
'0:02.683',-1.090,-0.485
'0:02.686',-1.080,-0.460
'0:02.689',-1.045,-0.420
'0:02.692',-0.965,-0.350
'0:02.694',-0.800,-0.290
'0:02.697',-0.575,-0.270
'0:02.700',-0.270,-0.300
'0:02.703',0.085,-0.375
'0:02.706',0.455,-0.525
'0:02.708',0.780,-0.725
'0:02.711',1.030,-0.970
'0:02.714',1.145,-1.200
'0:02.717',1.140,-1.380
'0:02.719',0.990,-1.460
'0:02.722',0.685,-1.485
'0:02.725',0.240,-1.430
'0:02.728',-0.300,-1.375
'0:02.731',-0.755,-1.265
'0:02.733',-1.040,-1.170
'0:02.736',-1.115,-1.070
'0:02.739',-1.035,-0.975
'0:02.742',-0.920,-0.900
'0:02.744',-0.815,-0.810
'0:02.747',-0.770,-0.765
'0:02.750',-0.790,-0.710
'0:02.753',-0.870,-0.635
'0:02.756',-0.915,-0.590
'0:02.758',-0.980,-0.535
'0:02.761',-1.000,-0.515
'0:02.764',-1.005,-0.490
'0:02.767',-1.005,-0.485
'0:02.769',-1.005,-0.480
'0:02.772',-1.015,-0.465
'0:02.775',-1.020,-0.485
'0:02.778',-1.040,-0.490
'0:02.781',-1.030,-0.475
'0:02.783',-1.040,-0.455
'0:02.786',-1.060,-0.445
'0:02.789',-1.045,-0.425
'0:02.792',-1.055,-0.410
'0:02.794',-1.045,-0.415
'0:02.797',-1.050,-0.400
'0:02.800',-1.045,-0.410
'0:02.803',-1.030,-0.415
'0:02.806',-1.025,-0.425
'0:02.808',-1.045,-0.430
'0:02.811',-1.055,-0.445
'0:02.814',-1.065,-0.435
'0:02.817',-1.070,-0.445
'0:02.819',-1.060,-0.440
'0:02.822',-1.055,-0.420
'0:02.825',-1.055,-0.420
'0:02.828',-1.050,-0.415
'0:02.831',-1.045,-0.410
'0:02.833',-1.025,-0.420
'0:02.836',-1.045,-0.410
'0:02.839',-1.065,-0.430
'0:02.842',-1.065,-0.425
'0:02.844',-1.060,-0.435
'0:02.847',-1.070,-0.435
'0:02.850',-1.080,-0.410
'0:02.853',-1.070,-0.425
'0:02.856',-1.060,-0.410
'0:02.858',-1.060,-0.405
'0:02.861',-1.055,-0.400
'0:02.864',-1.035,-0.395
'0:02.867',-1.025,-0.395
'0:02.869',-1.030,-0.385
'0:02.872',-1.025,-0.415
'0:02.875',-1.040,-0.425
'0:02.878',-1.035,-0.425
'0:02.881',-1.045,-0.425
'0:02.883',-1.040,-0.420
'0:02.886',-1.025,-0.430
'0:02.889',-1.025,-0.420
'0:02.892',-1.005,-0.410
'0:02.894',-1.010,-0.410
'0:02.897',-0.995,-0.390
'0:02.900',-0.990,-0.395
'0:02.903',-0.985,-0.385
'0:02.906',-0.975,-0.405
'0:02.908',-0.985,-0.405
'0:02.911',-0.985,-0.400
'0:02.914',-0.985,-0.400
'0:02.917',-0.990,-0.400
'0:02.919',-0.970,-0.400
'0:02.922',-0.960,-0.380
'0:02.925',-0.950,-0.375
'0:02.928',-0.915,-0.365
'0:02.931',-0.910,-0.350
'0:02.933',-0.910,-0.350
'0:02.936',-0.885,-0.350
'0:02.939',-0.885,-0.360
'0:02.942',-0.885,-0.350
'0:02.944',-0.875,-0.355
'0:02.947',-0.865,-0.360
'0:02.950',-0.860,-0.365
'0:02.953',-0.850,-0.370
'0:02.956',-0.835,-0.355
'0:02.958',-0.795,-0.335
'0:02.961',-0.785,-0.315
'0:02.964',-0.765,-0.320
'0:02.967',-0.745,-0.310
'0:02.969',-0.720,-0.305
'0:02.972',-0.710,-0.315
'0:02.975',-0.695,-0.335
'0:02.978',-0.690,-0.320
'0:02.981',-0.675,-0.355
'0:02.983',-0.660,-0.325
'0:02.986',-0.650,-0.335
'0:02.989',-0.620,-0.345
'0:02.992',-0.620,-0.315
'0:02.994',-0.575,-0.325
'0:02.997',-0.545,-0.315
'0:03.000',-0.545,-0.330
'0:03.003',-0.535,-0.330
'0:03.006',-0.520,-0.345
'0:03.008',-0.515,-0.380
'0:03.011',-0.510,-0.380
'0:03.014',-0.505,-0.390
'0:03.017',-0.495,-0.390
'0:03.019',-0.485,-0.390
'0:03.022',-0.470,-0.395
'0:03.025',-0.460,-0.390
'0:03.028',-0.455,-0.385
'0:03.031',-0.450,-0.370
'0:03.033',-0.460,-0.375
'0:03.036',-0.480,-0.400
'0:03.039',-0.500,-0.410
'0:03.042',-0.525,-0.405
'0:03.044',-0.550,-0.440
'0:03.047',-0.570,-0.440
'0:03.050',-0.595,-0.435
'0:03.053',-0.615,-0.420
'0:03.056',-0.630,-0.415
'0:03.058',-0.650,-0.405
'0:03.061',-0.675,-0.410
'0:03.064',-0.695,-0.400
'0:03.067',-0.700,-0.405
'0:03.069',-0.740,-0.425
'0:03.072',-0.765,-0.425
'0:03.075',-0.780,-0.430
'0:03.078',-0.810,-0.445
'0:03.081',-0.810,-0.445
'0:03.083',-0.835,-0.430
'0:03.086',-0.840,-0.425
'0:03.089',-0.850,-0.420
'0:03.092',-0.850,-0.420
'0:03.094',-0.840,-0.410
'0:03.097',-0.835,-0.410
'0:03.100',-0.840,-0.420
'0:03.103',-0.850,-0.415
'0:03.106',-0.855,-0.425
'0:03.108',-0.875,-0.430
'0:03.111',-0.895,-0.460
'0:03.114',-0.910,-0.450
'0:03.117',-0.915,-0.465
'0:03.119',-0.915,-0.465
'0:03.122',-0.905,-0.445
'0:03.125',-0.890,-0.435
'0:03.128',-0.870,-0.435
'0:03.131',-0.880,-0.430
'0:03.133',-0.880,-0.435
'0:03.136',-0.875,-0.435
'0:03.139',-0.885,-0.435
'0:03.142',-0.890,-0.445
'0:03.144',-0.880,-0.445
'0:03.147',-0.895,-0.455
'0:03.150',-0.900,-0.450
'0:03.153',-0.895,-0.445
'0:03.156',-0.885,-0.440
'0:03.158',-0.870,-0.440
'0:03.161',-0.860,-0.450
'0:03.164',-0.850,-0.425
'0:03.167',-0.840,-0.440
'0:03.169',-0.850,-0.445
'0:03.172',-0.865,-0.465
'0:03.175',-0.850,-0.460
'0:03.178',-0.860,-0.490
'0:03.181',-0.855,-0.485
'0:03.183',-0.860,-0.485
'0:03.186',-0.860,-0.480
'0:03.189',-0.870,-0.470
'0:03.192',-0.850,-0.460
'0:03.194',-0.855,-0.460
'0:03.197',-0.845,-0.445
'0:03.200',-0.840,-0.450
'0:03.203',-0.865,-0.440
'0:03.206',-0.860,-0.455
'0:03.208',-0.855,-0.460
'0:03.211',-0.850,-0.475
'0:03.214',-0.855,-0.470
'0:03.217',-0.875,-0.470
'0:03.219',-0.875,-0.475
'0:03.222',-0.875,-0.470
'0:03.225',-0.860,-0.455
'0:03.228',-0.845,-0.430
'0:03.231',-0.840,-0.440
'0:03.233',-0.835,-0.430
'0:03.236',-0.855,-0.450
'0:03.239',-0.865,-0.470
'0:03.242',-0.875,-0.485
'0:03.244',-0.890,-0.480
'0:03.247',-0.900,-0.490
'0:03.250',-0.890,-0.485
'0:03.253',-0.895,-0.490
'0:03.256',-0.890,-0.465
'0:03.258',-0.900,-0.450
'0:03.261',-0.895,-0.440
'0:03.264',-0.880,-0.440
'0:03.267',-0.860,-0.440
'0:03.269',-0.885,-0.435
'0:03.272',-0.885,-0.465
'0:03.275',-0.900,-0.460
'0:03.278',-0.905,-0.475
'0:03.281',-0.920,-0.485
'0:03.283',-0.925,-0.485
'0:03.286',-0.925,-0.475
'0:03.289',-0.910,-0.465
'0:03.292',-0.925,-0.455
'0:03.294',-0.930,-0.445
'0:03.297',-0.920,-0.435
'0:03.300',-0.930,-0.450
'0:03.303',-0.910,-0.460
'0:03.306',-0.930,-0.480
'0:03.308',-0.920,-0.490
'0:03.311',-0.945,-0.475
'0:03.314',-0.955,-0.490
'0:03.317',-0.945,-0.490
'0:03.319',-0.955,-0.485
'0:03.322',-0.950,-0.490
'0:03.325',-0.950,-0.470
'0:03.328',-0.940,-0.460
'0:03.331',-0.920,-0.465
'0:03.333',-0.915,-0.465
'0:03.336',-0.925,-0.455
'0:03.339',-0.940,-0.475
'0:03.342',-0.945,-0.490
'0:03.344',-0.955,-0.505
'0:03.347',-0.960,-0.510
'0:03.350',-0.950,-0.515
'0:03.353',-0.955,-0.510
'0:03.356',-0.955,-0.500
'0:03.358',-0.945,-0.490
'0:03.361',-0.955,-0.485
'0:03.364',-0.950,-0.475
'0:03.367',-0.940,-0.480
'0:03.369',-0.935,-0.510
'0:03.372',-0.940,-0.510
'0:03.375',-0.950,-0.515
'0:03.378',-0.960,-0.530
'0:03.381',-0.960,-0.525
'0:03.383',-0.965,-0.515
'0:03.386',-0.960,-0.510
'0:03.389',-0.965,-0.485
'0:03.392',-0.945,-0.480
'0:03.394',-0.915,-0.480
'0:03.397',-0.930,-0.475
'0:03.400',-0.935,-0.475
'0:03.403',-0.945,-0.485
'0:03.406',-0.930,-0.495
'0:03.408',-0.955,-0.515
'0:03.411',-0.945,-0.505
'0:03.414',-0.945,-0.510
'0:03.417',-0.955,-0.505
'0:03.419',-0.935,-0.520
'0:03.422',-0.950,-0.500
'0:03.425',-0.945,-0.490
'0:03.428',-0.935,-0.505
'0:03.431',-0.925,-0.480
'0:03.433',-0.920,-0.495
'0:03.436',-0.920,-0.485
'0:03.439',-0.910,-0.495
'0:03.442',-0.915,-0.495
'0:03.444',-0.920,-0.500
'0:03.447',-0.915,-0.505
'0:03.450',-0.905,-0.500
'0:03.453',-0.890,-0.470
'0:03.456',-0.850,-0.445
'0:03.458',-0.830,-0.440
'0:03.461',-0.810,-0.430
'0:03.464',-0.790,-0.415
'0:03.467',-0.770,-0.420
'0:03.469',-0.765,-0.390
'0:03.472',-0.760,-0.400
'0:03.475',-0.735,-0.400
'0:03.478',-0.725,-0.405
'0:03.481',-0.710,-0.400
'0:03.483',-0.670,-0.400
'0:03.486',-0.635,-0.410
'0:03.489',-0.600,-0.415
'0:03.492',-0.585,-0.425
'0:03.494',-0.580,-0.445
'0:03.497',-0.590,-0.445
'0:03.500',-0.595,-0.460
'0:03.503',-0.610,-0.490
'0:03.506',-0.615,-0.520
'0:03.508',-0.615,-0.515
'0:03.511',-0.620,-0.535
'0:03.514',-0.650,-0.525
'0:03.517',-0.685,-0.525
'0:03.519',-0.730,-0.535
'0:03.522',-0.765,-0.535
'0:03.525',-0.815,-0.530
'0:03.528',-0.865,-0.520
'0:03.531',-0.895,-0.515
'0:03.533',-0.920,-0.500
'0:03.536',-0.940,-0.505
'0:03.539',-0.945,-0.520
'0:03.542',-0.960,-0.540
'0:03.544',-0.960,-0.550
'0:03.547',-0.965,-0.555
'0:03.550',-0.970,-0.560
'0:03.553',-0.975,-0.560
'0:03.556',-0.965,-0.535
'0:03.558',-0.960,-0.530
'0:03.561',-0.950,-0.515
'0:03.564',-0.960,-0.520
'0:03.567',-0.960,-0.520
'0:03.569',-0.960,-0.520
'0:03.572',-0.960,-0.520
'0:03.575',-0.965,-0.520
'0:03.578',-0.970,-0.535
'0:03.581',-0.970,-0.540
'0:03.583',-0.980,-0.535
'0:03.586',-0.970,-0.540
'0:03.589',-0.970,-0.530
'0:03.592',-0.970,-0.535
'0:03.594',-0.950,-0.525
'0:03.597',-0.930,-0.520
'0:03.600',-0.945,-0.525
'0:03.603',-0.925,-0.525
'0:03.606',-0.930,-0.525
'0:03.608',-0.945,-0.530
'0:03.611',-0.945,-0.540
'0:03.614',-0.980,-0.550
'0:03.617',-1.020,-0.540
'0:03.619',-1.040,-0.500
'0:03.622',-1.015,-0.440
'0:03.625',-0.960,-0.365
'0:03.628',-0.860,-0.340
'0:03.631',-0.695,-0.275
'0:03.633',-0.480,-0.275
'0:03.636',-0.225,-0.320
'0:03.639',0.090,-0.415
'0:03.642',0.395,-0.550
'0:03.644',0.715,-0.720
'0:03.647',0.955,-0.930
'0:03.650',1.115,-1.130
'0:03.653',1.170,-1.345
'0:03.656',1.165,-1.480
'0:03.658',1.095,-1.555
'0:03.661',0.925,-1.565
'0:03.664',0.640,-1.540
'0:03.667',0.230,-1.495
'0:03.669',-0.265,-1.445
'0:03.672',-0.705,-1.380
'0:03.675',-1.010,-1.325
'0:03.678',-1.085,-1.245
'0:03.681',-1.050,-1.135
'0:03.683',-0.900,-1.035
'0:03.686',-0.770,-0.960
'0:03.689',-0.710,-0.885
'0:03.692',-0.700,-0.795
'0:03.694',-0.720,-0.720
'0:03.697',-0.770,-0.650
'0:03.700',-0.845,-0.605
'0:03.703',-0.905,-0.560
'0:03.706',-0.915,-0.535
'0:03.708',-0.925,-0.530
'0:03.711',-0.935,-0.520
'0:03.714',-0.945,-0.520
'0:03.717',-0.945,-0.515
'0:03.719',-0.940,-0.520
'0:03.722',-0.940,-0.495
'0:03.725',-0.935,-0.470
'0:03.728',-0.935,-0.470
'0:03.731',-0.925,-0.460
'0:03.733',-0.935,-0.445
'0:03.736',-0.945,-0.465
'0:03.739',-0.950,-0.480
'0:03.742',-0.955,-0.470
'0:03.744',-0.965,-0.475
'0:03.747',-0.975,-0.480
'0:03.750',-1.000,-0.490
'0:03.753',-0.985,-0.480
'0:03.756',-0.980,-0.455
'0:03.758',-0.985,-0.450
'0:03.761',-0.970,-0.445
'0:03.764',-0.965,-0.420
'0:03.767',-0.965,-0.420
'0:03.769',-0.975,-0.425
'0:03.772',-0.980,-0.435
'0:03.775',-0.970,-0.440
'0:03.778',-0.970,-0.460
'0:03.781',-0.980,-0.455
'0:03.783',-0.990,-0.455
'0:03.786',-0.965,-0.445
'0:03.789',-0.970,-0.445
'0:03.792',-0.960,-0.440
'0:03.794',-0.945,-0.435
'0:03.797',-0.940,-0.420
'0:03.800',-0.940,-0.435
'0:03.803',-0.945,-0.425
'0:03.806',-0.945,-0.435
'0:03.808',-0.950,-0.440
'0:03.811',-0.960,-0.465
'0:03.814',-0.960,-0.460
'0:03.817',-0.960,-0.470
'0:03.819',-0.950,-0.455
'0:03.822',-0.945,-0.460
'0:03.825',-0.945,-0.440
'0:03.828',-0.930,-0.435
'0:03.831',-0.910,-0.410
'0:03.833',-0.910,-0.410
'0:03.836',-0.910,-0.405
'0:03.839',-0.925,-0.410
'0:03.842',-0.910,-0.445
'0:03.844',-0.920,-0.455
'0:03.847',-0.935,-0.440
'0:03.850',-0.920,-0.435
'0:03.853',-0.915,-0.430
'0:03.856',-0.905,-0.445
'0:03.858',-0.880,-0.425
'0:03.861',-0.870,-0.405
'0:03.864',-0.860,-0.395
'0:03.867',-0.850,-0.405
'0:03.869',-0.865,-0.410
'0:03.872',-0.855,-0.410
'0:03.875',-0.835,-0.435
'0:03.878',-0.840,-0.445
'0:03.881',-0.825,-0.425
'0:03.883',-0.810,-0.425
'0:03.886',-0.815,-0.420
'0:03.889',-0.780,-0.410
'0:03.892',-0.785,-0.385
'0:03.894',-0.755,-0.385
'0:03.897',-0.735,-0.365
'0:03.900',-0.710,-0.370
'0:03.903',-0.710,-0.375
'0:03.906',-0.705,-0.390
'0:03.908',-0.675,-0.390
'0:03.911',-0.670,-0.410
'0:03.914',-0.650,-0.400
'0:03.917',-0.645,-0.420
'0:03.919',-0.625,-0.385
'0:03.922',-0.605,-0.390
'0:03.925',-0.590,-0.375
'0:03.928',-0.565,-0.370
'0:03.931',-0.535,-0.365
'0:03.933',-0.510,-0.360
'0:03.936',-0.500,-0.390
'0:03.939',-0.485,-0.390
'0:03.942',-0.485,-0.415
'0:03.944',-0.475,-0.410
'0:03.947',-0.470,-0.425
'0:03.950',-0.475,-0.440
'0:03.953',-0.440,-0.430
'0:03.956',-0.425,-0.385
'0:03.958',-0.400,-0.390
'0:03.961',-0.390,-0.380
'0:03.964',-0.365,-0.385
'0:03.967',-0.365,-0.395
'0:03.969',-0.355,-0.400
'0:03.972',-0.350,-0.400
'0:03.975',-0.350,-0.435
'0:03.978',-0.360,-0.440
'0:03.981',-0.370,-0.440
'0:03.983',-0.390,-0.445
'0:03.986',-0.395,-0.445
'0:03.989',-0.410,-0.430
'0:03.992',-0.425,-0.425
'0:03.994',-0.440,-0.415
'0:03.997',-0.450,-0.400
'0:04.000',-0.490,-0.420
'0:04.003',-0.510,-0.410
'0:04.006',-0.550,-0.425
'0:04.008',-0.595,-0.435
'0:04.011',-0.620,-0.445
'0:04.014',-0.655,-0.450
'0:04.017',-0.680,-0.465
'0:04.019',-0.700,-0.450
'0:04.022',-0.715,-0.440
'0:04.025',-0.745,-0.425
'0:04.028',-0.745,-0.410
'0:04.031',-0.765,-0.395
'0:04.033',-0.775,-0.420
'0:04.036',-0.790,-0.425
'0:04.039',-0.800,-0.450
'0:04.042',-0.830,-0.445
'0:04.044',-0.840,-0.460
'0:04.047',-0.850,-0.460
'0:04.050',-0.870,-0.485
'0:04.053',-0.880,-0.485
'0:04.056',-0.890,-0.475
'0:04.058',-0.895,-0.465
'0:04.061',-0.890,-0.455
'0:04.064',-0.870,-0.450
'0:04.067',-0.875,-0.460
'0:04.069',-0.890,-0.470
'0:04.072',-0.885,-0.480
'0:04.075',-0.885,-0.475
'0:04.078',-0.910,-0.480
'0:04.081',-0.920,-0.485
'0:04.083',-0.915,-0.480
'0:04.086',-0.925,-0.465
'0:04.089',-0.920,-0.445
'0:04.092',-0.910,-0.445
'0:04.094',-0.910,-0.415
'0:04.097',-0.900,-0.440
'0:04.100',-0.900,-0.440
'0:04.103',-0.900,-0.450
'0:04.106',-0.915,-0.445
'0:04.108',-0.920,-0.465
'0:04.111',-0.925,-0.470
'0:04.114',-0.930,-0.460
'0:04.117',-0.925,-0.470
'0:04.119',-0.925,-0.485
'0:04.122',-0.915,-0.455
'0:04.125',-0.900,-0.470
'0:04.128',-0.880,-0.465
'0:04.131',-0.880,-0.440
'0:04.133',-0.865,-0.450
'0:04.136',-0.865,-0.465
'0:04.139',-0.890,-0.465
'0:04.142',-0.890,-0.475
'0:04.144',-0.900,-0.485
'0:04.147',-0.920,-0.475
'0:04.150',-0.900,-0.475
'0:04.153',-0.890,-0.480
'0:04.156',-0.890,-0.475
'0:04.158',-0.890,-0.460
'0:04.161',-0.875,-0.460
'0:04.164',-0.880,-0.445
'0:04.167',-0.875,-0.460
'0:04.169',-0.860,-0.460
'0:04.172',-0.860,-0.470
'0:04.175',-0.880,-0.480
'0:04.178',-0.880,-0.485
'0:04.181',-0.900,-0.495
'0:04.183',-0.895,-0.490
'0:04.186',-0.920,-0.505
'0:04.189',-0.905,-0.485
'0:04.192',-0.890,-0.490
'0:04.194',-0.870,-0.480
'0:04.197',-0.880,-0.465
'0:04.200',-0.875,-0.470
'0:04.203',-0.885,-0.455
'0:04.206',-0.890,-0.455
'0:04.208',-0.905,-0.480
'0:04.211',-0.905,-0.485
'0:04.214',-0.900,-0.490
'0:04.217',-0.915,-0.490
'0:04.219',-0.920,-0.500
'0:04.222',-0.920,-0.490
'0:04.225',-0.905,-0.470
'0:04.228',-0.915,-0.465
'0:04.231',-0.915,-0.445
'0:04.233',-0.890,-0.460
'0:04.236',-0.925,-0.470
'0:04.239',-0.925,-0.485
'0:04.242',-0.930,-0.490
'0:04.244',-0.930,-0.490
'0:04.247',-0.935,-0.505
'0:04.250',-0.945,-0.520
'0:04.253',-0.935,-0.495
'0:04.256',-0.925,-0.500
'0:04.258',-0.930,-0.475
'0:04.261',-0.920,-0.485
'0:04.264',-0.920,-0.460
'0:04.267',-0.910,-0.460
'0:04.269',-0.910,-0.470
'0:04.272',-0.930,-0.475
'0:04.275',-0.945,-0.490
'0:04.278',-0.955,-0.500
'0:04.281',-0.960,-0.500
'0:04.283',-0.965,-0.520
'0:04.286',-0.955,-0.500
'0:04.289',-0.960,-0.495
'0:04.292',-0.945,-0.480
'0:04.294',-0.940,-0.485
'0:04.297',-0.935,-0.480
'0:04.300',-0.940,-0.475
'0:04.303',-0.940,-0.485
'0:04.306',-0.930,-0.495
'0:04.308',-0.945,-0.485
'0:04.311',-0.955,-0.520
'0:04.314',-0.955,-0.515
'0:04.317',-0.965,-0.515
'0:04.319',-0.950,-0.515
'0:04.322',-0.955,-0.495
'0:04.325',-0.950,-0.480
'0:04.328',-0.960,-0.470
'0:04.331',-0.945,-0.470
'0:04.333',-0.950,-0.470
'0:04.336',-0.955,-0.470
'0:04.339',-0.945,-0.475
'0:04.342',-0.955,-0.495
'0:04.344',-0.965,-0.495
'0:04.347',-0.985,-0.510
'0:04.350',-0.990,-0.510
'0:04.353',-0.965,-0.500
'0:04.356',-0.965,-0.495
'0:04.358',-0.960,-0.490
'0:04.361',-0.955,-0.455
'0:04.364',-0.960,-0.470
'0:04.367',-0.940,-0.480
'0:04.369',-0.945,-0.475
'0:04.372',-0.940,-0.480
'0:04.375',-0.940,-0.480
'0:04.378',-0.930,-0.485
'0:04.381',-0.940,-0.490
'0:04.383',-0.920,-0.505
'0:04.386',-0.920,-0.460
'0:04.389',-0.900,-0.440
'0:04.392',-0.885,-0.430
'0:04.394',-0.840,-0.410
'0:04.397',-0.835,-0.390
'0:04.400',-0.815,-0.380
'0:04.403',-0.790,-0.395
'0:04.406',-0.800,-0.390
'0:04.408',-0.785,-0.400
'0:04.411',-0.750,-0.405
'0:04.414',-0.735,-0.395
'0:04.417',-0.690,-0.405
'0:04.419',-0.650,-0.420
'0:04.422',-0.650,-0.425
'0:04.425',-0.640,-0.455
'0:04.428',-0.640,-0.475
'0:04.431',-0.645,-0.470
'0:04.433',-0.640,-0.495
'0:04.436',-0.650,-0.500
'0:04.439',-0.665,-0.505
'0:04.442',-0.660,-0.515
'0:04.444',-0.670,-0.530
'0:04.447',-0.720,-0.530
'0:04.450',-0.735,-0.515
'0:04.453',-0.785,-0.530
'0:04.456',-0.830,-0.520
'0:04.458',-0.885,-0.520
'0:04.461',-0.930,-0.505
'0:04.464',-0.945,-0.500
'0:04.467',-0.960,-0.495
'0:04.469',-0.975,-0.500
'0:04.472',-0.975,-0.520
'0:04.475',-1.000,-0.540
'0:04.478',-1.020,-0.545
'0:04.481',-1.015,-0.550
'0:04.483',-1.015,-0.555
'0:04.486',-1.020,-0.555
'0:04.489',-1.015,-0.545
'0:04.492',-1.010,-0.545
'0:04.494',-1.010,-0.525
'0:04.497',-1.010,-0.505
'0:04.500',-1.010,-0.535
'0:04.503',-1.015,-0.520
'0:04.506',-1.010,-0.525
'0:04.508',-1.015,-0.540
'0:04.511',-1.035,-0.540
'0:04.514',-1.035,-0.530
'0:04.517',-1.030,-0.540
'0:04.519',-1.040,-0.540
'0:04.522',-1.040,-0.540
'0:04.525',-1.040,-0.520
'0:04.528',-1.015,-0.520
'0:04.531',-1.010,-0.515
'0:04.533',-1.005,-0.525
'0:04.536',-0.990,-0.510
'0:04.539',-0.995,-0.530
'0:04.542',-1.000,-0.535
'0:04.544',-1.010,-0.545
'0:04.547',-1.040,-0.550
'0:04.550',-1.045,-0.525
'0:04.553',-1.075,-0.540
'0:04.556',-1.095,-0.495
'0:04.558',-1.075,-0.435
'0:04.561',-0.995,-0.375
'0:04.564',-0.870,-0.320
'0:04.567',-0.680,-0.290
'0:04.569',-0.430,-0.315
'0:04.572',-0.105,-0.390
'0:04.575',0.255,-0.530
'0:04.578',0.590,-0.700
'0:04.581',0.880,-0.910
'0:04.583',1.055,-1.155
'0:04.586',1.110,-1.335
'0:04.589',1.060,-1.470
'0:04.592',0.910,-1.535
'0:04.594',0.615,-1.515
'0:04.597',0.195,-1.455
'0:04.600',-0.295,-1.385
'0:04.603',-0.760,-1.325
'0:04.606',-1.070,-1.260
'0:04.608',-1.185,-1.180
'0:04.611',-1.135,-1.085
'0:04.614',-1.005,-1.000
'0:04.617',-0.880,-0.930
'0:04.619',-0.815,-0.850
'0:04.622',-0.795,-0.770
'0:04.625',-0.840,-0.705
'0:04.628',-0.885,-0.635
'0:04.631',-0.945,-0.565
'0:04.633',-0.990,-0.535
'0:04.636',-1.010,-0.515
'0:04.639',-1.025,-0.495
'0:04.642',-1.020,-0.510
'0:04.644',-1.035,-0.515
'0:04.647',-1.040,-0.510
'0:04.650',-1.055,-0.520
'0:04.653',-1.055,-0.495
'0:04.656',-1.055,-0.480
'0:04.658',-1.050,-0.455
'0:04.661',-1.045,-0.450
'0:04.664',-1.045,-0.435
'0:04.667',-1.040,-0.450
'0:04.669',-1.055,-0.445
'0:04.672',-1.050,-0.450
'0:04.675',-1.055,-0.460
'0:04.678',-1.065,-0.475
'0:04.681',-1.080,-0.465
'0:04.683',-1.070,-0.470
'0:04.686',-1.075,-0.470
'0:04.689',-1.060,-0.450
'0:04.692',-1.080,-0.440
'0:04.694',-1.070,-0.425
'0:04.697',-1.070,-0.430
'0:04.700',-1.065,-0.410
'0:04.703',-1.070,-0.425
'0:04.706',-1.065,-0.430
'0:04.708',-1.060,-0.455
'0:04.711',-1.065,-0.445
'0:04.714',-1.075,-0.465
'0:04.717',-1.090,-0.475
'0:04.719',-1.075,-0.455
'0:04.722',-1.070,-0.445
'0:04.725',-1.075,-0.455
'0:04.728',-1.055,-0.445
'0:04.731',-1.040,-0.430
'0:04.733',-1.035,-0.440
'0:04.736',-1.045,-0.445
'0:04.739',-1.055,-0.435
'0:04.742',-1.055,-0.460
'0:04.744',-1.060,-0.465
'0:04.747',-1.060,-0.455
'0:04.750',-1.080,-0.465
'0:04.753',-1.055,-0.455
'0:04.756',-1.060,-0.450
'0:04.758',-1.035,-0.440
'0:04.761',-1.015,-0.425
'0:04.764',-1.015,-0.415
'0:04.767',-1.000,-0.410
'0:04.769',-0.995,-0.415
'0:04.772',-1.005,-0.440
'0:04.775',-1.010,-0.440
'0:04.778',-1.015,-0.460
'0:04.781',-1.010,-0.460
'0:04.783',-1.005,-0.460
'0:04.786',-0.985,-0.460
'0:04.789',-0.975,-0.430
'0:04.792',-0.960,-0.450
'0:04.794',-0.940,-0.440
'0:04.797',-0.915,-0.420
'0:04.800',-0.910,-0.425
'0:04.803',-0.905,-0.440
'0:04.806',-0.900,-0.445
'0:04.808',-0.895,-0.445
'0:04.811',-0.880,-0.445
'0:04.814',-0.880,-0.440
'0:04.817',-0.890,-0.435
'0:04.819',-0.880,-0.435
'0:04.822',-0.850,-0.415
'0:04.825',-0.815,-0.420
'0:04.828',-0.785,-0.405
'0:04.831',-0.750,-0.395
'0:04.833',-0.735,-0.395
'0:04.836',-0.715,-0.435
'0:04.839',-0.705,-0.430
'0:04.842',-0.705,-0.435
'0:04.844',-0.690,-0.450
'0:04.847',-0.685,-0.460
'0:04.850',-0.670,-0.480
'0:04.853',-0.660,-0.480
'0:04.856',-0.630,-0.470
'0:04.858',-0.635,-0.465
'0:04.861',-0.590,-0.470
'0:04.864',-0.560,-0.455
'0:04.867',-0.555,-0.455
'0:04.869',-0.530,-0.445
'0:04.872',-0.520,-0.455
'0:04.875',-0.520,-0.465
'0:04.878',-0.510,-0.470
'0:04.881',-0.510,-0.470
'0:04.883',-0.510,-0.475
'0:04.886',-0.500,-0.475
'0:04.889',-0.490,-0.475
'0:04.892',-0.480,-0.455
'0:04.894',-0.470,-0.450
'0:04.897',-0.465,-0.455
'0:04.900',-0.460,-0.450
'0:04.903',-0.480,-0.455
'0:04.906',-0.495,-0.450
'0:04.908',-0.530,-0.470
'0:04.911',-0.545,-0.475
'0:04.914',-0.585,-0.475
'0:04.917',-0.605,-0.475
'0:04.919',-0.635,-0.475
'0:04.922',-0.650,-0.460
'0:04.925',-0.670,-0.440
'0:04.928',-0.710,-0.435
'0:04.931',-0.720,-0.420
'0:04.933',-0.745,-0.405
'0:04.936',-0.775,-0.425
'0:04.939',-0.815,-0.410
'0:04.942',-0.840,-0.430
'0:04.944',-0.865,-0.430
'0:04.947',-0.900,-0.435
'0:04.950',-0.920,-0.450
'0:04.953',-0.920,-0.440
'0:04.956',-0.945,-0.445
'0:04.958',-0.945,-0.440
'0:04.961',-0.960,-0.435
'0:04.964',-0.975,-0.420
'0:04.967',-0.975,-0.420
'0:04.969',-0.990,-0.425
'0:04.972',-1.005,-0.440
'0:04.975',-1.005,-0.445
'0:04.978',-1.030,-0.455
'0:04.981',-1.045,-0.465
'0:04.983',-1.065,-0.485
'0:04.986',-1.060,-0.480
'0:04.989',-1.045,-0.470
'0:04.992',-1.035,-0.460
'0:04.994',-1.030,-0.450
'0:04.997',-1.040,-0.440
'0:05.000',-1.030,-0.440
'0:05.003',-1.050,-0.445
'0:05.006',-1.060,-0.450
'0:05.008',-1.060,-0.450
'0:05.011',-1.060,-0.455
'0:05.014',-1.070,-0.455
'0:05.017',-1.070,-0.460
'0:05.019',-1.065,-0.455
'0:05.022',-1.060,-0.450
'0:05.025',-1.045,-0.455
'0:05.028',-1.035,-0.450
'0:05.031',-1.030,-0.430
'0:05.033',-1.015,-0.445
'0:05.036',-1.010,-0.440
'0:05.039',-1.015,-0.445
'0:05.042',-1.040,-0.460
'0:05.044',-1.040,-0.475
'0:05.047',-1.030,-0.480
'0:05.050',-1.035,-0.470
'0:05.053',-1.050,-0.475
'0:05.056',-1.025,-0.480
'0:05.058',-1.010,-0.465
'0:05.061',-1.020,-0.435
'0:05.064',-1.005,-0.430
'0:05.067',-0.995,-0.425
'0:05.069',-0.980,-0.445
'0:05.072',-0.990,-0.445
'0:05.075',-1.005,-0.460
'0:05.078',-1.010,-0.460
'0:05.081',-1.015,-0.470
'0:05.083',-1.005,-0.470
'0:05.086',-1.015,-0.470
'0:05.089',-1.010,-0.465
'0:05.092',-0.995,-0.470
'0:05.094',-0.985,-0.450
'0:05.097',-0.975,-0.435
'0:05.100',-0.975,-0.435
'0:05.103',-0.965,-0.445
'0:05.106',-0.965,-0.475
'0:05.108',-0.995,-0.470
'0:05.111',-0.995,-0.475
'0:05.114',-1.000,-0.470
'0:05.117',-1.005,-0.500
'0:05.119',-1.020,-0.490
'0:05.122',-1.005,-0.475
'0:05.125',-1.005,-0.460
'0:05.128',-1.000,-0.445
'0:05.131',-0.975,-0.440
'0:05.133',-0.985,-0.445
'0:05.136',-1.005,-0.435
'0:05.139',-1.000,-0.465
'0:05.142',-1.020,-0.470
'0:05.144',-1.020,-0.475
'0:05.147',-1.030,-0.485
'0:05.150',-1.010,-0.480
'0:05.153',-1.010,-0.465
'0:05.156',-1.015,-0.475
'0:05.158',-1.010,-0.460
'0:05.161',-1.000,-0.455
'0:05.164',-0.995,-0.455
'0:05.167',-1.010,-0.455
'0:05.169',-1.005,-0.465
'0:05.172',-1.015,-0.485
'0:05.175',-1.030,-0.485
'0:05.178',-1.025,-0.485
'0:05.181',-1.045,-0.500
'0:05.183',-1.060,-0.490
'0:05.186',-1.050,-0.500
'0:05.189',-1.040,-0.475
'0:05.192',-1.040,-0.450
'0:05.194',-1.030,-0.445
'0:05.197',-1.035,-0.455
'0:05.200',-1.015,-0.445
'0:05.203',-1.030,-0.465
'0:05.206',-1.035,-0.450
'0:05.208',-1.040,-0.470
'0:05.211',-1.035,-0.480
'0:05.214',-1.050,-0.490
'0:05.217',-1.060,-0.500
'0:05.219',-1.075,-0.495
'0:05.222',-1.060,-0.500
'0:05.225',-1.050,-0.480
'0:05.228',-1.045,-0.475
'0:05.231',-1.040,-0.455
'0:05.233',-1.030,-0.470
'0:05.236',-1.030,-0.470
'0:05.239',-1.035,-0.495
'0:05.242',-1.045,-0.485
'0:05.244',-1.050,-0.485
'0:05.247',-1.060,-0.500
'0:05.250',-1.065,-0.505
'0:05.253',-1.075,-0.475
'0:05.256',-1.060,-0.495
'0:05.258',-1.050,-0.470
'0:05.261',-1.035,-0.450
'0:05.264',-1.035,-0.445
'0:05.267',-1.015,-0.450
'0:05.269',-1.010,-0.450
'0:05.272',-0.995,-0.450
'0:05.275',-0.995,-0.460
'0:05.278',-0.985,-0.470
'0:05.281',-0.985,-0.460
'0:05.283',-0.970,-0.455
'0:05.286',-0.950,-0.450
'0:05.289',-0.945,-0.430
'0:05.292',-0.925,-0.435
'0:05.294',-0.910,-0.415
'0:05.297',-0.890,-0.405
'0:05.300',-0.865,-0.380
'0:05.303',-0.860,-0.400
'0:05.306',-0.825,-0.390
'0:05.308',-0.810,-0.390
'0:05.311',-0.770,-0.390
'0:05.314',-0.740,-0.405
'0:05.317',-0.720,-0.425
'0:05.319',-0.710,-0.435
'0:05.322',-0.695,-0.465
'0:05.325',-0.700,-0.460
'0:05.328',-0.705,-0.475
'0:05.331',-0.720,-0.470
'0:05.333',-0.695,-0.485
'0:05.336',-0.710,-0.475
'0:05.339',-0.720,-0.505
'0:05.342',-0.755,-0.515
'0:05.344',-0.800,-0.525
'0:05.347',-0.840,-0.545
'0:05.350',-0.900,-0.555
'0:05.353',-0.965,-0.555
'0:05.356',-1.015,-0.535
'0:05.358',-1.045,-0.515
'0:05.361',-1.040,-0.515
'0:05.364',-1.055,-0.500
'0:05.367',-1.060,-0.490
'0:05.369',-1.045,-0.490
'0:05.372',-1.055,-0.515
'0:05.375',-1.050,-0.515
'0:05.378',-1.075,-0.515
'0:05.381',-1.085,-0.545
'0:05.383',-1.080,-0.545
'0:05.386',-1.080,-0.540
'0:05.389',-1.080,-0.530
'0:05.392',-1.070,-0.520
'0:05.394',-1.065,-0.505
'0:05.397',-1.075,-0.510
'0:05.400',-1.070,-0.515
'0:05.403',-1.080,-0.505
'0:05.406',-1.090,-0.525
'0:05.408',-1.085,-0.530
'0:05.411',-1.100,-0.525
'0:05.414',-1.085,-0.555
'0:05.417',-1.100,-0.555
'0:05.419',-1.105,-0.545
'0:05.422',-1.085,-0.525
'0:05.425',-1.075,-0.520
'0:05.428',-1.055,-0.515
'0:05.431',-1.065,-0.495
'0:05.433',-1.050,-0.495
'0:05.436',-1.055,-0.490
'0:05.439',-1.060,-0.500
'0:05.442',-1.085,-0.495
'0:05.444',-1.120,-0.475
'0:05.447',-1.120,-0.460
'0:05.450',-1.090,-0.415
'0:05.453',-0.990,-0.350
'0:05.456',-0.835,-0.310
'0:05.458',-0.575,-0.305
'0:05.461',-0.255,-0.355
'0:05.464',0.145,-0.465
'0:05.467',0.535,-0.655
'0:05.469',0.865,-0.895
'0:05.472',1.065,-1.155
'0:05.475',1.165,-1.375
'0:05.478',1.110,-1.525
'0:05.481',0.900,-1.570
'0:05.483',0.525,-1.550
'0:05.486',-0.015,-1.490
'0:05.489',-0.575,-1.390
'0:05.492',-1.000,-1.285
'0:05.494',-1.210,-1.180
'0:05.497',-1.210,-1.055
'0:05.500',-1.085,-0.950
'0:05.503',-0.955,-0.860
'0:05.506',-0.855,-0.810
'0:05.508',-0.830,-0.755
'0:05.511',-0.855,-0.685
'0:05.514',-0.935,-0.645
'0:05.517',-0.990,-0.595
'0:05.519',-1.035,-0.560
'0:05.522',-1.050,-0.540
'0:05.525',-1.085,-0.510
'0:05.528',-1.055,-0.510
'0:05.531',-1.060,-0.495
'0:05.533',-1.025,-0.485
'0:05.536',-1.035,-0.485
'0:05.539',-1.045,-0.470
'0:05.542',-1.050,-0.485
'0:05.544',-1.055,-0.465
'0:05.547',-1.090,-0.485
'0:05.550',-1.090,-0.485
'0:05.553',-1.085,-0.480
'0:05.556',-1.085,-0.455
'0:05.558',-1.080,-0.450
'0:05.561',-1.080,-0.445
'0:05.564',-1.070,-0.445
'0:05.567',-1.055,-0.435
'0:05.569',-1.065,-0.430
'0:05.572',-1.070,-0.425
'0:05.575',-1.060,-0.450
'0:05.578',-1.080,-0.465
'0:05.581',-1.090,-0.470
'0:05.583',-1.090,-0.485
'0:05.586',-1.090,-0.475
'0:05.589',-1.085,-0.455
'0:05.592',-1.070,-0.450
'0:05.594',-1.070,-0.450
'0:05.597',-1.050,-0.445
'0:05.600',-1.045,-0.440
'0:05.603',-1.055,-0.435
'0:05.606',-1.065,-0.430
'0:05.608',-1.065,-0.450
'0:05.611',-1.040,-0.465
'0:05.614',-1.060,-0.485
'0:05.617',-1.055,-0.480
'0:05.619',-1.050,-0.480
'0:05.622',-1.065,-0.460
'0:05.625',-1.040,-0.460
'0:05.628',-1.030,-0.455
'0:05.631',-1.020,-0.440
'0:05.633',-1.025,-0.450
'0:05.636',-1.010,-0.440
'0:05.639',-0.990,-0.455
'0:05.642',-0.995,-0.455
'0:05.644',-0.990,-0.460
'0:05.647',-0.990,-0.470
'0:05.650',-0.985,-0.455
'0:05.653',-0.980,-0.455
'0:05.656',-0.970,-0.440
'0:05.658',-0.955,-0.435
'0:05.661',-0.935,-0.415
'0:05.664',-0.935,-0.415
'0:05.667',-0.910,-0.410
'0:05.669',-0.905,-0.410
'0:05.672',-0.905,-0.415
'0:05.675',-0.890,-0.440
'0:05.678',-0.900,-0.415
'0:05.681',-0.915,-0.450
'0:05.683',-0.905,-0.455
'0:05.686',-0.880,-0.435
'0:05.689',-0.845,-0.435
'0:05.692',-0.820,-0.425
'0:05.694',-0.815,-0.410
'0:05.697',-0.775,-0.410
'0:05.700',-0.765,-0.415
'0:05.703',-0.745,-0.415
'0:05.706',-0.710,-0.410
'0:05.708',-0.725,-0.425
'0:05.711',-0.695,-0.415
'0:05.714',-0.675,-0.435
'0:05.717',-0.640,-0.420
'0:05.719',-0.625,-0.430
'0:05.722',-0.605,-0.425
'0:05.725',-0.570,-0.410
'0:05.728',-0.550,-0.400
'0:05.731',-0.530,-0.410
'0:05.733',-0.510,-0.395
'0:05.736',-0.485,-0.410
'0:05.739',-0.470,-0.420
'0:05.742',-0.470,-0.440
'0:05.744',-0.450,-0.440
'0:05.747',-0.445,-0.455
'0:05.750',-0.420,-0.450
'0:05.753',-0.425,-0.450
'0:05.756',-0.415,-0.455
'0:05.758',-0.410,-0.440
'0:05.761',-0.395,-0.445
'0:05.764',-0.395,-0.440
'0:05.767',-0.370,-0.410
'0:05.769',-0.400,-0.430
'0:05.772',-0.410,-0.450
'0:05.775',-0.450,-0.465
'0:05.778',-0.485,-0.450
'0:05.781',-0.500,-0.455
'0:05.783',-0.530,-0.455
'0:05.786',-0.585,-0.450
'0:05.789',-0.615,-0.450
'0:05.792',-0.620,-0.420
'0:05.794',-0.650,-0.425
'0:05.797',-0.665,-0.420
'0:05.800',-0.705,-0.405
'0:05.803',-0.740,-0.420
'0:05.806',-0.765,-0.425
'0:05.808',-0.800,-0.430
'0:05.811',-0.830,-0.440
'0:05.814',-0.850,-0.460
'0:05.817',-0.860,-0.465
'0:05.819',-0.885,-0.470
'0:05.822',-0.910,-0.460
'0:05.825',-0.905,-0.445
'0:05.828',-0.915,-0.450
'0:05.831',-0.920,-0.445
'0:05.833',-0.930,-0.425
'0:05.836',-0.930,-0.440
'0:05.839',-0.955,-0.455
'0:05.842',-0.960,-0.450
'0:05.844',-0.970,-0.445
'0:05.847',-0.975,-0.470
'0:05.850',-0.985,-0.470
'0:05.853',-0.995,-0.485
'0:05.856',-1.000,-0.480
'0:05.858',-0.980,-0.460
'0:05.861',-0.990,-0.465
'0:05.864',-0.975,-0.465
'0:05.867',-0.960,-0.460
'0:05.869',-0.965,-0.480
'0:05.872',-0.980,-0.465
'0:05.875',-0.985,-0.485
'0:05.878',-0.990,-0.480
'0:05.881',-0.995,-0.485
'0:05.883',-0.980,-0.500
'0:05.886',-0.985,-0.490
'0:05.889',-0.985,-0.485
'0:05.892',-0.965,-0.475
'0:05.894',-0.945,-0.460
'0:05.897',-0.945,-0.445
'0:05.900',-0.925,-0.440
'0:05.903',-0.925,-0.445
'0:05.906',-0.940,-0.455
'0:05.908',-0.950,-0.465
'0:05.911',-0.955,-0.470
'0:05.914',-0.955,-0.490
'0:05.917',-0.935,-0.495
'0:05.919',-0.945,-0.490
'0:05.922',-0.945,-0.490
'0:05.925',-0.930,-0.460
'0:05.928',-0.915,-0.475
'0:05.931',-0.915,-0.460
'0:05.933',-0.910,-0.475
'0:05.936',-0.915,-0.475
'0:05.939',-0.920,-0.475
'0:05.942',-0.930,-0.495
'0:05.944',-0.940,-0.505
'0:05.947',-0.920,-0.510
'0:05.950',-0.925,-0.505
'0:05.953',-0.935,-0.505
'0:05.956',-0.915,-0.500
'0:05.958',-0.905,-0.485
'0:05.961',-0.895,-0.475
'0:05.964',-0.885,-0.475
'0:05.967',-0.890,-0.480
'0:05.969',-0.900,-0.455
'0:05.972',-0.900,-0.490
'0:05.975',-0.905,-0.485
'0:05.978',-0.905,-0.485
'0:05.981',-0.915,-0.515
'0:05.983',-0.930,-0.515
'0:05.986',-0.925,-0.500
'0:05.989',-0.930,-0.525
'0:05.992',-0.915,-0.510
'0:05.994',-0.920,-0.490
'0:05.997',-0.915,-0.490
'0:06.000',-0.920,-0.490
'0:06.003',-0.915,-0.485
'0:06.006',-0.920,-0.495
'0:06.008',-0.925,-0.500
'0:06.011',-0.930,-0.505
'0:06.014',-0.925,-0.530
'0:06.017',-0.945,-0.530
'0:06.019',-0.955,-0.510
'0:06.022',-0.955,-0.500
'0:06.025',-0.955,-0.495
'0:06.028',-0.940,-0.485
'0:06.031',-0.920,-0.480
'0:06.033',-0.920,-0.475
'0:06.036',-0.945,-0.495
'0:06.039',-0.945,-0.495
'0:06.042',-0.935,-0.505
'0:06.044',-0.945,-0.515
'0:06.047',-0.950,-0.505
'0:06.050',-0.965,-0.515
'0:06.053',-0.960,-0.515
'0:06.056',-0.965,-0.495
'0:06.058',-0.945,-0.490
'0:06.061',-0.950,-0.495
'0:06.064',-0.940,-0.495
'0:06.067',-0.925,-0.500
'0:06.069',-0.945,-0.490
'0:06.072',-0.950,-0.505
'0:06.075',-0.970,-0.500
'0:06.078',-0.965,-0.515
'0:06.081',-0.970,-0.525
'0:06.083',-0.970,-0.525
'0:06.086',-0.990,-0.515
'0:06.089',-0.990,-0.510
'0:06.092',-0.960,-0.495
'0:06.094',-0.975,-0.495
'0:06.097',-0.945,-0.480
'0:06.100',-0.950,-0.480
'0:06.103',-0.950,-0.480
'0:06.106',-0.960,-0.485
'0:06.108',-0.955,-0.510
'0:06.111',-0.965,-0.520
'0:06.114',-0.990,-0.505
'0:06.117',-0.975,-0.525
'0:06.119',-0.975,-0.520
'0:06.122',-0.975,-0.520
'0:06.125',-0.960,-0.510
'0:06.128',-0.960,-0.505
'0:06.131',-0.945,-0.510
'0:06.133',-0.940,-0.505
'0:06.136',-0.935,-0.510
'0:06.139',-0.930,-0.505
'0:06.142',-0.945,-0.530
'0:06.144',-0.945,-0.535
'0:06.147',-0.965,-0.540
'0:06.150',-0.950,-0.525
'0:06.153',-0.960,-0.530
'0:06.156',-0.955,-0.520
'0:06.158',-0.920,-0.490
'0:06.161',-0.905,-0.490
'0:06.164',-0.880,-0.460
'0:06.167',-0.860,-0.450
'0:06.169',-0.845,-0.455
'0:06.172',-0.850,-0.455
'0:06.175',-0.835,-0.460
'0:06.178',-0.830,-0.450
'0:06.181',-0.815,-0.465
'0:06.183',-0.820,-0.465
'0:06.186',-0.815,-0.460
'0:06.189',-0.780,-0.450
'0:06.192',-0.745,-0.425
'0:06.194',-0.725,-0.410
'0:06.197',-0.685,-0.390
'0:06.200',-0.630,-0.395
'0:06.203',-0.605,-0.395
'0:06.206',-0.590,-0.435
'0:06.208',-0.590,-0.460
'0:06.211',-0.600,-0.490
'0:06.214',-0.620,-0.510
'0:06.217',-0.635,-0.530
'0:06.219',-0.665,-0.540
'0:06.222',-0.645,-0.535
'0:06.225',-0.640,-0.520
'0:06.228',-0.645,-0.505
'0:06.231',-0.650,-0.520
'0:06.233',-0.710,-0.520
'0:06.236',-0.755,-0.535
'0:06.239',-0.820,-0.525
'0:06.242',-0.875,-0.545
'0:06.244',-0.925,-0.530
'0:06.247',-0.960,-0.540
'0:06.250',-0.995,-0.560
'0:06.253',-1.020,-0.555
'0:06.256',-1.010,-0.545
'0:06.258',-0.990,-0.525
'0:06.261',-0.970,-0.520
'0:06.264',-0.960,-0.520
'0:06.267',-0.970,-0.515
'0:06.269',-0.975,-0.515
'0:06.272',-0.975,-0.515
'0:06.275',-0.990,-0.530
'0:06.278',-1.010,-0.530
'0:06.281',-1.010,-0.535
'0:06.283',-1.015,-0.555
'0:06.286',-1.025,-0.535
'0:06.289',-1.010,-0.530
'0:06.292',-1.005,-0.535
'0:06.294',-1.015,-0.525
'0:06.297',-0.995,-0.525
'0:06.300',-0.990,-0.530
'0:06.303',-0.980,-0.525
'0:06.306',-0.985,-0.525
'0:06.308',-0.990,-0.530
'0:06.311',-0.990,-0.530
'0:06.314',-0.990,-0.545
'0:06.317',-0.990,-0.545
'0:06.319',-0.990,-0.565
'0:06.322',-0.985,-0.535
'0:06.325',-0.995,-0.535
'0:06.328',-0.985,-0.535
'0:06.331',-0.985,-0.525
'0:06.333',-0.990,-0.505
'0:06.336',-1.010,-0.490
'0:06.339',-1.035,-0.480
'0:06.342',-1.050,-0.445
'0:06.344',-1.035,-0.400
'0:06.347',-0.985,-0.345
'0:06.350',-0.880,-0.295
'0:06.353',-0.710,-0.265
'0:06.356',-0.450,-0.315
'0:06.358',-0.145,-0.390
'0:06.361',0.225,-0.505
'0:06.364',0.600,-0.690
'0:06.367',0.920,-0.910
'0:06.369',1.130,-1.160
'0:06.372',1.205,-1.385
'0:06.375',1.200,-1.565
'0:06.378',1.085,-1.670
'0:06.381',0.845,-1.675
'0:06.383',0.450,-1.625
'0:06.386',-0.045,-1.550
'0:06.389',-0.570,-1.455
'0:06.392',-0.935,-1.365
'0:06.394',-1.120,-1.245
'0:06.397',-1.095,-1.135
'0:06.400',-0.995,-1.015
'0:06.403',-0.845,-0.930
'0:06.406',-0.755,-0.845
'0:06.408',-0.745,-0.760
'0:06.411',-0.775,-0.720
'0:06.414',-0.825,-0.660
'0:06.417',-0.910,-0.605
'0:06.419',-0.960,-0.575
'0:06.422',-0.990,-0.545
'0:06.425',-0.990,-0.530
'0:06.428',-0.970,-0.505
'0:06.431',-0.975,-0.495
'0:06.433',-0.950,-0.500
'0:06.436',-0.960,-0.490
'0:06.439',-0.965,-0.485
'0:06.442',-0.955,-0.485
'0:06.444',-0.970,-0.485
'0:06.447',-1.005,-0.505
'0:06.450',-1.005,-0.485
'0:06.453',-1.020,-0.495
'0:06.456',-1.005,-0.495
'0:06.458',-1.000,-0.470
'0:06.461',-0.995,-0.460
'0:06.464',-1.000,-0.435
'0:06.467',-0.990,-0.425
'0:06.469',-0.990,-0.430
'0:06.472',-1.010,-0.440
'0:06.475',-0.995,-0.450
'0:06.478',-1.010,-0.445
'0:06.481',-1.015,-0.455
'0:06.483',-1.015,-0.465
'0:06.486',-1.025,-0.455
'0:06.489',-1.015,-0.460
'0:06.492',-1.000,-0.450
'0:06.494',-0.990,-0.440
'0:06.497',-0.995,-0.415
'0:06.500',-0.990,-0.420
'0:06.503',-0.990,-0.415
'0:06.506',-1.000,-0.430
'0:06.508',-0.995,-0.450
'0:06.511',-1.010,-0.450
'0:06.514',-1.030,-0.460
'0:06.517',-1.030,-0.470
'0:06.519',-1.005,-0.455
'0:06.522',-1.015,-0.460
'0:06.525',-0.995,-0.450
'0:06.528',-0.990,-0.435
'0:06.531',-0.970,-0.405
'0:06.533',-0.955,-0.400
'0:06.536',-0.955,-0.395
'0:06.539',-0.955,-0.410
'0:06.542',-0.955,-0.405
'0:06.544',-0.975,-0.420
'0:06.547',-0.965,-0.435
'0:06.550',-0.970,-0.440
'0:06.553',-0.970,-0.440
'0:06.556',-0.970,-0.435
'0:06.558',-0.935,-0.425
'0:06.561',-0.925,-0.400
'0:06.564',-0.920,-0.420
'0:06.567',-0.925,-0.410
'0:06.569',-0.935,-0.405
'0:06.572',-0.925,-0.420
'0:06.575',-0.915,-0.425
'0:06.578',-0.910,-0.435
'0:06.581',-0.910,-0.425
'0:06.583',-0.905,-0.435
'0:06.586',-0.895,-0.430
'0:06.589',-0.900,-0.405
'0:06.592',-0.875,-0.400
'0:06.594',-0.855,-0.380
'0:06.597',-0.825,-0.380
'0:06.600',-0.810,-0.370
'0:06.603',-0.800,-0.370
'0:06.606',-0.785,-0.370
'0:06.608',-0.775,-0.375
'0:06.611',-0.765,-0.390
'0:06.614',-0.765,-0.395
'0:06.617',-0.765,-0.415
'0:06.619',-0.745,-0.395
'0:06.622',-0.720,-0.385
'0:06.625',-0.695,-0.375
'0:06.628',-0.670,-0.365
'0:06.631',-0.635,-0.365
'0:06.633',-0.600,-0.360
'0:06.636',-0.590,-0.365
'0:06.639',-0.575,-0.365
'0:06.642',-0.560,-0.395
'0:06.644',-0.540,-0.390
'0:06.647',-0.535,-0.395
'0:06.650',-0.515,-0.405
'0:06.653',-0.505,-0.405
'0:06.656',-0.480,-0.390
'0:06.658',-0.460,-0.385
'0:06.661',-0.435,-0.385
'0:06.664',-0.420,-0.365
'0:06.667',-0.400,-0.370
'0:06.669',-0.380,-0.370
'0:06.672',-0.355,-0.395
'0:06.675',-0.370,-0.400
'0:06.678',-0.365,-0.425
'0:06.681',-0.370,-0.425
'0:06.683',-0.375,-0.430
'0:06.686',-0.385,-0.425
'0:06.689',-0.400,-0.445
'0:06.692',-0.420,-0.435
'0:06.694',-0.440,-0.420
'0:06.697',-0.460,-0.410
'0:06.700',-0.470,-0.405
'0:06.703',-0.505,-0.410
'0:06.706',-0.535,-0.395
'0:06.708',-0.575,-0.405
'0:06.711',-0.630,-0.415
'0:06.714',-0.640,-0.410
'0:06.717',-0.690,-0.410
'0:06.719',-0.715,-0.415
'0:06.722',-0.750,-0.410
'0:06.725',-0.755,-0.400
'0:06.728',-0.775,-0.410
'0:06.731',-0.780,-0.395
'0:06.733',-0.790,-0.415
'0:06.736',-0.815,-0.415
'0:06.739',-0.840,-0.410
'0:06.742',-0.850,-0.430
'0:06.744',-0.895,-0.430
'0:06.747',-0.910,-0.455
'0:06.750',-0.925,-0.465
'0:06.753',-0.930,-0.465
'0:06.756',-0.930,-0.455
'0:06.758',-0.940,-0.445
'0:06.761',-0.935,-0.450
'0:06.764',-0.920,-0.425
'0:06.767',-0.915,-0.445
'0:06.769',-0.925,-0.435
'0:06.772',-0.930,-0.420
'0:06.775',-0.935,-0.425
'0:06.778',-0.935,-0.450
'0:06.781',-0.935,-0.455
'0:06.783',-0.950,-0.455
'0:06.786',-0.965,-0.450
'0:06.789',-0.970,-0.465
'0:06.792',-0.965,-0.450
'0:06.794',-0.960,-0.430
'0:06.797',-0.960,-0.435
'0:06.800',-0.930,-0.430
'0:06.803',-0.940,-0.440
'0:06.806',-0.935,-0.435
'0:06.808',-0.935,-0.445
'0:06.811',-0.935,-0.455
'0:06.814',-0.950,-0.470
'0:06.817',-0.945,-0.475
'0:06.819',-0.945,-0.475
'0:06.822',-0.935,-0.475
'0:06.825',-0.940,-0.460
'0:06.828',-0.925,-0.455
'0:06.831',-0.925,-0.420
'0:06.833',-0.915,-0.405
'0:06.836',-0.915,-0.415
'0:06.839',-0.915,-0.410
'0:06.842',-0.910,-0.400
'0:06.844',-0.925,-0.410
'0:06.847',-0.920,-0.400
'0:06.850',-0.945,-0.380
'0:06.853',-0.950,-0.355
'0:06.856',-0.910,-0.330
'0:06.858',-0.865,-0.290
'0:06.861',-0.795,-0.205
'0:06.864',-0.690,-0.175
'0:06.867',-0.555,-0.180
'0:06.869',-0.405,-0.260
'0:06.872',-0.280,-0.370
'0:06.875',-0.135,-0.520
'0:06.878',0.005,-0.690
'0:06.881',0.175,-0.830
'0:06.883',0.360,-0.970
'0:06.886',0.555,-1.110
'0:06.889',0.780,-1.280
'0:06.892',1.000,-1.455
'0:06.894',1.215,-1.625
'0:06.897',1.395,-1.830
'0:06.900',1.570,-2.015
'0:06.903',1.715,-2.170
'0:06.906',1.830,-2.290
'0:06.908',1.900,-2.350
'0:06.911',1.935,-2.380
'0:06.914',1.940,-2.405
'0:06.917',1.945,-2.410
'0:06.919',1.915,-2.395
'0:06.922',1.880,-2.375
'0:06.925',1.815,-2.335
'0:06.928',1.735,-2.305
'0:06.931',1.675,-2.215
'0:06.933',1.630,-2.145
'0:06.936',1.600,-2.025
'0:06.939',1.605,-1.940
'0:06.942',1.610,-1.870
'0:06.944',1.570,-1.785
'0:06.947',1.530,-1.695
'0:06.950',1.440,-1.605
'0:06.953',1.300,-1.515
'0:06.956',1.150,-1.435
'0:06.958',0.985,-1.320
'0:06.961',0.780,-1.225
'0:06.964',0.530,-1.140
'0:06.967',0.180,-1.035
'0:06.969',-0.210,-0.960
'0:06.972',-0.600,-0.855
'0:06.975',-0.880,-0.740
'0:06.978',-1.070,-0.650
'0:06.981',-1.130,-0.530
'0:06.983',-1.145,-0.470
'0:06.986',-1.130,-0.420
'0:06.989',-1.100,-0.385
'0:06.992',-1.120,-0.380
'0:06.994',-1.145,-0.355
'0:06.997',-1.190,-0.345
'0:07.000',-1.225,-0.315
'0:07.003',-1.255,-0.305
'0:07.006',-1.300,-0.285
'0:07.008',-1.325,-0.290
'0:07.011',-1.355,-0.290
'0:07.014',-1.375,-0.280
'0:07.017',-1.395,-0.265
'0:07.019',-1.400,-0.255
'0:07.022',-1.415,-0.240
'0:07.025',-1.425,-0.220
'0:07.028',-1.430,-0.200
'0:07.031',-1.455,-0.190
'0:07.033',-1.455,-0.180
'0:07.036',-1.460,-0.170
'0:07.039',-1.465,-0.165
'0:07.042',-1.475,-0.170
'0:07.044',-1.495,-0.165
'0:07.047',-1.520,-0.170
'0:07.050',-1.535,-0.170
'0:07.053',-1.545,-0.165
'0:07.056',-1.560,-0.145
'0:07.058',-1.560,-0.115
'0:07.061',-1.560,-0.095
'0:07.064',-1.570,-0.060
'0:07.067',-1.565,-0.055
'0:07.069',-1.575,-0.030
'0:07.072',-1.565,-0.015
'0:07.075',-1.575,-0.010
'0:07.078',-1.575,-0.005
'0:07.081',-1.590,0.005
'0:07.083',-1.590,0.035
'0:07.086',-1.590,0.050
'0:07.089',-1.605,0.080
'0:07.092',-1.620,0.115
'0:07.094',-1.605,0.150
'0:07.097',-1.605,0.165
'0:07.100',-1.585,0.190
'0:07.103',-1.575,0.210
'0:07.106',-1.600,0.205
'0:07.108',-1.570,0.210
'0:07.111',-1.585,0.180
'0:07.114',-1.605,0.175
'0:07.117',-1.635,0.160
'0:07.119',-1.675,0.155
'0:07.122',-1.685,0.175
'0:07.125',-1.710,0.180
'0:07.128',-1.725,0.215
'0:07.131',-1.720,0.245
'0:07.133',-1.745,0.270
'0:07.136',-1.800,0.285
'0:07.139',-1.855,0.315
'0:07.142',-1.910,0.320
'0:07.144',-1.980,0.335
'0:07.147',-2.035,0.340
'0:07.150',-2.100,0.355
'0:07.153',-2.170,0.390
'0:07.156',-2.215,0.410
'0:07.158',-2.245,0.445
'0:07.161',-2.275,0.475
'0:07.164',-2.280,0.475
'0:07.167',-2.315,0.495
'0:07.169',-2.330,0.510
'0:07.172',-2.320,0.490
'0:07.175',-2.335,0.480
'0:07.178',-2.350,0.480
'0:07.181',-2.360,0.455
'0:07.183',-2.365,0.435
'0:07.186',-2.375,0.430
'0:07.189',-2.370,0.410
'0:07.192',-2.350,0.415
'0:07.194',-2.315,0.400
'0:07.197',-2.290,0.390
'0:07.200',-2.260,0.365
'0:07.203',-2.225,0.340
'0:07.206',-2.195,0.310
'0:07.208',-2.165,0.265
'0:07.211',-2.145,0.235
'0:07.214',-2.110,0.195
'0:07.217',-2.040,0.145
'0:07.219',-1.985,0.110
'0:07.222',-1.920,0.075
'0:07.225',-1.860,0.035
'0:07.228',-1.790,0.010
'0:07.231',-1.760,-0.025
'0:07.233',-1.670,-0.040
'0:07.236',-1.625,-0.110
'0:07.239',-1.580,-0.135
'0:07.242',-1.540,-0.185
'0:07.244',-1.495,-0.210
'0:07.247',-1.455,-0.250
'0:07.250',-1.415,-0.285
'0:07.253',-1.380,-0.305
'0:07.256',-1.350,-0.315
'0:07.258',-1.330,-0.330
'0:07.261',-1.300,-0.320
'0:07.264',-1.270,-0.330
'0:07.267',-1.270,-0.320
'0:07.269',-1.255,-0.350
'0:07.272',-1.235,-0.365
'0:07.275',-1.230,-0.375
'0:07.278',-1.225,-0.400
'0:07.281',-1.225,-0.405
'0:07.283',-1.220,-0.425
'0:07.286',-1.260,-0.430
'0:07.289',-1.240,-0.415
'0:07.292',-1.215,-0.405
'0:07.294',-1.205,-0.405
'0:07.297',-1.220,-0.390
'0:07.300',-1.205,-0.390
'0:07.303',-1.205,-0.405
'0:07.306',-1.200,-0.400
'0:07.308',-1.210,-0.415
'0:07.311',-1.215,-0.440
'0:07.314',-1.210,-0.450
'0:07.317',-1.215,-0.430
'0:07.319',-1.225,-0.435
'0:07.322',-1.200,-0.430
'0:07.325',-1.205,-0.405
'0:07.328',-1.195,-0.410
'0:07.331',-1.190,-0.380
'0:07.333',-1.170,-0.375
'0:07.336',-1.170,-0.385
'0:07.339',-1.175,-0.380
'0:07.342',-1.170,-0.405
'0:07.344',-1.180,-0.410
'0:07.347',-1.190,-0.410
'0:07.350',-1.185,-0.410
'0:07.353',-1.180,-0.420
'0:07.356',-1.175,-0.410
'0:07.358',-1.175,-0.410
'0:07.361',-1.155,-0.395
'0:07.364',-1.145,-0.395
'0:07.367',-1.130,-0.385
'0:07.369',-1.115,-0.395
'0:07.372',-1.120,-0.395
'0:07.375',-1.135,-0.415
'0:07.378',-1.135,-0.425
'0:07.381',-1.145,-0.410
'0:07.383',-1.140,-0.440
'0:07.386',-1.135,-0.445
'0:07.389',-1.145,-0.425
'0:07.392',-1.130,-0.400
'0:07.394',-1.130,-0.415
'0:07.397',-1.125,-0.375
'0:07.400',-1.115,-0.370
'0:07.403',-1.105,-0.390
'0:07.406',-1.115,-0.405
'0:07.408',-1.095,-0.420
'0:07.411',-1.095,-0.425
'0:07.414',-1.110,-0.420
'0:07.417',-1.115,-0.430
'0:07.419',-1.110,-0.440
'0:07.422',-1.115,-0.445
'0:07.425',-1.100,-0.440
'0:07.428',-1.120,-0.430
'0:07.431',-1.095,-0.415
'0:07.433',-1.080,-0.400
'0:07.436',-1.085,-0.405
'0:07.439',-1.080,-0.430
'0:07.442',-1.080,-0.430
'0:07.444',-1.075,-0.450
'0:07.447',-1.085,-0.460
'0:07.450',-1.100,-0.465
'0:07.453',-1.105,-0.470
'0:07.456',-1.090,-0.470
'0:07.458',-1.100,-0.455
'0:07.461',-1.080,-0.455
'0:07.464',-1.075,-0.435
'0:07.467',-1.060,-0.435
'0:07.469',-1.050,-0.445
'0:07.472',-1.035,-0.450
'0:07.475',-1.045,-0.430
'0:07.478',-1.055,-0.450
'0:07.481',-1.060,-0.470
'0:07.483',-1.070,-0.490
'0:07.486',-1.065,-0.475
'0:07.489',-1.080,-0.475
'0:07.492',-1.080,-0.465
'0:07.494',-1.060,-0.465
'0:07.497',-1.045,-0.450
'0:07.500',-1.035,-0.460
'0:07.503',-1.040,-0.450
'0:07.506',-1.040,-0.455
'0:07.508',-1.040,-0.460
'0:07.511',-1.045,-0.470
'0:07.514',-1.060,-0.470
'0:07.517',-1.050,-0.475
'0:07.519',-1.045,-0.485
'0:07.522',-1.045,-0.480
'0:07.525',-1.050,-0.475
'0:07.528',-1.030,-0.480
'0:07.531',-1.035,-0.450
'0:07.533',-1.015,-0.455
'0:07.536',-1.015,-0.450
'0:07.539',-1.020,-0.470
'0:07.542',-1.025,-0.475
'0:07.544',-1.020,-0.490
'0:07.547',-1.030,-0.485
'0:07.550',-1.030,-0.500
'0:07.553',-1.020,-0.515
'0:07.556',-1.025,-0.505
'0:07.558',-1.035,-0.510
'0:07.561',-1.015,-0.490
'0:07.564',-1.010,-0.475
'0:07.567',-1.005,-0.475
'0:07.569',-0.995,-0.470
'0:07.572',-1.000,-0.490
'0:07.575',-1.010,-0.475
'0:07.578',-1.010,-0.480
'0:07.581',-1.015,-0.490
'0:07.583',-1.025,-0.490
'0:07.586',-1.030,-0.500
'0:07.589',-1.025,-0.490
'0:07.592',-1.015,-0.485
'0:07.594',-1.010,-0.475
'0:07.597',-0.980,-0.475
'0:07.600',-0.975,-0.465
'0:07.603',-0.960,-0.465
'0:07.606',-0.985,-0.480
'0:07.608',-0.985,-0.490
'0:07.611',-1.005,-0.500
'0:07.614',-0.995,-0.520
'0:07.617',-1.010,-0.520
'0:07.619',-1.030,-0.520
'0:07.622',-1.005,-0.525
'0:07.625',-1.010,-0.515
'0:07.628',-0.995,-0.495
'0:07.631',-0.975,-0.475
'0:07.633',-0.965,-0.485
'0:07.636',-0.960,-0.475
'0:07.639',-0.955,-0.480
'0:07.642',-0.970,-0.485
'0:07.644',-0.990,-0.495
'0:07.647',-0.985,-0.500
'0:07.650',-1.005,-0.495
'0:07.653',-0.985,-0.520
'0:07.656',-0.985,-0.510
'0:07.658',-0.970,-0.505
'0:07.661',-0.980,-0.490
'0:07.664',-0.955,-0.490
'0:07.667',-0.950,-0.480
'0:07.669',-0.950,-0.495
'0:07.672',-0.960,-0.505
'0:07.675',-0.955,-0.505
'0:07.678',-0.980,-0.515
'0:07.681',-0.980,-0.520
'0:07.683',-0.985,-0.530
'0:07.686',-0.985,-0.540
'0:07.689',-0.990,-0.525
'0:07.692',-0.970,-0.505
'0:07.694',-0.960,-0.500
'0:07.697',-0.960,-0.500
'0:07.700',-0.945,-0.470
'0:07.703',-0.950,-0.480
'0:07.706',-0.950,-0.485
'0:07.708',-0.950,-0.480
'0:07.711',-0.960,-0.510
'0:07.714',-0.965,-0.515
'0:07.717',-0.990,-0.515
'0:07.719',-0.975,-0.520
'0:07.722',-0.970,-0.530
'0:07.725',-0.960,-0.520
'0:07.728',-0.960,-0.515
'0:07.731',-0.965,-0.485
'0:07.733',-0.930,-0.475
'0:07.736',-0.945,-0.495
'0:07.739',-0.950,-0.510
'0:07.742',-0.955,-0.510
'0:07.744',-0.965,-0.515
'0:07.747',-0.965,-0.535
'0:07.750',-0.975,-0.540
'0:07.753',-0.975,-0.525
'0:07.756',-0.955,-0.525
'0:07.758',-0.955,-0.515
'0:07.761',-0.940,-0.510
'0:07.764',-0.955,-0.470
'0:07.767',-0.950,-0.495
'0:07.769',-0.950,-0.480
'0:07.772',-0.945,-0.510
'0:07.775',-0.950,-0.500
'0:07.778',-0.955,-0.515
'0:07.781',-0.960,-0.530
'0:07.783',-0.965,-0.535
'0:07.786',-0.970,-0.535
'0:07.789',-0.960,-0.535
'0:07.792',-0.960,-0.520
'0:07.794',-0.955,-0.520
'0:07.797',-0.935,-0.510
'0:07.800',-0.945,-0.505
'0:07.803',-0.935,-0.515
'0:07.806',-0.925,-0.510
'0:07.808',-0.930,-0.510
'0:07.811',-0.935,-0.510
'0:07.814',-0.945,-0.510
'0:07.817',-0.950,-0.525
'0:07.819',-0.965,-0.530
'0:07.822',-0.975,-0.525
'0:07.825',-0.950,-0.505
'0:07.828',-0.935,-0.505
'0:07.831',-0.950,-0.485
'0:07.833',-0.925,-0.495
'0:07.836',-0.915,-0.485
'0:07.839',-0.925,-0.500
'0:07.842',-0.925,-0.505
'0:07.844',-0.930,-0.500
'0:07.847',-0.930,-0.525
'0:07.850',-0.935,-0.520
'0:07.853',-0.945,-0.550
'0:07.856',-0.935,-0.550
'0:07.858',-0.935,-0.530
'0:07.861',-0.940,-0.520
'0:07.864',-0.920,-0.490
'0:07.867',-0.905,-0.495
'0:07.869',-0.895,-0.505
'0:07.872',-0.905,-0.510
'0:07.875',-0.905,-0.515
'0:07.878',-0.910,-0.515
'0:07.881',-0.920,-0.530
'0:07.883',-0.935,-0.525
'0:07.886',-0.960,-0.540
'0:07.889',-0.955,-0.525
'0:07.892',-0.925,-0.515
'0:07.894',-0.920,-0.520
'0:07.897',-0.920,-0.515
'0:07.900',-0.915,-0.515
'0:07.903',-0.905,-0.510
'0:07.906',-0.885,-0.520
'0:07.908',-0.900,-0.515
'0:07.911',-0.895,-0.530
'0:07.914',-0.905,-0.550
'0:07.917',-0.920,-0.540
'0:07.919',-0.915,-0.565
'0:07.922',-0.930,-0.550
'0:07.925',-0.920,-0.545
'0:07.928',-0.920,-0.525
'0:07.931',-0.920,-0.515
'0:07.933',-0.915,-0.515
'0:07.936',-0.885,-0.515
'0:07.939',-0.885,-0.515
'0:07.942',-0.885,-0.520
'0:07.944',-0.910,-0.515
'0:07.947',-0.925,-0.525
'0:07.950',-0.935,-0.515
'0:07.953',-0.915,-0.520
'0:07.956',-0.905,-0.540
'0:07.958',-0.905,-0.510
'0:07.961',-0.895,-0.515
'0:07.964',-0.900,-0.505
'0:07.967',-0.880,-0.500
'0:07.969',-0.885,-0.505
'0:07.972',-0.890,-0.510
'0:07.975',-0.870,-0.515
'0:07.978',-0.890,-0.530
'0:07.981',-0.905,-0.545
'0:07.983',-0.910,-0.540
'0:07.986',-0.930,-0.565
'0:07.989',-0.930,-0.545
'0:07.992',-0.925,-0.540
'0:07.994',-0.895,-0.535
'0:07.997',-0.890,-0.520
'0:08.000',-0.870,-0.495
'0:08.003',-0.865,-0.510
'0:08.006',-0.870,-0.500
'0:08.008',-0.875,-0.510
'0:08.011',-0.875,-0.520
'0:08.014',-0.885,-0.530
'0:08.017',-0.890,-0.530
'0:08.019',-0.895,-0.545
'0:08.022',-0.885,-0.530
'0:08.025',-0.875,-0.515
'0:08.028',-0.850,-0.500
'0:08.031',-0.825,-0.505
'0:08.033',-0.810,-0.475
'0:08.036',-0.775,-0.475
'0:08.039',-0.775,-0.480
'0:08.042',-0.765,-0.470
'0:08.044',-0.780,-0.460
'0:08.047',-0.775,-0.470
'0:08.050',-0.745,-0.475
'0:08.053',-0.720,-0.465
'0:08.056',-0.690,-0.455
'0:08.058',-0.655,-0.445
'0:08.061',-0.605,-0.425
'0:08.064',-0.555,-0.425
'0:08.067',-0.520,-0.415
'0:08.069',-0.520,-0.435
'0:08.072',-0.520,-0.470
'0:08.075',-0.545,-0.510
'0:08.078',-0.545,-0.525
'0:08.081',-0.580,-0.545
'0:08.083',-0.575,-0.560
'0:08.086',-0.575,-0.560
'0:08.089',-0.575,-0.555
'0:08.092',-0.585,-0.555
'0:08.094',-0.605,-0.560
'0:08.097',-0.645,-0.550
'0:08.100',-0.685,-0.520
'0:08.103',-0.745,-0.535
'0:08.106',-0.815,-0.545
'0:08.108',-0.840,-0.555
'0:08.111',-0.880,-0.550
'0:08.114',-0.890,-0.565
'0:08.117',-0.910,-0.555
'0:08.119',-0.905,-0.570
'0:08.122',-0.900,-0.575
'0:08.125',-0.895,-0.570
'0:08.128',-0.895,-0.565
'0:08.131',-0.890,-0.550
'0:08.133',-0.880,-0.540
'0:08.136',-0.885,-0.540
'0:08.139',-0.885,-0.550
'0:08.142',-0.890,-0.560
'0:08.144',-0.895,-0.560
'0:08.147',-0.915,-0.590
'0:08.150',-0.910,-0.580
'0:08.153',-0.920,-0.580
'0:08.156',-0.910,-0.585
'0:08.158',-0.905,-0.570
'0:08.161',-0.885,-0.550
'0:08.164',-0.900,-0.555
'0:08.167',-0.905,-0.550
'0:08.169',-0.885,-0.555
'0:08.172',-0.895,-0.555
'0:08.175',-0.935,-0.550
'0:08.178',-0.965,-0.550
'0:08.181',-0.980,-0.530
'0:08.183',-0.950,-0.485
'0:08.186',-0.875,-0.420
'0:08.189',-0.735,-0.380
'0:08.192',-0.525,-0.345
'0:08.194',-0.260,-0.370
'0:08.197',0.070,-0.425
'0:08.200',0.435,-0.520
'0:08.203',0.795,-0.680
'0:08.206',1.075,-0.885
'0:08.208',1.275,-1.105
'0:08.211',1.345,-1.300
'0:08.214',1.320,-1.445
'0:08.217',1.190,-1.525
'0:08.219',0.935,-1.540
'0:08.222',0.545,-1.510
'0:08.225',0.045,-1.450
'0:08.228',-0.460,-1.380
'0:08.231',-0.840,-1.295
'0:08.233',-1.000,-1.200
'0:08.236',-0.980,-1.115
'0:08.239',-0.860,-1.015
'0:08.242',-0.745,-0.925
'0:08.244',-0.670,-0.865
'0:08.247',-0.665,-0.805
'0:08.250',-0.695,-0.740
'0:08.253',-0.780,-0.680
'0:08.256',-0.830,-0.640
'0:08.258',-0.885,-0.600
'0:08.261',-0.910,-0.565
'0:08.264',-0.930,-0.550
'0:08.267',-0.905,-0.535
'0:08.269',-0.895,-0.530
'0:08.272',-0.890,-0.530
'0:08.275',-0.900,-0.530
'0:08.278',-0.895,-0.530
'0:08.281',-0.910,-0.535
'0:08.283',-0.925,-0.530
'0:08.286',-0.935,-0.530
'0:08.289',-0.950,-0.525
'0:08.292',-0.945,-0.500
'0:08.294',-0.930,-0.500
'0:08.297',-0.935,-0.490
'0:08.300',-0.925,-0.485
'0:08.303',-0.910,-0.465
'0:08.306',-0.915,-0.470
'0:08.308',-0.935,-0.480
'0:08.311',-0.935,-0.500
'0:08.314',-0.935,-0.490
'0:08.317',-0.960,-0.490
'0:08.319',-0.985,-0.500
'0:08.322',-0.960,-0.485
'0:08.325',-0.955,-0.485
'0:08.328',-0.955,-0.465
'0:08.331',-0.935,-0.465
'0:08.333',-0.935,-0.460
'0:08.336',-0.925,-0.455
'0:08.339',-0.925,-0.465
'0:08.342',-0.930,-0.450
'0:08.344',-0.945,-0.470
'0:08.347',-0.955,-0.495
'0:08.350',-0.980,-0.495
'0:08.353',-0.970,-0.490
'0:08.356',-0.955,-0.485
'0:08.358',-0.950,-0.475
'0:08.361',-0.940,-0.470
'0:08.364',-0.935,-0.445
'0:08.367',-0.925,-0.425
'0:08.369',-0.920,-0.440
'0:08.372',-0.930,-0.430
'0:08.375',-0.920,-0.435
'0:08.378',-0.925,-0.440
'0:08.381',-0.945,-0.465
'0:08.383',-0.935,-0.460
'0:08.386',-0.940,-0.480
'0:08.389',-0.935,-0.470
'0:08.392',-0.915,-0.465
'0:08.394',-0.915,-0.440
'0:08.397',-0.895,-0.430
'0:08.400',-0.885,-0.425
'0:08.403',-0.875,-0.435
'0:08.406',-0.870,-0.430
'0:08.408',-0.875,-0.415
'0:08.411',-0.860,-0.440
'0:08.414',-0.865,-0.445
'0:08.417',-0.880,-0.445
'0:08.419',-0.870,-0.450
'0:08.422',-0.850,-0.445
'0:08.425',-0.850,-0.415
'0:08.428',-0.810,-0.415
'0:08.431',-0.810,-0.405
'0:08.433',-0.780,-0.385
'0:08.436',-0.770,-0.390
'0:08.439',-0.770,-0.375
'0:08.442',-0.760,-0.375
'0:08.444',-0.765,-0.395
'0:08.447',-0.750,-0.400
'0:08.450',-0.765,-0.415
'0:08.453',-0.740,-0.425
'0:08.456',-0.730,-0.405
'0:08.458',-0.695,-0.395
'0:08.461',-0.670,-0.385
'0:08.464',-0.650,-0.375
'0:08.467',-0.620,-0.360
'0:08.469',-0.605,-0.370
'0:08.472',-0.595,-0.365
'0:08.475',-0.575,-0.395
'0:08.478',-0.570,-0.400
'0:08.481',-0.565,-0.400
'0:08.483',-0.555,-0.405
'0:08.486',-0.545,-0.405
'0:08.489',-0.535,-0.410
'0:08.492',-0.515,-0.395
'0:08.494',-0.480,-0.390
'0:08.497',-0.475,-0.370
'0:08.500',-0.465,-0.360
'0:08.503',-0.435,-0.380
'0:08.506',-0.425,-0.370
'0:08.508',-0.410,-0.385
'0:08.511',-0.410,-0.405
'0:08.514',-0.420,-0.410
'0:08.517',-0.400,-0.415
'0:08.519',-0.405,-0.440
'0:08.522',-0.380,-0.450
'0:08.525',-0.360,-0.425
'0:08.528',-0.345,-0.430
'0:08.531',-0.340,-0.430
'0:08.533',-0.335,-0.420
'0:08.536',-0.320,-0.420
'0:08.539',-0.330,-0.440
'0:08.542',-0.330,-0.450
'0:08.544',-0.350,-0.465
'0:08.547',-0.370,-0.470
'0:08.550',-0.390,-0.475
'0:08.553',-0.415,-0.485
'0:08.556',-0.445,-0.470
'0:08.558',-0.450,-0.460
'0:08.561',-0.475,-0.435
'0:08.564',-0.485,-0.445
'0:08.567',-0.510,-0.430
'0:08.569',-0.520,-0.450
'0:08.572',-0.545,-0.460
'0:08.575',-0.580,-0.470
'0:08.578',-0.605,-0.480
'0:08.581',-0.630,-0.495
'0:08.583',-0.650,-0.510
'0:08.586',-0.685,-0.505
'0:08.589',-0.710,-0.505
'0:08.592',-0.725,-0.490
'0:08.594',-0.725,-0.500
'0:08.597',-0.730,-0.485
'0:08.600',-0.730,-0.460
'0:08.603',-0.735,-0.480
'0:08.606',-0.755,-0.480
'0:08.608',-0.775,-0.485
'0:08.611',-0.780,-0.505
'0:08.614',-0.795,-0.510
'0:08.617',-0.810,-0.515
'0:08.619',-0.805,-0.505
'0:08.622',-0.800,-0.505
'0:08.625',-0.795,-0.485
'0:08.628',-0.805,-0.475
'0:08.631',-0.800,-0.460
'0:08.633',-0.790,-0.455
'0:08.636',-0.780,-0.460
'0:08.639',-0.795,-0.465
'0:08.642',-0.790,-0.455
'0:08.644',-0.790,-0.475
'0:08.647',-0.800,-0.480
'0:08.650',-0.800,-0.500
'0:08.653',-0.820,-0.510
'0:08.656',-0.815,-0.490
'0:08.658',-0.795,-0.485
'0:08.661',-0.790,-0.485
'0:08.664',-0.780,-0.475
'0:08.667',-0.770,-0.480
'0:08.669',-0.775,-0.480
'0:08.672',-0.775,-0.475
'0:08.675',-0.770,-0.485
'0:08.678',-0.780,-0.500
'0:08.681',-0.790,-0.500
'0:08.683',-0.785,-0.500
'0:08.686',-0.785,-0.500
'0:08.689',-0.790,-0.495
'0:08.692',-0.780,-0.490
'0:08.694',-0.765,-0.495
'0:08.697',-0.770,-0.465
'0:08.700',-0.755,-0.470
'0:08.703',-0.760,-0.465
'0:08.706',-0.775,-0.475
'0:08.708',-0.770,-0.485
'0:08.711',-0.775,-0.500
'0:08.714',-0.785,-0.520
'0:08.717',-0.790,-0.530
'0:08.719',-0.795,-0.535
'0:08.722',-0.805,-0.520
'0:08.725',-0.800,-0.515
'0:08.728',-0.790,-0.490
'0:08.731',-0.780,-0.485
'0:08.733',-0.775,-0.460
'0:08.736',-0.780,-0.490
'0:08.739',-0.785,-0.495
'0:08.742',-0.785,-0.495
'0:08.744',-0.800,-0.510
'0:08.747',-0.810,-0.515
'0:08.750',-0.825,-0.495
'0:08.753',-0.825,-0.505
'0:08.756',-0.840,-0.495
'0:08.758',-0.825,-0.495
'0:08.761',-0.810,-0.495
'0:08.764',-0.800,-0.490
'0:08.767',-0.790,-0.485
'0:08.769',-0.795,-0.475
'0:08.772',-0.800,-0.495
'0:08.775',-0.830,-0.485
'0:08.778',-0.840,-0.510
'0:08.781',-0.850,-0.510
'0:08.783',-0.845,-0.520
'0:08.786',-0.850,-0.525
'0:08.789',-0.845,-0.525
'0:08.792',-0.840,-0.525
'0:08.794',-0.840,-0.495
'0:08.797',-0.825,-0.505
'0:08.800',-0.820,-0.495
'0:08.803',-0.825,-0.500
'0:08.806',-0.830,-0.485
'0:08.808',-0.845,-0.495
'0:08.811',-0.880,-0.500
'0:08.814',-0.880,-0.495
'0:08.817',-0.880,-0.515
'0:08.819',-0.890,-0.505
'0:08.822',-0.890,-0.510
'0:08.825',-0.895,-0.495
'0:08.828',-0.900,-0.480
'0:08.831',-0.890,-0.490
'0:08.833',-0.870,-0.475
'0:08.836',-0.885,-0.475
'0:08.839',-0.870,-0.490
'0:08.842',-0.870,-0.485
'0:08.844',-0.890,-0.505
'0:08.847',-0.895,-0.525
'0:08.850',-0.905,-0.530
'0:08.853',-0.900,-0.535
'0:08.856',-0.910,-0.520
'0:08.858',-0.900,-0.540
'0:08.861',-0.910,-0.515
'0:08.864',-0.890,-0.505
'0:08.867',-0.880,-0.480
'0:08.869',-0.870,-0.500
'0:08.872',-0.880,-0.490
'0:08.875',-0.875,-0.500
'0:08.878',-0.890,-0.505
'0:08.881',-0.885,-0.510
'0:08.883',-0.915,-0.510
'0:08.886',-0.905,-0.520
'0:08.889',-0.925,-0.505
'0:08.892',-0.905,-0.505
'0:08.894',-0.880,-0.500
'0:08.897',-0.880,-0.490
'0:08.900',-0.885,-0.485
'0:08.903',-0.875,-0.480
'0:08.906',-0.880,-0.490
'0:08.908',-0.880,-0.490
'0:08.911',-0.890,-0.520
'0:08.914',-0.900,-0.515
'0:08.917',-0.910,-0.530
'0:08.919',-0.920,-0.535
'0:08.922',-0.920,-0.520
'0:08.925',-0.895,-0.510
'0:08.928',-0.890,-0.515
'0:08.931',-0.885,-0.510
'0:08.933',-0.875,-0.500
'0:08.936',-0.890,-0.485
'0:08.939',-0.890,-0.495
'0:08.942',-0.885,-0.505
'0:08.944',-0.880,-0.500
'0:08.947',-0.895,-0.515
'0:08.950',-0.885,-0.515
'0:08.953',-0.885,-0.490
'0:08.956',-0.895,-0.505
'0:08.958',-0.850,-0.495
'0:08.961',-0.830,-0.485
'0:08.964',-0.805,-0.475
'0:08.967',-0.780,-0.460
'0:08.969',-0.760,-0.435
'0:08.972',-0.750,-0.425
'0:08.975',-0.745,-0.430
'0:08.978',-0.725,-0.430
'0:08.981',-0.720,-0.445
'0:08.983',-0.720,-0.430
'0:08.986',-0.700,-0.435
'0:08.989',-0.690,-0.445
'0:08.992',-0.655,-0.400
'0:08.994',-0.590,-0.400
'0:08.997',-0.560,-0.405
'0:09.000',-0.520,-0.390
'0:09.003',-0.495,-0.410
'0:09.006',-0.515,-0.435
'0:09.008',-0.535,-0.455
'0:09.011',-0.565,-0.480
'0:09.014',-0.570,-0.510
'0:09.017',-0.565,-0.525
'0:09.019',-0.585,-0.535
'0:09.022',-0.575,-0.540
'0:09.025',-0.590,-0.530
'0:09.028',-0.595,-0.525
'0:09.031',-0.605,-0.520
'0:09.033',-0.650,-0.520
'0:09.036',-0.705,-0.530
'0:09.039',-0.755,-0.535
'0:09.042',-0.805,-0.525
'0:09.044',-0.860,-0.530
'0:09.047',-0.895,-0.560
'0:09.050',-0.890,-0.550
'0:09.053',-0.915,-0.570
'0:09.056',-0.900,-0.555
'0:09.058',-0.915,-0.575
'0:09.061',-0.890,-0.570
'0:09.064',-0.905,-0.565
'0:09.067',-0.890,-0.540
'0:09.069',-0.890,-0.540
'0:09.072',-0.910,-0.535
'0:09.075',-0.930,-0.560
'0:09.078',-0.945,-0.580
'0:09.081',-0.940,-0.590
'0:09.083',-0.945,-0.595
'0:09.086',-0.940,-0.595
'0:09.089',-0.945,-0.595
'0:09.092',-0.925,-0.585
'0:09.094',-0.925,-0.565
'0:09.097',-0.915,-0.565
'0:09.100',-0.910,-0.555
'0:09.103',-0.905,-0.540
'0:09.106',-0.910,-0.535
'0:09.108',-0.910,-0.555
'0:09.111',-0.900,-0.550
'0:09.114',-0.930,-0.590
'0:09.117',-0.930,-0.565
'0:09.119',-0.940,-0.555
'0:09.122',-0.970,-0.570
'0:09.125',-0.975,-0.525
'0:09.128',-0.975,-0.480
'0:09.131',-0.930,-0.410
'0:09.133',-0.850,-0.355
'0:09.136',-0.700,-0.320
'0:09.139',-0.500,-0.315
'0:09.142',-0.185,-0.365
'0:09.144',0.155,-0.495
'0:09.147',0.535,-0.670
'0:09.150',0.880,-0.885
'0:09.153',1.130,-1.125
'0:09.156',1.280,-1.350
'0:09.158',1.290,-1.530
'0:09.161',1.230,-1.625
'0:09.164',1.035,-1.640
'0:09.167',0.710,-1.595
'0:09.169',0.250,-1.545
'0:09.172',-0.285,-1.485
'0:09.175',-0.715,-1.410
'0:09.178',-0.990,-1.335
'0:09.181',-1.070,-1.240
'0:09.183',-0.975,-1.145
'0:09.186',-0.855,-1.050
'0:09.189',-0.720,-0.965
'0:09.192',-0.665,-0.860
'0:09.194',-0.670,-0.780
'0:09.197',-0.710,-0.700
'0:09.200',-0.770,-0.645
'0:09.203',-0.825,-0.605
'0:09.206',-0.870,-0.580
'0:09.208',-0.890,-0.550
'0:09.211',-0.905,-0.555
'0:09.214',-0.915,-0.570
'0:09.217',-0.920,-0.555
'0:09.219',-0.900,-0.555
'0:09.222',-0.915,-0.535
'0:09.225',-0.920,-0.535
'0:09.228',-0.910,-0.525
'0:09.231',-0.895,-0.505
'0:09.233',-0.895,-0.490
'0:09.236',-0.900,-0.505
'0:09.239',-0.915,-0.510
'0:09.242',-0.920,-0.480
'0:09.244',-0.935,-0.505
'0:09.247',-0.940,-0.510
'0:09.250',-0.935,-0.505
'0:09.253',-0.940,-0.510
'0:09.256',-0.950,-0.505
'0:09.258',-0.950,-0.485
'0:09.261',-0.930,-0.490
'0:09.264',-0.930,-0.480
'0:09.267',-0.905,-0.475
'0:09.269',-0.900,-0.460
'0:09.272',-0.905,-0.475
'0:09.275',-0.925,-0.480
'0:09.278',-0.920,-0.490
'0:09.281',-0.930,-0.500
'0:09.283',-0.945,-0.490
'0:09.286',-0.940,-0.505
'0:09.289',-0.940,-0.510
'0:09.292',-0.935,-0.505
'0:09.294',-0.915,-0.480
'0:09.297',-0.910,-0.475
'0:09.300',-0.910,-0.475
'0:09.303',-0.890,-0.475
'0:09.306',-0.895,-0.475
'0:09.308',-0.900,-0.485
'0:09.311',-0.920,-0.475
'0:09.314',-0.915,-0.490
'0:09.317',-0.925,-0.495
'0:09.319',-0.920,-0.495
'0:09.322',-0.930,-0.485
'0:09.325',-0.940,-0.495
'0:09.328',-0.900,-0.465
'0:09.331',-0.880,-0.465
'0:09.333',-0.865,-0.455
'0:09.336',-0.860,-0.465
'0:09.339',-0.855,-0.450
'0:09.342',-0.855,-0.465
'0:09.344',-0.855,-0.485
'0:09.347',-0.850,-0.480
'0:09.350',-0.860,-0.510
'0:09.353',-0.845,-0.495
'0:09.356',-0.865,-0.500
'0:09.358',-0.840,-0.490
'0:09.361',-0.815,-0.490
'0:09.364',-0.820,-0.460
'0:09.367',-0.800,-0.480
'0:09.369',-0.775,-0.455
'0:09.372',-0.775,-0.470
'0:09.375',-0.755,-0.455
'0:09.378',-0.765,-0.470
'0:09.381',-0.735,-0.475
'0:09.383',-0.740,-0.470
'0:09.386',-0.730,-0.475
'0:09.389',-0.710,-0.475
'0:09.392',-0.705,-0.465
'0:09.394',-0.670,-0.450
'0:09.397',-0.665,-0.445
'0:09.400',-0.620,-0.430
'0:09.403',-0.595,-0.435
'0:09.406',-0.565,-0.440
'0:09.408',-0.560,-0.460
'0:09.411',-0.540,-0.455
'0:09.414',-0.535,-0.465
'0:09.417',-0.535,-0.485
'0:09.419',-0.515,-0.490
'0:09.422',-0.500,-0.465
'0:09.425',-0.475,-0.455
'0:09.428',-0.445,-0.445
'0:09.431',-0.410,-0.430
'0:09.433',-0.380,-0.415
'0:09.436',-0.360,-0.425
'0:09.439',-0.350,-0.410
'0:09.442',-0.330,-0.415
'0:09.444',-0.345,-0.430
'0:09.447',-0.335,-0.450
'0:09.450',-0.320,-0.460
'0:09.453',-0.330,-0.470
'0:09.456',-0.320,-0.475
'0:09.458',-0.325,-0.470
'0:09.461',-0.295,-0.480
'0:09.464',-0.310,-0.460
'0:09.467',-0.300,-0.450
'0:09.469',-0.310,-0.470
'0:09.472',-0.325,-0.465
'0:09.475',-0.345,-0.480
'0:09.478',-0.390,-0.495
'0:09.481',-0.405,-0.505
'0:09.483',-0.435,-0.495
'0:09.486',-0.455,-0.505
'0:09.489',-0.500,-0.490
'0:09.492',-0.515,-0.500
'0:09.494',-0.535,-0.475
'0:09.497',-0.565,-0.465
'0:09.500',-0.595,-0.465
'0:09.503',-0.610,-0.450
'0:09.506',-0.635,-0.460
'0:09.508',-0.670,-0.460
'0:09.511',-0.705,-0.490
'0:09.514',-0.725,-0.490
'0:09.517',-0.750,-0.500
'0:09.519',-0.775,-0.510
'0:09.522',-0.785,-0.515
'0:09.525',-0.795,-0.515
'0:09.528',-0.800,-0.485
'0:09.531',-0.810,-0.485
'0:09.533',-0.800,-0.475
'0:09.536',-0.820,-0.495
'0:09.539',-0.845,-0.505
'0:09.542',-0.840,-0.515
'0:09.544',-0.860,-0.515
'0:09.547',-0.885,-0.535
'0:09.550',-0.870,-0.530
'0:09.553',-0.865,-0.535
'0:09.556',-0.885,-0.525
'0:09.558',-0.880,-0.515
'0:09.561',-0.875,-0.505
'0:09.564',-0.855,-0.495
'0:09.567',-0.860,-0.480
'0:09.569',-0.850,-0.490
'0:09.572',-0.870,-0.495
'0:09.575',-0.860,-0.495
'0:09.578',-0.855,-0.515
'0:09.581',-0.865,-0.535
'0:09.583',-0.865,-0.515
'0:09.586',-0.910,-0.520
'0:09.589',-0.905,-0.530
'0:09.592',-0.895,-0.510
'0:09.594',-0.885,-0.510
'0:09.597',-0.850,-0.500
'0:09.600',-0.855,-0.505
'0:09.603',-0.840,-0.515
'0:09.606',-0.845,-0.495
'0:09.608',-0.830,-0.525
'0:09.611',-0.860,-0.510
'0:09.614',-0.860,-0.520
'0:09.617',-0.875,-0.535
'0:09.619',-0.870,-0.520
'0:09.622',-0.890,-0.555
'0:09.625',-0.875,-0.530
'0:09.628',-0.850,-0.510
'0:09.631',-0.850,-0.490
'0:09.633',-0.835,-0.490
'0:09.636',-0.830,-0.510
'0:09.639',-0.835,-0.500
'0:09.642',-0.840,-0.500
'0:09.644',-0.835,-0.525
'0:09.647',-0.845,-0.535
'0:09.650',-0.860,-0.545
'0:09.653',-0.860,-0.550
'0:09.656',-0.885,-0.550
'0:09.658',-0.865,-0.535
'0:09.661',-0.850,-0.530
'0:09.664',-0.845,-0.520
'0:09.667',-0.845,-0.530
'0:09.669',-0.830,-0.530
'0:09.672',-0.830,-0.515
'0:09.675',-0.840,-0.515
'0:09.678',-0.845,-0.545
'0:09.681',-0.855,-0.535
'0:09.683',-0.865,-0.550
'0:09.686',-0.865,-0.550
'0:09.689',-0.875,-0.540
'0:09.692',-0.870,-0.530
'0:09.694',-0.860,-0.540
'0:09.697',-0.840,-0.530
'0:09.700',-0.840,-0.515
'0:09.703',-0.840,-0.515
'0:09.706',-0.840,-0.525
'0:09.708',-0.860,-0.540
'0:09.711',-0.880,-0.535
'0:09.714',-0.895,-0.550
'0:09.717',-0.895,-0.565
'0:09.719',-0.890,-0.570
'0:09.722',-0.895,-0.575
'0:09.725',-0.900,-0.570
'0:09.728',-0.890,-0.555
'0:09.731',-0.875,-0.540
'0:09.733',-0.865,-0.550
'0:09.736',-0.865,-0.530
'0:09.739',-0.870,-0.540
'0:09.742',-0.895,-0.535
'0:09.744',-0.890,-0.555
'0:09.747',-0.905,-0.570
'0:09.750',-0.905,-0.570
'0:09.753',-0.910,-0.550
'0:09.756',-0.915,-0.550
'0:09.758',-0.905,-0.555
'0:09.761',-0.890,-0.545
'0:09.764',-0.885,-0.540
'0:09.767',-0.875,-0.515
'0:09.769',-0.875,-0.510
'0:09.772',-0.875,-0.530
'0:09.775',-0.905,-0.550
'0:09.778',-0.885,-0.555
'0:09.781',-0.895,-0.565
'0:09.783',-0.910,-0.565
'0:09.786',-0.905,-0.570
'0:09.789',-0.910,-0.580
'0:09.792',-0.910,-0.580
'0:09.794',-0.880,-0.555
'0:09.797',-0.875,-0.545
'0:09.800',-0.880,-0.545
'0:09.803',-0.890,-0.520
'0:09.806',-0.890,-0.535
'0:09.808',-0.910,-0.535
'0:09.811',-0.910,-0.545
'0:09.814',-0.920,-0.550
'0:09.817',-0.905,-0.565
'0:09.819',-0.920,-0.560
'0:09.822',-0.915,-0.580
'0:09.825',-0.915,-0.555
'0:09.828',-0.905,-0.550
'0:09.831',-0.890,-0.540
'0:09.833',-0.875,-0.535
'0:09.836',-0.855,-0.525
'0:09.839',-0.845,-0.525
'0:09.842',-0.835,-0.525
'0:09.844',-0.825,-0.520
'0:09.847',-0.820,-0.515
'0:09.850',-0.815,-0.510
'0:09.853',-0.800,-0.520
'0:09.856',-0.795,-0.505
'0:09.858',-0.770,-0.475
'0:09.861',-0.755,-0.465
'0:09.864',-0.725,-0.440
'0:09.867',-0.715,-0.430
'0:09.869',-0.665,-0.410
'0:09.872',-0.630,-0.410
'0:09.875',-0.585,-0.425
'0:09.878',-0.585,-0.445
'0:09.881',-0.560,-0.470
'0:09.883',-0.570,-0.495
'0:09.886',-0.585,-0.530
'0:09.889',-0.590,-0.545
'0:09.892',-0.590,-0.560
'0:09.894',-0.580,-0.550
'0:09.897',-0.565,-0.565
'0:09.900',-0.575,-0.565
'0:09.903',-0.590,-0.550
'0:09.906',-0.630,-0.585
'0:09.908',-0.695,-0.600
'0:09.911',-0.755,-0.590
'0:09.914',-0.815,-0.600
'0:09.917',-0.875,-0.585
'0:09.919',-0.905,-0.585
'0:09.922',-0.940,-0.590
'0:09.925',-0.950,-0.595
'0:09.928',-0.935,-0.575
'0:09.931',-0.920,-0.555
'0:09.933',-0.930,-0.560
'0:09.936',-0.910,-0.565
'0:09.939',-0.920,-0.580
'0:09.942',-0.930,-0.585
'0:09.944',-0.930,-0.595
'0:09.947',-0.960,-0.605
'0:09.950',-0.955,-0.620
'0:09.953',-0.975,-0.630
'0:09.956',-0.980,-0.615
'0:09.958',-0.960,-0.605
'0:09.961',-0.950,-0.595
'0:09.964',-0.945,-0.580
'0:09.967',-0.945,-0.590
'0:09.969',-0.935,-0.585
'0:09.972',-0.935,-0.600
'0:09.975',-0.940,-0.605
'0:09.978',-0.960,-0.585
'0:09.981',-0.970,-0.620
'0:09.983',-0.960,-0.615
'0:09.986',-0.970,-0.600
'0:09.989',-0.970,-0.625
'0:09.992',-0.985,-0.610
'0:09.994',-0.975,-0.580
'0:09.997',-0.970,-0.595
