'Elapsed time','MLII','V1'
'hh:mm:ss.mmm','mV','mV'
'0:00.000',-0.875,-0.650
'0:00.003',-0.875,-0.650
'0:00.006',-0.875,-0.650
'0:00.008',-0.875,-0.650
'0:00.011',-0.875,-0.650
'0:00.014',-0.875,-0.650
'0:00.017',-0.875,-0.650
'0:00.019',-0.860,-0.650
'0:00.022',-0.850,-0.650
'0:00.025',-0.840,-0.665
'0:00.028',-0.840,-0.665
'0:00.031',-0.825,-0.660
'0:00.033',-0.830,-0.675
'0:00.036',-0.835,-0.680
'0:00.039',-0.845,-0.685
'0:00.042',-0.855,-0.680
'0:00.044',-0.850,-0.680
'0:00.047',-0.855,-0.675
'0:00.050',-0.850,-0.670
'0:00.053',-0.835,-0.660
'0:00.056',-0.825,-0.650
'0:00.058',-0.825,-0.650
'0:00.061',-0.840,-0.650
'0:00.064',-0.840,-0.670
'0:00.067',-0.825,-0.675
'0:00.069',-0.825,-0.680
'0:00.072',-0.830,-0.705
'0:00.075',-0.825,-0.695
'0:00.078',-0.835,-0.695
'0:00.081',-0.830,-0.675
'0:00.083',-0.835,-0.665
'0:00.086',-0.830,-0.655
'0:00.089',-0.820,-0.650
'0:00.092',-0.805,-0.660
'0:00.094',-0.805,-0.670
'0:00.097',-0.805,-0.670
'0:00.100',-0.810,-0.685
'0:00.103',-0.815,-0.685
'0:00.106',-0.820,-0.695
'0:00.108',-0.830,-0.700
'0:00.111',-0.830,-0.685
'0:00.114',-0.825,-0.685
'0:00.117',-0.840,-0.670
'0:00.119',-0.825,-0.665
'0:00.122',-0.800,-0.655
'0:00.125',-0.795,-0.660
'0:00.128',-0.795,-0.665
'0:00.131',-0.800,-0.675
'0:00.133',-0.805,-0.675
'0:00.136',-0.805,-0.680
'0:00.139',-0.805,-0.680
'0:00.142',-0.810,-0.690
'0:00.144',-0.810,-0.675
'0:00.147',-0.815,-0.675
'0:00.150',-0.815,-0.670
'0:00.153',-0.805,-0.665
'0:00.156',-0.800,-0.660
'0:00.158',-0.790,-0.660
'0:00.161',-0.800,-0.665
'0:00.164',-0.800,-0.680
'0:00.167',-0.805,-0.685
'0:00.169',-0.820,-0.680
'0:00.172',-0.825,-0.690
'0:00.175',-0.825,-0.695
'0:00.178',-0.820,-0.685
'0:00.181',-0.815,-0.680
'0:00.183',-0.805,-0.665
'0:00.186',-0.800,-0.660
'0:00.189',-0.795,-0.675
'0:00.192',-0.800,-0.665
'0:00.194',-0.785,-0.680
'0:00.197',-0.800,-0.670
'0:00.200',-0.795,-0.685
'0:00.203',-0.800,-0.690
'0:00.206',-0.810,-0.695
'0:00.208',-0.810,-0.695
'0:00.211',-0.810,-0.685
'0:00.214',-0.815,-0.685
'0:00.217',-0.815,-0.665
'0:00.219',-0.800,-0.670
'0:00.222',-0.785,-0.655
'0:00.225',-0.790,-0.665
'0:00.228',-0.780,-0.670
'0:00.231',-0.795,-0.670
'0:00.233',-0.795,-0.680
'0:00.236',-0.795,-0.690
'0:00.239',-0.800,-0.700
'0:00.242',-0.805,-0.695
'0:00.244',-0.815,-0.695
'0:00.247',-0.805,-0.690
'0:00.250',-0.800,-0.670
'0:00.253',-0.790,-0.675
'0:00.256',-0.795,-0.670
'0:00.258',-0.790,-0.660
'0:00.261',-0.785,-0.670
'0:00.264',-0.780,-0.665
'0:00.267',-0.770,-0.670
'0:00.269',-0.775,-0.675
'0:00.272',-0.785,-0.665
'0:00.275',-0.795,-0.670
'0:00.278',-0.795,-0.660
'0:00.281',-0.775,-0.665
'0:00.283',-0.775,-0.655
'0:00.286',-0.755,-0.665
'0:00.289',-0.750,-0.660
'0:00.292',-0.740,-0.680
'0:00.294',-0.740,-0.700
'0:00.297',-0.740,-0.715
'0:00.300',-0.745,-0.755
'0:00.303',-0.750,-0.775
'0:00.306',-0.740,-0.790
'0:00.308',-0.745,-0.795
'0:00.311',-0.750,-0.775
'0:00.314',-0.745,-0.760
'0:00.317',-0.745,-0.745
'0:00.319',-0.735,-0.730
'0:00.322',-0.730,-0.725
'0:00.325',-0.720,-0.725
'0:00.328',-0.730,-0.740
'0:00.331',-0.720,-0.740
'0:00.333',-0.730,-0.740
'0:00.336',-0.715,-0.745
'0:00.339',-0.720,-0.740
'0:00.342',-0.740,-0.725
'0:00.344',-0.755,-0.710
'0:00.347',-0.735,-0.690
'0:00.350',-0.735,-0.675
'0:00.353',-0.735,-0.670
'0:00.356',-0.735,-0.655
'0:00.358',-0.730,-0.660
'0:00.361',-0.735,-0.670
'0:00.364',-0.750,-0.670
'0:00.367',-0.755,-0.690
'0:00.369',-0.770,-0.680
'0:00.372',-0.780,-0.685
'0:00.375',-0.795,-0.700
'0:00.378',-0.800,-0.695
'0:00.381',-0.800,-0.685
'0:00.383',-0.790,-0.685
'0:00.386',-0.770,-0.670
'0:00.389',-0.775,-0.665
'0:00.392',-0.770,-0.670
'0:00.394',-0.765,-0.665
'0:00.397',-0.755,-0.660
'0:00.400',-0.765,-0.660
'0:00.403',-0.765,-0.650
'0:00.406',-0.775,-0.640
'0:00.408',-0.750,-0.655
'0:00.411',-0.745,-0.670
'0:00.414',-0.720,-0.725
'0:00.417',-0.705,-0.810
'0:00.419',-0.655,-0.935
'0:00.422',-0.590,-1.105
'0:00.425',-0.505,-1.285
'0:00.428',-0.400,-1.500
'0:00.431',-0.290,-1.680
'0:00.433',-0.165,-1.810
'0:00.436',-0.050,-1.875
'0:00.439',0.045,-1.855
'0:00.442',0.115,-1.745
'0:00.444',0.155,-1.595
'0:00.447',0.195,-1.425
'0:00.450',0.210,-1.255
'0:00.453',0.265,-1.150
'0:00.456',0.285,-1.035
'0:00.458',0.295,-0.950
'0:00.461',0.245,-0.885
'0:00.464',0.180,-0.820
'0:00.467',0.105,-0.760
'0:00.469',0.015,-0.715
'0:00.472',-0.080,-0.695
'0:00.475',-0.180,-0.675
'0:00.478',-0.280,-0.670
'0:00.481',-0.370,-0.660
'0:00.483',-0.445,-0.640
'0:00.486',-0.515,-0.630
'0:00.489',-0.545,-0.625
'0:00.492',-0.590,-0.625
'0:00.494',-0.650,-0.620
'0:00.497',-0.665,-0.605
'0:00.500',-0.685,-0.620
'0:00.503',-0.715,-0.630
'0:00.506',-0.725,-0.630
'0:00.508',-0.715,-0.640
'0:00.511',-0.720,-0.625
'0:00.514',-0.720,-0.615
'0:00.517',-0.710,-0.610
'0:00.519',-0.715,-0.600
'0:00.522',-0.695,-0.590
'0:00.525',-0.690,-0.590
'0:00.528',-0.690,-0.605
'0:00.531',-0.690,-0.605
'0:00.533',-0.680,-0.605
'0:00.536',-0.685,-0.610
'0:00.539',-0.695,-0.620
'0:00.542',-0.705,-0.620
'0:00.544',-0.700,-0.615
'0:00.547',-0.700,-0.600
'0:00.550',-0.695,-0.610
'0:00.553',-0.685,-0.595
'0:00.556',-0.680,-0.590
'0:00.558',-0.665,-0.585
'0:00.561',-0.665,-0.585
'0:00.564',-0.660,-0.600
'0:00.567',-0.665,-0.605
'0:00.569',-0.665,-0.605
'0:00.572',-0.670,-0.625
'0:00.575',-0.670,-0.620
'0:00.578',-0.670,-0.615
'0:00.581',-0.680,-0.605
'0:00.583',-0.655,-0.595
'0:00.586',-0.655,-0.605
'0:00.589',-0.655,-0.580
'0:00.592',-0.640,-0.580
'0:00.594',-0.645,-0.595
'0:00.597',-0.640,-0.605
'0:00.600',-0.640,-0.610
'0:00.603',-0.655,-0.620
'0:00.606',-0.655,-0.615
'0:00.608',-0.670,-0.625
'0:00.611',-0.680,-0.620
'0:00.614',-0.670,-0.620
'0:00.617',-0.675,-0.605
'0:00.619',-0.655,-0.605
'0:00.622',-0.665,-0.595
'0:00.625',-0.650,-0.595
'0:00.628',-0.640,-0.600
'0:00.631',-0.635,-0.600
'0:00.633',-0.640,-0.605
'0:00.636',-0.650,-0.620
'0:00.639',-0.655,-0.615
'0:00.642',-0.640,-0.625
'0:00.644',-0.650,-0.625
'0:00.647',-0.655,-0.615
'0:00.650',-0.640,-0.610
'0:00.653',-0.635,-0.600
'0:00.656',-0.625,-0.600
'0:00.658',-0.615,-0.605
'0:00.661',-0.620,-0.610
'0:00.664',-0.620,-0.600
'0:00.667',-0.615,-0.615
'0:00.669',-0.625,-0.620
'0:00.672',-0.625,-0.630
'0:00.675',-0.625,-0.625
'0:00.678',-0.630,-0.620
'0:00.681',-0.630,-0.630
'0:00.683',-0.610,-0.610
'0:00.686',-0.595,-0.610
'0:00.689',-0.585,-0.595
'0:00.692',-0.575,-0.595
'0:00.694',-0.580,-0.595
'0:00.697',-0.570,-0.600
'0:00.700',-0.580,-0.620
'0:00.703',-0.570,-0.625
'0:00.706',-0.580,-0.640
'0:00.708',-0.580,-0.635
'0:00.711',-0.585,-0.640
'0:00.714',-0.590,-0.620
'0:00.717',-0.580,-0.620
'0:00.719',-0.580,-0.620
'0:00.722',-0.570,-0.625
'0:00.725',-0.565,-0.620
'0:00.728',-0.575,-0.620
'0:00.731',-0.575,-0.625
'0:00.733',-0.575,-0.635
'0:00.736',-0.590,-0.635
'0:00.739',-0.600,-0.650
'0:00.742',-0.615,-0.660
'0:00.744',-0.615,-0.650
'0:00.747',-0.605,-0.655
'0:00.750',-0.625,-0.645
'0:00.753',-0.605,-0.630
'0:00.756',-0.615,-0.630
'0:00.758',-0.615,-0.620
'0:00.761',-0.620,-0.635
'0:00.764',-0.630,-0.645
'0:00.767',-0.640,-0.645
'0:00.769',-0.645,-0.655
'0:00.772',-0.670,-0.660
'0:00.775',-0.685,-0.675
'0:00.778',-0.690,-0.660
'0:00.781',-0.695,-0.665
'0:00.783',-0.710,-0.650
'0:00.786',-0.715,-0.645
'0:00.789',-0.725,-0.640
'0:00.792',-0.735,-0.640
'0:00.794',-0.725,-0.640
'0:00.797',-0.745,-0.640
'0:00.800',-0.755,-0.660
'0:00.803',-0.755,-0.660
'0:00.806',-0.760,-0.675
'0:00.808',-0.775,-0.675
'0:00.811',-0.785,-0.675
'0:00.814',-0.780,-0.675
'0:00.817',-0.780,-0.665
'0:00.819',-0.765,-0.660
'0:00.822',-0.765,-0.650
'0:00.825',-0.755,-0.645
'0:00.828',-0.760,-0.645
'0:00.831',-0.755,-0.650
'0:00.833',-0.770,-0.660
'0:00.836',-0.775,-0.670
'0:00.839',-0.790,-0.675
'0:00.842',-0.790,-0.675
'0:00.844',-0.790,-0.670
'0:00.847',-0.790,-0.660
'0:00.850',-0.780,-0.650
'0:00.853',-0.775,-0.650
'0:00.856',-0.780,-0.645
'0:00.858',-0.765,-0.640
'0:00.861',-0.765,-0.645
'0:00.864',-0.765,-0.655
'0:00.867',-0.770,-0.670
'0:00.869',-0.795,-0.660
'0:00.872',-0.790,-0.665
'0:00.875',-0.795,-0.670
'0:00.878',-0.800,-0.670
'0:00.881',-0.800,-0.655
'0:00.883',-0.795,-0.645
'0:00.886',-0.790,-0.645
'0:00.889',-0.795,-0.640
'0:00.892',-0.790,-0.625
'0:00.894',-0.800,-0.640
'0:00.897',-0.800,-0.650
'0:00.900',-0.805,-0.660
'0:00.903',-0.805,-0.665
'0:00.906',-0.820,-0.660
'0:00.908',-0.825,-0.675
'0:00.911',-0.840,-0.670
'0:00.914',-0.835,-0.665
'0:00.917',-0.830,-0.660
'0:00.919',-0.825,-0.650
'0:00.922',-0.825,-0.635
'0:00.925',-0.820,-0.630
'0:00.928',-0.825,-0.645
'0:00.931',-0.830,-0.655
'0:00.933',-0.830,-0.665
'0:00.936',-0.835,-0.655
'0:00.939',-0.840,-0.670
'0:00.942',-0.850,-0.680
'0:00.944',-0.855,-0.670
'0:00.947',-0.855,-0.675
'0:00.950',-0.845,-0.660
'0:00.953',-0.845,-0.655
'0:00.956',-0.850,-0.660
'0:00.958',-0.830,-0.650
'0:00.961',-0.830,-0.655
'0:00.964',-0.840,-0.665
'0:00.967',-0.835,-0.670
'0:00.969',-0.850,-0.675
'0:00.972',-0.860,-0.695
'0:00.975',-0.855,-0.685
'0:00.978',-0.865,-0.690
'0:00.981',-0.870,-0.675
'0:00.983',-0.855,-0.680
'0:00.986',-0.855,-0.665
'0:00.989',-0.845,-0.660
'0:00.992',-0.850,-0.660
'0:00.994',-0.855,-0.670
'0:00.997',-0.850,-0.675
'0:01.000',-0.860,-0.675
'0:01.003',-0.840,-0.680
'0:01.006',-0.860,-0.690
'0:01.008',-0.865,-0.700
'0:01.011',-0.865,-0.695
'0:01.014',-0.870,-0.685
'0:01.017',-0.855,-0.675
'0:01.019',-0.840,-0.665
'0:01.022',-0.840,-0.670
'0:01.025',-0.835,-0.660
'0:01.028',-0.840,-0.665
'0:01.031',-0.840,-0.680
'0:01.033',-0.840,-0.690
'0:01.036',-0.835,-0.685
'0:01.039',-0.855,-0.690
'0:01.042',-0.860,-0.695
'0:01.044',-0.850,-0.700
'0:01.047',-0.855,-0.690
'0:01.050',-0.840,-0.685
'0:01.053',-0.835,-0.670
'0:01.056',-0.830,-0.670
'0:01.058',-0.820,-0.665
'0:01.061',-0.825,-0.670
'0:01.064',-0.830,-0.675
'0:01.067',-0.835,-0.685
'0:01.069',-0.835,-0.700
'0:01.072',-0.830,-0.700
'0:01.075',-0.850,-0.695
'0:01.078',-0.865,-0.705
'0:01.081',-0.850,-0.700
'0:01.083',-0.840,-0.685
'0:01.086',-0.835,-0.695
'0:01.089',-0.820,-0.675
'0:01.092',-0.815,-0.680
'0:01.094',-0.815,-0.690
'0:01.097',-0.805,-0.685
'0:01.100',-0.820,-0.695
'0:01.103',-0.825,-0.705
'0:01.106',-0.825,-0.710
'0:01.108',-0.830,-0.710
'0:01.111',-0.830,-0.705
'0:01.114',-0.825,-0.705
'0:01.117',-0.825,-0.685
'0:01.119',-0.820,-0.675
'0:01.122',-0.820,-0.680
'0:01.125',-0.815,-0.670
'0:01.128',-0.805,-0.675
'0:01.131',-0.805,-0.680
'0:01.133',-0.815,-0.695
'0:01.136',-0.825,-0.705
'0:01.139',-0.835,-0.705
'0:01.142',-0.840,-0.705
'0:01.144',-0.840,-0.715
'0:01.147',-0.835,-0.700
'0:01.150',-0.835,-0.685
'0:01.153',-0.830,-0.680
'0:01.156',-0.825,-0.680
'0:01.158',-0.815,-0.680
'0:01.161',-0.810,-0.675
'0:01.164',-0.805,-0.690
'0:01.167',-0.820,-0.690
'0:01.169',-0.825,-0.695
'0:01.172',-0.830,-0.715
'0:01.175',-0.825,-0.705
'0:01.178',-0.830,-0.715
'0:01.181',-0.825,-0.705
'0:01.183',-0.825,-0.690
'0:01.186',-0.815,-0.690
'0:01.189',-0.815,-0.680
'0:01.192',-0.790,-0.675
'0:01.194',-0.800,-0.680
'0:01.197',-0.810,-0.680
'0:01.200',-0.815,-0.685
'0:01.203',-0.805,-0.695
'0:01.206',-0.820,-0.705
'0:01.208',-0.815,-0.710
'0:01.211',-0.825,-0.705
'0:01.214',-0.825,-0.700
'0:01.217',-0.825,-0.700
'0:01.219',-0.815,-0.675
'0:01.222',-0.800,-0.675
'0:01.225',-0.800,-0.675
'0:01.228',-0.810,-0.685
'0:01.231',-0.805,-0.695
'0:01.233',-0.810,-0.690
'0:01.236',-0.820,-0.695
'0:01.239',-0.815,-0.695
'0:01.242',-0.810,-0.700
'0:01.244',-0.800,-0.685
'0:01.247',-0.795,-0.680
'0:01.250',-0.790,-0.670
'0:01.253',-0.770,-0.670
'0:01.256',-0.760,-0.685
'0:01.258',-0.745,-0.685
'0:01.261',-0.745,-0.700
'0:01.264',-0.750,-0.720
'0:01.267',-0.755,-0.750
'0:01.269',-0.770,-0.770
'0:01.272',-0.780,-0.775
'0:01.275',-0.785,-0.800
'0:01.278',-0.775,-0.800
'0:01.281',-0.760,-0.785
'0:01.283',-0.760,-0.770
'0:01.286',-0.755,-0.750
'0:01.289',-0.740,-0.740
'0:01.292',-0.735,-0.745
'0:01.294',-0.745,-0.745
'0:01.297',-0.750,-0.755
'0:01.300',-0.750,-0.760
'0:01.303',-0.755,-0.760
'0:01.306',-0.760,-0.760
'0:01.308',-0.755,-0.765
'0:01.311',-0.750,-0.745
'0:01.314',-0.765,-0.730
'0:01.317',-0.765,-0.705
'0:01.319',-0.760,-0.690
'0:01.322',-0.760,-0.675
'0:01.325',-0.760,-0.665
'0:01.328',-0.775,-0.680
'0:01.331',-0.780,-0.680
'0:01.333',-0.785,-0.705
'0:01.336',-0.800,-0.720
'0:01.339',-0.805,-0.715
'0:01.342',-0.815,-0.715
'0:01.344',-0.810,-0.725
'0:01.347',-0.820,-0.715
'0:01.350',-0.810,-0.695
'0:01.353',-0.800,-0.695
'0:01.356',-0.805,-0.690
'0:01.358',-0.785,-0.695
'0:01.361',-0.790,-0.700
'0:01.364',-0.785,-0.690
'0:01.367',-0.800,-0.685
'0:01.369',-0.800,-0.695
'0:01.372',-0.800,-0.685
'0:01.375',-0.800,-0.670
'0:01.378',-0.805,-0.675
'0:01.381',-0.790,-0.665
'0:01.383',-0.780,-0.680
'0:01.386',-0.760,-0.710
'0:01.389',-0.730,-0.770
'0:01.392',-0.700,-0.890
'0:01.394',-0.655,-1.055
'0:01.397',-0.605,-1.250
'0:01.400',-0.495,-1.470
'0:01.403',-0.380,-1.695
'0:01.406',-0.260,-1.855
'0:01.408',-0.155,-1.955
'0:01.411',-0.060,-1.930
'0:01.414',0.015,-1.815
'0:01.417',0.055,-1.645
'0:01.419',0.095,-1.450
'0:01.422',0.140,-1.270
'0:01.425',0.180,-1.125
'0:01.428',0.200,-1.020
'0:01.431',0.180,-0.935
'0:01.433',0.135,-0.865
'0:01.436',0.070,-0.810
'0:01.439',-0.010,-0.750
'0:01.442',-0.105,-0.725
'0:01.444',-0.225,-0.705
'0:01.447',-0.315,-0.690
'0:01.450',-0.405,-0.665
'0:01.453',-0.500,-0.660
'0:01.456',-0.560,-0.655
'0:01.458',-0.615,-0.635
'0:01.461',-0.640,-0.625
'0:01.464',-0.685,-0.635
'0:01.467',-0.720,-0.625
'0:01.469',-0.745,-0.640
'0:01.472',-0.760,-0.640
'0:01.475',-0.770,-0.640
'0:01.478',-0.780,-0.645
'0:01.481',-0.780,-0.635
'0:01.483',-0.770,-0.610
'0:01.486',-0.760,-0.615
'0:01.489',-0.750,-0.600
'0:01.492',-0.735,-0.605
'0:01.494',-0.725,-0.605
'0:01.497',-0.735,-0.610
'0:01.500',-0.745,-0.620
'0:01.503',-0.750,-0.620
'0:01.506',-0.750,-0.625
'0:01.508',-0.755,-0.620
'0:01.511',-0.750,-0.625
'0:01.514',-0.750,-0.615
'0:01.517',-0.760,-0.610
'0:01.519',-0.740,-0.605
'0:01.522',-0.740,-0.590
'0:01.525',-0.720,-0.585
'0:01.528',-0.710,-0.600
'0:01.531',-0.710,-0.600
'0:01.533',-0.725,-0.605
'0:01.536',-0.725,-0.615
'0:01.539',-0.730,-0.620
'0:01.542',-0.725,-0.625
'0:01.544',-0.745,-0.625
'0:01.547',-0.725,-0.625
'0:01.550',-0.745,-0.605
'0:01.553',-0.720,-0.600
'0:01.556',-0.715,-0.590
'0:01.558',-0.700,-0.580
'0:01.561',-0.695,-0.580
'0:01.564',-0.695,-0.590
'0:01.567',-0.705,-0.605
'0:01.569',-0.715,-0.600
'0:01.572',-0.715,-0.620
'0:01.575',-0.710,-0.625
'0:01.578',-0.720,-0.620
'0:01.581',-0.720,-0.625
'0:01.583',-0.715,-0.610
'0:01.586',-0.715,-0.600
'0:01.589',-0.700,-0.595
'0:01.592',-0.680,-0.590
'0:01.594',-0.690,-0.600
'0:01.597',-0.695,-0.605
'0:01.600',-0.680,-0.600
'0:01.603',-0.685,-0.615
'0:01.606',-0.700,-0.610
'0:01.608',-0.705,-0.625
'0:01.611',-0.695,-0.620
'0:01.614',-0.690,-0.615
'0:01.617',-0.685,-0.600
'0:01.619',-0.680,-0.590
'0:01.622',-0.675,-0.580
'0:01.625',-0.650,-0.585
'0:01.628',-0.655,-0.595
'0:01.631',-0.655,-0.590
'0:01.633',-0.675,-0.595
'0:01.636',-0.660,-0.615
'0:01.639',-0.660,-0.620
'0:01.642',-0.660,-0.625
'0:01.644',-0.655,-0.630
'0:01.647',-0.665,-0.610
'0:01.650',-0.660,-0.600
'0:01.653',-0.645,-0.595
'0:01.656',-0.635,-0.590
'0:01.658',-0.635,-0.590
'0:01.661',-0.635,-0.585
'0:01.664',-0.620,-0.595
'0:01.667',-0.625,-0.615
'0:01.669',-0.625,-0.620
'0:01.672',-0.635,-0.615
'0:01.675',-0.635,-0.640
'0:01.678',-0.645,-0.630
'0:01.681',-0.650,-0.630
'0:01.683',-0.645,-0.615
'0:01.686',-0.630,-0.615
'0:01.689',-0.620,-0.610
'0:01.692',-0.615,-0.610
'0:01.694',-0.635,-0.610
'0:01.697',-0.640,-0.625
'0:01.700',-0.640,-0.630
'0:01.703',-0.645,-0.650
'0:01.706',-0.660,-0.650
'0:01.708',-0.680,-0.660
'0:01.711',-0.675,-0.650
'0:01.714',-0.675,-0.660
'0:01.717',-0.685,-0.645
'0:01.719',-0.690,-0.650
'0:01.722',-0.690,-0.640
'0:01.725',-0.685,-0.655
'0:01.728',-0.690,-0.650
'0:01.731',-0.680,-0.650
'0:01.733',-0.710,-0.670
'0:01.736',-0.720,-0.665
'0:01.739',-0.715,-0.670
'0:01.742',-0.750,-0.690
'0:01.744',-0.765,-0.690
'0:01.747',-0.760,-0.675
'0:01.750',-0.765,-0.680
'0:01.753',-0.775,-0.680
'0:01.756',-0.780,-0.660
'0:01.758',-0.785,-0.655
'0:01.761',-0.785,-0.660
'0:01.764',-0.780,-0.665
'0:01.767',-0.785,-0.680
'0:01.769',-0.795,-0.685
'0:01.772',-0.820,-0.685
'0:01.775',-0.825,-0.695
'0:01.778',-0.825,-0.690
'0:01.781',-0.835,-0.675
'0:01.783',-0.835,-0.675
'0:01.786',-0.825,-0.675
'0:01.789',-0.825,-0.665
'0:01.792',-0.815,-0.660
'0:01.794',-0.815,-0.670
'0:01.797',-0.815,-0.660
'0:01.800',-0.810,-0.675
'0:01.803',-0.840,-0.680
'0:01.806',-0.850,-0.685
'0:01.808',-0.845,-0.685
'0:01.811',-0.850,-0.680
'0:01.814',-0.855,-0.680
'0:01.817',-0.850,-0.665
'0:01.819',-0.845,-0.665
'0:01.822',-0.845,-0.650
'0:01.825',-0.825,-0.650
'0:01.828',-0.825,-0.650
'0:01.831',-0.820,-0.655
'0:01.833',-0.820,-0.660
'0:01.836',-0.845,-0.660
'0:01.839',-0.850,-0.660
'0:01.842',-0.850,-0.665
'0:01.844',-0.870,-0.655
'0:01.847',-0.870,-0.645
'0:01.850',-0.865,-0.625
'0:01.853',-0.860,-0.620
'0:01.856',-0.860,-0.610
'0:01.858',-0.840,-0.625
'0:01.861',-0.845,-0.635
'0:01.864',-0.845,-0.660
'0:01.867',-0.850,-0.660
'0:01.869',-0.855,-0.680
'0:01.872',-0.865,-0.655
'0:01.875',-0.870,-0.660
'0:01.878',-0.875,-0.655
'0:01.881',-0.875,-0.655
'0:01.883',-0.880,-0.660
'0:01.886',-0.875,-0.640
'0:01.889',-0.870,-0.640
'0:01.892',-0.860,-0.635
'0:01.894',-0.860,-0.635
'0:01.897',-0.870,-0.620
'0:01.900',-0.860,-0.640
'0:01.903',-0.875,-0.630
'0:01.906',-0.885,-0.630
'0:01.908',-0.890,-0.645
'0:01.911',-0.895,-0.650
'0:01.914',-0.900,-0.650
'0:01.917',-0.890,-0.645
'0:01.919',-0.895,-0.635
'0:01.922',-0.885,-0.620
'0:01.925',-0.875,-0.605
'0:01.928',-0.885,-0.605
'0:01.931',-0.875,-0.620
'0:01.933',-0.885,-0.645
'0:01.936',-0.895,-0.665
'0:01.939',-0.895,-0.685
'0:01.942',-0.900,-0.700
'0:01.944',-0.905,-0.700
'0:01.947',-0.900,-0.700
'0:01.950',-0.895,-0.670
'0:01.953',-0.895,-0.655
'0:01.956',-0.875,-0.645
'0:01.958',-0.875,-0.630
'0:01.961',-0.875,-0.625
'0:01.964',-0.865,-0.620
'0:01.967',-0.870,-0.615
'0:01.969',-0.870,-0.610
'0:01.972',-0.880,-0.625
'0:01.975',-0.890,-0.640
'0:01.978',-0.895,-0.675
'0:01.981',-0.890,-0.690
'0:01.983',-0.890,-0.720
'0:01.986',-0.890,-0.720
'0:01.989',-0.885,-0.710
'0:01.992',-0.870,-0.700
'0:01.994',-0.865,-0.685
'0:01.997',-0.865,-0.680
'0:02.000',-0.880,-0.680
'0:02.003',-0.880,-0.680
'0:02.006',-0.885,-0.705
'0:02.008',-0.895,-0.695
'0:02.011',-0.905,-0.690
'0:02.014',-0.910,-0.675
'0:02.017',-0.905,-0.665
'0:02.019',-0.885,-0.655
'0:02.022',-0.895,-0.655
'0:02.025',-0.865,-0.650
'0:02.028',-0.865,-0.660
'0:02.031',-0.860,-0.660
'0:02.033',-0.875,-0.660
'0:02.036',-0.885,-0.665
'0:02.039',-0.900,-0.680
'0:02.042',-0.905,-0.685
'0:02.044',-0.900,-0.690
'0:02.047',-0.890,-0.675
'0:02.050',-0.895,-0.685
'0:02.053',-0.900,-0.670
'0:02.056',-0.895,-0.660
'0:02.058',-0.895,-0.660
'0:02.061',-0.895,-0.660
'0:02.064',-0.895,-0.655
'0:02.067',-0.895,-0.640
'0:02.069',-0.890,-0.655
'0:02.072',-0.915,-0.670
'0:02.075',-0.905,-0.665
'0:02.078',-0.910,-0.670
'0:02.081',-0.915,-0.675
'0:02.083',-0.920,-0.660
'0:02.086',-0.920,-0.665
'0:02.089',-0.915,-0.650
'0:02.092',-0.920,-0.650
'0:02.094',-0.910,-0.650
'0:02.097',-0.910,-0.655
'0:02.100',-0.920,-0.660
'0:02.103',-0.920,-0.650
'0:02.106',-0.945,-0.635
'0:02.108',-0.955,-0.635
'0:02.111',-0.960,-0.625
'0:02.114',-0.970,-0.610
'0:02.117',-0.970,-0.610
'0:02.119',-0.980,-0.620
'0:02.122',-0.975,-0.625
'0:02.125',-0.980,-0.645
'0:02.128',-0.970,-0.655
'0:02.131',-0.955,-0.670
'0:02.133',-0.960,-0.680
'0:02.136',-0.975,-0.665
'0:02.139',-0.980,-0.625
'0:02.142',-0.990,-0.600
'0:02.144',-0.990,-0.600
'0:02.147',-1.000,-0.630
'0:02.150',-0.995,-0.675
'0:02.153',-0.995,-0.730
'0:02.156',-0.985,-0.740
'0:02.158',-0.990,-0.720
'0:02.161',-0.995,-0.690
'0:02.164',-1.005,-0.660
'0:02.167',-1.005,-0.625
'0:02.169',-1.005,-0.610
'0:02.172',-1.020,-0.645
'0:02.175',-1.020,-0.680
'0:02.178',-1.020,-0.730
'0:02.181',-1.025,-0.745
'0:02.183',-1.020,-0.740
'0:02.186',-1.025,-0.720
'0:02.189',-1.010,-0.690
'0:02.192',-1.010,-0.660
'0:02.194',-1.010,-0.650
'0:02.197',-0.995,-0.650
'0:02.200',-1.000,-0.655
'0:02.203',-1.000,-0.670
'0:02.206',-1.015,-0.680
'0:02.208',-1.020,-0.685
'0:02.211',-1.040,-0.690
'0:02.214',-1.035,-0.675
'0:02.217',-1.030,-0.675
'0:02.219',-1.030,-0.660
'0:02.222',-1.020,-0.645
'0:02.225',-1.005,-0.635
'0:02.228',-1.005,-0.625
'0:02.231',-1.010,-0.615
'0:02.233',-1.025,-0.605
'0:02.236',-1.030,-0.595
'0:02.239',-1.020,-0.605
'0:02.242',-1.025,-0.615
'0:02.244',-1.015,-0.660
'0:02.247',-1.010,-0.675
'0:02.250',-1.000,-0.680
'0:02.253',-0.995,-0.650
'0:02.256',-0.995,-0.615
'0:02.258',-0.980,-0.630
'0:02.261',-0.965,-0.690
'0:02.264',-0.965,-0.765
'0:02.267',-0.980,-0.830
'0:02.269',-0.990,-0.870
'0:02.272',-0.995,-0.850
'0:02.275',-1.005,-0.815
'0:02.278',-1.010,-0.775
'0:02.281',-0.995,-0.740
'0:02.283',-0.995,-0.710
'0:02.286',-0.995,-0.715
'0:02.289',-0.995,-0.710
'0:02.292',-0.990,-0.715
'0:02.294',-0.995,-0.720
'0:02.297',-0.990,-0.725
'0:02.300',-0.995,-0.725
'0:02.303',-1.000,-0.720
'0:02.306',-0.990,-0.710
'0:02.308',-1.000,-0.705
'0:02.311',-1.005,-0.700
'0:02.314',-1.005,-0.680
'0:02.317',-1.015,-0.670
'0:02.319',-1.025,-0.685
'0:02.322',-1.015,-0.680
'0:02.325',-1.035,-0.695
'0:02.328',-1.035,-0.680
'0:02.331',-1.035,-0.690
'0:02.333',-1.055,-0.690
'0:02.336',-1.070,-0.705
'0:02.339',-1.080,-0.690
'0:02.342',-1.080,-0.680
'0:02.344',-1.075,-0.695
'0:02.347',-1.065,-0.705
'0:02.350',-1.065,-0.695
'0:02.353',-1.060,-0.700
'0:02.356',-1.060,-0.700
'0:02.358',-1.060,-0.685
'0:02.361',-1.060,-0.685
'0:02.364',-1.050,-0.680
'0:02.367',-1.055,-0.670
'0:02.369',-1.055,-0.655
'0:02.372',-1.050,-0.660
'0:02.375',-1.060,-0.640
'0:02.378',-1.050,-0.635
'0:02.381',-1.050,-0.665
'0:02.383',-1.030,-0.710
'0:02.386',-1.010,-0.760
'0:02.389',-0.990,-0.855
'0:02.392',-0.935,-0.965
'0:02.394',-0.865,-1.115
'0:02.397',-0.800,-1.305
'0:02.400',-0.700,-1.495
'0:02.403',-0.625,-1.675
'0:02.406',-0.535,-1.840
'0:02.408',-0.445,-1.910
'0:02.411',-0.360,-1.915
'0:02.414',-0.285,-1.820
'0:02.417',-0.235,-1.660
'0:02.419',-0.190,-1.480
'0:02.422',-0.155,-1.315
'0:02.425',-0.105,-1.185
'0:02.428',-0.080,-1.085
'0:02.431',-0.070,-1.000
'0:02.433',-0.120,-0.915
'0:02.436',-0.175,-0.840
'0:02.439',-0.250,-0.770
'0:02.442',-0.355,-0.720
'0:02.444',-0.485,-0.700
'0:02.447',-0.600,-0.670
'0:02.450',-0.705,-0.665
'0:02.453',-0.800,-0.645
'0:02.456',-0.870,-0.635
'0:02.458',-0.920,-0.630
'0:02.461',-0.970,-0.635
'0:02.464',-0.985,-0.630
'0:02.467',-1.010,-0.635
'0:02.469',-1.045,-0.625
'0:02.472',-1.055,-0.640
'0:02.475',-1.060,-0.630
'0:02.478',-1.075,-0.665
'0:02.481',-1.070,-0.645
'0:02.483',-1.040,-0.635
'0:02.486',-1.035,-0.615
'0:02.489',-1.020,-0.610
'0:02.492',-1.020,-0.600
'0:02.494',-1.005,-0.605
'0:02.497',-1.015,-0.605
'0:02.500',-1.015,-0.600
'0:02.503',-1.010,-0.590
'0:02.506',-1.015,-0.595
'0:02.508',-1.030,-0.615
'0:02.511',-1.020,-0.640
'0:02.514',-1.020,-0.665
'0:02.517',-1.015,-0.660
'0:02.519',-1.005,-0.645
'0:02.522',-0.990,-0.630
'0:02.525',-0.980,-0.610
'0:02.528',-0.985,-0.590
'0:02.531',-0.980,-0.590
'0:02.533',-0.975,-0.590
'0:02.536',-0.995,-0.625
'0:02.539',-0.995,-0.655
'0:02.542',-0.985,-0.670
'0:02.544',-0.990,-0.655
'0:02.547',-0.985,-0.645
'0:02.550',-0.980,-0.615
'0:02.553',-0.975,-0.620
'0:02.556',-0.970,-0.605
'0:02.558',-0.955,-0.600
'0:02.561',-0.945,-0.600
'0:02.564',-0.940,-0.615
'0:02.567',-0.945,-0.630
'0:02.569',-0.950,-0.630
'0:02.572',-0.950,-0.640
'0:02.575',-0.970,-0.635
'0:02.578',-0.985,-0.635
'0:02.581',-0.990,-0.625
'0:02.583',-0.965,-0.625
'0:02.586',-0.960,-0.605
'0:02.589',-0.945,-0.605
'0:02.592',-0.940,-0.615
'0:02.594',-0.935,-0.615
'0:02.597',-0.940,-0.620
'0:02.600',-0.940,-0.635
'0:02.603',-0.930,-0.645
'0:02.606',-0.930,-0.650
'0:02.608',-0.930,-0.645
'0:02.611',-0.945,-0.635
'0:02.614',-0.930,-0.605
'0:02.617',-0.930,-0.595
'0:02.619',-0.920,-0.605
'0:02.622',-0.915,-0.590
'0:02.625',-0.910,-0.575
'0:02.628',-0.905,-0.590
'0:02.631',-0.895,-0.600
'0:02.633',-0.900,-0.615
'0:02.636',-0.900,-0.635
'0:02.639',-0.905,-0.655
'0:02.642',-0.910,-0.655
'0:02.644',-0.910,-0.640
'0:02.647',-0.900,-0.630
'0:02.650',-0.895,-0.625
'0:02.653',-0.875,-0.635
'0:02.656',-0.875,-0.630
'0:02.658',-0.855,-0.630
'0:02.661',-0.850,-0.620
'0:02.664',-0.850,-0.625
'0:02.667',-0.855,-0.620
'0:02.669',-0.850,-0.625
'0:02.672',-0.855,-0.630
'0:02.675',-0.860,-0.640
'0:02.678',-0.860,-0.665
'0:02.681',-0.855,-0.660
'0:02.683',-0.855,-0.645
'0:02.686',-0.850,-0.645
'0:02.689',-0.850,-0.630
'0:02.692',-0.845,-0.630
'0:02.694',-0.830,-0.645
'0:02.697',-0.840,-0.645
'0:02.700',-0.840,-0.645
'0:02.703',-0.845,-0.660
'0:02.706',-0.855,-0.680
'0:02.708',-0.865,-0.665
'0:02.711',-0.875,-0.675
'0:02.714',-0.880,-0.650
'0:02.717',-0.870,-0.655
'0:02.719',-0.865,-0.650
'0:02.722',-0.860,-0.640
'0:02.725',-0.860,-0.640
'0:02.728',-0.865,-0.665
'0:02.731',-0.885,-0.665
'0:02.733',-0.885,-0.670
'0:02.736',-0.885,-0.660
'0:02.739',-0.905,-0.660
'0:02.742',-0.925,-0.665
'0:02.744',-0.915,-0.680
'0:02.747',-0.915,-0.680
'0:02.750',-0.930,-0.675
'0:02.753',-0.945,-0.665
'0:02.756',-0.950,-0.655
'0:02.758',-0.945,-0.640
'0:02.761',-0.950,-0.660
'0:02.764',-0.955,-0.675
'0:02.767',-0.955,-0.685
'0:02.769',-0.965,-0.710
'0:02.772',-0.985,-0.705
'0:02.775',-1.000,-0.700
'0:02.778',-0.990,-0.690
'0:02.781',-1.000,-0.655
'0:02.783',-0.990,-0.655
'0:02.786',-0.985,-0.655
'0:02.789',-0.975,-0.650
'0:02.792',-0.970,-0.665
'0:02.794',-0.980,-0.690
'0:02.797',-0.970,-0.705
'0:02.800',-0.975,-0.690
'0:02.803',-0.985,-0.680
'0:02.806',-1.010,-0.675
'0:02.808',-1.010,-0.685
'0:02.811',-1.000,-0.685
'0:02.814',-0.985,-0.685
'0:02.817',-0.980,-0.690
'0:02.819',-0.970,-0.680
'0:02.822',-0.965,-0.660
'0:02.825',-0.955,-0.660
'0:02.828',-0.965,-0.665
'0:02.831',-0.970,-0.680
'0:02.833',-0.980,-0.685
'0:02.836',-0.990,-0.665
'0:02.839',-0.990,-0.680
'0:02.842',-0.995,-0.690
'0:02.844',-1.005,-0.680
'0:02.847',-1.000,-0.675
'0:02.850',-0.995,-0.655
'0:02.853',-0.990,-0.640
'0:02.856',-0.980,-0.630
'0:02.858',-0.970,-0.635
'0:02.861',-0.975,-0.655
'0:02.864',-0.985,-0.650
'0:02.867',-1.000,-0.660
'0:02.869',-1.010,-0.680
'0:02.872',-1.015,-0.670
'0:02.875',-1.015,-0.675
'0:02.878',-1.015,-0.675
'0:02.881',-1.015,-0.660
'0:02.883',-1.015,-0.655
'0:02.886',-1.010,-0.655
'0:02.889',-1.005,-0.640
'0:02.892',-1.000,-0.635
'0:02.894',-1.000,-0.640
'0:02.897',-1.005,-0.650
'0:02.900',-1.005,-0.655
'0:02.903',-1.010,-0.660
'0:02.906',-1.020,-0.670
'0:02.908',-1.025,-0.670
'0:02.911',-1.030,-0.665
'0:02.914',-1.025,-0.670
'0:02.917',-1.020,-0.665
'0:02.919',-1.010,-0.675
'0:02.922',-1.010,-0.665
'0:02.925',-1.000,-0.670
'0:02.928',-0.995,-0.670
'0:02.931',-0.995,-0.675
'0:02.933',-1.010,-0.670
'0:02.936',-1.010,-0.675
'0:02.939',-1.015,-0.680
'0:02.942',-1.015,-0.675
'0:02.944',-1.015,-0.690
'0:02.947',-1.015,-0.670
'0:02.950',-1.010,-0.655
'0:02.953',-1.000,-0.655
'0:02.956',-0.995,-0.650
'0:02.958',-1.000,-0.660
'0:02.961',-1.000,-0.660
'0:02.964',-0.995,-0.665
'0:02.967',-1.000,-0.670
'0:02.969',-1.005,-0.685
'0:02.972',-1.005,-0.685
'0:02.975',-1.035,-0.695
'0:02.978',-1.025,-0.695
'0:02.981',-1.015,-0.680
'0:02.983',-1.010,-0.675
'0:02.986',-0.995,-0.670
'0:02.989',-0.985,-0.665
'0:02.992',-0.965,-0.670
'0:02.994',-0.975,-0.695
'0:02.997',-0.975,-0.690
'0:03.000',-0.985,-0.710
'0:03.003',-0.985,-0.715
'0:03.006',-1.000,-0.705
'0:03.008',-1.000,-0.695
'0:03.011',-0.985,-0.690
'0:03.014',-0.975,-0.685
'0:03.017',-0.965,-0.675
'0:03.019',-0.975,-0.665
'0:03.022',-0.950,-0.665
'0:03.025',-0.955,-0.680
'0:03.028',-0.950,-0.680
'0:03.031',-0.950,-0.680
'0:03.033',-0.955,-0.685
'0:03.036',-0.955,-0.690
'0:03.039',-0.965,-0.705
'0:03.042',-0.965,-0.700
'0:03.044',-0.975,-0.710
'0:03.047',-0.965,-0.685
'0:03.050',-0.955,-0.675
'0:03.053',-0.945,-0.670
'0:03.056',-0.935,-0.675
'0:03.058',-0.925,-0.685
'0:03.061',-0.950,-0.695
'0:03.064',-0.945,-0.680
'0:03.067',-0.930,-0.680
'0:03.069',-0.935,-0.695
'0:03.072',-0.945,-0.695
'0:03.075',-0.970,-0.710
'0:03.078',-0.960,-0.705
'0:03.081',-0.950,-0.705
'0:03.083',-0.955,-0.690
'0:03.086',-0.950,-0.685
'0:03.089',-0.930,-0.690
'0:03.092',-0.925,-0.700
'0:03.094',-0.925,-0.695
'0:03.097',-0.915,-0.695
'0:03.100',-0.915,-0.705
'0:03.103',-0.930,-0.700
'0:03.106',-0.940,-0.690
'0:03.108',-0.940,-0.685
'0:03.111',-0.945,-0.680
'0:03.114',-0.935,-0.690
'0:03.117',-0.930,-0.695
'0:03.119',-0.925,-0.695
'0:03.122',-0.925,-0.690
'0:03.125',-0.915,-0.690
'0:03.128',-0.915,-0.690
'0:03.131',-0.910,-0.690
'0:03.133',-0.915,-0.690
'0:03.136',-0.925,-0.700
'0:03.139',-0.955,-0.705
'0:03.142',-0.945,-0.710
'0:03.144',-0.945,-0.705
'0:03.147',-0.945,-0.700
'0:03.150',-0.930,-0.695
'0:03.153',-0.915,-0.700
'0:03.156',-0.895,-0.700
'0:03.158',-0.895,-0.695
'0:03.161',-0.895,-0.700
'0:03.164',-0.910,-0.695
'0:03.167',-0.900,-0.690
'0:03.169',-0.915,-0.710
'0:03.172',-0.915,-0.710
'0:03.175',-0.925,-0.710
'0:03.178',-0.920,-0.715
'0:03.181',-0.915,-0.700
'0:03.183',-0.915,-0.695
'0:03.186',-0.895,-0.680
'0:03.189',-0.890,-0.675
'0:03.192',-0.880,-0.675
'0:03.194',-0.885,-0.670
'0:03.197',-0.880,-0.660
'0:03.200',-0.870,-0.680
'0:03.203',-0.875,-0.690
'0:03.206',-0.865,-0.700
'0:03.208',-0.855,-0.705
'0:03.211',-0.850,-0.715
'0:03.214',-0.845,-0.720
'0:03.217',-0.840,-0.715
'0:03.219',-0.845,-0.710
'0:03.222',-0.835,-0.715
'0:03.225',-0.840,-0.730
'0:03.228',-0.825,-0.765
'0:03.231',-0.825,-0.780
'0:03.233',-0.830,-0.795
'0:03.236',-0.820,-0.795
'0:03.239',-0.825,-0.790
'0:03.242',-0.835,-0.780
'0:03.244',-0.835,-0.770
'0:03.247',-0.830,-0.750
'0:03.250',-0.830,-0.740
'0:03.253',-0.815,-0.730
'0:03.256',-0.820,-0.720
'0:03.258',-0.805,-0.715
'0:03.261',-0.810,-0.730
'0:03.264',-0.805,-0.730
'0:03.267',-0.805,-0.730
'0:03.269',-0.820,-0.720
'0:03.272',-0.830,-0.725
'0:03.275',-0.845,-0.720
'0:03.278',-0.855,-0.715
'0:03.281',-0.855,-0.715
'0:03.283',-0.860,-0.700
'0:03.286',-0.860,-0.695
'0:03.289',-0.850,-0.685
'0:03.292',-0.860,-0.685
'0:03.294',-0.860,-0.690
'0:03.297',-0.850,-0.685
'0:03.300',-0.850,-0.700
'0:03.303',-0.855,-0.725
'0:03.306',-0.860,-0.725
'0:03.308',-0.865,-0.720
'0:03.311',-0.895,-0.700
'0:03.314',-0.880,-0.690
'0:03.317',-0.875,-0.680
'0:03.319',-0.865,-0.670
'0:03.322',-0.860,-0.665
'0:03.325',-0.835,-0.655
'0:03.328',-0.820,-0.655
'0:03.331',-0.810,-0.655
'0:03.333',-0.815,-0.675
'0:03.336',-0.820,-0.715
'0:03.339',-0.820,-0.770
'0:03.342',-0.800,-0.880
'0:03.344',-0.750,-0.990
'0:03.347',-0.695,-1.145
'0:03.350',-0.620,-1.310
'0:03.353',-0.535,-1.460
'0:03.356',-0.415,-1.615
'0:03.358',-0.300,-1.735
'0:03.361',-0.190,-1.815
'0:03.364',-0.090,-1.840
'0:03.367',-0.025,-1.780
'0:03.369',0.040,-1.655
'0:03.372',0.070,-1.525
'0:03.375',0.095,-1.365
'0:03.378',0.130,-1.230
'0:03.381',0.160,-1.110
'0:03.383',0.175,-1.035
'0:03.386',0.175,-0.940
'0:03.389',0.140,-0.875
'0:03.392',0.090,-0.815
'0:03.394',0.020,-0.740
'0:03.397',-0.055,-0.710
'0:03.400',-0.140,-0.690
'0:03.403',-0.240,-0.685
'0:03.406',-0.330,-0.690
'0:03.408',-0.430,-0.670
'0:03.411',-0.520,-0.685
'0:03.414',-0.590,-0.660
'0:03.417',-0.650,-0.640
'0:03.419',-0.700,-0.630
'0:03.422',-0.730,-0.620
'0:03.425',-0.760,-0.615
'0:03.428',-0.780,-0.615
'0:03.431',-0.800,-0.620
'0:03.433',-0.800,-0.620
'0:03.436',-0.800,-0.625
'0:03.439',-0.805,-0.640
'0:03.442',-0.805,-0.640
'0:03.444',-0.800,-0.630
'0:03.447',-0.790,-0.605
'0:03.450',-0.790,-0.600
'0:03.453',-0.790,-0.590
'0:03.456',-0.790,-0.590
'0:03.458',-0.775,-0.585
'0:03.461',-0.770,-0.595
'0:03.464',-0.770,-0.610
'0:03.467',-0.775,-0.625
'0:03.469',-0.780,-0.635
'0:03.472',-0.790,-0.635
'0:03.475',-0.780,-0.635
'0:03.478',-0.775,-0.615
'0:03.481',-0.765,-0.620
'0:03.483',-0.770,-0.615
'0:03.486',-0.765,-0.595
'0:03.489',-0.765,-0.595
'0:03.492',-0.760,-0.585
'0:03.494',-0.755,-0.590
'0:03.497',-0.765,-0.595
'0:03.500',-0.765,-0.610
'0:03.503',-0.755,-0.620
'0:03.506',-0.765,-0.620
'0:03.508',-0.755,-0.635
'0:03.511',-0.755,-0.625
'0:03.514',-0.750,-0.620
'0:03.517',-0.750,-0.605
'0:03.519',-0.745,-0.610
'0:03.522',-0.740,-0.595
'0:03.525',-0.730,-0.590
'0:03.528',-0.725,-0.595
'0:03.531',-0.725,-0.595
'0:03.533',-0.730,-0.610
'0:03.536',-0.735,-0.610
'0:03.539',-0.745,-0.610
'0:03.542',-0.740,-0.620
'0:03.544',-0.740,-0.620
'0:03.547',-0.730,-0.615
'0:03.550',-0.725,-0.605
'0:03.553',-0.730,-0.595
'0:03.556',-0.715,-0.585
'0:03.558',-0.710,-0.590
'0:03.561',-0.715,-0.590
'0:03.564',-0.710,-0.600
'0:03.567',-0.725,-0.605
'0:03.569',-0.715,-0.600
'0:03.572',-0.715,-0.610
'0:03.575',-0.720,-0.615
'0:03.578',-0.725,-0.625
'0:03.581',-0.715,-0.605
'0:03.583',-0.715,-0.620
'0:03.586',-0.705,-0.605
'0:03.589',-0.700,-0.600
'0:03.592',-0.685,-0.595
'0:03.594',-0.680,-0.605
'0:03.597',-0.680,-0.600
'0:03.600',-0.680,-0.605
'0:03.603',-0.690,-0.600
'0:03.606',-0.685,-0.610
'0:03.608',-0.690,-0.610
'0:03.611',-0.695,-0.615
'0:03.614',-0.695,-0.605
'0:03.617',-0.680,-0.590
'0:03.619',-0.675,-0.605
'0:03.622',-0.665,-0.595
'0:03.625',-0.650,-0.595
'0:03.628',-0.660,-0.610
'0:03.631',-0.650,-0.625
'0:03.633',-0.660,-0.620
'0:03.636',-0.665,-0.615
'0:03.639',-0.660,-0.625
'0:03.642',-0.670,-0.630
'0:03.644',-0.670,-0.630
'0:03.647',-0.670,-0.620
'0:03.650',-0.675,-0.615
'0:03.653',-0.665,-0.615
'0:03.656',-0.665,-0.615
'0:03.658',-0.665,-0.615
'0:03.661',-0.665,-0.630
'0:03.664',-0.665,-0.625
'0:03.667',-0.680,-0.645
'0:03.669',-0.685,-0.645
'0:03.672',-0.700,-0.640
'0:03.675',-0.710,-0.645
'0:03.678',-0.715,-0.640
'0:03.681',-0.720,-0.645
'0:03.683',-0.720,-0.650
'0:03.686',-0.715,-0.645
'0:03.689',-0.720,-0.650
'0:03.692',-0.720,-0.655
'0:03.694',-0.745,-0.650
'0:03.697',-0.750,-0.655
'0:03.700',-0.770,-0.660
'0:03.703',-0.775,-0.675
'0:03.706',-0.800,-0.665
'0:03.708',-0.820,-0.680
'0:03.711',-0.820,-0.670
'0:03.714',-0.810,-0.650
'0:03.717',-0.820,-0.640
'0:03.719',-0.820,-0.630
'0:03.722',-0.820,-0.625
'0:03.725',-0.820,-0.625
'0:03.728',-0.830,-0.635
'0:03.731',-0.825,-0.650
'0:03.733',-0.835,-0.655
'0:03.736',-0.850,-0.650
'0:03.739',-0.850,-0.645
'0:03.742',-0.860,-0.660
'0:03.744',-0.845,-0.650
'0:03.747',-0.835,-0.650
'0:03.750',-0.835,-0.640
'0:03.753',-0.835,-0.640
'0:03.756',-0.830,-0.635
'0:03.758',-0.835,-0.640
'0:03.761',-0.840,-0.645
'0:03.764',-0.835,-0.640
'0:03.767',-0.835,-0.650
'0:03.769',-0.845,-0.655
'0:03.772',-0.835,-0.655
'0:03.775',-0.855,-0.650
'0:03.778',-0.840,-0.635
'0:03.781',-0.835,-0.630
'0:03.783',-0.845,-0.625
'0:03.786',-0.830,-0.635
'0:03.789',-0.855,-0.630
'0:03.792',-0.855,-0.645
'0:03.794',-0.835,-0.655
'0:03.797',-0.845,-0.645
'0:03.800',-0.840,-0.665
'0:03.803',-0.845,-0.650
'0:03.806',-0.850,-0.645
'0:03.808',-0.860,-0.645
'0:03.811',-0.860,-0.640
'0:03.814',-0.870,-0.635
'0:03.817',-0.865,-0.620
'0:03.819',-0.855,-0.605
'0:03.822',-0.845,-0.590
'0:03.825',-0.845,-0.605
'0:03.828',-0.850,-0.610
'0:03.831',-0.850,-0.620
'0:03.833',-0.855,-0.625
'0:03.836',-0.870,-0.640
'0:03.839',-0.890,-0.650
'0:03.842',-0.885,-0.635
'0:03.844',-0.885,-0.620
'0:03.847',-0.890,-0.610
'0:03.850',-0.880,-0.620
'0:03.853',-0.880,-0.615
'0:03.856',-0.855,-0.605
'0:03.858',-0.855,-0.615
'0:03.861',-0.855,-0.625
'0:03.864',-0.870,-0.625
'0:03.867',-0.865,-0.635
'0:03.869',-0.875,-0.630
'0:03.872',-0.875,-0.645
'0:03.875',-0.870,-0.635
'0:03.878',-0.885,-0.630
'0:03.881',-0.885,-0.630
'0:03.883',-0.885,-0.620
'0:03.886',-0.880,-0.615
'0:03.889',-0.870,-0.615
'0:03.892',-0.860,-0.605
'0:03.894',-0.855,-0.610
'0:03.897',-0.850,-0.610
'0:03.900',-0.865,-0.615
'0:03.903',-0.875,-0.625
'0:03.906',-0.885,-0.635
'0:03.908',-0.890,-0.635
'0:03.911',-0.885,-0.640
'0:03.914',-0.870,-0.640
'0:03.917',-0.870,-0.620
'0:03.919',-0.855,-0.610
'0:03.922',-0.865,-0.605
'0:03.925',-0.850,-0.605
'0:03.928',-0.850,-0.610
'0:03.931',-0.845,-0.630
'0:03.933',-0.845,-0.645
'0:03.936',-0.855,-0.660
'0:03.939',-0.855,-0.660
'0:03.942',-0.870,-0.660
'0:03.944',-0.865,-0.640
'0:03.947',-0.865,-0.640
'0:03.950',-0.845,-0.635
'0:03.953',-0.845,-0.615
'0:03.956',-0.835,-0.610
'0:03.958',-0.820,-0.605
'0:03.961',-0.815,-0.610
'0:03.964',-0.820,-0.620
'0:03.967',-0.840,-0.635
'0:03.969',-0.835,-0.635
'0:03.972',-0.840,-0.650
'0:03.975',-0.835,-0.650
'0:03.978',-0.835,-0.640
'0:03.981',-0.830,-0.625
'0:03.983',-0.825,-0.595
'0:03.986',-0.820,-0.585
'0:03.989',-0.800,-0.590
'0:03.992',-0.800,-0.605
'0:03.994',-0.810,-0.630
'0:03.997',-0.810,-0.645
'0:04.000',-0.810,-0.655
'0:04.003',-0.815,-0.670
'0:04.006',-0.815,-0.665
'0:04.008',-0.830,-0.645
'0:04.011',-0.820,-0.635
'0:04.014',-0.830,-0.625
'0:04.017',-0.815,-0.625
'0:04.019',-0.810,-0.615
'0:04.022',-0.790,-0.600
'0:04.025',-0.780,-0.595
'0:04.028',-0.780,-0.605
'0:04.031',-0.790,-0.620
'0:04.033',-0.790,-0.625
'0:04.036',-0.805,-0.630
'0:04.039',-0.805,-0.640
'0:04.042',-0.810,-0.645
'0:04.044',-0.805,-0.645
'0:04.047',-0.815,-0.630
'0:04.050',-0.795,-0.615
'0:04.053',-0.785,-0.605
'0:04.056',-0.775,-0.595
'0:04.058',-0.770,-0.600
'0:04.061',-0.780,-0.610
'0:04.064',-0.775,-0.620
'0:04.067',-0.790,-0.635
'0:04.069',-0.790,-0.640
'0:04.072',-0.785,-0.635
'0:04.075',-0.800,-0.635
'0:04.078',-0.805,-0.630
'0:04.081',-0.810,-0.620
'0:04.083',-0.795,-0.615
'0:04.086',-0.785,-0.615
'0:04.089',-0.765,-0.605
'0:04.092',-0.770,-0.605
'0:04.094',-0.765,-0.610
'0:04.097',-0.780,-0.620
'0:04.100',-0.775,-0.620
'0:04.103',-0.785,-0.630
'0:04.106',-0.800,-0.640
'0:04.108',-0.800,-0.640
'0:04.111',-0.805,-0.645
'0:04.114',-0.785,-0.640
'0:04.117',-0.775,-0.630
'0:04.119',-0.765,-0.605
'0:04.122',-0.750,-0.595
'0:04.125',-0.745,-0.600
'0:04.128',-0.750,-0.595
'0:04.131',-0.750,-0.605
'0:04.133',-0.750,-0.635
'0:04.136',-0.755,-0.650
'0:04.139',-0.765,-0.655
'0:04.142',-0.775,-0.660
'0:04.144',-0.780,-0.645
'0:04.147',-0.770,-0.630
'0:04.150',-0.765,-0.625
'0:04.153',-0.760,-0.610
'0:04.156',-0.755,-0.600
'0:04.158',-0.735,-0.590
'0:04.161',-0.740,-0.605
'0:04.164',-0.740,-0.595
'0:04.167',-0.745,-0.600
'0:04.169',-0.745,-0.600
'0:04.172',-0.745,-0.625
'0:04.175',-0.760,-0.630
'0:04.178',-0.750,-0.640
'0:04.181',-0.755,-0.620
'0:04.183',-0.735,-0.610
'0:04.186',-0.720,-0.600
'0:04.189',-0.710,-0.590
'0:04.192',-0.695,-0.595
'0:04.194',-0.695,-0.605
'0:04.197',-0.705,-0.625
'0:04.200',-0.705,-0.640
'0:04.203',-0.720,-0.640
'0:04.206',-0.705,-0.660
'0:04.208',-0.705,-0.680
'0:04.211',-0.700,-0.685
'0:04.214',-0.695,-0.685
'0:04.217',-0.685,-0.685
'0:04.219',-0.675,-0.680
'0:04.222',-0.675,-0.675
'0:04.225',-0.670,-0.680
'0:04.228',-0.665,-0.680
'0:04.231',-0.685,-0.675
'0:04.233',-0.695,-0.675
'0:04.236',-0.695,-0.675
'0:04.239',-0.695,-0.665
'0:04.242',-0.685,-0.650
'0:04.244',-0.690,-0.645
'0:04.247',-0.680,-0.625
'0:04.250',-0.670,-0.615
'0:04.253',-0.675,-0.610
'0:04.256',-0.685,-0.600
'0:04.258',-0.680,-0.600
'0:04.261',-0.695,-0.595
'0:04.264',-0.715,-0.600
'0:04.267',-0.715,-0.615
'0:04.269',-0.730,-0.620
'0:04.272',-0.735,-0.625
'0:04.275',-0.740,-0.625
'0:04.278',-0.750,-0.620
'0:04.281',-0.745,-0.605
'0:04.283',-0.735,-0.600
'0:04.286',-0.730,-0.600
'0:04.289',-0.720,-0.590
'0:04.292',-0.715,-0.585
'0:04.294',-0.700,-0.585
'0:04.297',-0.715,-0.585
'0:04.300',-0.725,-0.595
'0:04.303',-0.715,-0.595
'0:04.306',-0.725,-0.595
'0:04.308',-0.730,-0.610
'0:04.311',-0.725,-0.605
'0:04.314',-0.720,-0.600
'0:04.317',-0.695,-0.620
'0:04.319',-0.680,-0.680
'0:04.322',-0.650,-0.785
'0:04.325',-0.585,-0.910
'0:04.328',-0.515,-1.055
'0:04.331',-0.415,-1.225
'0:04.333',-0.300,-1.400
'0:04.336',-0.170,-1.540
'0:04.339',-0.035,-1.630
'0:04.342',0.100,-1.645
'0:04.344',0.205,-1.590
'0:04.347',0.285,-1.490
'0:04.350',0.340,-1.365
'0:04.353',0.375,-1.225
'0:04.356',0.400,-1.095
'0:04.358',0.435,-0.975
'0:04.361',0.430,-0.875
'0:04.364',0.405,-0.820
'0:04.367',0.340,-0.750
'0:04.369',0.270,-0.695
'0:04.372',0.200,-0.660
'0:04.375',0.130,-0.645
'0:04.378',0.050,-0.625
'0:04.381',-0.035,-0.620
'0:04.383',-0.130,-0.610
'0:04.386',-0.220,-0.570
'0:04.389',-0.300,-0.545
'0:04.392',-0.385,-0.520
'0:04.394',-0.480,-0.515
'0:04.397',-0.555,-0.535
'0:04.400',-0.630,-0.585
'0:04.403',-0.670,-0.605
'0:04.406',-0.705,-0.620
'0:04.408',-0.710,-0.610
'0:04.411',-0.710,-0.580
'0:04.414',-0.695,-0.560
'0:04.417',-0.695,-0.540
'0:04.419',-0.675,-0.530
'0:04.422',-0.655,-0.530
'0:04.425',-0.650,-0.535
'0:04.428',-0.640,-0.540
'0:04.431',-0.655,-0.555
'0:04.433',-0.660,-0.555
'0:04.436',-0.670,-0.560
'0:04.439',-0.680,-0.570
'0:04.442',-0.680,-0.565
'0:04.444',-0.675,-0.540
'0:04.447',-0.680,-0.535
'0:04.450',-0.670,-0.530
'0:04.453',-0.665,-0.515
'0:04.456',-0.655,-0.525
'0:04.458',-0.645,-0.530
'0:04.461',-0.650,-0.550
'0:04.464',-0.660,-0.555
'0:04.467',-0.665,-0.570
'0:04.469',-0.665,-0.560
'0:04.472',-0.670,-0.575
'0:04.475',-0.665,-0.555
'0:04.478',-0.665,-0.545
'0:04.481',-0.665,-0.540
'0:04.483',-0.665,-0.540
'0:04.486',-0.655,-0.540
'0:04.489',-0.660,-0.550
'0:04.492',-0.660,-0.535
'0:04.494',-0.660,-0.560
'0:04.497',-0.650,-0.560
'0:04.500',-0.640,-0.560
'0:04.503',-0.645,-0.545
'0:04.506',-0.645,-0.535
'0:04.508',-0.645,-0.530
'0:04.511',-0.655,-0.540
'0:04.514',-0.650,-0.560
'0:04.517',-0.650,-0.585
'0:04.519',-0.650,-0.610
'0:04.522',-0.640,-0.590
'0:04.525',-0.640,-0.580
'0:04.528',-0.615,-0.570
'0:04.531',-0.615,-0.545
'0:04.533',-0.615,-0.555
'0:04.536',-0.630,-0.560
'0:04.539',-0.640,-0.570
'0:04.542',-0.650,-0.565
'0:04.544',-0.655,-0.565
'0:04.547',-0.650,-0.560
'0:04.550',-0.635,-0.545
'0:04.553',-0.630,-0.535
'0:04.556',-0.635,-0.520
'0:04.558',-0.620,-0.520
'0:04.561',-0.625,-0.545
'0:04.564',-0.620,-0.570
'0:04.567',-0.625,-0.580
'0:04.569',-0.630,-0.590
'0:04.572',-0.625,-0.590
'0:04.575',-0.635,-0.575
'0:04.578',-0.640,-0.565
'0:04.581',-0.640,-0.550
'0:04.583',-0.635,-0.545
'0:04.586',-0.615,-0.545
'0:04.589',-0.625,-0.540
'0:04.592',-0.610,-0.560
'0:04.594',-0.605,-0.560
'0:04.597',-0.610,-0.560
'0:04.600',-0.620,-0.590
'0:04.603',-0.630,-0.590
'0:04.606',-0.645,-0.595
'0:04.608',-0.635,-0.590
'0:04.611',-0.640,-0.585
'0:04.614',-0.640,-0.565
'0:04.617',-0.640,-0.545
'0:04.619',-0.630,-0.550
'0:04.622',-0.635,-0.545
'0:04.625',-0.615,-0.550
'0:04.628',-0.615,-0.550
'0:04.631',-0.620,-0.550
'0:04.633',-0.635,-0.565
'0:04.636',-0.640,-0.560
'0:04.639',-0.650,-0.565
'0:04.642',-0.665,-0.565
'0:04.644',-0.680,-0.555
'0:04.647',-0.685,-0.595
'0:04.650',-0.685,-0.625
'0:04.653',-0.680,-0.645
'0:04.656',-0.685,-0.630
'0:04.658',-0.685,-0.615
'0:04.661',-0.695,-0.605
'0:04.664',-0.705,-0.575
'0:04.667',-0.730,-0.575
'0:04.669',-0.760,-0.565
'0:04.672',-0.775,-0.580
'0:04.675',-0.790,-0.610
'0:04.678',-0.795,-0.615
'0:04.681',-0.815,-0.630
'0:04.683',-0.810,-0.630
'0:04.686',-0.800,-0.610
'0:04.689',-0.790,-0.600
'0:04.692',-0.780,-0.580
'0:04.694',-0.795,-0.565
'0:04.697',-0.805,-0.570
'0:04.700',-0.810,-0.595
'0:04.703',-0.830,-0.605
'0:04.706',-0.830,-0.610
'0:04.708',-0.835,-0.620
'0:04.711',-0.855,-0.600
'0:04.714',-0.850,-0.585
'0:04.717',-0.840,-0.580
'0:04.719',-0.835,-0.575
'0:04.722',-0.840,-0.580
'0:04.725',-0.850,-0.585
'0:04.728',-0.855,-0.600
'0:04.731',-0.850,-0.600
'0:04.733',-0.845,-0.625
'0:04.736',-0.845,-0.630
'0:04.739',-0.845,-0.630
'0:04.742',-0.865,-0.630
'0:04.744',-0.860,-0.615
'0:04.747',-0.860,-0.595
'0:04.750',-0.870,-0.585
'0:04.753',-0.855,-0.585
'0:04.756',-0.855,-0.570
'0:04.758',-0.835,-0.575
'0:04.761',-0.850,-0.555
'0:04.764',-0.850,-0.545
'0:04.767',-0.845,-0.540
'0:04.769',-0.870,-0.555
'0:04.772',-0.875,-0.560
'0:04.775',-0.885,-0.605
'0:04.778',-0.895,-0.630
'0:04.781',-0.880,-0.645
'0:04.783',-0.865,-0.640
'0:04.786',-0.865,-0.605
'0:04.789',-0.860,-0.580
'0:04.792',-0.845,-0.575
'0:04.794',-0.860,-0.590
'0:04.797',-0.870,-0.590
'0:04.800',-0.880,-0.600
'0:04.803',-0.880,-0.615
'0:04.806',-0.885,-0.615
'0:04.808',-0.900,-0.605
'0:04.811',-0.895,-0.615
'0:04.814',-0.885,-0.565
'0:04.817',-0.895,-0.545
'0:04.819',-0.895,-0.545
'0:04.822',-0.875,-0.555
'0:04.825',-0.880,-0.575
'0:04.828',-0.885,-0.580
'0:04.831',-0.895,-0.585
'0:04.833',-0.900,-0.580
'0:04.836',-0.905,-0.580
'0:04.839',-0.905,-0.595
'0:04.842',-0.910,-0.635
'0:04.844',-0.925,-0.640
'0:04.847',-0.930,-0.640
'0:04.850',-0.905,-0.630
'0:04.853',-0.910,-0.615
'0:04.856',-0.895,-0.580
'0:04.858',-0.900,-0.550
'0:04.861',-0.910,-0.555
'0:04.864',-0.915,-0.560
'0:04.867',-0.900,-0.575
'0:04.869',-0.910,-0.595
'0:04.872',-0.920,-0.625
'0:04.875',-0.950,-0.640
'0:04.878',-0.955,-0.630
'0:04.881',-0.940,-0.630
'0:04.883',-0.935,-0.610
'0:04.886',-0.925,-0.605
'0:04.889',-0.935,-0.590
'0:04.892',-0.915,-0.570
'0:04.894',-0.920,-0.580
'0:04.897',-0.915,-0.600
'0:04.900',-0.930,-0.605
'0:04.903',-0.935,-0.610
'0:04.906',-0.940,-0.605
'0:04.908',-0.945,-0.615
'0:04.911',-0.935,-0.615
'0:04.914',-0.940,-0.615
'0:04.917',-0.935,-0.615
'0:04.919',-0.935,-0.610
'0:04.922',-0.925,-0.600
'0:04.925',-0.910,-0.575
'0:04.928',-0.915,-0.580
'0:04.931',-0.935,-0.595
'0:04.933',-0.925,-0.605
'0:04.936',-0.915,-0.615
'0:04.939',-0.925,-0.620
'0:04.942',-0.925,-0.625
'0:04.944',-0.925,-0.615
'0:04.947',-0.930,-0.610
'0:04.950',-0.910,-0.605
'0:04.953',-0.920,-0.600
'0:04.956',-0.920,-0.600
'0:04.958',-0.910,-0.605
'0:04.961',-0.905,-0.615
'0:04.964',-0.910,-0.615
'0:04.967',-0.920,-0.625
'0:04.969',-0.920,-0.640
'0:04.972',-0.920,-0.625
'0:04.975',-0.930,-0.630
'0:04.978',-0.925,-0.630
'0:04.981',-0.925,-0.605
'0:04.983',-0.915,-0.605
'0:04.986',-0.910,-0.610
'0:04.989',-0.905,-0.610
'0:04.992',-0.895,-0.600
'0:04.994',-0.895,-0.590
'0:04.997',-0.910,-0.595
'0:05.000',-0.915,-0.595
'0:05.003',-0.930,-0.605
'0:05.006',-0.935,-0.625
'0:05.008',-0.935,-0.640
'0:05.011',-0.940,-0.645
'0:05.014',-0.930,-0.630
'0:05.017',-0.925,-0.615
'0:05.019',-0.910,-0.615
'0:05.022',-0.910,-0.580
'0:05.025',-0.890,-0.585
'0:05.028',-0.890,-0.590
'0:05.031',-0.905,-0.595
'0:05.033',-0.910,-0.620
'0:05.036',-0.905,-0.640
'0:05.039',-0.915,-0.645
'0:05.042',-0.920,-0.650
'0:05.044',-0.935,-0.640
'0:05.047',-0.940,-0.625
'0:05.050',-0.925,-0.605
'0:05.053',-0.910,-0.595
'0:05.056',-0.905,-0.595
'0:05.058',-0.895,-0.605
'0:05.061',-0.890,-0.630
'0:05.064',-0.895,-0.625
'0:05.067',-0.900,-0.630
'0:05.069',-0.895,-0.625
'0:05.072',-0.895,-0.620
'0:05.075',-0.900,-0.640
'0:05.078',-0.905,-0.645
'0:05.081',-0.905,-0.650
'0:05.083',-0.895,-0.625
'0:05.086',-0.890,-0.615
'0:05.089',-0.885,-0.600
'0:05.092',-0.890,-0.600
'0:05.094',-0.880,-0.610
'0:05.097',-0.895,-0.595
'0:05.100',-0.915,-0.615
'0:05.103',-0.905,-0.620
'0:05.106',-0.920,-0.625
'0:05.108',-0.920,-0.615
'0:05.111',-0.915,-0.630
'0:05.114',-0.915,-0.625
'0:05.117',-0.905,-0.610
'0:05.119',-0.900,-0.610
'0:05.122',-0.895,-0.600
'0:05.125',-0.885,-0.590
'0:05.128',-0.870,-0.600
'0:05.131',-0.880,-0.585
'0:05.133',-0.890,-0.590
'0:05.136',-0.885,-0.595
'0:05.139',-0.885,-0.610
'0:05.142',-0.895,-0.640
'0:05.144',-0.895,-0.645
'0:05.147',-0.900,-0.640
'0:05.150',-0.900,-0.630
'0:05.153',-0.895,-0.625
'0:05.156',-0.900,-0.600
'0:05.158',-0.880,-0.595
'0:05.161',-0.850,-0.580
'0:05.164',-0.845,-0.590
'0:05.167',-0.845,-0.595
'0:05.169',-0.845,-0.615
'0:05.172',-0.840,-0.610
'0:05.175',-0.845,-0.615
'0:05.178',-0.850,-0.630
'0:05.181',-0.850,-0.650
'0:05.183',-0.850,-0.675
'0:05.186',-0.835,-0.700
'0:05.189',-0.825,-0.685
'0:05.192',-0.805,-0.690
'0:05.194',-0.805,-0.665
'0:05.197',-0.810,-0.655
'0:05.200',-0.810,-0.665
'0:05.203',-0.825,-0.680
'0:05.206',-0.830,-0.680
'0:05.208',-0.840,-0.695
'0:05.211',-0.855,-0.680
'0:05.214',-0.855,-0.660
'0:05.217',-0.835,-0.645
'0:05.219',-0.835,-0.650
'0:05.222',-0.825,-0.645
'0:05.225',-0.800,-0.635
'0:05.228',-0.810,-0.635
'0:05.231',-0.815,-0.615
'0:05.233',-0.815,-0.620
'0:05.236',-0.830,-0.610
'0:05.239',-0.840,-0.605
'0:05.242',-0.835,-0.605
'0:05.244',-0.855,-0.625
'0:05.247',-0.875,-0.610
'0:05.250',-0.860,-0.630
'0:05.253',-0.885,-0.640
'0:05.256',-0.885,-0.625
'0:05.258',-0.875,-0.610
'0:05.261',-0.870,-0.600
'0:05.264',-0.860,-0.600
'0:05.267',-0.860,-0.595
'0:05.269',-0.865,-0.595
'0:05.272',-0.875,-0.590
'0:05.275',-0.870,-0.600
'0:05.278',-0.885,-0.595
'0:05.281',-0.885,-0.600
'0:05.283',-0.880,-0.605
'0:05.286',-0.865,-0.605
'0:05.289',-0.855,-0.590
'0:05.292',-0.835,-0.575
'0:05.294',-0.835,-0.575
'0:05.297',-0.830,-0.575
'0:05.300',-0.830,-0.595
'0:05.303',-0.820,-0.655
'0:05.306',-0.800,-0.760
'0:05.308',-0.770,-0.885
'0:05.311',-0.705,-1.050
'0:05.314',-0.620,-1.215
'0:05.317',-0.510,-1.370
'0:05.319',-0.365,-1.510
'0:05.322',-0.235,-1.585
'0:05.325',-0.105,-1.605
'0:05.328',0.015,-1.580
'0:05.331',0.100,-1.490
'0:05.333',0.155,-1.390
'0:05.336',0.205,-1.280
'0:05.339',0.215,-1.160
'0:05.342',0.240,-1.075
'0:05.344',0.245,-0.995
'0:05.347',0.245,-0.920
'0:05.350',0.220,-0.845
'0:05.353',0.175,-0.770
'0:05.356',0.125,-0.710
'0:05.358',0.075,-0.645
'0:05.361',0.020,-0.615
'0:05.364',-0.045,-0.595
'0:05.367',-0.130,-0.595
'0:05.369',-0.220,-0.590
'0:05.372',-0.300,-0.600
'0:05.375',-0.390,-0.590
'0:05.378',-0.485,-0.590
'0:05.381',-0.575,-0.590
'0:05.383',-0.645,-0.580
'0:05.386',-0.710,-0.580
'0:05.389',-0.755,-0.550
'0:05.392',-0.780,-0.550
'0:05.394',-0.805,-0.535
'0:05.397',-0.805,-0.535
'0:05.400',-0.815,-0.535
'0:05.403',-0.805,-0.545
'0:05.406',-0.820,-0.565
'0:05.408',-0.825,-0.565
'0:05.411',-0.825,-0.570
'0:05.414',-0.825,-0.565
'0:05.417',-0.820,-0.550
'0:05.419',-0.815,-0.540
'0:05.422',-0.805,-0.525
'0:05.425',-0.800,-0.515
'0:05.428',-0.805,-0.510
'0:05.431',-0.805,-0.510
'0:05.433',-0.805,-0.520
'0:05.436',-0.795,-0.520
'0:05.439',-0.810,-0.545
'0:05.442',-0.815,-0.560
'0:05.444',-0.805,-0.565
'0:05.447',-0.815,-0.575
'0:05.450',-0.795,-0.565
'0:05.453',-0.790,-0.550
'0:05.456',-0.785,-0.555
'0:05.458',-0.785,-0.545
'0:05.461',-0.775,-0.540
'0:05.464',-0.765,-0.545
'0:05.467',-0.765,-0.540
'0:05.469',-0.775,-0.545
'0:05.472',-0.780,-0.550
'0:05.475',-0.785,-0.555
'0:05.478',-0.785,-0.565
'0:05.481',-0.780,-0.550
'0:05.483',-0.785,-0.540
'0:05.486',-0.775,-0.530
'0:05.489',-0.775,-0.505
'0:05.492',-0.745,-0.500
'0:05.494',-0.740,-0.530
'0:05.497',-0.740,-0.555
'0:05.500',-0.745,-0.570
'0:05.503',-0.755,-0.575
'0:05.506',-0.770,-0.585
'0:05.508',-0.760,-0.560
'0:05.511',-0.755,-0.540
'0:05.514',-0.755,-0.530
'0:05.517',-0.750,-0.525
'0:05.519',-0.745,-0.540
'0:05.522',-0.740,-0.550
'0:05.525',-0.720,-0.555
'0:05.528',-0.720,-0.550
'0:05.531',-0.725,-0.550
'0:05.533',-0.740,-0.545
'0:05.536',-0.740,-0.545
'0:05.539',-0.735,-0.555
'0:05.542',-0.740,-0.570
'0:05.544',-0.735,-0.575
'0:05.547',-0.750,-0.580
'0:05.550',-0.735,-0.570
'0:05.553',-0.725,-0.545
'0:05.556',-0.710,-0.530
'0:05.558',-0.695,-0.520
'0:05.561',-0.685,-0.525
'0:05.564',-0.685,-0.530
'0:05.567',-0.705,-0.535
'0:05.569',-0.715,-0.540
'0:05.572',-0.720,-0.565
'0:05.575',-0.715,-0.570
'0:05.578',-0.710,-0.565
'0:05.581',-0.710,-0.550
'0:05.583',-0.700,-0.540
'0:05.586',-0.690,-0.525
'0:05.589',-0.680,-0.515
'0:05.592',-0.670,-0.510
'0:05.594',-0.670,-0.525
'0:05.597',-0.665,-0.530
'0:05.600',-0.680,-0.560
'0:05.603',-0.680,-0.570
'0:05.606',-0.685,-0.575
'0:05.608',-0.685,-0.585
'0:05.611',-0.685,-0.575
'0:05.614',-0.695,-0.570
'0:05.617',-0.690,-0.585
'0:05.619',-0.690,-0.585
'0:05.622',-0.695,-0.585
'0:05.625',-0.685,-0.565
'0:05.628',-0.680,-0.585
'0:05.631',-0.690,-0.575
'0:05.633',-0.695,-0.565
'0:05.636',-0.700,-0.560
'0:05.639',-0.720,-0.570
'0:05.642',-0.720,-0.580
'0:05.644',-0.740,-0.595
'0:05.647',-0.760,-0.590
'0:05.650',-0.755,-0.580
'0:05.653',-0.750,-0.575
'0:05.656',-0.755,-0.570
'0:05.658',-0.750,-0.565
'0:05.661',-0.765,-0.575
'0:05.664',-0.780,-0.590
'0:05.667',-0.790,-0.610
'0:05.669',-0.795,-0.610
'0:05.672',-0.805,-0.615
'0:05.675',-0.820,-0.610
'0:05.678',-0.825,-0.610
'0:05.681',-0.835,-0.590
'0:05.683',-0.835,-0.585
'0:05.686',-0.850,-0.580
'0:05.689',-0.845,-0.570
'0:05.692',-0.835,-0.570
'0:05.694',-0.840,-0.565
'0:05.697',-0.855,-0.575
'0:05.700',-0.865,-0.580
'0:05.703',-0.870,-0.590
'0:05.706',-0.875,-0.590
'0:05.708',-0.880,-0.590
'0:05.711',-0.895,-0.595
'0:05.714',-0.900,-0.580
'0:05.717',-0.895,-0.565
'0:05.719',-0.890,-0.565
'0:05.722',-0.885,-0.565
'0:05.725',-0.865,-0.570
'0:05.728',-0.860,-0.585
'0:05.731',-0.845,-0.590
'0:05.733',-0.850,-0.605
'0:05.736',-0.845,-0.600
'0:05.739',-0.875,-0.605
'0:05.742',-0.880,-0.595
'0:05.744',-0.875,-0.585
'0:05.747',-0.870,-0.580
'0:05.750',-0.865,-0.580
'0:05.753',-0.860,-0.575
'0:05.756',-0.850,-0.560
'0:05.758',-0.840,-0.580
'0:05.761',-0.845,-0.575
'0:05.764',-0.845,-0.590
'0:05.767',-0.850,-0.590
'0:05.769',-0.855,-0.605
'0:05.772',-0.860,-0.585
'0:05.775',-0.865,-0.595
'0:05.778',-0.875,-0.585
'0:05.781',-0.870,-0.575
'0:05.783',-0.875,-0.580
'0:05.786',-0.880,-0.570
'0:05.789',-0.870,-0.560
'0:05.792',-0.865,-0.560
'0:05.794',-0.860,-0.560
'0:05.797',-0.860,-0.550
'0:05.800',-0.860,-0.555
'0:05.803',-0.880,-0.570
'0:05.806',-0.880,-0.580
'0:05.808',-0.890,-0.600
'0:05.811',-0.895,-0.605
'0:05.814',-0.900,-0.605
'0:05.817',-0.890,-0.585
'0:05.819',-0.895,-0.565
'0:05.822',-0.885,-0.550
'0:05.825',-0.875,-0.550
'0:05.828',-0.885,-0.550
'0:05.831',-0.885,-0.560
'0:05.833',-0.895,-0.580
'0:05.836',-0.895,-0.600
'0:05.839',-0.900,-0.605
'0:05.842',-0.915,-0.600
'0:05.844',-0.915,-0.585
'0:05.847',-0.920,-0.570
'0:05.850',-0.920,-0.575
'0:05.853',-0.910,-0.570
'0:05.856',-0.900,-0.570
'0:05.858',-0.895,-0.555
'0:05.861',-0.875,-0.570
'0:05.864',-0.880,-0.575
'0:05.867',-0.880,-0.580
'0:05.869',-0.880,-0.575
'0:05.872',-0.880,-0.590
'0:05.875',-0.900,-0.600
'0:05.878',-0.915,-0.590
'0:05.881',-0.905,-0.590
'0:05.883',-0.900,-0.580
'0:05.886',-0.890,-0.580
'0:05.889',-0.890,-0.570
'0:05.892',-0.875,-0.570
'0:05.894',-0.875,-0.570
'0:05.897',-0.870,-0.570
'0:05.900',-0.870,-0.585
'0:05.903',-0.895,-0.590
'0:05.906',-0.890,-0.600
'0:05.908',-0.880,-0.610
'0:05.911',-0.895,-0.595
'0:05.914',-0.890,-0.585
'0:05.917',-0.885,-0.585
'0:05.919',-0.880,-0.570
'0:05.922',-0.880,-0.570
'0:05.925',-0.880,-0.565
'0:05.928',-0.870,-0.575
'0:05.931',-0.870,-0.580
'0:05.933',-0.865,-0.585
'0:05.936',-0.870,-0.590
'0:05.939',-0.865,-0.600
'0:05.942',-0.870,-0.600
'0:05.944',-0.875,-0.595
'0:05.947',-0.880,-0.600
'0:05.950',-0.865,-0.585
'0:05.953',-0.870,-0.575
'0:05.956',-0.850,-0.575
'0:05.958',-0.850,-0.560
'0:05.961',-0.850,-0.575
'0:05.964',-0.850,-0.580
'0:05.967',-0.850,-0.585
'0:05.969',-0.870,-0.600
'0:05.972',-0.875,-0.595
'0:05.975',-0.860,-0.600
'0:05.978',-0.875,-0.590
'0:05.981',-0.865,-0.590
'0:05.983',-0.855,-0.590
'0:05.986',-0.855,-0.575
'0:05.989',-0.845,-0.570
'0:05.992',-0.835,-0.585
'0:05.994',-0.830,-0.590
'0:05.997',-0.835,-0.580
'0:06.000',-0.845,-0.585
'0:06.003',-0.840,-0.585
'0:06.006',-0.850,-0.595
'0:06.008',-0.870,-0.595
'0:06.011',-0.865,-0.595
'0:06.014',-0.865,-0.595
'0:06.017',-0.845,-0.590
'0:06.019',-0.840,-0.570
'0:06.022',-0.840,-0.565
'0:06.025',-0.830,-0.570
'0:06.028',-0.820,-0.580
'0:06.031',-0.825,-0.575
'0:06.033',-0.830,-0.585
'0:06.036',-0.835,-0.600
'0:06.039',-0.860,-0.600
'0:06.042',-0.860,-0.605
'0:06.044',-0.855,-0.605
'0:06.047',-0.850,-0.590
'0:06.050',-0.835,-0.580
'0:06.053',-0.820,-0.580
'0:06.056',-0.815,-0.575
'0:06.058',-0.810,-0.580
'0:06.061',-0.820,-0.580
'0:06.064',-0.825,-0.575
'0:06.067',-0.820,-0.585
'0:06.069',-0.825,-0.590
'0:06.072',-0.820,-0.590
'0:06.075',-0.825,-0.605
'0:06.078',-0.840,-0.590
'0:06.081',-0.845,-0.585
'0:06.083',-0.845,-0.585
'0:06.086',-0.830,-0.570
'0:06.089',-0.835,-0.560
'0:06.092',-0.820,-0.555
'0:06.094',-0.820,-0.550
'0:06.097',-0.800,-0.555
'0:06.100',-0.810,-0.580
'0:06.103',-0.810,-0.585
'0:06.106',-0.820,-0.585
'0:06.108',-0.840,-0.600
'0:06.111',-0.835,-0.580
'0:06.114',-0.850,-0.570
'0:06.117',-0.830,-0.570
'0:06.119',-0.820,-0.565
'0:06.122',-0.810,-0.555
'0:06.125',-0.805,-0.545
'0:06.128',-0.825,-0.560
'0:06.131',-0.815,-0.570
'0:06.133',-0.825,-0.595
'0:06.136',-0.830,-0.580
'0:06.139',-0.825,-0.580
'0:06.142',-0.835,-0.570
'0:06.144',-0.840,-0.570
'0:06.147',-0.815,-0.565
'0:06.150',-0.810,-0.560
'0:06.153',-0.815,-0.565
'0:06.156',-0.805,-0.555
'0:06.158',-0.780,-0.545
'0:06.161',-0.765,-0.550
'0:06.164',-0.745,-0.545
'0:06.167',-0.735,-0.560
'0:06.169',-0.740,-0.575
'0:06.172',-0.755,-0.595
'0:06.175',-0.770,-0.615
'0:06.178',-0.775,-0.635
'0:06.181',-0.780,-0.650
'0:06.183',-0.770,-0.650
'0:06.186',-0.750,-0.650
'0:06.189',-0.735,-0.630
'0:06.192',-0.725,-0.620
'0:06.194',-0.720,-0.625
'0:06.197',-0.730,-0.620
'0:06.200',-0.725,-0.625
'0:06.203',-0.740,-0.625
'0:06.206',-0.745,-0.640
'0:06.208',-0.750,-0.640
'0:06.211',-0.760,-0.625
'0:06.214',-0.750,-0.600
'0:06.217',-0.740,-0.590
'0:06.219',-0.710,-0.580
'0:06.222',-0.700,-0.575
'0:06.225',-0.700,-0.580
'0:06.228',-0.700,-0.595
'0:06.231',-0.695,-0.595
'0:06.233',-0.695,-0.590
'0:06.236',-0.695,-0.590
'0:06.239',-0.725,-0.580
'0:06.242',-0.735,-0.585
'0:06.244',-0.735,-0.585
'0:06.247',-0.755,-0.580
'0:06.250',-0.745,-0.565
'0:06.253',-0.745,-0.575
'0:06.256',-0.745,-0.550
'0:06.258',-0.735,-0.555
'0:06.261',-0.730,-0.550
'0:06.264',-0.730,-0.565
'0:06.267',-0.725,-0.570
'0:06.269',-0.730,-0.575
'0:06.272',-0.735,-0.570
'0:06.275',-0.730,-0.575
'0:06.278',-0.740,-0.570
'0:06.281',-0.740,-0.580
'0:06.283',-0.730,-0.565
'0:06.286',-0.730,-0.545
'0:06.289',-0.720,-0.525
'0:06.292',-0.710,-0.520
'0:06.294',-0.690,-0.520
'0:06.297',-0.685,-0.535
'0:06.300',-0.670,-0.565
'0:06.303',-0.660,-0.650
'0:06.306',-0.640,-0.780
'0:06.308',-0.600,-0.945
'0:06.311',-0.515,-1.150
'0:06.314',-0.400,-1.340
'0:06.317',-0.245,-1.515
'0:06.319',-0.080,-1.615
'0:06.322',0.065,-1.640
'0:06.325',0.200,-1.580
'0:06.328',0.300,-1.455
'0:06.331',0.355,-1.300
'0:06.333',0.390,-1.155
'0:06.336',0.410,-1.030
'0:06.339',0.410,-0.925
'0:06.342',0.410,-0.860
'0:06.344',0.395,-0.780
'0:06.347',0.375,-0.715
'0:06.350',0.320,-0.640
'0:06.353',0.260,-0.590
'0:06.356',0.210,-0.550
'0:06.358',0.145,-0.520
'0:06.361',0.055,-0.515
'0:06.364',-0.060,-0.515
'0:06.367',-0.170,-0.515
'0:06.369',-0.295,-0.525
'0:06.372',-0.405,-0.540
'0:06.375',-0.500,-0.530
'0:06.378',-0.585,-0.520
'0:06.381',-0.615,-0.500
'0:06.383',-0.655,-0.475
'0:06.386',-0.655,-0.475
'0:06.389',-0.645,-0.475
'0:06.392',-0.635,-0.475
'0:06.394',-0.645,-0.490
'0:06.397',-0.645,-0.505
'0:06.400',-0.640,-0.515
'0:06.403',-0.640,-0.515
'0:06.406',-0.660,-0.505
'0:06.408',-0.665,-0.505
'0:06.411',-0.665,-0.510
'0:06.414',-0.655,-0.500
'0:06.417',-0.660,-0.485
'0:06.419',-0.660,-0.475
'0:06.422',-0.635,-0.460
'0:06.425',-0.620,-0.455
'0:06.428',-0.620,-0.455
'0:06.431',-0.620,-0.465
'0:06.433',-0.630,-0.475
'0:06.436',-0.630,-0.485
'0:06.439',-0.640,-0.485
'0:06.442',-0.660,-0.490
'0:06.444',-0.645,-0.495
'0:06.447',-0.645,-0.485
'0:06.450',-0.635,-0.480
'0:06.453',-0.635,-0.475
'0:06.456',-0.615,-0.460
'0:06.458',-0.600,-0.455
'0:06.461',-0.595,-0.460
'0:06.464',-0.605,-0.465
'0:06.467',-0.600,-0.470
'0:06.469',-0.600,-0.470
'0:06.472',-0.610,-0.475
'0:06.475',-0.620,-0.480
'0:06.478',-0.625,-0.470
'0:06.481',-0.625,-0.475
'0:06.483',-0.625,-0.465
'0:06.486',-0.610,-0.470
'0:06.489',-0.605,-0.465
'0:06.492',-0.585,-0.470
'0:06.494',-0.570,-0.475
'0:06.497',-0.560,-0.470
'0:06.500',-0.560,-0.485
'0:06.503',-0.555,-0.480
'0:06.506',-0.560,-0.475
'0:06.508',-0.575,-0.490
'0:06.511',-0.585,-0.480
'0:06.514',-0.570,-0.480
'0:06.517',-0.570,-0.475
'0:06.519',-0.560,-0.475
'0:06.522',-0.560,-0.475
'0:06.525',-0.555,-0.450
'0:06.528',-0.545,-0.455
'0:06.531',-0.550,-0.460
'0:06.533',-0.530,-0.465
'0:06.536',-0.535,-0.475
'0:06.539',-0.540,-0.475
'0:06.542',-0.535,-0.460
'0:06.544',-0.545,-0.465
'0:06.547',-0.545,-0.480
'0:06.550',-0.545,-0.475
'0:06.553',-0.540,-0.475
'0:06.556',-0.540,-0.470
'0:06.558',-0.530,-0.470
'0:06.561',-0.515,-0.465
'0:06.564',-0.520,-0.470
'0:06.567',-0.505,-0.465
'0:06.569',-0.505,-0.465
'0:06.572',-0.510,-0.470
'0:06.575',-0.515,-0.490
'0:06.578',-0.520,-0.485
'0:06.581',-0.520,-0.490
'0:06.583',-0.520,-0.485
'0:06.586',-0.510,-0.465
'0:06.589',-0.510,-0.475
'0:06.592',-0.500,-0.460
'0:06.594',-0.490,-0.465
'0:06.597',-0.485,-0.465
'0:06.600',-0.475,-0.460
'0:06.603',-0.490,-0.475
'0:06.606',-0.485,-0.485
'0:06.608',-0.500,-0.500
'0:06.611',-0.515,-0.520
'0:06.614',-0.525,-0.530
'0:06.617',-0.530,-0.540
'0:06.619',-0.520,-0.535
'0:06.622',-0.505,-0.515
'0:06.625',-0.495,-0.500
'0:06.628',-0.485,-0.505
'0:06.631',-0.495,-0.490
'0:06.633',-0.515,-0.490
'0:06.636',-0.535,-0.505
'0:06.639',-0.545,-0.515
'0:06.642',-0.550,-0.510
'0:06.644',-0.555,-0.505
'0:06.647',-0.550,-0.515
'0:06.650',-0.555,-0.535
'0:06.653',-0.555,-0.555
'0:06.656',-0.550,-0.565
'0:06.658',-0.550,-0.560
'0:06.661',-0.560,-0.550
'0:06.664',-0.560,-0.535
'0:06.667',-0.585,-0.510
'0:06.669',-0.605,-0.500
'0:06.672',-0.610,-0.510
'0:06.675',-0.620,-0.530
'0:06.678',-0.635,-0.520
'0:06.681',-0.640,-0.530
'0:06.683',-0.655,-0.515
'0:06.686',-0.645,-0.530
'0:06.689',-0.660,-0.550
'0:06.692',-0.660,-0.550
'0:06.694',-0.655,-0.580
'0:06.697',-0.650,-0.580
'0:06.700',-0.655,-0.570
'0:06.703',-0.660,-0.570
'0:06.706',-0.665,-0.560
'0:06.708',-0.685,-0.535
'0:06.711',-0.695,-0.530
'0:06.714',-0.690,-0.530
'0:06.717',-0.690,-0.500
'0:06.719',-0.675,-0.490
'0:06.722',-0.665,-0.500
'0:06.725',-0.660,-0.505
'0:06.728',-0.640,-0.545
'0:06.731',-0.650,-0.550
'0:06.733',-0.640,-0.550
'0:06.736',-0.650,-0.550
'0:06.739',-0.660,-0.520
'0:06.742',-0.670,-0.505
'0:06.744',-0.680,-0.490
'0:06.747',-0.670,-0.470
'0:06.750',-0.680,-0.485
'0:06.753',-0.670,-0.495
'0:06.756',-0.665,-0.520
'0:06.758',-0.660,-0.510
'0:06.761',-0.655,-0.530
'0:06.764',-0.655,-0.530
'0:06.767',-0.665,-0.565
'0:06.769',-0.665,-0.565
'0:06.772',-0.680,-0.585
'0:06.775',-0.690,-0.575
'0:06.778',-0.690,-0.575
'0:06.781',-0.685,-0.550
'0:06.783',-0.680,-0.525
'0:06.786',-0.660,-0.505
'0:06.789',-0.660,-0.500
'0:06.792',-0.665,-0.490
'0:06.794',-0.660,-0.525
'0:06.797',-0.665,-0.540
'0:06.800',-0.675,-0.545
'0:06.803',-0.675,-0.550
'0:06.806',-0.675,-0.545
'0:06.808',-0.690,-0.535
'0:06.811',-0.695,-0.540
'0:06.814',-0.700,-0.530
'0:06.817',-0.705,-0.520
'0:06.819',-0.725,-0.510
'0:06.822',-0.715,-0.500
'0:06.825',-0.705,-0.495
'0:06.828',-0.705,-0.510
'0:06.831',-0.700,-0.520
'0:06.833',-0.705,-0.520
'0:06.836',-0.720,-0.535
'0:06.839',-0.725,-0.540
'0:06.842',-0.725,-0.540
'0:06.844',-0.730,-0.540
'0:06.847',-0.720,-0.545
'0:06.850',-0.710,-0.530
'0:06.853',-0.720,-0.525
'0:06.856',-0.715,-0.515
'0:06.858',-0.705,-0.510
'0:06.861',-0.705,-0.510
'0:06.864',-0.705,-0.510
'0:06.867',-0.710,-0.520
'0:06.869',-0.715,-0.535
'0:06.872',-0.720,-0.530
'0:06.875',-0.715,-0.540
'0:06.878',-0.725,-0.545
'0:06.881',-0.735,-0.545
'0:06.883',-0.720,-0.525
'0:06.886',-0.720,-0.535
'0:06.889',-0.700,-0.520
'0:06.892',-0.695,-0.515
'0:06.894',-0.695,-0.525
'0:06.897',-0.695,-0.530
'0:06.900',-0.700,-0.525
'0:06.903',-0.710,-0.540
'0:06.906',-0.705,-0.550
'0:06.908',-0.720,-0.560
'0:06.911',-0.715,-0.555
'0:06.914',-0.715,-0.560
'0:06.917',-0.705,-0.550
'0:06.919',-0.690,-0.540
'0:06.922',-0.690,-0.530
'0:06.925',-0.685,-0.515
'0:06.928',-0.680,-0.540
'0:06.931',-0.695,-0.545
'0:06.933',-0.685,-0.550
'0:06.936',-0.685,-0.560
'0:06.939',-0.695,-0.560
'0:06.942',-0.695,-0.555
'0:06.944',-0.700,-0.555
'0:06.947',-0.690,-0.550
'0:06.950',-0.695,-0.540
'0:06.953',-0.695,-0.545
'0:06.956',-0.690,-0.540
'0:06.958',-0.680,-0.535
'0:06.961',-0.675,-0.545
'0:06.964',-0.675,-0.555
'0:06.967',-0.675,-0.560
'0:06.969',-0.680,-0.575
'0:06.972',-0.675,-0.570
'0:06.975',-0.680,-0.575
'0:06.978',-0.685,-0.570
'0:06.981',-0.685,-0.570
'0:06.983',-0.685,-0.550
'0:06.986',-0.680,-0.555
'0:06.989',-0.680,-0.555
'0:06.992',-0.670,-0.540
'0:06.994',-0.665,-0.545
'0:06.997',-0.670,-0.545
'0:07.000',-0.660,-0.550
'0:07.003',-0.665,-0.555
'0:07.006',-0.675,-0.560
'0:07.008',-0.680,-0.565
'0:07.011',-0.690,-0.570
'0:07.014',-0.690,-0.565
'0:07.017',-0.680,-0.550
'0:07.019',-0.665,-0.555
'0:07.022',-0.660,-0.550
'0:07.025',-0.665,-0.545
'0:07.028',-0.655,-0.545
'0:07.031',-0.665,-0.555
'0:07.033',-0.670,-0.555
'0:07.036',-0.675,-0.570
'0:07.039',-0.675,-0.575
'0:07.042',-0.705,-0.570
'0:07.044',-0.710,-0.565
'0:07.047',-0.695,-0.575
'0:07.050',-0.695,-0.570
'0:07.053',-0.695,-0.565
'0:07.056',-0.685,-0.550
'0:07.058',-0.665,-0.540
'0:07.061',-0.660,-0.540
'0:07.064',-0.665,-0.550
'0:07.067',-0.670,-0.550
'0:07.069',-0.695,-0.555
'0:07.072',-0.690,-0.570
'0:07.075',-0.690,-0.575
'0:07.078',-0.700,-0.575
'0:07.081',-0.690,-0.580
'0:07.083',-0.690,-0.565
'0:07.086',-0.680,-0.555
'0:07.089',-0.675,-0.555
'0:07.092',-0.680,-0.545
'0:07.094',-0.675,-0.550
'0:07.097',-0.670,-0.565
'0:07.100',-0.665,-0.565
'0:07.103',-0.670,-0.565
'0:07.106',-0.670,-0.570
'0:07.108',-0.695,-0.575
'0:07.111',-0.705,-0.580
'0:07.114',-0.700,-0.580
'0:07.117',-0.695,-0.570
'0:07.119',-0.690,-0.565
'0:07.122',-0.680,-0.560
'0:07.125',-0.675,-0.550
'0:07.128',-0.675,-0.545
'0:07.131',-0.670,-0.555
'0:07.133',-0.685,-0.565
'0:07.136',-0.680,-0.585
'0:07.139',-0.675,-0.575
'0:07.142',-0.685,-0.575
'0:07.144',-0.690,-0.570
'0:07.147',-0.685,-0.565
'0:07.150',-0.680,-0.550
'0:07.153',-0.680,-0.550
'0:07.156',-0.685,-0.540
'0:07.158',-0.660,-0.530
'0:07.161',-0.645,-0.540
'0:07.164',-0.645,-0.550
'0:07.167',-0.625,-0.545
'0:07.169',-0.620,-0.560
'0:07.172',-0.620,-0.565
'0:07.175',-0.630,-0.590
'0:07.178',-0.630,-0.595
'0:07.181',-0.635,-0.605
'0:07.183',-0.635,-0.625
'0:07.186',-0.635,-0.645
'0:07.189',-0.625,-0.635
'0:07.192',-0.615,-0.640
'0:07.194',-0.605,-0.640
'0:07.197',-0.610,-0.630
'0:07.200',-0.610,-0.630
'0:07.203',-0.620,-0.625
'0:07.206',-0.630,-0.630
'0:07.208',-0.630,-0.630
'0:07.211',-0.645,-0.635
'0:07.214',-0.640,-0.630
'0:07.217',-0.635,-0.615
'0:07.219',-0.620,-0.605
'0:07.222',-0.625,-0.590
'0:07.225',-0.600,-0.585
'0:07.228',-0.610,-0.575
'0:07.231',-0.605,-0.575
'0:07.233',-0.615,-0.570
'0:07.236',-0.630,-0.570
'0:07.239',-0.650,-0.575
'0:07.242',-0.660,-0.575
'0:07.244',-0.670,-0.575
'0:07.247',-0.670,-0.585
'0:07.250',-0.680,-0.575
'0:07.253',-0.685,-0.570
'0:07.256',-0.680,-0.560
'0:07.258',-0.675,-0.545
'0:07.261',-0.675,-0.555
'0:07.264',-0.675,-0.555
'0:07.267',-0.685,-0.560
'0:07.269',-0.705,-0.570
'0:07.272',-0.710,-0.570
'0:07.275',-0.715,-0.585
'0:07.278',-0.720,-0.585
'0:07.281',-0.705,-0.575
'0:07.283',-0.690,-0.560
'0:07.286',-0.680,-0.540
'0:07.289',-0.675,-0.525
'0:07.292',-0.650,-0.510
'0:07.294',-0.650,-0.500
'0:07.297',-0.655,-0.525
'0:07.300',-0.650,-0.570
'0:07.303',-0.645,-0.660
'0:07.306',-0.635,-0.785
'0:07.308',-0.595,-0.955
'0:07.311',-0.530,-1.145
'0:07.314',-0.435,-1.375
'0:07.317',-0.315,-1.575
'0:07.319',-0.170,-1.745
'0:07.322',-0.020,-1.820
'0:07.325',0.115,-1.765
'0:07.328',0.220,-1.610
'0:07.331',0.275,-1.405
'0:07.333',0.345,-1.200
'0:07.336',0.395,-1.025
'0:07.339',0.425,-0.900
'0:07.342',0.400,-0.790
'0:07.344',0.360,-0.710
'0:07.347',0.290,-0.640
'0:07.350',0.210,-0.585
'0:07.353',0.120,-0.550
'0:07.356',0.040,-0.535
'0:07.358',-0.055,-0.525
'0:07.361',-0.155,-0.535
'0:07.364',-0.260,-0.525
'0:07.367',-0.350,-0.520
'0:07.369',-0.450,-0.530
'0:07.372',-0.520,-0.515
'0:07.375',-0.570,-0.515
'0:07.378',-0.630,-0.525
'0:07.381',-0.665,-0.520
'0:07.383',-0.675,-0.500
'0:07.386',-0.670,-0.495
'0:07.389',-0.665,-0.485
'0:07.392',-0.670,-0.470
'0:07.394',-0.655,-0.475
'0:07.397',-0.650,-0.485
'0:07.400',-0.650,-0.470
'0:07.403',-0.640,-0.490
'0:07.406',-0.650,-0.495
'0:07.408',-0.660,-0.485
'0:07.411',-0.665,-0.495
'0:07.414',-0.655,-0.490
'0:07.417',-0.660,-0.480
'0:07.419',-0.645,-0.480
'0:07.422',-0.640,-0.460
'0:07.425',-0.630,-0.450
'0:07.428',-0.625,-0.455
'0:07.431',-0.620,-0.470
'0:07.433',-0.630,-0.465
'0:07.436',-0.645,-0.475
'0:07.439',-0.650,-0.480
'0:07.442',-0.655,-0.485
'0:07.444',-0.655,-0.490
'0:07.447',-0.650,-0.485
'0:07.450',-0.645,-0.470
'0:07.453',-0.640,-0.460
'0:07.456',-0.625,-0.455
'0:07.458',-0.625,-0.450
'0:07.461',-0.615,-0.455
'0:07.464',-0.615,-0.470
'0:07.467',-0.615,-0.465
'0:07.469',-0.620,-0.475
'0:07.472',-0.630,-0.480
'0:07.475',-0.625,-0.480
'0:07.478',-0.625,-0.475
'0:07.481',-0.635,-0.465
'0:07.483',-0.630,-0.465
'0:07.486',-0.625,-0.465
'0:07.489',-0.620,-0.455
'0:07.492',-0.620,-0.455
'0:07.494',-0.605,-0.470
'0:07.497',-0.610,-0.460
'0:07.500',-0.600,-0.470
'0:07.503',-0.620,-0.465
'0:07.506',-0.610,-0.475
'0:07.508',-0.610,-0.475
'0:07.511',-0.630,-0.475
'0:07.514',-0.625,-0.475
'0:07.517',-0.625,-0.480
'0:07.519',-0.615,-0.465
'0:07.522',-0.610,-0.455
'0:07.525',-0.595,-0.450
'0:07.528',-0.590,-0.455
'0:07.531',-0.580,-0.460
'0:07.533',-0.585,-0.470
'0:07.536',-0.590,-0.475
'0:07.539',-0.600,-0.475
'0:07.542',-0.600,-0.485
'0:07.544',-0.605,-0.480
'0:07.547',-0.590,-0.485
'0:07.550',-0.595,-0.480
'0:07.553',-0.585,-0.460
'0:07.556',-0.565,-0.475
'0:07.558',-0.565,-0.450
'0:07.561',-0.565,-0.455
'0:07.564',-0.560,-0.460
'0:07.567',-0.585,-0.470
'0:07.569',-0.585,-0.465
'0:07.572',-0.565,-0.485
'0:07.575',-0.570,-0.475
'0:07.578',-0.590,-0.485
'0:07.581',-0.580,-0.485
'0:07.583',-0.580,-0.465
'0:07.586',-0.575,-0.475
'0:07.589',-0.575,-0.475
'0:07.592',-0.570,-0.475
'0:07.594',-0.570,-0.470
'0:07.597',-0.555,-0.485
'0:07.600',-0.555,-0.495
'0:07.603',-0.550,-0.510
'0:07.606',-0.565,-0.515
'0:07.608',-0.575,-0.515
'0:07.611',-0.585,-0.510
'0:07.614',-0.595,-0.525
'0:07.617',-0.595,-0.510
'0:07.619',-0.590,-0.500
'0:07.622',-0.590,-0.500
'0:07.625',-0.585,-0.505
'0:07.628',-0.590,-0.515
'0:07.631',-0.600,-0.520
'0:07.633',-0.600,-0.535
'0:07.636',-0.615,-0.545
'0:07.639',-0.625,-0.555
'0:07.642',-0.640,-0.550
'0:07.644',-0.650,-0.555
'0:07.647',-0.670,-0.550
'0:07.650',-0.675,-0.540
'0:07.653',-0.670,-0.545
'0:07.656',-0.670,-0.555
'0:07.658',-0.665,-0.535
'0:07.661',-0.675,-0.535
'0:07.664',-0.675,-0.545
'0:07.667',-0.685,-0.545
'0:07.669',-0.705,-0.545
'0:07.672',-0.720,-0.575
'0:07.675',-0.735,-0.565
'0:07.678',-0.745,-0.570
'0:07.681',-0.745,-0.570
'0:07.683',-0.745,-0.560
'0:07.686',-0.745,-0.545
'0:07.689',-0.745,-0.545
'0:07.692',-0.735,-0.540
'0:07.694',-0.740,-0.555
'0:07.697',-0.750,-0.545
'0:07.700',-0.755,-0.560
'0:07.703',-0.760,-0.560
'0:07.706',-0.760,-0.560
'0:07.708',-0.775,-0.565
'0:07.711',-0.790,-0.565
'0:07.714',-0.775,-0.550
'0:07.717',-0.785,-0.550
'0:07.719',-0.780,-0.555
'0:07.722',-0.765,-0.530
'0:07.725',-0.770,-0.530
'0:07.728',-0.770,-0.525
'0:07.731',-0.765,-0.530
'0:07.733',-0.770,-0.540
'0:07.736',-0.775,-0.535
'0:07.739',-0.785,-0.545
'0:07.742',-0.790,-0.540
'0:07.744',-0.795,-0.560
'0:07.747',-0.805,-0.550
'0:07.750',-0.805,-0.540
'0:07.753',-0.795,-0.535
'0:07.756',-0.790,-0.510
'0:07.758',-0.785,-0.525
'0:07.761',-0.795,-0.520
'0:07.764',-0.795,-0.530
'0:07.767',-0.795,-0.530
'0:07.769',-0.795,-0.530
'0:07.772',-0.810,-0.535
'0:07.775',-0.825,-0.550
'0:07.778',-0.820,-0.540
'0:07.781',-0.835,-0.530
'0:07.783',-0.835,-0.520
'0:07.786',-0.830,-0.525
'0:07.789',-0.825,-0.515
'0:07.792',-0.815,-0.510
'0:07.794',-0.820,-0.515
'0:07.797',-0.825,-0.515
'0:07.800',-0.830,-0.530
'0:07.803',-0.830,-0.530
'0:07.806',-0.845,-0.540
'0:07.808',-0.845,-0.550
'0:07.811',-0.855,-0.535
'0:07.814',-0.855,-0.540
'0:07.817',-0.860,-0.535
'0:07.819',-0.850,-0.530
'0:07.822',-0.855,-0.520
'0:07.825',-0.850,-0.520
'0:07.828',-0.840,-0.535
'0:07.831',-0.850,-0.520
'0:07.833',-0.850,-0.540
'0:07.836',-0.850,-0.555
'0:07.839',-0.870,-0.550
'0:07.842',-0.880,-0.540
'0:07.844',-0.880,-0.560
'0:07.847',-0.890,-0.555
'0:07.850',-0.880,-0.555
'0:07.853',-0.870,-0.540
'0:07.856',-0.870,-0.545
'0:07.858',-0.860,-0.535
'0:07.861',-0.860,-0.535
'0:07.864',-0.865,-0.545
'0:07.867',-0.870,-0.560
'0:07.869',-0.865,-0.560
'0:07.872',-0.870,-0.575
'0:07.875',-0.875,-0.575
'0:07.878',-0.880,-0.570
'0:07.881',-0.875,-0.560
'0:07.883',-0.875,-0.560
'0:07.886',-0.890,-0.545
'0:07.889',-0.870,-0.540
'0:07.892',-0.865,-0.535
'0:07.894',-0.865,-0.535
'0:07.897',-0.855,-0.545
'0:07.900',-0.850,-0.560
'0:07.903',-0.870,-0.565
'0:07.906',-0.875,-0.570
'0:07.908',-0.875,-0.565
'0:07.911',-0.880,-0.570
'0:07.914',-0.880,-0.560
'0:07.917',-0.880,-0.550
'0:07.919',-0.875,-0.555
'0:07.922',-0.865,-0.540
'0:07.925',-0.860,-0.555
'0:07.928',-0.855,-0.560
'0:07.931',-0.855,-0.550
'0:07.933',-0.855,-0.565
'0:07.936',-0.845,-0.580
'0:07.939',-0.860,-0.565
'0:07.942',-0.870,-0.575
'0:07.944',-0.860,-0.580
'0:07.947',-0.870,-0.570
'0:07.950',-0.885,-0.570
'0:07.953',-0.865,-0.560
'0:07.956',-0.865,-0.550
'0:07.958',-0.850,-0.550
'0:07.961',-0.840,-0.550
'0:07.964',-0.835,-0.555
'0:07.967',-0.835,-0.560
'0:07.969',-0.850,-0.575
'0:07.972',-0.845,-0.565
'0:07.975',-0.860,-0.580
'0:07.978',-0.865,-0.575
'0:07.981',-0.865,-0.580
'0:07.983',-0.870,-0.575
'0:07.986',-0.865,-0.565
'0:07.989',-0.865,-0.570
'0:07.992',-0.845,-0.550
'0:07.994',-0.840,-0.545
'0:07.997',-0.835,-0.550
'0:08.000',-0.825,-0.550
'0:08.003',-0.840,-0.565
'0:08.006',-0.860,-0.580
'0:08.008',-0.870,-0.585
'0:08.011',-0.870,-0.575
'0:08.014',-0.870,-0.580
'0:08.017',-0.860,-0.575
'0:08.019',-0.855,-0.565
'0:08.022',-0.835,-0.555
'0:08.025',-0.825,-0.545
'0:08.028',-0.820,-0.550
'0:08.031',-0.825,-0.560
'0:08.033',-0.830,-0.560
'0:08.036',-0.830,-0.560
'0:08.039',-0.850,-0.575
'0:08.042',-0.860,-0.575
'0:08.044',-0.860,-0.580
'0:08.047',-0.860,-0.575
'0:08.050',-0.855,-0.570
'0:08.053',-0.845,-0.555
'0:08.056',-0.840,-0.560
'0:08.058',-0.840,-0.555
'0:08.061',-0.840,-0.550
'0:08.064',-0.835,-0.555
'0:08.067',-0.845,-0.565
'0:08.069',-0.840,-0.580
'0:08.072',-0.830,-0.585
'0:08.075',-0.855,-0.590
'0:08.078',-0.845,-0.580
'0:08.081',-0.830,-0.580
'0:08.083',-0.850,-0.565
'0:08.086',-0.835,-0.550
'0:08.089',-0.835,-0.560
'0:08.092',-0.830,-0.555
'0:08.094',-0.830,-0.560
'0:08.097',-0.835,-0.560
'0:08.100',-0.835,-0.570
'0:08.103',-0.840,-0.585
'0:08.106',-0.850,-0.590
'0:08.108',-0.850,-0.590
'0:08.111',-0.840,-0.590
'0:08.114',-0.850,-0.575
'0:08.117',-0.840,-0.580
'0:08.119',-0.835,-0.570
'0:08.122',-0.825,-0.560
'0:08.125',-0.825,-0.565
'0:08.128',-0.820,-0.565
'0:08.131',-0.820,-0.560
'0:08.133',-0.810,-0.575
'0:08.136',-0.820,-0.575
'0:08.139',-0.815,-0.590
'0:08.142',-0.825,-0.600
'0:08.144',-0.830,-0.595
'0:08.147',-0.830,-0.585
'0:08.150',-0.830,-0.580
'0:08.153',-0.825,-0.565
'0:08.156',-0.825,-0.565
'0:08.158',-0.815,-0.565
'0:08.161',-0.800,-0.560
'0:08.164',-0.800,-0.565
'0:08.167',-0.805,-0.575
'0:08.169',-0.810,-0.570
'0:08.172',-0.820,-0.585
'0:08.175',-0.820,-0.590
'0:08.178',-0.810,-0.575
'0:08.181',-0.820,-0.575
'0:08.183',-0.805,-0.565
'0:08.186',-0.800,-0.560
'0:08.189',-0.785,-0.555
'0:08.192',-0.765,-0.570
'0:08.194',-0.740,-0.580
'0:08.197',-0.750,-0.605
'0:08.200',-0.755,-0.625
'0:08.203',-0.765,-0.650
'0:08.206',-0.770,-0.670
'0:08.208',-0.775,-0.685
'0:08.211',-0.780,-0.695
'0:08.214',-0.785,-0.670
'0:08.217',-0.785,-0.665
'0:08.219',-0.780,-0.650
'0:08.222',-0.790,-0.645
'0:08.225',-0.775,-0.630
'0:08.228',-0.780,-0.625
'0:08.231',-0.765,-0.630
'0:08.233',-0.770,-0.630
'0:08.236',-0.760,-0.645
'0:08.239',-0.765,-0.635
'0:08.242',-0.775,-0.640
'0:08.244',-0.775,-0.640
'0:08.247',-0.775,-0.625
'0:08.250',-0.770,-0.615
'0:08.253',-0.770,-0.590
'0:08.256',-0.770,-0.575
'0:08.258',-0.770,-0.570
'0:08.261',-0.775,-0.560
'0:08.264',-0.790,-0.585
'0:08.267',-0.785,-0.585
'0:08.269',-0.810,-0.585
'0:08.272',-0.825,-0.600
'0:08.275',-0.830,-0.595
'0:08.278',-0.845,-0.605
'0:08.281',-0.840,-0.595
'0:08.283',-0.840,-0.585
'0:08.286',-0.830,-0.575
'0:08.289',-0.825,-0.575
'0:08.292',-0.815,-0.575
'0:08.294',-0.810,-0.580
'0:08.297',-0.815,-0.570
'0:08.300',-0.810,-0.575
'0:08.303',-0.835,-0.590
'0:08.306',-0.840,-0.580
'0:08.308',-0.845,-0.580
'0:08.311',-0.835,-0.590
'0:08.314',-0.835,-0.565
'0:08.317',-0.830,-0.560
'0:08.319',-0.825,-0.540
'0:08.322',-0.815,-0.540
'0:08.325',-0.800,-0.560
'0:08.328',-0.775,-0.625
'0:08.331',-0.765,-0.740
'0:08.333',-0.730,-0.905
'0:08.336',-0.680,-1.120
'0:08.339',-0.590,-1.365
'0:08.342',-0.485,-1.615
'0:08.344',-0.355,-1.830
'0:08.347',-0.235,-1.930
'0:08.350',-0.105,-1.880
'0:08.353',-0.005,-1.740
'0:08.356',0.065,-1.535
'0:08.358',0.115,-1.330
'0:08.361',0.160,-1.145
'0:08.364',0.190,-1.005
'0:08.367',0.210,-0.915
'0:08.369',0.205,-0.840
'0:08.372',0.150,-0.775
'0:08.375',0.100,-0.710
'0:08.378',0.015,-0.660
'0:08.381',-0.050,-0.610
'0:08.383',-0.130,-0.575
'0:08.386',-0.225,-0.560
'0:08.389',-0.320,-0.550
'0:08.392',-0.415,-0.540
'0:08.394',-0.500,-0.535
'0:08.397',-0.570,-0.530
'0:08.400',-0.635,-0.525
'0:08.403',-0.695,-0.525
'0:08.406',-0.740,-0.535
'0:08.408',-0.780,-0.530
'0:08.411',-0.810,-0.535
'0:08.414',-0.815,-0.520
'0:08.417',-0.820,-0.505
'0:08.419',-0.820,-0.495
'0:08.422',-0.810,-0.490
'0:08.425',-0.805,-0.480
'0:08.428',-0.790,-0.495
'0:08.431',-0.795,-0.490
'0:08.433',-0.795,-0.500
'0:08.436',-0.795,-0.495
'0:08.439',-0.810,-0.515
'0:08.442',-0.825,-0.515
'0:08.444',-0.815,-0.510
'0:08.447',-0.815,-0.520
'0:08.450',-0.805,-0.495
'0:08.453',-0.805,-0.485
'0:08.456',-0.810,-0.480
'0:08.458',-0.805,-0.480
'0:08.461',-0.790,-0.480
'0:08.464',-0.785,-0.490
'0:08.467',-0.795,-0.485
'0:08.469',-0.790,-0.490
'0:08.472',-0.800,-0.495
'0:08.475',-0.795,-0.495
'0:08.478',-0.800,-0.495
'0:08.481',-0.800,-0.500
'0:08.483',-0.790,-0.480
'0:08.486',-0.785,-0.480
'0:08.489',-0.775,-0.465
'0:08.492',-0.770,-0.465
'0:08.494',-0.760,-0.475
'0:08.497',-0.760,-0.480
'0:08.500',-0.755,-0.475
'0:08.503',-0.770,-0.485
'0:08.506',-0.770,-0.495
'0:08.508',-0.785,-0.500
'0:08.511',-0.780,-0.495
'0:08.514',-0.775,-0.500
'0:08.517',-0.780,-0.495
'0:08.519',-0.770,-0.490
'0:08.522',-0.765,-0.480
'0:08.525',-0.760,-0.470
'0:08.528',-0.745,-0.465
'0:08.531',-0.750,-0.485
'0:08.533',-0.755,-0.500
'0:08.536',-0.755,-0.495
'0:08.539',-0.760,-0.500
'0:08.542',-0.770,-0.510
'0:08.544',-0.770,-0.505
'0:08.547',-0.760,-0.505
'0:08.550',-0.775,-0.490
'0:08.553',-0.760,-0.485
'0:08.556',-0.765,-0.485
'0:08.558',-0.750,-0.465
'0:08.561',-0.750,-0.485
'0:08.564',-0.740,-0.485
'0:08.567',-0.745,-0.490
'0:08.569',-0.745,-0.495
'0:08.572',-0.755,-0.505
'0:08.575',-0.750,-0.515
'0:08.578',-0.750,-0.505
'0:08.581',-0.750,-0.505
'0:08.583',-0.745,-0.510
'0:08.586',-0.745,-0.495
'0:08.589',-0.735,-0.495
'0:08.592',-0.720,-0.485
'0:08.594',-0.720,-0.485
'0:08.597',-0.715,-0.485
'0:08.600',-0.705,-0.490
'0:08.603',-0.710,-0.500
'0:08.606',-0.705,-0.515
'0:08.608',-0.730,-0.515
'0:08.611',-0.735,-0.525
'0:08.614',-0.740,-0.515
'0:08.617',-0.730,-0.495
'0:08.619',-0.730,-0.495
'0:08.622',-0.735,-0.495
'0:08.625',-0.710,-0.480
'0:08.628',-0.695,-0.490
'0:08.631',-0.690,-0.510
'0:08.633',-0.695,-0.515
'0:08.636',-0.700,-0.520
'0:08.639',-0.710,-0.540
'0:08.642',-0.730,-0.545
'0:08.644',-0.740,-0.550
'0:08.647',-0.745,-0.550
'0:08.650',-0.735,-0.530
'0:08.653',-0.715,-0.535
'0:08.656',-0.725,-0.535
'0:08.658',-0.720,-0.535
'0:08.661',-0.720,-0.530
'0:08.664',-0.735,-0.560
'0:08.667',-0.745,-0.555
'0:08.669',-0.755,-0.560
'0:08.672',-0.760,-0.575
'0:08.675',-0.785,-0.580
'0:08.678',-0.775,-0.575
'0:08.681',-0.795,-0.575
'0:08.683',-0.800,-0.570
'0:08.686',-0.805,-0.560
'0:08.689',-0.815,-0.550
'0:08.692',-0.820,-0.545
'0:08.694',-0.805,-0.545
'0:08.697',-0.810,-0.565
'0:08.700',-0.820,-0.555
'0:08.703',-0.830,-0.570
'0:08.706',-0.840,-0.585
'0:08.708',-0.870,-0.575
'0:08.711',-0.875,-0.595
'0:08.714',-0.885,-0.580
'0:08.717',-0.880,-0.575
'0:08.719',-0.865,-0.560
'0:08.722',-0.875,-0.555
'0:08.725',-0.880,-0.545
'0:08.728',-0.870,-0.560
'0:08.731',-0.880,-0.565
'0:08.733',-0.890,-0.555
'0:08.736',-0.885,-0.560
'0:08.739',-0.900,-0.565
'0:08.742',-0.910,-0.565
'0:08.744',-0.930,-0.575
'0:08.747',-0.930,-0.565
'0:08.750',-0.925,-0.555
'0:08.753',-0.925,-0.560
'0:08.756',-0.915,-0.550
'0:08.758',-0.920,-0.545
'0:08.761',-0.915,-0.540
'0:08.764',-0.910,-0.535
'0:08.767',-0.930,-0.545
'0:08.769',-0.945,-0.545
'0:08.772',-0.940,-0.550
'0:08.775',-0.955,-0.565
'0:08.778',-0.960,-0.555
'0:08.781',-0.965,-0.555
'0:08.783',-0.960,-0.545
'0:08.786',-0.945,-0.535
'0:08.789',-0.945,-0.530
'0:08.792',-0.940,-0.520
'0:08.794',-0.935,-0.515
'0:08.797',-0.920,-0.525
'0:08.800',-0.930,-0.515
'0:08.803',-0.945,-0.540
'0:08.806',-0.950,-0.550
'0:08.808',-0.965,-0.545
'0:08.811',-0.960,-0.545
'0:08.814',-0.965,-0.540
'0:08.817',-0.965,-0.525
'0:08.819',-0.970,-0.525
'0:08.822',-0.960,-0.515
'0:08.825',-0.960,-0.515
'0:08.828',-0.955,-0.515
'0:08.831',-0.960,-0.530
'0:08.833',-0.970,-0.535
'0:08.836',-0.970,-0.530
'0:08.839',-0.985,-0.535
'0:08.842',-0.985,-0.545
'0:08.844',-0.995,-0.540
'0:08.847',-1.000,-0.535
'0:08.850',-1.005,-0.530
'0:08.853',-1.000,-0.535
'0:08.856',-0.990,-0.520
'0:08.858',-0.990,-0.515
'0:08.861',-0.980,-0.520
'0:08.864',-0.995,-0.525
'0:08.867',-1.000,-0.530
'0:08.869',-1.005,-0.530
'0:08.872',-1.005,-0.550
'0:08.875',-1.000,-0.560
'0:08.878',-1.005,-0.560
'0:08.881',-1.005,-0.555
'0:08.883',-1.005,-0.555
'0:08.886',-1.010,-0.545
'0:08.889',-1.010,-0.530
'0:08.892',-1.005,-0.525
'0:08.894',-0.990,-0.520
'0:08.897',-0.995,-0.540
'0:08.900',-0.990,-0.525
'0:08.903',-1.000,-0.540
'0:08.906',-1.000,-0.545
'0:08.908',-1.005,-0.560
'0:08.911',-1.015,-0.570
'0:08.914',-1.020,-0.565
'0:08.917',-1.025,-0.545
'0:08.919',-1.010,-0.545
'0:08.922',-1.020,-0.535
'0:08.925',-0.995,-0.535
'0:08.928',-0.995,-0.535
'0:08.931',-0.990,-0.545
'0:08.933',-1.000,-0.540
'0:08.936',-1.005,-0.545
'0:08.939',-1.005,-0.555
'0:08.942',-1.015,-0.560
'0:08.944',-1.010,-0.565
'0:08.947',-1.010,-0.560
'0:08.950',-1.010,-0.555
'0:08.953',-1.005,-0.550
'0:08.956',-1.000,-0.550
'0:08.958',-0.985,-0.535
'0:08.961',-0.975,-0.540
'0:08.964',-0.990,-0.540
'0:08.967',-0.985,-0.550
'0:08.969',-0.975,-0.560
'0:08.972',-0.995,-0.560
'0:08.975',-1.000,-0.575
'0:08.978',-1.005,-0.560
'0:08.981',-1.010,-0.570
'0:08.983',-1.010,-0.565
'0:08.986',-1.000,-0.550
'0:08.989',-1.005,-0.545
'0:08.992',-0.990,-0.540
'0:08.994',-0.985,-0.540
'0:08.997',-0.985,-0.540
'0:09.000',-0.980,-0.545
'0:09.003',-0.980,-0.555
'0:09.006',-0.995,-0.565
'0:09.008',-1.005,-0.565
'0:09.011',-1.010,-0.580
'0:09.014',-1.010,-0.570
'0:09.017',-1.020,-0.555
'0:09.019',-1.000,-0.555
'0:09.022',-0.995,-0.550
'0:09.025',-0.985,-0.535
'0:09.028',-0.975,-0.545
'0:09.031',-0.975,-0.545
'0:09.033',-0.985,-0.555
'0:09.036',-0.980,-0.550
'0:09.039',-0.995,-0.565
'0:09.042',-1.005,-0.575
'0:09.044',-1.020,-0.580
'0:09.047',-1.015,-0.565
'0:09.050',-1.010,-0.565
'0:09.053',-1.000,-0.565
'0:09.056',-0.985,-0.555
'0:09.058',-0.980,-0.550
'0:09.061',-0.970,-0.550
'0:09.064',-0.980,-0.550
'0:09.067',-0.965,-0.555
'0:09.069',-0.980,-0.565
'0:09.072',-0.980,-0.565
'0:09.075',-0.990,-0.575
'0:09.078',-0.990,-0.570
'0:09.081',-0.995,-0.575
'0:09.083',-0.995,-0.565
'0:09.086',-0.980,-0.560
'0:09.089',-0.985,-0.550
'0:09.092',-0.970,-0.550
'0:09.094',-0.965,-0.535
'0:09.097',-0.970,-0.545
'0:09.100',-0.975,-0.560
'0:09.103',-0.975,-0.560
'0:09.106',-1.000,-0.565
'0:09.108',-0.995,-0.580
'0:09.111',-1.000,-0.570
'0:09.114',-0.990,-0.565
'0:09.117',-0.990,-0.565
'0:09.119',-0.980,-0.555
'0:09.122',-0.985,-0.540
'0:09.125',-0.970,-0.545
'0:09.128',-0.970,-0.540
'0:09.131',-0.965,-0.545
'0:09.133',-0.965,-0.575
'0:09.136',-0.970,-0.570
'0:09.139',-0.985,-0.580
'0:09.142',-0.975,-0.580
'0:09.144',-0.985,-0.570
'0:09.147',-0.985,-0.570
'0:09.150',-0.985,-0.565
'0:09.153',-0.985,-0.550
'0:09.156',-0.970,-0.565
'0:09.158',-0.965,-0.540
'0:09.161',-0.955,-0.535
'0:09.164',-0.950,-0.545
'0:09.167',-0.955,-0.555
'0:09.169',-0.960,-0.575
'0:09.172',-0.980,-0.575
'0:09.175',-0.975,-0.575
'0:09.178',-0.970,-0.575
'0:09.181',-0.970,-0.565
'0:09.183',-0.975,-0.550
'0:09.186',-0.965,-0.555
'0:09.189',-0.965,-0.540
'0:09.192',-0.955,-0.560
'0:09.194',-0.955,-0.545
'0:09.197',-0.950,-0.550
'0:09.200',-0.945,-0.545
'0:09.203',-0.970,-0.555
'0:09.206',-0.955,-0.555
'0:09.208',-0.945,-0.555
'0:09.211',-0.945,-0.555
'0:09.214',-0.925,-0.555
'0:09.217',-0.925,-0.555
'0:09.219',-0.900,-0.555
'0:09.222',-0.905,-0.555
'0:09.225',-0.890,-0.555
'0:09.228',-0.890,-0.575
'0:09.231',-0.905,-0.625
'0:09.233',-0.910,-0.630
'0:09.236',-0.900,-0.655
'0:09.239',-0.895,-0.660
'0:09.242',-0.890,-0.645
'0:09.244',-0.900,-0.640
'0:09.247',-0.895,-0.630
'0:09.250',-0.905,-0.620
'0:09.253',-0.900,-0.610
'0:09.256',-0.895,-0.600
'0:09.258',-0.890,-0.600
'0:09.261',-0.890,-0.600
'0:09.264',-0.895,-0.595
'0:09.267',-0.895,-0.605
'0:09.269',-0.890,-0.590
'0:09.272',-0.905,-0.590
'0:09.275',-0.905,-0.580
'0:09.278',-0.920,-0.570
'0:09.281',-0.925,-0.550
'0:09.283',-0.930,-0.555
'0:09.286',-0.930,-0.545
'0:09.289',-0.930,-0.540
'0:09.292',-0.920,-0.540
'0:09.294',-0.915,-0.540
'0:09.297',-0.925,-0.550
'0:09.300',-0.925,-0.540
'0:09.303',-0.930,-0.550
'0:09.306',-0.945,-0.550
'0:09.308',-0.960,-0.550
'0:09.311',-0.960,-0.565
'0:09.314',-0.955,-0.565
'0:09.317',-0.960,-0.550
'0:09.319',-0.960,-0.545
'0:09.322',-0.965,-0.545
'0:09.325',-0.940,-0.540
'0:09.328',-0.925,-0.530
'0:09.331',-0.925,-0.525
'0:09.333',-0.920,-0.520
'0:09.336',-0.915,-0.525
'0:09.339',-0.920,-0.515
'0:09.342',-0.920,-0.525
'0:09.344',-0.920,-0.540
'0:09.347',-0.900,-0.590
'0:09.350',-0.890,-0.685
'0:09.353',-0.840,-0.810
'0:09.356',-0.780,-0.995
'0:09.358',-0.700,-1.205
'0:09.361',-0.590,-1.410
'0:09.364',-0.485,-1.600
'0:09.367',-0.360,-1.730
'0:09.369',-0.230,-1.790
'0:09.372',-0.150,-1.745
'0:09.375',-0.080,-1.655
'0:09.378',-0.040,-1.510
'0:09.381',-0.005,-1.350
'0:09.383',0.020,-1.200
'0:09.386',0.055,-1.060
'0:09.389',0.080,-0.965
'0:09.392',0.095,-0.880
'0:09.394',0.070,-0.785
'0:09.397',0.010,-0.725
'0:09.400',-0.060,-0.655
'0:09.403',-0.135,-0.610
'0:09.406',-0.220,-0.580
'0:09.408',-0.300,-0.565
'0:09.411',-0.390,-0.550
'0:09.414',-0.485,-0.550
'0:09.417',-0.570,-0.525
'0:09.419',-0.635,-0.495
'0:09.422',-0.690,-0.490
'0:09.425',-0.750,-0.470
'0:09.428',-0.805,-0.470
'0:09.431',-0.845,-0.470
'0:09.433',-0.880,-0.475
'0:09.436',-0.890,-0.485
'0:09.439',-0.895,-0.475
'0:09.442',-0.905,-0.505
'0:09.444',-0.895,-0.480
'0:09.447',-0.895,-0.480
'0:09.450',-0.900,-0.470
'0:09.453',-0.890,-0.465
'0:09.456',-0.885,-0.450
'0:09.458',-0.870,-0.455
'0:09.461',-0.865,-0.450
'0:09.464',-0.865,-0.465
'0:09.467',-0.865,-0.460
'0:09.469',-0.860,-0.465
'0:09.472',-0.875,-0.465
'0:09.475',-0.885,-0.475
'0:09.478',-0.885,-0.485
'0:09.481',-0.885,-0.480
'0:09.483',-0.890,-0.465
'0:09.486',-0.875,-0.460
'0:09.489',-0.860,-0.460
'0:09.492',-0.850,-0.450
'0:09.494',-0.840,-0.465
'0:09.497',-0.835,-0.445
'0:09.500',-0.830,-0.450
'0:09.503',-0.835,-0.455
'0:09.506',-0.840,-0.465
'0:09.508',-0.835,-0.475
'0:09.511',-0.845,-0.480
'0:09.514',-0.845,-0.485
'0:09.517',-0.840,-0.480
'0:09.519',-0.835,-0.470
'0:09.522',-0.825,-0.465
'0:09.525',-0.815,-0.455
'0:09.528',-0.800,-0.445
'0:09.531',-0.800,-0.465
'0:09.533',-0.810,-0.460
'0:09.536',-0.810,-0.480
'0:09.539',-0.815,-0.485
'0:09.542',-0.825,-0.490
'0:09.544',-0.820,-0.500
'0:09.547',-0.825,-0.495
'0:09.550',-0.815,-0.480
'0:09.553',-0.805,-0.465
'0:09.556',-0.805,-0.470
'0:09.558',-0.800,-0.450
'0:09.561',-0.785,-0.460
'0:09.564',-0.790,-0.455
'0:09.567',-0.790,-0.475
'0:09.569',-0.800,-0.485
'0:09.572',-0.800,-0.490
'0:09.575',-0.805,-0.480
'0:09.578',-0.805,-0.490
'0:09.581',-0.805,-0.475
'0:09.583',-0.810,-0.475
'0:09.586',-0.800,-0.465
'0:09.589',-0.800,-0.465
'0:09.592',-0.790,-0.465
'0:09.594',-0.775,-0.450
'0:09.597',-0.780,-0.470
'0:09.600',-0.780,-0.460
'0:09.603',-0.785,-0.485
'0:09.606',-0.785,-0.480
'0:09.608',-0.780,-0.490
'0:09.611',-0.785,-0.485
'0:09.614',-0.780,-0.485
'0:09.617',-0.780,-0.475
'0:09.619',-0.770,-0.470
'0:09.622',-0.775,-0.470
'0:09.625',-0.755,-0.465
'0:09.628',-0.745,-0.455
'0:09.631',-0.735,-0.455
'0:09.633',-0.735,-0.475
'0:09.636',-0.740,-0.490
'0:09.639',-0.745,-0.490
'0:09.642',-0.755,-0.495
'0:09.644',-0.750,-0.505
'0:09.647',-0.755,-0.505
'0:09.650',-0.760,-0.490
'0:09.653',-0.755,-0.490
'0:09.656',-0.750,-0.495
'0:09.658',-0.735,-0.485
'0:09.661',-0.730,-0.490
'0:09.664',-0.730,-0.495
'0:09.667',-0.735,-0.495
'0:09.669',-0.735,-0.505
'0:09.672',-0.755,-0.515
'0:09.675',-0.765,-0.530
'0:09.678',-0.780,-0.520
'0:09.681',-0.780,-0.520
'0:09.683',-0.780,-0.520
'0:09.686',-0.785,-0.505
'0:09.689',-0.780,-0.510
'0:09.692',-0.780,-0.495
'0:09.694',-0.775,-0.505
'0:09.697',-0.790,-0.505
'0:09.700',-0.800,-0.515
'0:09.703',-0.805,-0.515
'0:09.706',-0.825,-0.515
'0:09.708',-0.835,-0.525
'0:09.711',-0.855,-0.530
'0:09.714',-0.860,-0.520
'0:09.717',-0.865,-0.510
'0:09.719',-0.855,-0.510
'0:09.722',-0.870,-0.515
'0:09.725',-0.865,-0.500
'0:09.728',-0.870,-0.505
'0:09.731',-0.880,-0.510
'0:09.733',-0.900,-0.500
'0:09.736',-0.915,-0.530
'0:09.739',-0.915,-0.530
'0:09.742',-0.925,-0.530
'0:09.744',-0.935,-0.530
'0:09.747',-0.945,-0.535
'0:09.750',-0.950,-0.535
'0:09.753',-0.945,-0.525
'0:09.756',-0.940,-0.505
'0:09.758',-0.935,-0.510
'0:09.761',-0.935,-0.500
'0:09.764',-0.940,-0.510
'0:09.767',-0.940,-0.515
'0:09.769',-0.955,-0.520
'0:09.772',-0.960,-0.525
'0:09.775',-0.965,-0.540
'0:09.778',-0.985,-0.540
'0:09.781',-0.985,-0.520
'0:09.783',-0.985,-0.530
'0:09.786',-0.960,-0.520
'0:09.789',-0.955,-0.515
'0:09.792',-0.955,-0.495
'0:09.794',-0.955,-0.495
'0:09.797',-0.960,-0.495
'0:09.800',-0.965,-0.500
'0:09.803',-0.975,-0.515
'0:09.806',-0.980,-0.510
'0:09.808',-0.975,-0.525
'0:09.811',-0.990,-0.525
'0:09.814',-1.010,-0.505
'0:09.817',-1.010,-0.505
'0:09.819',-1.010,-0.490
'0:09.822',-1.005,-0.500
'0:09.825',-0.990,-0.490
'0:09.828',-0.985,-0.490
'0:09.831',-0.995,-0.495
'0:09.833',-0.985,-0.510
'0:09.836',-0.990,-0.510
'0:09.839',-1.005,-0.515
'0:09.842',-1.010,-0.515
'0:09.844',-1.015,-0.530
'0:09.847',-1.035,-0.520
'0:09.850',-1.025,-0.515
'0:09.853',-1.020,-0.500
'0:09.856',-1.030,-0.495
'0:09.858',-1.020,-0.485
'0:09.861',-1.010,-0.490
'0:09.864',-1.015,-0.495
'0:09.867',-1.010,-0.495
'0:09.869',-1.020,-0.500
'0:09.872',-1.035,-0.510
'0:09.875',-1.040,-0.520
'0:09.878',-1.045,-0.520
'0:09.881',-1.045,-0.520
'0:09.883',-1.065,-0.515
'0:09.886',-1.055,-0.500
'0:09.889',-1.045,-0.500
'0:09.892',-1.030,-0.495
'0:09.894',-1.025,-0.490
'0:09.897',-1.025,-0.510
'0:09.900',-1.020,-0.505
'0:09.903',-1.025,-0.515
'0:09.906',-1.030,-0.530
'0:09.908',-1.050,-0.535
'0:09.911',-1.050,-0.530
'0:09.914',-1.045,-0.530
'0:09.917',-1.045,-0.525
'0:09.919',-1.040,-0.515
'0:09.922',-1.040,-0.510
'0:09.925',-1.030,-0.495
'0:09.928',-1.020,-0.500
'0:09.931',-1.015,-0.510
'0:09.933',-1.020,-0.520
'0:09.936',-1.025,-0.525
'0:09.939',-1.030,-0.535
'0:09.942',-1.040,-0.550
'0:09.944',-1.050,-0.540
'0:09.947',-1.045,-0.550
'0:09.950',-1.050,-0.535
'0:09.953',-1.035,-0.525
'0:09.956',-1.020,-0.525
'0:09.958',-1.025,-0.510
'0:09.961',-1.010,-0.510
'0:09.964',-1.005,-0.525
'0:09.967',-1.005,-0.520
'0:09.969',-1.010,-0.535
'0:09.972',-1.015,-0.540
'0:09.975',-1.010,-0.545
'0:09.978',-1.025,-0.555
'0:09.981',-1.025,-0.545
'0:09.983',-1.025,-0.535
'0:09.986',-1.015,-0.535
'0:09.989',-1.020,-0.515
'0:09.992',-1.005,-0.525
'0:09.994',-1.000,-0.520
'0:09.997',-1.000,-0.525
