'Elapsed time','MLII','V5'
'hh:mm:ss.mmm','mV','mV'
'0:00.000',-0.805,-0.455
'0:00.003',-0.805,-0.455
'0:00.006',-0.805,-0.455
'0:00.008',-0.805,-0.455
'0:00.011',-0.805,-0.455
'0:00.014',-0.805,-0.455
'0:00.017',-0.805,-0.455
'0:00.019',-0.820,-0.455
'0:00.022',-0.835,-0.455
'0:00.025',-0.840,-0.430
'0:00.028',-0.835,-0.435
'0:00.031',-0.845,-0.415
'0:00.033',-0.840,-0.420
'0:00.036',-0.840,-0.405
'0:00.039',-0.855,-0.400
'0:00.042',-0.880,-0.415
'0:00.044',-0.905,-0.420
'0:00.047',-0.940,-0.440
'0:00.050',-0.950,-0.475
'0:00.053',-0.985,-0.485
'0:00.056',-0.980,-0.495
'0:00.058',-1.020,-0.490
'0:00.061',-1.015,-0.495
'0:00.064',-1.020,-0.490
'0:00.067',-1.015,-0.490
'0:00.069',-1.010,-0.475
'0:00.072',-0.990,-0.465
'0:00.075',-0.995,-0.470
'0:00.078',-0.995,-0.485
'0:00.081',-1.010,-0.490
'0:00.083',-1.020,-0.505
'0:00.086',-1.030,-0.515
'0:00.089',-1.040,-0.515
'0:00.092',-1.035,-0.505
'0:00.094',-1.035,-0.515
'0:00.097',-1.040,-0.490
'0:00.100',-1.025,-0.495
'0:00.103',-1.025,-0.470
'0:00.106',-1.005,-0.455
'0:00.108',-1.010,-0.470
'0:00.111',-1.005,-0.455
'0:00.114',-1.010,-0.470
'0:00.117',-1.010,-0.485
'0:00.119',-1.025,-0.480
'0:00.122',-1.030,-0.505
'0:00.125',-1.045,-0.490
'0:00.128',-1.035,-0.495
'0:00.131',-1.035,-0.480
'0:00.133',-1.020,-0.480
'0:00.136',-1.010,-0.470
'0:00.139',-0.995,-0.455
'0:00.142',-0.995,-0.465
'0:00.144',-0.980,-0.455
'0:00.147',-0.965,-0.470
'0:00.150',-0.980,-0.465
'0:00.153',-0.985,-0.495
'0:00.156',-0.980,-0.495
'0:00.158',-0.970,-0.475
'0:00.161',-0.960,-0.480
'0:00.164',-0.935,-0.445
'0:00.167',-0.910,-0.410
'0:00.169',-0.860,-0.335
'0:00.172',-0.745,-0.265
'0:00.175',-0.580,-0.130
'0:00.178',-0.360,0.030
'0:00.181',-0.095,0.185
'0:00.183',0.165,0.305
'0:00.186',0.435,0.385
'0:00.189',0.710,0.405
'0:00.192',0.975,0.445
'0:00.194',1.160,0.460
'0:00.197',1.200,0.460
'0:00.200',1.070,0.415
'0:00.203',0.735,0.305
'0:00.206',0.255,0.140
'0:00.208',-0.310,-0.135
'0:00.211',-0.910,-0.455
'0:00.214',-1.395,-0.815
'0:00.217',-1.660,-1.085
'0:00.219',-1.700,-1.220
'0:00.222',-1.590,-1.170
'0:00.225',-1.395,-1.020
'0:00.228',-1.230,-0.845
'0:00.231',-1.105,-0.720
'0:00.233',-1.065,-0.595
'0:00.236',-1.030,-0.545
'0:00.239',-1.050,-0.545
'0:00.242',-1.050,-0.540
'0:00.244',-1.035,-0.545
'0:00.247',-1.020,-0.540
'0:00.250',-1.020,-0.530
'0:00.253',-0.995,-0.510
'0:00.256',-0.995,-0.505
'0:00.258',-1.000,-0.505
'0:00.261',-1.010,-0.475
'0:00.264',-1.020,-0.490
'0:00.267',-1.005,-0.450
'0:00.269',-1.010,-0.460
'0:00.272',-1.000,-0.440
'0:00.275',-0.990,-0.455
'0:00.278',-0.985,-0.450
'0:00.281',-1.000,-0.475
'0:00.283',-1.000,-0.455
'0:00.286',-0.995,-0.465
'0:00.289',-1.010,-0.475
'0:00.292',-1.010,-0.470
'0:00.294',-1.020,-0.475
'0:00.297',-1.020,-0.455
'0:00.300',-0.990,-0.440
'0:00.303',-0.990,-0.440
'0:00.306',-0.980,-0.435
'0:00.308',-0.970,-0.430
'0:00.311',-0.970,-0.440
'0:00.314',-0.975,-0.440
'0:00.317',-0.990,-0.455
'0:00.319',-0.990,-0.450
'0:00.322',-0.990,-0.460
'0:00.325',-1.010,-0.460
'0:00.328',-1.015,-0.450
'0:00.331',-1.020,-0.425
'0:00.333',-1.005,-0.420
'0:00.336',-1.000,-0.435
'0:00.339',-0.975,-0.415
'0:00.342',-0.980,-0.425
'0:00.344',-0.980,-0.415
'0:00.347',-0.975,-0.420
'0:00.350',-0.990,-0.430
'0:00.353',-0.990,-0.435
'0:00.356',-1.005,-0.430
'0:00.358',-1.000,-0.425
'0:00.361',-1.005,-0.435
'0:00.364',-0.995,-0.410
'0:00.367',-1.000,-0.420
'0:00.369',-0.975,-0.410
'0:00.372',-0.965,-0.410
'0:00.375',-0.960,-0.410
'0:00.378',-0.965,-0.415
'0:00.381',-0.960,-0.420
'0:00.383',-0.960,-0.420
'0:00.386',-0.960,-0.425
'0:00.389',-0.980,-0.415
'0:00.392',-0.975,-0.410
'0:00.394',-0.970,-0.400
'0:00.397',-0.960,-0.385
'0:00.400',-0.945,-0.380
'0:00.403',-0.930,-0.365
'0:00.406',-0.910,-0.345
'0:00.408',-0.910,-0.335
'0:00.411',-0.925,-0.345
'0:00.414',-0.905,-0.330
'0:00.417',-0.910,-0.330
'0:00.419',-0.900,-0.355
'0:00.422',-0.915,-0.360
'0:00.425',-0.910,-0.340
'0:00.428',-0.895,-0.305
'0:00.431',-0.885,-0.315
'0:00.433',-0.865,-0.305
'0:00.436',-0.845,-0.280
'0:00.439',-0.830,-0.265
'0:00.442',-0.810,-0.260
'0:00.444',-0.790,-0.265
'0:00.447',-0.785,-0.265
'0:00.450',-0.770,-0.260
'0:00.453',-0.770,-0.270
'0:00.456',-0.770,-0.280
'0:00.458',-0.760,-0.255
'0:00.461',-0.730,-0.240
'0:00.464',-0.715,-0.215
'0:00.467',-0.690,-0.180
'0:00.469',-0.675,-0.170
'0:00.472',-0.640,-0.150
'0:00.475',-0.625,-0.150
'0:00.478',-0.610,-0.135
'0:00.481',-0.595,-0.135
'0:00.483',-0.585,-0.140
'0:00.486',-0.580,-0.135
'0:00.489',-0.575,-0.130
'0:00.492',-0.565,-0.130
'0:00.494',-0.570,-0.105
'0:00.497',-0.550,-0.110
'0:00.500',-0.540,-0.085
'0:00.503',-0.520,-0.075
'0:00.506',-0.500,-0.070
'0:00.508',-0.495,-0.090
'0:00.511',-0.500,-0.095
'0:00.514',-0.510,-0.095
'0:00.517',-0.545,-0.135
'0:00.519',-0.575,-0.160
'0:00.522',-0.595,-0.165
'0:00.525',-0.620,-0.170
'0:00.528',-0.645,-0.195
'0:00.531',-0.655,-0.210
'0:00.533',-0.670,-0.205
'0:00.536',-0.670,-0.210
'0:00.539',-0.720,-0.225
'0:00.542',-0.725,-0.235
'0:00.544',-0.750,-0.230
'0:00.547',-0.765,-0.275
'0:00.550',-0.785,-0.280
'0:00.553',-0.815,-0.320
'0:00.556',-0.830,-0.350
'0:00.558',-0.870,-0.345
'0:00.561',-0.885,-0.375
'0:00.564',-0.905,-0.370
'0:00.567',-0.910,-0.365
'0:00.569',-0.905,-0.365
'0:00.572',-0.925,-0.370
'0:00.575',-0.910,-0.380
'0:00.578',-0.910,-0.390
'0:00.581',-0.920,-0.415
'0:00.583',-0.940,-0.415
'0:00.586',-0.945,-0.430
'0:00.589',-0.975,-0.445
'0:00.592',-0.980,-0.445
'0:00.594',-0.985,-0.430
'0:00.597',-0.985,-0.440
'0:00.600',-0.965,-0.450
'0:00.603',-0.955,-0.420
'0:00.606',-0.945,-0.430
'0:00.608',-0.940,-0.435
'0:00.611',-0.940,-0.440
'0:00.614',-0.950,-0.420
'0:00.617',-0.960,-0.430
'0:00.619',-0.970,-0.435
'0:00.622',-0.975,-0.450
'0:00.625',-0.970,-0.445
'0:00.628',-0.985,-0.440
'0:00.631',-0.990,-0.435
'0:00.633',-0.990,-0.430
'0:00.636',-0.975,-0.415
'0:00.639',-0.970,-0.400
'0:00.642',-0.945,-0.405
'0:00.644',-0.950,-0.410
'0:00.647',-0.965,-0.415
'0:00.650',-0.965,-0.425
'0:00.653',-0.975,-0.440
'0:00.656',-0.985,-0.445
'0:00.658',-0.985,-0.440
'0:00.661',-0.980,-0.445
'0:00.664',-0.960,-0.435
'0:00.667',-0.960,-0.430
'0:00.669',-0.945,-0.415
'0:00.672',-0.950,-0.390
'0:00.675',-0.935,-0.425
'0:00.678',-0.940,-0.420
'0:00.681',-0.950,-0.410
'0:00.683',-0.955,-0.410
'0:00.686',-0.945,-0.435
'0:00.689',-0.960,-0.435
'0:00.692',-0.965,-0.410
'0:00.694',-0.970,-0.410
'0:00.697',-0.980,-0.415
'0:00.700',-0.965,-0.415
'0:00.703',-0.960,-0.385
'0:00.706',-0.955,-0.380
'0:00.708',-0.930,-0.385
'0:00.711',-0.950,-0.390
'0:00.714',-0.940,-0.400
'0:00.717',-0.950,-0.400
'0:00.719',-0.960,-0.410
'0:00.722',-0.985,-0.415
'0:00.725',-0.990,-0.405
'0:00.728',-0.985,-0.415
'0:00.731',-0.970,-0.410
'0:00.733',-0.960,-0.395
'0:00.736',-0.960,-0.385
'0:00.739',-0.940,-0.395
'0:00.742',-0.940,-0.395
'0:00.744',-0.945,-0.400
'0:00.747',-0.955,-0.420
'0:00.750',-0.965,-0.430
'0:00.753',-0.975,-0.445
'0:00.756',-0.985,-0.445
'0:00.758',-0.990,-0.430
'0:00.761',-0.990,-0.425
'0:00.764',-1.000,-0.415
'0:00.767',-0.995,-0.400
'0:00.769',-0.965,-0.405
'0:00.772',-0.970,-0.390
'0:00.775',-0.955,-0.395
'0:00.778',-0.960,-0.390
'0:00.781',-0.970,-0.400
'0:00.783',-0.985,-0.420
'0:00.786',-0.990,-0.425
'0:00.789',-0.995,-0.435
'0:00.792',-1.010,-0.440
'0:00.794',-1.025,-0.440
'0:00.797',-1.000,-0.420
'0:00.800',-0.990,-0.425
'0:00.803',-0.980,-0.425
'0:00.806',-0.970,-0.395
'0:00.808',-0.980,-0.405
'0:00.811',-0.980,-0.410
'0:00.814',-0.985,-0.450
'0:00.817',-1.015,-0.430
'0:00.819',-1.025,-0.460
'0:00.822',-1.040,-0.465
'0:00.825',-1.035,-0.475
'0:00.828',-1.025,-0.465
'0:00.831',-1.015,-0.455
'0:00.833',-1.020,-0.440
'0:00.836',-1.010,-0.420
'0:00.839',-0.985,-0.405
'0:00.842',-0.980,-0.425
'0:00.844',-0.990,-0.400
'0:00.847',-0.995,-0.420
'0:00.850',-1.015,-0.440
'0:00.853',-1.030,-0.435
'0:00.856',-1.045,-0.460
'0:00.858',-1.045,-0.460
'0:00.861',-1.050,-0.465
'0:00.864',-1.055,-0.445
'0:00.867',-1.040,-0.445
'0:00.869',-1.005,-0.430
'0:00.872',-0.995,-0.415
'0:00.875',-1.010,-0.400
'0:00.878',-1.015,-0.410
'0:00.881',-1.025,-0.430
'0:00.883',-1.035,-0.440
'0:00.886',-1.030,-0.455
'0:00.889',-1.035,-0.455
'0:00.892',-1.025,-0.475
'0:00.894',-1.035,-0.470
'0:00.897',-1.025,-0.450
'0:00.900',-1.030,-0.440
'0:00.903',-1.035,-0.440
'0:00.906',-1.025,-0.430
'0:00.908',-1.005,-0.440
'0:00.911',-1.015,-0.430
'0:00.914',-1.000,-0.430
'0:00.917',-1.015,-0.435
'0:00.919',-1.025,-0.450
'0:00.922',-1.015,-0.440
'0:00.925',-1.020,-0.450
'0:00.928',-1.040,-0.440
'0:00.931',-1.035,-0.440
'0:00.933',-1.025,-0.435
'0:00.936',-1.015,-0.420
'0:00.939',-1.010,-0.425
'0:00.942',-1.000,-0.415
'0:00.944',-1.020,-0.410
'0:00.947',-1.000,-0.420
'0:00.950',-1.020,-0.420
'0:00.953',-1.020,-0.435
'0:00.956',-1.010,-0.440
'0:00.958',-1.030,-0.455
'0:00.961',-1.020,-0.445
'0:00.964',-1.045,-0.445
'0:00.967',-1.045,-0.425
'0:00.969',-1.035,-0.435
'0:00.972',-1.015,-0.425
'0:00.975',-1.015,-0.425
'0:00.978',-1.015,-0.430
'0:00.981',-1.010,-0.435
'0:00.983',-1.000,-0.465
'0:00.986',-1.020,-0.455
'0:00.989',-1.035,-0.485
'0:00.992',-1.040,-0.465
'0:00.994',-1.035,-0.450
'0:00.997',-1.020,-0.445
'0:01.000',-1.010,-0.430
'0:01.003',-1.010,-0.415
'0:01.006',-1.010,-0.410
'0:01.008',-1.005,-0.405
'0:01.011',-1.010,-0.400
'0:01.014',-1.005,-0.420
'0:01.017',-1.015,-0.440
'0:01.019',-1.030,-0.455
'0:01.022',-1.025,-0.435
'0:01.025',-1.040,-0.445
'0:01.028',-1.035,-0.450
'0:01.031',-1.025,-0.435
'0:01.033',-1.025,-0.420
'0:01.036',-1.020,-0.415
'0:01.039',-0.995,-0.400
'0:01.042',-0.985,-0.420
'0:01.044',-0.990,-0.425
'0:01.047',-0.985,-0.420
'0:01.050',-1.005,-0.425
'0:01.053',-1.020,-0.430
'0:01.056',-1.025,-0.450
'0:01.058',-1.030,-0.455
'0:01.061',-1.030,-0.465
'0:01.064',-1.040,-0.450
'0:01.067',-1.015,-0.420
'0:01.069',-1.005,-0.430
'0:01.072',-1.000,-0.405
'0:01.075',-0.980,-0.410
'0:01.078',-0.995,-0.420
'0:01.081',-1.010,-0.420
'0:01.083',-1.030,-0.430
'0:01.086',-1.020,-0.440
'0:01.089',-1.035,-0.430
'0:01.092',-1.050,-0.435
'0:01.094',-1.060,-0.430
'0:01.097',-1.030,-0.425
'0:01.100',-1.025,-0.410
'0:01.103',-1.015,-0.415
'0:01.106',-1.015,-0.415
'0:01.108',-1.015,-0.400
'0:01.111',-1.015,-0.410
'0:01.114',-1.020,-0.420
'0:01.117',-1.020,-0.425
'0:01.119',-1.030,-0.420
'0:01.122',-1.030,-0.445
'0:01.125',-1.035,-0.460
'0:01.128',-1.040,-0.430
'0:01.131',-1.025,-0.425
'0:01.133',-1.025,-0.415
'0:01.136',-1.020,-0.410
'0:01.139',-0.990,-0.400
'0:01.142',-1.005,-0.415
'0:01.144',-0.990,-0.410
'0:01.147',-0.995,-0.405
'0:01.150',-1.010,-0.410
'0:01.153',-1.020,-0.420
'0:01.156',-1.025,-0.430
'0:01.158',-1.025,-0.430
'0:01.161',-1.030,-0.435
'0:01.164',-1.030,-0.420
'0:01.167',-1.030,-0.410
'0:01.169',-1.015,-0.410
'0:01.172',-1.000,-0.375
'0:01.175',-0.995,-0.385
'0:01.178',-1.000,-0.385
'0:01.181',-0.990,-0.400
'0:01.183',-0.995,-0.400
'0:01.186',-1.010,-0.415
'0:01.189',-1.005,-0.415
'0:01.192',-1.005,-0.415
'0:01.194',-1.010,-0.420
'0:01.197',-1.010,-0.420
'0:01.200',-1.010,-0.410
'0:01.203',-1.000,-0.405
'0:01.206',-0.980,-0.405
'0:01.208',-0.965,-0.405
'0:01.211',-0.990,-0.395
'0:01.214',-0.990,-0.405
'0:01.217',-0.990,-0.415
'0:01.219',-0.995,-0.425
'0:01.222',-1.015,-0.430
'0:01.225',-1.010,-0.430
'0:01.228',-1.010,-0.420
'0:01.231',-1.020,-0.405
'0:01.233',-1.005,-0.395
'0:01.236',-0.980,-0.380
'0:01.239',-0.990,-0.375
'0:01.242',-0.970,-0.370
'0:01.244',-0.970,-0.365
'0:01.247',-0.985,-0.380
'0:01.250',-1.005,-0.400
'0:01.253',-0.995,-0.400
'0:01.256',-1.020,-0.395
'0:01.258',-1.030,-0.415
'0:01.261',-1.025,-0.420
'0:01.264',-1.015,-0.410
'0:01.267',-1.010,-0.425
'0:01.269',-0.985,-0.395
'0:01.272',-0.985,-0.385
'0:01.275',-0.970,-0.380
'0:01.278',-0.960,-0.390
'0:01.281',-0.945,-0.395
'0:01.283',-0.960,-0.400
'0:01.286',-0.960,-0.405
'0:01.289',-0.960,-0.405
'0:01.292',-0.945,-0.410
'0:01.294',-0.945,-0.410
'0:01.297',-0.915,-0.410
'0:01.300',-0.900,-0.385
'0:01.303',-0.885,-0.365
'0:01.306',-0.895,-0.350
'0:01.308',-0.885,-0.335
'0:01.311',-0.895,-0.365
'0:01.314',-0.870,-0.365
'0:01.317',-0.845,-0.385
'0:01.319',-0.825,-0.385
'0:01.322',-0.810,-0.385
'0:01.325',-0.785,-0.375
'0:01.328',-0.785,-0.360
'0:01.331',-0.770,-0.345
'0:01.333',-0.780,-0.320
'0:01.336',-0.780,-0.305
'0:01.339',-0.780,-0.310
'0:01.342',-0.805,-0.320
'0:01.344',-0.820,-0.310
'0:01.347',-0.820,-0.305
'0:01.350',-0.830,-0.330
'0:01.353',-0.835,-0.340
'0:01.356',-0.840,-0.345
'0:01.358',-0.860,-0.355
'0:01.361',-0.860,-0.365
'0:01.364',-0.880,-0.335
'0:01.367',-0.910,-0.345
'0:01.369',-0.925,-0.340
'0:01.372',-0.950,-0.330
'0:01.375',-0.955,-0.345
'0:01.378',-0.985,-0.355
'0:01.381',-0.985,-0.380
'0:01.383',-0.995,-0.390
'0:01.386',-1.020,-0.390
'0:01.389',-1.030,-0.415
'0:01.392',-1.055,-0.405
'0:01.394',-1.060,-0.400
'0:01.397',-1.060,-0.400
'0:01.400',-1.045,-0.395
'0:01.403',-1.035,-0.370
'0:01.406',-1.040,-0.370
'0:01.408',-1.025,-0.365
'0:01.411',-1.025,-0.370
'0:01.414',-1.020,-0.385
'0:01.417',-1.035,-0.380
'0:01.419',-1.040,-0.400
'0:01.422',-1.070,-0.415
'0:01.425',-1.065,-0.400
'0:01.428',-1.070,-0.390
'0:01.431',-1.070,-0.385
'0:01.433',-1.060,-0.390
'0:01.436',-1.045,-0.385
'0:01.439',-1.035,-0.375
'0:01.442',-1.040,-0.380
'0:01.444',-1.050,-0.390
'0:01.447',-1.020,-0.390
'0:01.450',-1.020,-0.390
'0:01.453',-1.045,-0.405
'0:01.456',-1.020,-0.400
'0:01.458',-1.050,-0.400
'0:01.461',-1.035,-0.395
'0:01.464',-1.045,-0.385
'0:01.467',-1.020,-0.390
'0:01.469',-1.005,-0.370
'0:01.472',-1.005,-0.365
'0:01.475',-0.975,-0.355
'0:01.478',-0.985,-0.370
'0:01.481',-0.980,-0.370
'0:01.483',-0.980,-0.370
'0:01.486',-0.990,-0.375
'0:01.489',-0.990,-0.365
'0:01.492',-0.995,-0.345
'0:01.494',-0.995,-0.350
'0:01.497',-0.990,-0.315
'0:01.500',-0.975,-0.290
'0:01.503',-0.920,-0.240
'0:01.506',-0.820,-0.165
'0:01.508',-0.665,-0.060
'0:01.511',-0.430,0.095
'0:01.514',-0.160,0.265
'0:01.517',0.100,0.415
'0:01.519',0.370,0.525
'0:01.522',0.650,0.590
'0:01.525',0.895,0.605
'0:01.528',1.100,0.595
'0:01.531',1.130,0.560
'0:01.533',0.970,0.465
'0:01.536',0.630,0.315
'0:01.539',0.155,0.110
'0:01.542',-0.415,-0.185
'0:01.544',-1.005,-0.520
'0:01.547',-1.455,-0.850
'0:01.550',-1.730,-1.080
'0:01.553',-1.805,-1.205
'0:01.556',-1.740,-1.205
'0:01.558',-1.585,-1.085
'0:01.561',-1.430,-0.925
'0:01.564',-1.315,-0.760
'0:01.567',-1.235,-0.640
'0:01.569',-1.190,-0.555
'0:01.572',-1.145,-0.495
'0:01.575',-1.100,-0.465
'0:01.578',-1.070,-0.450
'0:01.581',-1.035,-0.450
'0:01.583',-0.985,-0.445
'0:01.586',-0.985,-0.455
'0:01.589',-1.010,-0.425
'0:01.592',-1.025,-0.425
'0:01.594',-1.025,-0.410
'0:01.597',-1.035,-0.405
'0:01.600',-1.035,-0.380
'0:01.603',-1.020,-0.370
'0:01.606',-1.010,-0.360
'0:01.608',-0.985,-0.335
'0:01.611',-0.985,-0.345
'0:01.614',-0.985,-0.335
'0:01.617',-0.990,-0.360
'0:01.619',-0.995,-0.365
'0:01.622',-1.005,-0.370
'0:01.625',-1.030,-0.370
'0:01.628',-1.020,-0.355
'0:01.631',-1.020,-0.355
'0:01.633',-1.015,-0.340
'0:01.636',-1.005,-0.330
'0:01.639',-1.005,-0.310
'0:01.642',-1.005,-0.310
'0:01.644',-0.995,-0.310
'0:01.647',-0.995,-0.320
'0:01.650',-1.005,-0.325
'0:01.653',-1.020,-0.335
'0:01.656',-1.025,-0.355
'0:01.658',-1.030,-0.360
'0:01.661',-1.030,-0.360
'0:01.664',-1.015,-0.355
'0:01.667',-1.000,-0.345
'0:01.669',-0.980,-0.335
'0:01.672',-0.990,-0.320
'0:01.675',-0.985,-0.305
'0:01.678',-0.995,-0.315
'0:01.681',-0.985,-0.320
'0:01.683',-0.985,-0.310
'0:01.686',-1.005,-0.330
'0:01.689',-1.005,-0.320
'0:01.692',-1.020,-0.330
'0:01.694',-1.025,-0.325
'0:01.697',-1.015,-0.320
'0:01.700',-1.015,-0.305
'0:01.703',-1.000,-0.290
'0:01.706',-1.000,-0.285
'0:01.708',-1.000,-0.280
'0:01.711',-0.985,-0.290
'0:01.714',-0.965,-0.300
'0:01.717',-0.985,-0.310
'0:01.719',-0.995,-0.325
'0:01.722',-0.995,-0.310
'0:01.725',-0.985,-0.320
'0:01.728',-0.985,-0.305
'0:01.731',-0.985,-0.300
'0:01.733',-0.975,-0.295
'0:01.736',-0.960,-0.270
'0:01.739',-0.950,-0.270
'0:01.742',-0.940,-0.270
'0:01.744',-0.940,-0.290
'0:01.747',-0.935,-0.265
'0:01.750',-0.940,-0.275
'0:01.753',-0.930,-0.275
'0:01.756',-0.935,-0.275
'0:01.758',-0.930,-0.270
'0:01.761',-0.920,-0.250
'0:01.764',-0.915,-0.240
'0:01.767',-0.885,-0.225
'0:01.769',-0.895,-0.220
'0:01.772',-0.880,-0.205
'0:01.775',-0.865,-0.190
'0:01.778',-0.870,-0.190
'0:01.781',-0.835,-0.185
'0:01.783',-0.820,-0.195
'0:01.786',-0.820,-0.220
'0:01.789',-0.830,-0.205
'0:01.792',-0.815,-0.200
'0:01.794',-0.840,-0.190
'0:01.797',-0.805,-0.170
'0:01.800',-0.795,-0.160
'0:01.803',-0.755,-0.150
'0:01.806',-0.725,-0.135
'0:01.808',-0.710,-0.115
'0:01.811',-0.695,-0.130
'0:01.814',-0.675,-0.125
'0:01.817',-0.675,-0.120
'0:01.819',-0.680,-0.125
'0:01.822',-0.675,-0.130
'0:01.825',-0.680,-0.135
'0:01.828',-0.655,-0.110
'0:01.831',-0.640,-0.100
'0:01.833',-0.630,-0.070
'0:01.836',-0.610,-0.065
'0:01.839',-0.590,-0.055
'0:01.842',-0.575,-0.050
'0:01.844',-0.570,-0.060
'0:01.847',-0.570,-0.065
'0:01.850',-0.585,-0.080
'0:01.853',-0.595,-0.095
'0:01.856',-0.605,-0.110
'0:01.858',-0.635,-0.120
'0:01.861',-0.645,-0.115
'0:01.864',-0.650,-0.150
'0:01.867',-0.650,-0.135
'0:01.869',-0.650,-0.140
'0:01.872',-0.670,-0.130
'0:01.875',-0.680,-0.150
'0:01.878',-0.710,-0.190
'0:01.881',-0.705,-0.190
'0:01.883',-0.735,-0.215
'0:01.886',-0.765,-0.250
'0:01.889',-0.795,-0.270
'0:01.892',-0.820,-0.290
'0:01.894',-0.825,-0.290
'0:01.897',-0.845,-0.295
'0:01.900',-0.850,-0.310
'0:01.903',-0.860,-0.295
'0:01.906',-0.870,-0.295
'0:01.908',-0.880,-0.295
'0:01.911',-0.875,-0.320
'0:01.914',-0.880,-0.310
'0:01.917',-0.915,-0.330
'0:01.919',-0.925,-0.335
'0:01.922',-0.945,-0.355
'0:01.925',-0.945,-0.365
'0:01.928',-0.975,-0.380
'0:01.931',-0.970,-0.370
'0:01.933',-0.980,-0.365
'0:01.936',-0.965,-0.360
'0:01.939',-0.935,-0.350
'0:01.942',-0.930,-0.355
'0:01.944',-0.935,-0.375
'0:01.947',-0.940,-0.365
'0:01.950',-0.945,-0.380
'0:01.953',-0.945,-0.385
'0:01.956',-0.965,-0.400
'0:01.958',-0.985,-0.405
'0:01.961',-0.990,-0.385
'0:01.964',-0.980,-0.395
'0:01.967',-0.975,-0.400
'0:01.969',-0.960,-0.390
'0:01.972',-0.960,-0.385
'0:01.975',-0.945,-0.380
'0:01.978',-0.945,-0.390
'0:01.981',-0.945,-0.395
'0:01.983',-0.945,-0.405
'0:01.986',-0.960,-0.400
'0:01.989',-0.970,-0.405
'0:01.992',-0.970,-0.400
'0:01.994',-0.980,-0.385
'0:01.997',-0.970,-0.395
'0:02.000',-0.965,-0.390
'0:02.003',-0.945,-0.385
'0:02.006',-0.940,-0.370
'0:02.008',-0.925,-0.370
'0:02.011',-0.925,-0.360
'0:02.014',-0.925,-0.365
'0:02.017',-0.935,-0.395
'0:02.019',-0.950,-0.385
'0:02.022',-0.955,-0.395
'0:02.025',-0.965,-0.400
'0:02.028',-0.955,-0.395
'0:02.031',-0.955,-0.395
'0:02.033',-0.955,-0.390
'0:02.036',-0.950,-0.370
'0:02.039',-0.925,-0.380
'0:02.042',-0.920,-0.355
'0:02.044',-0.900,-0.360
'0:02.047',-0.920,-0.365
'0:02.050',-0.925,-0.395
'0:02.053',-0.925,-0.390
'0:02.056',-0.930,-0.405
'0:02.058',-0.930,-0.390
'0:02.061',-0.940,-0.380
'0:02.064',-0.920,-0.385
'0:02.067',-0.905,-0.375
'0:02.069',-0.900,-0.365
'0:02.072',-0.915,-0.330
'0:02.075',-0.900,-0.330
'0:02.078',-0.890,-0.335
'0:02.081',-0.885,-0.340
'0:02.083',-0.900,-0.355
'0:02.086',-0.905,-0.370
'0:02.089',-0.900,-0.375
'0:02.092',-0.905,-0.375
'0:02.094',-0.920,-0.370
'0:02.097',-0.925,-0.370
'0:02.100',-0.925,-0.355
'0:02.103',-0.915,-0.340
'0:02.106',-0.905,-0.330
'0:02.108',-0.895,-0.335
'0:02.111',-0.900,-0.340
'0:02.114',-0.895,-0.360
'0:02.117',-0.895,-0.370
'0:02.119',-0.900,-0.385
'0:02.122',-0.915,-0.400
'0:02.125',-0.920,-0.410
'0:02.128',-0.935,-0.400
'0:02.131',-0.940,-0.390
'0:02.133',-0.945,-0.390
'0:02.136',-0.935,-0.380
'0:02.139',-0.920,-0.370
'0:02.142',-0.920,-0.355
'0:02.144',-0.925,-0.375
'0:02.147',-0.920,-0.375
'0:02.150',-0.930,-0.385
'0:02.153',-0.935,-0.405
'0:02.156',-0.960,-0.420
'0:02.158',-0.960,-0.410
'0:02.161',-0.965,-0.400
'0:02.164',-0.945,-0.400
'0:02.167',-0.960,-0.390
'0:02.169',-0.950,-0.380
'0:02.172',-0.950,-0.375
'0:02.175',-0.955,-0.380
'0:02.178',-0.950,-0.385
'0:02.181',-0.940,-0.385
'0:02.183',-0.950,-0.405
'0:02.186',-0.970,-0.410
'0:02.189',-0.970,-0.440
'0:02.192',-0.980,-0.430
'0:02.194',-0.980,-0.425
'0:02.197',-0.980,-0.440
'0:02.200',-0.970,-0.435
'0:02.203',-0.965,-0.435
'0:02.206',-0.975,-0.405
'0:02.208',-0.965,-0.410
'0:02.211',-0.975,-0.415
'0:02.214',-0.965,-0.415
'0:02.217',-0.975,-0.430
'0:02.219',-0.980,-0.440
'0:02.222',-0.990,-0.470
'0:02.225',-1.000,-0.465
'0:02.228',-1.015,-0.460
'0:02.231',-1.010,-0.455
'0:02.233',-0.995,-0.440
'0:02.236',-0.975,-0.445
'0:02.239',-0.975,-0.425
'0:02.242',-0.965,-0.425
'0:02.244',-0.960,-0.425
'0:02.247',-0.970,-0.430
'0:02.250',-0.975,-0.445
'0:02.253',-0.970,-0.450
'0:02.256',-1.005,-0.465
'0:02.258',-0.995,-0.480
'0:02.261',-1.005,-0.470
'0:02.264',-1.000,-0.465
'0:02.267',-0.995,-0.475
'0:02.269',-0.970,-0.460
'0:02.272',-0.980,-0.445
'0:02.275',-0.965,-0.435
'0:02.278',-0.965,-0.440
'0:02.281',-0.965,-0.460
'0:02.283',-0.975,-0.455
'0:02.286',-0.990,-0.465
'0:02.289',-1.005,-0.465
'0:02.292',-1.010,-0.470
'0:02.294',-1.015,-0.450
'0:02.297',-1.015,-0.455
'0:02.300',-1.015,-0.440
'0:02.303',-0.985,-0.455
'0:02.306',-0.970,-0.450
'0:02.308',-0.980,-0.445
'0:02.311',-0.980,-0.455
'0:02.314',-0.965,-0.460
'0:02.317',-0.990,-0.465
'0:02.319',-0.985,-0.475
'0:02.322',-1.000,-0.480
'0:02.325',-1.005,-0.480
'0:02.328',-1.000,-0.485
'0:02.331',-1.000,-0.470
'0:02.333',-1.010,-0.460
'0:02.336',-1.005,-0.460
'0:02.339',-0.995,-0.470
'0:02.342',-0.990,-0.455
'0:02.344',-0.965,-0.465
'0:02.347',-0.970,-0.460
'0:02.350',-0.985,-0.475
'0:02.353',-0.980,-0.490
'0:02.356',-1.005,-0.490
'0:02.358',-1.005,-0.495
'0:02.361',-1.015,-0.500
'0:02.364',-1.010,-0.475
'0:02.367',-1.005,-0.465
'0:02.369',-1.000,-0.470
'0:02.372',-0.980,-0.435
'0:02.375',-0.985,-0.440
'0:02.378',-0.985,-0.455
'0:02.381',-0.975,-0.460
'0:02.383',-0.980,-0.470
'0:02.386',-0.990,-0.475
'0:02.389',-0.990,-0.475
'0:02.392',-0.995,-0.495
'0:02.394',-1.005,-0.490
'0:02.397',-1.010,-0.480
'0:02.400',-1.010,-0.470
'0:02.403',-0.995,-0.450
'0:02.406',-1.000,-0.470
'0:02.408',-0.980,-0.450
'0:02.411',-0.970,-0.465
'0:02.414',-0.965,-0.480
'0:02.417',-0.975,-0.465
'0:02.419',-0.995,-0.490
'0:02.422',-1.005,-0.510
'0:02.425',-1.000,-0.500
'0:02.428',-1.000,-0.505
'0:02.431',-1.005,-0.485
'0:02.433',-0.990,-0.480
'0:02.436',-0.985,-0.480
'0:02.439',-0.990,-0.460
'0:02.442',-0.970,-0.445
'0:02.444',-0.980,-0.445
'0:02.447',-0.980,-0.450
'0:02.450',-0.970,-0.470
'0:02.453',-0.995,-0.470
'0:02.456',-1.005,-0.475
'0:02.458',-0.995,-0.490
'0:02.461',-1.010,-0.490
'0:02.464',-1.000,-0.480
'0:02.467',-1.005,-0.470
'0:02.469',-0.995,-0.470
'0:02.472',-0.985,-0.445
'0:02.475',-0.965,-0.445
'0:02.478',-0.970,-0.445
'0:02.481',-0.960,-0.460
'0:02.483',-0.980,-0.470
'0:02.486',-0.985,-0.480
'0:02.489',-0.995,-0.480
'0:02.492',-1.005,-0.505
'0:02.494',-1.000,-0.505
'0:02.497',-1.000,-0.490
'0:02.500',-0.990,-0.480
'0:02.503',-0.975,-0.470
'0:02.506',-0.950,-0.470
'0:02.508',-0.950,-0.450
'0:02.511',-0.955,-0.465
'0:02.514',-0.965,-0.460
'0:02.517',-0.980,-0.460
'0:02.519',-0.980,-0.470
'0:02.522',-0.980,-0.480
'0:02.525',-0.985,-0.485
'0:02.528',-0.995,-0.485
'0:02.531',-0.990,-0.465
'0:02.533',-0.985,-0.465
'0:02.536',-0.960,-0.470
'0:02.539',-0.955,-0.460
'0:02.542',-0.950,-0.435
'0:02.544',-0.955,-0.445
'0:02.547',-0.965,-0.450
'0:02.550',-0.965,-0.460
'0:02.553',-0.965,-0.470
'0:02.556',-0.980,-0.485
'0:02.558',-0.970,-0.475
'0:02.561',-0.985,-0.490
'0:02.564',-0.985,-0.470
'0:02.567',-0.970,-0.475
'0:02.569',-0.960,-0.470
'0:02.572',-0.955,-0.455
'0:02.575',-0.940,-0.445
'0:02.578',-0.940,-0.455
'0:02.581',-0.945,-0.470
'0:02.583',-0.940,-0.465
'0:02.586',-0.950,-0.465
'0:02.589',-0.950,-0.480
'0:02.592',-0.960,-0.475
'0:02.594',-0.970,-0.470
'0:02.597',-0.955,-0.465
'0:02.600',-0.960,-0.460
'0:02.603',-0.930,-0.450
'0:02.606',-0.880,-0.440
'0:02.608',-0.855,-0.430
'0:02.611',-0.850,-0.440
'0:02.614',-0.850,-0.445
'0:02.617',-0.860,-0.450
'0:02.619',-0.875,-0.470
'0:02.622',-0.855,-0.465
'0:02.625',-0.840,-0.470
'0:02.628',-0.840,-0.475
'0:02.631',-0.810,-0.440
'0:02.633',-0.780,-0.430
'0:02.636',-0.745,-0.425
'0:02.639',-0.740,-0.395
'0:02.642',-0.720,-0.400
'0:02.644',-0.740,-0.400
'0:02.647',-0.750,-0.410
'0:02.650',-0.770,-0.420
'0:02.653',-0.795,-0.435
'0:02.656',-0.805,-0.435
'0:02.658',-0.830,-0.415
'0:02.661',-0.820,-0.415
'0:02.664',-0.815,-0.395
'0:02.667',-0.850,-0.385
'0:02.669',-0.820,-0.365
'0:02.672',-0.835,-0.375
'0:02.675',-0.835,-0.365
'0:02.678',-0.850,-0.390
'0:02.681',-0.895,-0.420
'0:02.683',-0.935,-0.430
'0:02.686',-0.965,-0.430
'0:02.689',-0.980,-0.465
'0:02.692',-1.000,-0.470
'0:02.694',-1.005,-0.465
'0:02.697',-1.015,-0.465
'0:02.700',-1.020,-0.460
'0:02.703',-1.025,-0.450
'0:02.706',-1.010,-0.465
'0:02.708',-1.000,-0.455
'0:02.711',-1.005,-0.465
'0:02.714',-1.000,-0.465
'0:02.717',-1.010,-0.470
'0:02.719',-1.005,-0.485
'0:02.722',-1.035,-0.500
'0:02.725',-1.030,-0.505
'0:02.728',-1.035,-0.485
'0:02.731',-1.040,-0.480
'0:02.733',-1.040,-0.470
'0:02.736',-1.035,-0.455
'0:02.739',-1.025,-0.440
'0:02.742',-1.000,-0.450
'0:02.744',-1.015,-0.440
'0:02.747',-0.995,-0.450
'0:02.750',-1.005,-0.450
'0:02.753',-1.025,-0.450
'0:02.756',-1.015,-0.475
'0:02.758',-1.020,-0.485
'0:02.761',-1.025,-0.465
'0:02.764',-1.020,-0.460
'0:02.767',-1.010,-0.465
'0:02.769',-1.000,-0.440
'0:02.772',-0.985,-0.430
'0:02.775',-0.965,-0.440
'0:02.778',-0.970,-0.425
'0:02.781',-0.970,-0.445
'0:02.783',-0.965,-0.465
'0:02.786',-0.975,-0.465
'0:02.789',-0.980,-0.470
'0:02.792',-0.970,-0.470
'0:02.794',-0.970,-0.460
'0:02.797',-0.955,-0.445
'0:02.800',-0.930,-0.440
'0:02.803',-0.915,-0.390
'0:02.806',-0.900,-0.360
'0:02.808',-0.870,-0.330
'0:02.811',-0.795,-0.270
'0:02.814',-0.690,-0.175
'0:02.817',-0.500,-0.060
'0:02.819',-0.290,0.100
'0:02.822',-0.035,0.245
'0:02.825',0.240,0.375
'0:02.828',0.520,0.440
'0:02.831',0.810,0.470
'0:02.833',1.100,0.485
'0:02.836',1.295,0.490
'0:02.839',1.320,0.480
'0:02.842',1.170,0.415
'0:02.844',0.825,0.310
'0:02.847',0.320,0.120
'0:02.850',-0.295,-0.160
'0:02.853',-0.870,-0.500
'0:02.856',-1.340,-0.835
'0:02.858',-1.635,-1.115
'0:02.861',-1.690,-1.230
'0:02.864',-1.585,-1.185
'0:02.867',-1.380,-1.035
'0:02.869',-1.175,-0.850
'0:02.872',-1.055,-0.675
'0:02.875',-0.995,-0.585
'0:02.878',-0.990,-0.525
'0:02.881',-1.015,-0.520
'0:02.883',-1.030,-0.535
'0:02.886',-1.030,-0.530
'0:02.889',-1.030,-0.535
'0:02.892',-1.010,-0.520
'0:02.894',-0.995,-0.495
'0:02.897',-0.980,-0.460
'0:02.900',-0.960,-0.445
'0:02.903',-0.960,-0.430
'0:02.906',-0.965,-0.415
'0:02.908',-0.975,-0.430
'0:02.911',-0.960,-0.415
'0:02.914',-0.960,-0.440
'0:02.917',-0.975,-0.460
'0:02.919',-0.970,-0.435
'0:02.922',-0.965,-0.455
'0:02.925',-0.980,-0.445
'0:02.928',-0.975,-0.450
'0:02.931',-0.955,-0.430
'0:02.933',-0.960,-0.435
'0:02.936',-0.955,-0.425
'0:02.939',-0.940,-0.415
'0:02.942',-0.935,-0.420
'0:02.944',-0.935,-0.415
'0:02.947',-0.945,-0.425
'0:02.950',-0.960,-0.420
'0:02.953',-0.965,-0.430
'0:02.956',-0.975,-0.445
'0:02.958',-0.980,-0.435
'0:02.961',-0.975,-0.425
'0:02.964',-0.975,-0.410
'0:02.967',-0.965,-0.410
'0:02.969',-0.945,-0.395
'0:02.972',-0.960,-0.400
'0:02.975',-0.925,-0.405
'0:02.978',-0.935,-0.405
'0:02.981',-0.935,-0.415
'0:02.983',-0.935,-0.405
'0:02.986',-0.955,-0.405
'0:02.989',-0.960,-0.415
'0:02.992',-0.945,-0.415
'0:02.994',-0.975,-0.415
'0:02.997',-0.960,-0.405
'0:03.000',-0.955,-0.375
'0:03.003',-0.950,-0.385
'0:03.006',-0.925,-0.355
'0:03.008',-0.925,-0.375
'0:03.011',-0.935,-0.380
'0:03.014',-0.925,-0.405
'0:03.017',-0.945,-0.375
'0:03.019',-0.940,-0.400
'0:03.022',-0.930,-0.395
'0:03.025',-0.930,-0.400
'0:03.028',-0.930,-0.395
'0:03.031',-0.920,-0.370
'0:03.033',-0.905,-0.385
'0:03.036',-0.900,-0.345
'0:03.039',-0.885,-0.350
'0:03.042',-0.875,-0.335
'0:03.044',-0.870,-0.330
'0:03.047',-0.870,-0.335
'0:03.050',-0.885,-0.325
'0:03.053',-0.875,-0.340
'0:03.056',-0.870,-0.345
'0:03.058',-0.870,-0.330
'0:03.061',-0.865,-0.340
'0:03.064',-0.855,-0.315
'0:03.067',-0.835,-0.295
'0:03.069',-0.815,-0.290
'0:03.072',-0.790,-0.270
'0:03.075',-0.780,-0.255
'0:03.078',-0.770,-0.265
'0:03.081',-0.770,-0.275
'0:03.083',-0.765,-0.275
'0:03.086',-0.765,-0.290
'0:03.089',-0.750,-0.275
'0:03.092',-0.735,-0.265
'0:03.094',-0.735,-0.245
'0:03.097',-0.720,-0.235
'0:03.100',-0.685,-0.225
'0:03.103',-0.655,-0.200
'0:03.106',-0.635,-0.175
'0:03.108',-0.615,-0.155
'0:03.111',-0.595,-0.160
'0:03.114',-0.590,-0.165
'0:03.117',-0.585,-0.140
'0:03.119',-0.575,-0.160
'0:03.122',-0.565,-0.155
'0:03.125',-0.565,-0.150
'0:03.128',-0.550,-0.120
'0:03.131',-0.535,-0.125
'0:03.133',-0.510,-0.095
'0:03.136',-0.475,-0.085
'0:03.139',-0.465,-0.075
'0:03.142',-0.430,-0.090
'0:03.144',-0.450,-0.075
'0:03.147',-0.435,-0.070
'0:03.150',-0.455,-0.095
'0:03.153',-0.450,-0.095
'0:03.156',-0.455,-0.120
'0:03.158',-0.475,-0.115
'0:03.161',-0.485,-0.120
'0:03.164',-0.495,-0.115
'0:03.167',-0.485,-0.120
'0:03.169',-0.485,-0.140
'0:03.172',-0.490,-0.155
'0:03.175',-0.515,-0.160
'0:03.178',-0.545,-0.170
'0:03.181',-0.580,-0.185
'0:03.183',-0.610,-0.220
'0:03.186',-0.630,-0.265
'0:03.189',-0.665,-0.275
'0:03.192',-0.685,-0.285
'0:03.194',-0.710,-0.290
'0:03.197',-0.725,-0.295
'0:03.200',-0.725,-0.310
'0:03.203',-0.740,-0.320
'0:03.206',-0.740,-0.325
'0:03.208',-0.760,-0.330
'0:03.211',-0.775,-0.355
'0:03.214',-0.785,-0.370
'0:03.217',-0.800,-0.395
'0:03.219',-0.830,-0.410
'0:03.222',-0.855,-0.415
'0:03.225',-0.860,-0.425
'0:03.228',-0.865,-0.425
'0:03.231',-0.860,-0.430
'0:03.233',-0.860,-0.420
'0:03.236',-0.860,-0.425
'0:03.239',-0.845,-0.410
'0:03.242',-0.845,-0.430
'0:03.244',-0.860,-0.430
'0:03.247',-0.870,-0.450
'0:03.250',-0.870,-0.450
'0:03.253',-0.870,-0.470
'0:03.256',-0.880,-0.470
'0:03.258',-0.885,-0.470
'0:03.261',-0.890,-0.465
'0:03.264',-0.890,-0.445
'0:03.267',-0.885,-0.425
'0:03.269',-0.875,-0.425
'0:03.272',-0.865,-0.425
'0:03.275',-0.880,-0.435
'0:03.278',-0.875,-0.435
'0:03.281',-0.880,-0.440
'0:03.283',-0.875,-0.455
'0:03.286',-0.890,-0.455
'0:03.289',-0.890,-0.465
'0:03.292',-0.890,-0.465
'0:03.294',-0.895,-0.450
'0:03.297',-0.890,-0.455
'0:03.300',-0.865,-0.445
'0:03.303',-0.875,-0.440
'0:03.306',-0.860,-0.430
'0:03.308',-0.865,-0.455
'0:03.311',-0.870,-0.435
'0:03.314',-0.860,-0.440
'0:03.317',-0.860,-0.465
'0:03.319',-0.865,-0.470
'0:03.322',-0.865,-0.465
'0:03.325',-0.875,-0.475
'0:03.328',-0.890,-0.460
'0:03.331',-0.885,-0.445
'0:03.333',-0.870,-0.440
'0:03.336',-0.855,-0.440
'0:03.339',-0.845,-0.415
'0:03.342',-0.845,-0.425
'0:03.344',-0.840,-0.415
'0:03.347',-0.855,-0.420
'0:03.350',-0.865,-0.440
'0:03.353',-0.875,-0.460
'0:03.356',-0.875,-0.450
'0:03.358',-0.865,-0.450
'0:03.361',-0.855,-0.450
'0:03.364',-0.860,-0.435
'0:03.367',-0.845,-0.430
'0:03.369',-0.845,-0.410
'0:03.372',-0.835,-0.400
'0:03.375',-0.835,-0.410
'0:03.378',-0.840,-0.405
'0:03.381',-0.835,-0.420
'0:03.383',-0.845,-0.440
'0:03.386',-0.855,-0.445
'0:03.389',-0.860,-0.460
'0:03.392',-0.870,-0.460
'0:03.394',-0.875,-0.455
'0:03.397',-0.865,-0.440
'0:03.400',-0.855,-0.425
'0:03.403',-0.865,-0.425
'0:03.406',-0.860,-0.405
'0:03.408',-0.855,-0.420
'0:03.411',-0.855,-0.415
'0:03.414',-0.855,-0.430
'0:03.417',-0.875,-0.435
'0:03.419',-0.885,-0.440
'0:03.422',-0.895,-0.455
'0:03.425',-0.890,-0.445
'0:03.428',-0.895,-0.445
'0:03.431',-0.895,-0.440
'0:03.433',-0.870,-0.430
'0:03.436',-0.875,-0.410
'0:03.439',-0.865,-0.415
'0:03.442',-0.870,-0.420
'0:03.444',-0.865,-0.415
'0:03.447',-0.875,-0.435
'0:03.450',-0.885,-0.455
'0:03.453',-0.885,-0.465
'0:03.456',-0.915,-0.480
'0:03.458',-0.910,-0.485
'0:03.461',-0.915,-0.470
'0:03.464',-0.915,-0.475
'0:03.467',-0.895,-0.475
'0:03.469',-0.900,-0.450
'0:03.472',-0.885,-0.455
'0:03.475',-0.880,-0.455
'0:03.478',-0.870,-0.455
'0:03.481',-0.890,-0.455
'0:03.483',-0.900,-0.485
'0:03.486',-0.910,-0.490
'0:03.489',-0.910,-0.485
'0:03.492',-0.915,-0.500
'0:03.494',-0.925,-0.505
'0:03.497',-0.920,-0.485
'0:03.500',-0.910,-0.460
'0:03.503',-0.900,-0.445
'0:03.506',-0.895,-0.440
'0:03.508',-0.895,-0.450
'0:03.511',-0.895,-0.455
'0:03.514',-0.890,-0.460
'0:03.517',-0.890,-0.455
'0:03.519',-0.905,-0.460
'0:03.522',-0.920,-0.485
'0:03.525',-0.940,-0.480
'0:03.528',-0.935,-0.480
'0:03.531',-0.950,-0.465
'0:03.533',-0.945,-0.475
'0:03.536',-0.905,-0.455
'0:03.539',-0.900,-0.450
'0:03.542',-0.910,-0.470
'0:03.544',-0.895,-0.465
'0:03.547',-0.905,-0.475
'0:03.550',-0.935,-0.475
'0:03.553',-0.935,-0.500
'0:03.556',-0.930,-0.500
'0:03.558',-0.945,-0.495
'0:03.561',-0.945,-0.475
'0:03.564',-0.930,-0.470
'0:03.567',-0.925,-0.460
'0:03.569',-0.925,-0.455
'0:03.572',-0.905,-0.450
'0:03.575',-0.905,-0.445
'0:03.578',-0.900,-0.455
'0:03.581',-0.905,-0.450
'0:03.583',-0.915,-0.460
'0:03.586',-0.915,-0.470
'0:03.589',-0.925,-0.465
'0:03.592',-0.935,-0.490
'0:03.594',-0.930,-0.475
'0:03.597',-0.940,-0.455
'0:03.600',-0.925,-0.470
'0:03.603',-0.920,-0.465
'0:03.606',-0.915,-0.465
'0:03.608',-0.915,-0.470
'0:03.611',-0.905,-0.465
'0:03.614',-0.910,-0.475
'0:03.617',-0.910,-0.485
'0:03.619',-0.925,-0.490
'0:03.622',-0.925,-0.505
'0:03.625',-0.940,-0.485
'0:03.628',-0.950,-0.490
'0:03.631',-0.925,-0.485
'0:03.633',-0.930,-0.470
'0:03.636',-0.905,-0.465
'0:03.639',-0.905,-0.455
'0:03.642',-0.905,-0.455
'0:03.644',-0.905,-0.465
'0:03.647',-0.900,-0.460
'0:03.650',-0.920,-0.455
'0:03.653',-0.920,-0.470
'0:03.656',-0.930,-0.470
'0:03.658',-0.935,-0.460
'0:03.661',-0.940,-0.465
'0:03.664',-0.930,-0.465
'0:03.667',-0.925,-0.460
'0:03.669',-0.925,-0.460
'0:03.672',-0.920,-0.455
'0:03.675',-0.910,-0.450
'0:03.678',-0.905,-0.450
'0:03.681',-0.905,-0.460
'0:03.683',-0.915,-0.470
'0:03.686',-0.935,-0.475
'0:03.689',-0.930,-0.505
'0:03.692',-0.940,-0.480
'0:03.694',-0.945,-0.495
'0:03.697',-0.940,-0.485
'0:03.700',-0.950,-0.470
'0:03.703',-0.940,-0.465
'0:03.706',-0.940,-0.455
'0:03.708',-0.930,-0.470
'0:03.711',-0.945,-0.450
'0:03.714',-0.920,-0.470
'0:03.717',-0.945,-0.475
'0:03.719',-0.955,-0.480
'0:03.722',-0.955,-0.490
'0:03.725',-0.955,-0.485
'0:03.728',-0.955,-0.470
'0:03.731',-0.955,-0.465
'0:03.733',-0.940,-0.470
'0:03.736',-0.940,-0.455
'0:03.739',-0.935,-0.445
'0:03.742',-0.940,-0.445
'0:03.744',-0.930,-0.455
'0:03.747',-0.920,-0.465
'0:03.750',-0.925,-0.460
'0:03.753',-0.935,-0.485
'0:03.756',-0.935,-0.495
'0:03.758',-0.935,-0.480
'0:03.761',-0.935,-0.495
'0:03.764',-0.945,-0.465
'0:03.767',-0.945,-0.465
'0:03.769',-0.935,-0.470
'0:03.772',-0.930,-0.450
'0:03.775',-0.905,-0.475
'0:03.778',-0.915,-0.465
'0:03.781',-0.915,-0.480
'0:03.783',-0.935,-0.500
'0:03.786',-0.935,-0.510
'0:03.789',-0.945,-0.500
'0:03.792',-0.945,-0.505
'0:03.794',-0.950,-0.490
'0:03.797',-0.955,-0.465
'0:03.800',-0.950,-0.485
'0:03.803',-0.930,-0.455
'0:03.806',-0.905,-0.450
'0:03.808',-0.915,-0.445
'0:03.811',-0.925,-0.455
'0:03.814',-0.925,-0.460
'0:03.817',-0.930,-0.470
'0:03.819',-0.935,-0.475
'0:03.822',-0.950,-0.485
'0:03.825',-0.940,-0.485
'0:03.828',-0.945,-0.490
'0:03.831',-0.955,-0.465
'0:03.833',-0.925,-0.460
'0:03.836',-0.930,-0.460
'0:03.839',-0.915,-0.435
'0:03.842',-0.915,-0.450
'0:03.844',-0.930,-0.460
'0:03.847',-0.915,-0.490
'0:03.850',-0.930,-0.470
'0:03.853',-0.930,-0.510
'0:03.856',-0.935,-0.505
'0:03.858',-0.940,-0.495
'0:03.861',-0.940,-0.510
'0:03.864',-0.930,-0.480
'0:03.867',-0.925,-0.480
'0:03.869',-0.910,-0.450
'0:03.872',-0.910,-0.445
'0:03.875',-0.895,-0.435
'0:03.878',-0.900,-0.440
'0:03.881',-0.910,-0.470
'0:03.883',-0.915,-0.455
'0:03.886',-0.925,-0.465
'0:03.889',-0.940,-0.485
'0:03.892',-0.940,-0.480
'0:03.894',-0.940,-0.470
'0:03.897',-0.930,-0.460
'0:03.900',-0.940,-0.470
'0:03.903',-0.905,-0.440
'0:03.906',-0.895,-0.435
'0:03.908',-0.880,-0.450
'0:03.911',-0.875,-0.460
'0:03.914',-0.890,-0.460
'0:03.917',-0.895,-0.475
'0:03.919',-0.900,-0.480
'0:03.922',-0.895,-0.485
'0:03.925',-0.885,-0.475
'0:03.928',-0.855,-0.480
'0:03.931',-0.835,-0.475
'0:03.933',-0.820,-0.455
'0:03.936',-0.810,-0.460
'0:03.939',-0.795,-0.450
'0:03.942',-0.790,-0.445
'0:03.944',-0.790,-0.435
'0:03.947',-0.785,-0.450
'0:03.950',-0.770,-0.435
'0:03.953',-0.755,-0.450
'0:03.956',-0.730,-0.435
'0:03.958',-0.710,-0.435
'0:03.961',-0.705,-0.410
'0:03.964',-0.695,-0.410
'0:03.967',-0.685,-0.400
'0:03.969',-0.690,-0.380
'0:03.972',-0.695,-0.370
'0:03.975',-0.695,-0.380
'0:03.978',-0.720,-0.375
'0:03.981',-0.735,-0.395
'0:03.983',-0.750,-0.390
'0:03.986',-0.750,-0.405
'0:03.989',-0.765,-0.395
'0:03.992',-0.755,-0.390
'0:03.994',-0.765,-0.375
'0:03.997',-0.770,-0.390
'0:04.000',-0.785,-0.365
'0:04.003',-0.810,-0.395
'0:04.006',-0.840,-0.390
'0:04.008',-0.865,-0.405
'0:04.011',-0.870,-0.420
'0:04.014',-0.895,-0.435
'0:04.017',-0.920,-0.450
'0:04.019',-0.930,-0.470
'0:04.022',-0.940,-0.470
'0:04.025',-0.955,-0.470
'0:04.028',-0.970,-0.465
'0:04.031',-0.970,-0.460
'0:04.033',-0.970,-0.455
'0:04.036',-0.970,-0.425
'0:04.039',-0.950,-0.445
'0:04.042',-0.935,-0.435
'0:04.044',-0.950,-0.445
'0:04.047',-0.950,-0.445
'0:04.050',-0.960,-0.445
'0:04.053',-0.975,-0.470
'0:04.056',-0.980,-0.455
'0:04.058',-0.990,-0.485
'0:04.061',-0.995,-0.450
'0:04.064',-0.975,-0.460
'0:04.067',-0.985,-0.455
'0:04.069',-0.965,-0.455
'0:04.072',-0.950,-0.435
'0:04.075',-0.940,-0.435
'0:04.078',-0.945,-0.455
'0:04.081',-0.955,-0.460
'0:04.083',-0.950,-0.465
'0:04.086',-0.970,-0.470
'0:04.089',-0.975,-0.470
'0:04.092',-0.970,-0.485
'0:04.094',-0.965,-0.460
'0:04.097',-0.985,-0.450
'0:04.100',-0.955,-0.455
'0:04.103',-0.950,-0.440
'0:04.106',-0.945,-0.420
'0:04.108',-0.935,-0.430
'0:04.111',-0.925,-0.410
'0:04.114',-0.920,-0.430
'0:04.117',-0.930,-0.435
'0:04.119',-0.920,-0.440
'0:04.122',-0.910,-0.450
'0:04.125',-0.915,-0.440
'0:04.128',-0.915,-0.425
'0:04.131',-0.905,-0.405
'0:04.133',-0.875,-0.380
'0:04.136',-0.840,-0.360
'0:04.139',-0.805,-0.300
'0:04.142',-0.705,-0.215
'0:04.144',-0.545,-0.100
'0:04.147',-0.320,0.050
'0:04.150',-0.025,0.245
'0:04.153',0.265,0.365
'0:04.156',0.580,0.450
'0:04.158',0.895,0.510
'0:04.161',1.180,0.530
'0:04.164',1.315,0.520
'0:04.167',1.260,0.470
'0:04.169',0.990,0.350
'0:04.172',0.530,0.190
'0:04.175',-0.075,-0.085
'0:04.178',-0.710,-0.430
'0:04.181',-1.220,-0.775
'0:04.183',-1.555,-1.065
'0:04.186',-1.655,-1.215
'0:04.189',-1.570,-1.200
'0:04.192',-1.400,-1.085
'0:04.194',-1.210,-0.895
'0:04.197',-1.095,-0.730
'0:04.200',-1.035,-0.610
'0:04.203',-1.010,-0.555
'0:04.206',-1.010,-0.515
'0:04.208',-1.010,-0.520
'0:04.211',-0.985,-0.520
'0:04.214',-0.965,-0.520
'0:04.217',-0.930,-0.510
'0:04.219',-0.925,-0.505
'0:04.222',-0.940,-0.490
'0:04.225',-0.945,-0.495
'0:04.228',-0.960,-0.485
'0:04.231',-0.965,-0.475
'0:04.233',-0.955,-0.465
'0:04.236',-0.935,-0.440
'0:04.239',-0.925,-0.455
'0:04.242',-0.935,-0.430
'0:04.244',-0.920,-0.430
'0:04.247',-0.930,-0.425
'0:04.250',-0.935,-0.435
'0:04.253',-0.930,-0.435
'0:04.256',-0.935,-0.450
'0:04.258',-0.950,-0.440
'0:04.261',-0.945,-0.440
'0:04.264',-0.935,-0.425
'0:04.267',-0.945,-0.435
'0:04.269',-0.935,-0.410
'0:04.272',-0.930,-0.395
'0:04.275',-0.920,-0.390
'0:04.278',-0.925,-0.375
'0:04.281',-0.910,-0.395
'0:04.283',-0.925,-0.390
'0:04.286',-0.940,-0.415
'0:04.289',-0.930,-0.425
'0:04.292',-0.945,-0.420
'0:04.294',-0.945,-0.425
'0:04.297',-0.945,-0.420
'0:04.300',-0.935,-0.425
'0:04.303',-0.920,-0.405
'0:04.306',-0.920,-0.390
'0:04.308',-0.910,-0.400
'0:04.311',-0.910,-0.385
'0:04.314',-0.910,-0.400
'0:04.317',-0.925,-0.405
'0:04.319',-0.940,-0.405
'0:04.322',-0.950,-0.405
'0:04.325',-0.960,-0.405
'0:04.328',-0.950,-0.400
'0:04.331',-0.920,-0.385
'0:04.333',-0.920,-0.370
'0:04.336',-0.910,-0.380
'0:04.339',-0.885,-0.360
'0:04.342',-0.875,-0.355
'0:04.344',-0.880,-0.370
'0:04.347',-0.885,-0.370
'0:04.350',-0.885,-0.380
'0:04.353',-0.895,-0.395
'0:04.356',-0.890,-0.385
'0:04.358',-0.900,-0.390
'0:04.361',-0.895,-0.380
'0:04.364',-0.880,-0.360
'0:04.367',-0.885,-0.350
'0:04.369',-0.865,-0.350
'0:04.372',-0.855,-0.345
'0:04.375',-0.845,-0.345
'0:04.378',-0.835,-0.345
'0:04.381',-0.835,-0.360
'0:04.383',-0.840,-0.340
'0:04.386',-0.820,-0.345
'0:04.389',-0.810,-0.355
'0:04.392',-0.820,-0.340
'0:04.394',-0.810,-0.315
'0:04.397',-0.800,-0.305
'0:04.400',-0.785,-0.290
'0:04.403',-0.770,-0.285
'0:04.406',-0.755,-0.255
'0:04.408',-0.730,-0.265
'0:04.411',-0.720,-0.255
'0:04.414',-0.700,-0.240
'0:04.417',-0.690,-0.245
'0:04.419',-0.685,-0.255
'0:04.422',-0.685,-0.250
'0:04.425',-0.675,-0.235
'0:04.428',-0.670,-0.230
'0:04.431',-0.645,-0.210
'0:04.433',-0.640,-0.190
'0:04.436',-0.620,-0.165
'0:04.439',-0.595,-0.165
'0:04.442',-0.575,-0.165
'0:04.444',-0.555,-0.150
'0:04.447',-0.530,-0.150
'0:04.450',-0.545,-0.155
'0:04.453',-0.530,-0.160
'0:04.456',-0.520,-0.160
'0:04.458',-0.530,-0.170
'0:04.461',-0.520,-0.145
'0:04.464',-0.495,-0.130
'0:04.467',-0.480,-0.120
'0:04.469',-0.460,-0.115
'0:04.472',-0.455,-0.105
'0:04.475',-0.455,-0.105
'0:04.478',-0.425,-0.085
'0:04.481',-0.420,-0.105
'0:04.483',-0.425,-0.110
'0:04.486',-0.450,-0.130
'0:04.489',-0.465,-0.140
'0:04.492',-0.470,-0.150
'0:04.494',-0.490,-0.145
'0:04.497',-0.495,-0.145
'0:04.500',-0.535,-0.155
'0:04.503',-0.545,-0.160
'0:04.506',-0.555,-0.160
'0:04.508',-0.545,-0.180
'0:04.511',-0.570,-0.195
'0:04.514',-0.590,-0.230
'0:04.517',-0.640,-0.250
'0:04.519',-0.670,-0.275
'0:04.522',-0.700,-0.320
'0:04.525',-0.720,-0.330
'0:04.528',-0.735,-0.335
'0:04.531',-0.750,-0.360
'0:04.533',-0.770,-0.360
'0:04.536',-0.800,-0.375
'0:04.539',-0.805,-0.375
'0:04.542',-0.800,-0.390
'0:04.544',-0.810,-0.385
'0:04.547',-0.825,-0.390
'0:04.550',-0.840,-0.405
'0:04.553',-0.845,-0.420
'0:04.556',-0.865,-0.415
'0:04.558',-0.880,-0.420
'0:04.561',-0.890,-0.435
'0:04.564',-0.900,-0.430
'0:04.567',-0.895,-0.430
'0:04.569',-0.900,-0.415
'0:04.572',-0.880,-0.420
'0:04.575',-0.875,-0.425
'0:04.578',-0.885,-0.425
'0:04.581',-0.895,-0.440
'0:04.583',-0.895,-0.435
'0:04.586',-0.910,-0.435
'0:04.589',-0.915,-0.460
'0:04.592',-0.925,-0.460
'0:04.594',-0.925,-0.455
'0:04.597',-0.920,-0.455
'0:04.600',-0.915,-0.455
'0:04.603',-0.905,-0.455
'0:04.606',-0.900,-0.450
'0:04.608',-0.880,-0.440
'0:04.611',-0.880,-0.445
'0:04.614',-0.885,-0.455
'0:04.617',-0.880,-0.450
'0:04.619',-0.900,-0.455
'0:04.622',-0.910,-0.475
'0:04.625',-0.915,-0.470
'0:04.628',-0.925,-0.475
'0:04.631',-0.915,-0.450
'0:04.633',-0.915,-0.455
'0:04.636',-0.895,-0.415
'0:04.639',-0.895,-0.415
'0:04.642',-0.875,-0.410
'0:04.644',-0.870,-0.410
'0:04.647',-0.875,-0.420
'0:04.650',-0.880,-0.435
'0:04.653',-0.900,-0.445
'0:04.656',-0.910,-0.460
'0:04.658',-0.900,-0.455
'0:04.661',-0.900,-0.455
'0:04.664',-0.900,-0.445
'0:04.667',-0.890,-0.445
'0:04.669',-0.885,-0.455
'0:04.672',-0.895,-0.440
'0:04.675',-0.865,-0.430
'0:04.678',-0.860,-0.420
'0:04.681',-0.870,-0.420
'0:04.683',-0.865,-0.425
'0:04.686',-0.880,-0.435
'0:04.689',-0.890,-0.445
'0:04.692',-0.900,-0.450
'0:04.694',-0.900,-0.440
'0:04.697',-0.900,-0.435
'0:04.700',-0.890,-0.430
'0:04.703',-0.880,-0.410
'0:04.706',-0.865,-0.395
'0:04.708',-0.875,-0.405
'0:04.711',-0.875,-0.400
'0:04.714',-0.865,-0.410
'0:04.717',-0.875,-0.410
'0:04.719',-0.890,-0.435
'0:04.722',-0.905,-0.430
'0:04.725',-0.890,-0.435
'0:04.728',-0.900,-0.440
'0:04.731',-0.905,-0.425
'0:04.733',-0.900,-0.430
'0:04.736',-0.905,-0.415
'0:04.739',-0.895,-0.405
'0:04.742',-0.900,-0.405
'0:04.744',-0.900,-0.415
'0:04.747',-0.900,-0.435
'0:04.750',-0.910,-0.440
'0:04.753',-0.920,-0.445
'0:04.756',-0.915,-0.460
'0:04.758',-0.940,-0.450
'0:04.761',-0.945,-0.475
'0:04.764',-0.955,-0.465
'0:04.767',-0.950,-0.455
'0:04.769',-0.935,-0.445
'0:04.772',-0.930,-0.425
'0:04.775',-0.910,-0.435
'0:04.778',-0.910,-0.430
'0:04.781',-0.925,-0.430
'0:04.783',-0.945,-0.440
'0:04.786',-0.960,-0.450
'0:04.789',-0.955,-0.455
'0:04.792',-0.955,-0.455
'0:04.794',-0.960,-0.460
'0:04.797',-0.965,-0.450
'0:04.800',-0.950,-0.445
'0:04.803',-0.955,-0.435
'0:04.806',-0.935,-0.405
'0:04.808',-0.945,-0.425
'0:04.811',-0.925,-0.435
'0:04.814',-0.920,-0.440
'0:04.817',-0.925,-0.460
'0:04.819',-0.935,-0.465
'0:04.822',-0.950,-0.475
'0:04.825',-0.955,-0.475
'0:04.828',-0.960,-0.470
'0:04.831',-0.965,-0.470
'0:04.833',-0.955,-0.455
'0:04.836',-0.945,-0.465
'0:04.839',-0.930,-0.435
'0:04.842',-0.915,-0.430
'0:04.844',-0.920,-0.425
'0:04.847',-0.935,-0.450
'0:04.850',-0.945,-0.460
'0:04.853',-0.955,-0.470
'0:04.856',-0.970,-0.470
'0:04.858',-0.975,-0.470
'0:04.861',-0.965,-0.485
'0:04.864',-0.955,-0.470
'0:04.867',-0.940,-0.450
'0:04.869',-0.950,-0.445
'0:04.872',-0.945,-0.425
'0:04.875',-0.935,-0.430
'0:04.878',-0.935,-0.430
'0:04.881',-0.935,-0.435
'0:04.883',-0.960,-0.465
'0:04.886',-0.960,-0.480
'0:04.889',-0.955,-0.475
'0:04.892',-0.970,-0.465
'0:04.894',-0.965,-0.465
'0:04.897',-0.960,-0.470
'0:04.900',-0.960,-0.470
'0:04.903',-0.950,-0.455
'0:04.906',-0.945,-0.465
'0:04.908',-0.925,-0.460
'0:04.911',-0.930,-0.450
'0:04.914',-0.910,-0.455
'0:04.917',-0.925,-0.470
'0:04.919',-0.940,-0.480
'0:04.922',-0.940,-0.480
'0:04.925',-0.960,-0.475
'0:04.928',-0.960,-0.470
'0:04.931',-0.955,-0.470
'0:04.933',-0.950,-0.460
'0:04.936',-0.950,-0.470
'0:04.939',-0.940,-0.445
'0:04.942',-0.935,-0.440
'0:04.944',-0.935,-0.440
'0:04.947',-0.930,-0.450
'0:04.950',-0.935,-0.460
'0:04.953',-0.930,-0.460
'0:04.956',-0.945,-0.475
'0:04.958',-0.940,-0.475
'0:04.961',-0.950,-0.475
'0:04.964',-0.950,-0.480
'0:04.967',-0.950,-0.480
'0:04.969',-0.945,-0.465
'0:04.972',-0.925,-0.465
'0:04.975',-0.925,-0.445
'0:04.978',-0.925,-0.455
'0:04.981',-0.930,-0.460
'0:04.983',-0.945,-0.460
'0:04.986',-0.950,-0.470
'0:04.989',-0.955,-0.480
'0:04.992',-0.955,-0.490
'0:04.994',-0.960,-0.485
'0:04.997',-0.955,-0.475
'0:05.000',-0.955,-0.465
'0:05.003',-0.935,-0.440
'0:05.006',-0.930,-0.440
'0:05.008',-0.920,-0.440
'0:05.011',-0.905,-0.440
'0:05.014',-0.905,-0.435
'0:05.017',-0.915,-0.445
'0:05.019',-0.930,-0.455
'0:05.022',-0.950,-0.465
'0:05.025',-0.975,-0.475
'0:05.028',-0.960,-0.465
'0:05.031',-0.955,-0.470
'0:05.033',-0.960,-0.440
'0:05.036',-0.940,-0.440
'0:05.039',-0.920,-0.420
'0:05.042',-0.905,-0.420
'0:05.044',-0.910,-0.435
'0:05.047',-0.895,-0.440
'0:05.050',-0.920,-0.445
'0:05.053',-0.935,-0.460
'0:05.056',-0.950,-0.480
'0:05.058',-0.940,-0.475
'0:05.061',-0.940,-0.485
'0:05.064',-0.955,-0.465
'0:05.067',-0.940,-0.450
'0:05.069',-0.925,-0.450
'0:05.072',-0.910,-0.445
'0:05.075',-0.915,-0.440
'0:05.078',-0.920,-0.430
'0:05.081',-0.920,-0.425
'0:05.083',-0.930,-0.430
'0:05.086',-0.925,-0.450
'0:05.089',-0.930,-0.455
'0:05.092',-0.930,-0.460
'0:05.094',-0.930,-0.455
'0:05.097',-0.915,-0.445
'0:05.100',-0.920,-0.455
'0:05.103',-0.920,-0.420
'0:05.106',-0.880,-0.405
'0:05.108',-0.865,-0.425
'0:05.111',-0.845,-0.425
'0:05.114',-0.825,-0.430
'0:05.117',-0.810,-0.435
'0:05.119',-0.825,-0.455
'0:05.122',-0.830,-0.450
'0:05.125',-0.825,-0.465
'0:05.128',-0.825,-0.475
'0:05.131',-0.820,-0.470
'0:05.133',-0.800,-0.460
'0:05.136',-0.780,-0.430
'0:05.139',-0.730,-0.415
'0:05.142',-0.695,-0.390
'0:05.144',-0.680,-0.405
'0:05.147',-0.675,-0.380
'0:05.150',-0.670,-0.385
'0:05.153',-0.690,-0.390
'0:05.156',-0.710,-0.400
'0:05.158',-0.740,-0.405
'0:05.161',-0.760,-0.395
'0:05.164',-0.790,-0.395
'0:05.167',-0.770,-0.360
'0:05.169',-0.760,-0.365
'0:05.172',-0.740,-0.355
'0:05.175',-0.735,-0.335
'0:05.178',-0.745,-0.345
'0:05.181',-0.770,-0.365
'0:05.183',-0.800,-0.355
'0:05.186',-0.855,-0.385
'0:05.189',-0.895,-0.425
'0:05.192',-0.925,-0.440
'0:05.194',-0.940,-0.435
'0:05.197',-0.940,-0.435
'0:05.200',-0.945,-0.430
'0:05.203',-0.935,-0.420
'0:05.206',-0.945,-0.425
'0:05.208',-0.945,-0.425
'0:05.211',-0.950,-0.425
'0:05.214',-0.960,-0.430
'0:05.217',-0.970,-0.455
'0:05.219',-0.970,-0.465
'0:05.222',-0.985,-0.475
'0:05.225',-0.995,-0.470
'0:05.228',-1.010,-0.460
'0:05.231',-0.995,-0.440
'0:05.233',-1.005,-0.430
'0:05.236',-0.990,-0.420
'0:05.239',-0.985,-0.415
'0:05.242',-0.955,-0.420
'0:05.244',-0.955,-0.420
'0:05.247',-0.955,-0.415
'0:05.250',-0.970,-0.405
'0:05.253',-0.980,-0.415
'0:05.256',-0.995,-0.420
'0:05.258',-0.990,-0.445
'0:05.261',-0.995,-0.460
'0:05.264',-1.005,-0.440
'0:05.267',-0.985,-0.440
'0:05.269',-0.975,-0.440
'0:05.272',-0.955,-0.420
'0:05.275',-0.950,-0.415
'0:05.278',-0.935,-0.420
'0:05.281',-0.955,-0.430
'0:05.283',-0.945,-0.425
'0:05.286',-0.950,-0.430
'0:05.289',-0.955,-0.440
'0:05.292',-0.945,-0.450
'0:05.294',-0.965,-0.445
'0:05.297',-0.950,-0.435
'0:05.300',-0.930,-0.430
'0:05.303',-0.920,-0.405
'0:05.306',-0.895,-0.390
'0:05.308',-0.890,-0.385
'0:05.311',-0.870,-0.400
'0:05.314',-0.860,-0.380
'0:05.317',-0.860,-0.365
'0:05.319',-0.870,-0.355
'0:05.322',-0.875,-0.335
'0:05.325',-0.820,-0.285
'0:05.328',-0.685,-0.185
'0:05.331',-0.480,-0.030
'0:05.333',-0.190,0.180
'0:05.336',0.110,0.355
'0:05.339',0.425,0.510
'0:05.342',0.750,0.600
'0:05.344',1.060,0.625
'0:05.347',1.285,0.620
'0:05.350',1.310,0.545
'0:05.353',1.130,0.410
'0:05.356',0.745,0.230
'0:05.358',0.180,-0.005
'0:05.361',-0.460,-0.315
'0:05.364',-1.070,-0.655
'0:05.367',-1.520,-0.985
'0:05.369',-1.750,-1.215
'0:05.372',-1.780,-1.300
'0:05.375',-1.665,-1.260
'0:05.378',-1.490,-1.115
'0:05.381',-1.325,-0.950
'0:05.383',-1.220,-0.815
'0:05.386',-1.165,-0.705
'0:05.389',-1.125,-0.630
'0:05.392',-1.100,-0.580
'0:05.394',-1.060,-0.550
'0:05.397',-1.030,-0.505
'0:05.400',-0.990,-0.505
'0:05.403',-0.955,-0.470
'0:05.406',-0.930,-0.450
'0:05.408',-0.930,-0.455
'0:05.411',-0.940,-0.450
'0:05.414',-0.935,-0.440
'0:05.417',-0.940,-0.445
'0:05.419',-0.945,-0.425
'0:05.422',-0.940,-0.425
'0:05.425',-0.950,-0.440
'0:05.428',-0.955,-0.425
'0:05.431',-0.955,-0.425
'0:05.433',-0.970,-0.415
'0:05.436',-0.965,-0.395
'0:05.439',-0.940,-0.385
'0:05.442',-0.935,-0.370
'0:05.444',-0.935,-0.390
'0:05.447',-0.905,-0.385
'0:05.450',-0.910,-0.395
'0:05.453',-0.935,-0.410
'0:05.456',-0.935,-0.415
'0:05.458',-0.945,-0.400
'0:05.461',-0.950,-0.400
'0:05.464',-0.950,-0.390
'0:05.467',-0.945,-0.380
'0:05.469',-0.930,-0.350
'0:05.472',-0.920,-0.345
'0:05.475',-0.920,-0.335
'0:05.478',-0.915,-0.360
'0:05.481',-0.905,-0.350
'0:05.483',-0.905,-0.375
'0:05.486',-0.935,-0.385
'0:05.489',-0.940,-0.380
'0:05.492',-0.955,-0.390
'0:05.494',-0.960,-0.395
'0:05.497',-0.955,-0.395
'0:05.500',-0.945,-0.385
'0:05.503',-0.930,-0.385
'0:05.506',-0.935,-0.370
'0:05.508',-0.910,-0.355
'0:05.511',-0.900,-0.355
'0:05.514',-0.900,-0.365
'0:05.517',-0.915,-0.360
'0:05.519',-0.925,-0.355
'0:05.522',-0.930,-0.370
'0:05.525',-0.960,-0.365
'0:05.528',-0.955,-0.355
'0:05.531',-0.940,-0.355
'0:05.533',-0.940,-0.360
'0:05.536',-0.915,-0.350
'0:05.539',-0.910,-0.335
'0:05.542',-0.900,-0.330
'0:05.544',-0.875,-0.330
'0:05.547',-0.870,-0.330
'0:05.550',-0.875,-0.345
'0:05.553',-0.870,-0.335
'0:05.556',-0.885,-0.340
'0:05.558',-0.885,-0.330
'0:05.561',-0.885,-0.340
'0:05.564',-0.875,-0.335
'0:05.567',-0.865,-0.310
'0:05.569',-0.850,-0.305
'0:05.572',-0.835,-0.290
'0:05.575',-0.785,-0.285
'0:05.578',-0.770,-0.285
'0:05.581',-0.765,-0.275
'0:05.583',-0.775,-0.275
'0:05.586',-0.775,-0.270
'0:05.589',-0.775,-0.275
'0:05.592',-0.770,-0.250
'0:05.594',-0.760,-0.230
'0:05.597',-0.755,-0.225
'0:05.600',-0.745,-0.210
'0:05.603',-0.705,-0.190
'0:05.606',-0.685,-0.165
'0:05.608',-0.650,-0.155
'0:05.611',-0.645,-0.160
'0:05.614',-0.630,-0.160
'0:05.617',-0.635,-0.160
'0:05.619',-0.625,-0.150
'0:05.622',-0.630,-0.160
'0:05.625',-0.610,-0.155
'0:05.628',-0.605,-0.140
'0:05.631',-0.590,-0.135
'0:05.633',-0.570,-0.115
'0:05.636',-0.550,-0.105
'0:05.639',-0.530,-0.095
'0:05.642',-0.495,-0.105
'0:05.644',-0.480,-0.110
'0:05.647',-0.480,-0.095
'0:05.650',-0.470,-0.105
'0:05.653',-0.470,-0.120
'0:05.656',-0.490,-0.120
'0:05.658',-0.495,-0.130
'0:05.661',-0.505,-0.125
'0:05.664',-0.500,-0.110
'0:05.667',-0.515,-0.100
'0:05.669',-0.505,-0.100
'0:05.672',-0.490,-0.105
'0:05.675',-0.500,-0.100
'0:05.678',-0.520,-0.125
'0:05.681',-0.560,-0.130
'0:05.683',-0.570,-0.160
'0:05.686',-0.610,-0.180
'0:05.689',-0.640,-0.240
'0:05.692',-0.650,-0.240
'0:05.694',-0.675,-0.260
'0:05.697',-0.710,-0.285
'0:05.700',-0.705,-0.275
'0:05.703',-0.720,-0.285
'0:05.706',-0.750,-0.285
'0:05.708',-0.750,-0.280
'0:05.711',-0.760,-0.305
'0:05.714',-0.775,-0.330
'0:05.717',-0.790,-0.345
'0:05.719',-0.810,-0.360
'0:05.722',-0.835,-0.385
'0:05.725',-0.860,-0.375
'0:05.728',-0.865,-0.395
'0:05.731',-0.870,-0.395
'0:05.733',-0.885,-0.390
'0:05.736',-0.860,-0.385
'0:05.739',-0.860,-0.390
'0:05.742',-0.850,-0.385
'0:05.744',-0.845,-0.380
'0:05.747',-0.850,-0.390
'0:05.750',-0.870,-0.385
'0:05.753',-0.880,-0.400
'0:05.756',-0.885,-0.415
'0:05.758',-0.895,-0.420
'0:05.761',-0.905,-0.420
'0:05.764',-0.895,-0.400
'0:05.767',-0.885,-0.395
'0:05.769',-0.875,-0.385
'0:05.772',-0.870,-0.385
'0:05.775',-0.865,-0.380
'0:05.778',-0.870,-0.375
'0:05.781',-0.865,-0.390
'0:05.783',-0.870,-0.405
'0:05.786',-0.885,-0.410
'0:05.789',-0.885,-0.425
'0:05.792',-0.900,-0.430
'0:05.794',-0.900,-0.420
'0:05.797',-0.885,-0.445
'0:05.800',-0.880,-0.420
'0:05.803',-0.885,-0.420
'0:05.806',-0.880,-0.400
'0:05.808',-0.875,-0.395
'0:05.811',-0.870,-0.395
'0:05.814',-0.880,-0.390
'0:05.817',-0.865,-0.390
'0:05.819',-0.855,-0.395
'0:05.822',-0.850,-0.385
'0:05.825',-0.880,-0.395
'0:05.828',-0.880,-0.395
'0:05.831',-0.865,-0.395
'0:05.833',-0.865,-0.390
'0:05.836',-0.835,-0.370
'0:05.839',-0.845,-0.360
'0:05.842',-0.830,-0.360
'0:05.844',-0.815,-0.360
'0:05.847',-0.825,-0.365
'0:05.850',-0.820,-0.355
'0:05.853',-0.840,-0.385
'0:05.856',-0.835,-0.375
'0:05.858',-0.840,-0.410
'0:05.861',-0.840,-0.375
'0:05.864',-0.850,-0.400
'0:05.867',-0.850,-0.385
'0:05.869',-0.845,-0.375
'0:05.872',-0.815,-0.375
'0:05.875',-0.820,-0.365
'0:05.878',-0.810,-0.370
'0:05.881',-0.820,-0.360
'0:05.883',-0.830,-0.360
'0:05.886',-0.835,-0.385
'0:05.889',-0.850,-0.380
'0:05.892',-0.855,-0.405
'0:05.894',-0.855,-0.395
'0:05.897',-0.860,-0.390
'0:05.900',-0.845,-0.380
'0:05.903',-0.840,-0.380
'0:05.906',-0.820,-0.355
'0:05.908',-0.820,-0.345
'0:05.911',-0.820,-0.365
'0:05.914',-0.815,-0.375
'0:05.917',-0.825,-0.370
'0:05.919',-0.850,-0.390
'0:05.922',-0.845,-0.400
'0:05.925',-0.870,-0.410
'0:05.928',-0.875,-0.395
'0:05.931',-0.885,-0.395
'0:05.933',-0.870,-0.400
'0:05.936',-0.850,-0.400
'0:05.939',-0.860,-0.380
'0:05.942',-0.845,-0.385
'0:05.944',-0.830,-0.380
'0:05.947',-0.830,-0.395
'0:05.950',-0.840,-0.420
'0:05.953',-0.860,-0.425
'0:05.956',-0.870,-0.445
'0:05.958',-0.880,-0.450
'0:05.961',-0.880,-0.435
'0:05.964',-0.875,-0.435
'0:05.967',-0.880,-0.430
'0:05.969',-0.870,-0.425
'0:05.972',-0.865,-0.400
'0:05.975',-0.860,-0.395
'0:05.978',-0.880,-0.415
'0:05.981',-0.865,-0.405
'0:05.983',-0.865,-0.415
'0:05.986',-0.875,-0.430
'0:05.989',-0.890,-0.430
'0:05.992',-0.890,-0.440
'0:05.994',-0.910,-0.435
'0:05.997',-0.895,-0.435
'0:06.000',-0.900,-0.430
'0:06.003',-0.875,-0.425
'0:06.006',-0.880,-0.430
'0:06.008',-0.870,-0.425
'0:06.011',-0.880,-0.425
'0:06.014',-0.865,-0.425
'0:06.017',-0.865,-0.425
'0:06.019',-0.885,-0.440
'0:06.022',-0.890,-0.460
'0:06.025',-0.890,-0.460
'0:06.028',-0.900,-0.470
'0:06.031',-0.900,-0.470
'0:06.033',-0.885,-0.450
'0:06.036',-0.900,-0.460
'0:06.039',-0.895,-0.455
'0:06.042',-0.890,-0.445
'0:06.044',-0.875,-0.455
'0:06.047',-0.895,-0.465
'0:06.050',-0.895,-0.460
'0:06.053',-0.900,-0.455
'0:06.056',-0.905,-0.470
'0:06.058',-0.905,-0.475
'0:06.061',-0.905,-0.475
'0:06.064',-0.905,-0.460
'0:06.067',-0.910,-0.450
'0:06.069',-0.895,-0.450
'0:06.072',-0.885,-0.460
'0:06.075',-0.880,-0.435
'0:06.078',-0.895,-0.455
'0:06.081',-0.880,-0.450
'0:06.083',-0.885,-0.465
'0:06.086',-0.880,-0.455
'0:06.089',-0.885,-0.470
'0:06.092',-0.890,-0.475
'0:06.094',-0.900,-0.485
'0:06.097',-0.885,-0.470
'0:06.100',-0.915,-0.475
'0:06.103',-0.905,-0.460
'0:06.106',-0.905,-0.450
'0:06.108',-0.875,-0.455
'0:06.111',-0.880,-0.480
'0:06.114',-0.890,-0.475
'0:06.117',-0.880,-0.485
'0:06.119',-0.900,-0.500
'0:06.122',-0.895,-0.510
'0:06.125',-0.910,-0.495
'0:06.128',-0.925,-0.495
'0:06.131',-0.925,-0.480
'0:06.133',-0.910,-0.470
'0:06.136',-0.890,-0.470
'0:06.139',-0.895,-0.465
'0:06.142',-0.870,-0.460
'0:06.144',-0.880,-0.470
'0:06.147',-0.870,-0.475
'0:06.150',-0.880,-0.485
'0:06.153',-0.885,-0.480
'0:06.156',-0.885,-0.490
'0:06.158',-0.905,-0.495
'0:06.161',-0.905,-0.500
'0:06.164',-0.915,-0.495
'0:06.167',-0.895,-0.480
'0:06.169',-0.890,-0.475
'0:06.172',-0.880,-0.470
'0:06.175',-0.890,-0.475
'0:06.178',-0.875,-0.485
'0:06.181',-0.880,-0.475
'0:06.183',-0.880,-0.505
'0:06.186',-0.875,-0.505
'0:06.189',-0.895,-0.520
'0:06.192',-0.900,-0.520
'0:06.194',-0.905,-0.520
'0:06.197',-0.900,-0.520
'0:06.200',-0.910,-0.505
'0:06.203',-0.900,-0.485
'0:06.206',-0.895,-0.485
'0:06.208',-0.875,-0.470
'0:06.211',-0.870,-0.495
'0:06.214',-0.875,-0.485
'0:06.217',-0.885,-0.490
'0:06.219',-0.895,-0.500
'0:06.222',-0.895,-0.510
'0:06.225',-0.895,-0.500
'0:06.228',-0.905,-0.515
'0:06.231',-0.900,-0.520
'0:06.233',-0.900,-0.495
'0:06.236',-0.885,-0.490
'0:06.239',-0.875,-0.475
'0:06.242',-0.860,-0.475
'0:06.244',-0.835,-0.485
'0:06.247',-0.820,-0.485
'0:06.250',-0.815,-0.505
'0:06.253',-0.825,-0.510
'0:06.256',-0.815,-0.520
'0:06.258',-0.815,-0.520
'0:06.261',-0.815,-0.515
'0:06.264',-0.800,-0.520
'0:06.267',-0.805,-0.490
'0:06.269',-0.795,-0.500
'0:06.272',-0.785,-0.505
'0:06.275',-0.750,-0.485
'0:06.278',-0.715,-0.485
'0:06.281',-0.705,-0.465
'0:06.283',-0.670,-0.470
'0:06.286',-0.675,-0.470
'0:06.289',-0.690,-0.460
'0:06.292',-0.685,-0.465
'0:06.294',-0.695,-0.485
'0:06.297',-0.740,-0.455
'0:06.300',-0.720,-0.470
'0:06.303',-0.725,-0.435
'0:06.306',-0.710,-0.430
'0:06.308',-0.715,-0.425
'0:06.311',-0.710,-0.415
'0:06.314',-0.735,-0.400
'0:06.317',-0.735,-0.415
'0:06.319',-0.760,-0.420
'0:06.322',-0.765,-0.445
'0:06.325',-0.800,-0.455
'0:06.328',-0.830,-0.465
'0:06.331',-0.880,-0.480
'0:06.333',-0.905,-0.480
'0:06.336',-0.910,-0.490
'0:06.339',-0.930,-0.500
'0:06.342',-0.910,-0.500
'0:06.344',-0.915,-0.495
'0:06.347',-0.920,-0.510
'0:06.350',-0.930,-0.515
'0:06.353',-0.945,-0.535
'0:06.356',-0.955,-0.540
'0:06.358',-0.975,-0.550
'0:06.361',-0.975,-0.535
'0:06.364',-0.975,-0.535
'0:06.367',-0.970,-0.515
'0:06.369',-0.965,-0.520
'0:06.372',-0.975,-0.495
'0:06.375',-0.970,-0.495
'0:06.378',-0.950,-0.495
'0:06.381',-0.965,-0.515
'0:06.383',-0.975,-0.510
'0:06.386',-0.990,-0.535
'0:06.389',-1.005,-0.540
'0:06.392',-1.000,-0.550
'0:06.394',-1.010,-0.535
'0:06.397',-1.005,-0.520
'0:06.400',-0.985,-0.520
'0:06.403',-0.990,-0.525
'0:06.406',-0.965,-0.505
'0:06.408',-0.955,-0.515
'0:06.411',-0.950,-0.520
'0:06.414',-0.945,-0.520
'0:06.417',-0.955,-0.530
'0:06.419',-0.955,-0.530
'0:06.422',-0.960,-0.545
'0:06.425',-0.970,-0.545
'0:06.428',-0.965,-0.555
'0:06.431',-0.960,-0.540
'0:06.433',-0.940,-0.540
'0:06.436',-0.960,-0.525
'0:06.439',-0.925,-0.515
'0:06.442',-0.925,-0.505
'0:06.444',-0.920,-0.505
'0:06.447',-0.935,-0.510
'0:06.450',-0.920,-0.495
'0:06.453',-0.925,-0.515
'0:06.456',-0.920,-0.525
'0:06.458',-0.940,-0.510
'0:06.461',-0.925,-0.510
'0:06.464',-0.905,-0.510
'0:06.467',-0.880,-0.475
'0:06.469',-0.840,-0.440
'0:06.472',-0.810,-0.415
'0:06.475',-0.735,-0.340
'0:06.478',-0.610,-0.255
'0:06.481',-0.405,-0.140
'0:06.483',-0.165,0.000
'0:06.486',0.080,0.190
'0:06.489',0.340,0.310
'0:06.492',0.605,0.370
'0:06.494',0.895,0.395
'0:06.497',1.150,0.405
'0:06.500',1.365,0.390
'0:06.503',1.400,0.385
'0:06.506',1.255,0.330
'0:06.508',0.945,0.220
'0:06.511',0.470,0.035
'0:06.514',-0.120,-0.230
'0:06.517',-0.755,-0.555
'0:06.519',-1.300,-0.900
'0:06.522',-1.655,-1.210
'0:06.525',-1.760,-1.385
'0:06.528',-1.700,-1.395
'0:06.531',-1.520,-1.295
'0:06.533',-1.330,-1.115
'0:06.536',-1.170,-0.915
'0:06.539',-1.085,-0.790
'0:06.542',-1.060,-0.690
'0:06.544',-1.070,-0.655
'0:06.547',-1.075,-0.630
'0:06.550',-1.060,-0.645
'0:06.553',-1.050,-0.635
'0:06.556',-1.005,-0.620
'0:06.558',-0.985,-0.620
'0:06.561',-0.950,-0.585
'0:06.564',-0.955,-0.580
'0:06.567',-0.945,-0.560
'0:06.569',-0.945,-0.540
'0:06.572',-0.950,-0.525
'0:06.575',-0.935,-0.535
'0:06.578',-0.940,-0.520
'0:06.581',-0.935,-0.525
'0:06.583',-0.940,-0.505
'0:06.586',-0.950,-0.535
'0:06.589',-0.960,-0.545
'0:06.592',-0.955,-0.525
'0:06.594',-0.970,-0.520
'0:06.597',-0.965,-0.510
'0:06.600',-0.945,-0.510
'0:06.603',-0.940,-0.500
'0:06.606',-0.925,-0.470
'0:06.608',-0.925,-0.470
'0:06.611',-0.925,-0.475
'0:06.614',-0.935,-0.485
'0:06.617',-0.940,-0.490
'0:06.619',-0.940,-0.480
'0:06.622',-0.945,-0.490
'0:06.625',-0.950,-0.500
'0:06.628',-0.960,-0.505
'0:06.631',-0.950,-0.480
'0:06.633',-0.955,-0.495
'0:06.636',-0.945,-0.485
'0:06.639',-0.945,-0.470
'0:06.642',-0.935,-0.465
'0:06.644',-0.910,-0.470
'0:06.647',-0.925,-0.470
'0:06.650',-0.915,-0.485
'0:06.653',-0.925,-0.495
'0:06.656',-0.935,-0.515
'0:06.658',-0.940,-0.520
'0:06.661',-0.950,-0.515
'0:06.664',-0.965,-0.500
'0:06.667',-0.950,-0.495
'0:06.669',-0.930,-0.475
'0:06.672',-0.925,-0.455
'0:06.675',-0.915,-0.450
'0:06.678',-0.905,-0.445
'0:06.681',-0.905,-0.450
'0:06.683',-0.905,-0.455
'0:06.686',-0.905,-0.470
'0:06.689',-0.915,-0.470
'0:06.692',-0.915,-0.485
'0:06.694',-0.920,-0.465
'0:06.697',-0.920,-0.460
'0:06.700',-0.905,-0.455
'0:06.703',-0.900,-0.450
'0:06.706',-0.885,-0.440
'0:06.708',-0.885,-0.415
'0:06.711',-0.875,-0.420
'0:06.714',-0.855,-0.420
'0:06.717',-0.855,-0.430
'0:06.719',-0.855,-0.435
'0:06.722',-0.875,-0.445
'0:06.725',-0.860,-0.435
'0:06.728',-0.855,-0.440
'0:06.731',-0.850,-0.425
'0:06.733',-0.840,-0.420
'0:06.736',-0.820,-0.400
'0:06.739',-0.795,-0.385
'0:06.742',-0.770,-0.355
'0:06.744',-0.775,-0.350
'0:06.747',-0.755,-0.360
'0:06.750',-0.750,-0.330
'0:06.753',-0.730,-0.345
'0:06.756',-0.745,-0.340
'0:06.758',-0.725,-0.335
'0:06.761',-0.715,-0.325
'0:06.764',-0.700,-0.310
'0:06.767',-0.675,-0.285
'0:06.769',-0.645,-0.290
'0:06.772',-0.620,-0.255
'0:06.775',-0.600,-0.240
'0:06.778',-0.575,-0.230
'0:06.781',-0.560,-0.230
'0:06.783',-0.545,-0.220
'0:06.786',-0.530,-0.225
'0:06.789',-0.525,-0.230
'0:06.792',-0.525,-0.235
'0:06.794',-0.505,-0.230
'0:06.797',-0.490,-0.220
'0:06.800',-0.480,-0.200
'0:06.803',-0.455,-0.185
'0:06.806',-0.430,-0.180
'0:06.808',-0.410,-0.165
'0:06.811',-0.400,-0.170
'0:06.814',-0.390,-0.160
'0:06.817',-0.390,-0.170
'0:06.819',-0.400,-0.175
'0:06.822',-0.415,-0.175
'0:06.825',-0.415,-0.180
'0:06.828',-0.440,-0.190
'0:06.831',-0.445,-0.195
'0:06.833',-0.460,-0.210
'0:06.836',-0.460,-0.220
'0:06.839',-0.465,-0.225
'0:06.842',-0.490,-0.225
'0:06.844',-0.520,-0.255
'0:06.847',-0.545,-0.280
'0:06.850',-0.575,-0.290
'0:06.853',-0.600,-0.325
'0:06.856',-0.645,-0.360
'0:06.858',-0.665,-0.385
'0:06.861',-0.695,-0.405
'0:06.864',-0.725,-0.420
'0:06.867',-0.750,-0.425
'0:06.869',-0.755,-0.435
'0:06.872',-0.770,-0.455
'0:06.875',-0.775,-0.445
'0:06.878',-0.785,-0.465
'0:06.881',-0.800,-0.475
'0:06.883',-0.820,-0.495
'0:06.886',-0.835,-0.515
'0:06.889',-0.855,-0.535
'0:06.892',-0.880,-0.550
'0:06.894',-0.870,-0.545
'0:06.897',-0.880,-0.545
'0:06.900',-0.885,-0.530
'0:06.903',-0.875,-0.505
'0:06.906',-0.875,-0.520
'0:06.908',-0.875,-0.510
'0:06.911',-0.870,-0.530
'0:06.914',-0.870,-0.525
'0:06.917',-0.890,-0.545
'0:06.919',-0.885,-0.560
'0:06.922',-0.910,-0.570
'0:06.925',-0.900,-0.555
'0:06.928',-0.910,-0.565
'0:06.931',-0.925,-0.570
'0:06.933',-0.920,-0.560
'0:06.936',-0.920,-0.540
'0:06.939',-0.900,-0.530
'0:06.942',-0.895,-0.540
'0:06.944',-0.895,-0.540
'0:06.947',-0.890,-0.540
'0:06.950',-0.895,-0.555
'0:06.953',-0.915,-0.580
'0:06.956',-0.925,-0.565
'0:06.958',-0.930,-0.585
'0:06.961',-0.925,-0.575
'0:06.964',-0.930,-0.580
'0:06.967',-0.925,-0.570
'0:06.969',-0.910,-0.560
'0:06.972',-0.910,-0.550
'0:06.975',-0.890,-0.535
'0:06.978',-0.890,-0.540
'0:06.981',-0.885,-0.550
'0:06.983',-0.890,-0.560
'0:06.986',-0.890,-0.545
'0:06.989',-0.890,-0.560
'0:06.992',-0.910,-0.560
'0:06.994',-0.910,-0.560
'0:06.997',-0.905,-0.545
'0:07.000',-0.910,-0.550
'0:07.003',-0.910,-0.530
'0:07.006',-0.885,-0.520
'0:07.008',-0.880,-0.505
'0:07.011',-0.870,-0.535
'0:07.014',-0.865,-0.515
'0:07.017',-0.855,-0.530
'0:07.019',-0.875,-0.530
'0:07.022',-0.885,-0.560
'0:07.025',-0.890,-0.560
'0:07.028',-0.915,-0.555
'0:07.031',-0.915,-0.570
'0:07.033',-0.895,-0.535
'0:07.036',-0.885,-0.545
'0:07.039',-0.885,-0.525
'0:07.042',-0.875,-0.510
'0:07.044',-0.850,-0.500
'0:07.047',-0.865,-0.500
'0:07.050',-0.860,-0.495
'0:07.053',-0.875,-0.525
'0:07.056',-0.885,-0.525
'0:07.058',-0.890,-0.535
'0:07.061',-0.900,-0.535
'0:07.064',-0.905,-0.530
'0:07.067',-0.890,-0.535
'0:07.069',-0.890,-0.525
'0:07.072',-0.880,-0.515
'0:07.075',-0.875,-0.495
'0:07.078',-0.875,-0.520
'0:07.081',-0.875,-0.510
'0:07.083',-0.895,-0.515
'0:07.086',-0.895,-0.520
'0:07.089',-0.915,-0.545
'0:07.092',-0.930,-0.545
'0:07.094',-0.920,-0.550
'0:07.097',-0.925,-0.550
'0:07.100',-0.925,-0.555
'0:07.103',-0.920,-0.550
'0:07.106',-0.920,-0.525
'0:07.108',-0.910,-0.535
'0:07.111',-0.910,-0.545
'0:07.114',-0.915,-0.540
'0:07.117',-0.910,-0.545
'0:07.119',-0.925,-0.555
'0:07.122',-0.955,-0.555
'0:07.125',-0.965,-0.570
'0:07.128',-0.970,-0.575
'0:07.131',-0.955,-0.585
'0:07.133',-0.950,-0.570
'0:07.136',-0.950,-0.560
'0:07.139',-0.940,-0.560
'0:07.142',-0.925,-0.530
'0:07.144',-0.925,-0.570
'0:07.147',-0.935,-0.565
'0:07.150',-0.935,-0.570
'0:07.153',-0.950,-0.570
'0:07.156',-0.955,-0.590
'0:07.158',-0.970,-0.595
'0:07.161',-0.960,-0.590
'0:07.164',-0.965,-0.590
'0:07.167',-0.970,-0.575
'0:07.169',-0.955,-0.580
'0:07.172',-0.955,-0.580
'0:07.175',-0.940,-0.565
'0:07.178',-0.925,-0.580
'0:07.181',-0.925,-0.590
'0:07.183',-0.925,-0.590
'0:07.186',-0.950,-0.600
'0:07.189',-0.960,-0.610
'0:07.192',-0.960,-0.600
'0:07.194',-0.975,-0.615
'0:07.197',-0.975,-0.600
'0:07.200',-0.985,-0.590
'0:07.203',-0.975,-0.575
'0:07.206',-0.960,-0.570
'0:07.208',-0.945,-0.545
'0:07.211',-0.940,-0.575
'0:07.214',-0.950,-0.585
'0:07.217',-0.945,-0.585
'0:07.219',-0.960,-0.590
'0:07.222',-0.960,-0.620
'0:07.225',-0.975,-0.625
'0:07.228',-0.980,-0.610
'0:07.231',-0.980,-0.610
'0:07.233',-0.970,-0.595
'0:07.236',-0.970,-0.585
'0:07.239',-0.960,-0.580
'0:07.242',-0.955,-0.560
'0:07.244',-0.940,-0.585
'0:07.247',-0.955,-0.590
'0:07.250',-0.970,-0.595
'0:07.253',-0.980,-0.615
'0:07.256',-0.980,-0.625
'0:07.258',-0.980,-0.630
'0:07.261',-0.990,-0.625
'0:07.264',-1.000,-0.630
'0:07.267',-0.980,-0.615
'0:07.269',-0.990,-0.605
'0:07.272',-0.980,-0.600
'0:07.275',-0.960,-0.585
'0:07.278',-0.950,-0.585
'0:07.281',-0.950,-0.590
'0:07.283',-0.965,-0.600
'0:07.286',-0.955,-0.605
'0:07.289',-0.965,-0.610
'0:07.292',-0.975,-0.620
'0:07.294',-0.975,-0.615
'0:07.297',-0.985,-0.605
'0:07.300',-0.975,-0.590
'0:07.303',-0.985,-0.600
'0:07.306',-0.980,-0.570
'0:07.308',-0.970,-0.590
'0:07.311',-0.960,-0.600
'0:07.314',-0.965,-0.605
'0:07.317',-0.970,-0.605
'0:07.319',-0.985,-0.615
'0:07.322',-0.980,-0.615
'0:07.325',-0.995,-0.630
'0:07.328',-1.010,-0.630
'0:07.331',-1.020,-0.615
'0:07.333',-1.020,-0.620
'0:07.336',-0.990,-0.620
'0:07.339',-0.995,-0.605
'0:07.342',-0.980,-0.610
'0:07.344',-0.980,-0.600
'0:07.347',-0.965,-0.610
'0:07.350',-0.970,-0.610
'0:07.353',-0.970,-0.620
'0:07.356',-0.985,-0.640
'0:07.358',-0.990,-0.620
'0:07.361',-0.990,-0.630
'0:07.364',-0.985,-0.625
'0:07.367',-1.000,-0.615
'0:07.369',-1.010,-0.605
'0:07.372',-1.000,-0.595
'0:07.375',-0.975,-0.590
'0:07.378',-0.955,-0.580
'0:07.381',-0.955,-0.600
'0:07.383',-0.955,-0.605
'0:07.386',-0.975,-0.615
'0:07.389',-0.995,-0.625
'0:07.392',-0.995,-0.630
'0:07.394',-1.010,-0.625
'0:07.397',-1.000,-0.615
'0:07.400',-0.990,-0.615
'0:07.403',-0.990,-0.610
'0:07.406',-0.975,-0.600
'0:07.408',-0.975,-0.580
'0:07.411',-0.965,-0.585
'0:07.414',-0.960,-0.595
'0:07.417',-0.970,-0.620
'0:07.419',-0.975,-0.620
'0:07.422',-0.970,-0.630
'0:07.425',-0.990,-0.630
'0:07.428',-0.995,-0.620
'0:07.431',-0.985,-0.635
'0:07.433',-0.990,-0.625
'0:07.436',-0.990,-0.605
'0:07.439',-0.975,-0.595
'0:07.442',-0.950,-0.600
'0:07.444',-0.950,-0.585
'0:07.447',-0.950,-0.585
'0:07.450',-0.950,-0.605
'0:07.453',-0.955,-0.595
'0:07.456',-0.965,-0.625
'0:07.458',-0.980,-0.620
'0:07.461',-0.985,-0.620
'0:07.464',-0.970,-0.620
'0:07.467',-0.975,-0.615
'0:07.469',-0.965,-0.615
'0:07.472',-0.955,-0.605
'0:07.475',-0.940,-0.590
'0:07.478',-0.945,-0.605
'0:07.481',-0.935,-0.610
'0:07.483',-0.975,-0.610
'0:07.486',-0.995,-0.630
'0:07.489',-0.990,-0.615
'0:07.492',-0.990,-0.635
'0:07.494',-0.985,-0.650
'0:07.497',-0.990,-0.635
'0:07.500',-0.960,-0.610
'0:07.503',-0.970,-0.620
'0:07.506',-0.970,-0.605
'0:07.508',-0.950,-0.600
'0:07.511',-0.945,-0.575
'0:07.514',-0.940,-0.600
'0:07.517',-0.945,-0.600
'0:07.519',-0.945,-0.610
'0:07.522',-0.955,-0.620
'0:07.525',-0.975,-0.625
'0:07.528',-0.985,-0.625
'0:07.531',-0.985,-0.625
'0:07.533',-0.980,-0.615
'0:07.536',-0.960,-0.595
'0:07.539',-0.960,-0.580
'0:07.542',-0.965,-0.575
'0:07.544',-0.945,-0.585
'0:07.547',-0.940,-0.580
'0:07.550',-0.950,-0.590
'0:07.553',-0.950,-0.605
'0:07.556',-0.960,-0.615
'0:07.558',-0.980,-0.615
'0:07.561',-0.990,-0.620
'0:07.564',-0.970,-0.625
'0:07.567',-0.980,-0.625
'0:07.569',-0.960,-0.615
'0:07.572',-0.945,-0.600
'0:07.575',-0.945,-0.585
'0:07.578',-0.930,-0.575
'0:07.581',-0.945,-0.575
'0:07.583',-0.940,-0.585
'0:07.586',-0.945,-0.600
'0:07.589',-0.950,-0.590
'0:07.592',-0.950,-0.610
'0:07.594',-0.950,-0.615
'0:07.597',-0.950,-0.615
'0:07.600',-0.935,-0.590
'0:07.603',-0.905,-0.585
'0:07.606',-0.880,-0.580
'0:07.608',-0.860,-0.560
'0:07.611',-0.840,-0.575
'0:07.614',-0.835,-0.570
'0:07.617',-0.815,-0.570
'0:07.619',-0.820,-0.580
'0:07.622',-0.840,-0.585
'0:07.625',-0.840,-0.600
'0:07.628',-0.830,-0.615
'0:07.631',-0.815,-0.600
'0:07.633',-0.785,-0.585
'0:07.636',-0.760,-0.560
'0:07.639',-0.730,-0.565
'0:07.642',-0.705,-0.530
'0:07.644',-0.710,-0.525
'0:07.647',-0.720,-0.530
'0:07.650',-0.735,-0.540
'0:07.653',-0.740,-0.550
'0:07.656',-0.765,-0.575
'0:07.658',-0.790,-0.560
'0:07.661',-0.805,-0.550
'0:07.664',-0.825,-0.545
'0:07.667',-0.815,-0.530
'0:07.669',-0.815,-0.510
'0:07.672',-0.795,-0.490
'0:07.675',-0.820,-0.495
'0:07.678',-0.810,-0.495
'0:07.681',-0.825,-0.500
'0:07.683',-0.855,-0.505
'0:07.686',-0.880,-0.540
'0:07.689',-0.915,-0.560
'0:07.692',-0.960,-0.575
'0:07.694',-0.995,-0.575
'0:07.697',-1.010,-0.590
'0:07.700',-1.015,-0.585
'0:07.703',-1.010,-0.590
'0:07.706',-1.010,-0.580
'0:07.708',-1.005,-0.570
'0:07.711',-1.000,-0.580
'0:07.714',-0.995,-0.570
'0:07.717',-1.005,-0.570
'0:07.719',-1.020,-0.590
'0:07.722',-1.020,-0.620
'0:07.725',-1.020,-0.610
'0:07.728',-1.040,-0.615
'0:07.731',-1.040,-0.595
'0:07.733',-1.030,-0.585
'0:07.736',-1.045,-0.575
'0:07.739',-1.030,-0.575
'0:07.742',-1.015,-0.575
'0:07.744',-1.010,-0.570
'0:07.747',-1.015,-0.565
'0:07.750',-1.015,-0.560
'0:07.753',-1.025,-0.565
'0:07.756',-1.025,-0.585
'0:07.758',-1.030,-0.605
'0:07.761',-1.030,-0.590
'0:07.764',-1.030,-0.570
'0:07.767',-1.045,-0.570
'0:07.769',-1.030,-0.565
'0:07.772',-1.020,-0.575
'0:07.775',-1.005,-0.535
'0:07.778',-1.000,-0.550
'0:07.781',-1.010,-0.570
'0:07.783',-0.995,-0.580
'0:07.786',-1.000,-0.565
'0:07.789',-0.995,-0.585
'0:07.792',-1.000,-0.585
'0:07.794',-1.005,-0.580
'0:07.797',-0.990,-0.575
'0:07.800',-0.995,-0.570
'0:07.803',-0.975,-0.545
'0:07.806',-0.945,-0.540
'0:07.808',-0.925,-0.510
'0:07.811',-0.905,-0.480
'0:07.814',-0.870,-0.450
'0:07.817',-0.770,-0.410
'0:07.819',-0.635,-0.270
'0:07.822',-0.395,-0.140
'0:07.825',-0.110,0.045
'0:07.828',0.200,0.205
'0:07.831',0.530,0.320
'0:07.833',0.870,0.395
'0:07.836',1.185,0.425
'0:07.839',1.360,0.420
'0:07.842',1.360,0.400
'0:07.844',1.115,0.330
'0:07.847',0.645,0.155
'0:07.850',0.020,-0.075
'0:07.853',-0.620,-0.405
'0:07.856',-1.220,-0.765
'0:07.858',-1.610,-1.110
'0:07.861',-1.750,-1.300
'0:07.864',-1.670,-1.345
'0:07.867',-1.495,-1.215
'0:07.869',-1.295,-1.025
'0:07.872',-1.160,-0.860
'0:07.875',-1.065,-0.720
'0:07.878',-1.045,-0.660
'0:07.881',-1.070,-0.630
'0:07.883',-1.075,-0.650
'0:07.886',-1.080,-0.660
'0:07.889',-1.050,-0.655
'0:07.892',-1.035,-0.655
'0:07.894',-1.015,-0.640
'0:07.897',-0.990,-0.630
'0:07.900',-1.000,-0.610
'0:07.903',-1.000,-0.590
'0:07.906',-0.990,-0.570
'0:07.908',-0.995,-0.565
'0:07.911',-0.995,-0.560
'0:07.914',-0.985,-0.570
'0:07.917',-0.990,-0.560
'0:07.919',-0.995,-0.570
'0:07.922',-1.010,-0.580
'0:07.925',-1.015,-0.600
'0:07.928',-1.015,-0.590
'0:07.931',-1.030,-0.585
'0:07.933',-1.010,-0.590
'0:07.936',-1.005,-0.575
'0:07.939',-1.005,-0.550
'0:07.942',-0.985,-0.545
'0:07.944',-0.990,-0.550
'0:07.947',-0.980,-0.540
'0:07.950',-0.980,-0.550
'0:07.953',-0.995,-0.545
'0:07.956',-1.010,-0.555
'0:07.958',-1.020,-0.570
'0:07.961',-1.015,-0.560
'0:07.964',-1.025,-0.550
'0:07.967',-1.025,-0.550
'0:07.969',-1.025,-0.545
'0:07.972',-1.020,-0.525
'0:07.975',-1.005,-0.525
'0:07.978',-0.985,-0.515
'0:07.981',-0.970,-0.525
'0:07.983',-0.970,-0.530
'0:07.986',-0.985,-0.520
'0:07.989',-0.990,-0.540
'0:07.992',-1.000,-0.555
'0:07.994',-1.000,-0.555
'0:07.997',-1.005,-0.555
'0:08.000',-1.005,-0.545
'0:08.003',-0.995,-0.545
'0:08.006',-0.980,-0.520
'0:08.008',-0.985,-0.510
'0:08.011',-0.980,-0.505
'0:08.014',-0.975,-0.515
'0:08.017',-0.980,-0.510
'0:08.019',-0.975,-0.530
'0:08.022',-0.995,-0.520
'0:08.025',-1.005,-0.525
'0:08.028',-0.995,-0.520
'0:08.031',-1.000,-0.505
'0:08.033',-0.975,-0.505
'0:08.036',-0.960,-0.500
'0:08.039',-0.940,-0.480
'0:08.042',-0.935,-0.465
'0:08.044',-0.925,-0.470
'0:08.047',-0.905,-0.470
'0:08.050',-0.930,-0.470
'0:08.053',-0.920,-0.470
'0:08.056',-0.910,-0.470
'0:08.058',-0.920,-0.485
'0:08.061',-0.925,-0.475
'0:08.064',-0.930,-0.460
'0:08.067',-0.900,-0.470
'0:08.069',-0.880,-0.450
'0:08.072',-0.870,-0.425
'0:08.075',-0.845,-0.410
'0:08.078',-0.820,-0.415
'0:08.081',-0.810,-0.400
'0:08.083',-0.800,-0.390
'0:08.086',-0.795,-0.410
'0:08.089',-0.790,-0.405
'0:08.092',-0.780,-0.390
'0:08.094',-0.780,-0.385
'0:08.097',-0.755,-0.375
'0:08.100',-0.745,-0.345
'0:08.103',-0.710,-0.315
'0:08.106',-0.680,-0.300
'0:08.108',-0.660,-0.270
'0:08.111',-0.635,-0.255
'0:08.114',-0.630,-0.260
'0:08.117',-0.630,-0.265
'0:08.119',-0.610,-0.255
'0:08.122',-0.595,-0.240
'0:08.125',-0.580,-0.250
'0:08.128',-0.570,-0.230
'0:08.131',-0.560,-0.245
'0:08.133',-0.545,-0.230
'0:08.136',-0.520,-0.210
'0:08.139',-0.500,-0.180
'0:08.142',-0.485,-0.190
'0:08.144',-0.460,-0.185
'0:08.147',-0.460,-0.200
'0:08.150',-0.435,-0.200
'0:08.153',-0.435,-0.210
'0:08.156',-0.450,-0.215
'0:08.158',-0.470,-0.215
'0:08.161',-0.470,-0.235
'0:08.164',-0.475,-0.250
'0:08.167',-0.490,-0.250
'0:08.169',-0.505,-0.220
'0:08.172',-0.525,-0.225
'0:08.175',-0.520,-0.235
'0:08.178',-0.530,-0.265
'0:08.181',-0.565,-0.270
'0:08.183',-0.580,-0.295
'0:08.186',-0.615,-0.330
'0:08.189',-0.645,-0.365
'0:08.192',-0.685,-0.370
'0:08.194',-0.710,-0.405
'0:08.197',-0.740,-0.425
'0:08.200',-0.765,-0.435
'0:08.203',-0.795,-0.435
'0:08.206',-0.800,-0.450
'0:08.208',-0.835,-0.445
'0:08.211',-0.830,-0.470
'0:08.214',-0.850,-0.485
'0:08.217',-0.860,-0.510
'0:08.219',-0.875,-0.520
'0:08.222',-0.890,-0.540
'0:08.225',-0.905,-0.570
'0:08.228',-0.915,-0.545
'0:08.231',-0.915,-0.565
'0:08.233',-0.915,-0.555
'0:08.236',-0.920,-0.550
'0:08.239',-0.900,-0.550
'0:08.242',-0.910,-0.530
'0:08.244',-0.890,-0.525
'0:08.247',-0.900,-0.540
'0:08.250',-0.915,-0.540
'0:08.253',-0.915,-0.545
'0:08.256',-0.925,-0.565
'0:08.258',-0.925,-0.570
'0:08.261',-0.930,-0.575
'0:08.264',-0.945,-0.580
'0:08.267',-0.945,-0.555
'0:08.269',-0.925,-0.550
'0:08.272',-0.920,-0.545
'0:08.275',-0.925,-0.535
'0:08.278',-0.910,-0.540
'0:08.281',-0.900,-0.565
'0:08.283',-0.900,-0.560
'0:08.286',-0.910,-0.575
'0:08.289',-0.915,-0.575
'0:08.292',-0.925,-0.575
'0:08.294',-0.935,-0.585
'0:08.297',-0.935,-0.575
'0:08.300',-0.920,-0.560
'0:08.303',-0.915,-0.570
'0:08.306',-0.905,-0.550
'0:08.308',-0.895,-0.535
'0:08.311',-0.880,-0.530
'0:08.314',-0.885,-0.540
'0:08.317',-0.880,-0.540
'0:08.319',-0.890,-0.530
'0:08.322',-0.895,-0.545
'0:08.325',-0.890,-0.550
'0:08.328',-0.910,-0.560
'0:08.331',-0.910,-0.545
'0:08.333',-0.920,-0.535
'0:08.336',-0.900,-0.535
'0:08.339',-0.895,-0.535
'0:08.342',-0.885,-0.505
'0:08.344',-0.875,-0.510
'0:08.347',-0.870,-0.505
'0:08.350',-0.860,-0.520
'0:08.353',-0.890,-0.530
'0:08.356',-0.875,-0.545
'0:08.358',-0.895,-0.535
'0:08.361',-0.905,-0.555
'0:08.364',-0.910,-0.545
'0:08.367',-0.910,-0.535
'0:08.369',-0.885,-0.530
'0:08.372',-0.875,-0.530
'0:08.375',-0.890,-0.510
'0:08.378',-0.860,-0.505
'0:08.381',-0.880,-0.515
'0:08.383',-0.860,-0.515
'0:08.386',-0.890,-0.525
'0:08.389',-0.890,-0.525
'0:08.392',-0.895,-0.540
'0:08.394',-0.895,-0.535
'0:08.397',-0.900,-0.535
'0:08.400',-0.910,-0.530
'0:08.403',-0.900,-0.520
'0:08.406',-0.890,-0.510
'0:08.408',-0.885,-0.510
'0:08.411',-0.880,-0.520
'0:08.414',-0.885,-0.515
'0:08.417',-0.880,-0.505
'0:08.419',-0.880,-0.520
'0:08.422',-0.895,-0.550
'0:08.425',-0.905,-0.560
'0:08.428',-0.925,-0.560
'0:08.431',-0.930,-0.555
'0:08.433',-0.935,-0.550
'0:08.436',-0.920,-0.540
'0:08.439',-0.910,-0.560
'0:08.442',-0.905,-0.550
'0:08.444',-0.900,-0.535
'0:08.447',-0.900,-0.535
'0:08.450',-0.895,-0.550
'0:08.453',-0.905,-0.570
'0:08.456',-0.925,-0.555
'0:08.458',-0.925,-0.570
'0:08.461',-0.935,-0.555
'0:08.464',-0.945,-0.560
'0:08.467',-0.935,-0.565
'0:08.469',-0.935,-0.570
'0:08.472',-0.925,-0.560
'0:08.475',-0.915,-0.535
'0:08.478',-0.905,-0.535
'0:08.481',-0.905,-0.545
'0:08.483',-0.900,-0.540
'0:08.486',-0.920,-0.555
'0:08.489',-0.930,-0.575
'0:08.492',-0.945,-0.580
'0:08.494',-0.945,-0.585
'0:08.497',-0.945,-0.580
'0:08.500',-0.950,-0.575
'0:08.503',-0.935,-0.560
'0:08.506',-0.915,-0.570
'0:08.508',-0.905,-0.540
'0:08.511',-0.905,-0.565
'0:08.514',-0.895,-0.555
'0:08.517',-0.925,-0.575
'0:08.519',-0.920,-0.590
'0:08.522',-0.940,-0.575
'0:08.525',-0.935,-0.585
'0:08.528',-0.935,-0.590
'0:08.531',-0.945,-0.570
'0:08.533',-0.960,-0.580
'0:08.536',-0.940,-0.570
'0:08.539',-0.930,-0.565
'0:08.542',-0.930,-0.555
'0:08.544',-0.915,-0.540
'0:08.547',-0.910,-0.545
'0:08.550',-0.905,-0.560
'0:08.553',-0.925,-0.555
'0:08.556',-0.930,-0.570
'0:08.558',-0.925,-0.560
'0:08.561',-0.945,-0.580
'0:08.564',-0.945,-0.570
'0:08.567',-0.950,-0.570
'0:08.569',-0.940,-0.555
'0:08.572',-0.935,-0.565
'0:08.575',-0.930,-0.535
'0:08.578',-0.925,-0.530
'0:08.581',-0.920,-0.545
'0:08.583',-0.945,-0.565
'0:08.586',-0.930,-0.590
'0:08.589',-0.965,-0.590
'0:08.592',-0.955,-0.600
'0:08.594',-0.945,-0.600
'0:08.597',-0.960,-0.590
'0:08.600',-0.960,-0.565
'0:08.603',-0.945,-0.565
'0:08.606',-0.950,-0.540
'0:08.608',-0.940,-0.540
'0:08.611',-0.925,-0.535
'0:08.614',-0.915,-0.535
'0:08.617',-0.935,-0.550
'0:08.619',-0.940,-0.560
'0:08.622',-0.950,-0.555
'0:08.625',-0.960,-0.565
'0:08.628',-0.970,-0.570
'0:08.631',-0.965,-0.580
'0:08.633',-0.965,-0.580
'0:08.636',-0.955,-0.560
'0:08.639',-0.945,-0.555
'0:08.642',-0.935,-0.545
'0:08.644',-0.950,-0.540
'0:08.647',-0.940,-0.550
'0:08.650',-0.940,-0.560
'0:08.653',-0.935,-0.565
'0:08.656',-0.945,-0.585
'0:08.658',-0.950,-0.570
'0:08.661',-0.960,-0.600
'0:08.664',-0.965,-0.580
'0:08.667',-0.950,-0.555
'0:08.669',-0.945,-0.570
'0:08.672',-0.950,-0.580
'0:08.675',-0.940,-0.555
'0:08.678',-0.925,-0.560
'0:08.681',-0.925,-0.560
'0:08.683',-0.925,-0.550
'0:08.686',-0.925,-0.550
'0:08.689',-0.935,-0.550
'0:08.692',-0.950,-0.575
'0:08.694',-0.955,-0.565
'0:08.697',-0.970,-0.570
'0:08.700',-0.970,-0.585
'0:08.703',-0.960,-0.570
'0:08.706',-0.935,-0.565
'0:08.708',-0.935,-0.545
'0:08.711',-0.925,-0.550
'0:08.714',-0.915,-0.545
'0:08.717',-0.915,-0.540
'0:08.719',-0.920,-0.550
'0:08.722',-0.940,-0.560
'0:08.725',-0.940,-0.575
'0:08.728',-0.955,-0.575
'0:08.731',-0.970,-0.600
'0:08.733',-0.960,-0.590
'0:08.736',-0.965,-0.585
'0:08.739',-0.970,-0.570
'0:08.742',-0.950,-0.570
'0:08.744',-0.935,-0.545
'0:08.747',-0.930,-0.570
'0:08.750',-0.915,-0.560
'0:08.753',-0.920,-0.570
'0:08.756',-0.935,-0.580
'0:08.758',-0.940,-0.595
'0:08.761',-0.960,-0.580
'0:08.764',-0.950,-0.575
'0:08.767',-0.955,-0.580
'0:08.769',-0.950,-0.565
'0:08.772',-0.945,-0.560
'0:08.775',-0.940,-0.555
'0:08.778',-0.920,-0.540
'0:08.781',-0.920,-0.550
'0:08.783',-0.925,-0.565
'0:08.786',-0.940,-0.575
'0:08.789',-0.960,-0.555
'0:08.792',-0.960,-0.585
'0:08.794',-0.965,-0.585
'0:08.797',-0.945,-0.580
'0:08.800',-0.945,-0.585
'0:08.803',-0.920,-0.565
'0:08.806',-0.900,-0.550
'0:08.808',-0.880,-0.535
'0:08.811',-0.860,-0.545
'0:08.814',-0.845,-0.535
'0:08.817',-0.830,-0.535
'0:08.819',-0.810,-0.565
'0:08.822',-0.825,-0.575
'0:08.825',-0.840,-0.595
'0:08.828',-0.850,-0.610
'0:08.831',-0.875,-0.595
'0:08.833',-0.860,-0.565
'0:08.836',-0.825,-0.555
'0:08.839',-0.790,-0.545
'0:08.842',-0.730,-0.525
'0:08.844',-0.685,-0.505
'0:08.847',-0.680,-0.500
'0:08.850',-0.670,-0.490
'0:08.853',-0.705,-0.495
'0:08.856',-0.720,-0.520
'0:08.858',-0.735,-0.515
'0:08.861',-0.770,-0.505
'0:08.864',-0.780,-0.525
'0:08.867',-0.795,-0.500
'0:08.869',-0.795,-0.485
'0:08.872',-0.780,-0.465
'0:08.875',-0.775,-0.470
'0:08.878',-0.780,-0.465
'0:08.881',-0.780,-0.480
'0:08.883',-0.800,-0.485
'0:08.886',-0.830,-0.515
'0:08.889',-0.865,-0.525
'0:08.892',-0.915,-0.550
'0:08.894',-0.940,-0.575
'0:08.897',-0.975,-0.590
'0:08.900',-0.990,-0.590
'0:08.903',-0.990,-0.585
'0:08.906',-0.975,-0.560
'0:08.908',-0.965,-0.565
'0:08.911',-0.970,-0.555
'0:08.914',-0.960,-0.550
'0:08.917',-0.970,-0.565
'0:08.919',-0.990,-0.555
'0:08.922',-0.990,-0.560
'0:08.925',-1.010,-0.570
'0:08.928',-1.010,-0.585
'0:08.931',-1.020,-0.570
'0:08.933',-1.025,-0.560
'0:08.936',-1.020,-0.550
'0:08.939',-1.010,-0.555
'0:08.942',-1.005,-0.545
'0:08.944',-0.985,-0.530
'0:08.947',-0.975,-0.530
'0:08.950',-0.990,-0.545
'0:08.953',-0.980,-0.535
'0:08.956',-0.990,-0.560
'0:08.958',-1.005,-0.565
'0:08.961',-1.000,-0.590
'0:08.964',-1.010,-0.570
'0:08.967',-1.015,-0.575
'0:08.969',-0.990,-0.580
'0:08.972',-0.980,-0.555
'0:08.975',-0.980,-0.560
'0:08.978',-0.965,-0.550
'0:08.981',-0.980,-0.550
'0:08.983',-0.970,-0.565
'0:08.986',-0.990,-0.555
'0:08.989',-0.975,-0.555
'0:08.992',-0.985,-0.550
'0:08.994',-0.970,-0.550
'0:08.997',-0.975,-0.555
'0:09.000',-0.960,-0.550
'0:09.003',-0.970,-0.535
'0:09.006',-0.950,-0.540
'0:09.008',-0.940,-0.520
'0:09.011',-0.920,-0.520
'0:09.014',-0.920,-0.500
'0:09.017',-0.895,-0.495
'0:09.019',-0.900,-0.495
'0:09.022',-0.885,-0.505
'0:09.025',-0.880,-0.475
'0:09.028',-0.845,-0.430
'0:09.031',-0.735,-0.360
'0:09.033',-0.560,-0.225
'0:09.036',-0.310,-0.050
'0:09.039',-0.030,0.115
'0:09.042',0.240,0.265
'0:09.044',0.535,0.390
'0:09.047',0.835,0.435
'0:09.050',1.095,0.470
'0:09.053',1.285,0.435
'0:09.056',1.315,0.405
'0:09.058',1.145,0.320
'0:09.061',0.825,0.220
'0:09.064',0.370,0.045
'0:09.067',-0.170,-0.200
'0:09.069',-0.715,-0.455
'0:09.072',-1.195,-0.725
'0:09.075',-1.540,-1.020
'0:09.078',-1.685,-1.210
'0:09.081',-1.700,-1.320
'0:09.083',-1.600,-1.300
'0:09.086',-1.450,-1.215
'0:09.089',-1.325,-1.070
'0:09.092',-1.245,-0.945
'0:09.094',-1.220,-0.830
'0:09.097',-1.215,-0.755
'0:09.100',-1.200,-0.720
'0:09.103',-1.150,-0.665
'0:09.106',-1.090,-0.630
'0:09.108',-1.035,-0.605
'0:09.111',-0.990,-0.585
'0:09.114',-0.940,-0.575
'0:09.117',-0.935,-0.565
'0:09.119',-0.960,-0.555
'0:09.122',-0.990,-0.575
'0:09.125',-1.000,-0.575
'0:09.128',-1.010,-0.565
'0:09.131',-1.005,-0.555
'0:09.133',-1.005,-0.545
'0:09.136',-0.990,-0.540
'0:09.139',-0.990,-0.530
'0:09.142',-0.985,-0.515
'0:09.144',-0.975,-0.515
'0:09.147',-0.975,-0.495
'0:09.150',-0.965,-0.490
'0:09.153',-0.980,-0.505
'0:09.156',-0.960,-0.520
'0:09.158',-0.975,-0.510
'0:09.161',-0.975,-0.515
'0:09.164',-0.985,-0.510
'0:09.167',-0.980,-0.515
'0:09.169',-0.960,-0.495
'0:09.172',-0.960,-0.480
'0:09.175',-0.955,-0.470
'0:09.178',-0.955,-0.465
'0:09.181',-0.955,-0.485
'0:09.183',-0.940,-0.475
'0:09.186',-0.940,-0.495
'0:09.189',-0.965,-0.505
'0:09.192',-0.970,-0.515
'0:09.194',-0.970,-0.525
'0:09.197',-0.965,-0.505
'0:09.200',-0.970,-0.515
'0:09.203',-0.950,-0.505
'0:09.206',-0.940,-0.480
'0:09.208',-0.950,-0.475
'0:09.211',-0.950,-0.470
'0:09.214',-0.940,-0.470
'0:09.217',-0.940,-0.465
'0:09.219',-0.950,-0.460
'0:09.222',-0.975,-0.485
'0:09.225',-0.970,-0.485
'0:09.228',-0.970,-0.505
'0:09.231',-0.960,-0.495
'0:09.233',-0.970,-0.480
'0:09.236',-0.960,-0.470
'0:09.239',-0.955,-0.460
'0:09.242',-0.945,-0.450
'0:09.244',-0.925,-0.445
'0:09.247',-0.910,-0.450
'0:09.250',-0.910,-0.440
'0:09.253',-0.905,-0.450
'0:09.256',-0.905,-0.450
'0:09.258',-0.920,-0.465
'0:09.261',-0.920,-0.455
'0:09.264',-0.910,-0.470
'0:09.267',-0.905,-0.465
'0:09.269',-0.895,-0.440
'0:09.272',-0.880,-0.440
'0:09.275',-0.870,-0.425
'0:09.278',-0.850,-0.400
'0:09.281',-0.845,-0.405
'0:09.283',-0.835,-0.385
'0:09.286',-0.830,-0.395
'0:09.289',-0.820,-0.390
'0:09.292',-0.845,-0.405
'0:09.294',-0.840,-0.400
'0:09.297',-0.840,-0.385
'0:09.300',-0.830,-0.375
'0:09.303',-0.810,-0.355
'0:09.306',-0.780,-0.345
'0:09.308',-0.755,-0.315
'0:09.311',-0.730,-0.305
'0:09.314',-0.710,-0.305
'0:09.317',-0.700,-0.305
'0:09.319',-0.690,-0.305
'0:09.322',-0.690,-0.300
'0:09.325',-0.685,-0.290
'0:09.328',-0.660,-0.295
'0:09.331',-0.665,-0.275
'0:09.333',-0.660,-0.265
'0:09.336',-0.620,-0.260
'0:09.339',-0.595,-0.230
'0:09.342',-0.560,-0.235
'0:09.344',-0.545,-0.225
'0:09.347',-0.515,-0.205
'0:09.350',-0.490,-0.200
'0:09.353',-0.500,-0.215
'0:09.356',-0.475,-0.205
'0:09.358',-0.485,-0.205
'0:09.361',-0.475,-0.185
'0:09.364',-0.470,-0.200
'0:09.367',-0.475,-0.180
'0:09.369',-0.450,-0.160
'0:09.372',-0.445,-0.155
'0:09.375',-0.420,-0.135
'0:09.378',-0.400,-0.140
'0:09.381',-0.410,-0.140
'0:09.383',-0.415,-0.160
'0:09.386',-0.420,-0.165
'0:09.389',-0.440,-0.190
'0:09.392',-0.475,-0.205
'0:09.394',-0.485,-0.225
'0:09.397',-0.510,-0.240
'0:09.400',-0.535,-0.245
'0:09.403',-0.560,-0.245
'0:09.406',-0.565,-0.255
'0:09.408',-0.585,-0.275
'0:09.411',-0.605,-0.275
'0:09.414',-0.625,-0.315
'0:09.417',-0.650,-0.315
'0:09.419',-0.685,-0.365
'0:09.422',-0.710,-0.380
'0:09.425',-0.750,-0.420
'0:09.428',-0.775,-0.440
'0:09.431',-0.800,-0.450
'0:09.433',-0.820,-0.465
'0:09.436',-0.820,-0.460
'0:09.439',-0.825,-0.455
'0:09.442',-0.815,-0.450
'0:09.444',-0.815,-0.440
'0:09.447',-0.810,-0.460
'0:09.450',-0.825,-0.455
'0:09.453',-0.840,-0.475
'0:09.456',-0.850,-0.475
'0:09.458',-0.855,-0.485
'0:09.461',-0.875,-0.495
'0:09.464',-0.875,-0.485
'0:09.467',-0.870,-0.485
'0:09.469',-0.870,-0.470
'0:09.472',-0.855,-0.470
'0:09.475',-0.850,-0.465
'0:09.478',-0.855,-0.475
'0:09.481',-0.850,-0.490
'0:09.483',-0.855,-0.490
'0:09.486',-0.855,-0.510
'0:09.489',-0.880,-0.510
'0:09.492',-0.890,-0.515
'0:09.494',-0.900,-0.530
'0:09.497',-0.905,-0.510
'0:09.500',-0.910,-0.520
'0:09.503',-0.890,-0.500
'0:09.506',-0.875,-0.500
'0:09.508',-0.860,-0.505
'0:09.511',-0.860,-0.480
'0:09.514',-0.845,-0.495
'0:09.517',-0.835,-0.465
'0:09.519',-0.855,-0.470
'0:09.522',-0.865,-0.480
'0:09.525',-0.885,-0.490
'0:09.528',-0.890,-0.510
'0:09.531',-0.895,-0.500
'0:09.533',-0.905,-0.510
'0:09.536',-0.875,-0.495
'0:09.539',-0.860,-0.510
'0:09.542',-0.845,-0.485
'0:09.544',-0.830,-0.475
'0:09.547',-0.820,-0.480
'0:09.550',-0.825,-0.480
'0:09.553',-0.820,-0.480
'0:09.556',-0.840,-0.490
'0:09.558',-0.845,-0.470
'0:09.561',-0.840,-0.485
'0:09.564',-0.845,-0.480
'0:09.567',-0.850,-0.485
'0:09.569',-0.855,-0.475
'0:09.572',-0.840,-0.465
'0:09.575',-0.815,-0.460
'0:09.578',-0.805,-0.450
'0:09.581',-0.800,-0.440
'0:09.583',-0.790,-0.465
'0:09.586',-0.810,-0.445
'0:09.589',-0.815,-0.480
'0:09.592',-0.825,-0.465
'0:09.594',-0.835,-0.475
'0:09.597',-0.835,-0.475
'0:09.600',-0.840,-0.475
'0:09.603',-0.840,-0.455
'0:09.606',-0.810,-0.460
'0:09.608',-0.810,-0.425
'0:09.611',-0.805,-0.425
'0:09.614',-0.800,-0.430
'0:09.617',-0.795,-0.430
'0:09.619',-0.800,-0.425
'0:09.622',-0.800,-0.445
'0:09.625',-0.825,-0.440
'0:09.628',-0.810,-0.455
'0:09.631',-0.825,-0.445
'0:09.633',-0.825,-0.445
'0:09.636',-0.825,-0.465
'0:09.639',-0.810,-0.455
'0:09.642',-0.805,-0.455
'0:09.644',-0.790,-0.460
'0:09.647',-0.805,-0.440
'0:09.650',-0.790,-0.440
'0:09.653',-0.805,-0.455
'0:09.656',-0.820,-0.465
'0:09.658',-0.835,-0.470
'0:09.661',-0.855,-0.480
'0:09.664',-0.865,-0.480
'0:09.667',-0.850,-0.475
'0:09.669',-0.860,-0.475
'0:09.672',-0.840,-0.460
'0:09.675',-0.830,-0.450
'0:09.678',-0.815,-0.455
'0:09.681',-0.815,-0.450
'0:09.683',-0.835,-0.450
'0:09.686',-0.825,-0.465
'0:09.689',-0.830,-0.455
'0:09.692',-0.830,-0.475
'0:09.694',-0.835,-0.480
'0:09.697',-0.850,-0.470
'0:09.700',-0.870,-0.505
'0:09.703',-0.850,-0.475
'0:09.706',-0.865,-0.480
'0:09.708',-0.850,-0.460
'0:09.711',-0.845,-0.455
'0:09.714',-0.830,-0.460
'0:09.717',-0.845,-0.455
'0:09.719',-0.845,-0.485
'0:09.722',-0.850,-0.495
'0:09.725',-0.845,-0.505
'0:09.728',-0.865,-0.505
'0:09.731',-0.870,-0.495
'0:09.733',-0.870,-0.500
'0:09.736',-0.865,-0.495
'0:09.739',-0.845,-0.480
'0:09.742',-0.845,-0.470
'0:09.744',-0.840,-0.475
'0:09.747',-0.850,-0.475
'0:09.750',-0.835,-0.460
'0:09.753',-0.850,-0.475
'0:09.756',-0.835,-0.475
'0:09.758',-0.850,-0.500
'0:09.761',-0.865,-0.500
'0:09.764',-0.880,-0.505
'0:09.767',-0.875,-0.500
'0:09.769',-0.870,-0.475
'0:09.772',-0.850,-0.470
'0:09.775',-0.855,-0.445
'0:09.778',-0.845,-0.445
'0:09.781',-0.850,-0.460
'0:09.783',-0.845,-0.475
'0:09.786',-0.825,-0.490
'0:09.789',-0.850,-0.485
'0:09.792',-0.850,-0.520
'0:09.794',-0.860,-0.520
'0:09.797',-0.855,-0.515
'0:09.800',-0.850,-0.500
'0:09.803',-0.845,-0.480
'0:09.806',-0.845,-0.470
'0:09.808',-0.840,-0.480
'0:09.811',-0.845,-0.465
'0:09.814',-0.845,-0.460
'0:09.817',-0.845,-0.465
'0:09.819',-0.855,-0.470
'0:09.822',-0.845,-0.495
'0:09.825',-0.840,-0.505
'0:09.828',-0.865,-0.510
'0:09.831',-0.880,-0.500
'0:09.833',-0.865,-0.490
'0:09.836',-0.850,-0.485
'0:09.839',-0.855,-0.465
'0:09.842',-0.835,-0.465
'0:09.844',-0.820,-0.455
'0:09.847',-0.835,-0.460
'0:09.850',-0.820,-0.465
'0:09.853',-0.840,-0.475
'0:09.856',-0.835,-0.500
'0:09.858',-0.835,-0.495
'0:09.861',-0.860,-0.505
'0:09.864',-0.865,-0.495
'0:09.867',-0.870,-0.505
'0:09.869',-0.860,-0.505
'0:09.872',-0.855,-0.480
'0:09.875',-0.835,-0.470
'0:09.878',-0.835,-0.480
'0:09.881',-0.820,-0.475
'0:09.883',-0.815,-0.465
'0:09.886',-0.815,-0.495
'0:09.889',-0.820,-0.485
'0:09.892',-0.835,-0.480
'0:09.894',-0.835,-0.490
'0:09.897',-0.845,-0.490
'0:09.900',-0.840,-0.485
'0:09.903',-0.845,-0.475
'0:09.906',-0.840,-0.480
'0:09.908',-0.845,-0.465
'0:09.911',-0.810,-0.450
'0:09.914',-0.805,-0.460
'0:09.917',-0.795,-0.470
'0:09.919',-0.805,-0.475
'0:09.922',-0.820,-0.465
'0:09.925',-0.815,-0.485
'0:09.928',-0.820,-0.490
'0:09.931',-0.820,-0.500
'0:09.933',-0.810,-0.480
'0:09.936',-0.790,-0.485
'0:09.939',-0.780,-0.475
'0:09.942',-0.765,-0.460
'0:09.944',-0.740,-0.470
'0:09.947',-0.730,-0.480
'0:09.950',-0.715,-0.465
'0:09.953',-0.710,-0.480
'0:09.956',-0.715,-0.490
'0:09.958',-0.705,-0.495
'0:09.961',-0.705,-0.490
'0:09.964',-0.710,-0.485
'0:09.967',-0.685,-0.480
'0:09.969',-0.640,-0.465
'0:09.972',-0.625,-0.430
'0:09.975',-0.595,-0.415
'0:09.978',-0.560,-0.395
'0:09.981',-0.565,-0.390
'0:09.983',-0.580,-0.395
'0:09.986',-0.600,-0.395
'0:09.989',-0.615,-0.420
'0:09.992',-0.625,-0.440
'0:09.994',-0.645,-0.450
'0:09.997',-0.665,-0.450
