'Elapsed time','MLII','V4'
'hh:mm:ss.mmm','mV','mV'
'0:00.000',-1.000,-0.685
'0:00.003',-1.000,-0.685
'0:00.006',-1.000,-0.685
'0:00.008',-1.000,-0.685
'0:00.011',-1.000,-0.685
'0:00.014',-1.000,-0.685
'0:00.017',-1.000,-0.685
'0:00.019',-0.985,-0.680
'0:00.022',-0.970,-0.680
'0:00.025',-0.970,-0.695
'0:00.028',-0.970,-0.695
'0:00.031',-0.970,-0.695
'0:00.033',-0.980,-0.705
'0:00.036',-0.975,-0.705
'0:00.039',-0.975,-0.695
'0:00.042',-0.985,-0.690
'0:00.044',-0.980,-0.690
'0:00.047',-0.970,-0.670
'0:00.050',-0.975,-0.675
'0:00.053',-0.955,-0.665
'0:00.056',-0.945,-0.675
'0:00.058',-0.950,-0.675
'0:00.061',-0.965,-0.680
'0:00.064',-0.950,-0.680
'0:00.067',-0.955,-0.685
'0:00.069',-0.960,-0.690
'0:00.072',-0.960,-0.690
'0:00.075',-0.965,-0.680
'0:00.078',-0.970,-0.670
'0:00.081',-0.965,-0.665
'0:00.083',-0.950,-0.660
'0:00.086',-0.950,-0.650
'0:00.089',-0.925,-0.655
'0:00.092',-0.930,-0.660
'0:00.094',-0.940,-0.660
'0:00.097',-0.935,-0.665
'0:00.100',-0.940,-0.665
'0:00.103',-0.950,-0.670
'0:00.106',-0.965,-0.675
'0:00.108',-0.960,-0.675
'0:00.111',-0.950,-0.665
'0:00.114',-0.955,-0.660
'0:00.117',-0.940,-0.655
'0:00.119',-0.945,-0.650
'0:00.122',-0.925,-0.660
'0:00.125',-0.925,-0.660
'0:00.128',-0.930,-0.665
'0:00.131',-0.930,-0.680
'0:00.133',-0.935,-0.675
'0:00.136',-0.945,-0.675
'0:00.139',-0.950,-0.675
'0:00.142',-0.950,-0.675
'0:00.144',-0.945,-0.660
'0:00.147',-0.940,-0.660
'0:00.150',-0.935,-0.655
'0:00.153',-0.920,-0.655
'0:00.156',-0.920,-0.640
'0:00.158',-0.920,-0.650
'0:00.161',-0.915,-0.645
'0:00.164',-0.915,-0.655
'0:00.167',-0.920,-0.660
'0:00.169',-0.920,-0.690
'0:00.172',-0.930,-0.675
'0:00.175',-0.930,-0.675
'0:00.178',-0.950,-0.665
'0:00.181',-0.955,-0.660
'0:00.183',-0.930,-0.650
'0:00.186',-0.915,-0.645
'0:00.189',-0.905,-0.640
'0:00.192',-0.900,-0.650
'0:00.194',-0.910,-0.655
'0:00.197',-0.920,-0.655
'0:00.200',-0.925,-0.660
'0:00.203',-0.925,-0.680
'0:00.206',-0.925,-0.690
'0:00.208',-0.920,-0.680
'0:00.211',-0.930,-0.685
'0:00.214',-0.935,-0.670
'0:00.217',-0.920,-0.655
'0:00.219',-0.905,-0.635
'0:00.222',-0.905,-0.640
'0:00.225',-0.895,-0.640
'0:00.228',-0.900,-0.655
'0:00.231',-0.905,-0.675
'0:00.233',-0.915,-0.690
'0:00.236',-0.920,-0.700
'0:00.239',-0.910,-0.680
'0:00.242',-0.920,-0.675
'0:00.244',-0.925,-0.675
'0:00.247',-0.910,-0.655
'0:00.250',-0.915,-0.650
'0:00.253',-0.900,-0.645
'0:00.256',-0.895,-0.635
'0:00.258',-0.900,-0.650
'0:00.261',-0.900,-0.660
'0:00.264',-0.905,-0.670
'0:00.267',-0.910,-0.675
'0:00.269',-0.910,-0.680
'0:00.272',-0.920,-0.675
'0:00.275',-0.920,-0.655
'0:00.278',-0.920,-0.660
'0:00.281',-0.920,-0.655
'0:00.283',-0.910,-0.645
'0:00.286',-0.920,-0.655
'0:00.289',-0.900,-0.640
'0:00.292',-0.895,-0.660
'0:00.294',-0.900,-0.665
'0:00.297',-0.905,-0.670
'0:00.300',-0.915,-0.680
'0:00.303',-0.910,-0.670
'0:00.306',-0.920,-0.680
'0:00.308',-0.925,-0.675
'0:00.311',-0.935,-0.670
'0:00.314',-0.910,-0.655
'0:00.317',-0.905,-0.660
'0:00.319',-0.905,-0.655
'0:00.322',-0.895,-0.655
'0:00.325',-0.895,-0.660
'0:00.328',-0.895,-0.675
'0:00.331',-0.900,-0.670
'0:00.333',-0.910,-0.675
'0:00.336',-0.905,-0.685
'0:00.339',-0.915,-0.675
'0:00.342',-0.920,-0.680
'0:00.344',-0.915,-0.685
'0:00.347',-0.910,-0.670
'0:00.350',-0.920,-0.665
'0:00.353',-0.900,-0.660
'0:00.356',-0.890,-0.660
'0:00.358',-0.895,-0.665
'0:00.361',-0.895,-0.655
'0:00.364',-0.895,-0.665
'0:00.367',-0.905,-0.665
'0:00.369',-0.910,-0.680
'0:00.372',-0.915,-0.685
'0:00.375',-0.910,-0.680
'0:00.378',-0.915,-0.680
'0:00.381',-0.920,-0.660
'0:00.383',-0.900,-0.655
'0:00.386',-0.900,-0.650
'0:00.389',-0.895,-0.650
'0:00.392',-0.885,-0.665
'0:00.394',-0.895,-0.660
'0:00.397',-0.900,-0.675
'0:00.400',-0.900,-0.680
'0:00.403',-0.905,-0.680
'0:00.406',-0.915,-0.690
'0:00.408',-0.920,-0.680
'0:00.411',-0.920,-0.670
'0:00.414',-0.910,-0.670
'0:00.417',-0.905,-0.660
'0:00.419',-0.900,-0.655
'0:00.422',-0.895,-0.655
'0:00.425',-0.885,-0.645
'0:00.428',-0.890,-0.660
'0:00.431',-0.885,-0.670
'0:00.433',-0.885,-0.685
'0:00.436',-0.890,-0.680
'0:00.439',-0.900,-0.680
'0:00.442',-0.890,-0.675
'0:00.444',-0.895,-0.690
'0:00.447',-0.885,-0.675
'0:00.450',-0.870,-0.670
'0:00.453',-0.880,-0.670
'0:00.456',-0.865,-0.650
'0:00.458',-0.870,-0.670
'0:00.461',-0.870,-0.660
'0:00.464',-0.870,-0.680
'0:00.467',-0.865,-0.685
'0:00.469',-0.860,-0.685
'0:00.472',-0.850,-0.685
'0:00.475',-0.850,-0.675
'0:00.478',-0.835,-0.680
'0:00.481',-0.820,-0.665
'0:00.483',-0.820,-0.660
'0:00.486',-0.810,-0.645
'0:00.489',-0.810,-0.640
'0:00.492',-0.815,-0.650
'0:00.494',-0.830,-0.640
'0:00.497',-0.835,-0.665
'0:00.500',-0.850,-0.665
'0:00.503',-0.865,-0.665
'0:00.506',-0.865,-0.655
'0:00.508',-0.870,-0.655
'0:00.511',-0.870,-0.650
'0:00.514',-0.865,-0.640
'0:00.517',-0.870,-0.635
'0:00.519',-0.860,-0.640
'0:00.522',-0.845,-0.620
'0:00.525',-0.830,-0.605
'0:00.528',-0.820,-0.605
'0:00.531',-0.815,-0.615
'0:00.533',-0.815,-0.605
'0:00.536',-0.820,-0.615
'0:00.539',-0.825,-0.620
'0:00.542',-0.840,-0.630
'0:00.544',-0.845,-0.640
'0:00.547',-0.855,-0.640
'0:00.550',-0.875,-0.630
'0:00.553',-0.880,-0.625
'0:00.556',-0.880,-0.635
'0:00.558',-0.895,-0.645
'0:00.561',-0.910,-0.670
'0:00.564',-0.920,-0.675
'0:00.567',-0.930,-0.685
'0:00.569',-0.935,-0.690
'0:00.572',-0.925,-0.690
'0:00.575',-0.925,-0.695
'0:00.578',-0.930,-0.680
'0:00.581',-0.920,-0.665
'0:00.583',-0.910,-0.670
'0:00.586',-0.910,-0.665
'0:00.589',-0.905,-0.680
'0:00.592',-0.910,-0.690
'0:00.594',-0.935,-0.735
'0:00.597',-0.935,-0.750
'0:00.600',-0.935,-0.745
'0:00.603',-0.915,-0.690
'0:00.606',-0.850,-0.615
'0:00.608',-0.750,-0.480
'0:00.611',-0.655,-0.360
'0:00.614',-0.570,-0.270
'0:00.617',-0.500,-0.245
'0:00.619',-0.465,-0.260
'0:00.622',-0.445,-0.345
'0:00.625',-0.495,-0.515
'0:00.628',-0.610,-0.780
'0:00.631',-0.750,-1.065
'0:00.633',-0.920,-1.330
'0:00.636',-1.015,-1.495
'0:00.639',-1.015,-1.535
'0:00.642',-0.910,-1.455
'0:00.644',-0.720,-1.300
'0:00.647',-0.475,-1.105
'0:00.650',-0.210,-0.920
'0:00.653',0.035,-0.765
'0:00.656',0.260,-0.635
'0:00.658',0.490,-0.545
'0:00.661',0.690,-0.490
'0:00.664',0.880,-0.475
'0:00.667',1.025,-0.465
'0:00.669',1.130,-0.460
'0:00.672',1.190,-0.475
'0:00.675',1.195,-0.515
'0:00.678',1.165,-0.580
'0:00.681',1.085,-0.635
'0:00.683',0.970,-0.670
'0:00.686',0.815,-0.690
'0:00.689',0.635,-0.685
'0:00.692',0.425,-0.670
'0:00.694',0.215,-0.660
'0:00.697',0.000,-0.640
'0:00.700',-0.215,-0.610
'0:00.703',-0.430,-0.625
'0:00.706',-0.645,-0.645
'0:00.708',-0.835,-0.690
'0:00.711',-0.980,-0.730
'0:00.714',-1.070,-0.750
'0:00.717',-1.125,-0.760
'0:00.719',-1.140,-0.750
'0:00.722',-1.130,-0.710
'0:00.725',-1.120,-0.690
'0:00.728',-1.095,-0.665
'0:00.731',-1.080,-0.650
'0:00.733',-1.085,-0.640
'0:00.736',-1.070,-0.625
'0:00.739',-1.070,-0.615
'0:00.742',-1.060,-0.585
'0:00.744',-1.045,-0.575
'0:00.747',-1.035,-0.555
'0:00.750',-1.020,-0.540
'0:00.753',-1.015,-0.540
'0:00.756',-1.000,-0.535
'0:00.758',-1.000,-0.545
'0:00.761',-1.005,-0.555
'0:00.764',-1.020,-0.555
'0:00.767',-1.025,-0.565
'0:00.769',-1.040,-0.565
'0:00.772',-1.040,-0.545
'0:00.775',-1.050,-0.540
'0:00.778',-1.045,-0.530
'0:00.781',-1.040,-0.515
'0:00.783',-1.030,-0.510
'0:00.786',-1.025,-0.520
'0:00.789',-1.015,-0.510
'0:00.792',-1.010,-0.525
'0:00.794',-1.025,-0.520
'0:00.797',-1.025,-0.520
'0:00.800',-1.035,-0.520
'0:00.803',-1.045,-0.525
'0:00.806',-1.040,-0.525
'0:00.808',-1.045,-0.535
'0:00.811',-1.040,-0.520
'0:00.814',-1.040,-0.515
'0:00.817',-1.025,-0.510
'0:00.819',-1.020,-0.505
'0:00.822',-1.015,-0.495
'0:00.825',-1.020,-0.510
'0:00.828',-1.020,-0.500
'0:00.831',-1.035,-0.510
'0:00.833',-1.045,-0.520
'0:00.836',-1.050,-0.540
'0:00.839',-1.060,-0.545
'0:00.842',-1.060,-0.535
'0:00.844',-1.060,-0.540
'0:00.847',-1.055,-0.520
'0:00.850',-1.060,-0.515
'0:00.853',-1.045,-0.515
'0:00.856',-1.050,-0.505
'0:00.858',-1.055,-0.515
'0:00.861',-1.055,-0.525
'0:00.864',-1.070,-0.535
'0:00.867',-1.075,-0.545
'0:00.869',-1.075,-0.560
'0:00.872',-1.080,-0.550
'0:00.875',-1.090,-0.555
'0:00.878',-1.090,-0.545
'0:00.881',-1.085,-0.540
'0:00.883',-1.090,-0.540
'0:00.886',-1.080,-0.530
'0:00.889',-1.085,-0.535
'0:00.892',-1.080,-0.545
'0:00.894',-1.085,-0.565
'0:00.897',-1.090,-0.575
'0:00.900',-1.110,-0.580
'0:00.903',-1.125,-0.595
'0:00.906',-1.125,-0.595
'0:00.908',-1.135,-0.610
'0:00.911',-1.150,-0.615
'0:00.914',-1.150,-0.610
'0:00.917',-1.140,-0.605
'0:00.919',-1.140,-0.605
'0:00.922',-1.135,-0.605
'0:00.925',-1.155,-0.625
'0:00.928',-1.170,-0.650
'0:00.931',-1.175,-0.660
'0:00.933',-1.195,-0.695
'0:00.936',-1.190,-0.700
'0:00.939',-1.185,-0.725
'0:00.942',-1.200,-0.720
'0:00.944',-1.200,-0.705
'0:00.947',-1.195,-0.715
'0:00.950',-1.200,-0.710
'0:00.953',-1.210,-0.705
'0:00.956',-1.195,-0.725
'0:00.958',-1.205,-0.730
'0:00.961',-1.195,-0.745
'0:00.964',-1.205,-0.765
'0:00.967',-1.210,-0.780
'0:00.969',-1.210,-0.810
'0:00.972',-1.220,-0.810
'0:00.975',-1.210,-0.815
'0:00.978',-1.210,-0.815
'0:00.981',-1.205,-0.805
'0:00.983',-1.180,-0.820
'0:00.986',-1.180,-0.820
'0:00.989',-1.165,-0.825
'0:00.992',-1.160,-0.830
'0:00.994',-1.160,-0.840
'0:00.997',-1.155,-0.845
'0:01.000',-1.145,-0.855
'0:01.003',-1.140,-0.855
'0:01.006',-1.120,-0.855
'0:01.008',-1.115,-0.850
'0:01.011',-1.105,-0.855
'0:01.014',-1.090,-0.835
'0:01.017',-1.070,-0.835
'0:01.019',-1.050,-0.825
'0:01.022',-1.020,-0.825
'0:01.025',-1.005,-0.845
'0:01.028',-0.995,-0.835
'0:01.031',-0.970,-0.830
'0:01.033',-0.965,-0.825
'0:01.036',-0.950,-0.840
'0:01.039',-0.935,-0.825
'0:01.042',-0.935,-0.830
'0:01.044',-0.920,-0.815
'0:01.047',-0.900,-0.805
'0:01.050',-0.885,-0.805
'0:01.053',-0.850,-0.780
'0:01.056',-0.845,-0.775
'0:01.058',-0.840,-0.775
'0:01.061',-0.845,-0.790
'0:01.064',-0.825,-0.795
'0:01.067',-0.835,-0.785
'0:01.069',-0.835,-0.785
'0:01.072',-0.830,-0.775
'0:01.075',-0.830,-0.775
'0:01.078',-0.820,-0.785
'0:01.081',-0.820,-0.745
'0:01.083',-0.820,-0.750
'0:01.086',-0.810,-0.735
'0:01.089',-0.810,-0.735
'0:01.092',-0.815,-0.740
'0:01.094',-0.825,-0.750
'0:01.097',-0.845,-0.745
'0:01.100',-0.860,-0.765
'0:01.103',-0.875,-0.760
'0:01.106',-0.885,-0.760
'0:01.108',-0.900,-0.755
'0:01.111',-0.905,-0.750
'0:01.114',-0.905,-0.735
'0:01.117',-0.905,-0.735
'0:01.119',-0.915,-0.715
'0:01.122',-0.900,-0.715
'0:01.125',-0.920,-0.730
'0:01.128',-0.925,-0.740
'0:01.131',-0.940,-0.755
'0:01.133',-0.940,-0.755
'0:01.136',-0.965,-0.760
'0:01.139',-0.960,-0.760
'0:01.142',-0.970,-0.755
'0:01.144',-0.970,-0.760
'0:01.147',-0.970,-0.745
'0:01.150',-0.960,-0.745
'0:01.153',-0.960,-0.720
'0:01.156',-0.960,-0.720
'0:01.158',-0.970,-0.725
'0:01.161',-0.970,-0.730
'0:01.164',-0.960,-0.735
'0:01.167',-0.975,-0.745
'0:01.169',-0.980,-0.760
'0:01.172',-0.975,-0.765
'0:01.175',-0.990,-0.755
'0:01.178',-0.980,-0.750
'0:01.181',-0.970,-0.710
'0:01.183',-0.965,-0.690
'0:01.186',-0.955,-0.685
'0:01.189',-0.950,-0.690
'0:01.192',-0.950,-0.695
'0:01.194',-0.955,-0.700
'0:01.197',-0.955,-0.700
'0:01.200',-0.945,-0.715
'0:01.203',-0.940,-0.720
'0:01.206',-0.955,-0.725
'0:01.208',-0.950,-0.700
'0:01.211',-0.935,-0.700
'0:01.214',-0.935,-0.690
'0:01.217',-0.930,-0.680
'0:01.219',-0.925,-0.690
'0:01.222',-0.915,-0.690
'0:01.225',-0.915,-0.685
'0:01.228',-0.920,-0.695
'0:01.231',-0.910,-0.690
'0:01.233',-0.925,-0.695
'0:01.236',-0.925,-0.695
'0:01.239',-0.930,-0.685
'0:01.242',-0.930,-0.680
'0:01.244',-0.930,-0.685
'0:01.247',-0.920,-0.675
'0:01.250',-0.925,-0.670
'0:01.253',-0.905,-0.665
'0:01.256',-0.910,-0.660
'0:01.258',-0.905,-0.665
'0:01.261',-0.900,-0.660
'0:01.264',-0.895,-0.665
'0:01.267',-0.910,-0.675
'0:01.269',-0.910,-0.675
'0:01.272',-0.905,-0.680
'0:01.275',-0.910,-0.675
'0:01.278',-0.910,-0.670
'0:01.281',-0.905,-0.665
'0:01.283',-0.895,-0.660
'0:01.286',-0.890,-0.645
'0:01.289',-0.875,-0.640
'0:01.292',-0.885,-0.655
'0:01.294',-0.885,-0.650
'0:01.297',-0.895,-0.650
'0:01.300',-0.890,-0.665
'0:01.303',-0.905,-0.675
'0:01.306',-0.900,-0.670
'0:01.308',-0.905,-0.670
'0:01.311',-0.895,-0.670
'0:01.314',-0.895,-0.665
'0:01.317',-0.890,-0.650
'0:01.319',-0.890,-0.640
'0:01.322',-0.875,-0.635
'0:01.325',-0.870,-0.640
'0:01.328',-0.880,-0.645
'0:01.331',-0.880,-0.650
'0:01.333',-0.880,-0.665
'0:01.336',-0.895,-0.665
'0:01.339',-0.900,-0.675
'0:01.342',-0.900,-0.670
'0:01.344',-0.900,-0.665
'0:01.347',-0.895,-0.660
'0:01.350',-0.885,-0.650
'0:01.353',-0.875,-0.650
'0:01.356',-0.860,-0.655
'0:01.358',-0.860,-0.645
'0:01.361',-0.860,-0.645
'0:01.364',-0.865,-0.665
'0:01.367',-0.870,-0.660
'0:01.369',-0.865,-0.650
'0:01.372',-0.880,-0.650
'0:01.375',-0.870,-0.655
'0:01.378',-0.875,-0.650
'0:01.381',-0.865,-0.640
'0:01.383',-0.860,-0.645
'0:01.386',-0.860,-0.630
'0:01.389',-0.855,-0.640
'0:01.392',-0.855,-0.635
'0:01.394',-0.855,-0.645
'0:01.397',-0.865,-0.670
'0:01.400',-0.865,-0.670
'0:01.403',-0.865,-0.675
'0:01.406',-0.880,-0.675
'0:01.408',-0.870,-0.675
'0:01.411',-0.865,-0.655
'0:01.414',-0.870,-0.655
'0:01.417',-0.860,-0.650
'0:01.419',-0.865,-0.640
'0:01.422',-0.845,-0.645
'0:01.425',-0.845,-0.665
'0:01.428',-0.845,-0.655
'0:01.431',-0.845,-0.665
'0:01.433',-0.860,-0.670
'0:01.436',-0.860,-0.670
'0:01.439',-0.865,-0.665
'0:01.442',-0.875,-0.675
'0:01.444',-0.875,-0.660
'0:01.447',-0.865,-0.655
'0:01.450',-0.865,-0.645
'0:01.453',-0.860,-0.640
'0:01.456',-0.860,-0.635
'0:01.458',-0.845,-0.650
'0:01.461',-0.840,-0.645
'0:01.464',-0.850,-0.650
'0:01.467',-0.860,-0.665
'0:01.469',-0.860,-0.675
'0:01.472',-0.875,-0.670
'0:01.475',-0.860,-0.675
'0:01.478',-0.860,-0.665
'0:01.481',-0.860,-0.650
'0:01.483',-0.860,-0.655
'0:01.486',-0.845,-0.655
'0:01.489',-0.840,-0.655
'0:01.492',-0.840,-0.645
'0:01.494',-0.850,-0.670
'0:01.497',-0.845,-0.660
'0:01.500',-0.865,-0.665
'0:01.503',-0.860,-0.670
'0:01.506',-0.870,-0.675
'0:01.508',-0.875,-0.680
'0:01.511',-0.880,-0.685
'0:01.514',-0.885,-0.670
'0:01.517',-0.860,-0.665
'0:01.519',-0.855,-0.660
'0:01.522',-0.845,-0.660
'0:01.525',-0.835,-0.655
'0:01.528',-0.845,-0.660
'0:01.531',-0.855,-0.660
'0:01.533',-0.860,-0.660
'0:01.536',-0.865,-0.670
'0:01.539',-0.865,-0.680
'0:01.542',-0.870,-0.670
'0:01.544',-0.860,-0.675
'0:01.547',-0.865,-0.665
'0:01.550',-0.845,-0.665
'0:01.553',-0.855,-0.655
'0:01.556',-0.835,-0.645
'0:01.558',-0.850,-0.655
'0:01.561',-0.860,-0.660
'0:01.564',-0.840,-0.655
'0:01.567',-0.855,-0.665
'0:01.569',-0.855,-0.675
'0:01.572',-0.860,-0.675
'0:01.575',-0.855,-0.675
'0:01.578',-0.860,-0.680
'0:01.581',-0.855,-0.680
'0:01.583',-0.845,-0.670
'0:01.586',-0.840,-0.665
'0:01.589',-0.840,-0.650
'0:01.592',-0.835,-0.650
'0:01.594',-0.845,-0.650
'0:01.597',-0.845,-0.675
'0:01.600',-0.840,-0.680
'0:01.603',-0.860,-0.690
'0:01.606',-0.855,-0.700
'0:01.608',-0.855,-0.700
'0:01.611',-0.860,-0.680
'0:01.614',-0.860,-0.690
'0:01.617',-0.855,-0.680
'0:01.619',-0.860,-0.660
'0:01.622',-0.850,-0.660
'0:01.625',-0.845,-0.665
'0:01.628',-0.840,-0.665
'0:01.631',-0.860,-0.685
'0:01.633',-0.860,-0.685
'0:01.636',-0.870,-0.690
'0:01.639',-0.880,-0.680
'0:01.642',-0.855,-0.695
'0:01.644',-0.865,-0.685
'0:01.647',-0.850,-0.685
'0:01.650',-0.850,-0.685
'0:01.653',-0.845,-0.675
'0:01.656',-0.840,-0.665
'0:01.658',-0.835,-0.665
'0:01.661',-0.835,-0.675
'0:01.664',-0.835,-0.680
'0:01.667',-0.855,-0.690
'0:01.669',-0.850,-0.690
'0:01.672',-0.855,-0.695
'0:01.675',-0.855,-0.680
'0:01.678',-0.845,-0.680
'0:01.681',-0.850,-0.665
'0:01.683',-0.835,-0.655
'0:01.686',-0.840,-0.655
'0:01.689',-0.830,-0.665
'0:01.692',-0.835,-0.665
'0:01.694',-0.825,-0.670
'0:01.697',-0.820,-0.685
'0:01.700',-0.825,-0.685
'0:01.703',-0.835,-0.695
'0:01.706',-0.835,-0.700
'0:01.708',-0.830,-0.695
'0:01.711',-0.825,-0.690
'0:01.714',-0.820,-0.675
'0:01.717',-0.830,-0.670
'0:01.719',-0.825,-0.665
'0:01.722',-0.820,-0.650
'0:01.725',-0.805,-0.660
'0:01.728',-0.795,-0.645
'0:01.731',-0.795,-0.660
'0:01.733',-0.790,-0.670
'0:01.736',-0.790,-0.675
'0:01.739',-0.795,-0.670
'0:01.742',-0.790,-0.670
'0:01.744',-0.780,-0.670
'0:01.747',-0.780,-0.660
'0:01.750',-0.785,-0.655
'0:01.753',-0.790,-0.655
'0:01.756',-0.790,-0.650
'0:01.758',-0.800,-0.655
'0:01.761',-0.805,-0.650
'0:01.764',-0.820,-0.645
'0:01.767',-0.820,-0.665
'0:01.769',-0.815,-0.670
'0:01.772',-0.820,-0.670
'0:01.775',-0.815,-0.665
'0:01.778',-0.795,-0.655
'0:01.781',-0.775,-0.625
'0:01.783',-0.770,-0.615
'0:01.786',-0.755,-0.625
'0:01.789',-0.750,-0.615
'0:01.792',-0.755,-0.620
'0:01.794',-0.775,-0.635
'0:01.797',-0.785,-0.640
'0:01.800',-0.785,-0.665
'0:01.803',-0.815,-0.680
'0:01.806',-0.845,-0.700
'0:01.808',-0.855,-0.700
'0:01.811',-0.870,-0.705
'0:01.814',-0.865,-0.710
'0:01.817',-0.860,-0.700
'0:01.819',-0.865,-0.680
'0:01.822',-0.850,-0.680
'0:01.825',-0.845,-0.685
'0:01.828',-0.850,-0.690
'0:01.831',-0.845,-0.710
'0:01.833',-0.860,-0.715
'0:01.836',-0.860,-0.730
'0:01.839',-0.865,-0.730
'0:01.842',-0.865,-0.730
'0:01.844',-0.865,-0.745
'0:01.847',-0.875,-0.770
'0:01.850',-0.875,-0.770
'0:01.853',-0.875,-0.755
'0:01.856',-0.840,-0.720
'0:01.858',-0.800,-0.655
'0:01.861',-0.725,-0.540
'0:01.864',-0.640,-0.430
'0:01.867',-0.565,-0.350
'0:01.869',-0.495,-0.320
'0:01.872',-0.460,-0.360
'0:01.875',-0.475,-0.465
'0:01.878',-0.510,-0.650
'0:01.881',-0.610,-0.900
'0:01.883',-0.740,-1.190
'0:01.886',-0.850,-1.385
'0:01.889',-0.905,-1.495
'0:01.892',-0.845,-1.465
'0:01.894',-0.690,-1.300
'0:01.897',-0.455,-1.100
'0:01.900',-0.205,-0.875
'0:01.903',0.075,-0.695
'0:01.906',0.345,-0.530
'0:01.908',0.595,-0.425
'0:01.911',0.840,-0.345
'0:01.914',1.055,-0.310
'0:01.917',1.230,-0.300
'0:01.919',1.345,-0.330
'0:01.922',1.400,-0.390
'0:01.925',1.390,-0.485
'0:01.928',1.295,-0.595
'0:01.931',1.180,-0.660
'0:01.933',1.015,-0.700
'0:01.936',0.805,-0.710
'0:01.939',0.565,-0.715
'0:01.942',0.335,-0.690
'0:01.944',0.110,-0.660
'0:01.947',-0.125,-0.620
'0:01.950',-0.345,-0.610
'0:01.953',-0.580,-0.630
'0:01.956',-0.775,-0.670
'0:01.958',-0.930,-0.735
'0:01.961',-1.045,-0.780
'0:01.964',-1.110,-0.815
'0:01.967',-1.145,-0.810
'0:01.969',-1.135,-0.780
'0:01.972',-1.120,-0.740
'0:01.975',-1.100,-0.700
'0:01.978',-1.075,-0.660
'0:01.981',-1.050,-0.625
'0:01.983',-1.020,-0.590
'0:01.986',-1.020,-0.580
'0:01.989',-0.990,-0.560
'0:01.992',-0.965,-0.550
'0:01.994',-0.970,-0.555
'0:01.997',-0.980,-0.560
'0:02.000',-0.980,-0.570
'0:02.003',-0.995,-0.580
'0:02.006',-1.010,-0.585
'0:02.008',-1.015,-0.570
'0:02.011',-1.005,-0.555
'0:02.014',-0.995,-0.540
'0:02.017',-0.980,-0.535
'0:02.019',-0.980,-0.530
'0:02.022',-0.975,-0.530
'0:02.025',-0.980,-0.530
'0:02.028',-0.980,-0.545
'0:02.031',-0.990,-0.545
'0:02.033',-0.995,-0.550
'0:02.036',-1.005,-0.545
'0:02.039',-1.005,-0.545
'0:02.042',-1.015,-0.540
'0:02.044',-1.010,-0.555
'0:02.047',-1.000,-0.525
'0:02.050',-0.995,-0.530
'0:02.053',-0.985,-0.515
'0:02.056',-0.980,-0.510
'0:02.058',-0.980,-0.515
'0:02.061',-0.980,-0.515
'0:02.064',-0.995,-0.530
'0:02.067',-1.005,-0.535
'0:02.069',-1.010,-0.545
'0:02.072',-1.035,-0.550
'0:02.075',-1.030,-0.550
'0:02.078',-1.030,-0.550
'0:02.081',-1.025,-0.545
'0:02.083',-1.015,-0.525
'0:02.086',-1.005,-0.525
'0:02.089',-1.000,-0.520
'0:02.092',-1.000,-0.510
'0:02.094',-1.005,-0.535
'0:02.097',-1.025,-0.545
'0:02.100',-1.045,-0.550
'0:02.103',-1.055,-0.560
'0:02.106',-1.055,-0.570
'0:02.108',-1.065,-0.570
'0:02.111',-1.075,-0.565
'0:02.114',-1.080,-0.565
'0:02.117',-1.065,-0.560
'0:02.119',-1.075,-0.560
'0:02.122',-1.060,-0.565
'0:02.125',-1.080,-0.575
'0:02.128',-1.075,-0.595
'0:02.131',-1.080,-0.590
'0:02.133',-1.090,-0.600
'0:02.136',-1.105,-0.615
'0:02.139',-1.110,-0.620
'0:02.142',-1.120,-0.625
'0:02.144',-1.130,-0.635
'0:02.147',-1.130,-0.625
'0:02.150',-1.120,-0.645
'0:02.153',-1.120,-0.640
'0:02.156',-1.110,-0.655
'0:02.158',-1.120,-0.660
'0:02.161',-1.120,-0.680
'0:02.164',-1.135,-0.680
'0:02.167',-1.135,-0.700
'0:02.169',-1.160,-0.700
'0:02.172',-1.160,-0.715
'0:02.175',-1.165,-0.730
'0:02.178',-1.170,-0.730
'0:02.181',-1.165,-0.725
'0:02.183',-1.160,-0.750
'0:02.186',-1.150,-0.750
'0:02.189',-1.135,-0.755
'0:02.192',-1.145,-0.760
'0:02.194',-1.145,-0.780
'0:02.197',-1.140,-0.775
'0:02.200',-1.145,-0.785
'0:02.203',-1.145,-0.795
'0:02.206',-1.140,-0.805
'0:02.208',-1.140,-0.795
'0:02.211',-1.110,-0.795
'0:02.214',-1.100,-0.805
'0:02.217',-1.070,-0.800
'0:02.219',-1.060,-0.790
'0:02.222',-1.035,-0.780
'0:02.225',-1.015,-0.790
'0:02.228',-1.010,-0.795
'0:02.231',-1.005,-0.800
'0:02.233',-0.990,-0.800
'0:02.236',-0.985,-0.810
'0:02.239',-0.970,-0.815
'0:02.242',-0.955,-0.810
'0:02.244',-0.940,-0.800
'0:02.247',-0.925,-0.780
'0:02.250',-0.890,-0.770
'0:02.253',-0.875,-0.750
'0:02.256',-0.860,-0.745
'0:02.258',-0.845,-0.750
'0:02.261',-0.825,-0.760
'0:02.264',-0.820,-0.760
'0:02.267',-0.815,-0.775
'0:02.269',-0.800,-0.775
'0:02.272',-0.810,-0.770
'0:02.275',-0.805,-0.765
'0:02.278',-0.800,-0.755
'0:02.281',-0.795,-0.740
'0:02.283',-0.770,-0.740
'0:02.286',-0.775,-0.740
'0:02.289',-0.765,-0.740
'0:02.292',-0.770,-0.755
'0:02.294',-0.770,-0.745
'0:02.297',-0.790,-0.760
'0:02.300',-0.795,-0.760
'0:02.303',-0.815,-0.760
'0:02.306',-0.830,-0.775
'0:02.308',-0.830,-0.770
'0:02.311',-0.850,-0.760
'0:02.314',-0.870,-0.765
'0:02.317',-0.875,-0.760
'0:02.319',-0.870,-0.760
'0:02.322',-0.870,-0.765
'0:02.325',-0.885,-0.780
'0:02.328',-0.900,-0.775
'0:02.331',-0.910,-0.800
'0:02.333',-0.930,-0.815
'0:02.336',-0.930,-0.815
'0:02.339',-0.970,-0.805
'0:02.342',-0.985,-0.820
'0:02.344',-0.960,-0.800
'0:02.347',-0.975,-0.800
'0:02.350',-0.970,-0.800
'0:02.353',-0.965,-0.785
'0:02.356',-0.970,-0.790
'0:02.358',-0.965,-0.805
'0:02.361',-0.975,-0.800
'0:02.364',-0.975,-0.800
'0:02.367',-0.995,-0.805
'0:02.369',-1.000,-0.810
'0:02.372',-1.000,-0.805
'0:02.375',-1.005,-0.810
'0:02.378',-1.005,-0.785
'0:02.381',-1.000,-0.785
'0:02.383',-0.995,-0.780
'0:02.386',-0.975,-0.780
'0:02.389',-0.980,-0.770
'0:02.392',-0.975,-0.760
'0:02.394',-0.980,-0.765
'0:02.397',-0.970,-0.770
'0:02.400',-0.985,-0.775
'0:02.403',-0.985,-0.775
'0:02.406',-0.980,-0.775
'0:02.408',-0.980,-0.775
'0:02.411',-0.970,-0.760
'0:02.414',-0.955,-0.755
'0:02.417',-0.945,-0.745
'0:02.419',-0.930,-0.740
'0:02.422',-0.920,-0.735
'0:02.425',-0.915,-0.730
'0:02.428',-0.925,-0.735
'0:02.431',-0.925,-0.740
'0:02.433',-0.930,-0.730
'0:02.436',-0.920,-0.755
'0:02.439',-0.935,-0.745
'0:02.442',-0.940,-0.755
'0:02.444',-0.930,-0.745
'0:02.447',-0.925,-0.745
'0:02.450',-0.910,-0.735
'0:02.453',-0.905,-0.735
'0:02.456',-0.900,-0.720
'0:02.458',-0.900,-0.715
'0:02.461',-0.905,-0.730
'0:02.464',-0.905,-0.740
'0:02.467',-0.910,-0.735
'0:02.469',-0.905,-0.740
'0:02.472',-0.910,-0.740
'0:02.475',-0.915,-0.750
'0:02.478',-0.920,-0.740
'0:02.481',-0.900,-0.730
'0:02.483',-0.885,-0.720
'0:02.486',-0.880,-0.695
'0:02.489',-0.870,-0.690
'0:02.492',-0.875,-0.690
'0:02.494',-0.870,-0.690
'0:02.497',-0.880,-0.700
'0:02.500',-0.890,-0.725
'0:02.503',-0.900,-0.730
'0:02.506',-0.910,-0.740
'0:02.508',-0.900,-0.735
'0:02.511',-0.895,-0.735
'0:02.514',-0.880,-0.725
'0:02.517',-0.880,-0.720
'0:02.519',-0.875,-0.710
'0:02.522',-0.870,-0.700
'0:02.525',-0.865,-0.705
'0:02.528',-0.870,-0.710
'0:02.531',-0.870,-0.725
'0:02.533',-0.870,-0.715
'0:02.536',-0.880,-0.735
'0:02.539',-0.885,-0.735
'0:02.542',-0.880,-0.735
'0:02.544',-0.880,-0.730
'0:02.547',-0.880,-0.730
'0:02.550',-0.870,-0.725
'0:02.553',-0.860,-0.710
'0:02.556',-0.855,-0.710
'0:02.558',-0.855,-0.695
'0:02.561',-0.855,-0.715
'0:02.564',-0.850,-0.715
'0:02.567',-0.865,-0.725
'0:02.569',-0.870,-0.740
'0:02.572',-0.875,-0.735
'0:02.575',-0.870,-0.735
'0:02.578',-0.865,-0.725
'0:02.581',-0.865,-0.700
'0:02.583',-0.860,-0.700
'0:02.586',-0.855,-0.685
'0:02.589',-0.840,-0.690
'0:02.592',-0.840,-0.695
'0:02.594',-0.840,-0.700
'0:02.597',-0.845,-0.710
'0:02.600',-0.850,-0.725
'0:02.603',-0.865,-0.705
'0:02.606',-0.860,-0.720
'0:02.608',-0.870,-0.720
'0:02.611',-0.870,-0.715
'0:02.614',-0.855,-0.705
'0:02.617',-0.855,-0.690
'0:02.619',-0.860,-0.690
'0:02.622',-0.845,-0.695
'0:02.625',-0.840,-0.685
'0:02.628',-0.845,-0.705
'0:02.631',-0.835,-0.695
'0:02.633',-0.850,-0.700
'0:02.636',-0.855,-0.710
'0:02.639',-0.870,-0.715
'0:02.642',-0.875,-0.720
'0:02.644',-0.875,-0.710
'0:02.647',-0.860,-0.715
'0:02.650',-0.865,-0.700
'0:02.653',-0.850,-0.705
'0:02.656',-0.840,-0.685
'0:02.658',-0.840,-0.690
'0:02.661',-0.840,-0.695
'0:02.664',-0.850,-0.695
'0:02.667',-0.840,-0.710
'0:02.669',-0.860,-0.700
'0:02.672',-0.865,-0.715
'0:02.675',-0.865,-0.705
'0:02.678',-0.865,-0.705
'0:02.681',-0.850,-0.695
'0:02.683',-0.845,-0.685
'0:02.686',-0.840,-0.675
'0:02.689',-0.825,-0.680
'0:02.692',-0.820,-0.675
'0:02.694',-0.820,-0.695
'0:02.697',-0.825,-0.700
'0:02.700',-0.840,-0.700
'0:02.703',-0.850,-0.705
'0:02.706',-0.845,-0.710
'0:02.708',-0.855,-0.715
'0:02.711',-0.865,-0.705
'0:02.714',-0.865,-0.700
'0:02.717',-0.840,-0.690
'0:02.719',-0.840,-0.695
'0:02.722',-0.825,-0.675
'0:02.725',-0.820,-0.680
'0:02.728',-0.825,-0.690
'0:02.731',-0.830,-0.680
'0:02.733',-0.830,-0.695
'0:02.736',-0.835,-0.695
'0:02.739',-0.840,-0.700
'0:02.742',-0.845,-0.700
'0:02.744',-0.845,-0.705
'0:02.747',-0.850,-0.705
'0:02.750',-0.835,-0.690
'0:02.753',-0.840,-0.695
'0:02.756',-0.835,-0.665
'0:02.758',-0.835,-0.680
'0:02.761',-0.820,-0.685
'0:02.764',-0.825,-0.680
'0:02.767',-0.835,-0.695
'0:02.769',-0.835,-0.695
'0:02.772',-0.855,-0.700
'0:02.775',-0.845,-0.695
'0:02.778',-0.845,-0.675
'0:02.781',-0.840,-0.665
'0:02.783',-0.825,-0.680
'0:02.786',-0.820,-0.665
'0:02.789',-0.825,-0.660
'0:02.792',-0.815,-0.670
'0:02.794',-0.825,-0.680
'0:02.797',-0.825,-0.690
'0:02.800',-0.835,-0.720
'0:02.803',-0.840,-0.715
'0:02.806',-0.835,-0.710
'0:02.808',-0.835,-0.710
'0:02.811',-0.835,-0.695
'0:02.814',-0.840,-0.685
'0:02.817',-0.835,-0.675
'0:02.819',-0.830,-0.670
'0:02.822',-0.815,-0.665
'0:02.825',-0.810,-0.685
'0:02.828',-0.805,-0.690
'0:02.831',-0.815,-0.705
'0:02.833',-0.830,-0.720
'0:02.836',-0.840,-0.720
'0:02.839',-0.830,-0.715
'0:02.842',-0.830,-0.710
'0:02.844',-0.830,-0.690
'0:02.847',-0.820,-0.685
'0:02.850',-0.820,-0.685
'0:02.853',-0.805,-0.670
'0:02.856',-0.800,-0.685
'0:02.858',-0.810,-0.700
'0:02.861',-0.815,-0.700
'0:02.864',-0.810,-0.700
'0:02.867',-0.830,-0.710
'0:02.869',-0.825,-0.705
'0:02.872',-0.840,-0.710
'0:02.875',-0.840,-0.700
'0:02.878',-0.835,-0.690
'0:02.881',-0.825,-0.680
'0:02.883',-0.810,-0.665
'0:02.886',-0.795,-0.660
'0:02.889',-0.790,-0.660
'0:02.892',-0.785,-0.665
'0:02.894',-0.800,-0.680
'0:02.897',-0.805,-0.705
'0:02.900',-0.815,-0.695
'0:02.903',-0.820,-0.700
'0:02.906',-0.815,-0.700
'0:02.908',-0.815,-0.705
'0:02.911',-0.830,-0.700
'0:02.914',-0.810,-0.680
'0:02.917',-0.790,-0.665
'0:02.919',-0.755,-0.655
'0:02.922',-0.740,-0.670
'0:02.925',-0.730,-0.675
'0:02.928',-0.730,-0.675
'0:02.931',-0.735,-0.685
'0:02.933',-0.735,-0.695
'0:02.936',-0.750,-0.700
'0:02.939',-0.750,-0.680
'0:02.942',-0.750,-0.670
'0:02.944',-0.770,-0.670
'0:02.947',-0.780,-0.660
'0:02.950',-0.780,-0.650
'0:02.953',-0.770,-0.650
'0:02.956',-0.765,-0.650
'0:02.958',-0.770,-0.650
'0:02.961',-0.770,-0.665
'0:02.964',-0.765,-0.660
'0:02.967',-0.775,-0.660
'0:02.969',-0.775,-0.645
'0:02.972',-0.765,-0.635
'0:02.975',-0.750,-0.630
'0:02.978',-0.750,-0.625
'0:02.981',-0.735,-0.625
'0:02.983',-0.735,-0.630
'0:02.986',-0.735,-0.635
'0:02.989',-0.750,-0.645
'0:02.992',-0.765,-0.655
'0:02.994',-0.775,-0.670
'0:02.997',-0.800,-0.690
'0:03.000',-0.825,-0.695
'0:03.003',-0.835,-0.710
'0:03.006',-0.845,-0.705
'0:03.008',-0.840,-0.705
'0:03.011',-0.835,-0.695
'0:03.014',-0.830,-0.675
'0:03.017',-0.825,-0.670
'0:03.019',-0.810,-0.665
'0:03.022',-0.805,-0.675
'0:03.025',-0.820,-0.685
'0:03.028',-0.825,-0.705
'0:03.031',-0.830,-0.720
'0:03.033',-0.845,-0.765
'0:03.036',-0.860,-0.780
'0:03.039',-0.870,-0.760
'0:03.042',-0.835,-0.690
'0:03.044',-0.755,-0.565
'0:03.047',-0.660,-0.430
'0:03.050',-0.550,-0.310
'0:03.053',-0.460,-0.255
'0:03.056',-0.390,-0.265
'0:03.058',-0.375,-0.360
'0:03.061',-0.410,-0.550
'0:03.064',-0.515,-0.850
'0:03.067',-0.685,-1.170
'0:03.069',-0.840,-1.425
'0:03.072',-0.925,-1.560
'0:03.075',-0.915,-1.540
'0:03.078',-0.755,-1.395
'0:03.081',-0.515,-1.170
'0:03.083',-0.220,-0.945
'0:03.086',0.060,-0.755
'0:03.089',0.335,-0.625
'0:03.092',0.570,-0.570
'0:03.094',0.780,-0.555
'0:03.097',0.955,-0.545
'0:03.100',1.090,-0.550
'0:03.103',1.160,-0.575
'0:03.106',1.185,-0.615
'0:03.108',1.160,-0.655
'0:03.111',1.105,-0.680
'0:03.114',1.020,-0.685
'0:03.117',0.910,-0.670
'0:03.119',0.740,-0.665
'0:03.122',0.555,-0.645
'0:03.125',0.340,-0.630
'0:03.128',0.145,-0.620
'0:03.131',-0.065,-0.605
'0:03.133',-0.295,-0.615
'0:03.136',-0.515,-0.640
'0:03.139',-0.695,-0.675
'0:03.142',-0.875,-0.700
'0:03.144',-0.965,-0.725
'0:03.147',-1.025,-0.730
'0:03.150',-1.045,-0.715
'0:03.153',-1.035,-0.680
'0:03.156',-1.025,-0.660
'0:03.158',-1.000,-0.625
'0:03.161',-0.975,-0.615
'0:03.164',-0.970,-0.600
'0:03.167',-0.965,-0.580
'0:03.169',-0.950,-0.575
'0:03.172',-0.935,-0.550
'0:03.175',-0.925,-0.535
'0:03.178',-0.930,-0.525
'0:03.181',-0.920,-0.505
'0:03.183',-0.915,-0.500
'0:03.186',-0.910,-0.500
'0:03.189',-0.920,-0.500
'0:03.192',-0.915,-0.505
'0:03.194',-0.920,-0.510
'0:03.197',-0.925,-0.515
'0:03.200',-0.935,-0.510
'0:03.203',-0.940,-0.520
'0:03.206',-0.940,-0.510
'0:03.208',-0.945,-0.500
'0:03.211',-0.940,-0.500
'0:03.214',-0.935,-0.480
'0:03.217',-0.935,-0.470
'0:03.219',-0.925,-0.475
'0:03.222',-0.915,-0.485
'0:03.225',-0.925,-0.490
'0:03.228',-0.940,-0.490
'0:03.231',-0.930,-0.505
'0:03.233',-0.930,-0.520
'0:03.236',-0.940,-0.545
'0:03.239',-0.940,-0.530
'0:03.242',-0.950,-0.530
'0:03.244',-0.945,-0.505
'0:03.247',-0.945,-0.490
'0:03.250',-0.955,-0.470
'0:03.253',-0.940,-0.475
'0:03.256',-0.945,-0.480
'0:03.258',-0.945,-0.490
'0:03.261',-0.940,-0.500
'0:03.264',-0.960,-0.525
'0:03.267',-0.955,-0.520
'0:03.269',-0.970,-0.525
'0:03.272',-0.975,-0.530
'0:03.275',-0.985,-0.520
'0:03.278',-0.980,-0.500
'0:03.281',-0.970,-0.515
'0:03.283',-0.975,-0.510
'0:03.286',-0.970,-0.500
'0:03.289',-0.965,-0.510
'0:03.292',-0.970,-0.515
'0:03.294',-0.995,-0.520
'0:03.297',-1.000,-0.525
'0:03.300',-1.005,-0.545
'0:03.303',-1.010,-0.545
'0:03.306',-1.015,-0.550
'0:03.308',-1.020,-0.540
'0:03.311',-1.020,-0.535
'0:03.314',-1.020,-0.530
'0:03.317',-1.015,-0.545
'0:03.319',-1.025,-0.540
'0:03.322',-1.025,-0.545
'0:03.325',-1.035,-0.555
'0:03.328',-1.040,-0.570
'0:03.331',-1.020,-0.585
'0:03.333',-1.050,-0.605
'0:03.336',-1.055,-0.605
'0:03.339',-1.060,-0.615
'0:03.342',-1.075,-0.630
'0:03.344',-1.075,-0.615
'0:03.347',-1.070,-0.620
'0:03.350',-1.070,-0.625
'0:03.353',-1.060,-0.620
'0:03.356',-1.065,-0.645
'0:03.358',-1.065,-0.655
'0:03.361',-1.075,-0.675
'0:03.364',-1.090,-0.685
'0:03.367',-1.105,-0.710
'0:03.369',-1.125,-0.730
'0:03.372',-1.120,-0.720
'0:03.375',-1.125,-0.725
'0:03.378',-1.125,-0.735
'0:03.381',-1.120,-0.720
'0:03.383',-1.115,-0.740
'0:03.386',-1.110,-0.735
'0:03.389',-1.110,-0.740
'0:03.392',-1.110,-0.765
'0:03.394',-1.125,-0.795
'0:03.397',-1.130,-0.805
'0:03.400',-1.125,-0.825
'0:03.403',-1.115,-0.830
'0:03.406',-1.115,-0.835
'0:03.408',-1.110,-0.835
'0:03.411',-1.090,-0.835
'0:03.414',-1.080,-0.830
'0:03.417',-1.055,-0.840
'0:03.419',-1.050,-0.830
'0:03.422',-1.035,-0.835
'0:03.425',-1.030,-0.845
'0:03.428',-1.010,-0.850
'0:03.431',-1.000,-0.845
'0:03.433',-0.985,-0.855
'0:03.436',-0.980,-0.850
'0:03.439',-0.965,-0.845
'0:03.442',-0.950,-0.850
'0:03.444',-0.935,-0.835
'0:03.447',-0.910,-0.830
'0:03.450',-0.885,-0.815
'0:03.453',-0.865,-0.800
'0:03.456',-0.845,-0.805
'0:03.458',-0.830,-0.815
'0:03.461',-0.815,-0.820
'0:03.464',-0.800,-0.815
'0:03.467',-0.800,-0.815
'0:03.469',-0.785,-0.815
'0:03.472',-0.785,-0.820
'0:03.475',-0.785,-0.800
'0:03.478',-0.765,-0.790
'0:03.481',-0.750,-0.780
'0:03.483',-0.735,-0.760
'0:03.486',-0.725,-0.740
'0:03.489',-0.720,-0.745
'0:03.492',-0.720,-0.750
'0:03.494',-0.720,-0.770
'0:03.497',-0.740,-0.755
'0:03.500',-0.755,-0.765
'0:03.503',-0.750,-0.765
'0:03.506',-0.750,-0.755
'0:03.508',-0.745,-0.735
'0:03.511',-0.750,-0.725
'0:03.514',-0.765,-0.735
'0:03.517',-0.755,-0.720
'0:03.519',-0.760,-0.720
'0:03.522',-0.765,-0.715
'0:03.525',-0.775,-0.725
'0:03.528',-0.785,-0.735
'0:03.531',-0.810,-0.740
'0:03.533',-0.820,-0.745
'0:03.536',-0.830,-0.735
'0:03.539',-0.835,-0.740
'0:03.542',-0.840,-0.740
'0:03.544',-0.855,-0.720
'0:03.547',-0.845,-0.735
'0:03.550',-0.850,-0.730
'0:03.553',-0.850,-0.715
'0:03.556',-0.845,-0.720
'0:03.558',-0.855,-0.715
'0:03.561',-0.850,-0.735
'0:03.564',-0.860,-0.740
'0:03.567',-0.875,-0.740
'0:03.569',-0.870,-0.745
'0:03.572',-0.875,-0.745
'0:03.575',-0.875,-0.725
'0:03.578',-0.880,-0.710
'0:03.581',-0.875,-0.710
'0:03.583',-0.860,-0.705
'0:03.586',-0.855,-0.715
'0:03.589',-0.850,-0.705
'0:03.592',-0.840,-0.710
'0:03.594',-0.845,-0.715
'0:03.597',-0.850,-0.715
'0:03.600',-0.850,-0.725
'0:03.603',-0.855,-0.715
'0:03.606',-0.850,-0.720
'0:03.608',-0.855,-0.695
'0:03.611',-0.845,-0.695
'0:03.614',-0.835,-0.695
'0:03.617',-0.830,-0.690
'0:03.619',-0.830,-0.675
'0:03.622',-0.810,-0.685
'0:03.625',-0.805,-0.690
'0:03.628',-0.815,-0.695
'0:03.631',-0.835,-0.700
'0:03.633',-0.845,-0.685
'0:03.636',-0.835,-0.690
'0:03.639',-0.840,-0.700
'0:03.642',-0.830,-0.700
'0:03.644',-0.810,-0.690
'0:03.647',-0.810,-0.680
'0:03.650',-0.805,-0.680
'0:03.653',-0.780,-0.665
'0:03.656',-0.790,-0.670
'0:03.658',-0.780,-0.670
'0:03.661',-0.795,-0.690
'0:03.664',-0.795,-0.685
'0:03.667',-0.785,-0.700
'0:03.669',-0.795,-0.700
'0:03.672',-0.810,-0.715
'0:03.675',-0.800,-0.705
'0:03.678',-0.790,-0.690
'0:03.681',-0.795,-0.680
'0:03.683',-0.795,-0.665
'0:03.686',-0.775,-0.660
'0:03.689',-0.765,-0.675
'0:03.692',-0.765,-0.680
'0:03.694',-0.760,-0.685
'0:03.697',-0.765,-0.700
'0:03.700',-0.760,-0.705
'0:03.703',-0.770,-0.705
'0:03.706',-0.780,-0.700
'0:03.708',-0.775,-0.710
'0:03.711',-0.760,-0.685
'0:03.714',-0.765,-0.685
'0:03.717',-0.755,-0.670
'0:03.719',-0.755,-0.670
'0:03.722',-0.740,-0.685
'0:03.725',-0.745,-0.690
'0:03.728',-0.745,-0.700
'0:03.731',-0.750,-0.695
'0:03.733',-0.760,-0.705
'0:03.736',-0.765,-0.710
'0:03.739',-0.770,-0.715
'0:03.742',-0.755,-0.715
'0:03.744',-0.755,-0.700
'0:03.747',-0.750,-0.700
'0:03.750',-0.745,-0.685
'0:03.753',-0.740,-0.685
'0:03.756',-0.745,-0.695
'0:03.758',-0.750,-0.700
'0:03.761',-0.745,-0.705
'0:03.764',-0.750,-0.715
'0:03.767',-0.740,-0.700
'0:03.769',-0.735,-0.715
'0:03.772',-0.745,-0.710
'0:03.775',-0.750,-0.700
'0:03.778',-0.755,-0.695
'0:03.781',-0.745,-0.695
'0:03.783',-0.730,-0.680
'0:03.786',-0.730,-0.685
'0:03.789',-0.720,-0.695
'0:03.792',-0.725,-0.690
'0:03.794',-0.715,-0.700
'0:03.797',-0.725,-0.705
'0:03.800',-0.730,-0.705
'0:03.803',-0.735,-0.705
'0:03.806',-0.730,-0.710
'0:03.808',-0.730,-0.695
'0:03.811',-0.735,-0.680
'0:03.814',-0.715,-0.675
'0:03.817',-0.705,-0.670
'0:03.819',-0.705,-0.675
'0:03.822',-0.695,-0.675
'0:03.825',-0.695,-0.690
'0:03.828',-0.690,-0.700
'0:03.831',-0.700,-0.700
'0:03.833',-0.705,-0.710
'0:03.836',-0.705,-0.720
'0:03.839',-0.710,-0.710
'0:03.842',-0.720,-0.710
'0:03.844',-0.720,-0.715
'0:03.847',-0.720,-0.710
'0:03.850',-0.690,-0.710
'0:03.853',-0.680,-0.700
'0:03.856',-0.685,-0.700
'0:03.858',-0.685,-0.700
'0:03.861',-0.685,-0.700
'0:03.864',-0.690,-0.710
'0:03.867',-0.690,-0.710
'0:03.869',-0.695,-0.720
'0:03.872',-0.705,-0.725
'0:03.875',-0.700,-0.730
'0:03.878',-0.695,-0.720
'0:03.881',-0.680,-0.705
'0:03.883',-0.670,-0.705
'0:03.886',-0.660,-0.705
'0:03.889',-0.670,-0.695
'0:03.892',-0.655,-0.715
'0:03.894',-0.655,-0.710
'0:03.897',-0.680,-0.705
'0:03.900',-0.675,-0.725
'0:03.903',-0.685,-0.735
'0:03.906',-0.680,-0.740
'0:03.908',-0.690,-0.740
'0:03.911',-0.680,-0.730
'0:03.914',-0.680,-0.715
'0:03.917',-0.670,-0.715
'0:03.919',-0.655,-0.700
'0:03.922',-0.660,-0.715
'0:03.925',-0.670,-0.705
'0:03.928',-0.665,-0.720
'0:03.931',-0.675,-0.730
'0:03.933',-0.680,-0.730
'0:03.936',-0.680,-0.725
'0:03.939',-0.670,-0.740
'0:03.942',-0.665,-0.730
'0:03.944',-0.665,-0.730
'0:03.947',-0.650,-0.720
'0:03.950',-0.645,-0.725
'0:03.953',-0.630,-0.715
'0:03.956',-0.630,-0.730
'0:03.958',-0.635,-0.725
'0:03.961',-0.645,-0.730
'0:03.964',-0.655,-0.745
'0:03.967',-0.655,-0.755
'0:03.969',-0.660,-0.755
'0:03.972',-0.665,-0.755
'0:03.975',-0.650,-0.760
'0:03.978',-0.650,-0.740
'0:03.981',-0.640,-0.730
'0:03.983',-0.650,-0.720
'0:03.986',-0.635,-0.720
'0:03.989',-0.620,-0.725
'0:03.992',-0.630,-0.725
'0:03.994',-0.635,-0.740
'0:03.997',-0.650,-0.745
'0:04.000',-0.655,-0.740
'0:04.003',-0.655,-0.750
'0:04.006',-0.655,-0.755
'0:04.008',-0.650,-0.750
'0:04.011',-0.640,-0.740
'0:04.014',-0.630,-0.750
'0:04.017',-0.625,-0.740
'0:04.019',-0.625,-0.730
'0:04.022',-0.630,-0.730
'0:04.025',-0.630,-0.745
'0:04.028',-0.615,-0.750
'0:04.031',-0.630,-0.750
'0:04.033',-0.630,-0.760
'0:04.036',-0.630,-0.755
'0:04.039',-0.640,-0.765
'0:04.042',-0.645,-0.760
'0:04.044',-0.620,-0.750
'0:04.047',-0.620,-0.750
'0:04.050',-0.595,-0.745
'0:04.053',-0.605,-0.735
'0:04.056',-0.590,-0.740
'0:04.058',-0.600,-0.740
'0:04.061',-0.595,-0.750
'0:04.064',-0.610,-0.760
'0:04.067',-0.625,-0.765
'0:04.069',-0.625,-0.770
'0:04.072',-0.610,-0.765
'0:04.075',-0.605,-0.755
'0:04.078',-0.605,-0.765
'0:04.081',-0.595,-0.755
'0:04.083',-0.585,-0.750
'0:04.086',-0.575,-0.745
'0:04.089',-0.555,-0.750
'0:04.092',-0.560,-0.765
'0:04.094',-0.555,-0.765
'0:04.097',-0.560,-0.765
'0:04.100',-0.565,-0.765
'0:04.103',-0.580,-0.770
'0:04.106',-0.580,-0.765
'0:04.108',-0.575,-0.770
'0:04.111',-0.565,-0.755
'0:04.114',-0.560,-0.740
'0:04.117',-0.530,-0.745
'0:04.119',-0.505,-0.730
'0:04.122',-0.490,-0.730
'0:04.125',-0.495,-0.750
'0:04.128',-0.485,-0.755
'0:04.131',-0.500,-0.755
'0:04.133',-0.510,-0.760
'0:04.136',-0.520,-0.775
'0:04.139',-0.535,-0.765
'0:04.142',-0.555,-0.755
'0:04.144',-0.545,-0.750
'0:04.147',-0.535,-0.765
'0:04.150',-0.535,-0.745
'0:04.153',-0.525,-0.735
'0:04.156',-0.525,-0.720
'0:04.158',-0.520,-0.735
'0:04.161',-0.535,-0.740
'0:04.164',-0.535,-0.730
'0:04.167',-0.525,-0.735
'0:04.169',-0.510,-0.730
'0:04.172',-0.485,-0.725
'0:04.175',-0.490,-0.715
'0:04.178',-0.480,-0.725
'0:04.181',-0.480,-0.715
'0:04.183',-0.480,-0.720
'0:04.186',-0.485,-0.715
'0:04.189',-0.505,-0.735
'0:04.192',-0.530,-0.755
'0:04.194',-0.540,-0.770
'0:04.197',-0.565,-0.790
'0:04.200',-0.575,-0.800
'0:04.203',-0.595,-0.805
'0:04.206',-0.595,-0.810
'0:04.208',-0.595,-0.800
'0:04.211',-0.585,-0.775
'0:04.214',-0.580,-0.780
'0:04.217',-0.570,-0.770
'0:04.219',-0.560,-0.765
'0:04.222',-0.555,-0.770
'0:04.225',-0.555,-0.790
'0:04.228',-0.565,-0.815
'0:04.231',-0.570,-0.835
'0:04.233',-0.585,-0.860
'0:04.236',-0.610,-0.885
'0:04.239',-0.600,-0.875
'0:04.242',-0.570,-0.815
'0:04.244',-0.515,-0.700
'0:04.247',-0.440,-0.595
'0:04.250',-0.350,-0.480
'0:04.253',-0.260,-0.410
'0:04.256',-0.185,-0.410
'0:04.258',-0.165,-0.475
'0:04.261',-0.165,-0.595
'0:04.264',-0.230,-0.830
'0:04.267',-0.325,-1.110
'0:04.269',-0.460,-1.355
'0:04.272',-0.560,-1.525
'0:04.275',-0.570,-1.535
'0:04.278',-0.470,-1.415
'0:04.281',-0.275,-1.195
'0:04.283',-0.020,-0.970
'0:04.286',0.260,-0.760
'0:04.289',0.520,-0.595
'0:04.292',0.760,-0.495
'0:04.294',0.980,-0.435
'0:04.297',1.170,-0.400
'0:04.300',1.345,-0.390
'0:04.303',1.475,-0.400
'0:04.306',1.555,-0.420
'0:04.308',1.600,-0.470
'0:04.311',1.615,-0.550
'0:04.314',1.550,-0.655
'0:04.317',1.480,-0.710
'0:04.319',1.375,-0.750
'0:04.322',1.210,-0.805
'0:04.325',0.995,-0.810
'0:04.328',0.795,-0.795
'0:04.331',0.595,-0.790
'0:04.333',0.400,-0.775
'0:04.336',0.210,-0.755
'0:04.339',0.000,-0.750
'0:04.342',-0.190,-0.755
'0:04.344',-0.380,-0.790
'0:04.347',-0.550,-0.845
'0:04.350',-0.675,-0.880
'0:04.353',-0.760,-0.890
'0:04.356',-0.800,-0.900
'0:04.358',-0.810,-0.870
'0:04.361',-0.815,-0.840
'0:04.364',-0.800,-0.810
'0:04.367',-0.780,-0.800
'0:04.369',-0.765,-0.780
'0:04.372',-0.755,-0.770
'0:04.375',-0.740,-0.750
'0:04.378',-0.720,-0.720
'0:04.381',-0.705,-0.680
'0:04.383',-0.675,-0.670
'0:04.386',-0.670,-0.655
'0:04.389',-0.655,-0.650
'0:04.392',-0.660,-0.665
'0:04.394',-0.665,-0.660
'0:04.397',-0.670,-0.665
'0:04.400',-0.680,-0.665
'0:04.403',-0.695,-0.660
'0:04.406',-0.705,-0.660
'0:04.408',-0.705,-0.660
'0:04.411',-0.705,-0.655
'0:04.414',-0.695,-0.645
'0:04.417',-0.670,-0.650
'0:04.419',-0.665,-0.625
'0:04.422',-0.660,-0.640
'0:04.425',-0.665,-0.640
'0:04.428',-0.680,-0.650
'0:04.431',-0.690,-0.655
'0:04.433',-0.685,-0.665
'0:04.436',-0.695,-0.670
'0:04.439',-0.700,-0.660
'0:04.442',-0.700,-0.670
'0:04.444',-0.700,-0.655
'0:04.447',-0.695,-0.665
'0:04.450',-0.690,-0.655
'0:04.453',-0.690,-0.650
'0:04.456',-0.675,-0.650
'0:04.458',-0.680,-0.650
'0:04.461',-0.690,-0.650
'0:04.464',-0.690,-0.660
'0:04.467',-0.700,-0.665
'0:04.469',-0.705,-0.675
'0:04.472',-0.715,-0.670
'0:04.475',-0.710,-0.665
'0:04.478',-0.715,-0.660
'0:04.481',-0.700,-0.655
'0:04.483',-0.695,-0.640
'0:04.486',-0.700,-0.635
'0:04.489',-0.690,-0.630
'0:04.492',-0.690,-0.650
'0:04.494',-0.705,-0.655
'0:04.497',-0.710,-0.665
'0:04.500',-0.720,-0.670
'0:04.503',-0.730,-0.695
'0:04.506',-0.745,-0.680
'0:04.508',-0.745,-0.680
'0:04.511',-0.745,-0.685
'0:04.514',-0.730,-0.675
'0:04.517',-0.740,-0.665
'0:04.519',-0.745,-0.660
'0:04.522',-0.720,-0.660
'0:04.525',-0.725,-0.675
'0:04.528',-0.750,-0.690
'0:04.531',-0.750,-0.695
'0:04.533',-0.755,-0.705
'0:04.536',-0.765,-0.710
'0:04.539',-0.770,-0.705
'0:04.542',-0.770,-0.710
'0:04.544',-0.780,-0.710
'0:04.547',-0.775,-0.705
'0:04.550',-0.785,-0.705
'0:04.553',-0.775,-0.705
'0:04.556',-0.775,-0.730
'0:04.558',-0.780,-0.730
'0:04.561',-0.795,-0.740
'0:04.564',-0.805,-0.770
'0:04.567',-0.820,-0.770
'0:04.569',-0.825,-0.790
'0:04.572',-0.820,-0.805
'0:04.575',-0.825,-0.795
'0:04.578',-0.835,-0.800
'0:04.581',-0.825,-0.795
'0:04.583',-0.815,-0.795
'0:04.586',-0.820,-0.795
'0:04.589',-0.815,-0.795
'0:04.592',-0.825,-0.810
'0:04.594',-0.840,-0.825
'0:04.597',-0.830,-0.840
'0:04.600',-0.835,-0.860
'0:04.603',-0.845,-0.870
'0:04.606',-0.840,-0.885
'0:04.608',-0.840,-0.850
'0:04.611',-0.830,-0.870
'0:04.614',-0.830,-0.865
'0:04.617',-0.815,-0.865
'0:04.619',-0.800,-0.845
'0:04.622',-0.790,-0.860
'0:04.625',-0.790,-0.880
'0:04.628',-0.780,-0.875
'0:04.631',-0.785,-0.890
'0:04.633',-0.780,-0.910
'0:04.636',-0.775,-0.900
'0:04.639',-0.765,-0.890
'0:04.642',-0.745,-0.880
'0:04.644',-0.725,-0.870
'0:04.647',-0.705,-0.880
'0:04.650',-0.675,-0.860
'0:04.653',-0.660,-0.865
'0:04.656',-0.650,-0.855
'0:04.658',-0.640,-0.865
'0:04.661',-0.620,-0.870
'0:04.664',-0.595,-0.870
'0:04.667',-0.585,-0.880
'0:04.669',-0.580,-0.885
'0:04.672',-0.580,-0.875
'0:04.675',-0.555,-0.855
'0:04.678',-0.540,-0.845
'0:04.681',-0.535,-0.845
'0:04.683',-0.520,-0.840
'0:04.686',-0.490,-0.835
'0:04.689',-0.470,-0.820
'0:04.692',-0.465,-0.830
'0:04.694',-0.455,-0.840
'0:04.697',-0.455,-0.835
'0:04.700',-0.460,-0.850
'0:04.703',-0.475,-0.850
'0:04.706',-0.455,-0.845
'0:04.708',-0.465,-0.835
'0:04.711',-0.455,-0.830
'0:04.714',-0.450,-0.840
'0:04.717',-0.445,-0.830
'0:04.719',-0.450,-0.835
'0:04.722',-0.450,-0.840
'0:04.725',-0.450,-0.840
'0:04.728',-0.455,-0.850
'0:04.731',-0.480,-0.865
'0:04.733',-0.505,-0.870
'0:04.736',-0.510,-0.870
'0:04.739',-0.520,-0.865
'0:04.742',-0.535,-0.860
'0:04.744',-0.545,-0.845
'0:04.747',-0.550,-0.855
'0:04.750',-0.555,-0.860
'0:04.753',-0.555,-0.850
'0:04.756',-0.565,-0.860
'0:04.758',-0.580,-0.860
'0:04.761',-0.585,-0.855
'0:04.764',-0.615,-0.875
'0:04.767',-0.620,-0.885
'0:04.769',-0.645,-0.885
'0:04.772',-0.655,-0.895
'0:04.775',-0.655,-0.875
'0:04.778',-0.665,-0.875
'0:04.781',-0.660,-0.860
'0:04.783',-0.655,-0.845
'0:04.786',-0.645,-0.845
'0:04.789',-0.650,-0.850
'0:04.792',-0.655,-0.855
'0:04.794',-0.665,-0.860
'0:04.797',-0.675,-0.860
'0:04.800',-0.680,-0.880
'0:04.803',-0.690,-0.880
'0:04.806',-0.695,-0.875
'0:04.808',-0.690,-0.875
'0:04.811',-0.680,-0.860
'0:04.814',-0.675,-0.850
'0:04.817',-0.665,-0.840
'0:04.819',-0.650,-0.840
'0:04.822',-0.635,-0.830
'0:04.825',-0.650,-0.830
'0:04.828',-0.640,-0.835
'0:04.831',-0.650,-0.830
'0:04.833',-0.650,-0.825
'0:04.836',-0.655,-0.835
'0:04.839',-0.650,-0.835
'0:04.842',-0.645,-0.820
'0:04.844',-0.650,-0.815
'0:04.847',-0.635,-0.800
'0:04.850',-0.615,-0.785
'0:04.853',-0.620,-0.775
'0:04.856',-0.605,-0.770
'0:04.858',-0.620,-0.775
'0:04.861',-0.615,-0.790
'0:04.864',-0.625,-0.810
'0:04.867',-0.610,-0.805
'0:04.869',-0.620,-0.805
'0:04.872',-0.620,-0.790
'0:04.875',-0.625,-0.775
'0:04.878',-0.630,-0.770
'0:04.881',-0.615,-0.750
'0:04.883',-0.595,-0.745
'0:04.886',-0.595,-0.750
'0:04.889',-0.575,-0.740
'0:04.892',-0.590,-0.755
'0:04.894',-0.580,-0.755
'0:04.897',-0.580,-0.770
'0:04.900',-0.590,-0.770
'0:04.903',-0.595,-0.775
'0:04.906',-0.590,-0.770
'0:04.908',-0.590,-0.755
'0:04.911',-0.580,-0.750
'0:04.914',-0.570,-0.730
'0:04.917',-0.565,-0.735
'0:04.919',-0.560,-0.720
'0:04.922',-0.550,-0.730
'0:04.925',-0.565,-0.730
'0:04.928',-0.575,-0.750
'0:04.931',-0.570,-0.750
'0:04.933',-0.580,-0.755
'0:04.936',-0.575,-0.760
'0:04.939',-0.595,-0.755
'0:04.942',-0.595,-0.745
'0:04.944',-0.580,-0.735
'0:04.947',-0.575,-0.745
'0:04.950',-0.570,-0.740
'0:04.953',-0.565,-0.725
'0:04.956',-0.560,-0.735
'0:04.958',-0.550,-0.730
'0:04.961',-0.555,-0.720
'0:04.964',-0.570,-0.740
'0:04.967',-0.565,-0.735
'0:04.969',-0.580,-0.740
'0:04.972',-0.575,-0.735
'0:04.975',-0.585,-0.735
'0:04.978',-0.580,-0.730
'0:04.981',-0.580,-0.730
'0:04.983',-0.565,-0.710
'0:04.986',-0.555,-0.710
'0:04.989',-0.550,-0.705
'0:04.992',-0.555,-0.710
'0:04.994',-0.555,-0.705
'0:04.997',-0.565,-0.715
'0:05.000',-0.560,-0.725
'0:05.003',-0.570,-0.725
'0:05.006',-0.570,-0.730
'0:05.008',-0.575,-0.735
'0:05.011',-0.570,-0.725
'0:05.014',-0.575,-0.710
'0:05.017',-0.555,-0.700
'0:05.019',-0.560,-0.685
'0:05.022',-0.555,-0.685
'0:05.025',-0.550,-0.690
'0:05.028',-0.560,-0.690
'0:05.031',-0.570,-0.705
'0:05.033',-0.565,-0.705
'0:05.036',-0.575,-0.710
'0:05.039',-0.580,-0.700
'0:05.042',-0.565,-0.700
'0:05.044',-0.560,-0.690
'0:05.047',-0.555,-0.685
'0:05.050',-0.555,-0.680
'0:05.053',-0.545,-0.665
'0:05.056',-0.550,-0.665
'0:05.058',-0.550,-0.685
'0:05.061',-0.550,-0.690
'0:05.064',-0.575,-0.700
'0:05.067',-0.565,-0.710
'0:05.069',-0.565,-0.715
'0:05.072',-0.570,-0.710
'0:05.075',-0.565,-0.705
'0:05.078',-0.565,-0.690
'0:05.081',-0.555,-0.690
'0:05.083',-0.540,-0.680
'0:05.086',-0.555,-0.675
'0:05.089',-0.550,-0.680
'0:05.092',-0.560,-0.680
'0:05.094',-0.560,-0.680
'0:05.097',-0.555,-0.690
'0:05.100',-0.575,-0.705
'0:05.103',-0.570,-0.690
'0:05.106',-0.575,-0.695
'0:05.108',-0.580,-0.685
'0:05.111',-0.570,-0.665
'0:05.114',-0.565,-0.650
'0:05.117',-0.550,-0.660
'0:05.119',-0.545,-0.650
'0:05.122',-0.535,-0.660
'0:05.125',-0.545,-0.660
'0:05.128',-0.540,-0.680
'0:05.131',-0.555,-0.690
'0:05.133',-0.555,-0.695
'0:05.136',-0.565,-0.690
'0:05.139',-0.560,-0.680
'0:05.142',-0.560,-0.680
'0:05.144',-0.560,-0.675
'0:05.147',-0.555,-0.655
'0:05.150',-0.565,-0.670
'0:05.153',-0.555,-0.645
'0:05.156',-0.550,-0.660
'0:05.158',-0.555,-0.655
'0:05.161',-0.555,-0.675
'0:05.164',-0.550,-0.680
'0:05.167',-0.555,-0.680
'0:05.169',-0.565,-0.675
'0:05.172',-0.560,-0.670
'0:05.175',-0.550,-0.675
'0:05.178',-0.555,-0.665
'0:05.181',-0.560,-0.680
'0:05.183',-0.570,-0.665
'0:05.186',-0.565,-0.665
'0:05.189',-0.560,-0.645
'0:05.192',-0.550,-0.655
'0:05.194',-0.555,-0.640
'0:05.197',-0.555,-0.670
'0:05.200',-0.550,-0.675
'0:05.203',-0.570,-0.665
'0:05.206',-0.565,-0.670
'0:05.208',-0.570,-0.675
'0:05.211',-0.565,-0.675
'0:05.214',-0.560,-0.665
'0:05.217',-0.555,-0.660
'0:05.219',-0.550,-0.645
'0:05.222',-0.545,-0.635
'0:05.225',-0.550,-0.635
'0:05.228',-0.555,-0.645
'0:05.231',-0.555,-0.645
'0:05.233',-0.565,-0.655
'0:05.236',-0.565,-0.655
'0:05.239',-0.570,-0.655
'0:05.242',-0.585,-0.660
'0:05.244',-0.575,-0.645
'0:05.247',-0.570,-0.645
'0:05.250',-0.550,-0.650
'0:05.253',-0.550,-0.625
'0:05.256',-0.535,-0.625
'0:05.258',-0.550,-0.635
'0:05.261',-0.560,-0.645
'0:05.264',-0.555,-0.645
'0:05.267',-0.565,-0.660
'0:05.269',-0.565,-0.660
'0:05.272',-0.565,-0.650
'0:05.275',-0.570,-0.645
'0:05.278',-0.560,-0.650
'0:05.281',-0.565,-0.630
'0:05.283',-0.550,-0.620
'0:05.286',-0.540,-0.620
'0:05.289',-0.535,-0.615
'0:05.292',-0.540,-0.625
'0:05.294',-0.550,-0.635
'0:05.297',-0.550,-0.635
'0:05.300',-0.570,-0.635
'0:05.303',-0.565,-0.640
'0:05.306',-0.565,-0.640
'0:05.308',-0.560,-0.620
'0:05.311',-0.550,-0.620
'0:05.314',-0.530,-0.620
'0:05.317',-0.540,-0.620
'0:05.319',-0.530,-0.610
'0:05.322',-0.525,-0.620
'0:05.325',-0.535,-0.640
'0:05.328',-0.535,-0.620
'0:05.331',-0.550,-0.645
'0:05.333',-0.540,-0.640
'0:05.336',-0.540,-0.625
'0:05.339',-0.530,-0.620
'0:05.342',-0.520,-0.620
'0:05.344',-0.510,-0.615
'0:05.347',-0.495,-0.605
'0:05.350',-0.485,-0.590
'0:05.353',-0.480,-0.570
'0:05.356',-0.485,-0.580
'0:05.358',-0.490,-0.580
'0:05.361',-0.500,-0.590
'0:05.364',-0.515,-0.595
'0:05.367',-0.530,-0.605
'0:05.369',-0.530,-0.605
'0:05.372',-0.550,-0.600
'0:05.375',-0.545,-0.585
'0:05.378',-0.555,-0.580
'0:05.381',-0.545,-0.565
'0:05.383',-0.530,-0.560
'0:05.386',-0.505,-0.535
'0:05.389',-0.490,-0.535
'0:05.392',-0.480,-0.545
'0:05.394',-0.495,-0.540
'0:05.397',-0.490,-0.550
'0:05.400',-0.505,-0.570
'0:05.403',-0.525,-0.570
'0:05.406',-0.535,-0.570
'0:05.408',-0.545,-0.570
'0:05.411',-0.555,-0.580
'0:05.414',-0.565,-0.575
'0:05.417',-0.560,-0.580
'0:05.419',-0.565,-0.590
'0:05.422',-0.570,-0.590
'0:05.425',-0.585,-0.600
'0:05.428',-0.580,-0.600
'0:05.431',-0.590,-0.615
'0:05.433',-0.600,-0.610
'0:05.436',-0.600,-0.625
'0:05.439',-0.600,-0.625
'0:05.442',-0.595,-0.620
'0:05.444',-0.600,-0.615
'0:05.447',-0.580,-0.620
'0:05.450',-0.595,-0.625
'0:05.453',-0.585,-0.635
'0:05.456',-0.600,-0.640
'0:05.458',-0.590,-0.610
'0:05.461',-0.550,-0.510
'0:05.464',-0.475,-0.385
'0:05.467',-0.380,-0.275
'0:05.469',-0.300,-0.190
'0:05.472',-0.230,-0.180
'0:05.475',-0.185,-0.250
'0:05.478',-0.185,-0.405
'0:05.481',-0.260,-0.695
'0:05.483',-0.420,-1.005
'0:05.486',-0.590,-1.280
'0:05.489',-0.690,-1.435
'0:05.492',-0.685,-1.435
'0:05.494',-0.570,-1.300
'0:05.497',-0.360,-1.095
'0:05.500',-0.110,-0.890
'0:05.503',0.150,-0.720
'0:05.506',0.390,-0.585
'0:05.508',0.615,-0.515
'0:05.511',0.820,-0.480
'0:05.514',1.000,-0.470
'0:05.517',1.140,-0.460
'0:05.519',1.240,-0.460
'0:05.522',1.285,-0.495
'0:05.525',1.275,-0.550
'0:05.528',1.225,-0.585
'0:05.531',1.155,-0.595
'0:05.533',1.035,-0.590
'0:05.536',0.880,-0.575
'0:05.539',0.695,-0.565
'0:05.542',0.490,-0.535
'0:05.544',0.300,-0.510
'0:05.547',0.110,-0.495
'0:05.550',-0.090,-0.495
'0:05.553',-0.295,-0.520
'0:05.556',-0.475,-0.575
'0:05.558',-0.635,-0.605
'0:05.561',-0.745,-0.630
'0:05.564',-0.805,-0.640
'0:05.567',-0.840,-0.620
'0:05.569',-0.840,-0.590
'0:05.572',-0.825,-0.545
'0:05.575',-0.795,-0.515
'0:05.578',-0.765,-0.490
'0:05.581',-0.745,-0.485
'0:05.583',-0.715,-0.450
'0:05.586',-0.685,-0.440
'0:05.589',-0.685,-0.430
'0:05.592',-0.675,-0.430
'0:05.594',-0.685,-0.425
'0:05.597',-0.690,-0.415
'0:05.600',-0.715,-0.430
'0:05.603',-0.720,-0.425
'0:05.606',-0.720,-0.435
'0:05.608',-0.730,-0.435
'0:05.611',-0.730,-0.410
'0:05.614',-0.730,-0.415
'0:05.617',-0.710,-0.405
'0:05.619',-0.700,-0.385
'0:05.622',-0.690,-0.375
'0:05.625',-0.700,-0.380
'0:05.628',-0.695,-0.385
'0:05.631',-0.705,-0.390
'0:05.633',-0.705,-0.405
'0:05.636',-0.710,-0.405
'0:05.639',-0.710,-0.405
'0:05.642',-0.710,-0.390
'0:05.644',-0.720,-0.390
'0:05.647',-0.725,-0.380
'0:05.650',-0.715,-0.365
'0:05.653',-0.715,-0.345
'0:05.656',-0.705,-0.360
'0:05.658',-0.715,-0.370
'0:05.661',-0.715,-0.370
'0:05.664',-0.720,-0.390
'0:05.667',-0.735,-0.385
'0:05.669',-0.740,-0.395
'0:05.672',-0.750,-0.395
'0:05.675',-0.740,-0.395
'0:05.678',-0.760,-0.385
'0:05.681',-0.765,-0.380
'0:05.683',-0.740,-0.365
'0:05.686',-0.740,-0.355
'0:05.689',-0.735,-0.350
'0:05.692',-0.740,-0.355
'0:05.694',-0.755,-0.380
'0:05.697',-0.765,-0.395
'0:05.700',-0.770,-0.400
'0:05.703',-0.785,-0.410
'0:05.706',-0.785,-0.405
'0:05.708',-0.790,-0.400
'0:05.711',-0.785,-0.385
'0:05.714',-0.795,-0.385
'0:05.717',-0.785,-0.385
'0:05.719',-0.795,-0.380
'0:05.722',-0.800,-0.395
'0:05.725',-0.790,-0.395
'0:05.728',-0.810,-0.410
'0:05.731',-0.810,-0.425
'0:05.733',-0.820,-0.440
'0:05.736',-0.825,-0.445
'0:05.739',-0.840,-0.455
'0:05.742',-0.860,-0.440
'0:05.744',-0.840,-0.445
'0:05.747',-0.845,-0.450
'0:05.750',-0.845,-0.450
'0:05.753',-0.845,-0.455
'0:05.756',-0.845,-0.460
'0:05.758',-0.855,-0.470
'0:05.761',-0.865,-0.485
'0:05.764',-0.875,-0.500
'0:05.767',-0.885,-0.515
'0:05.769',-0.900,-0.525
'0:05.772',-0.925,-0.520
'0:05.775',-0.930,-0.535
'0:05.778',-0.925,-0.550
'0:05.781',-0.915,-0.545
'0:05.783',-0.915,-0.550
'0:05.786',-0.905,-0.550
'0:05.789',-0.910,-0.570
'0:05.792',-0.915,-0.575
'0:05.794',-0.925,-0.585
'0:05.797',-0.940,-0.600
'0:05.800',-0.955,-0.615
'0:05.803',-0.945,-0.615
'0:05.806',-0.960,-0.620
'0:05.808',-0.950,-0.630
'0:05.811',-0.945,-0.640
'0:05.814',-0.935,-0.630
'0:05.817',-0.935,-0.635
'0:05.819',-0.920,-0.635
'0:05.822',-0.895,-0.640
'0:05.825',-0.900,-0.655
'0:05.828',-0.890,-0.655
'0:05.831',-0.890,-0.675
'0:05.833',-0.885,-0.675
'0:05.836',-0.885,-0.680
'0:05.839',-0.865,-0.690
'0:05.842',-0.840,-0.695
'0:05.844',-0.825,-0.685
'0:05.847',-0.800,-0.675
'0:05.850',-0.790,-0.670
'0:05.853',-0.770,-0.665
'0:05.856',-0.740,-0.655
'0:05.858',-0.730,-0.665
'0:05.861',-0.720,-0.665
'0:05.864',-0.705,-0.665
'0:05.867',-0.700,-0.670
'0:05.869',-0.690,-0.665
'0:05.872',-0.670,-0.650
'0:05.875',-0.660,-0.650
'0:05.878',-0.650,-0.635
'0:05.881',-0.625,-0.630
'0:05.883',-0.605,-0.615
'0:05.886',-0.590,-0.605
'0:05.889',-0.580,-0.610
'0:05.892',-0.565,-0.605
'0:05.894',-0.555,-0.610
'0:05.897',-0.560,-0.615
'0:05.900',-0.565,-0.610
'0:05.903',-0.555,-0.620
'0:05.906',-0.565,-0.605
'0:05.908',-0.565,-0.605
'0:05.911',-0.570,-0.585
'0:05.914',-0.565,-0.585
'0:05.917',-0.590,-0.565
'0:05.919',-0.575,-0.570
'0:05.922',-0.570,-0.560
'0:05.925',-0.570,-0.555
'0:05.928',-0.585,-0.575
'0:05.931',-0.605,-0.590
'0:05.933',-0.620,-0.595
'0:05.936',-0.645,-0.585
'0:05.939',-0.650,-0.585
'0:05.942',-0.655,-0.585
'0:05.944',-0.660,-0.565
'0:05.947',-0.665,-0.550
'0:05.950',-0.660,-0.555
'0:05.953',-0.675,-0.550
'0:05.956',-0.680,-0.545
'0:05.958',-0.700,-0.550
'0:05.961',-0.695,-0.555
'0:05.964',-0.725,-0.560
'0:05.967',-0.720,-0.575
'0:05.969',-0.720,-0.560
'0:05.972',-0.740,-0.570
'0:05.975',-0.745,-0.560
'0:05.978',-0.745,-0.545
'0:05.981',-0.730,-0.545
'0:05.983',-0.730,-0.545
'0:05.986',-0.720,-0.530
'0:05.989',-0.715,-0.545
'0:05.992',-0.730,-0.530
'0:05.994',-0.740,-0.540
'0:05.997',-0.740,-0.555
'0:06.000',-0.760,-0.565
'0:06.003',-0.765,-0.555
'0:06.006',-0.760,-0.565
'0:06.008',-0.755,-0.550
'0:06.011',-0.765,-0.535
'0:06.014',-0.760,-0.520
'0:06.017',-0.740,-0.520
'0:06.019',-0.735,-0.510
'0:06.022',-0.725,-0.525
'0:06.025',-0.725,-0.520
'0:06.028',-0.725,-0.525
'0:06.031',-0.725,-0.525
'0:06.033',-0.730,-0.530
'0:06.036',-0.740,-0.540
'0:06.039',-0.735,-0.530
'0:06.042',-0.735,-0.520
'0:06.044',-0.745,-0.510
'0:06.047',-0.725,-0.510
'0:06.050',-0.720,-0.510
'0:06.053',-0.725,-0.495
'0:06.056',-0.705,-0.475
'0:06.058',-0.700,-0.480
'0:06.061',-0.710,-0.490
'0:06.064',-0.715,-0.485
'0:06.067',-0.715,-0.495
'0:06.069',-0.715,-0.490
'0:06.072',-0.735,-0.495
'0:06.075',-0.730,-0.505
'0:06.078',-0.725,-0.480
'0:06.081',-0.715,-0.475
'0:06.083',-0.700,-0.470
'0:06.086',-0.690,-0.465
'0:06.089',-0.695,-0.455
'0:06.092',-0.705,-0.460
'0:06.094',-0.705,-0.460
'0:06.097',-0.710,-0.480
'0:06.100',-0.705,-0.480
'0:06.103',-0.705,-0.490
'0:06.106',-0.715,-0.485
'0:06.108',-0.705,-0.485
'0:06.111',-0.700,-0.495
'0:06.114',-0.705,-0.480
'0:06.117',-0.690,-0.455
'0:06.119',-0.680,-0.450
'0:06.122',-0.670,-0.455
'0:06.125',-0.680,-0.450
'0:06.128',-0.680,-0.450
'0:06.131',-0.690,-0.465
'0:06.133',-0.685,-0.460
'0:06.136',-0.700,-0.475
'0:06.139',-0.700,-0.485
'0:06.142',-0.700,-0.460
'0:06.144',-0.710,-0.465
'0:06.147',-0.700,-0.455
'0:06.150',-0.685,-0.450
'0:06.153',-0.690,-0.445
'0:06.156',-0.675,-0.425
'0:06.158',-0.675,-0.420
'0:06.161',-0.685,-0.440
'0:06.164',-0.685,-0.440
'0:06.167',-0.685,-0.445
'0:06.169',-0.705,-0.450
'0:06.172',-0.710,-0.450
'0:06.175',-0.710,-0.460
'0:06.178',-0.710,-0.445
'0:06.181',-0.705,-0.440
'0:06.183',-0.700,-0.430
'0:06.186',-0.705,-0.425
'0:06.189',-0.690,-0.425
'0:06.192',-0.675,-0.420
'0:06.194',-0.680,-0.430
'0:06.197',-0.685,-0.440
'0:06.200',-0.695,-0.450
'0:06.203',-0.705,-0.460
'0:06.206',-0.710,-0.455
'0:06.208',-0.705,-0.450
'0:06.211',-0.705,-0.435
'0:06.214',-0.695,-0.430
'0:06.217',-0.700,-0.415
'0:06.219',-0.680,-0.410
'0:06.222',-0.675,-0.415
'0:06.225',-0.690,-0.410
'0:06.228',-0.700,-0.420
'0:06.231',-0.685,-0.420
'0:06.233',-0.700,-0.425
'0:06.236',-0.690,-0.430
'0:06.239',-0.695,-0.445
'0:06.242',-0.710,-0.440
'0:06.244',-0.710,-0.425
'0:06.247',-0.690,-0.425
'0:06.250',-0.695,-0.425
'0:06.253',-0.685,-0.415
'0:06.256',-0.670,-0.400
'0:06.258',-0.675,-0.410
'0:06.261',-0.685,-0.415
'0:06.264',-0.685,-0.425
'0:06.267',-0.685,-0.440
'0:06.269',-0.700,-0.440
'0:06.272',-0.705,-0.440
'0:06.275',-0.715,-0.425
'0:06.278',-0.710,-0.435
'0:06.281',-0.705,-0.420
'0:06.283',-0.695,-0.400
'0:06.286',-0.695,-0.400
'0:06.289',-0.695,-0.400
'0:06.292',-0.690,-0.415
'0:06.294',-0.690,-0.415
'0:06.297',-0.690,-0.430
'0:06.300',-0.695,-0.435
'0:06.303',-0.700,-0.435
'0:06.306',-0.715,-0.430
'0:06.308',-0.715,-0.430
'0:06.311',-0.715,-0.420
'0:06.314',-0.715,-0.405
'0:06.317',-0.715,-0.410
'0:06.319',-0.700,-0.410
'0:06.322',-0.675,-0.410
'0:06.325',-0.685,-0.420
'0:06.328',-0.690,-0.420
'0:06.331',-0.695,-0.435
'0:06.333',-0.715,-0.440
'0:06.336',-0.720,-0.445
'0:06.339',-0.725,-0.445
'0:06.342',-0.720,-0.440
'0:06.344',-0.710,-0.425
'0:06.347',-0.715,-0.425
'0:06.350',-0.710,-0.400
'0:06.353',-0.705,-0.395
'0:06.356',-0.710,-0.410
'0:06.358',-0.705,-0.425
'0:06.361',-0.705,-0.435
'0:06.364',-0.710,-0.435
'0:06.367',-0.705,-0.445
'0:06.369',-0.705,-0.435
'0:06.372',-0.710,-0.430
'0:06.375',-0.705,-0.425
'0:06.378',-0.700,-0.415
'0:06.381',-0.695,-0.415
'0:06.383',-0.685,-0.405
'0:06.386',-0.685,-0.395
'0:06.389',-0.675,-0.410
'0:06.392',-0.675,-0.425
'0:06.394',-0.685,-0.410
'0:06.397',-0.695,-0.425
'0:06.400',-0.700,-0.435
'0:06.403',-0.700,-0.440
'0:06.406',-0.720,-0.435
'0:06.408',-0.705,-0.425
'0:06.411',-0.700,-0.420
'0:06.414',-0.695,-0.420
'0:06.417',-0.680,-0.420
'0:06.419',-0.680,-0.405
'0:06.422',-0.675,-0.400
'0:06.425',-0.675,-0.415
'0:06.428',-0.695,-0.425
'0:06.431',-0.695,-0.430
'0:06.433',-0.705,-0.435
'0:06.436',-0.720,-0.435
'0:06.439',-0.720,-0.425
'0:06.442',-0.715,-0.425
'0:06.444',-0.725,-0.425
'0:06.447',-0.700,-0.410
'0:06.450',-0.705,-0.410
'0:06.453',-0.695,-0.405
'0:06.456',-0.690,-0.405
'0:06.458',-0.705,-0.410
'0:06.461',-0.700,-0.420
'0:06.464',-0.705,-0.425
'0:06.467',-0.695,-0.430
'0:06.469',-0.705,-0.430
'0:06.472',-0.720,-0.440
'0:06.475',-0.715,-0.440
'0:06.478',-0.720,-0.420
'0:06.481',-0.710,-0.405
'0:06.483',-0.700,-0.410
'0:06.486',-0.695,-0.400
'0:06.489',-0.685,-0.415
'0:06.492',-0.690,-0.400
'0:06.494',-0.700,-0.420
'0:06.497',-0.700,-0.410
'0:06.500',-0.710,-0.425
'0:06.503',-0.730,-0.430
'0:06.506',-0.735,-0.425
'0:06.508',-0.730,-0.415
'0:06.511',-0.715,-0.410
'0:06.514',-0.710,-0.405
'0:06.517',-0.710,-0.415
'0:06.519',-0.705,-0.405
'0:06.522',-0.690,-0.410
'0:06.525',-0.690,-0.415
'0:06.528',-0.705,-0.420
'0:06.531',-0.710,-0.440
'0:06.533',-0.715,-0.430
'0:06.536',-0.720,-0.430
'0:06.539',-0.725,-0.435
'0:06.542',-0.725,-0.425
'0:06.544',-0.720,-0.415
'0:06.547',-0.715,-0.425
'0:06.550',-0.710,-0.405
'0:06.553',-0.710,-0.400
'0:06.556',-0.710,-0.395
'0:06.558',-0.700,-0.410
'0:06.561',-0.705,-0.395
'0:06.564',-0.705,-0.410
'0:06.567',-0.700,-0.425
'0:06.569',-0.700,-0.425
'0:06.572',-0.705,-0.435
'0:06.575',-0.705,-0.425
'0:06.578',-0.695,-0.420
'0:06.581',-0.695,-0.420
'0:06.583',-0.695,-0.405
'0:06.586',-0.690,-0.390
'0:06.589',-0.690,-0.405
'0:06.592',-0.685,-0.400
'0:06.594',-0.685,-0.405
'0:06.597',-0.665,-0.405
'0:06.600',-0.670,-0.410
'0:06.603',-0.675,-0.425
'0:06.606',-0.655,-0.430
'0:06.608',-0.660,-0.435
'0:06.611',-0.655,-0.425
'0:06.614',-0.655,-0.410
'0:06.617',-0.650,-0.400
'0:06.619',-0.655,-0.390
'0:06.622',-0.650,-0.385
'0:06.625',-0.665,-0.385
'0:06.628',-0.670,-0.390
'0:06.631',-0.690,-0.390
'0:06.633',-0.685,-0.410
'0:06.636',-0.700,-0.425
'0:06.639',-0.705,-0.415
'0:06.642',-0.710,-0.405
'0:06.644',-0.695,-0.390
'0:06.647',-0.675,-0.375
'0:06.650',-0.660,-0.340
'0:06.653',-0.640,-0.335
'0:06.656',-0.625,-0.320
'0:06.658',-0.625,-0.340
'0:06.661',-0.625,-0.360
'0:06.664',-0.640,-0.365
'0:06.667',-0.660,-0.375
'0:06.669',-0.685,-0.385
'0:06.672',-0.700,-0.400
'0:06.675',-0.720,-0.405
'0:06.678',-0.740,-0.415
'0:06.681',-0.740,-0.415
'0:06.683',-0.740,-0.400
'0:06.686',-0.745,-0.395
'0:06.689',-0.730,-0.395
'0:06.692',-0.730,-0.400
'0:06.694',-0.730,-0.420
'0:06.697',-0.745,-0.420
'0:06.700',-0.750,-0.425
'0:06.703',-0.755,-0.435
'0:06.706',-0.760,-0.440
'0:06.708',-0.765,-0.450
'0:06.711',-0.765,-0.450
'0:06.714',-0.770,-0.455
'0:06.717',-0.775,-0.470
'0:06.719',-0.765,-0.450
'0:06.722',-0.730,-0.380
'0:06.725',-0.675,-0.270
'0:06.728',-0.595,-0.160
'0:06.731',-0.495,-0.080
'0:06.733',-0.435,-0.025
'0:06.736',-0.380,-0.050
'0:06.739',-0.360,-0.160
'0:06.742',-0.390,-0.335
'0:06.744',-0.480,-0.600
'0:06.747',-0.615,-0.885
'0:06.750',-0.725,-1.095
'0:06.753',-0.790,-1.190
'0:06.756',-0.740,-1.130
'0:06.758',-0.600,-0.945
'0:06.761',-0.370,-0.720
'0:06.764',-0.105,-0.485
'0:06.767',0.170,-0.295
'0:06.769',0.445,-0.160
'0:06.772',0.690,-0.075
'0:06.775',0.920,-0.035
'0:06.778',1.120,-0.005
'0:06.781',1.300,-0.010
'0:06.783',1.395,-0.035
'0:06.786',1.445,-0.085
'0:06.789',1.430,-0.185
'0:06.792',1.350,-0.280
'0:06.794',1.230,-0.350
'0:06.797',1.030,-0.420
'0:06.800',0.790,-0.450
'0:06.803',0.535,-0.435
'0:06.806',0.295,-0.425
'0:06.808',0.065,-0.385
'0:06.811',-0.150,-0.360
'0:06.814',-0.390,-0.355
'0:06.817',-0.615,-0.400
'0:06.819',-0.790,-0.440
'0:06.822',-0.920,-0.480
'0:06.825',-1.005,-0.505
'0:06.828',-1.045,-0.495
'0:06.831',-1.055,-0.480
'0:06.833',-1.040,-0.445
'0:06.836',-1.020,-0.420
'0:06.839',-1.005,-0.390
'0:06.842',-0.990,-0.350
'0:06.844',-0.965,-0.310
'0:06.847',-0.940,-0.310
'0:06.850',-0.915,-0.270
'0:06.853',-0.900,-0.265
'0:06.856',-0.900,-0.270
'0:06.858',-0.900,-0.285
'0:06.861',-0.905,-0.295
'0:06.864',-0.915,-0.290
'0:06.867',-0.910,-0.310
'0:06.869',-0.920,-0.305
'0:06.872',-0.925,-0.305
'0:06.875',-0.920,-0.305
'0:06.878',-0.925,-0.285
'0:06.881',-0.930,-0.285
'0:06.883',-0.905,-0.260
'0:06.886',-0.910,-0.265
'0:06.889',-0.895,-0.265
'0:06.892',-0.900,-0.265
'0:06.894',-0.905,-0.270
'0:06.897',-0.910,-0.285
'0:06.900',-0.915,-0.285
'0:06.903',-0.930,-0.295
'0:06.906',-0.920,-0.285
'0:06.908',-0.940,-0.285
'0:06.911',-0.925,-0.275
'0:06.914',-0.930,-0.270
'0:06.917',-0.930,-0.250
'0:06.919',-0.930,-0.255
'0:06.922',-0.910,-0.240
'0:06.925',-0.920,-0.255
'0:06.928',-0.920,-0.260
'0:06.931',-0.925,-0.270
'0:06.933',-0.950,-0.275
'0:06.936',-0.940,-0.270
'0:06.939',-0.945,-0.270
'0:06.942',-0.950,-0.270
'0:06.944',-0.945,-0.245
'0:06.947',-0.945,-0.255
'0:06.950',-0.950,-0.250
'0:06.953',-0.950,-0.255
'0:06.956',-0.930,-0.250
'0:06.958',-0.935,-0.255
'0:06.961',-0.945,-0.260
'0:06.964',-0.955,-0.280
'0:06.967',-0.965,-0.275
'0:06.969',-0.975,-0.285
'0:06.972',-0.980,-0.280
'0:06.975',-1.005,-0.295
'0:06.978',-1.000,-0.290
'0:06.981',-1.000,-0.285
'0:06.983',-0.975,-0.290
'0:06.986',-0.970,-0.290
'0:06.989',-0.975,-0.295
'0:06.992',-0.975,-0.295
'0:06.994',-0.990,-0.295
'0:06.997',-1.000,-0.310
'0:07.000',-1.015,-0.325
'0:07.003',-1.025,-0.335
'0:07.006',-1.030,-0.350
'0:07.008',-1.045,-0.355
'0:07.011',-1.040,-0.345
'0:07.014',-1.040,-0.345
'0:07.017',-1.030,-0.340
'0:07.019',-1.030,-0.340
'0:07.022',-1.030,-0.345
'0:07.025',-1.030,-0.350
'0:07.028',-1.050,-0.370
'0:07.031',-1.055,-0.395
'0:07.033',-1.070,-0.415
'0:07.036',-1.080,-0.430
'0:07.039',-1.090,-0.445
'0:07.042',-1.095,-0.445
'0:07.044',-1.100,-0.450
'0:07.047',-1.090,-0.445
'0:07.050',-1.095,-0.435
'0:07.053',-1.085,-0.430
'0:07.056',-1.075,-0.445
'0:07.058',-1.085,-0.450
'0:07.061',-1.095,-0.465
'0:07.064',-1.100,-0.465
'0:07.067',-1.090,-0.490
'0:07.069',-1.105,-0.500
'0:07.072',-1.100,-0.510
'0:07.075',-1.100,-0.520
'0:07.078',-1.090,-0.530
'0:07.081',-1.090,-0.520
'0:07.083',-1.065,-0.510
'0:07.086',-1.050,-0.500
'0:07.089',-1.040,-0.495
'0:07.092',-1.025,-0.505
'0:07.094',-1.015,-0.515
'0:07.097',-1.005,-0.520
'0:07.100',-1.000,-0.530
'0:07.103',-0.995,-0.535
'0:07.106',-0.990,-0.535
'0:07.108',-0.975,-0.535
'0:07.111',-0.960,-0.515
'0:07.114',-0.945,-0.510
'0:07.117',-0.920,-0.495
'0:07.119',-0.895,-0.480
'0:07.122',-0.875,-0.480
'0:07.125',-0.860,-0.485
'0:07.128',-0.845,-0.490
'0:07.131',-0.835,-0.495
'0:07.133',-0.830,-0.500
'0:07.136',-0.825,-0.505
'0:07.139',-0.810,-0.505
'0:07.142',-0.805,-0.485
'0:07.144',-0.795,-0.480
'0:07.147',-0.775,-0.470
'0:07.150',-0.780,-0.470
'0:07.153',-0.770,-0.460
'0:07.156',-0.750,-0.455
'0:07.158',-0.745,-0.475
'0:07.161',-0.740,-0.480
'0:07.164',-0.745,-0.480
'0:07.167',-0.750,-0.500
'0:07.169',-0.745,-0.480
'0:07.172',-0.745,-0.495
'0:07.175',-0.750,-0.480
'0:07.178',-0.755,-0.485
'0:07.181',-0.750,-0.465
'0:07.183',-0.750,-0.465
'0:07.186',-0.745,-0.470
'0:07.189',-0.755,-0.460
'0:07.192',-0.770,-0.480
'0:07.194',-0.775,-0.480
'0:07.197',-0.785,-0.490
'0:07.200',-0.800,-0.505
'0:07.203',-0.825,-0.510
'0:07.206',-0.835,-0.505
'0:07.208',-0.850,-0.505
'0:07.211',-0.865,-0.505
'0:07.214',-0.870,-0.485
'0:07.217',-0.875,-0.480
'0:07.219',-0.880,-0.485
'0:07.222',-0.880,-0.485
'0:07.225',-0.895,-0.500
'0:07.228',-0.900,-0.505
'0:07.231',-0.910,-0.520
'0:07.233',-0.915,-0.530
'0:07.236',-0.935,-0.535
'0:07.239',-0.935,-0.540
'0:07.242',-0.955,-0.540
'0:07.244',-0.970,-0.530
'0:07.247',-0.955,-0.530
'0:07.250',-0.950,-0.515
'0:07.253',-0.955,-0.505
'0:07.256',-0.940,-0.525
'0:07.258',-0.945,-0.510
'0:07.261',-0.950,-0.510
'0:07.264',-0.965,-0.530
'0:07.267',-0.980,-0.520
'0:07.269',-0.975,-0.530
'0:07.272',-0.980,-0.515
'0:07.275',-0.980,-0.520
'0:07.278',-0.975,-0.505
'0:07.281',-0.975,-0.505
'0:07.283',-0.950,-0.490
'0:07.286',-0.935,-0.490
'0:07.289',-0.935,-0.480
'0:07.292',-0.940,-0.490
'0:07.294',-0.940,-0.495
'0:07.297',-0.930,-0.505
'0:07.300',-0.940,-0.515
'0:07.303',-0.945,-0.515
'0:07.306',-0.955,-0.505
'0:07.308',-0.945,-0.495
'0:07.311',-0.935,-0.475
'0:07.314',-0.935,-0.485
'0:07.317',-0.920,-0.485
'0:07.319',-0.915,-0.465
'0:07.322',-0.900,-0.460
'0:07.325',-0.895,-0.470
'0:07.328',-0.910,-0.455
'0:07.331',-0.925,-0.460
'0:07.333',-0.925,-0.475
'0:07.336',-0.910,-0.470
'0:07.339',-0.915,-0.470
'0:07.342',-0.905,-0.455
'0:07.344',-0.895,-0.450
'0:07.347',-0.900,-0.435
'0:07.350',-0.890,-0.440
'0:07.353',-0.880,-0.435
'0:07.356',-0.875,-0.435
'0:07.358',-0.875,-0.435
'0:07.361',-0.875,-0.430
'0:07.364',-0.885,-0.440
'0:07.367',-0.880,-0.440
'0:07.369',-0.885,-0.450
'0:07.372',-0.895,-0.445
'0:07.375',-0.890,-0.435
'0:07.378',-0.880,-0.430
'0:07.381',-0.880,-0.435
'0:07.383',-0.865,-0.440
'0:07.386',-0.860,-0.430
'0:07.389',-0.855,-0.430
'0:07.392',-0.865,-0.430
'0:07.394',-0.865,-0.425
'0:07.397',-0.875,-0.430
'0:07.400',-0.870,-0.425
'0:07.403',-0.880,-0.435
'0:07.406',-0.885,-0.445
'0:07.408',-0.880,-0.445
'0:07.411',-0.875,-0.440
'0:07.414',-0.870,-0.430
'0:07.417',-0.855,-0.420
'0:07.419',-0.865,-0.430
'0:07.422',-0.860,-0.420
'0:07.425',-0.855,-0.420
'0:07.428',-0.855,-0.415
'0:07.431',-0.850,-0.425
'0:07.433',-0.865,-0.425
'0:07.436',-0.875,-0.440
'0:07.439',-0.875,-0.455
'0:07.442',-0.880,-0.450
'0:07.444',-0.870,-0.435
'0:07.447',-0.875,-0.435
'0:07.450',-0.870,-0.430
'0:07.453',-0.865,-0.410
'0:07.456',-0.840,-0.400
'0:07.458',-0.840,-0.390
'0:07.461',-0.845,-0.390
'0:07.464',-0.855,-0.405
'0:07.467',-0.865,-0.415
'0:07.469',-0.880,-0.435
'0:07.472',-0.875,-0.440
'0:07.475',-0.885,-0.425
'0:07.478',-0.875,-0.415
'0:07.481',-0.860,-0.400
'0:07.483',-0.860,-0.410
'0:07.486',-0.855,-0.395
'0:07.489',-0.840,-0.385
'0:07.492',-0.835,-0.410
'0:07.494',-0.835,-0.410
'0:07.497',-0.845,-0.410
'0:07.500',-0.860,-0.435
'0:07.503',-0.880,-0.445
'0:07.506',-0.880,-0.440
'0:07.508',-0.880,-0.435
'0:07.511',-0.865,-0.420
'0:07.514',-0.855,-0.405
'0:07.517',-0.845,-0.395
'0:07.519',-0.835,-0.395
'0:07.522',-0.830,-0.390
'0:07.525',-0.820,-0.400
'0:07.528',-0.835,-0.400
'0:07.531',-0.850,-0.415
'0:07.533',-0.845,-0.415
'0:07.536',-0.850,-0.415
'0:07.539',-0.865,-0.410
'0:07.542',-0.865,-0.405
'0:07.544',-0.860,-0.405
'0:07.547',-0.860,-0.395
'0:07.550',-0.855,-0.385
'0:07.553',-0.840,-0.385
'0:07.556',-0.840,-0.380
'0:07.558',-0.845,-0.395
'0:07.561',-0.845,-0.415
'0:07.564',-0.855,-0.415
'0:07.567',-0.865,-0.420
'0:07.569',-0.870,-0.425
'0:07.572',-0.870,-0.415
'0:07.575',-0.885,-0.405
'0:07.578',-0.870,-0.395
'0:07.581',-0.865,-0.390
'0:07.583',-0.845,-0.385
'0:07.586',-0.830,-0.380
'0:07.589',-0.825,-0.380
'0:07.592',-0.825,-0.380
'0:07.594',-0.835,-0.380
'0:07.597',-0.835,-0.385
'0:07.600',-0.850,-0.400
'0:07.603',-0.855,-0.395
'0:07.606',-0.850,-0.410
'0:07.608',-0.850,-0.415
'0:07.611',-0.855,-0.395
'0:07.614',-0.850,-0.395
'0:07.617',-0.835,-0.395
'0:07.619',-0.835,-0.400
'0:07.622',-0.840,-0.400
'0:07.625',-0.835,-0.395
'0:07.628',-0.830,-0.380
'0:07.631',-0.825,-0.385
'0:07.633',-0.835,-0.380
'0:07.636',-0.845,-0.405
'0:07.639',-0.850,-0.405
'0:07.642',-0.865,-0.395
'0:07.644',-0.860,-0.405
'0:07.647',-0.850,-0.400
'0:07.650',-0.835,-0.395
'0:07.653',-0.845,-0.380
'0:07.656',-0.825,-0.370
'0:07.658',-0.825,-0.390
'0:07.661',-0.820,-0.360
'0:07.664',-0.825,-0.380
'0:07.667',-0.840,-0.390
'0:07.669',-0.845,-0.385
'0:07.672',-0.860,-0.390
'0:07.675',-0.855,-0.405
'0:07.678',-0.855,-0.395
'0:07.681',-0.855,-0.385
'0:07.683',-0.845,-0.370
'0:07.686',-0.845,-0.365
'0:07.689',-0.830,-0.360
'0:07.692',-0.825,-0.370
'0:07.694',-0.830,-0.380
'0:07.697',-0.835,-0.385
'0:07.700',-0.835,-0.400
'0:07.703',-0.850,-0.405
'0:07.706',-0.855,-0.400
'0:07.708',-0.860,-0.390
'0:07.711',-0.855,-0.375
'0:07.714',-0.845,-0.365
'0:07.717',-0.830,-0.355
'0:07.719',-0.830,-0.350
'0:07.722',-0.820,-0.355
'0:07.725',-0.830,-0.365
'0:07.728',-0.830,-0.360
'0:07.731',-0.825,-0.370
'0:07.733',-0.830,-0.380
'0:07.736',-0.845,-0.385
'0:07.739',-0.850,-0.390
'0:07.742',-0.860,-0.380
'0:07.744',-0.865,-0.385
'0:07.747',-0.845,-0.355
'0:07.750',-0.845,-0.345
'0:07.753',-0.825,-0.355
'0:07.756',-0.805,-0.360
'0:07.758',-0.815,-0.370
'0:07.761',-0.820,-0.375
'0:07.764',-0.825,-0.380
'0:07.767',-0.830,-0.390
'0:07.769',-0.830,-0.385
'0:07.772',-0.840,-0.400
'0:07.775',-0.840,-0.390
'0:07.778',-0.835,-0.385
'0:07.781',-0.830,-0.390
'0:07.783',-0.825,-0.375
'0:07.786',-0.820,-0.370
'0:07.789',-0.800,-0.370
'0:07.792',-0.795,-0.375
'0:07.794',-0.800,-0.385
'0:07.797',-0.805,-0.390
'0:07.800',-0.820,-0.405
'0:07.803',-0.825,-0.410
'0:07.806',-0.835,-0.405
'0:07.808',-0.840,-0.390
'0:07.811',-0.835,-0.385
'0:07.814',-0.825,-0.380
'0:07.817',-0.810,-0.380
'0:07.819',-0.795,-0.375
'0:07.822',-0.765,-0.360
'0:07.825',-0.760,-0.370
'0:07.828',-0.755,-0.375
'0:07.831',-0.765,-0.385
'0:07.833',-0.770,-0.385
'0:07.836',-0.775,-0.390
'0:07.839',-0.795,-0.390
'0:07.842',-0.810,-0.390
'0:07.844',-0.820,-0.375
'0:07.847',-0.810,-0.380
'0:07.850',-0.800,-0.355
'0:07.853',-0.790,-0.350
'0:07.856',-0.780,-0.335
'0:07.858',-0.795,-0.335
'0:07.861',-0.800,-0.335
'0:07.864',-0.780,-0.330
'0:07.867',-0.775,-0.345
'0:07.869',-0.785,-0.345
'0:07.872',-0.775,-0.355
'0:07.875',-0.775,-0.360
'0:07.878',-0.780,-0.370
'0:07.881',-0.790,-0.355
'0:07.883',-0.795,-0.365
'0:07.886',-0.815,-0.365
'0:07.889',-0.830,-0.365
'0:07.892',-0.845,-0.390
'0:07.894',-0.855,-0.405
'0:07.897',-0.870,-0.430
'0:07.900',-0.870,-0.430
'0:07.903',-0.875,-0.420
'0:07.906',-0.880,-0.440
'0:07.908',-0.890,-0.420
'0:07.911',-0.895,-0.420
'0:07.914',-0.885,-0.415
'0:07.917',-0.875,-0.415
'0:07.919',-0.865,-0.405
'0:07.922',-0.860,-0.425
'0:07.925',-0.875,-0.425
'0:07.928',-0.875,-0.440
'0:07.931',-0.885,-0.470
'0:07.933',-0.900,-0.485
'0:07.936',-0.910,-0.485
'0:07.939',-0.890,-0.440
'0:07.942',-0.850,-0.350
'0:07.944',-0.780,-0.230
'0:07.947',-0.680,-0.110
'0:07.950',-0.580,-0.020
'0:07.953',-0.500,0.035
'0:07.956',-0.445,0.035
'0:07.958',-0.420,-0.030
'0:07.961',-0.435,-0.190
'0:07.964',-0.505,-0.420
'0:07.967',-0.640,-0.700
'0:07.969',-0.795,-0.975
'0:07.972',-0.955,-1.195
'0:07.975',-1.040,-1.310
'0:07.978',-1.040,-1.280
'0:07.981',-0.910,-1.160
'0:07.983',-0.720,-0.980
'0:07.986',-0.470,-0.805
'0:07.989',-0.215,-0.635
'0:07.992',0.000,-0.520
'0:07.994',0.190,-0.435
'0:07.997',0.390,-0.395
'0:08.000',0.565,-0.365
'0:08.003',0.730,-0.355
'0:08.006',0.855,-0.345
'0:08.008',0.965,-0.355
'0:08.011',1.015,-0.375
'0:08.014',1.010,-0.410
'0:08.017',0.970,-0.425
'0:08.019',0.910,-0.420
'0:08.022',0.810,-0.395
'0:08.025',0.655,-0.385
'0:08.028',0.470,-0.380
'0:08.031',0.285,-0.370
'0:08.033',0.085,-0.360
'0:08.036',-0.100,-0.360
'0:08.039',-0.295,-0.370
'0:08.042',-0.515,-0.400
'0:08.044',-0.730,-0.430
'0:08.047',-0.885,-0.455
'0:08.050',-0.990,-0.480
'0:08.053',-1.070,-0.490
'0:08.056',-1.100,-0.470
'0:08.058',-1.105,-0.445
'0:08.061',-1.095,-0.420
'0:08.064',-1.075,-0.390
'0:08.067',-1.050,-0.365
'0:08.069',-1.030,-0.345
'0:08.072',-1.025,-0.335
'0:08.075',-1.015,-0.320
'0:08.078',-1.010,-0.310
'0:08.081',-1.005,-0.280
'0:08.083',-0.990,-0.265
'0:08.086',-0.975,-0.260
'0:08.089',-0.970,-0.270
'0:08.092',-0.960,-0.265
'0:08.094',-0.975,-0.275
'0:08.097',-0.985,-0.285
'0:08.100',-1.005,-0.295
'0:08.103',-1.005,-0.295
'0:08.106',-1.010,-0.300
'0:08.108',-1.000,-0.295
'0:08.111',-1.000,-0.295
'0:08.114',-1.000,-0.280
'0:08.117',-0.990,-0.280
'0:08.119',-0.985,-0.270
'0:08.122',-0.980,-0.260
'0:08.125',-0.985,-0.250
'0:08.128',-0.980,-0.265
'0:08.131',-0.990,-0.275
'0:08.133',-1.000,-0.280
'0:08.136',-1.005,-0.295
'0:08.139',-1.010,-0.295
'0:08.142',-1.010,-0.300
'0:08.144',-1.020,-0.280
'0:08.147',-1.025,-0.270
'0:08.150',-1.000,-0.260
'0:08.153',-1.020,-0.255
'0:08.156',-1.010,-0.245
'0:08.158',-0.990,-0.245
'0:08.161',-1.000,-0.265
'0:08.164',-1.005,-0.280
'0:08.167',-1.025,-0.290
'0:08.169',-1.020,-0.295
'0:08.172',-1.040,-0.285
'0:08.175',-1.060,-0.285
'0:08.178',-1.035,-0.280
'0:08.181',-1.045,-0.270
'0:08.183',-1.045,-0.270
'0:08.186',-1.045,-0.280
'0:08.189',-1.030,-0.280
'0:08.192',-1.035,-0.285
'0:08.194',-1.030,-0.275
'0:08.197',-1.025,-0.290
'0:08.200',-1.045,-0.295
'0:08.203',-1.050,-0.305
'0:08.206',-1.070,-0.315
'0:08.208',-1.070,-0.310
'0:08.211',-1.075,-0.295
'0:08.214',-1.080,-0.290
'0:08.217',-1.070,-0.290
'0:08.219',-1.080,-0.285
'0:08.222',-1.070,-0.275
'0:08.225',-1.080,-0.300
'0:08.228',-1.080,-0.320
'0:08.231',-1.090,-0.335
'0:08.233',-1.100,-0.340
'0:08.236',-1.110,-0.345
'0:08.239',-1.125,-0.355
'0:08.242',-1.130,-0.355
'0:08.244',-1.135,-0.355
'0:08.247',-1.125,-0.340
'0:08.250',-1.140,-0.350
'0:08.253',-1.150,-0.355
'0:08.256',-1.145,-0.385
'0:08.258',-1.140,-0.380
'0:08.261',-1.145,-0.395
'0:08.264',-1.155,-0.410
'0:08.267',-1.165,-0.430
'0:08.269',-1.170,-0.440
'0:08.272',-1.185,-0.455
'0:08.275',-1.190,-0.470
'0:08.278',-1.190,-0.460
'0:08.281',-1.200,-0.465
'0:08.283',-1.195,-0.470
'0:08.286',-1.190,-0.475
'0:08.289',-1.195,-0.485
'0:08.292',-1.200,-0.500
'0:08.294',-1.200,-0.515
'0:08.297',-1.200,-0.540
'0:08.300',-1.210,-0.545
'0:08.303',-1.225,-0.570
'0:08.306',-1.220,-0.565
'0:08.308',-1.225,-0.580
'0:08.311',-1.225,-0.580
'0:08.314',-1.215,-0.580
'0:08.317',-1.205,-0.590
'0:08.319',-1.190,-0.595
'0:08.322',-1.185,-0.600
'0:08.325',-1.170,-0.600
'0:08.328',-1.175,-0.620
'0:08.331',-1.170,-0.640
'0:08.333',-1.165,-0.645
'0:08.336',-1.165,-0.655
'0:08.339',-1.155,-0.650
'0:08.342',-1.140,-0.650
'0:08.344',-1.125,-0.640
'0:08.347',-1.110,-0.650
'0:08.350',-1.095,-0.640
'0:08.353',-1.080,-0.640
'0:08.356',-1.045,-0.630
'0:08.358',-1.030,-0.640
'0:08.361',-1.020,-0.640
'0:08.364',-1.010,-0.655
'0:08.367',-1.000,-0.665
'0:08.369',-0.985,-0.655
'0:08.372',-0.975,-0.660
'0:08.375',-0.960,-0.655
'0:08.378',-0.940,-0.660
'0:08.381',-0.930,-0.630
'0:08.383',-0.905,-0.625
'0:08.386',-0.905,-0.620
'0:08.389',-0.885,-0.605
'0:08.392',-0.880,-0.610
'0:08.394',-0.860,-0.610
'0:08.397',-0.855,-0.605
'0:08.400',-0.855,-0.620
'0:08.403',-0.860,-0.620
'0:08.406',-0.855,-0.610
'0:08.408',-0.850,-0.605
'0:08.411',-0.850,-0.595
'0:08.414',-0.850,-0.580
'0:08.417',-0.840,-0.570
'0:08.419',-0.840,-0.555
'0:08.422',-0.820,-0.555
'0:08.425',-0.840,-0.570
'0:08.428',-0.845,-0.570
'0:08.431',-0.865,-0.580
'0:08.433',-0.880,-0.575
'0:08.436',-0.890,-0.585
'0:08.439',-0.905,-0.600
'0:08.442',-0.915,-0.585
'0:08.444',-0.925,-0.585
'0:08.447',-0.925,-0.565
'0:08.450',-0.930,-0.560
'0:08.453',-0.935,-0.550
'0:08.456',-0.940,-0.545
'0:08.458',-0.950,-0.550
'0:08.461',-0.970,-0.565
'0:08.464',-0.975,-0.565
'0:08.467',-0.990,-0.585
'0:08.469',-1.000,-0.575
'0:08.472',-1.025,-0.580
'0:08.475',-1.020,-0.575
'0:08.478',-1.020,-0.570
'0:08.481',-1.025,-0.555
'0:08.483',-1.020,-0.560
'0:08.486',-1.015,-0.555
'0:08.489',-1.005,-0.550
'0:08.492',-1.015,-0.550
'0:08.494',-1.025,-0.545
'0:08.497',-1.025,-0.570
'0:08.500',-1.035,-0.585
'0:08.503',-1.040,-0.585
'0:08.506',-1.045,-0.570
'0:08.508',-1.045,-0.580
'0:08.511',-1.050,-0.565
'0:08.514',-1.045,-0.555
'0:08.517',-1.025,-0.570
'0:08.519',-1.025,-0.560
'0:08.522',-1.015,-0.555
'0:08.525',-1.020,-0.555
'0:08.528',-1.020,-0.555
'0:08.531',-1.020,-0.575
'0:08.533',-1.010,-0.570
'0:08.536',-1.025,-0.575
'0:08.539',-1.025,-0.570
'0:08.542',-1.025,-0.560
'0:08.544',-1.020,-0.555
'0:08.547',-1.010,-0.545
'0:08.550',-1.005,-0.535
'0:08.553',-0.990,-0.540
'0:08.556',-0.980,-0.530
'0:08.558',-0.980,-0.515
'0:08.561',-0.985,-0.520
'0:08.564',-0.995,-0.540
'0:08.567',-1.005,-0.530
'0:08.569',-0.995,-0.535
'0:08.572',-1.010,-0.545
'0:08.575',-0.990,-0.540
'0:08.578',-0.990,-0.535
'0:08.581',-1.000,-0.525
'0:08.583',-0.985,-0.530
'0:08.586',-0.990,-0.530
'0:08.589',-0.975,-0.515
'0:08.592',-0.970,-0.520
'0:08.594',-0.975,-0.515
'0:08.597',-0.980,-0.520
'0:08.600',-0.980,-0.535
'0:08.603',-0.985,-0.540
'0:08.606',-0.985,-0.550
'0:08.608',-0.990,-0.545
'0:08.611',-0.995,-0.530
'0:08.614',-0.980,-0.535
'0:08.617',-0.975,-0.520
'0:08.619',-0.965,-0.510
'0:08.622',-0.960,-0.505
'0:08.625',-0.960,-0.510
'0:08.628',-0.965,-0.505
'0:08.631',-0.970,-0.525
'0:08.633',-0.980,-0.540
'0:08.636',-0.985,-0.550
'0:08.639',-0.995,-0.550
'0:08.642',-0.995,-0.545
'0:08.644',-1.000,-0.535
'0:08.647',-0.980,-0.525
'0:08.650',-0.970,-0.530
'0:08.653',-0.965,-0.520
'0:08.656',-0.955,-0.510
'0:08.658',-0.950,-0.515
'0:08.661',-0.970,-0.520
'0:08.664',-0.975,-0.530
'0:08.667',-0.970,-0.535
'0:08.669',-1.000,-0.540
'0:08.672',-0.985,-0.555
'0:08.675',-0.985,-0.550
'0:08.678',-0.990,-0.545
'0:08.681',-0.985,-0.530
'0:08.683',-0.970,-0.520
'0:08.686',-0.965,-0.510
'0:08.689',-0.950,-0.515
'0:08.692',-0.960,-0.515
'0:08.694',-0.955,-0.535
'0:08.697',-0.965,-0.530
'0:08.700',-0.970,-0.540
'0:08.703',-0.985,-0.545
'0:08.706',-0.985,-0.540
'0:08.708',-0.980,-0.550
'0:08.711',-0.995,-0.540
'0:08.714',-0.970,-0.530
'0:08.717',-0.960,-0.540
'0:08.719',-0.960,-0.515
'0:08.722',-0.960,-0.520
'0:08.725',-0.965,-0.515
'0:08.728',-0.980,-0.535
'0:08.731',-0.975,-0.535
'0:08.733',-0.975,-0.545
'0:08.736',-0.980,-0.560
'0:08.739',-0.980,-0.555
'0:08.742',-0.980,-0.545
'0:08.744',-0.975,-0.540
'0:08.747',-0.985,-0.535
'0:08.750',-0.980,-0.530
'0:08.753',-0.970,-0.530
'0:08.756',-0.965,-0.530
'0:08.758',-0.955,-0.525
'0:08.761',-0.960,-0.530
'0:08.764',-0.970,-0.545
'0:08.767',-0.975,-0.540
'0:08.769',-0.980,-0.555
'0:08.772',-0.980,-0.560
'0:08.775',-0.980,-0.550
'0:08.778',-0.980,-0.540
'0:08.781',-0.980,-0.545
'0:08.783',-0.970,-0.545
'0:08.786',-0.965,-0.530
'0:08.789',-0.960,-0.535
'0:08.792',-0.960,-0.545
'0:08.794',-0.960,-0.555
'0:08.797',-0.970,-0.545
'0:08.800',-0.975,-0.555
'0:08.803',-0.975,-0.560
'0:08.806',-0.985,-0.560
'0:08.808',-0.995,-0.565
'0:08.811',-0.980,-0.555
'0:08.814',-0.975,-0.555
'0:08.817',-0.985,-0.540
'0:08.819',-0.975,-0.540
'0:08.822',-0.965,-0.540
'0:08.825',-0.960,-0.540
'0:08.828',-0.965,-0.550
'0:08.831',-0.980,-0.555
'0:08.833',-0.975,-0.550
'0:08.836',-0.990,-0.560
'0:08.839',-1.000,-0.565
'0:08.842',-1.000,-0.565
'0:08.844',-0.970,-0.570
'0:08.847',-0.975,-0.560
'0:08.850',-0.975,-0.545
'0:08.853',-0.955,-0.540
'0:08.856',-0.960,-0.525
'0:08.858',-0.955,-0.530
'0:08.861',-0.970,-0.530
'0:08.864',-0.975,-0.545
'0:08.867',-0.985,-0.530
'0:08.869',-0.995,-0.555
'0:08.872',-0.995,-0.560
'0:08.875',-0.995,-0.570
'0:08.878',-1.005,-0.560
'0:08.881',-0.985,-0.545
'0:08.883',-0.980,-0.530
'0:08.886',-0.975,-0.535
'0:08.889',-0.955,-0.520
'0:08.892',-0.950,-0.525
'0:08.894',-0.970,-0.545
'0:08.897',-0.970,-0.550
'0:08.900',-0.970,-0.550
'0:08.903',-0.980,-0.560
'0:08.906',-0.985,-0.565
'0:08.908',-0.980,-0.565
'0:08.911',-0.990,-0.550
'0:08.914',-0.970,-0.535
'0:08.917',-0.965,-0.535
'0:08.919',-0.960,-0.525
'0:08.922',-0.950,-0.525
'0:08.925',-0.955,-0.535
'0:08.928',-0.955,-0.535
'0:08.931',-0.960,-0.545
'0:08.933',-0.970,-0.555
'0:08.936',-0.975,-0.555
'0:08.939',-0.985,-0.555
'0:08.942',-0.985,-0.550
'0:08.944',-0.970,-0.555
'0:08.947',-0.970,-0.540
'0:08.950',-0.970,-0.530
'0:08.953',-0.955,-0.520
'0:08.956',-0.945,-0.530
'0:08.958',-0.940,-0.540
'0:08.961',-0.945,-0.555
'0:08.964',-0.950,-0.555
'0:08.967',-0.950,-0.560
'0:08.969',-0.965,-0.565
'0:08.972',-0.960,-0.565
'0:08.975',-0.965,-0.560
'0:08.978',-0.950,-0.550
'0:08.981',-0.960,-0.555
'0:08.983',-0.960,-0.545
'0:08.986',-0.950,-0.545
'0:08.989',-0.935,-0.530
'0:08.992',-0.925,-0.535
'0:08.994',-0.920,-0.525
'0:08.997',-0.925,-0.535
'0:09.000',-0.920,-0.535
'0:09.003',-0.915,-0.535
'0:09.006',-0.915,-0.540
'0:09.008',-0.910,-0.545
'0:09.011',-0.910,-0.530
'0:09.014',-0.905,-0.540
'0:09.017',-0.905,-0.535
'0:09.019',-0.905,-0.530
'0:09.022',-0.900,-0.525
'0:09.025',-0.900,-0.535
'0:09.028',-0.910,-0.535
'0:09.031',-0.930,-0.540
'0:09.033',-0.940,-0.540
'0:09.036',-0.940,-0.540
'0:09.039',-0.955,-0.530
'0:09.042',-0.960,-0.535
'0:09.044',-0.945,-0.535
'0:09.047',-0.935,-0.510
'0:09.050',-0.915,-0.495
'0:09.053',-0.900,-0.485
'0:09.056',-0.870,-0.485
'0:09.058',-0.865,-0.470
'0:09.061',-0.870,-0.490
'0:09.064',-0.890,-0.490
'0:09.067',-0.890,-0.520
'0:09.069',-0.910,-0.520
'0:09.072',-0.940,-0.550
'0:09.075',-0.965,-0.555
'0:09.078',-0.980,-0.555
'0:09.081',-0.985,-0.550
'0:09.083',-0.990,-0.570
'0:09.086',-1.000,-0.560
'0:09.089',-0.985,-0.555
'0:09.092',-0.985,-0.565
'0:09.094',-0.995,-0.565
'0:09.097',-0.980,-0.570
'0:09.100',-0.995,-0.570
'0:09.103',-0.990,-0.595
'0:09.106',-0.995,-0.595
'0:09.108',-1.010,-0.615
'0:09.111',-1.015,-0.625
'0:09.114',-1.025,-0.630
'0:09.117',-1.025,-0.610
'0:09.119',-1.005,-0.560
'0:09.122',-0.950,-0.455
'0:09.125',-0.880,-0.350
'0:09.128',-0.770,-0.250
'0:09.131',-0.690,-0.190
'0:09.133',-0.635,-0.190
'0:09.136',-0.590,-0.250
'0:09.139',-0.605,-0.410
'0:09.142',-0.655,-0.655
'0:09.144',-0.790,-0.945
'0:09.147',-0.930,-1.185
'0:09.150',-1.015,-1.310
'0:09.153',-1.010,-1.275
'0:09.156',-0.880,-1.125
'0:09.158',-0.665,-0.890
'0:09.161',-0.390,-0.665
'0:09.164',-0.105,-0.465
'0:09.167',0.165,-0.330
'0:09.169',0.435,-0.225
'0:09.172',0.660,-0.190
'0:09.175',0.855,-0.160
'0:09.178',1.035,-0.150
'0:09.181',1.165,-0.160
'0:09.183',1.250,-0.200
'0:09.186',1.260,-0.290
'0:09.189',1.210,-0.385
'0:09.192',1.115,-0.480
'0:09.194',0.955,-0.535
'0:09.197',0.750,-0.585
'0:09.200',0.510,-0.595
'0:09.203',0.260,-0.580
'0:09.206',0.015,-0.550
'0:09.208',-0.220,-0.510
'0:09.211',-0.440,-0.495
'0:09.214',-0.660,-0.515
'0:09.217',-0.850,-0.540
'0:09.219',-1.005,-0.600
'0:09.222',-1.125,-0.640
'0:09.225',-1.205,-0.645
'0:09.228',-1.245,-0.650
'0:09.231',-1.250,-0.610
'0:09.233',-1.255,-0.600
'0:09.236',-1.250,-0.565
'0:09.239',-1.225,-0.530
'0:09.242',-1.205,-0.515
'0:09.244',-1.185,-0.495
'0:09.247',-1.165,-0.470
'0:09.250',-1.145,-0.445
'0:09.253',-1.125,-0.435
'0:09.256',-1.110,-0.415
'0:09.258',-1.100,-0.415
'0:09.261',-1.105,-0.420
'0:09.264',-1.115,-0.420
'0:09.267',-1.130,-0.425
'0:09.269',-1.150,-0.425
'0:09.272',-1.150,-0.425
'0:09.275',-1.155,-0.430
'0:09.278',-1.145,-0.410
'0:09.281',-1.140,-0.405
'0:09.283',-1.135,-0.405
'0:09.286',-1.140,-0.400
'0:09.289',-1.130,-0.380
'0:09.292',-1.120,-0.395
'0:09.294',-1.115,-0.390
'0:09.297',-1.125,-0.395
'0:09.300',-1.140,-0.405
'0:09.303',-1.135,-0.405
'0:09.306',-1.160,-0.405
'0:09.308',-1.165,-0.410
'0:09.311',-1.170,-0.400
'0:09.314',-1.150,-0.400
'0:09.317',-1.150,-0.375
'0:09.319',-1.140,-0.375
'0:09.322',-1.130,-0.365
'0:09.325',-1.135,-0.370
'0:09.328',-1.140,-0.375
'0:09.331',-1.140,-0.390
'0:09.333',-1.155,-0.405
'0:09.336',-1.165,-0.415
'0:09.339',-1.170,-0.420
'0:09.342',-1.175,-0.410
'0:09.344',-1.175,-0.405
'0:09.347',-1.175,-0.390
'0:09.350',-1.170,-0.395
'0:09.353',-1.150,-0.390
'0:09.356',-1.145,-0.375
'0:09.358',-1.150,-0.390
'0:09.361',-1.160,-0.395
'0:09.364',-1.165,-0.415
'0:09.367',-1.180,-0.425
'0:09.369',-1.180,-0.435
'0:09.372',-1.185,-0.445
'0:09.375',-1.200,-0.440
'0:09.378',-1.205,-0.440
'0:09.381',-1.205,-0.430
'0:09.383',-1.195,-0.430
'0:09.386',-1.205,-0.415
'0:09.389',-1.190,-0.415
'0:09.392',-1.190,-0.430
'0:09.394',-1.200,-0.445
'0:09.397',-1.205,-0.460
'0:09.400',-1.215,-0.465
'0:09.403',-1.235,-0.470
'0:09.406',-1.250,-0.485
'0:09.408',-1.245,-0.495
'0:09.411',-1.265,-0.480
'0:09.414',-1.245,-0.480
'0:09.417',-1.255,-0.485
'0:09.419',-1.255,-0.485
'0:09.422',-1.250,-0.475
'0:09.425',-1.250,-0.490
'0:09.428',-1.245,-0.500
'0:09.431',-1.265,-0.525
'0:09.433',-1.275,-0.530
'0:09.436',-1.275,-0.535
'0:09.439',-1.300,-0.555
'0:09.442',-1.300,-0.565
'0:09.444',-1.300,-0.565
'0:09.447',-1.305,-0.560
'0:09.450',-1.305,-0.555
'0:09.453',-1.295,-0.560
'0:09.456',-1.295,-0.575
'0:09.458',-1.305,-0.585
'0:09.461',-1.295,-0.590
'0:09.464',-1.300,-0.610
'0:09.467',-1.310,-0.625
'0:09.469',-1.310,-0.635
'0:09.472',-1.315,-0.640
'0:09.475',-1.315,-0.645
'0:09.478',-1.310,-0.635
'0:09.481',-1.300,-0.640
'0:09.483',-1.295,-0.640
'0:09.486',-1.280,-0.625
'0:09.489',-1.270,-0.625
'0:09.492',-1.250,-0.640
'0:09.494',-1.225,-0.655
'0:09.497',-1.230,-0.655
'0:09.500',-1.205,-0.665
'0:09.503',-1.210,-0.665
'0:09.506',-1.190,-0.665
'0:09.508',-1.170,-0.660
'0:09.511',-1.170,-0.660
'0:09.514',-1.150,-0.645
'0:09.517',-1.120,-0.630
'0:09.519',-1.115,-0.615
'0:09.522',-1.080,-0.605
'0:09.525',-1.070,-0.605
'0:09.528',-1.055,-0.610
'0:09.531',-1.050,-0.615
'0:09.533',-1.035,-0.620
'0:09.536',-1.020,-0.625
'0:09.539',-1.015,-0.620
'0:09.542',-1.005,-0.630
'0:09.544',-1.010,-0.620
'0:09.547',-0.985,-0.615
'0:09.550',-0.975,-0.590
'0:09.553',-0.960,-0.590
'0:09.556',-0.935,-0.590
'0:09.558',-0.930,-0.585
'0:09.561',-0.940,-0.600
'0:09.564',-0.935,-0.605
'0:09.567',-0.935,-0.610
'0:09.569',-0.940,-0.615
'0:09.572',-0.950,-0.625
'0:09.575',-0.950,-0.620
'0:09.578',-0.965,-0.610
'0:09.581',-0.960,-0.605
'0:09.583',-0.970,-0.605
'0:09.586',-0.970,-0.610
'0:09.589',-0.965,-0.610
'0:09.592',-0.975,-0.625
'0:09.594',-0.990,-0.630
'0:09.597',-0.990,-0.645
'0:09.600',-1.015,-0.640
'0:09.603',-1.025,-0.655
'0:09.606',-1.045,-0.650
'0:09.608',-1.060,-0.645
'0:09.611',-1.060,-0.635
'0:09.614',-1.065,-0.625
'0:09.617',-1.075,-0.620
'0:09.619',-1.070,-0.625
'0:09.622',-1.075,-0.630
'0:09.625',-1.075,-0.630
'0:09.628',-1.095,-0.630
'0:09.631',-1.090,-0.645
'0:09.633',-1.095,-0.660
'0:09.636',-1.120,-0.655
'0:09.639',-1.125,-0.655
'0:09.642',-1.125,-0.660
'0:09.644',-1.125,-0.650
'0:09.647',-1.130,-0.640
'0:09.650',-1.125,-0.630
'0:09.653',-1.130,-0.630
'0:09.656',-1.120,-0.620
'0:09.658',-1.115,-0.620
'0:09.661',-1.120,-0.615
'0:09.664',-1.115,-0.615
'0:09.667',-1.125,-0.635
'0:09.669',-1.125,-0.635
'0:09.672',-1.135,-0.645
'0:09.675',-1.140,-0.645
'0:09.678',-1.135,-0.645
'0:09.681',-1.130,-0.615
'0:09.683',-1.120,-0.620
'0:09.686',-1.115,-0.605
'0:09.689',-1.105,-0.605
'0:09.692',-1.105,-0.605
'0:09.694',-1.110,-0.605
'0:09.697',-1.100,-0.610
'0:09.700',-1.100,-0.610
'0:09.703',-1.095,-0.625
'0:09.706',-1.095,-0.630
'0:09.708',-1.090,-0.610
'0:09.711',-1.085,-0.590
'0:09.714',-1.075,-0.580
'0:09.717',-1.065,-0.565
'0:09.719',-1.055,-0.570
'0:09.722',-1.055,-0.570
'0:09.725',-1.060,-0.565
'0:09.728',-1.070,-0.580
'0:09.731',-1.045,-0.585
'0:09.733',-1.060,-0.585
'0:09.736',-1.065,-0.595
'0:09.739',-1.060,-0.590
'0:09.742',-1.060,-0.575
'0:09.744',-1.065,-0.565
'0:09.747',-1.050,-0.540
'0:09.750',-1.040,-0.545
'0:09.753',-1.035,-0.535
'0:09.756',-1.030,-0.530
'0:09.758',-1.025,-0.545
'0:09.761',-1.025,-0.555
'0:09.764',-1.025,-0.570
'0:09.767',-1.030,-0.565
'0:09.769',-1.030,-0.570
'0:09.772',-1.050,-0.565
'0:09.775',-1.050,-0.550
'0:09.778',-1.050,-0.560
'0:09.781',-1.045,-0.545
'0:09.783',-1.030,-0.535
'0:09.786',-1.030,-0.540
'0:09.789',-1.020,-0.525
'0:09.792',-1.020,-0.525
'0:09.794',-1.020,-0.545
'0:09.797',-1.030,-0.545
'0:09.800',-1.040,-0.545
'0:09.803',-1.030,-0.560
'0:09.806',-1.040,-0.550
'0:09.808',-1.045,-0.555
'0:09.811',-1.040,-0.555
'0:09.814',-1.040,-0.545
'0:09.817',-1.030,-0.520
'0:09.819',-1.025,-0.510
'0:09.822',-1.010,-0.500
'0:09.825',-1.000,-0.515
'0:09.828',-1.000,-0.510
'0:09.831',-1.005,-0.515
'0:09.833',-1.015,-0.530
'0:09.836',-1.025,-0.540
'0:09.839',-1.030,-0.545
'0:09.842',-1.035,-0.540
'0:09.844',-1.030,-0.530
'0:09.847',-1.025,-0.520
'0:09.850',-1.015,-0.510
'0:09.853',-1.010,-0.500
'0:09.856',-1.000,-0.490
'0:09.858',-0.990,-0.500
'0:09.861',-0.995,-0.505
'0:09.864',-0.995,-0.500
'0:09.867',-1.005,-0.515
'0:09.869',-1.010,-0.530
'0:09.872',-1.010,-0.525
'0:09.875',-1.015,-0.535
'0:09.878',-1.025,-0.540
'0:09.881',-1.015,-0.530
'0:09.883',-1.005,-0.520
'0:09.886',-1.010,-0.505
'0:09.889',-1.000,-0.500
'0:09.892',-1.005,-0.490
'0:09.894',-1.000,-0.495
'0:09.897',-1.015,-0.510
'0:09.900',-1.035,-0.510
'0:09.903',-1.025,-0.525
'0:09.906',-1.035,-0.545
'0:09.908',-1.030,-0.550
'0:09.911',-1.010,-0.530
'0:09.914',-1.010,-0.530
'0:09.917',-1.020,-0.505
'0:09.919',-1.015,-0.510
'0:09.922',-0.995,-0.505
'0:09.925',-0.980,-0.510
'0:09.928',-0.980,-0.510
'0:09.931',-0.980,-0.530
'0:09.933',-0.995,-0.540
'0:09.936',-1.000,-0.535
'0:09.939',-1.000,-0.545
'0:09.942',-1.005,-0.540
'0:09.944',-1.005,-0.525
'0:09.947',-1.000,-0.520
'0:09.950',-0.985,-0.520
'0:09.953',-0.980,-0.525
'0:09.956',-0.975,-0.505
'0:09.958',-0.975,-0.530
'0:09.961',-0.970,-0.515
'0:09.964',-0.980,-0.530
'0:09.967',-0.990,-0.545
'0:09.969',-1.000,-0.540
'0:09.972',-0.995,-0.545
'0:09.975',-1.000,-0.545
'0:09.978',-1.000,-0.535
'0:09.981',-0.990,-0.525
'0:09.983',-0.985,-0.520
'0:09.986',-0.970,-0.520
'0:09.989',-0.955,-0.510
'0:09.992',-0.970,-0.520
'0:09.994',-0.970,-0.515
'0:09.997',-0.970,-0.525
