'Elapsed time','MLII','V1'
'hh:mm:ss.mmm','mV','mV'
'0:00.000',0.350,0.105
'0:00.003',0.350,0.105
'0:00.006',0.350,0.105
'0:00.008',0.350,0.105
'0:00.011',0.350,0.105
'0:00.014',0.350,0.105
'0:00.017',0.350,0.105
'0:00.019',0.350,0.105
'0:00.022',0.350,0.105
'0:00.025',0.020,0.115
'0:00.028',-0.210,0.090
'0:00.031',-0.330,0.075
'0:00.033',-0.370,0.095
'0:00.036',-0.335,0.115
'0:00.039',-0.285,0.090
'0:00.042',-0.230,0.085
'0:00.044',-0.215,0.090
'0:00.047',-0.200,0.085
'0:00.050',-0.190,0.070
'0:00.053',-0.200,0.075
'0:00.056',-0.200,0.090
'0:00.058',-0.210,0.095
'0:00.061',-0.230,0.070
'0:00.064',-0.250,0.030
'0:00.067',-0.255,0.040
'0:00.069',-0.245,0.070
'0:00.072',-0.240,0.065
'0:00.075',-0.215,0.040
'0:00.078',-0.235,0.040
'0:00.081',-0.230,0.045
'0:00.083',-0.230,0.040
'0:00.086',-0.205,0.015
'0:00.089',-0.180,0.040
'0:00.092',-0.165,0.050
'0:00.094',-0.195,0.060
'0:00.097',-0.210,0.040
'0:00.100',-0.215,0.030
'0:00.103',-0.195,0.060
'0:00.106',-0.170,0.085
'0:00.108',-0.155,0.070
'0:00.111',-0.175,0.045
'0:00.114',-0.195,0.050
'0:00.117',-0.210,0.065
'0:00.119',-0.200,0.090
'0:00.122',-0.200,0.080
'0:00.125',-0.195,0.075
'0:00.128',-0.185,0.075
'0:00.131',-0.185,0.050
'0:00.133',-0.180,0.045
'0:00.136',-0.175,0.065
'0:00.139',-0.175,0.070
'0:00.142',-0.165,0.085
'0:00.144',-0.140,0.075
'0:00.147',-0.120,0.045
'0:00.150',-0.115,0.060
'0:00.153',-0.130,0.075
'0:00.156',-0.155,0.060
'0:00.158',-0.190,0.035
'0:00.161',-0.190,0.040
'0:00.164',-0.185,0.055
'0:00.167',-0.180,0.070
'0:00.169',-0.160,0.060
'0:00.172',-0.140,0.070
'0:00.175',-0.130,0.070
'0:00.178',-0.110,0.070
'0:00.181',-0.120,0.055
'0:00.183',-0.130,0.040
'0:00.186',-0.130,0.050
'0:00.189',-0.125,0.080
'0:00.192',-0.095,0.085
'0:00.194',-0.095,0.060
'0:00.197',-0.090,0.050
'0:00.200',-0.080,0.065
'0:00.203',-0.075,0.080
'0:00.206',-0.070,0.070
'0:00.208',-0.075,0.050
'0:00.211',-0.065,0.065
'0:00.214',-0.055,0.060
'0:00.217',-0.060,0.075
'0:00.219',-0.055,0.055
'0:00.222',-0.040,0.060
'0:00.225',-0.030,0.080
'0:00.228',-0.020,0.065
'0:00.231',-0.015,0.050
'0:00.233',-0.015,0.040
'0:00.236',-0.010,0.065
'0:00.239',0.015,0.095
'0:00.242',0.035,0.075
'0:00.244',0.025,0.050
'0:00.247',0.015,0.065
'0:00.250',0.015,0.070
'0:00.253',0.025,0.060
'0:00.256',0.025,0.055
'0:00.258',0.040,0.050
'0:00.261',0.040,0.070
'0:00.264',0.030,0.065
'0:00.267',0.015,0.065
'0:00.269',0.020,0.070
'0:00.272',0.035,0.085
'0:00.275',0.045,0.090
'0:00.278',0.050,0.060
'0:00.281',0.025,0.035
'0:00.283',0.020,0.055
'0:00.286',0.020,0.085
'0:00.289',0.010,0.095
'0:00.292',0.010,0.080
'0:00.294',0.000,0.080
'0:00.297',-0.005,0.075
'0:00.300',-0.025,0.075
'0:00.303',-0.020,0.070
'0:00.306',-0.030,0.070
'0:00.308',-0.030,0.085
'0:00.311',-0.035,0.075
'0:00.314',-0.045,0.060
'0:00.317',-0.055,0.055
'0:00.319',-0.060,0.085
'0:00.322',-0.065,0.105
'0:00.325',-0.075,0.085
'0:00.328',-0.080,0.060
'0:00.331',-0.075,0.045
'0:00.333',-0.075,0.060
'0:00.336',-0.075,0.085
'0:00.339',-0.070,0.090
'0:00.342',-0.075,0.075
'0:00.344',-0.080,0.085
'0:00.347',-0.090,0.090
'0:00.350',-0.100,0.095
'0:00.353',-0.095,0.080
'0:00.356',-0.095,0.075
'0:00.358',-0.085,0.080
'0:00.361',-0.095,0.095
'0:00.364',-0.100,0.080
'0:00.367',-0.100,0.085
'0:00.369',-0.115,0.085
'0:00.372',-0.115,0.095
'0:00.375',-0.130,0.090
'0:00.378',-0.140,0.060
'0:00.381',-0.150,0.050
'0:00.383',-0.160,0.085
'0:00.386',-0.145,0.100
'0:00.389',-0.155,0.095
'0:00.392',-0.160,0.080
'0:00.394',-0.170,0.090
'0:00.397',-0.185,0.085
'0:00.400',-0.175,0.085
'0:00.403',-0.170,0.080
'0:00.406',-0.165,0.075
'0:00.408',-0.170,0.090
'0:00.411',-0.170,0.105
'0:00.414',-0.165,0.070
'0:00.417',-0.180,0.075
'0:00.419',-0.180,0.080
'0:00.422',-0.200,0.105
'0:00.425',-0.200,0.095
'0:00.428',-0.215,0.075
'0:00.431',-0.205,0.045
'0:00.433',-0.210,0.065
'0:00.436',-0.205,0.100
'0:00.439',-0.210,0.090
'0:00.442',-0.220,0.075
'0:00.444',-0.225,0.080
'0:00.447',-0.225,0.080
'0:00.450',-0.240,0.075
'0:00.453',-0.225,0.060
'0:00.456',-0.210,0.055
'0:00.458',-0.205,0.085
'0:00.461',-0.195,0.095
'0:00.464',-0.190,0.070
'0:00.467',-0.200,0.065
'0:00.469',-0.190,0.090
'0:00.472',-0.190,0.105
'0:00.475',-0.185,0.115
'0:00.478',-0.170,0.075
'0:00.481',-0.170,0.070
'0:00.483',-0.175,0.090
'0:00.486',-0.165,0.110
'0:00.489',-0.165,0.105
'0:00.492',-0.185,0.090
'0:00.494',-0.185,0.085
'0:00.497',-0.205,0.090
'0:00.500',-0.205,0.085
'0:00.503',-0.210,0.080
'0:00.506',-0.195,0.060
'0:00.508',-0.195,0.090
'0:00.511',-0.190,0.090
'0:00.514',-0.195,0.060
'0:00.517',-0.195,0.065
'0:00.519',-0.195,0.065
'0:00.522',-0.185,0.090
'0:00.525',-0.175,0.085
'0:00.528',-0.175,0.045
'0:00.531',-0.200,0.025
'0:00.533',-0.225,0.040
'0:00.536',-0.250,0.070
'0:00.539',-0.240,0.055
'0:00.542',-0.240,0.030
'0:00.544',-0.240,0.020
'0:00.547',-0.250,0.020
'0:00.550',-0.260,0.030
'0:00.553',-0.270,0.015
'0:00.556',-0.280,-0.015
'0:00.558',-0.305,0.000
'0:00.561',-0.335,0.015
'0:00.564',-0.350,0.000
'0:00.567',-0.340,-0.025
'0:00.569',-0.285,-0.030
'0:00.572',-0.205,-0.020
'0:00.575',-0.135,-0.020
'0:00.578',-0.095,-0.055
'0:00.581',-0.045,-0.080
'0:00.583',0.010,-0.070
'0:00.586',0.075,-0.040
'0:00.589',0.140,-0.055
'0:00.592',0.175,-0.065
'0:00.594',0.135,-0.095
'0:00.597',0.045,-0.080
'0:00.600',-0.155,-0.065
'0:00.603',-0.425,-0.070
'0:00.606',-0.710,-0.085
'0:00.608',-0.915,-0.065
'0:00.611',-1.090,-0.050
'0:00.614',-1.255,-0.060
'0:00.617',-1.395,-0.080
'0:00.619',-1.465,-0.080
'0:00.622',-1.505,-0.030
'0:00.625',-1.490,-0.020
'0:00.628',-1.450,-0.025
'0:00.631',-1.390,-0.050
'0:00.633',-1.340,-0.005
'0:00.636',-1.270,0.030
'0:00.639',-1.155,0.045
'0:00.642',-1.025,0.045
'0:00.644',-0.950,0.025
'0:00.647',-0.930,0.030
'0:00.650',-0.930,0.050
'0:00.653',-0.910,0.040
'0:00.656',-0.885,0.030
'0:00.658',-0.865,0.015
'0:00.661',-0.840,0.040
'0:00.664',-0.800,0.040
'0:00.667',-0.755,0.025
'0:00.669',-0.715,0.020
'0:00.672',-0.660,0.035
'0:00.675',-0.630,0.055
'0:00.678',-0.580,0.040
'0:00.681',-0.540,0.010
'0:00.683',-0.510,0.015
'0:00.686',-0.465,0.040
'0:00.689',-0.435,0.070
'0:00.692',-0.395,0.070
'0:00.694',-0.365,0.045
'0:00.697',-0.315,0.055
'0:00.700',-0.265,0.080
'0:00.703',-0.200,0.090
'0:00.706',-0.155,0.090
'0:00.708',-0.090,0.080
'0:00.711',-0.040,0.090
'0:00.714',-0.015,0.100
'0:00.717',-0.010,0.105
'0:00.719',0.005,0.100
'0:00.722',0.030,0.100
'0:00.725',0.055,0.130
'0:00.728',0.080,0.130
'0:00.731',0.085,0.095
'0:00.733',0.090,0.090
'0:00.736',0.110,0.090
'0:00.739',0.110,0.135
'0:00.742',0.130,0.140
'0:00.744',0.150,0.115
'0:00.747',0.155,0.100
'0:00.750',0.150,0.115
'0:00.753',0.180,0.150
'0:00.756',0.185,0.135
'0:00.758',0.205,0.115
'0:00.761',0.220,0.110
'0:00.764',0.235,0.125
'0:00.767',0.235,0.150
'0:00.769',0.255,0.135
'0:00.772',0.270,0.125
'0:00.775',0.290,0.150
'0:00.778',0.290,0.140
'0:00.781',0.300,0.125
'0:00.783',0.300,0.105
'0:00.786',0.305,0.115
'0:00.789',0.325,0.155
'0:00.792',0.315,0.165
'0:00.794',0.310,0.130
'0:00.797',0.315,0.120
'0:00.800',0.315,0.145
'0:00.803',0.345,0.160
'0:00.806',0.360,0.155
'0:00.808',0.370,0.125
'0:00.811',0.375,0.125
'0:00.814',0.375,0.130
'0:00.817',0.365,0.155
'0:00.819',0.375,0.140
'0:00.822',0.385,0.130
'0:00.825',0.410,0.145
'0:00.828',0.405,0.140
'0:00.831',0.400,0.125
'0:00.833',0.400,0.100
'0:00.836',0.405,0.130
'0:00.839',0.400,0.160
'0:00.842',0.410,0.150
'0:00.844',0.395,0.130
'0:00.847',0.400,0.105
'0:00.850',0.385,0.140
'0:00.853',0.390,0.150
'0:00.856',0.395,0.140
'0:00.858',0.385,0.120
'0:00.861',0.380,0.135
'0:00.864',0.355,0.125
'0:00.867',0.355,0.130
'0:00.869',0.355,0.110
'0:00.872',0.350,0.125
'0:00.875',0.325,0.140
'0:00.878',0.300,0.120
'0:00.881',0.280,0.090
'0:00.883',0.250,0.100
'0:00.886',0.250,0.110
'0:00.889',0.250,0.135
'0:00.892',0.250,0.130
'0:00.894',0.235,0.100
'0:00.897',0.210,0.095
'0:00.900',0.175,0.115
'0:00.903',0.165,0.130
'0:00.906',0.160,0.115
'0:00.908',0.145,0.095
'0:00.911',0.140,0.105
'0:00.914',0.145,0.120
'0:00.917',0.130,0.110
'0:00.919',0.100,0.100
'0:00.922',0.080,0.110
'0:00.925',0.040,0.125
'0:00.928',0.015,0.120
'0:00.931',-0.010,0.085
'0:00.933',-0.025,0.080
'0:00.936',-0.025,0.105
'0:00.939',-0.030,0.125
'0:00.942',-0.040,0.100
'0:00.944',-0.045,0.085
'0:00.947',-0.070,0.100
'0:00.950',-0.105,0.105
'0:00.953',-0.080,0.100
'0:00.956',-0.075,0.090
'0:00.958',-0.085,0.090
'0:00.961',-0.090,0.115
'0:00.964',-0.110,0.100
'0:00.967',-0.130,0.085
'0:00.969',-0.120,0.105
'0:00.972',-0.115,0.120
'0:00.975',-0.125,0.115
'0:00.978',-0.150,0.090
'0:00.981',-0.170,0.075
'0:00.983',-0.160,0.095
'0:00.986',-0.160,0.105
'0:00.989',-0.150,0.100
'0:00.992',-0.155,0.090
'0:00.994',-0.160,0.095
'0:00.997',-0.170,0.090
'0:01.000',-0.185,0.080
'0:01.003',-0.180,0.070
'0:01.006',-0.180,0.100
'0:01.008',-0.190,0.100
'0:01.011',-0.180,0.110
'0:01.014',-0.170,0.060
'0:01.017',-0.160,0.075
'0:01.019',-0.140,0.105
'0:01.022',-0.140,0.115
'0:01.025',-0.145,0.080
'0:01.028',-0.170,0.070
'0:01.031',-0.180,0.075
'0:01.033',-0.175,0.100
'0:01.036',-0.160,0.095
'0:01.039',-0.155,0.090
'0:01.042',-0.155,0.100
'0:01.044',-0.165,0.120
'0:01.047',-0.150,0.095
'0:01.050',-0.155,0.065
'0:01.053',-0.150,0.090
'0:01.056',-0.145,0.115
'0:01.058',-0.145,0.105
'0:01.061',-0.165,0.090
'0:01.064',-0.195,0.075
'0:01.067',-0.205,0.100
'0:01.069',-0.190,0.105
'0:01.072',-0.180,0.090
'0:01.075',-0.165,0.075
'0:01.078',-0.170,0.100
'0:01.081',-0.160,0.090
'0:01.083',-0.170,0.080
'0:01.086',-0.165,0.085
'0:01.089',-0.170,0.100
'0:01.092',-0.170,0.110
'0:01.094',-0.170,0.075
'0:01.097',-0.170,0.035
'0:01.100',-0.185,0.070
'0:01.103',-0.190,0.095
'0:01.106',-0.180,0.095
'0:01.108',-0.180,0.070
'0:01.111',-0.180,0.090
'0:01.114',-0.175,0.080
'0:01.117',-0.200,0.070
'0:01.119',-0.210,0.055
'0:01.122',-0.200,0.075
'0:01.125',-0.200,0.105
'0:01.128',-0.210,0.080
'0:01.131',-0.215,0.055
'0:01.133',-0.210,0.060
'0:01.136',-0.200,0.090
'0:01.139',-0.175,0.075
'0:01.142',-0.160,0.060
'0:01.144',-0.145,0.050
'0:01.147',-0.145,0.070
'0:01.150',-0.135,0.085
'0:01.153',-0.140,0.075
'0:01.156',-0.135,0.060
'0:01.158',-0.130,0.080
'0:01.161',-0.120,0.095
'0:01.164',-0.115,0.070
'0:01.167',-0.110,0.060
'0:01.169',-0.105,0.075
'0:01.172',-0.100,0.105
'0:01.175',-0.095,0.105
'0:01.178',-0.110,0.065
'0:01.181',-0.140,0.070
'0:01.183',-0.175,0.095
'0:01.186',-0.180,0.105
'0:01.189',-0.180,0.090
'0:01.192',-0.180,0.075
'0:01.194',-0.165,0.095
'0:01.197',-0.175,0.090
'0:01.200',-0.175,0.070
'0:01.203',-0.175,0.070
'0:01.206',-0.165,0.090
'0:01.208',-0.165,0.110
'0:01.211',-0.165,0.080
'0:01.214',-0.175,0.030
'0:01.217',-0.165,0.060
'0:01.219',-0.160,0.085
'0:01.222',-0.155,0.090
'0:01.225',-0.150,0.070
'0:01.228',-0.155,0.075
'0:01.231',-0.160,0.080
'0:01.233',-0.160,0.080
'0:01.236',-0.155,0.060
'0:01.239',-0.145,0.075
'0:01.242',-0.150,0.095
'0:01.244',-0.150,0.090
'0:01.247',-0.185,0.075
'0:01.250',-0.200,0.060
'0:01.253',-0.200,0.090
'0:01.256',-0.195,0.105
'0:01.258',-0.190,0.085
'0:01.261',-0.190,0.065
'0:01.264',-0.195,0.075
'0:01.267',-0.200,0.100
'0:01.269',-0.195,0.095
'0:01.272',-0.185,0.080
'0:01.275',-0.175,0.080
'0:01.278',-0.175,0.095
'0:01.281',-0.155,0.090
'0:01.283',-0.170,0.060
'0:01.286',-0.170,0.070
'0:01.289',-0.165,0.090
'0:01.292',-0.150,0.105
'0:01.294',-0.160,0.075
'0:01.297',-0.165,0.050
'0:01.300',-0.175,0.075
'0:01.303',-0.170,0.105
'0:01.306',-0.170,0.105
'0:01.308',-0.185,0.085
'0:01.311',-0.215,0.070
'0:01.314',-0.225,0.085
'0:01.317',-0.190,0.090
'0:01.319',-0.125,0.075
'0:01.322',-0.040,0.080
'0:01.325',0.050,0.100
'0:01.328',0.125,0.105
'0:01.331',0.215,0.065
'0:01.333',0.320,0.055
'0:01.336',0.415,0.100
'0:01.339',0.500,0.110
'0:01.342',0.605,0.105
'0:01.344',0.725,0.090
'0:01.347',0.845,0.095
'0:01.350',0.940,0.110
'0:01.353',1.060,0.125
'0:01.356',1.110,0.120
'0:01.358',1.100,0.100
'0:01.361',1.005,0.115
'0:01.364',0.860,0.120
'0:01.367',0.615,0.115
'0:01.369',0.240,0.120
'0:01.372',-0.110,0.150
'0:01.375',-0.335,0.175
'0:01.378',-0.460,0.155
'0:01.381',-0.515,0.135
'0:01.383',-0.540,0.135
'0:01.386',-0.510,0.160
'0:01.389',-0.440,0.170
'0:01.392',-0.385,0.140
'0:01.394',-0.360,0.130
'0:01.397',-0.350,0.125
'0:01.400',-0.335,0.145
'0:01.403',-0.320,0.140
'0:01.406',-0.295,0.130
'0:01.408',-0.300,0.115
'0:01.411',-0.300,0.135
'0:01.414',-0.325,0.120
'0:01.417',-0.335,0.100
'0:01.419',-0.335,0.090
'0:01.422',-0.335,0.115
'0:01.425',-0.325,0.130
'0:01.428',-0.310,0.115
'0:01.431',-0.300,0.080
'0:01.433',-0.280,0.085
'0:01.436',-0.260,0.110
'0:01.439',-0.240,0.120
'0:01.442',-0.245,0.095
'0:01.444',-0.260,0.080
'0:01.447',-0.270,0.085
'0:01.450',-0.280,0.100
'0:01.453',-0.280,0.110
'0:01.456',-0.275,0.085
'0:01.458',-0.270,0.090
'0:01.461',-0.275,0.085
'0:01.464',-0.280,0.095
'0:01.467',-0.255,0.090
'0:01.469',-0.250,0.080
'0:01.472',-0.240,0.075
'0:01.475',-0.235,0.105
'0:01.478',-0.235,0.090
'0:01.481',-0.235,0.070
'0:01.483',-0.240,0.055
'0:01.486',-0.235,0.075
'0:01.489',-0.235,0.105
'0:01.492',-0.230,0.095
'0:01.494',-0.240,0.070
'0:01.497',-0.225,0.055
'0:01.500',-0.230,0.085
'0:01.503',-0.225,0.105
'0:01.506',-0.210,0.110
'0:01.508',-0.195,0.085
'0:01.511',-0.215,0.085
'0:01.514',-0.220,0.095
'0:01.517',-0.240,0.090
'0:01.519',-0.230,0.080
'0:01.522',-0.230,0.080
'0:01.525',-0.215,0.095
'0:01.528',-0.210,0.100
'0:01.531',-0.210,0.080
'0:01.533',-0.220,0.065
'0:01.536',-0.205,0.075
'0:01.539',-0.180,0.090
'0:01.542',-0.185,0.100
'0:01.544',-0.190,0.085
'0:01.547',-0.190,0.050
'0:01.550',-0.195,0.065
'0:01.553',-0.160,0.090
'0:01.556',-0.140,0.120
'0:01.558',-0.130,0.090
'0:01.561',-0.125,0.070
'0:01.564',-0.130,0.070
'0:01.567',-0.140,0.095
'0:01.569',-0.130,0.095
'0:01.572',-0.120,0.090
'0:01.575',-0.125,0.080
'0:01.578',-0.125,0.080
'0:01.581',-0.145,0.095
'0:01.583',-0.125,0.100
'0:01.586',-0.120,0.085
'0:01.589',-0.125,0.085
'0:01.592',-0.115,0.095
'0:01.594',-0.120,0.100
'0:01.597',-0.140,0.090
'0:01.600',-0.150,0.060
'0:01.603',-0.145,0.065
'0:01.606',-0.135,0.095
'0:01.608',-0.110,0.105
'0:01.611',-0.105,0.085
'0:01.614',-0.100,0.055
'0:01.617',-0.085,0.060
'0:01.619',-0.095,0.085
'0:01.622',-0.080,0.095
'0:01.625',-0.065,0.090
'0:01.628',-0.070,0.060
'0:01.631',-0.070,0.065
'0:01.633',-0.075,0.105
'0:01.636',-0.070,0.095
'0:01.639',-0.060,0.085
'0:01.642',-0.055,0.080
'0:01.644',-0.050,0.090
'0:01.647',-0.075,0.100
'0:01.650',-0.065,0.100
'0:01.653',-0.065,0.080
'0:01.656',-0.070,0.100
'0:01.658',-0.080,0.110
'0:01.661',-0.080,0.110
'0:01.664',-0.080,0.070
'0:01.667',-0.080,0.065
'0:01.669',-0.080,0.100
'0:01.672',-0.080,0.110
'0:01.675',-0.075,0.105
'0:01.678',-0.090,0.085
'0:01.681',-0.090,0.070
'0:01.683',-0.085,0.100
'0:01.686',-0.090,0.120
'0:01.689',-0.075,0.110
'0:01.692',-0.075,0.070
'0:01.694',-0.070,0.080
'0:01.697',-0.075,0.100
'0:01.700',-0.090,0.105
'0:01.703',-0.075,0.085
'0:01.706',-0.065,0.090
'0:01.708',-0.070,0.090
'0:01.711',-0.070,0.100
'0:01.714',-0.085,0.100
'0:01.717',-0.090,0.095
'0:01.719',-0.090,0.065
'0:01.722',-0.080,0.090
'0:01.725',-0.100,0.100
'0:01.728',-0.105,0.105
'0:01.731',-0.115,0.075
'0:01.733',-0.120,0.060
'0:01.736',-0.115,0.085
'0:01.739',-0.100,0.120
'0:01.742',-0.105,0.115
'0:01.744',-0.120,0.075
'0:01.747',-0.140,0.065
'0:01.750',-0.140,0.100
'0:01.753',-0.115,0.115
'0:01.756',-0.070,0.105
'0:01.758',-0.075,0.090
'0:01.761',-0.090,0.100
'0:01.764',-0.105,0.100
'0:01.767',-0.115,0.110
'0:01.769',-0.110,0.105
'0:01.772',-0.110,0.110
'0:01.775',-0.130,0.115
'0:01.778',-0.135,0.115
'0:01.781',-0.150,0.090
'0:01.783',-0.130,0.080
'0:01.786',-0.125,0.090
'0:01.789',-0.125,0.120
'0:01.792',-0.140,0.110
'0:01.794',-0.155,0.085
'0:01.797',-0.155,0.075
'0:01.800',-0.155,0.095
'0:01.803',-0.155,0.095
'0:01.806',-0.145,0.100
'0:01.808',-0.130,0.090
'0:01.811',-0.130,0.080
'0:01.814',-0.130,0.090
'0:01.817',-0.120,0.105
'0:01.819',-0.110,0.090
'0:01.822',-0.090,0.085
'0:01.825',-0.070,0.100
'0:01.828',-0.060,0.105
'0:01.831',-0.080,0.085
'0:01.833',-0.075,0.075
'0:01.836',-0.050,0.085
'0:01.839',-0.015,0.120
'0:01.842',0.005,0.115
'0:01.844',0.020,0.100
'0:01.847',0.020,0.080
'0:01.850',0.040,0.090
'0:01.853',0.060,0.095
'0:01.856',0.080,0.100
'0:01.858',0.105,0.085
'0:01.861',0.110,0.070
'0:01.864',0.095,0.065
'0:01.867',0.120,0.065
'0:01.869',0.200,0.065
'0:01.872',0.265,0.045
'0:01.875',0.265,0.040
'0:01.878',0.220,0.045
'0:01.881',0.200,0.015
'0:01.883',0.190,0.005
'0:01.886',0.150,0.010
'0:01.889',0.035,0.040
'0:01.892',-0.225,0.030
'0:01.894',-0.625,0.020
'0:01.897',-1.090,-0.005
'0:01.900',-1.475,0.010
'0:01.903',-1.745,0.025
'0:01.906',-1.895,0.025
'0:01.908',-1.955,0.015
'0:01.911',-1.995,0.010
'0:01.914',-2.010,0.020
'0:01.917',-2.000,0.025
'0:01.919',-1.965,0.030
'0:01.922',-1.905,0.040
'0:01.925',-1.845,0.050
'0:01.928',-1.750,0.065
'0:01.931',-1.605,0.050
'0:01.933',-1.475,0.050
'0:01.936',-1.350,0.075
'0:01.939',-1.275,0.120
'0:01.942',-1.235,0.105
'0:01.944',-1.180,0.090
'0:01.947',-1.105,0.085
'0:01.950',-1.035,0.105
'0:01.953',-0.940,0.110
'0:01.956',-0.830,0.095
'0:01.958',-0.770,0.105
'0:01.961',-0.715,0.105
'0:01.964',-0.665,0.110
'0:01.967',-0.605,0.100
'0:01.969',-0.520,0.100
'0:01.972',-0.465,0.110
'0:01.975',-0.420,0.115
'0:01.978',-0.400,0.100
'0:01.981',-0.390,0.090
'0:01.983',-0.375,0.090
'0:01.986',-0.340,0.115
'0:01.989',-0.305,0.130
'0:01.992',-0.270,0.115
'0:01.994',-0.190,0.115
'0:01.997',-0.125,0.120
'0:02.000',-0.060,0.120
'0:02.003',-0.005,0.125
'0:02.006',0.050,0.125
'0:02.008',0.110,0.145
'0:02.011',0.150,0.155
'0:02.014',0.185,0.145
'0:02.017',0.210,0.135
'0:02.019',0.230,0.155
'0:02.022',0.260,0.170
'0:02.025',0.285,0.165
'0:02.028',0.325,0.145
'0:02.031',0.330,0.140
'0:02.033',0.325,0.150
'0:02.036',0.350,0.175
'0:02.039',0.390,0.175
'0:02.042',0.430,0.170
'0:02.044',0.470,0.170
'0:02.047',0.465,0.170
'0:02.050',0.485,0.145
'0:02.053',0.505,0.150
'0:02.056',0.520,0.165
'0:02.058',0.540,0.175
'0:02.061',0.560,0.150
'0:02.064',0.585,0.140
'0:02.067',0.600,0.160
'0:02.069',0.620,0.160
'0:02.072',0.645,0.160
'0:02.075',0.655,0.150
'0:02.078',0.675,0.165
'0:02.081',0.680,0.170
'0:02.083',0.695,0.160
'0:02.086',0.715,0.175
'0:02.089',0.755,0.190
'0:02.092',0.785,0.195
'0:02.094',0.805,0.175
'0:02.097',0.795,0.155
'0:02.100',0.805,0.170
'0:02.103',0.820,0.195
'0:02.106',0.840,0.195
'0:02.108',0.865,0.180
'0:02.111',0.855,0.170
'0:02.114',0.850,0.170
'0:02.117',0.835,0.170
'0:02.119',0.830,0.165
'0:02.122',0.835,0.190
'0:02.125',0.825,0.190
'0:02.128',0.800,0.180
'0:02.131',0.790,0.160
'0:02.133',0.770,0.170
'0:02.136',0.780,0.185
'0:02.139',0.770,0.185
'0:02.142',0.755,0.160
'0:02.144',0.715,0.165
'0:02.147',0.680,0.165
'0:02.150',0.665,0.180
'0:02.153',0.640,0.185
'0:02.156',0.615,0.190
'0:02.158',0.605,0.190
'0:02.161',0.585,0.180
'0:02.164',0.560,0.155
'0:02.167',0.530,0.165
'0:02.169',0.495,0.195
'0:02.172',0.460,0.200
'0:02.175',0.435,0.190
'0:02.178',0.400,0.180
'0:02.181',0.360,0.165
'0:02.183',0.325,0.175
'0:02.186',0.290,0.170
'0:02.189',0.275,0.170
'0:02.192',0.245,0.185
'0:02.194',0.205,0.180
'0:02.197',0.185,0.160
'0:02.200',0.185,0.170
'0:02.203',0.175,0.180
'0:02.206',0.165,0.185
'0:02.208',0.155,0.175
'0:02.211',0.140,0.165
'0:02.214',0.130,0.160
'0:02.217',0.110,0.175
'0:02.219',0.095,0.160
'0:02.222',0.075,0.175
'0:02.225',0.055,0.185
'0:02.228',0.035,0.155
'0:02.231',0.015,0.125
'0:02.233',-0.005,0.135
'0:02.236',0.010,0.165
'0:02.239',0.015,0.175
'0:02.242',0.000,0.155
'0:02.244',-0.020,0.155
'0:02.247',-0.040,0.155
'0:02.250',-0.055,0.145
'0:02.253',-0.035,0.125
'0:02.256',-0.005,0.140
'0:02.258',0.005,0.165
'0:02.261',-0.005,0.150
'0:02.264',-0.025,0.130
'0:02.267',-0.020,0.145
'0:02.269',-0.010,0.150
'0:02.272',-0.015,0.150
'0:02.275',-0.020,0.135
'0:02.278',-0.030,0.130
'0:02.281',-0.045,0.145
'0:02.283',-0.060,0.140
'0:02.286',-0.065,0.125
'0:02.289',-0.060,0.140
'0:02.292',-0.050,0.150
'0:02.294',-0.060,0.125
'0:02.297',-0.085,0.100
'0:02.300',-0.090,0.125
'0:02.303',-0.110,0.145
'0:02.306',-0.105,0.145
'0:02.308',-0.095,0.140
'0:02.311',-0.085,0.140
'0:02.314',-0.075,0.130
'0:02.317',-0.080,0.120
'0:02.319',-0.095,0.120
'0:02.322',-0.095,0.150
'0:02.325',-0.090,0.160
'0:02.328',-0.095,0.135
'0:02.331',-0.115,0.120
'0:02.333',-0.115,0.150
'0:02.336',-0.120,0.140
'0:02.339',-0.110,0.130
'0:02.342',-0.095,0.125
'0:02.344',-0.105,0.145
'0:02.347',-0.110,0.135
'0:02.350',-0.125,0.130
'0:02.353',-0.115,0.130
'0:02.356',-0.090,0.160
'0:02.358',-0.095,0.155
'0:02.361',-0.110,0.135
'0:02.364',-0.125,0.115
'0:02.367',-0.135,0.150
'0:02.369',-0.130,0.150
'0:02.372',-0.125,0.145
'0:02.375',-0.125,0.135
'0:02.378',-0.135,0.155
'0:02.381',-0.145,0.130
'0:02.383',-0.155,0.115
'0:02.386',-0.145,0.120
'0:02.389',-0.130,0.150
'0:02.392',-0.135,0.160
'0:02.394',-0.140,0.135
'0:02.397',-0.155,0.125
'0:02.400',-0.155,0.140
'0:02.403',-0.135,0.140
'0:02.406',-0.125,0.140
'0:02.408',-0.130,0.130
'0:02.411',-0.135,0.145
'0:02.414',-0.145,0.140
'0:02.417',-0.165,0.135
'0:02.419',-0.190,0.140
'0:02.422',-0.175,0.160
'0:02.425',-0.150,0.155
'0:02.428',-0.135,0.135
'0:02.431',-0.125,0.115
'0:02.433',-0.145,0.145
'0:02.436',-0.110,0.160
'0:02.439',-0.090,0.160
'0:02.442',-0.070,0.145
'0:02.444',-0.075,0.155
'0:02.447',-0.090,0.145
'0:02.450',-0.135,0.135
'0:02.453',-0.150,0.130
'0:02.456',-0.155,0.150
'0:02.458',-0.155,0.170
'0:02.461',-0.120,0.175
'0:02.464',-0.100,0.140
'0:02.467',-0.080,0.140
'0:02.469',-0.065,0.165
'0:02.472',-0.075,0.170
'0:02.475',-0.095,0.155
'0:02.478',-0.100,0.145
'0:02.481',-0.095,0.160
'0:02.483',-0.085,0.175
'0:02.486',-0.080,0.180
'0:02.489',-0.080,0.180
'0:02.492',-0.080,0.190
'0:02.494',-0.095,0.180
'0:02.497',-0.120,0.170
'0:02.500',-0.125,0.145
'0:02.503',-0.125,0.165
'0:02.506',-0.125,0.190
'0:02.508',-0.130,0.185
'0:02.511',-0.135,0.155
'0:02.514',-0.130,0.155
'0:02.517',-0.130,0.165
'0:02.519',-0.120,0.190
'0:02.522',-0.115,0.185
'0:02.525',-0.105,0.155
'0:02.528',-0.120,0.150
'0:02.531',-0.145,0.145
'0:02.533',-0.135,0.170
'0:02.536',-0.110,0.175
'0:02.539',-0.110,0.180
'0:02.542',-0.110,0.190
'0:02.544',-0.125,0.185
'0:02.547',-0.105,0.185
'0:02.550',-0.100,0.160
'0:02.553',-0.080,0.175
'0:02.556',-0.050,0.200
'0:02.558',-0.030,0.205
'0:02.561',-0.070,0.185
'0:02.564',-0.120,0.165
'0:02.567',-0.185,0.185
'0:02.569',-0.215,0.185
'0:02.572',-0.220,0.180
'0:02.575',-0.185,0.150
'0:02.578',-0.160,0.155
'0:02.581',-0.160,0.165
'0:02.583',-0.145,0.170
'0:02.586',-0.150,0.160
'0:02.589',-0.130,0.170
'0:02.592',-0.140,0.180
'0:02.594',-0.150,0.170
'0:02.597',-0.170,0.150
'0:02.600',-0.190,0.145
'0:02.603',-0.185,0.165
'0:02.606',-0.170,0.185
'0:02.608',-0.175,0.180
'0:02.611',-0.165,0.155
'0:02.614',-0.160,0.160
'0:02.617',-0.180,0.175
'0:02.619',-0.175,0.180
'0:02.622',-0.185,0.170
'0:02.625',-0.185,0.160
'0:02.628',-0.190,0.165
'0:02.631',-0.205,0.160
'0:02.633',-0.210,0.150
'0:02.636',-0.215,0.150
'0:02.639',-0.215,0.165
'0:02.642',-0.180,0.170
'0:02.644',-0.125,0.160
'0:02.647',-0.075,0.140
'0:02.650',0.000,0.130
'0:02.653',0.085,0.150
'0:02.656',0.190,0.175
'0:02.658',0.290,0.170
'0:02.661',0.360,0.145
'0:02.664',0.440,0.140
'0:02.667',0.535,0.160
'0:02.669',0.680,0.165
'0:02.672',0.800,0.160
'0:02.675',0.905,0.145
'0:02.678',0.995,0.165
'0:02.681',1.025,0.170
'0:02.683',1.005,0.165
'0:02.686',0.920,0.155
'0:02.689',0.790,0.175
'0:02.692',0.570,0.205
'0:02.694',0.225,0.195
'0:02.697',-0.120,0.185
'0:02.700',-0.335,0.180
'0:02.703',-0.430,0.190
'0:02.706',-0.505,0.215
'0:02.708',-0.520,0.205
'0:02.711',-0.495,0.190
'0:02.714',-0.440,0.190
'0:02.717',-0.400,0.190
'0:02.719',-0.365,0.175
'0:02.722',-0.370,0.160
'0:02.725',-0.385,0.155
'0:02.728',-0.360,0.180
'0:02.731',-0.370,0.175
'0:02.733',-0.380,0.135
'0:02.736',-0.390,0.135
'0:02.739',-0.415,0.145
'0:02.742',-0.405,0.155
'0:02.744',-0.405,0.110
'0:02.747',-0.405,0.090
'0:02.750',-0.415,0.105
'0:02.753',-0.410,0.130
'0:02.756',-0.395,0.145
'0:02.758',-0.385,0.110
'0:02.761',-0.385,0.095
'0:02.764',-0.385,0.105
'0:02.767',-0.365,0.120
'0:02.769',-0.355,0.090
'0:02.772',-0.345,0.090
'0:02.775',-0.335,0.115
'0:02.778',-0.355,0.090
'0:02.781',-0.390,0.070
'0:02.783',-0.400,0.075
'0:02.786',-0.390,0.115
'0:02.789',-0.360,0.110
'0:02.792',-0.330,0.075
'0:02.794',-0.340,0.050
'0:02.797',-0.380,0.070
'0:02.800',-0.395,0.110
'0:02.803',-0.405,0.105
'0:02.806',-0.390,0.075
'0:02.808',-0.395,0.080
'0:02.811',-0.390,0.090
'0:02.814',-0.400,0.080
'0:02.817',-0.400,0.070
'0:02.819',-0.395,0.070
'0:02.822',-0.390,0.090
'0:02.825',-0.385,0.090
'0:02.828',-0.390,0.065
'0:02.831',-0.385,0.060
'0:02.833',-0.385,0.075
'0:02.836',-0.380,0.100
'0:02.839',-0.370,0.070
'0:02.842',-0.340,0.045
'0:02.844',-0.335,0.065
'0:02.847',-0.335,0.095
'0:02.850',-0.330,0.095
'0:02.853',-0.325,0.085
'0:02.856',-0.350,0.095
'0:02.858',-0.365,0.100
'0:02.861',-0.355,0.085
'0:02.864',-0.345,0.055
'0:02.867',-0.340,0.085
'0:02.869',-0.340,0.110
'0:02.872',-0.360,0.100
'0:02.875',-0.350,0.090
'0:02.878',-0.345,0.090
'0:02.881',-0.350,0.095
'0:02.883',-0.355,0.080
'0:02.886',-0.345,0.080
'0:02.889',-0.340,0.080
'0:02.892',-0.335,0.090
'0:02.894',-0.345,0.075
'0:02.897',-0.365,0.055
'0:02.900',-0.350,0.075
'0:02.903',-0.350,0.095
'0:02.906',-0.335,0.075
'0:02.908',-0.330,0.055
'0:02.911',-0.310,0.045
'0:02.914',-0.290,0.075
'0:02.917',-0.285,0.090
'0:02.919',-0.265,0.075
'0:02.922',-0.275,0.080
'0:02.925',-0.280,0.080
'0:02.928',-0.300,0.080
'0:02.931',-0.305,0.065
'0:02.933',-0.305,0.070
'0:02.936',-0.295,0.100
'0:02.939',-0.285,0.100
'0:02.942',-0.305,0.085
'0:02.944',-0.320,0.060
'0:02.947',-0.320,0.085
'0:02.950',-0.305,0.100
'0:02.953',-0.275,0.100
'0:02.956',-0.265,0.070
'0:02.958',-0.275,0.080
'0:02.961',-0.285,0.095
'0:02.964',-0.280,0.090
'0:02.967',-0.270,0.095
'0:02.969',-0.260,0.115
'0:02.972',-0.250,0.135
'0:02.975',-0.255,0.095
'0:02.978',-0.255,0.070
'0:02.981',-0.265,0.090
'0:02.983',-0.265,0.125
'0:02.986',-0.250,0.125
'0:02.989',-0.260,0.105
'0:02.992',-0.245,0.110
'0:02.994',-0.260,0.115
'0:02.997',-0.285,0.095
'0:03.000',-0.290,0.080
'0:03.003',-0.290,0.105
'0:03.006',-0.280,0.130
'0:03.008',-0.285,0.105
'0:03.011',-0.285,0.095
'0:03.014',-0.280,0.095
'0:03.017',-0.310,0.120
'0:03.019',-0.310,0.115
'0:03.022',-0.300,0.090
'0:03.025',-0.285,0.095
'0:03.028',-0.275,0.100
'0:03.031',-0.295,0.110
'0:03.033',-0.305,0.100
'0:03.036',-0.300,0.095
'0:03.039',-0.300,0.115
'0:03.042',-0.320,0.115
'0:03.044',-0.300,0.085
'0:03.047',-0.305,0.060
'0:03.050',-0.315,0.095
'0:03.053',-0.305,0.120
'0:03.056',-0.295,0.110
'0:03.058',-0.295,0.075
'0:03.061',-0.305,0.095
'0:03.064',-0.335,0.110
'0:03.067',-0.335,0.105
'0:03.069',-0.340,0.080
'0:03.072',-0.335,0.095
'0:03.075',-0.335,0.100
'0:03.078',-0.345,0.100
'0:03.081',-0.360,0.075
'0:03.083',-0.365,0.085
'0:03.086',-0.355,0.120
'0:03.089',-0.335,0.105
'0:03.092',-0.330,0.075
'0:03.094',-0.320,0.075
'0:03.097',-0.310,0.105
'0:03.100',-0.295,0.095
'0:03.103',-0.275,0.090
'0:03.106',-0.250,0.115
'0:03.108',-0.230,0.105
'0:03.111',-0.210,0.075
'0:03.114',-0.200,0.070
'0:03.117',-0.175,0.095
'0:03.119',-0.150,0.115
'0:03.122',-0.140,0.090
'0:03.125',-0.145,0.080
'0:03.128',-0.155,0.075
'0:03.131',-0.155,0.085
'0:03.133',-0.130,0.060
'0:03.136',-0.130,0.030
'0:03.139',-0.115,0.030
'0:03.142',-0.105,0.040
'0:03.144',-0.060,0.025
'0:03.147',-0.040,-0.010
'0:03.150',-0.045,0.000
'0:03.153',-0.085,0.020
'0:03.156',-0.160,0.015
'0:03.158',-0.260,-0.040
'0:03.161',-0.430,-0.050
'0:03.164',-0.690,-0.030
'0:03.167',-1.060,-0.005
'0:03.169',-1.425,-0.015
'0:03.172',-1.730,-0.035
'0:03.175',-1.930,-0.020
'0:03.178',-2.035,0.015
'0:03.181',-2.065,0.005
'0:03.183',-2.060,-0.020
'0:03.186',-2.080,0.005
'0:03.189',-2.055,0.035
'0:03.192',-1.995,0.040
'0:03.194',-1.900,0.025
'0:03.197',-1.805,0.035
'0:03.200',-1.705,0.085
'0:03.203',-1.635,0.110
'0:03.206',-1.540,0.105
'0:03.208',-1.440,0.090
'0:03.211',-1.325,0.110
'0:03.214',-1.235,0.125
'0:03.217',-1.145,0.140
'0:03.219',-1.065,0.130
'0:03.222',-0.995,0.140
'0:03.225',-0.940,0.145
'0:03.228',-0.915,0.135
'0:03.231',-0.870,0.100
'0:03.233',-0.830,0.095
'0:03.236',-0.760,0.130
'0:03.239',-0.690,0.135
'0:03.242',-0.655,0.115
'0:03.244',-0.625,0.080
'0:03.247',-0.610,0.100
'0:03.250',-0.585,0.120
'0:03.253',-0.565,0.115
'0:03.256',-0.530,0.085
'0:03.258',-0.490,0.090
'0:03.261',-0.470,0.110
'0:03.264',-0.420,0.105
'0:03.267',-0.350,0.090
'0:03.269',-0.275,0.100
'0:03.272',-0.205,0.120
'0:03.275',-0.155,0.135
'0:03.278',-0.120,0.110
'0:03.281',-0.090,0.100
'0:03.283',-0.030,0.115
'0:03.286',0.020,0.150
'0:03.289',0.060,0.145
'0:03.292',0.080,0.125
'0:03.294',0.095,0.120
'0:03.297',0.130,0.150
'0:03.300',0.150,0.140
'0:03.303',0.170,0.135
'0:03.306',0.180,0.135
'0:03.308',0.185,0.155
'0:03.311',0.210,0.150
'0:03.314',0.225,0.125
'0:03.317',0.245,0.130
'0:03.319',0.270,0.155
'0:03.322',0.300,0.155
'0:03.325',0.315,0.130
'0:03.328',0.310,0.115
'0:03.331',0.315,0.125
'0:03.333',0.350,0.165
'0:03.336',0.370,0.160
'0:03.339',0.365,0.135
'0:03.342',0.370,0.145
'0:03.344',0.385,0.150
'0:03.347',0.400,0.160
'0:03.350',0.425,0.155
'0:03.353',0.470,0.145
'0:03.356',0.490,0.165
'0:03.358',0.505,0.175
'0:03.361',0.505,0.175
'0:03.364',0.530,0.145
'0:03.367',0.530,0.165
'0:03.369',0.535,0.195
'0:03.372',0.540,0.185
'0:03.375',0.545,0.155
'0:03.378',0.545,0.140
'0:03.381',0.570,0.145
'0:03.383',0.580,0.175
'0:03.386',0.570,0.175
'0:03.389',0.575,0.150
'0:03.392',0.560,0.160
'0:03.394',0.550,0.175
'0:03.397',0.545,0.180
'0:03.400',0.555,0.165
'0:03.403',0.550,0.155
'0:03.406',0.560,0.155
'0:03.408',0.550,0.180
'0:03.411',0.530,0.155
'0:03.414',0.500,0.140
'0:03.417',0.480,0.165
'0:03.419',0.465,0.190
'0:03.422',0.465,0.165
'0:03.425',0.440,0.145
'0:03.428',0.405,0.135
'0:03.431',0.395,0.155
'0:03.433',0.375,0.165
'0:03.436',0.360,0.165
'0:03.439',0.355,0.140
'0:03.442',0.345,0.150
'0:03.444',0.290,0.160
'0:03.447',0.250,0.145
'0:03.450',0.220,0.130
'0:03.453',0.195,0.140
'0:03.456',0.175,0.160
'0:03.458',0.150,0.155
'0:03.461',0.120,0.125
'0:03.464',0.095,0.125
'0:03.467',0.065,0.135
'0:03.469',0.055,0.165
'0:03.472',0.035,0.155
'0:03.475',0.020,0.125
'0:03.478',-0.005,0.115
'0:03.481',-0.025,0.135
'0:03.483',-0.040,0.150
'0:03.486',-0.065,0.150
'0:03.489',-0.070,0.130
'0:03.492',-0.080,0.140
'0:03.494',-0.100,0.150
'0:03.497',-0.115,0.145
'0:03.500',-0.135,0.125
'0:03.503',-0.130,0.135
'0:03.506',-0.140,0.150
'0:03.508',-0.155,0.145
'0:03.511',-0.160,0.115
'0:03.514',-0.170,0.115
'0:03.517',-0.170,0.135
'0:03.519',-0.175,0.155
'0:03.522',-0.180,0.145
'0:03.525',-0.205,0.115
'0:03.528',-0.210,0.115
'0:03.531',-0.225,0.140
'0:03.533',-0.215,0.145
'0:03.536',-0.200,0.140
'0:03.539',-0.185,0.135
'0:03.542',-0.200,0.125
'0:03.544',-0.220,0.140
'0:03.547',-0.230,0.145
'0:03.550',-0.230,0.120
'0:03.553',-0.210,0.120
'0:03.556',-0.195,0.145
'0:03.558',-0.205,0.135
'0:03.561',-0.215,0.120
'0:03.564',-0.225,0.110
'0:03.567',-0.210,0.130
'0:03.569',-0.200,0.155
'0:03.572',-0.195,0.155
'0:03.575',-0.200,0.110
'0:03.578',-0.220,0.115
'0:03.581',-0.230,0.130
'0:03.583',-0.235,0.140
'0:03.586',-0.230,0.130
'0:03.589',-0.230,0.110
'0:03.592',-0.225,0.120
'0:03.594',-0.240,0.120
'0:03.597',-0.255,0.140
'0:03.600',-0.250,0.115
'0:03.603',-0.230,0.125
'0:03.606',-0.225,0.125
'0:03.608',-0.240,0.130
'0:03.611',-0.240,0.115
'0:03.614',-0.260,0.120
'0:03.617',-0.250,0.125
'0:03.619',-0.245,0.155
'0:03.622',-0.230,0.150
'0:03.625',-0.215,0.115
'0:03.628',-0.220,0.105
'0:03.631',-0.225,0.125
'0:03.633',-0.225,0.140
'0:03.636',-0.230,0.145
'0:03.639',-0.215,0.125
'0:03.642',-0.215,0.125
'0:03.644',-0.245,0.140
'0:03.647',-0.250,0.135
'0:03.650',-0.245,0.120
'0:03.653',-0.240,0.135
'0:03.656',-0.240,0.140
'0:03.658',-0.230,0.135
'0:03.661',-0.230,0.105
'0:03.664',-0.245,0.115
'0:03.667',-0.240,0.140
'0:03.669',-0.245,0.155
'0:03.672',-0.240,0.135
'0:03.675',-0.245,0.120
'0:03.678',-0.245,0.130
'0:03.681',-0.250,0.135
'0:03.683',-0.250,0.125
'0:03.686',-0.225,0.120
'0:03.689',-0.240,0.115
'0:03.692',-0.240,0.135
'0:03.694',-0.235,0.115
'0:03.697',-0.240,0.100
'0:03.700',-0.240,0.105
'0:03.703',-0.240,0.135
'0:03.706',-0.240,0.135
'0:03.708',-0.255,0.095
'0:03.711',-0.255,0.080
'0:03.714',-0.260,0.105
'0:03.717',-0.225,0.125
'0:03.719',-0.225,0.110
'0:03.722',-0.220,0.090
'0:03.725',-0.215,0.090
'0:03.728',-0.225,0.110
'0:03.731',-0.235,0.095
'0:03.733',-0.250,0.090
'0:03.736',-0.245,0.115
'0:03.739',-0.245,0.130
'0:03.742',-0.250,0.115
'0:03.744',-0.255,0.080
'0:03.747',-0.240,0.090
'0:03.750',-0.215,0.125
'0:03.753',-0.210,0.125
'0:03.756',-0.215,0.105
'0:03.758',-0.225,0.090
'0:03.761',-0.230,0.105
'0:03.764',-0.230,0.110
'0:03.767',-0.225,0.100
'0:03.769',-0.225,0.105
'0:03.772',-0.230,0.120
'0:03.775',-0.225,0.110
'0:03.778',-0.220,0.085
'0:03.781',-0.220,0.090
'0:03.783',-0.210,0.105
'0:03.786',-0.190,0.140
'0:03.789',-0.175,0.125
'0:03.792',-0.165,0.105
'0:03.794',-0.170,0.115
'0:03.797',-0.175,0.120
'0:03.800',-0.170,0.115
'0:03.803',-0.155,0.130
'0:03.806',-0.145,0.130
'0:03.808',-0.140,0.140
'0:03.811',-0.135,0.110
'0:03.814',-0.135,0.100
'0:03.817',-0.135,0.120
'0:03.819',-0.140,0.130
'0:03.822',-0.145,0.110
'0:03.825',-0.155,0.095
'0:03.828',-0.160,0.095
'0:03.831',-0.180,0.110
'0:03.833',-0.185,0.105
'0:03.836',-0.185,0.095
'0:03.839',-0.180,0.110
'0:03.842',-0.195,0.105
'0:03.844',-0.205,0.085
'0:03.847',-0.215,0.085
'0:03.850',-0.220,0.095
'0:03.853',-0.220,0.125
'0:03.856',-0.225,0.095
'0:03.858',-0.220,0.085
'0:03.861',-0.215,0.095
'0:03.864',-0.210,0.095
'0:03.867',-0.210,0.090
'0:03.869',-0.205,0.090
'0:03.872',-0.195,0.115
'0:03.875',-0.200,0.120
'0:03.878',-0.200,0.105
'0:03.881',-0.200,0.100
'0:03.883',-0.185,0.120
'0:03.886',-0.185,0.130
'0:03.889',-0.190,0.105
'0:03.892',-0.185,0.095
'0:03.894',-0.190,0.095
'0:03.897',-0.200,0.100
'0:03.900',-0.210,0.105
'0:03.903',-0.215,0.110
'0:03.906',-0.225,0.115
'0:03.908',-0.250,0.105
'0:03.911',-0.245,0.090
'0:03.914',-0.230,0.110
'0:03.917',-0.235,0.120
'0:03.919',-0.235,0.115
'0:03.922',-0.220,0.110
'0:03.925',-0.215,0.105
'0:03.928',-0.210,0.105
'0:03.931',-0.205,0.075
'0:03.933',-0.195,0.105
'0:03.936',-0.200,0.130
'0:03.939',-0.215,0.120
'0:03.942',-0.235,0.105
'0:03.944',-0.235,0.110
'0:03.947',-0.225,0.100
'0:03.950',-0.170,0.115
'0:03.953',-0.085,0.110
'0:03.956',0.015,0.115
'0:03.958',0.115,0.130
'0:03.961',0.205,0.115
'0:03.964',0.295,0.100
'0:03.967',0.405,0.115
'0:03.969',0.535,0.135
'0:03.972',0.685,0.115
'0:03.975',0.825,0.115
'0:03.978',0.950,0.125
'0:03.981',1.050,0.135
'0:03.983',1.115,0.145
'0:03.986',1.110,0.150
'0:03.989',0.995,0.160
'0:03.992',0.755,0.155
'0:03.994',0.325,0.140
'0:03.997',-0.135,0.145
'0:04.000',-0.420,0.165
'0:04.003',-0.540,0.190
'0:04.006',-0.545,0.175
'0:04.008',-0.520,0.165
'0:04.011',-0.460,0.165
'0:04.014',-0.410,0.165
'0:04.017',-0.370,0.145
'0:04.019',-0.365,0.140
'0:04.022',-0.340,0.160
'0:04.025',-0.350,0.165
'0:04.028',-0.350,0.140
'0:04.031',-0.375,0.130
'0:04.033',-0.380,0.145
'0:04.036',-0.380,0.155
'0:04.039',-0.355,0.130
'0:04.042',-0.330,0.105
'0:04.044',-0.340,0.120
'0:04.047',-0.345,0.125
'0:04.050',-0.325,0.120
'0:04.053',-0.300,0.115
'0:04.056',-0.275,0.125
'0:04.058',-0.280,0.135
'0:04.061',-0.290,0.115
'0:04.064',-0.310,0.105
'0:04.067',-0.310,0.120
'0:04.069',-0.300,0.140
'0:04.072',-0.295,0.140
'0:04.075',-0.300,0.115
'0:04.078',-0.315,0.110
'0:04.081',-0.340,0.120
'0:04.083',-0.335,0.115
'0:04.086',-0.305,0.120
'0:04.089',-0.285,0.125
'0:04.092',-0.280,0.130
'0:04.094',-0.295,0.125
'0:04.097',-0.300,0.120
'0:04.100',-0.295,0.120
'0:04.103',-0.285,0.140
'0:04.106',-0.275,0.120
'0:04.108',-0.285,0.110
'0:04.111',-0.280,0.125
'0:04.114',-0.285,0.115
'0:04.117',-0.270,0.110
'0:04.119',-0.265,0.125
'0:04.122',-0.270,0.125
'0:04.125',-0.270,0.125
'0:04.128',-0.270,0.100
'0:04.131',-0.260,0.100
'0:04.133',-0.240,0.115
'0:04.136',-0.255,0.140
'0:04.139',-0.255,0.125
'0:04.142',-0.255,0.100
'0:04.144',-0.255,0.105
'0:04.147',-0.265,0.105
'0:04.150',-0.260,0.110
'0:04.153',-0.250,0.105
'0:04.156',-0.255,0.120
'0:04.158',-0.255,0.130
'0:04.161',-0.260,0.105
'0:04.164',-0.270,0.100
'0:04.167',-0.255,0.110
'0:04.169',-0.260,0.130
'0:04.172',-0.275,0.115
'0:04.175',-0.260,0.090
'0:04.178',-0.250,0.085
'0:04.181',-0.235,0.115
'0:04.183',-0.225,0.120
'0:04.186',-0.225,0.115
'0:04.189',-0.230,0.095
'0:04.192',-0.220,0.115
'0:04.194',-0.215,0.095
'0:04.197',-0.205,0.075
'0:04.200',-0.195,0.085
'0:04.203',-0.200,0.120
'0:04.206',-0.205,0.115
'0:04.208',-0.220,0.105
'0:04.211',-0.210,0.095
'0:04.214',-0.220,0.110
'0:04.217',-0.210,0.105
'0:04.219',-0.205,0.100
'0:04.222',-0.185,0.085
'0:04.225',-0.195,0.110
'0:04.228',-0.195,0.125
'0:04.231',-0.195,0.105
'0:04.233',-0.175,0.100
'0:04.236',-0.150,0.120
'0:04.239',-0.140,0.130
'0:04.242',-0.145,0.090
'0:04.244',-0.160,0.070
'0:04.247',-0.160,0.090
'0:04.250',-0.145,0.100
'0:04.253',-0.135,0.105
'0:04.256',-0.125,0.075
'0:04.258',-0.125,0.090
'0:04.261',-0.140,0.095
'0:04.264',-0.130,0.080
'0:04.267',-0.110,0.075
'0:04.269',-0.105,0.100
'0:04.272',-0.110,0.115
'0:04.275',-0.130,0.100
'0:04.278',-0.135,0.080
'0:04.281',-0.140,0.095
'0:04.283',-0.140,0.110
'0:04.286',-0.140,0.115
'0:04.289',-0.125,0.090
'0:04.292',-0.125,0.085
'0:04.294',-0.110,0.105
'0:04.297',-0.105,0.110
'0:04.300',-0.125,0.095
'0:04.303',-0.120,0.120
'0:04.306',-0.110,0.125
'0:04.308',-0.110,0.125
'0:04.311',-0.130,0.085
'0:04.314',-0.145,0.095
'0:04.317',-0.145,0.130
'0:04.319',-0.140,0.120
'0:04.322',-0.140,0.110
'0:04.325',-0.135,0.120
'0:04.328',-0.160,0.110
'0:04.331',-0.165,0.105
'0:04.333',-0.165,0.110
'0:04.336',-0.155,0.110
'0:04.339',-0.145,0.120
'0:04.342',-0.155,0.130
'0:04.344',-0.170,0.125
'0:04.347',-0.175,0.110
'0:04.350',-0.160,0.125
'0:04.353',-0.155,0.135
'0:04.356',-0.150,0.120
'0:04.358',-0.165,0.090
'0:04.361',-0.185,0.095
'0:04.364',-0.190,0.125
'0:04.367',-0.180,0.145
'0:04.369',-0.160,0.130
'0:04.372',-0.160,0.130
'0:04.375',-0.160,0.130
'0:04.378',-0.170,0.125
'0:04.381',-0.190,0.110
'0:04.383',-0.175,0.100
'0:04.386',-0.180,0.130
'0:04.389',-0.180,0.140
'0:04.392',-0.165,0.120
'0:04.394',-0.155,0.110
'0:04.397',-0.145,0.120
'0:04.400',-0.110,0.150
'0:04.403',-0.070,0.150
'0:04.406',-0.050,0.125
'0:04.408',-0.025,0.120
'0:04.411',-0.005,0.145
'0:04.414',0.000,0.140
'0:04.417',0.030,0.145
'0:04.419',0.060,0.140
'0:04.422',0.075,0.145
'0:04.425',0.085,0.140
'0:04.428',0.075,0.105
'0:04.431',0.090,0.090
'0:04.433',0.135,0.095
'0:04.436',0.155,0.110
'0:04.439',0.145,0.060
'0:04.442',0.090,0.045
'0:04.444',-0.025,0.030
'0:04.447',-0.240,0.020
'0:04.450',-0.580,-0.005
'0:04.453',-0.965,-0.015
'0:04.456',-1.340,-0.005
'0:04.458',-1.695,0.015
'0:04.461',-1.980,0.005
'0:04.464',-2.125,-0.010
'0:04.467',-2.135,0.015
'0:04.469',-2.125,0.030
'0:04.472',-2.090,0.030
'0:04.475',-2.075,0.010
'0:04.478',-2.015,0.000
'0:04.481',-1.950,0.030
'0:04.483',-1.850,0.070
'0:04.486',-1.735,0.090
'0:04.489',-1.645,0.090
'0:04.492',-1.550,0.095
'0:04.494',-1.425,0.125
'0:04.497',-1.290,0.135
'0:04.500',-1.185,0.120
'0:04.503',-1.105,0.115
'0:04.506',-1.035,0.135
'0:04.508',-0.965,0.140
'0:04.511',-0.900,0.125
'0:04.514',-0.830,0.125
'0:04.517',-0.765,0.140
'0:04.519',-0.705,0.155
'0:04.522',-0.660,0.130
'0:04.525',-0.635,0.100
'0:04.528',-0.575,0.120
'0:04.531',-0.520,0.130
'0:04.533',-0.460,0.130
'0:04.536',-0.405,0.135
'0:04.539',-0.350,0.120
'0:04.542',-0.290,0.145
'0:04.544',-0.215,0.140
'0:04.547',-0.160,0.125
'0:04.550',-0.095,0.130
'0:04.553',-0.025,0.155
'0:04.556',0.020,0.180
'0:04.558',0.075,0.170
'0:04.561',0.120,0.140
'0:04.564',0.135,0.150
'0:04.567',0.180,0.175
'0:04.569',0.200,0.190
'0:04.572',0.220,0.155
'0:04.575',0.250,0.150
'0:04.578',0.270,0.150
'0:04.581',0.280,0.165
'0:04.583',0.295,0.175
'0:04.586',0.315,0.165
'0:04.589',0.345,0.165
'0:04.592',0.360,0.170
'0:04.594',0.375,0.155
'0:04.597',0.370,0.150
'0:04.600',0.390,0.160
'0:04.603',0.405,0.200
'0:04.606',0.435,0.195
'0:04.608',0.455,0.180
'0:04.611',0.470,0.170
'0:04.614',0.490,0.185
'0:04.617',0.520,0.185
'0:04.619',0.545,0.185
'0:04.622',0.555,0.160
'0:04.625',0.585,0.165
'0:04.628',0.600,0.180
'0:04.631',0.620,0.180
'0:04.633',0.635,0.180
'0:04.636',0.670,0.185
'0:04.639',0.680,0.195
'0:04.642',0.690,0.175
'0:04.644',0.685,0.150
'0:04.647',0.695,0.150
'0:04.650',0.725,0.185
'0:04.653',0.740,0.200
'0:04.656',0.755,0.180
'0:04.658',0.765,0.165
'0:04.661',0.765,0.170
'0:04.664',0.765,0.185
'0:04.667',0.780,0.185
'0:04.669',0.800,0.160
'0:04.672',0.815,0.165
'0:04.675',0.790,0.175
'0:04.678',0.790,0.175
'0:04.681',0.765,0.160
'0:04.683',0.765,0.160
'0:04.686',0.780,0.190
'0:04.689',0.780,0.185
'0:04.692',0.780,0.160
'0:04.694',0.745,0.135
'0:04.697',0.715,0.150
'0:04.700',0.710,0.170
'0:04.703',0.710,0.175
'0:04.706',0.700,0.155
'0:04.708',0.670,0.155
'0:04.711',0.630,0.150
'0:04.714',0.580,0.130
'0:04.717',0.535,0.130
'0:04.719',0.495,0.160
'0:04.722',0.465,0.175
'0:04.725',0.445,0.155
'0:04.728',0.410,0.145
'0:04.731',0.395,0.135
'0:04.733',0.375,0.170
'0:04.736',0.365,0.165
'0:04.739',0.345,0.135
'0:04.742',0.320,0.140
'0:04.744',0.280,0.160
'0:04.747',0.245,0.160
'0:04.750',0.215,0.145
'0:04.753',0.195,0.155
'0:04.756',0.180,0.150
'0:04.758',0.150,0.145
'0:04.761',0.120,0.130
'0:04.764',0.095,0.125
'0:04.767',0.095,0.150
'0:04.769',0.095,0.160
'0:04.772',0.080,0.145
'0:04.775',0.065,0.130
'0:04.778',0.040,0.140
'0:04.781',0.020,0.135
'0:04.783',0.000,0.120
'0:04.786',0.000,0.115
'0:04.789',0.000,0.140
'0:04.792',-0.020,0.145
'0:04.794',-0.020,0.120
'0:04.797',-0.030,0.115
'0:04.800',-0.035,0.135
'0:04.803',-0.030,0.140
'0:04.806',-0.030,0.125
'0:04.808',-0.040,0.090
'0:04.811',-0.070,0.120
'0:04.814',-0.080,0.135
'0:04.817',-0.065,0.120
'0:04.819',-0.070,0.125
'0:04.822',-0.055,0.135
'0:04.825',-0.070,0.125
'0:04.828',-0.085,0.100
'0:04.831',-0.090,0.085
'0:04.833',-0.090,0.115
'0:04.836',-0.060,0.135
'0:04.839',-0.055,0.110
'0:04.842',-0.065,0.100
'0:04.844',-0.095,0.105
'0:04.847',-0.105,0.110
'0:04.850',-0.105,0.080
'0:04.853',-0.090,0.095
'0:04.856',-0.080,0.105
'0:04.858',-0.075,0.105
'0:04.861',-0.085,0.080
'0:04.864',-0.100,0.080
'0:04.867',-0.075,0.115
'0:04.869',-0.080,0.115
'0:04.872',-0.080,0.090
'0:04.875',-0.085,0.080
'0:04.878',-0.110,0.100
'0:04.881',-0.120,0.105
'0:04.883',-0.110,0.085
'0:04.886',-0.095,0.100
'0:04.889',-0.080,0.110
'0:04.892',-0.090,0.105
'0:04.894',-0.090,0.080
'0:04.897',-0.105,0.080
'0:04.900',-0.115,0.120
'0:04.903',-0.100,0.120
'0:04.906',-0.095,0.100
'0:04.908',-0.110,0.095
'0:04.911',-0.125,0.115
'0:04.914',-0.145,0.095
'0:04.917',-0.160,0.085
'0:04.919',-0.155,0.110
'0:04.922',-0.150,0.130
'0:04.925',-0.135,0.115
'0:04.928',-0.125,0.080
'0:04.931',-0.130,0.110
'0:04.933',-0.110,0.125
'0:04.936',-0.125,0.120
'0:04.939',-0.120,0.100
'0:04.942',-0.130,0.115
'0:04.944',-0.145,0.115
'0:04.947',-0.150,0.100
'0:04.950',-0.145,0.100
'0:04.953',-0.140,0.130
'0:04.956',-0.145,0.120
'0:04.958',-0.150,0.090
'0:04.961',-0.160,0.075
'0:04.964',-0.170,0.095
'0:04.967',-0.160,0.120
'0:04.969',-0.155,0.115
'0:04.972',-0.155,0.095
'0:04.975',-0.155,0.110
'0:04.978',-0.150,0.125
'0:04.981',-0.160,0.100
'0:04.983',-0.160,0.095
'0:04.986',-0.160,0.125
'0:04.989',-0.145,0.140
'0:04.992',-0.150,0.115
'0:04.994',-0.155,0.075
'0:04.997',-0.180,0.105
'0:05.000',-0.175,0.120
'0:05.003',-0.165,0.105
'0:05.006',-0.155,0.090
'0:05.008',-0.145,0.105
'0:05.011',-0.165,0.125
'0:05.014',-0.180,0.115
'0:05.017',-0.170,0.100
'0:05.019',-0.160,0.120
'0:05.022',-0.165,0.135
'0:05.025',-0.165,0.135
'0:05.028',-0.160,0.095
'0:05.031',-0.155,0.095
'0:05.033',-0.145,0.130
'0:05.036',-0.135,0.150
'0:05.039',-0.115,0.125
'0:05.042',-0.105,0.125
'0:05.044',-0.095,0.135
'0:05.047',-0.090,0.145
'0:05.050',-0.085,0.110
'0:05.053',-0.090,0.120
'0:05.056',-0.095,0.135
'0:05.058',-0.120,0.125
'0:05.061',-0.150,0.115
'0:05.064',-0.170,0.100
'0:05.067',-0.165,0.125
'0:05.069',-0.170,0.140
'0:05.072',-0.170,0.110
'0:05.075',-0.170,0.095
'0:05.078',-0.180,0.100
'0:05.081',-0.180,0.115
'0:05.083',-0.170,0.100
'0:05.086',-0.175,0.100
'0:05.089',-0.180,0.125
'0:05.092',-0.185,0.125
'0:05.094',-0.190,0.100
'0:05.097',-0.200,0.095
'0:05.100',-0.175,0.115
'0:05.103',-0.175,0.140
'0:05.106',-0.165,0.120
'0:05.108',-0.140,0.090
'0:05.111',-0.140,0.105
'0:05.114',-0.155,0.115
'0:05.117',-0.155,0.110
'0:05.119',-0.155,0.105
'0:05.122',-0.160,0.105
'0:05.125',-0.175,0.125
'0:05.128',-0.190,0.105
'0:05.131',-0.205,0.095
'0:05.133',-0.205,0.095
'0:05.136',-0.200,0.130
'0:05.139',-0.190,0.120
'0:05.142',-0.200,0.090
'0:05.144',-0.210,0.080
'0:05.147',-0.220,0.100
'0:05.150',-0.210,0.120
'0:05.153',-0.210,0.105
'0:05.156',-0.205,0.110
'0:05.158',-0.205,0.125
'0:05.161',-0.200,0.120
'0:05.164',-0.200,0.090
'0:05.167',-0.185,0.090
'0:05.169',-0.185,0.120
'0:05.172',-0.185,0.135
'0:05.175',-0.190,0.120
'0:05.178',-0.205,0.100
'0:05.181',-0.210,0.105
'0:05.183',-0.215,0.125
'0:05.186',-0.220,0.120
'0:05.189',-0.250,0.080
'0:05.192',-0.260,0.080
'0:05.194',-0.235,0.095
'0:05.197',-0.195,0.095
'0:05.200',-0.135,0.095
'0:05.203',-0.030,0.100
'0:05.206',0.095,0.110
'0:05.208',0.195,0.115
'0:05.211',0.285,0.100
'0:05.214',0.360,0.090
'0:05.217',0.460,0.125
'0:05.219',0.580,0.145
'0:05.222',0.695,0.135
'0:05.225',0.810,0.115
'0:05.228',0.895,0.130
'0:05.231',0.945,0.145
'0:05.233',0.940,0.135
'0:05.236',0.845,0.130
'0:05.239',0.725,0.120
'0:05.242',0.545,0.145
'0:05.244',0.285,0.160
'0:05.247',-0.025,0.140
'0:05.250',-0.270,0.155
'0:05.253',-0.405,0.190
'0:05.256',-0.470,0.185
'0:05.258',-0.490,0.160
'0:05.261',-0.465,0.135
'0:05.264',-0.425,0.165
'0:05.267',-0.385,0.175
'0:05.269',-0.350,0.160
'0:05.272',-0.340,0.145
'0:05.275',-0.315,0.150
'0:05.278',-0.315,0.145
'0:05.281',-0.330,0.125
'0:05.283',-0.350,0.115
'0:05.286',-0.360,0.130
'0:05.289',-0.375,0.130
'0:05.292',-0.380,0.115
'0:05.294',-0.380,0.085
'0:05.297',-0.380,0.070
'0:05.300',-0.360,0.105
'0:05.303',-0.345,0.100
'0:05.306',-0.320,0.080
'0:05.308',-0.310,0.075
'0:05.311',-0.320,0.090
'0:05.314',-0.335,0.100
'0:05.317',-0.335,0.075
'0:05.319',-0.330,0.090
'0:05.322',-0.330,0.105
'0:05.325',-0.325,0.105
'0:05.328',-0.345,0.070
'0:05.331',-0.335,0.055
'0:05.333',-0.335,0.070
'0:05.336',-0.340,0.115
'0:05.339',-0.320,0.085
'0:05.342',-0.325,0.055
'0:05.344',-0.325,0.050
'0:05.347',-0.325,0.080
'0:05.350',-0.310,0.085
'0:05.353',-0.305,0.070
'0:05.356',-0.310,0.070
'0:05.358',-0.315,0.085
'0:05.361',-0.315,0.085
'0:05.364',-0.305,0.070
'0:05.367',-0.300,0.060
'0:05.369',-0.295,0.105
'0:05.372',-0.285,0.110
'0:05.375',-0.295,0.075
'0:05.378',-0.300,0.055
'0:05.381',-0.310,0.075
'0:05.383',-0.300,0.100
'0:05.386',-0.275,0.095
'0:05.389',-0.275,0.080
'0:05.392',-0.280,0.085
'0:05.394',-0.280,0.095
'0:05.397',-0.290,0.095
'0:05.400',-0.295,0.075
'0:05.403',-0.280,0.100
'0:05.406',-0.290,0.110
'0:05.408',-0.285,0.105
'0:05.411',-0.295,0.070
'0:05.414',-0.300,0.065
'0:05.417',-0.285,0.095
'0:05.419',-0.260,0.115
'0:05.422',-0.245,0.095
'0:05.425',-0.225,0.070
'0:05.428',-0.240,0.070
'0:05.431',-0.265,0.100
'0:05.433',-0.270,0.095
'0:05.436',-0.260,0.085
'0:05.439',-0.265,0.080
'0:05.442',-0.235,0.105
'0:05.444',-0.245,0.090
'0:05.447',-0.250,0.070
'0:05.450',-0.240,0.065
'0:05.453',-0.240,0.100
'0:05.456',-0.225,0.120
'0:05.458',-0.220,0.095
'0:05.461',-0.235,0.080
'0:05.464',-0.235,0.080
'0:05.467',-0.225,0.105
'0:05.469',-0.220,0.120
'0:05.472',-0.235,0.085
'0:05.475',-0.250,0.080
'0:05.478',-0.240,0.090
'0:05.481',-0.230,0.110
'0:05.483',-0.185,0.090
'0:05.486',-0.175,0.085
'0:05.489',-0.160,0.100
'0:05.492',-0.170,0.115
'0:05.494',-0.190,0.095
'0:05.497',-0.205,0.070
'0:05.500',-0.200,0.085
'0:05.503',-0.215,0.100
'0:05.506',-0.210,0.120
'0:05.508',-0.190,0.095
'0:05.511',-0.200,0.070
'0:05.514',-0.205,0.090
'0:05.517',-0.180,0.120
'0:05.519',-0.175,0.105
'0:05.522',-0.175,0.085
'0:05.525',-0.180,0.080
'0:05.528',-0.190,0.090
'0:05.531',-0.205,0.090
'0:05.533',-0.190,0.080
'0:05.536',-0.185,0.095
'0:05.539',-0.160,0.115
'0:05.542',-0.175,0.115
'0:05.544',-0.200,0.100
'0:05.547',-0.220,0.085
'0:05.550',-0.220,0.110
'0:05.553',-0.200,0.130
'0:05.556',-0.190,0.125
'0:05.558',-0.170,0.090
'0:05.561',-0.175,0.090
'0:05.564',-0.185,0.115
'0:05.567',-0.180,0.130
'0:05.569',-0.180,0.115
'0:05.572',-0.170,0.095
'0:05.575',-0.170,0.110
'0:05.578',-0.170,0.120
'0:05.581',-0.225,0.110
'0:05.583',-0.205,0.100
'0:05.586',-0.215,0.125
'0:05.589',-0.225,0.130
'0:05.592',-0.225,0.135
'0:05.594',-0.220,0.110
'0:05.597',-0.215,0.095
'0:05.600',-0.195,0.125
'0:05.603',-0.195,0.145
'0:05.606',-0.195,0.120
'0:05.608',-0.215,0.115
'0:05.611',-0.235,0.115
'0:05.614',-0.220,0.140
'0:05.617',-0.210,0.110
'0:05.619',-0.180,0.110
'0:05.622',-0.190,0.125
'0:05.625',-0.180,0.125
'0:05.628',-0.195,0.110
'0:05.631',-0.215,0.100
'0:05.633',-0.210,0.120
'0:05.636',-0.210,0.135
'0:05.639',-0.210,0.130
'0:05.642',-0.225,0.105
'0:05.644',-0.240,0.080
'0:05.647',-0.260,0.115
'0:05.650',-0.250,0.110
'0:05.653',-0.240,0.100
'0:05.656',-0.230,0.090
'0:05.658',-0.220,0.105
'0:05.661',-0.250,0.105
'0:05.664',-0.270,0.080
'0:05.667',-0.265,0.075
'0:05.669',-0.275,0.100
'0:05.672',-0.260,0.095
'0:05.675',-0.255,0.090
'0:05.678',-0.250,0.055
'0:05.681',-0.250,0.070
'0:05.683',-0.235,0.100
'0:05.686',-0.220,0.110
'0:05.689',-0.210,0.075
'0:05.692',-0.210,0.065
'0:05.694',-0.205,0.070
'0:05.697',-0.210,0.075
'0:05.700',-0.190,0.065
'0:05.703',-0.175,0.055
'0:05.706',-0.155,0.050
'0:05.708',-0.080,0.045
'0:05.711',0.015,0.030
'0:05.714',0.085,0.000
'0:05.717',0.120,0.010
'0:05.719',0.115,0.040
'0:05.722',0.100,0.025
'0:05.725',0.090,0.000
'0:05.728',0.020,-0.005
'0:05.731',-0.110,0.010
'0:05.733',-0.395,0.015
'0:05.736',-0.790,-0.005
'0:05.739',-1.175,-0.005
'0:05.742',-1.450,0.015
'0:05.744',-1.645,0.015
'0:05.747',-1.770,0.000
'0:05.750',-1.845,0.020
'0:05.753',-1.905,0.045
'0:05.756',-1.915,0.045
'0:05.758',-1.890,0.025
'0:05.761',-1.875,0.020
'0:05.764',-1.860,0.055
'0:05.767',-1.775,0.070
'0:05.769',-1.610,0.080
'0:05.772',-1.445,0.090
'0:05.775',-1.305,0.100
'0:05.778',-1.210,0.105
'0:05.781',-1.150,0.095
'0:05.783',-1.050,0.110
'0:05.786',-0.960,0.130
'0:05.789',-0.910,0.125
'0:05.792',-0.885,0.115
'0:05.794',-0.860,0.095
'0:05.797',-0.825,0.125
'0:05.800',-0.790,0.115
'0:05.803',-0.725,0.120
'0:05.806',-0.670,0.105
'0:05.808',-0.590,0.110
'0:05.811',-0.575,0.105
'0:05.814',-0.540,0.090
'0:05.817',-0.495,0.085
'0:05.819',-0.435,0.110
'0:05.822',-0.360,0.130
'0:05.825',-0.280,0.110
'0:05.828',-0.220,0.095
'0:05.831',-0.160,0.110
'0:05.833',-0.100,0.135
'0:05.836',-0.045,0.120
'0:05.839',0.000,0.115
'0:05.842',0.035,0.135
'0:05.844',0.055,0.135
'0:05.847',0.060,0.100
'0:05.850',0.080,0.115
'0:05.853',0.095,0.140
'0:05.856',0.105,0.135
'0:05.858',0.105,0.105
'0:05.861',0.115,0.095
'0:05.864',0.165,0.130
'0:05.867',0.195,0.140
'0:05.869',0.215,0.115
'0:05.872',0.230,0.120
'0:05.875',0.230,0.135
'0:05.878',0.225,0.120
'0:05.881',0.225,0.095
'0:05.883',0.250,0.110
'0:05.886',0.280,0.150
'0:05.889',0.310,0.145
'0:05.892',0.330,0.105
'0:05.894',0.350,0.110
'0:05.897',0.345,0.120
'0:05.900',0.370,0.125
'0:05.903',0.400,0.120
'0:05.906',0.415,0.125
'0:05.908',0.435,0.140
'0:05.911',0.425,0.110
'0:05.914',0.425,0.105
'0:05.917',0.435,0.120
'0:05.919',0.450,0.135
'0:05.922',0.465,0.115
'0:05.925',0.495,0.100
'0:05.928',0.520,0.120
'0:05.931',0.525,0.105
'0:05.933',0.525,0.110
'0:05.936',0.545,0.125
'0:05.939',0.560,0.115
'0:05.942',0.565,0.105
'0:05.944',0.555,0.090
'0:05.947',0.525,0.105
'0:05.950',0.530,0.125
'0:05.953',0.530,0.120
'0:05.956',0.520,0.100
'0:05.958',0.510,0.095
'0:05.961',0.480,0.105
'0:05.964',0.455,0.090
'0:05.967',0.460,0.085
'0:05.969',0.455,0.130
'0:05.972',0.440,0.125
'0:05.975',0.435,0.100
'0:05.978',0.395,0.090
'0:05.981',0.355,0.105
'0:05.983',0.345,0.110
'0:05.986',0.340,0.090
'0:05.989',0.335,0.100
'0:05.992',0.305,0.120
'0:05.994',0.260,0.110
'0:05.997',0.205,0.080
'0:06.000',0.155,0.105
'0:06.003',0.130,0.105
'0:06.006',0.095,0.105
'0:06.008',0.095,0.080
'0:06.011',0.060,0.085
'0:06.014',0.040,0.095
'0:06.017',0.010,0.095
'0:06.019',0.010,0.100
'0:06.022',-0.015,0.110
'0:06.025',-0.040,0.105
'0:06.028',-0.060,0.090
'0:06.031',-0.075,0.085
'0:06.033',-0.065,0.100
'0:06.036',-0.060,0.120
'0:06.039',-0.060,0.110
'0:06.042',-0.075,0.090
'0:06.044',-0.100,0.090
'0:06.047',-0.095,0.095
'0:06.050',-0.100,0.095
'0:06.053',-0.110,0.100
'0:06.056',-0.120,0.110
'0:06.058',-0.145,0.115
'0:06.061',-0.155,0.095
'0:06.064',-0.175,0.090
'0:06.067',-0.170,0.100
'0:06.069',-0.150,0.120
'0:06.072',-0.155,0.100
'0:06.075',-0.160,0.090
'0:06.078',-0.185,0.095
'0:06.081',-0.215,0.095
'0:06.083',-0.220,0.100
'0:06.086',-0.185,0.105
'0:06.089',-0.180,0.110
'0:06.092',-0.165,0.090
'0:06.094',-0.180,0.085
'0:06.097',-0.180,0.090
'0:06.100',-0.175,0.125
'0:06.103',-0.160,0.130
'0:06.106',-0.135,0.110
'0:06.108',-0.145,0.110
'0:06.111',-0.145,0.105
'0:06.114',-0.150,0.100
'0:06.117',-0.130,0.095
'0:06.119',-0.120,0.120
'0:06.122',-0.135,0.125
'0:06.125',-0.140,0.110
'0:06.128',-0.145,0.085
'0:06.131',-0.145,0.095
'0:06.133',-0.145,0.125
'0:06.136',-0.140,0.115
'0:06.139',-0.160,0.100
'0:06.142',-0.150,0.105
'0:06.144',-0.155,0.120
'0:06.147',-0.160,0.085
'0:06.150',-0.155,0.100
'0:06.153',-0.180,0.120
'0:06.156',-0.180,0.125
'0:06.158',-0.165,0.100
'0:06.161',-0.170,0.080
'0:06.164',-0.180,0.100
'0:06.167',-0.200,0.115
'0:06.169',-0.195,0.125
'0:06.172',-0.185,0.110
'0:06.175',-0.185,0.100
'0:06.178',-0.195,0.105
'0:06.181',-0.225,0.085
'0:06.183',-0.215,0.085
'0:06.186',-0.195,0.105
'0:06.189',-0.160,0.135
'0:06.192',-0.150,0.105
'0:06.194',-0.175,0.090
'0:06.197',-0.190,0.095
'0:06.200',-0.205,0.095
'0:06.203',-0.195,0.115
'0:06.206',-0.180,0.095
'0:06.208',-0.175,0.090
'0:06.211',-0.170,0.110
'0:06.214',-0.190,0.110
'0:06.217',-0.160,0.105
'0:06.219',-0.145,0.115
'0:06.222',-0.135,0.125
'0:06.225',-0.140,0.120
'0:06.228',-0.145,0.085
'0:06.231',-0.170,0.095
'0:06.233',-0.160,0.135
'0:06.236',-0.135,0.150
'0:06.239',-0.125,0.125
'0:06.242',-0.165,0.110
'0:06.244',-0.200,0.105
'0:06.247',-0.225,0.100
'0:06.250',-0.215,0.110
'0:06.253',-0.190,0.110
'0:06.256',-0.170,0.120
'0:06.258',-0.175,0.120
'0:06.261',-0.185,0.100
'0:06.264',-0.185,0.110
'0:06.267',-0.155,0.110
'0:06.269',-0.150,0.130
'0:06.272',-0.135,0.115
'0:06.275',-0.130,0.090
'0:06.278',-0.125,0.115
'0:06.281',-0.135,0.115
'0:06.283',-0.120,0.135
'0:06.286',-0.100,0.120
'0:06.289',-0.090,0.130
'0:06.292',-0.080,0.125
'0:06.294',-0.080,0.110
'0:06.297',-0.095,0.095
'0:06.300',-0.090,0.115
'0:06.303',-0.085,0.130
'0:06.306',-0.110,0.125
'0:06.308',-0.120,0.105
'0:06.311',-0.130,0.095
'0:06.314',-0.155,0.100
'0:06.317',-0.135,0.100
'0:06.319',-0.135,0.085
'0:06.322',-0.125,0.105
'0:06.325',-0.140,0.105
'0:06.328',-0.155,0.095
'0:06.331',-0.175,0.075
'0:06.333',-0.150,0.075
'0:06.336',-0.165,0.110
'0:06.339',-0.165,0.105
'0:06.342',-0.160,0.070
'0:06.344',-0.185,0.055
'0:06.347',-0.215,0.070
'0:06.350',-0.210,0.095
'0:06.353',-0.175,0.095
'0:06.356',-0.145,0.080
'0:06.358',-0.150,0.090
'0:06.361',-0.170,0.090
'0:06.364',-0.180,0.085
'0:06.367',-0.150,0.065
'0:06.369',-0.150,0.090
'0:06.372',-0.135,0.110
'0:06.375',-0.155,0.095
'0:06.378',-0.170,0.070
'0:06.381',-0.195,0.070
'0:06.383',-0.185,0.095
'0:06.386',-0.185,0.090
'0:06.389',-0.170,0.060
'0:06.392',-0.170,0.070
'0:06.394',-0.180,0.075
'0:06.397',-0.185,0.090
'0:06.400',-0.185,0.085
'0:06.403',-0.195,0.080
'0:06.406',-0.210,0.100
'0:06.408',-0.210,0.100
'0:06.411',-0.200,0.075
'0:06.414',-0.175,0.060
'0:06.417',-0.165,0.080
'0:06.419',-0.165,0.110
'0:06.422',-0.185,0.095
'0:06.425',-0.210,0.075
'0:06.428',-0.240,0.075
'0:06.431',-0.245,0.080
'0:06.433',-0.245,0.085
'0:06.436',-0.240,0.075
'0:06.439',-0.215,0.075
'0:06.442',-0.185,0.080
'0:06.444',-0.125,0.090
'0:06.447',-0.050,0.070
'0:06.450',0.035,0.070
'0:06.453',0.145,0.105
'0:06.456',0.235,0.100
'0:06.458',0.325,0.075
'0:06.461',0.440,0.065
'0:06.464',0.555,0.090
'0:06.467',0.695,0.130
'0:06.469',0.830,0.135
'0:06.472',0.965,0.115
'0:06.475',1.095,0.120
'0:06.478',1.155,0.125
'0:06.481',1.145,0.110
'0:06.483',1.065,0.090
'0:06.486',0.920,0.110
'0:06.489',0.660,0.140
'0:06.492',0.215,0.140
'0:06.494',-0.185,0.120
'0:06.497',-0.405,0.135
'0:06.500',-0.480,0.155
'0:06.503',-0.490,0.150
'0:06.506',-0.460,0.130
'0:06.508',-0.420,0.120
'0:06.511',-0.370,0.130
'0:06.514',-0.350,0.130
'0:06.517',-0.340,0.130
'0:06.519',-0.340,0.120
'0:06.522',-0.340,0.120
'0:06.525',-0.355,0.130
'0:06.528',-0.385,0.100
'0:06.531',-0.390,0.085
'0:06.533',-0.375,0.095
'0:06.536',-0.365,0.120
'0:06.539',-0.370,0.120
'0:06.542',-0.360,0.090
'0:06.544',-0.355,0.085
'0:06.547',-0.370,0.080
'0:06.550',-0.335,0.095
'0:06.553',-0.315,0.090
'0:06.556',-0.305,0.070
'0:06.558',-0.295,0.080
'0:06.561',-0.310,0.100
'0:06.564',-0.320,0.085
'0:06.567',-0.305,0.090
'0:06.569',-0.290,0.105
'0:06.572',-0.275,0.100
'0:06.575',-0.275,0.085
'0:06.578',-0.265,0.060
'0:06.581',-0.275,0.065
'0:06.583',-0.285,0.090
'0:06.586',-0.280,0.110
'0:06.589',-0.275,0.090
'0:06.592',-0.265,0.085
'0:06.594',-0.270,0.085
'0:06.597',-0.265,0.095
'0:06.600',-0.250,0.080
'0:06.603',-0.255,0.085
'0:06.606',-0.265,0.100
'0:06.608',-0.275,0.105
'0:06.611',-0.300,0.095
'0:06.614',-0.310,0.070
'0:06.617',-0.300,0.095
'0:06.619',-0.270,0.115
'0:06.622',-0.255,0.100
'0:06.625',-0.260,0.080
'0:06.628',-0.265,0.065
'0:06.631',-0.275,0.095
'0:06.633',-0.245,0.110
'0:06.636',-0.235,0.105
'0:06.639',-0.260,0.100
'0:06.642',-0.290,0.110
'0:06.644',-0.305,0.110
'0:06.647',-0.315,0.090
'0:06.650',-0.305,0.080
'0:06.653',-0.285,0.110
'0:06.656',-0.265,0.125
'0:06.658',-0.245,0.125
'0:06.661',-0.240,0.105
'0:06.664',-0.235,0.100
'0:06.667',-0.235,0.115
'0:06.669',-0.220,0.135
'0:06.672',-0.200,0.105
'0:06.675',-0.210,0.090
'0:06.678',-0.225,0.105
'0:06.681',-0.255,0.120
'0:06.683',-0.235,0.110
'0:06.686',-0.220,0.105
'0:06.689',-0.205,0.125
'0:06.692',-0.200,0.120
'0:06.694',-0.200,0.100
'0:06.697',-0.210,0.095
'0:06.700',-0.235,0.110
'0:06.703',-0.250,0.130
'0:06.706',-0.250,0.125
'0:06.708',-0.235,0.115
'0:06.711',-0.215,0.110
'0:06.714',-0.210,0.110
'0:06.717',-0.200,0.105
'0:06.719',-0.195,0.115
'0:06.722',-0.180,0.115
'0:06.725',-0.185,0.125
'0:06.728',-0.180,0.120
'0:06.731',-0.185,0.095
'0:06.733',-0.155,0.125
'0:06.736',-0.140,0.140
'0:06.739',-0.120,0.125
'0:06.742',-0.145,0.095
'0:06.744',-0.185,0.095
'0:06.747',-0.235,0.115
'0:06.750',-0.225,0.140
'0:06.753',-0.195,0.125
'0:06.756',-0.155,0.125
'0:06.758',-0.145,0.135
'0:06.761',-0.125,0.130
'0:06.764',-0.125,0.110
'0:06.767',-0.120,0.105
'0:06.769',-0.120,0.145
'0:06.772',-0.125,0.140
'0:06.775',-0.135,0.115
'0:06.778',-0.135,0.120
'0:06.781',-0.150,0.120
'0:06.783',-0.135,0.115
'0:06.786',-0.125,0.105
'0:06.789',-0.120,0.120
'0:06.792',-0.105,0.130
'0:06.794',-0.100,0.110
'0:06.797',-0.105,0.095
'0:06.800',-0.120,0.110
'0:06.803',-0.140,0.120
'0:06.806',-0.135,0.100
'0:06.808',-0.150,0.075
'0:06.811',-0.150,0.085
'0:06.814',-0.165,0.105
'0:06.817',-0.160,0.105
'0:06.819',-0.150,0.080
'0:06.822',-0.165,0.100
'0:06.825',-0.185,0.110
'0:06.828',-0.185,0.070
'0:06.831',-0.195,0.070
'0:06.833',-0.190,0.095
'0:06.836',-0.190,0.110
'0:06.839',-0.200,0.095
'0:06.842',-0.210,0.075
'0:06.844',-0.230,0.075
'0:06.847',-0.230,0.090
'0:06.850',-0.205,0.080
'0:06.853',-0.180,0.060
'0:06.856',-0.185,0.070
'0:06.858',-0.175,0.090
'0:06.861',-0.175,0.085
'0:06.864',-0.190,0.060
'0:06.867',-0.190,0.075
'0:06.869',-0.230,0.105
'0:06.872',-0.275,0.085
'0:06.875',-0.295,0.065
'0:06.878',-0.290,0.060
'0:06.881',-0.275,0.075
'0:06.883',-0.250,0.095
'0:06.886',-0.215,0.075
'0:06.889',-0.180,0.080
'0:06.892',-0.185,0.085
'0:06.894',-0.170,0.065
'0:06.897',-0.170,0.060
'0:06.900',-0.130,0.075
'0:06.903',-0.100,0.095
'0:06.906',-0.065,0.090
'0:06.908',-0.045,0.065
'0:06.911',-0.055,0.070
'0:06.914',-0.045,0.070
'0:06.917',-0.030,0.060
'0:06.919',-0.025,0.040
'0:06.922',0.000,0.040
'0:06.925',0.020,0.045
'0:06.928',0.010,0.020
'0:06.931',-0.030,0.000
'0:06.933',-0.085,0.000
'0:06.936',-0.195,0.005
'0:06.939',-0.445,-0.030
'0:06.942',-0.835,-0.060
'0:06.944',-1.260,-0.055
'0:06.947',-1.635,-0.035
'0:06.950',-1.945,-0.040
'0:06.953',-2.130,-0.045
'0:06.956',-2.175,-0.030
'0:06.958',-2.175,-0.015
'0:06.961',-2.155,-0.045
'0:06.964',-2.130,-0.055
'0:06.967',-2.070,-0.010
'0:06.969',-1.985,0.025
'0:06.972',-1.880,0.020
'0:06.975',-1.770,0.015
'0:06.978',-1.660,0.045
'0:06.981',-1.545,0.065
'0:06.983',-1.395,0.065
'0:06.986',-1.210,0.070
'0:06.989',-1.085,0.080
'0:06.992',-1.005,0.105
'0:06.994',-0.950,0.085
'0:06.997',-0.900,0.070
'0:07.000',-0.845,0.100
'0:07.003',-0.775,0.115
'0:07.006',-0.710,0.095
'0:07.008',-0.670,0.080
'0:07.011',-0.635,0.080
'0:07.014',-0.590,0.105
'0:07.017',-0.520,0.095
'0:07.019',-0.455,0.085
'0:07.022',-0.400,0.100
'0:07.025',-0.345,0.115
'0:07.028',-0.250,0.090
'0:07.031',-0.165,0.070
'0:07.033',-0.090,0.110
'0:07.036',-0.030,0.145
'0:07.039',0.040,0.130
'0:07.042',0.095,0.115
'0:07.044',0.140,0.125
'0:07.047',0.160,0.135
'0:07.050',0.175,0.130
'0:07.053',0.215,0.130
'0:07.056',0.240,0.140
'0:07.058',0.275,0.155
'0:07.061',0.275,0.135
'0:07.064',0.285,0.135
'0:07.067',0.315,0.165
'0:07.069',0.320,0.180
'0:07.072',0.340,0.140
'0:07.075',0.355,0.140
'0:07.078',0.380,0.150
'0:07.081',0.385,0.145
'0:07.083',0.400,0.145
'0:07.086',0.425,0.150
'0:07.089',0.465,0.170
'0:07.092',0.495,0.165
'0:07.094',0.505,0.130
'0:07.097',0.515,0.140
'0:07.100',0.555,0.170
'0:07.103',0.600,0.185
'0:07.106',0.625,0.155
'0:07.108',0.630,0.165
'0:07.111',0.630,0.165
'0:07.114',0.645,0.150
'0:07.117',0.655,0.140
'0:07.119',0.690,0.165
'0:07.122',0.710,0.170
'0:07.125',0.720,0.165
'0:07.128',0.720,0.140
'0:07.131',0.715,0.145
'0:07.133',0.720,0.180
'0:07.136',0.735,0.180
'0:07.139',0.735,0.165
'0:07.142',0.755,0.155
'0:07.144',0.740,0.170
'0:07.147',0.730,0.160
'0:07.150',0.740,0.160
'0:07.153',0.760,0.175
'0:07.156',0.770,0.195
'0:07.158',0.750,0.175
'0:07.161',0.730,0.145
'0:07.164',0.710,0.155
'0:07.167',0.700,0.175
'0:07.169',0.690,0.190
'0:07.172',0.680,0.165
'0:07.175',0.660,0.170
'0:07.178',0.635,0.170
'0:07.181',0.600,0.155
'0:07.183',0.575,0.150
'0:07.186',0.545,0.165
'0:07.189',0.495,0.170
'0:07.192',0.455,0.165
'0:07.194',0.440,0.140
'0:07.197',0.420,0.155
'0:07.200',0.395,0.175
'0:07.203',0.380,0.160
'0:07.206',0.365,0.140
'0:07.208',0.355,0.140
'0:07.211',0.315,0.160
'0:07.214',0.280,0.145
'0:07.217',0.250,0.135
'0:07.219',0.240,0.155
'0:07.222',0.230,0.170
'0:07.225',0.215,0.145
'0:07.228',0.195,0.115
'0:07.231',0.180,0.125
'0:07.233',0.160,0.150
'0:07.236',0.150,0.165
'0:07.239',0.125,0.140
'0:07.242',0.115,0.140
'0:07.244',0.090,0.150
'0:07.247',0.055,0.135
'0:07.250',0.040,0.125
'0:07.253',0.010,0.125
'0:07.256',-0.015,0.145
'0:07.258',-0.035,0.145
'0:07.261',-0.040,0.110
'0:07.264',-0.045,0.125
'0:07.267',-0.045,0.150
'0:07.269',-0.030,0.145
'0:07.272',-0.040,0.115
'0:07.275',-0.030,0.120
'0:07.278',-0.040,0.130
'0:07.281',-0.050,0.135
'0:07.283',-0.050,0.115
'0:07.286',-0.055,0.135
'0:07.289',-0.065,0.150
'0:07.292',-0.065,0.145
'0:07.294',-0.065,0.110
'0:07.297',-0.070,0.100
'0:07.300',-0.080,0.125
'0:07.303',-0.105,0.150
'0:07.306',-0.105,0.130
'0:07.308',-0.105,0.100
'0:07.311',-0.115,0.115
'0:07.314',-0.105,0.115
'0:07.317',-0.085,0.105
'0:07.319',-0.085,0.100
'0:07.322',-0.095,0.120
'0:07.325',-0.090,0.125
'0:07.328',-0.110,0.100
'0:07.331',-0.120,0.085
'0:07.333',-0.120,0.110
'0:07.336',-0.120,0.125
'0:07.339',-0.105,0.110
'0:07.342',-0.110,0.090
'0:07.344',-0.115,0.100
'0:07.347',-0.135,0.105
'0:07.350',-0.140,0.110
'0:07.353',-0.125,0.115
'0:07.356',-0.120,0.110
'0:07.358',-0.110,0.105
'0:07.361',-0.130,0.085
'0:07.364',-0.140,0.065
'0:07.367',-0.155,0.095
'0:07.369',-0.155,0.120
'0:07.372',-0.155,0.115
'0:07.375',-0.160,0.080
'0:07.378',-0.175,0.065
'0:07.381',-0.195,0.095
'0:07.383',-0.180,0.105
'0:07.386',-0.170,0.085
'0:07.389',-0.155,0.075
'0:07.392',-0.140,0.095
'0:07.394',-0.130,0.095
'0:07.397',-0.140,0.080
'0:07.400',-0.160,0.070
'0:07.403',-0.175,0.090
'0:07.406',-0.190,0.105
'0:07.408',-0.210,0.095
'0:07.411',-0.200,0.055
'0:07.414',-0.180,0.070
'0:07.417',-0.170,0.120
'0:07.419',-0.180,0.110
'0:07.422',-0.170,0.095
'0:07.425',-0.185,0.085
'0:07.428',-0.180,0.100
'0:07.431',-0.195,0.100
'0:07.433',-0.185,0.075
'0:07.436',-0.180,0.085
'0:07.439',-0.175,0.100
'0:07.442',-0.185,0.105
'0:07.444',-0.200,0.075
'0:07.447',-0.225,0.075
'0:07.450',-0.225,0.090
'0:07.453',-0.205,0.130
'0:07.456',-0.185,0.100
'0:07.458',-0.190,0.075
'0:07.461',-0.195,0.075
'0:07.464',-0.185,0.100
'0:07.467',-0.170,0.105
'0:07.469',-0.170,0.085
'0:07.472',-0.190,0.075
'0:07.475',-0.210,0.115
'0:07.478',-0.220,0.110
'0:07.481',-0.225,0.085
'0:07.483',-0.200,0.075
'0:07.486',-0.185,0.100
'0:07.489',-0.180,0.115
'0:07.492',-0.210,0.105
'0:07.494',-0.215,0.075
'0:07.497',-0.210,0.080
'0:07.500',-0.195,0.100
'0:07.503',-0.205,0.115
'0:07.506',-0.215,0.080
'0:07.508',-0.205,0.085
'0:07.511',-0.195,0.095
'0:07.514',-0.200,0.115
'0:07.517',-0.210,0.100
'0:07.519',-0.215,0.095
'0:07.522',-0.215,0.110
'0:07.525',-0.205,0.125
'0:07.528',-0.195,0.105
'0:07.531',-0.205,0.080
'0:07.533',-0.180,0.095
'0:07.536',-0.165,0.135
'0:07.539',-0.160,0.130
'0:07.542',-0.130,0.115
'0:07.544',-0.130,0.100
'0:07.547',-0.135,0.125
'0:07.550',-0.125,0.130
'0:07.553',-0.145,0.105
'0:07.556',-0.155,0.115
'0:07.558',-0.185,0.115
'0:07.561',-0.200,0.110
'0:07.564',-0.210,0.110
'0:07.567',-0.205,0.100
'0:07.569',-0.195,0.110
'0:07.572',-0.190,0.125
'0:07.575',-0.190,0.105
'0:07.578',-0.185,0.075
'0:07.581',-0.185,0.080
'0:07.583',-0.170,0.110
'0:07.586',-0.180,0.115
'0:07.589',-0.180,0.090
'0:07.592',-0.185,0.075
'0:07.594',-0.180,0.090
'0:07.597',-0.190,0.105
'0:07.600',-0.220,0.095
'0:07.603',-0.255,0.095
'0:07.606',-0.260,0.095
'0:07.608',-0.270,0.120
'0:07.611',-0.265,0.115
'0:07.614',-0.240,0.090
'0:07.617',-0.230,0.095
'0:07.619',-0.205,0.110
'0:07.622',-0.210,0.120
'0:07.625',-0.240,0.100
'0:07.628',-0.260,0.085
'0:07.631',-0.265,0.085
'0:07.633',-0.270,0.110
'0:07.636',-0.255,0.115
'0:07.639',-0.260,0.090
'0:07.642',-0.265,0.100
'0:07.644',-0.275,0.105
'0:07.647',-0.265,0.115
'0:07.650',-0.255,0.085
'0:07.653',-0.235,0.090
'0:07.656',-0.245,0.110
'0:07.658',-0.260,0.110
'0:07.661',-0.260,0.090
'0:07.664',-0.270,0.080
'0:07.667',-0.255,0.095
'0:07.669',-0.230,0.130
'0:07.672',-0.230,0.115
'0:07.675',-0.245,0.075
'0:07.678',-0.240,0.085
'0:07.681',-0.260,0.080
'0:07.683',-0.270,0.105
'0:07.686',-0.280,0.090
'0:07.689',-0.285,0.070
'0:07.692',-0.290,0.085
'0:07.694',-0.295,0.095
'0:07.697',-0.290,0.080
'0:07.700',-0.255,0.065
'0:07.703',-0.200,0.075
'0:07.706',-0.120,0.090
'0:07.708',-0.050,0.100
'0:07.711',0.015,0.070
'0:07.714',0.090,0.070
'0:07.717',0.180,0.075
'0:07.719',0.265,0.115
'0:07.722',0.370,0.110
'0:07.725',0.480,0.085
'0:07.728',0.595,0.080
'0:07.731',0.705,0.110
'0:07.733',0.790,0.120
'0:07.736',0.850,0.105
'0:07.739',0.855,0.095
'0:07.742',0.795,0.115
'0:07.744',0.685,0.125
'0:07.747',0.515,0.120
'0:07.750',0.280,0.120
'0:07.753',0.015,0.140
'0:07.756',-0.215,0.165
'0:07.758',-0.390,0.155
'0:07.761',-0.495,0.125
'0:07.764',-0.555,0.140
'0:07.767',-0.540,0.175
'0:07.769',-0.485,0.165
'0:07.772',-0.450,0.135
'0:07.775',-0.440,0.115
'0:07.778',-0.430,0.120
'0:07.781',-0.445,0.125
'0:07.783',-0.430,0.120
'0:07.786',-0.415,0.105
'0:07.789',-0.400,0.110
'0:07.792',-0.400,0.115
'0:07.794',-0.405,0.100
'0:07.797',-0.420,0.075
'0:07.800',-0.405,0.075
'0:07.803',-0.395,0.105
'0:07.806',-0.385,0.105
'0:07.808',-0.375,0.070
'0:07.811',-0.395,0.050
'0:07.814',-0.410,0.050
'0:07.817',-0.405,0.090
'0:07.819',-0.365,0.105
'0:07.822',-0.335,0.075
'0:07.825',-0.320,0.060
'0:07.828',-0.335,0.075
'0:07.831',-0.340,0.090
'0:07.833',-0.340,0.085
'0:07.836',-0.335,0.075
'0:07.839',-0.340,0.075
'0:07.842',-0.335,0.090
'0:07.844',-0.345,0.095
'0:07.847',-0.350,0.070
'0:07.850',-0.345,0.060
'0:07.853',-0.335,0.075
'0:07.856',-0.330,0.090
'0:07.858',-0.320,0.080
'0:07.861',-0.330,0.050
'0:07.864',-0.335,0.050
'0:07.867',-0.330,0.085
'0:07.869',-0.330,0.100
'0:07.872',-0.320,0.090
'0:07.875',-0.310,0.055
'0:07.878',-0.305,0.045
'0:07.881',-0.305,0.070
'0:07.883',-0.310,0.080
'0:07.886',-0.310,0.075
'0:07.889',-0.295,0.055
'0:07.892',-0.300,0.080
'0:07.894',-0.315,0.080
'0:07.897',-0.320,0.065
'0:07.900',-0.330,0.065
'0:07.903',-0.315,0.070
'0:07.906',-0.320,0.075
'0:07.908',-0.320,0.060
'0:07.911',-0.325,0.035
'0:07.914',-0.310,0.030
'0:07.917',-0.295,0.065
'0:07.919',-0.285,0.080
'0:07.922',-0.280,0.070
'0:07.925',-0.300,0.050
'0:07.928',-0.300,0.035
'0:07.931',-0.285,0.055
'0:07.933',-0.270,0.070
'0:07.936',-0.245,0.075
'0:07.939',-0.240,0.055
'0:07.942',-0.260,0.070
'0:07.944',-0.265,0.080
'0:07.947',-0.280,0.080
'0:07.950',-0.270,0.070
'0:07.953',-0.280,0.075
'0:07.956',-0.290,0.090
'0:07.958',-0.290,0.080
'0:07.961',-0.295,0.070
'0:07.964',-0.270,0.055
'0:07.967',-0.250,0.080
'0:07.969',-0.235,0.105
'0:07.972',-0.225,0.100
'0:07.975',-0.245,0.085
'0:07.978',-0.280,0.080
'0:07.981',-0.285,0.085
'0:07.983',-0.280,0.085
'0:07.986',-0.260,0.080
'0:07.989',-0.245,0.080
'0:07.992',-0.240,0.095
'0:07.994',-0.250,0.090
'0:07.997',-0.255,0.095
'0:08.000',-0.240,0.075
'0:08.003',-0.225,0.095
'0:08.006',-0.225,0.105
'0:08.008',-0.230,0.105
'0:08.011',-0.240,0.075
'0:08.014',-0.235,0.060
'0:08.017',-0.230,0.080
'0:08.019',-0.205,0.100
'0:08.022',-0.195,0.110
'0:08.025',-0.195,0.085
'0:08.028',-0.190,0.070
'0:08.031',-0.195,0.080
'0:08.033',-0.200,0.095
'0:08.036',-0.205,0.090
'0:08.039',-0.190,0.080
'0:08.042',-0.210,0.080
'0:08.044',-0.215,0.090
'0:08.047',-0.220,0.105
'0:08.050',-0.225,0.110
'0:08.053',-0.205,0.090
'0:08.056',-0.190,0.105
'0:08.058',-0.195,0.105
'0:08.061',-0.195,0.100
'0:08.064',-0.205,0.075
'0:08.067',-0.215,0.090
'0:08.069',-0.180,0.105
'0:08.072',-0.180,0.115
'0:08.075',-0.190,0.120
'0:08.078',-0.190,0.095
'0:08.081',-0.190,0.095
'0:08.083',-0.185,0.100
'0:08.086',-0.165,0.120
'0:08.089',-0.165,0.130
'0:08.092',-0.190,0.100
'0:08.094',-0.220,0.085
'0:08.097',-0.230,0.090
'0:08.100',-0.200,0.120
'0:08.103',-0.205,0.130
'0:08.106',-0.185,0.110
'0:08.108',-0.200,0.110
'0:08.111',-0.215,0.115
'0:08.114',-0.240,0.115
'0:08.117',-0.220,0.125
'0:08.119',-0.210,0.110
'0:08.122',-0.195,0.110
'0:08.125',-0.220,0.115
'0:08.128',-0.270,0.120
'0:08.131',-0.270,0.105
'0:08.133',-0.265,0.110
'0:08.136',-0.245,0.130
'0:08.139',-0.245,0.125
'0:08.142',-0.240,0.115
'0:08.144',-0.255,0.095
'0:08.147',-0.265,0.085
'0:08.150',-0.265,0.115
'0:08.153',-0.260,0.140
'0:08.156',-0.255,0.130
'0:08.158',-0.230,0.105
'0:08.161',-0.250,0.110
'0:08.164',-0.260,0.115
'0:08.167',-0.265,0.120
'0:08.169',-0.260,0.115
'0:08.172',-0.255,0.100
'0:08.175',-0.265,0.110
'0:08.178',-0.265,0.110
'0:08.181',-0.275,0.120
'0:08.183',-0.275,0.115
'0:08.186',-0.270,0.120
'0:08.189',-0.285,0.120
'0:08.192',-0.295,0.110
'0:08.194',-0.295,0.100
'0:08.197',-0.295,0.080
'0:08.200',-0.290,0.095
'0:08.203',-0.250,0.125
'0:08.206',-0.215,0.125
'0:08.208',-0.210,0.110
'0:08.211',-0.210,0.090
'0:08.214',-0.225,0.095
'0:08.217',-0.205,0.120
'0:08.219',-0.185,0.125
'0:08.222',-0.160,0.100
'0:08.225',-0.130,0.085
'0:08.228',-0.130,0.085
'0:08.231',-0.135,0.110
'0:08.233',-0.130,0.105
'0:08.236',-0.110,0.100
'0:08.239',-0.070,0.095
'0:08.242',-0.060,0.080
'0:08.244',-0.055,0.075
'0:08.247',-0.035,0.070
'0:08.250',0.030,0.045
'0:08.253',0.115,0.045
'0:08.256',0.160,0.065
'0:08.258',0.160,0.055
'0:08.261',0.120,0.035
'0:08.264',0.110,0.035
'0:08.267',0.100,0.030
'0:08.269',0.075,0.050
'0:08.272',-0.005,0.045
'0:08.275',-0.160,0.010
'0:08.278',-0.430,-0.020
'0:08.281',-0.820,-0.005
'0:08.283',-1.200,0.030
'0:08.286',-1.525,0.055
'0:08.289',-1.745,0.035
'0:08.292',-1.865,0.020
'0:08.294',-1.910,0.010
'0:08.297',-1.955,0.040
'0:08.300',-1.965,0.040
'0:08.303',-1.940,0.035
'0:08.306',-1.910,0.035
'0:08.308',-1.900,0.030
'0:08.311',-1.890,0.060
'0:08.314',-1.870,0.075
'0:08.317',-1.785,0.070
'0:08.319',-1.670,0.095
'0:08.322',-1.525,0.100
'0:08.325',-1.455,0.105
'0:08.328',-1.420,0.090
'0:08.331',-1.370,0.075
'0:08.333',-1.300,0.090
'0:08.336',-1.190,0.120
'0:08.339',-1.075,0.135
'0:08.342',-0.990,0.125
'0:08.344',-0.945,0.105
'0:08.347',-0.890,0.095
'0:08.350',-0.825,0.110
'0:08.353',-0.780,0.135
'0:08.356',-0.735,0.095
'0:08.358',-0.700,0.080
'0:08.361',-0.650,0.075
'0:08.364',-0.605,0.090
'0:08.367',-0.550,0.105
'0:08.369',-0.525,0.095
'0:08.372',-0.510,0.075
'0:08.375',-0.510,0.095
'0:08.378',-0.500,0.090
'0:08.381',-0.490,0.085
'0:08.383',-0.450,0.080
'0:08.386',-0.415,0.070
'0:08.389',-0.390,0.075
'0:08.392',-0.335,0.085
'0:08.394',-0.290,0.090
'0:08.397',-0.230,0.085
'0:08.400',-0.160,0.080
'0:08.403',-0.095,0.100
'0:08.406',-0.030,0.115
'0:08.408',0.010,0.105
'0:08.411',0.030,0.075
'0:08.414',0.055,0.065
'0:08.417',0.090,0.095
'0:08.419',0.120,0.110
'0:08.422',0.145,0.115
'0:08.425',0.160,0.110
'0:08.428',0.175,0.115
'0:08.431',0.165,0.110
'0:08.433',0.175,0.095
'0:08.436',0.195,0.090
'0:08.439',0.235,0.100
'0:08.442',0.250,0.110
'0:08.444',0.255,0.115
'0:08.447',0.240,0.105
'0:08.450',0.270,0.110
'0:08.453',0.280,0.115
'0:08.456',0.300,0.130
'0:08.458',0.330,0.115
'0:08.461',0.355,0.085
'0:08.464',0.370,0.075
'0:08.467',0.390,0.110
'0:08.469',0.395,0.140
'0:08.472',0.410,0.135
'0:08.475',0.425,0.105
'0:08.478',0.430,0.095
'0:08.481',0.470,0.100
'0:08.483',0.485,0.130
'0:08.486',0.520,0.130
'0:08.489',0.540,0.100
'0:08.492',0.535,0.095
'0:08.494',0.535,0.120
'0:08.497',0.545,0.140
'0:08.500',0.570,0.130
'0:08.503',0.590,0.115
'0:08.506',0.615,0.115
'0:08.508',0.610,0.130
'0:08.511',0.620,0.125
'0:08.514',0.610,0.120
'0:08.517',0.615,0.105
'0:08.519',0.630,0.100
'0:08.522',0.635,0.110
'0:08.525',0.635,0.125
'0:08.528',0.655,0.130
'0:08.531',0.660,0.100
'0:08.533',0.660,0.100
'0:08.536',0.660,0.120
'0:08.539',0.655,0.140
'0:08.542',0.645,0.125
'0:08.544',0.610,0.090
'0:08.547',0.590,0.085
'0:08.550',0.605,0.115
'0:08.553',0.615,0.135
'0:08.556',0.625,0.140
'0:08.558',0.620,0.110
'0:08.561',0.590,0.105
'0:08.564',0.560,0.135
'0:08.567',0.565,0.150
'0:08.569',0.560,0.140
'0:08.572',0.560,0.105
'0:08.575',0.530,0.085
'0:08.578',0.495,0.110
'0:08.581',0.475,0.125
'0:08.583',0.465,0.115
'0:08.586',0.475,0.115
'0:08.589',0.470,0.110
'0:08.592',0.440,0.120
'0:08.594',0.420,0.125
'0:08.597',0.390,0.110
'0:08.600',0.385,0.105
'0:08.603',0.360,0.110
'0:08.606',0.350,0.120
'0:08.608',0.315,0.125
'0:08.611',0.280,0.100
'0:08.614',0.245,0.105
'0:08.617',0.225,0.110
'0:08.619',0.215,0.140
'0:08.622',0.190,0.135
'0:08.625',0.165,0.120
'0:08.628',0.150,0.085
'0:08.631',0.120,0.090
'0:08.633',0.110,0.130
'0:08.636',0.085,0.150
'0:08.639',0.080,0.125
'0:08.642',0.050,0.095
'0:08.644',0.030,0.090
'0:08.647',0.010,0.110
'0:08.650',0.005,0.135
'0:08.653',0.005,0.125
'0:08.656',0.000,0.105
'0:08.658',0.005,0.085
'0:08.661',-0.015,0.085
'0:08.664',-0.050,0.110
'0:08.667',-0.075,0.115
'0:08.669',-0.100,0.110
'0:08.672',-0.105,0.095
'0:08.675',-0.085,0.105
'0:08.678',-0.060,0.115
'0:08.681',-0.060,0.120
'0:08.683',-0.045,0.110
'0:08.686',-0.050,0.100
'0:08.689',-0.050,0.100
'0:08.692',-0.050,0.120
'0:08.694',-0.070,0.125
'0:08.697',-0.075,0.100
'0:08.700',-0.080,0.100
'0:08.703',-0.095,0.120
'0:08.706',-0.105,0.140
'0:08.708',-0.085,0.135
'0:08.711',-0.090,0.110
'0:08.714',-0.105,0.090
'0:08.717',-0.100,0.105
'0:08.719',-0.100,0.140
'0:08.722',-0.085,0.135
'0:08.725',-0.090,0.115
'0:08.728',-0.110,0.090
'0:08.731',-0.120,0.100
'0:08.733',-0.110,0.130
'0:08.736',-0.085,0.145
'0:08.739',-0.075,0.120
'0:08.742',-0.085,0.090
'0:08.744',-0.100,0.095
'0:08.747',-0.130,0.120
'0:08.750',-0.130,0.125
'0:08.753',-0.140,0.120
'0:08.756',-0.145,0.115
'0:08.758',-0.145,0.125
'0:08.761',-0.145,0.120
'0:08.764',-0.150,0.115
'0:08.767',-0.150,0.100
'0:08.769',-0.150,0.100
'0:08.772',-0.135,0.100
'0:08.775',-0.130,0.110
'0:08.778',-0.135,0.085
'0:08.781',-0.140,0.095
'0:08.783',-0.130,0.125
'0:08.786',-0.120,0.140
'0:08.789',-0.120,0.120
'0:08.792',-0.120,0.100
'0:08.794',-0.120,0.100
'0:08.797',-0.135,0.115
'0:08.800',-0.140,0.110
'0:08.803',-0.150,0.115
'0:08.806',-0.130,0.110
'0:08.808',-0.120,0.115
'0:08.811',-0.120,0.115
'0:08.814',-0.125,0.120
'0:08.817',-0.140,0.095
'0:08.819',-0.160,0.105
'0:08.822',-0.180,0.105
'0:08.825',-0.205,0.115
'0:08.828',-0.230,0.100
'0:08.831',-0.205,0.090
'0:08.833',-0.200,0.090
'0:08.836',-0.190,0.120
'0:08.839',-0.195,0.125
'0:08.842',-0.190,0.110
'0:08.844',-0.210,0.090
'0:08.847',-0.240,0.090
'0:08.850',-0.240,0.120
'0:08.853',-0.235,0.135
'0:08.856',-0.210,0.105
'0:08.858',-0.190,0.095
'0:08.861',-0.185,0.100
'0:08.864',-0.200,0.115
'0:08.867',-0.200,0.120
'0:08.869',-0.200,0.105
'0:08.872',-0.175,0.100
'0:08.875',-0.170,0.115
'0:08.878',-0.185,0.110
'0:08.881',-0.210,0.090
'0:08.883',-0.220,0.090
'0:08.886',-0.215,0.115
'0:08.889',-0.220,0.125
'0:08.892',-0.230,0.115
'0:08.894',-0.240,0.075
'0:08.897',-0.235,0.080
'0:08.900',-0.225,0.105
'0:08.903',-0.200,0.115
'0:08.906',-0.175,0.090
'0:08.908',-0.175,0.080
'0:08.911',-0.175,0.090
'0:08.914',-0.185,0.100
'0:08.917',-0.185,0.105
'0:08.919',-0.175,0.090
'0:08.922',-0.175,0.090
'0:08.925',-0.195,0.100
'0:08.928',-0.225,0.100
'0:08.931',-0.245,0.075
'0:08.933',-0.230,0.075
'0:08.936',-0.210,0.100
'0:08.939',-0.200,0.115
'0:08.942',-0.190,0.100
'0:08.944',-0.200,0.075
'0:08.947',-0.205,0.065
'0:08.950',-0.210,0.100
'0:08.953',-0.215,0.100
'0:08.956',-0.215,0.085
'0:08.958',-0.220,0.070
'0:08.961',-0.210,0.090
'0:08.964',-0.175,0.100
'0:08.967',-0.145,0.100
'0:08.969',-0.125,0.090
'0:08.972',-0.135,0.095
'0:08.975',-0.140,0.100
'0:08.978',-0.145,0.085
'0:08.981',-0.155,0.065
'0:08.983',-0.150,0.095
'0:08.986',-0.150,0.120
'0:08.989',-0.145,0.120
'0:08.992',-0.140,0.085
'0:08.994',-0.165,0.080
'0:08.997',-0.180,0.085
'0:09.000',-0.165,0.090
'0:09.003',-0.160,0.085
'0:09.006',-0.155,0.075
'0:09.008',-0.175,0.100
'0:09.011',-0.205,0.095
'0:09.014',-0.225,0.075
'0:09.017',-0.210,0.075
'0:09.019',-0.185,0.105
'0:09.022',-0.175,0.100
'0:09.025',-0.175,0.090
'0:09.028',-0.200,0.060
'0:09.031',-0.225,0.065
'0:09.033',-0.230,0.095
'0:09.036',-0.215,0.105
'0:09.039',-0.210,0.075
'0:09.042',-0.210,0.075
'0:09.044',-0.205,0.085
'0:09.047',-0.200,0.080
'0:09.050',-0.170,0.070
'0:09.053',-0.150,0.065
'0:09.056',-0.150,0.090
'0:09.058',-0.170,0.110
'0:09.061',-0.190,0.070
'0:09.064',-0.220,0.070
'0:09.067',-0.205,0.080
'0:09.069',-0.210,0.095
'0:09.072',-0.205,0.085
'0:09.075',-0.200,0.075
'0:09.078',-0.210,0.080
'0:09.081',-0.220,0.100
'0:09.083',-0.235,0.085
'0:09.086',-0.250,0.080
'0:09.089',-0.245,0.090
'0:09.092',-0.260,0.095
'0:09.094',-0.285,0.075
'0:09.097',-0.285,0.075
'0:09.100',-0.270,0.080
'0:09.103',-0.255,0.100
'0:09.106',-0.230,0.095
'0:09.108',-0.195,0.085
'0:09.111',-0.180,0.080
'0:09.114',-0.185,0.090
'0:09.117',-0.180,0.085
'0:09.119',-0.200,0.090
'0:09.122',-0.195,0.090
'0:09.125',-0.190,0.095
'0:09.128',-0.210,0.085
'0:09.131',-0.230,0.065
'0:09.133',-0.205,0.080
'0:09.136',-0.155,0.095
'0:09.139',-0.075,0.090
'0:09.142',0.010,0.070
'0:09.144',0.095,0.055
'0:09.147',0.180,0.080
'0:09.150',0.270,0.100
'0:09.153',0.355,0.095
'0:09.156',0.455,0.080
'0:09.158',0.560,0.095
'0:09.161',0.675,0.100
'0:09.164',0.785,0.090
'0:09.167',0.905,0.090
'0:09.169',1.005,0.120
'0:09.172',1.030,0.135
'0:09.175',0.995,0.125
'0:09.178',0.875,0.100
'0:09.181',0.625,0.120
'0:09.183',0.220,0.155
'0:09.186',-0.170,0.155
'0:09.189',-0.390,0.150
'0:09.192',-0.445,0.155
'0:09.194',-0.475,0.180
'0:09.197',-0.475,0.165
'0:09.200',-0.420,0.155
'0:09.203',-0.370,0.165
'0:09.206',-0.345,0.155
'0:09.208',-0.335,0.155
'0:09.211',-0.340,0.125
'0:09.214',-0.365,0.130
'0:09.217',-0.380,0.150
'0:09.219',-0.390,0.150
'0:09.222',-0.400,0.130
'0:09.225',-0.395,0.110
'0:09.228',-0.380,0.115
'0:09.231',-0.385,0.095
'0:09.233',-0.385,0.080
'0:09.236',-0.395,0.090
'0:09.239',-0.375,0.105
'0:09.242',-0.330,0.105
'0:09.244',-0.300,0.085
'0:09.247',-0.295,0.080
'0:09.250',-0.325,0.095
'0:09.253',-0.345,0.100
'0:09.256',-0.350,0.090
'0:09.258',-0.340,0.080
'0:09.261',-0.320,0.075
'0:09.264',-0.285,0.090
'0:09.267',-0.270,0.110
'0:09.269',-0.265,0.100
'0:09.272',-0.270,0.105
'0:09.275',-0.260,0.095
'0:09.278',-0.295,0.085
'0:09.281',-0.315,0.080
'0:09.283',-0.320,0.090
'0:09.286',-0.315,0.115
'0:09.289',-0.295,0.115
'0:09.292',-0.285,0.090
'0:09.294',-0.275,0.090
'0:09.297',-0.285,0.085
'0:09.300',-0.275,0.095
'0:09.303',-0.270,0.090
'0:09.306',-0.265,0.085
'0:09.308',-0.265,0.095
'0:09.311',-0.270,0.095
'0:09.314',-0.275,0.080
'0:09.317',-0.280,0.085
'0:09.319',-0.260,0.095
'0:09.322',-0.260,0.100
'0:09.325',-0.255,0.090
'0:09.328',-0.260,0.070
'0:09.331',-0.275,0.070
'0:09.333',-0.260,0.095
'0:09.336',-0.255,0.105
'0:09.339',-0.250,0.095
'0:09.342',-0.260,0.080
'0:09.344',-0.265,0.080
'0:09.347',-0.265,0.075
'0:09.350',-0.280,0.065
'0:09.353',-0.275,0.075
'0:09.356',-0.265,0.100
'0:09.358',-0.250,0.095
'0:09.361',-0.240,0.055
'0:09.364',-0.220,0.065
'0:09.367',-0.190,0.080
'0:09.369',-0.180,0.090
'0:09.372',-0.210,0.055
'0:09.375',-0.280,0.055
'0:09.378',-0.355,0.060
'0:09.381',-0.355,0.080
'0:09.383',-0.300,0.085
'0:09.386',-0.265,0.080
'0:09.389',-0.250,0.080
'0:09.392',-0.290,0.075
'0:09.394',-0.330,0.045
'0:09.397',-0.325,0.040
'0:09.400',-0.280,0.070
'0:09.403',-0.265,0.095
'0:09.406',-0.250,0.085
'0:09.408',-0.250,0.065
'0:09.411',-0.245,0.060
'0:09.414',-0.250,0.070
'0:09.417',-0.250,0.060
'0:09.419',-0.250,0.055
'0:09.422',-0.240,0.060
'0:09.425',-0.235,0.075
'0:09.428',-0.235,0.070
'0:09.431',-0.230,0.060
'0:09.433',-0.195,0.055
'0:09.436',-0.185,0.090
'0:09.439',-0.165,0.085
'0:09.442',-0.160,0.060
'0:09.444',-0.175,0.040
'0:09.447',-0.185,0.060
'0:09.450',-0.165,0.080
'0:09.453',-0.135,0.075
'0:09.456',-0.135,0.055
'0:09.458',-0.120,0.055
'0:09.461',-0.140,0.075
'0:09.464',-0.150,0.055
'0:09.467',-0.140,0.045
'0:09.469',-0.135,0.040
'0:09.472',-0.150,0.070
'0:09.475',-0.170,0.080
'0:09.478',-0.165,0.055
'0:09.481',-0.180,0.050
'0:09.483',-0.175,0.070
'0:09.486',-0.160,0.085
'0:09.489',-0.150,0.080
'0:09.492',-0.165,0.050
'0:09.494',-0.155,0.045
'0:09.497',-0.155,0.065
'0:09.500',-0.150,0.090
'0:09.503',-0.145,0.105
'0:09.506',-0.145,0.075
'0:09.508',-0.145,0.075
'0:09.511',-0.145,0.075
'0:09.514',-0.150,0.070
'0:09.517',-0.165,0.060
'0:09.519',-0.175,0.075
'0:09.522',-0.160,0.080
'0:09.525',-0.165,0.105
'0:09.528',-0.190,0.075
'0:09.531',-0.185,0.070
'0:09.533',-0.190,0.100
'0:09.536',-0.190,0.095
'0:09.539',-0.185,0.085
'0:09.542',-0.180,0.075
'0:09.544',-0.205,0.060
'0:09.547',-0.205,0.080
'0:09.550',-0.210,0.085
'0:09.553',-0.210,0.075
'0:09.556',-0.205,0.075
'0:09.558',-0.220,0.095
'0:09.561',-0.215,0.070
'0:09.564',-0.220,0.055
'0:09.567',-0.200,0.050
'0:09.569',-0.200,0.070
'0:09.572',-0.195,0.090
'0:09.575',-0.205,0.080
'0:09.578',-0.230,0.060
'0:09.581',-0.235,0.065
'0:09.583',-0.230,0.090
'0:09.586',-0.210,0.085
'0:09.589',-0.220,0.075
'0:09.592',-0.225,0.055
'0:09.594',-0.235,0.070
'0:09.597',-0.240,0.085
'0:09.600',-0.210,0.080
'0:09.603',-0.190,0.090
'0:09.606',-0.130,0.085
'0:09.608',-0.105,0.080
'0:09.611',-0.080,0.075
'0:09.614',-0.070,0.070
'0:09.617',-0.055,0.070
'0:09.619',-0.025,0.090
'0:09.622',-0.005,0.105
'0:09.625',0.010,0.075
'0:09.628',0.000,0.055
'0:09.631',-0.020,0.060
'0:09.633',-0.010,0.070
'0:09.636',0.030,0.060
'0:09.639',0.060,0.020
'0:09.642',0.055,-0.005
'0:09.644',-0.015,0.005
'0:09.647',-0.125,-0.005
'0:09.650',-0.265,-0.020
'0:09.653',-0.530,-0.030
'0:09.656',-0.905,-0.035
'0:09.658',-1.310,-0.035
'0:09.661',-1.685,-0.060
'0:09.664',-1.990,-0.090
'0:09.667',-2.185,-0.060
'0:09.669',-2.260,-0.030
'0:09.672',-2.260,-0.035
'0:09.675',-2.250,-0.040
'0:09.678',-2.245,-0.040
'0:09.681',-2.205,-0.030
'0:09.683',-2.140,-0.010
'0:09.686',-2.080,-0.025
'0:09.689',-2.005,-0.025
'0:09.692',-1.905,-0.005
'0:09.694',-1.815,0.015
'0:09.697',-1.720,0.050
'0:09.700',-1.640,0.050
'0:09.703',-1.500,0.060
'0:09.706',-1.330,0.070
'0:09.708',-1.200,0.100
'0:09.711',-1.075,0.070
'0:09.714',-1.015,0.050
'0:09.717',-0.945,0.060
'0:09.719',-0.905,0.085
'0:09.722',-0.840,0.095
'0:09.725',-0.770,0.070
'0:09.728',-0.725,0.050
'0:09.731',-0.690,0.070
'0:09.733',-0.650,0.085
'0:09.736',-0.610,0.080
'0:09.739',-0.540,0.065
'0:09.742',-0.480,0.055
'0:09.744',-0.445,0.065
'0:09.747',-0.395,0.065
'0:09.750',-0.340,0.070
'0:09.753',-0.255,0.090
'0:09.756',-0.160,0.085
'0:09.758',-0.095,0.065
'0:09.761',-0.045,0.050
'0:09.764',-0.005,0.060
'0:09.767',0.050,0.090
'0:09.769',0.100,0.115
'0:09.772',0.145,0.100
'0:09.775',0.165,0.090
'0:09.778',0.170,0.095
'0:09.781',0.195,0.100
'0:09.783',0.220,0.090
'0:09.786',0.235,0.085
'0:09.789',0.260,0.105
'0:09.792',0.285,0.110
'0:09.794',0.310,0.090
'0:09.797',0.315,0.095
'0:09.800',0.335,0.120
'0:09.803',0.345,0.135
'0:09.806',0.360,0.110
'0:09.808',0.370,0.095
'0:09.811',0.385,0.090
'0:09.814',0.395,0.115
'0:09.817',0.405,0.125
'0:09.819',0.440,0.120
'0:09.822',0.470,0.125
'0:09.825',0.490,0.130
'0:09.828',0.500,0.110
'0:09.831',0.520,0.095
'0:09.833',0.525,0.110
'0:09.836',0.540,0.125
'0:09.839',0.580,0.130
'0:09.842',0.605,0.120
'0:09.844',0.610,0.100
'0:09.847',0.615,0.105
'0:09.850',0.640,0.130
'0:09.853',0.660,0.125
'0:09.856',0.675,0.110
'0:09.858',0.685,0.105
'0:09.861',0.685,0.125
'0:09.864',0.670,0.115
'0:09.867',0.685,0.100
'0:09.869',0.700,0.125
'0:09.872',0.705,0.140
'0:09.875',0.705,0.125
'0:09.878',0.700,0.095
'0:09.881',0.700,0.100
'0:09.883',0.705,0.130
'0:09.886',0.695,0.130
'0:09.889',0.700,0.120
'0:09.892',0.700,0.110
'0:09.894',0.685,0.120
'0:09.897',0.655,0.110
'0:09.900',0.655,0.090
'0:09.903',0.635,0.090
'0:09.906',0.630,0.115
'0:09.908',0.620,0.110
'0:09.911',0.580,0.095
'0:09.914',0.545,0.090
'0:09.917',0.525,0.110
'0:09.919',0.490,0.115
'0:09.922',0.470,0.095
'0:09.925',0.430,0.085
'0:09.928',0.385,0.095
'0:09.931',0.345,0.095
'0:09.933',0.305,0.095
'0:09.936',0.290,0.095
'0:09.939',0.270,0.115
'0:09.942',0.250,0.100
'0:09.944',0.205,0.075
'0:09.947',0.165,0.060
'0:09.950',0.140,0.090
'0:09.953',0.125,0.110
'0:09.956',0.130,0.090
'0:09.958',0.115,0.085
'0:09.961',0.100,0.085
'0:09.964',0.060,0.085
'0:09.967',0.040,0.065
'0:09.969',0.040,0.075
'0:09.972',0.035,0.090
'0:09.975',0.025,0.095
'0:09.978',-0.005,0.070
'0:09.981',-0.060,0.065
'0:09.983',-0.080,0.095
'0:09.986',-0.085,0.105
'0:09.989',-0.075,0.080
'0:09.992',-0.090,0.070
'0:09.994',-0.110,0.080
'0:09.997',-0.130,0.095
