'Elapsed time','MLII','V1'
'hh:mm:ss.mmm','mV','mV'
'0:00.000',0.000,0.125
'0:00.003',0.000,0.125
'0:00.006',0.000,0.125
'0:00.008',0.000,0.125
'0:00.011',0.000,0.125
'0:00.014',0.000,0.125
'0:00.017',0.000,0.125
'0:00.019',0.000,0.125
'0:00.022',0.000,0.125
'0:00.025',0.005,0.130
'0:00.028',0.015,0.145
'0:00.031',0.025,0.170
'0:00.033',0.035,0.160
'0:00.036',0.035,0.140
'0:00.039',0.015,0.135
'0:00.042',0.015,0.130
'0:00.044',0.025,0.140
'0:00.047',0.050,0.145
'0:00.050',0.060,0.140
'0:00.053',0.055,0.120
'0:00.056',0.040,0.115
'0:00.058',0.045,0.125
'0:00.061',0.065,0.130
'0:00.064',0.085,0.125
'0:00.067',0.095,0.110
'0:00.069',0.085,0.105
'0:00.072',0.085,0.080
'0:00.075',0.085,0.090
'0:00.078',0.105,0.105
'0:00.081',0.125,0.100
'0:00.083',0.135,0.085
'0:00.086',0.135,0.070
'0:00.089',0.135,0.060
'0:00.092',0.145,0.060
'0:00.094',0.150,0.060
'0:00.097',0.175,0.070
'0:00.100',0.195,0.045
'0:00.103',0.200,0.020
'0:00.106',0.180,0.015
'0:00.108',0.190,0.015
'0:00.111',0.215,0.030
'0:00.114',0.255,0.035
'0:00.117',0.270,0.025
'0:00.119',0.275,0.005
'0:00.122',0.265,0.005
'0:00.125',0.270,-0.005
'0:00.128',0.280,0.000
'0:00.131',0.305,0.015
'0:00.133',0.325,0.000
'0:00.136',0.320,0.000
'0:00.139',0.325,-0.015
'0:00.142',0.320,0.005
'0:00.144',0.335,0.005
'0:00.147',0.350,0.030
'0:00.150',0.355,0.015
'0:00.153',0.335,0.010
'0:00.156',0.325,0.015
'0:00.158',0.315,0.030
'0:00.161',0.315,0.040
'0:00.164',0.310,0.080
'0:00.167',0.290,0.075
'0:00.169',0.265,0.070
'0:00.172',0.235,0.075
'0:00.175',0.215,0.090
'0:00.178',0.195,0.120
'0:00.181',0.180,0.130
'0:00.183',0.170,0.110
'0:00.186',0.140,0.090
'0:00.189',0.105,0.095
'0:00.192',0.085,0.105
'0:00.194',0.090,0.110
'0:00.197',0.085,0.120
'0:00.200',0.075,0.125
'0:00.203',0.045,0.105
'0:00.206',0.010,0.110
'0:00.208',-0.010,0.120
'0:00.211',-0.010,0.135
'0:00.214',0.005,0.145
'0:00.217',0.005,0.130
'0:00.219',-0.015,0.115
'0:00.222',-0.030,0.115
'0:00.225',-0.045,0.125
'0:00.228',-0.045,0.125
'0:00.231',-0.025,0.140
'0:00.233',-0.030,0.135
'0:00.236',-0.030,0.110
'0:00.239',-0.050,0.105
'0:00.242',-0.070,0.115
'0:00.244',-0.050,0.125
'0:00.247',-0.040,0.145
'0:00.250',-0.035,0.135
'0:00.253',-0.050,0.120
'0:00.256',-0.070,0.120
'0:00.258',-0.070,0.120
'0:00.261',-0.060,0.140
'0:00.264',-0.045,0.145
'0:00.267',-0.045,0.130
'0:00.269',-0.060,0.115
'0:00.272',-0.060,0.115
'0:00.275',-0.075,0.115
'0:00.278',-0.050,0.130
'0:00.281',-0.040,0.140
'0:00.283',-0.030,0.145
'0:00.286',-0.035,0.130
'0:00.289',-0.060,0.130
'0:00.292',-0.085,0.145
'0:00.294',-0.065,0.150
'0:00.297',-0.045,0.170
'0:00.300',-0.045,0.165
'0:00.303',-0.050,0.155
'0:00.306',-0.065,0.140
'0:00.308',-0.075,0.140
'0:00.311',-0.060,0.150
'0:00.314',-0.055,0.155
'0:00.317',-0.050,0.150
'0:00.319',-0.060,0.145
'0:00.322',-0.080,0.140
'0:00.325',-0.085,0.155
'0:00.328',-0.075,0.175
'0:00.331',-0.045,0.175
'0:00.333',-0.040,0.165
'0:00.336',-0.055,0.155
'0:00.339',-0.060,0.140
'0:00.342',-0.075,0.140
'0:00.344',-0.065,0.165
'0:00.347',-0.060,0.185
'0:00.350',-0.055,0.165
'0:00.353',-0.055,0.155
'0:00.356',-0.075,0.135
'0:00.358',-0.070,0.145
'0:00.361',-0.050,0.155
'0:00.364',-0.045,0.165
'0:00.367',-0.045,0.155
'0:00.369',-0.055,0.140
'0:00.372',-0.070,0.135
'0:00.375',-0.080,0.135
'0:00.378',-0.075,0.160
'0:00.381',-0.055,0.185
'0:00.383',-0.045,0.160
'0:00.386',-0.060,0.160
'0:00.389',-0.070,0.155
'0:00.392',-0.085,0.150
'0:00.394',-0.065,0.160
'0:00.397',-0.050,0.175
'0:00.400',-0.050,0.165
'0:00.403',-0.050,0.155
'0:00.406',-0.065,0.135
'0:00.408',-0.075,0.160
'0:00.411',-0.060,0.170
'0:00.414',-0.050,0.180
'0:00.417',-0.040,0.185
'0:00.419',-0.050,0.165
'0:00.422',-0.070,0.155
'0:00.425',-0.065,0.150
'0:00.428',-0.060,0.165
'0:00.431',-0.065,0.170
'0:00.433',-0.055,0.165
'0:00.436',-0.055,0.150
'0:00.439',-0.080,0.150
'0:00.442',-0.080,0.155
'0:00.444',-0.065,0.175
'0:00.447',-0.055,0.175
'0:00.450',-0.040,0.185
'0:00.453',-0.045,0.155
'0:00.456',-0.065,0.145
'0:00.458',-0.080,0.150
'0:00.461',-0.070,0.160
'0:00.464',-0.060,0.165
'0:00.467',-0.060,0.175
'0:00.469',-0.070,0.165
'0:00.472',-0.065,0.150
'0:00.475',-0.085,0.155
'0:00.478',-0.050,0.175
'0:00.481',-0.045,0.175
'0:00.483',-0.050,0.165
'0:00.486',-0.055,0.145
'0:00.489',-0.070,0.145
'0:00.492',-0.070,0.140
'0:00.494',-0.050,0.155
'0:00.497',-0.050,0.170
'0:00.500',-0.035,0.180
'0:00.503',-0.045,0.160
'0:00.506',-0.065,0.150
'0:00.508',-0.065,0.160
'0:00.511',-0.060,0.170
'0:00.514',-0.055,0.175
'0:00.517',-0.055,0.175
'0:00.519',-0.055,0.155
'0:00.522',-0.065,0.155
'0:00.525',-0.055,0.155
'0:00.528',-0.050,0.185
'0:00.531',-0.040,0.190
'0:00.533',-0.035,0.185
'0:00.536',-0.040,0.165
'0:00.539',-0.060,0.155
'0:00.542',-0.065,0.160
'0:00.544',-0.065,0.170
'0:00.547',-0.045,0.180
'0:00.550',-0.055,0.175
'0:00.553',-0.055,0.155
'0:00.556',-0.060,0.140
'0:00.558',-0.065,0.160
'0:00.561',-0.070,0.180
'0:00.564',-0.050,0.195
'0:00.567',-0.040,0.175
'0:00.569',-0.050,0.165
'0:00.572',-0.060,0.145
'0:00.575',-0.065,0.155
'0:00.578',-0.050,0.150
'0:00.581',-0.025,0.175
'0:00.583',-0.030,0.170
'0:00.586',-0.045,0.150
'0:00.589',-0.055,0.160
'0:00.592',-0.065,0.160
'0:00.594',-0.050,0.170
'0:00.597',-0.045,0.170
'0:00.600',-0.040,0.155
'0:00.603',-0.045,0.140
'0:00.606',-0.050,0.150
'0:00.608',-0.065,0.145
'0:00.611',-0.055,0.170
'0:00.614',-0.030,0.190
'0:00.617',-0.040,0.180
'0:00.619',-0.035,0.165
'0:00.622',-0.040,0.135
'0:00.625',-0.055,0.160
'0:00.628',-0.050,0.165
'0:00.631',-0.020,0.170
'0:00.633',-0.030,0.165
'0:00.636',-0.045,0.145
'0:00.639',-0.050,0.150
'0:00.642',-0.050,0.145
'0:00.644',-0.040,0.160
'0:00.647',-0.025,0.180
'0:00.650',-0.030,0.165
'0:00.653',-0.035,0.145
'0:00.656',-0.055,0.140
'0:00.658',-0.035,0.140
'0:00.661',-0.030,0.170
'0:00.664',-0.020,0.175
'0:00.667',-0.025,0.180
'0:00.669',-0.025,0.155
'0:00.672',-0.035,0.155
'0:00.675',-0.040,0.160
'0:00.678',-0.025,0.180
'0:00.681',-0.015,0.170
'0:00.683',-0.020,0.170
'0:00.686',-0.030,0.165
'0:00.689',-0.035,0.160
'0:00.692',-0.050,0.165
'0:00.694',-0.025,0.180
'0:00.697',-0.015,0.185
'0:00.700',-0.020,0.190
'0:00.703',-0.020,0.150
'0:00.706',-0.040,0.135
'0:00.708',-0.050,0.135
'0:00.711',-0.025,0.150
'0:00.714',-0.020,0.145
'0:00.717',-0.005,0.145
'0:00.719',-0.020,0.135
'0:00.722',-0.025,0.120
'0:00.725',-0.025,0.135
'0:00.728',-0.020,0.150
'0:00.731',-0.005,0.170
'0:00.733',-0.010,0.155
'0:00.736',-0.010,0.145
'0:00.739',-0.040,0.140
'0:00.742',-0.025,0.140
'0:00.744',-0.015,0.155
'0:00.747',-0.005,0.165
'0:00.750',0.005,0.155
'0:00.753',-0.010,0.135
'0:00.756',-0.030,0.130
'0:00.758',-0.030,0.130
'0:00.761',-0.020,0.140
'0:00.764',-0.005,0.155
'0:00.767',-0.010,0.135
'0:00.769',-0.025,0.125
'0:00.772',-0.035,0.105
'0:00.775',-0.035,0.120
'0:00.778',-0.010,0.125
'0:00.781',-0.005,0.150
'0:00.783',0.000,0.140
'0:00.786',-0.005,0.135
'0:00.789',-0.025,0.130
'0:00.792',-0.020,0.150
'0:00.794',-0.020,0.170
'0:00.797',-0.010,0.195
'0:00.800',0.000,0.185
'0:00.803',-0.020,0.170
'0:00.806',-0.035,0.165
'0:00.808',-0.045,0.185
'0:00.811',-0.040,0.200
'0:00.814',-0.015,0.215
'0:00.817',0.000,0.180
'0:00.819',0.015,0.170
'0:00.822',0.025,0.135
'0:00.825',0.015,0.145
'0:00.828',0.045,0.160
'0:00.831',0.045,0.175
'0:00.833',0.060,0.165
'0:00.836',0.050,0.155
'0:00.839',0.025,0.140
'0:00.842',0.040,0.155
'0:00.844',0.045,0.160
'0:00.847',0.050,0.160
'0:00.850',0.040,0.145
'0:00.853',0.020,0.135
'0:00.856',0.005,0.140
'0:00.858',0.000,0.145
'0:00.861',-0.010,0.150
'0:00.864',0.010,0.160
'0:00.867',-0.005,0.145
'0:00.869',-0.015,0.135
'0:00.872',-0.035,0.110
'0:00.875',-0.035,0.110
'0:00.878',-0.040,0.130
'0:00.881',-0.025,0.145
'0:00.883',-0.005,0.145
'0:00.886',-0.005,0.125
'0:00.889',-0.005,0.120
'0:00.892',-0.025,0.125
'0:00.894',-0.020,0.130
'0:00.897',-0.005,0.145
'0:00.900',-0.010,0.135
'0:00.903',-0.005,0.125
'0:00.906',-0.025,0.115
'0:00.908',-0.015,0.120
'0:00.911',-0.020,0.140
'0:00.914',0.015,0.145
'0:00.917',0.015,0.165
'0:00.919',0.025,0.175
'0:00.922',0.025,0.185
'0:00.925',0.030,0.205
'0:00.928',0.070,0.200
'0:00.931',0.100,0.155
'0:00.933',0.140,0.045
'0:00.936',0.150,-0.090
'0:00.939',0.175,-0.225
'0:00.942',0.235,-0.355
'0:00.944',0.325,-0.480
'0:00.947',0.465,-0.630
'0:00.950',0.590,-0.810
'0:00.953',0.740,-0.940
'0:00.956',0.875,-1.020
'0:00.958',1.005,-0.970
'0:00.961',1.140,-0.885
'0:00.964',1.290,-0.780
'0:00.967',1.415,-0.670
'0:00.969',1.465,-0.500
'0:00.972',1.440,-0.330
'0:00.975',1.300,-0.170
'0:00.978',1.105,-0.030
'0:00.981',0.880,0.075
'0:00.983',0.670,0.110
'0:00.986',0.470,0.095
'0:00.989',0.285,0.055
'0:00.992',0.135,0.025
'0:00.994',0.065,0.040
'0:00.997',0.050,0.085
'0:01.000',0.055,0.105
'0:01.003',0.065,0.100
'0:01.006',0.060,0.100
'0:01.008',0.045,0.130
'0:01.011',0.030,0.135
'0:01.014',0.030,0.140
'0:01.017',0.020,0.140
'0:01.019',0.000,0.130
'0:01.022',-0.030,0.115
'0:01.025',-0.045,0.135
'0:01.028',-0.045,0.150
'0:01.031',-0.035,0.165
'0:01.033',-0.035,0.160
'0:01.036',-0.055,0.150
'0:01.039',-0.065,0.150
'0:01.042',-0.070,0.150
'0:01.044',-0.065,0.155
'0:01.047',-0.055,0.160
'0:01.050',-0.065,0.165
'0:01.053',-0.055,0.150
'0:01.056',-0.080,0.145
'0:01.058',-0.075,0.160
'0:01.061',-0.085,0.180
'0:01.064',-0.060,0.180
'0:01.067',-0.055,0.165
'0:01.069',-0.065,0.145
'0:01.072',-0.085,0.120
'0:01.075',-0.110,0.120
'0:01.078',-0.080,0.135
'0:01.081',-0.070,0.145
'0:01.083',-0.055,0.125
'0:01.086',-0.080,0.115
'0:01.089',-0.090,0.115
'0:01.092',-0.095,0.110
'0:01.094',-0.080,0.125
'0:01.097',-0.065,0.155
'0:01.100',-0.050,0.135
'0:01.103',-0.065,0.115
'0:01.106',-0.065,0.100
'0:01.108',-0.070,0.110
'0:01.111',-0.065,0.120
'0:01.114',-0.045,0.125
'0:01.117',-0.040,0.115
'0:01.119',-0.050,0.105
'0:01.122',-0.055,0.100
'0:01.125',-0.070,0.090
'0:01.128',-0.055,0.100
'0:01.131',-0.025,0.120
'0:01.133',-0.015,0.125
'0:01.136',-0.015,0.100
'0:01.139',-0.030,0.085
'0:01.142',-0.025,0.115
'0:01.144',-0.030,0.100
'0:01.147',0.010,0.120
'0:01.150',0.020,0.105
'0:01.153',0.025,0.090
'0:01.156',0.000,0.090
'0:01.158',0.005,0.080
'0:01.161',0.030,0.075
'0:01.164',0.055,0.080
'0:01.167',0.055,0.065
'0:01.169',0.065,0.035
'0:01.172',0.060,0.020
'0:01.175',0.070,0.025
'0:01.178',0.090,0.030
'0:01.181',0.120,0.030
'0:01.183',0.130,0.020
'0:01.186',0.130,-0.005
'0:01.189',0.130,-0.005
'0:01.192',0.150,0.000
'0:01.194',0.160,0.000
'0:01.197',0.175,0.010
'0:01.200',0.200,-0.015
'0:01.203',0.205,-0.010
'0:01.206',0.200,-0.030
'0:01.208',0.215,-0.035
'0:01.211',0.230,-0.040
'0:01.214',0.260,-0.025
'0:01.217',0.290,-0.030
'0:01.219',0.275,-0.055
'0:01.222',0.285,-0.055
'0:01.225',0.285,-0.050
'0:01.228',0.310,-0.035
'0:01.231',0.335,-0.015
'0:01.233',0.320,-0.010
'0:01.236',0.335,-0.010
'0:01.239',0.310,-0.020
'0:01.242',0.310,0.000
'0:01.244',0.315,0.020
'0:01.247',0.305,0.045
'0:01.250',0.295,0.035
'0:01.253',0.265,0.035
'0:01.256',0.235,0.035
'0:01.258',0.200,0.050
'0:01.261',0.210,0.070
'0:01.264',0.205,0.075
'0:01.267',0.185,0.080
'0:01.269',0.155,0.075
'0:01.272',0.120,0.065
'0:01.275',0.090,0.080
'0:01.278',0.100,0.095
'0:01.281',0.080,0.110
'0:01.283',0.075,0.110
'0:01.286',0.055,0.090
'0:01.289',0.020,0.090
'0:01.292',0.015,0.105
'0:01.294',0.010,0.115
'0:01.297',0.015,0.135
'0:01.300',0.010,0.120
'0:01.303',-0.010,0.125
'0:01.306',-0.030,0.130
'0:01.308',-0.040,0.140
'0:01.311',-0.050,0.155
'0:01.314',-0.035,0.155
'0:01.317',-0.035,0.130
'0:01.319',-0.045,0.100
'0:01.322',-0.075,0.075
'0:01.325',-0.060,0.070
'0:01.328',-0.055,0.070
'0:01.331',-0.045,0.080
'0:01.333',-0.040,0.085
'0:01.336',-0.045,0.085
'0:01.339',-0.055,0.075
'0:01.342',-0.060,0.080
'0:01.344',-0.070,0.100
'0:01.347',-0.040,0.115
'0:01.350',-0.045,0.095
'0:01.353',-0.050,0.095
'0:01.356',-0.065,0.080
'0:01.358',-0.075,0.085
'0:01.361',-0.065,0.110
'0:01.364',-0.040,0.125
'0:01.367',-0.035,0.120
'0:01.369',-0.050,0.110
'0:01.372',-0.055,0.110
'0:01.375',-0.060,0.115
'0:01.378',-0.045,0.125
'0:01.381',-0.050,0.130
'0:01.383',-0.025,0.125
'0:01.386',-0.040,0.105
'0:01.389',-0.055,0.110
'0:01.392',-0.060,0.120
'0:01.394',-0.050,0.140
'0:01.397',-0.025,0.145
'0:01.400',-0.025,0.145
'0:01.403',-0.025,0.140
'0:01.406',-0.040,0.130
'0:01.408',-0.050,0.135
'0:01.411',-0.040,0.150
'0:01.414',-0.030,0.155
'0:01.417',-0.020,0.130
'0:01.419',-0.035,0.120
'0:01.422',-0.045,0.115
'0:01.425',-0.045,0.115
'0:01.428',-0.045,0.125
'0:01.431',-0.025,0.140
'0:01.433',-0.020,0.150
'0:01.436',-0.025,0.130
'0:01.439',-0.040,0.130
'0:01.442',-0.040,0.120
'0:01.444',-0.035,0.130
'0:01.447',-0.025,0.135
'0:01.450',-0.020,0.130
'0:01.453',-0.030,0.120
'0:01.456',-0.040,0.105
'0:01.458',-0.035,0.115
'0:01.461',-0.035,0.130
'0:01.464',-0.030,0.140
'0:01.467',-0.025,0.130
'0:01.469',-0.040,0.115
'0:01.472',-0.060,0.115
'0:01.475',-0.070,0.120
'0:01.478',-0.045,0.130
'0:01.481',-0.040,0.140
'0:01.483',-0.030,0.135
'0:01.486',-0.040,0.125
'0:01.489',-0.055,0.110
'0:01.492',-0.055,0.110
'0:01.494',-0.050,0.125
'0:01.497',-0.030,0.135
'0:01.500',-0.035,0.125
'0:01.503',-0.040,0.110
'0:01.506',-0.055,0.120
'0:01.508',-0.055,0.120
'0:01.511',-0.055,0.145
'0:01.514',-0.030,0.155
'0:01.517',-0.040,0.150
'0:01.519',-0.050,0.135
'0:01.522',-0.055,0.125
'0:01.525',-0.055,0.120
'0:01.528',-0.050,0.125
'0:01.531',-0.040,0.140
'0:01.533',-0.055,0.130
'0:01.536',-0.050,0.120
'0:01.539',-0.060,0.115
'0:01.542',-0.060,0.110
'0:01.544',-0.065,0.120
'0:01.547',-0.050,0.140
'0:01.550',-0.050,0.125
'0:01.553',-0.050,0.110
'0:01.556',-0.070,0.095
'0:01.558',-0.075,0.115
'0:01.561',-0.060,0.120
'0:01.564',-0.045,0.120
'0:01.567',-0.050,0.105
'0:01.569',-0.070,0.100
'0:01.572',-0.075,0.090
'0:01.575',-0.065,0.110
'0:01.578',-0.050,0.120
'0:01.581',-0.045,0.145
'0:01.583',-0.030,0.135
'0:01.586',-0.050,0.120
'0:01.589',-0.060,0.120
'0:01.592',-0.060,0.110
'0:01.594',-0.060,0.125
'0:01.597',-0.035,0.135
'0:01.600',-0.035,0.140
'0:01.603',-0.045,0.120
'0:01.606',-0.070,0.105
'0:01.608',-0.065,0.115
'0:01.611',-0.050,0.130
'0:01.614',-0.040,0.155
'0:01.617',-0.040,0.140
'0:01.619',-0.040,0.120
'0:01.622',-0.060,0.115
'0:01.625',-0.055,0.125
'0:01.628',-0.060,0.140
'0:01.631',-0.040,0.145
'0:01.633',-0.040,0.150
'0:01.636',-0.040,0.130
'0:01.639',-0.055,0.120
'0:01.642',-0.065,0.130
'0:01.644',-0.055,0.135
'0:01.647',-0.035,0.145
'0:01.650',-0.035,0.135
'0:01.653',-0.045,0.125
'0:01.656',-0.055,0.135
'0:01.658',-0.050,0.130
'0:01.661',-0.045,0.135
'0:01.664',-0.035,0.140
'0:01.667',-0.030,0.125
'0:01.669',-0.040,0.095
'0:01.672',-0.050,0.105
'0:01.675',-0.050,0.105
'0:01.678',-0.045,0.115
'0:01.681',-0.025,0.130
'0:01.683',-0.030,0.125
'0:01.686',-0.030,0.120
'0:01.689',-0.045,0.115
'0:01.692',-0.055,0.115
'0:01.694',-0.055,0.125
'0:01.697',-0.020,0.140
'0:01.700',-0.025,0.120
'0:01.703',-0.030,0.120
'0:01.706',-0.050,0.100
'0:01.708',-0.065,0.105
'0:01.711',-0.035,0.125
'0:01.714',-0.020,0.130
'0:01.717',-0.030,0.130
'0:01.719',-0.030,0.105
'0:01.722',-0.035,0.100
'0:01.725',-0.040,0.115
'0:01.728',-0.035,0.130
'0:01.731',-0.030,0.140
'0:01.733',-0.030,0.140
'0:01.736',-0.055,0.125
'0:01.739',-0.055,0.115
'0:01.742',-0.065,0.120
'0:01.744',-0.040,0.135
'0:01.747',-0.015,0.155
'0:01.750',-0.030,0.155
'0:01.753',-0.030,0.130
'0:01.756',-0.035,0.130
'0:01.758',-0.045,0.115
'0:01.761',-0.035,0.135
'0:01.764',-0.025,0.145
'0:01.767',-0.010,0.125
'0:01.769',-0.025,0.095
'0:01.772',-0.040,0.095
'0:01.775',-0.035,0.100
'0:01.778',-0.025,0.110
'0:01.781',-0.015,0.125
'0:01.783',-0.025,0.130
'0:01.786',-0.020,0.105
'0:01.789',-0.030,0.100
'0:01.792',-0.035,0.095
'0:01.794',-0.025,0.110
'0:01.797',-0.015,0.115
'0:01.800',0.005,0.125
'0:01.803',-0.015,0.120
'0:01.806',-0.030,0.110
'0:01.808',-0.030,0.120
'0:01.811',-0.020,0.130
'0:01.814',-0.010,0.140
'0:01.817',0.000,0.135
'0:01.819',-0.010,0.115
'0:01.822',-0.020,0.115
'0:01.825',-0.025,0.110
'0:01.828',-0.010,0.130
'0:01.831',0.000,0.130
'0:01.833',0.005,0.130
'0:01.836',-0.005,0.120
'0:01.839',-0.025,0.100
'0:01.842',-0.030,0.110
'0:01.844',-0.010,0.125
'0:01.847',0.005,0.150
'0:01.850',-0.015,0.135
'0:01.853',-0.010,0.115
'0:01.856',-0.025,0.100
'0:01.858',-0.020,0.105
'0:01.861',-0.015,0.110
'0:01.864',-0.015,0.110
'0:01.867',0.005,0.110
'0:01.869',0.005,0.095
'0:01.872',-0.005,0.100
'0:01.875',-0.005,0.100
'0:01.878',0.015,0.115
'0:01.881',0.005,0.130
'0:01.883',0.030,0.135
'0:01.886',0.000,0.135
'0:01.889',0.000,0.135
'0:01.892',-0.005,0.145
'0:01.894',-0.005,0.160
'0:01.897',0.010,0.170
'0:01.900',0.015,0.170
'0:01.903',0.000,0.150
'0:01.906',0.010,0.145
'0:01.908',0.025,0.155
'0:01.911',0.040,0.155
'0:01.914',0.075,0.150
'0:01.917',0.070,0.135
'0:01.919',0.070,0.120
'0:01.922',0.070,0.105
'0:01.925',0.070,0.125
'0:01.928',0.065,0.135
'0:01.931',0.085,0.145
'0:01.933',0.080,0.130
'0:01.936',0.075,0.120
'0:01.939',0.045,0.105
'0:01.942',0.020,0.095
'0:01.944',0.030,0.110
'0:01.947',0.035,0.130
'0:01.950',0.035,0.120
'0:01.953',0.035,0.115
'0:01.956',0.000,0.105
'0:01.958',-0.005,0.120
'0:01.961',0.000,0.110
'0:01.964',0.020,0.120
'0:01.967',0.030,0.115
'0:01.969',0.020,0.100
'0:01.972',0.010,0.095
'0:01.975',0.005,0.090
'0:01.978',0.015,0.125
'0:01.981',0.030,0.130
'0:01.983',0.040,0.125
'0:01.986',0.035,0.115
'0:01.989',-0.005,0.110
'0:01.992',0.015,0.105
'0:01.994',0.040,0.115
'0:01.997',0.050,0.135
'0:02.000',0.055,0.125
'0:02.003',0.050,0.115
'0:02.006',0.045,0.100
'0:02.008',0.040,0.125
'0:02.011',0.050,0.150
'0:02.014',0.090,0.190
'0:02.017',0.105,0.195
'0:02.019',0.110,0.165
'0:02.022',0.135,0.110
'0:02.025',0.155,0.035
'0:02.028',0.210,-0.065
'0:02.031',0.245,-0.160
'0:02.033',0.305,-0.285
'0:02.036',0.405,-0.440
'0:02.039',0.500,-0.610
'0:02.042',0.630,-0.765
'0:02.044',0.770,-0.885
'0:02.047',0.925,-0.920
'0:02.050',1.050,-0.915
'0:02.053',1.160,-0.865
'0:02.056',1.270,-0.800
'0:02.058',1.375,-0.665
'0:02.061',1.465,-0.480
'0:02.064',1.465,-0.290
'0:02.067',1.370,-0.150
'0:02.069',1.200,-0.045
'0:02.072',0.985,0.020
'0:02.075',0.780,0.050
'0:02.078',0.615,0.045
'0:02.081',0.475,0.040
'0:02.083',0.345,0.035
'0:02.086',0.240,0.040
'0:02.089',0.165,0.060
'0:02.092',0.155,0.090
'0:02.094',0.150,0.115
'0:02.097',0.160,0.125
'0:02.100',0.150,0.125
'0:02.103',0.110,0.125
'0:02.106',0.070,0.140
'0:02.108',0.055,0.135
'0:02.111',0.040,0.160
'0:02.114',0.045,0.170
'0:02.117',0.040,0.160
'0:02.119',0.020,0.145
'0:02.122',0.000,0.140
'0:02.125',0.010,0.140
'0:02.128',-0.010,0.160
'0:02.131',0.000,0.170
'0:02.133',0.005,0.160
'0:02.136',-0.010,0.140
'0:02.139',-0.005,0.135
'0:02.142',-0.020,0.155
'0:02.144',-0.010,0.155
'0:02.147',0.005,0.170
'0:02.150',-0.010,0.170
'0:02.153',-0.010,0.160
'0:02.156',-0.015,0.150
'0:02.158',-0.020,0.160
'0:02.161',-0.030,0.170
'0:02.164',0.010,0.175
'0:02.167',0.015,0.165
'0:02.169',0.000,0.150
'0:02.172',-0.005,0.145
'0:02.175',-0.020,0.155
'0:02.178',0.000,0.165
'0:02.181',0.010,0.180
'0:02.183',0.020,0.180
'0:02.186',0.005,0.165
'0:02.189',-0.015,0.155
'0:02.192',-0.010,0.145
'0:02.194',0.010,0.160
'0:02.197',0.030,0.175
'0:02.200',0.025,0.170
'0:02.203',0.030,0.165
'0:02.206',0.010,0.135
'0:02.208',0.015,0.145
'0:02.211',0.015,0.160
'0:02.214',0.030,0.165
'0:02.217',0.050,0.155
'0:02.219',0.045,0.150
'0:02.222',0.035,0.135
'0:02.225',0.045,0.145
'0:02.228',0.055,0.150
'0:02.231',0.080,0.160
'0:02.233',0.070,0.160
'0:02.236',0.060,0.135
'0:02.239',0.060,0.125
'0:02.242',0.055,0.135
'0:02.244',0.095,0.140
'0:02.247',0.110,0.145
'0:02.250',0.125,0.130
'0:02.253',0.100,0.110
'0:02.256',0.105,0.090
'0:02.258',0.115,0.095
'0:02.261',0.130,0.110
'0:02.264',0.145,0.115
'0:02.267',0.170,0.110
'0:02.269',0.160,0.090
'0:02.272',0.175,0.080
'0:02.275',0.175,0.080
'0:02.278',0.195,0.080
'0:02.281',0.220,0.085
'0:02.283',0.230,0.075
'0:02.286',0.230,0.045
'0:02.289',0.230,0.040
'0:02.292',0.230,0.045
'0:02.294',0.255,0.050
'0:02.297',0.275,0.055
'0:02.300',0.290,0.035
'0:02.303',0.295,0.030
'0:02.306',0.285,0.005
'0:02.308',0.280,0.015
'0:02.311',0.310,0.025
'0:02.314',0.330,0.025
'0:02.317',0.340,0.025
'0:02.319',0.335,0.005
'0:02.322',0.350,0.000
'0:02.325',0.355,-0.005
'0:02.328',0.355,0.015
'0:02.331',0.375,0.045
'0:02.333',0.375,0.040
'0:02.336',0.360,0.030
'0:02.339',0.340,0.020
'0:02.342',0.330,0.050
'0:02.344',0.335,0.060
'0:02.347',0.335,0.085
'0:02.350',0.325,0.090
'0:02.353',0.310,0.085
'0:02.356',0.270,0.080
'0:02.358',0.240,0.095
'0:02.361',0.235,0.115
'0:02.364',0.230,0.120
'0:02.367',0.195,0.115
'0:02.369',0.180,0.110
'0:02.372',0.145,0.110
'0:02.375',0.110,0.110
'0:02.378',0.115,0.130
'0:02.381',0.110,0.145
'0:02.383',0.110,0.130
'0:02.386',0.075,0.110
'0:02.389',0.050,0.095
'0:02.392',0.020,0.120
'0:02.394',0.020,0.140
'0:02.397',0.025,0.155
'0:02.400',0.010,0.160
'0:02.403',0.000,0.140
'0:02.406',-0.020,0.115
'0:02.408',-0.025,0.125
'0:02.411',-0.005,0.140
'0:02.414',-0.005,0.145
'0:02.417',-0.005,0.140
'0:02.419',-0.010,0.135
'0:02.422',-0.035,0.110
'0:02.425',-0.025,0.130
'0:02.428',-0.015,0.140
'0:02.431',-0.015,0.145
'0:02.433',-0.005,0.140
'0:02.436',-0.010,0.120
'0:02.439',-0.035,0.110
'0:02.442',-0.035,0.130
'0:02.444',-0.020,0.145
'0:02.447',-0.015,0.140
'0:02.450',-0.010,0.130
'0:02.453',-0.020,0.140
'0:02.456',-0.040,0.115
'0:02.458',-0.045,0.130
'0:02.461',-0.045,0.150
'0:02.464',-0.025,0.155
'0:02.467',-0.015,0.165
'0:02.469',-0.030,0.155
'0:02.472',-0.045,0.135
'0:02.475',-0.055,0.130
'0:02.478',-0.035,0.140
'0:02.481',-0.025,0.160
'0:02.483',-0.030,0.155
'0:02.486',-0.030,0.145
'0:02.489',-0.045,0.140
'0:02.492',-0.060,0.150
'0:02.494',-0.045,0.175
'0:02.497',-0.020,0.180
'0:02.500',-0.040,0.170
'0:02.503',-0.030,0.150
'0:02.506',-0.040,0.145
'0:02.508',-0.050,0.155
'0:02.511',-0.035,0.160
'0:02.514',-0.015,0.180
'0:02.517',-0.015,0.165
'0:02.519',-0.030,0.155
'0:02.522',-0.040,0.150
'0:02.525',-0.045,0.145
'0:02.528',-0.040,0.160
'0:02.531',-0.030,0.160
'0:02.533',-0.015,0.155
'0:02.536',-0.040,0.145
'0:02.539',-0.035,0.135
'0:02.542',-0.040,0.145
'0:02.544',-0.035,0.155
'0:02.547',-0.030,0.165
'0:02.550',-0.030,0.150
'0:02.553',-0.040,0.140
'0:02.556',-0.050,0.135
'0:02.558',-0.055,0.140
'0:02.561',-0.045,0.145
'0:02.564',-0.025,0.150
'0:02.567',-0.030,0.145
'0:02.569',-0.035,0.130
'0:02.572',-0.050,0.130
'0:02.575',-0.055,0.130
'0:02.578',-0.065,0.155
'0:02.581',-0.040,0.160
'0:02.583',-0.035,0.150
'0:02.586',-0.050,0.120
'0:02.589',-0.060,0.125
'0:02.592',-0.060,0.135
'0:02.594',-0.055,0.145
'0:02.597',-0.040,0.145
'0:02.600',-0.035,0.145
'0:02.603',-0.060,0.130
'0:02.606',-0.050,0.125
'0:02.608',-0.055,0.135
'0:02.611',-0.065,0.155
'0:02.614',-0.030,0.160
'0:02.617',-0.040,0.155
'0:02.619',-0.050,0.140
'0:02.622',-0.065,0.140
'0:02.625',-0.055,0.130
'0:02.628',-0.040,0.145
'0:02.631',-0.020,0.150
'0:02.633',-0.030,0.145
'0:02.636',-0.040,0.135
'0:02.639',-0.050,0.130
'0:02.642',-0.060,0.140
'0:02.644',-0.075,0.145
'0:02.647',-0.050,0.155
'0:02.650',-0.040,0.145
'0:02.653',-0.035,0.135
'0:02.656',-0.050,0.140
'0:02.658',-0.065,0.140
'0:02.661',-0.040,0.150
'0:02.664',-0.045,0.150
'0:02.667',-0.020,0.150
'0:02.669',-0.030,0.130
'0:02.672',-0.050,0.125
'0:02.675',-0.050,0.125
'0:02.678',-0.050,0.135
'0:02.681',-0.025,0.135
'0:02.683',-0.025,0.145
'0:02.686',-0.025,0.125
'0:02.689',-0.045,0.120
'0:02.692',-0.045,0.125
'0:02.694',-0.040,0.135
'0:02.697',-0.025,0.155
'0:02.700',-0.025,0.130
'0:02.703',-0.035,0.130
'0:02.706',-0.050,0.120
'0:02.708',-0.055,0.115
'0:02.711',-0.040,0.135
'0:02.714',-0.025,0.140
'0:02.717',-0.015,0.140
'0:02.719',-0.015,0.135
'0:02.722',-0.040,0.125
'0:02.725',-0.045,0.125
'0:02.728',-0.040,0.145
'0:02.731',-0.025,0.155
'0:02.733',-0.015,0.145
'0:02.736',-0.030,0.130
'0:02.739',-0.060,0.120
'0:02.742',-0.065,0.135
'0:02.744',-0.040,0.140
'0:02.747',-0.020,0.155
'0:02.750',-0.015,0.155
'0:02.753',-0.020,0.140
'0:02.756',-0.035,0.125
'0:02.758',-0.040,0.125
'0:02.761',-0.030,0.140
'0:02.764',-0.025,0.140
'0:02.767',-0.015,0.140
'0:02.769',-0.020,0.130
'0:02.772',-0.035,0.120
'0:02.775',-0.035,0.140
'0:02.778',-0.005,0.140
'0:02.781',-0.005,0.135
'0:02.783',-0.025,0.120
'0:02.786',-0.040,0.105
'0:02.789',-0.040,0.135
'0:02.792',-0.025,0.135
'0:02.794',-0.015,0.140
'0:02.797',-0.015,0.130
'0:02.800',-0.015,0.120
'0:02.803',-0.035,0.105
'0:02.806',-0.030,0.110
'0:02.808',-0.030,0.115
'0:02.811',-0.015,0.130
'0:02.814',-0.010,0.130
'0:02.817',-0.005,0.115
'0:02.819',-0.025,0.100
'0:02.822',-0.030,0.115
'0:02.825',-0.030,0.135
'0:02.828',-0.020,0.140
'0:02.831',-0.020,0.130
'0:02.833',-0.030,0.115
'0:02.836',-0.035,0.110
'0:02.839',-0.035,0.115
'0:02.842',-0.040,0.125
'0:02.844',-0.025,0.135
'0:02.847',-0.020,0.120
'0:02.850',-0.020,0.120
'0:02.853',-0.035,0.115
'0:02.856',-0.025,0.125
'0:02.858',-0.025,0.135
'0:02.861',-0.005,0.150
'0:02.864',-0.010,0.145
'0:02.867',-0.015,0.130
'0:02.869',-0.025,0.115
'0:02.872',-0.025,0.110
'0:02.875',-0.015,0.125
'0:02.878',-0.005,0.130
'0:02.881',-0.005,0.115
'0:02.883',-0.005,0.090
'0:02.886',-0.015,0.090
'0:02.889',-0.030,0.095
'0:02.892',-0.010,0.100
'0:02.894',-0.010,0.130
'0:02.897',-0.010,0.110
'0:02.900',-0.020,0.100
'0:02.903',-0.020,0.095
'0:02.906',-0.020,0.095
'0:02.908',-0.010,0.110
'0:02.911',0.015,0.120
'0:02.914',0.020,0.135
'0:02.917',0.000,0.100
'0:02.919',-0.010,0.105
'0:02.922',-0.015,0.110
'0:02.925',0.000,0.120
'0:02.928',0.010,0.125
'0:02.931',0.005,0.125
'0:02.933',0.005,0.110
'0:02.936',-0.015,0.100
'0:02.939',-0.015,0.110
'0:02.942',0.000,0.110
'0:02.944',0.010,0.145
'0:02.947',0.015,0.135
'0:02.950',0.000,0.110
'0:02.953',-0.005,0.105
'0:02.956',-0.005,0.120
'0:02.958',0.000,0.130
'0:02.961',0.005,0.120
'0:02.964',0.010,0.130
'0:02.967',-0.010,0.110
'0:02.969',-0.015,0.095
'0:02.972',-0.020,0.110
'0:02.975',0.005,0.120
'0:02.978',0.005,0.135
'0:02.981',0.015,0.125
'0:02.983',0.025,0.105
'0:02.986',0.010,0.095
'0:02.989',-0.020,0.100
'0:02.992',0.015,0.120
'0:02.994',0.030,0.115
'0:02.997',0.030,0.115
'0:03.000',0.005,0.100
'0:03.003',0.005,0.085
'0:03.006',0.005,0.090
'0:03.008',0.005,0.100
'0:03.011',0.025,0.125
'0:03.014',0.020,0.130
'0:03.017',0.020,0.125
'0:03.019',0.000,0.130
'0:03.022',0.010,0.145
'0:03.025',-0.005,0.165
'0:03.028',0.020,0.165
'0:03.031',0.015,0.160
'0:03.033',-0.010,0.160
'0:03.036',-0.010,0.155
'0:03.039',-0.010,0.155
'0:03.042',0.025,0.165
'0:03.044',0.035,0.185
'0:03.047',0.065,0.155
'0:03.050',0.060,0.130
'0:03.053',0.055,0.120
'0:03.056',0.060,0.125
'0:03.058',0.065,0.130
'0:03.061',0.080,0.135
'0:03.064',0.080,0.130
'0:03.067',0.065,0.125
'0:03.069',0.060,0.110
'0:03.072',0.050,0.110
'0:03.075',0.050,0.130
'0:03.078',0.050,0.125
'0:03.081',0.040,0.120
'0:03.083',0.030,0.115
'0:03.086',0.025,0.105
'0:03.089',0.005,0.110
'0:03.092',0.015,0.115
'0:03.094',0.025,0.130
'0:03.097',0.015,0.115
'0:03.100',0.005,0.110
'0:03.103',0.000,0.100
'0:03.106',-0.020,0.105
'0:03.108',0.005,0.125
'0:03.111',0.020,0.130
'0:03.114',0.015,0.120
'0:03.117',0.015,0.105
'0:03.119',0.005,0.090
'0:03.122',-0.005,0.095
'0:03.125',0.010,0.110
'0:03.128',0.010,0.115
'0:03.131',0.030,0.115
'0:03.133',0.030,0.095
'0:03.136',0.010,0.095
'0:03.139',0.005,0.095
'0:03.142',0.010,0.110
'0:03.144',0.025,0.125
'0:03.147',0.055,0.110
'0:03.150',0.025,0.135
'0:03.153',0.020,0.130
'0:03.156',0.035,0.165
'0:03.158',0.050,0.170
'0:03.161',0.065,0.190
'0:03.164',0.100,0.160
'0:03.167',0.115,0.100
'0:03.169',0.140,-0.005
'0:03.172',0.145,-0.085
'0:03.175',0.195,-0.180
'0:03.178',0.265,-0.275
'0:03.181',0.360,-0.405
'0:03.183',0.455,-0.560
'0:03.186',0.540,-0.715
'0:03.189',0.660,-0.865
'0:03.192',0.795,-0.955
'0:03.194',0.935,-0.975
'0:03.197',1.050,-0.940
'0:03.200',1.145,-0.890
'0:03.203',1.235,-0.830
'0:03.206',1.345,-0.710
'0:03.208',1.410,-0.530
'0:03.211',1.410,-0.355
'0:03.214',1.335,-0.215
'0:03.217',1.180,-0.085
'0:03.219',0.990,-0.020
'0:03.222',0.790,0.045
'0:03.225',0.625,0.050
'0:03.228',0.475,0.050
'0:03.231',0.335,0.010
'0:03.233',0.220,0.005
'0:03.236',0.140,0.020
'0:03.239',0.115,0.060
'0:03.242',0.120,0.085
'0:03.244',0.120,0.110
'0:03.247',0.120,0.110
'0:03.250',0.100,0.110
'0:03.253',0.075,0.105
'0:03.256',0.065,0.125
'0:03.258',0.045,0.135
'0:03.261',0.045,0.160
'0:03.264',0.030,0.140
'0:03.267',0.015,0.130
'0:03.269',-0.010,0.130
'0:03.272',-0.005,0.150
'0:03.275',-0.005,0.155
'0:03.278',0.005,0.175
'0:03.281',-0.005,0.165
'0:03.283',-0.015,0.155
'0:03.286',-0.025,0.150
'0:03.289',-0.035,0.135
'0:03.292',-0.035,0.145
'0:03.294',-0.015,0.165
'0:03.297',-0.010,0.160
'0:03.300',-0.020,0.150
'0:03.303',-0.030,0.135
'0:03.306',-0.035,0.140
'0:03.308',-0.025,0.170
'0:03.311',-0.010,0.170
'0:03.314',-0.015,0.165
'0:03.317',-0.015,0.155
'0:03.319',-0.030,0.135
'0:03.322',-0.045,0.135
'0:03.325',-0.045,0.150
'0:03.328',-0.015,0.155
'0:03.331',-0.020,0.155
'0:03.333',-0.030,0.135
'0:03.336',-0.035,0.130
'0:03.339',-0.030,0.140
'0:03.342',-0.040,0.145
'0:03.344',-0.005,0.165
'0:03.347',-0.010,0.150
'0:03.350',-0.035,0.140
'0:03.353',-0.015,0.120
'0:03.356',-0.030,0.140
'0:03.358',-0.025,0.140
'0:03.361',-0.010,0.145
'0:03.364',0.000,0.130
'0:03.367',-0.010,0.130
'0:03.369',-0.010,0.105
'0:03.372',0.005,0.115
'0:03.375',0.005,0.120
'0:03.378',0.005,0.125
'0:03.381',0.025,0.120
'0:03.383',0.015,0.115
'0:03.386',0.005,0.095
'0:03.389',0.000,0.115
'0:03.392',0.010,0.115
'0:03.394',0.020,0.130
'0:03.397',0.045,0.125
'0:03.400',0.040,0.095
'0:03.403',0.030,0.080
'0:03.406',0.035,0.085
'0:03.408',0.040,0.095
'0:03.411',0.060,0.085
'0:03.414',0.075,0.075
'0:03.417',0.075,0.055
'0:03.419',0.060,0.040
'0:03.422',0.055,0.045
'0:03.425',0.075,0.050
'0:03.428',0.115,0.050
'0:03.431',0.125,0.030
'0:03.433',0.110,0.020
'0:03.436',0.105,0.000
'0:03.439',0.130,0.005
'0:03.442',0.145,0.020
'0:03.444',0.170,0.020
'0:03.447',0.185,0.000
'0:03.450',0.185,0.000
'0:03.453',0.190,-0.010
'0:03.456',0.185,-0.020
'0:03.458',0.215,-0.015
'0:03.461',0.230,-0.010
'0:03.464',0.245,-0.030
'0:03.467',0.250,-0.040
'0:03.469',0.235,-0.045
'0:03.472',0.240,-0.045
'0:03.475',0.265,-0.045
'0:03.478',0.280,-0.035
'0:03.481',0.305,-0.045
'0:03.483',0.285,-0.070
'0:03.486',0.300,-0.075
'0:03.489',0.310,-0.070
'0:03.492',0.315,-0.050
'0:03.494',0.340,-0.030
'0:03.497',0.355,-0.035
'0:03.500',0.345,-0.030
'0:03.503',0.330,-0.030
'0:03.506',0.315,-0.010
'0:03.508',0.325,0.010
'0:03.511',0.335,0.025
'0:03.514',0.315,0.020
'0:03.517',0.300,0.025
'0:03.519',0.280,0.025
'0:03.522',0.250,0.035
'0:03.525',0.260,0.055
'0:03.528',0.255,0.085
'0:03.531',0.240,0.075
'0:03.533',0.210,0.060
'0:03.536',0.180,0.050
'0:03.539',0.165,0.055
'0:03.542',0.145,0.080
'0:03.544',0.135,0.100
'0:03.547',0.135,0.105
'0:03.550',0.095,0.090
'0:03.553',0.070,0.085
'0:03.556',0.055,0.085
'0:03.558',0.040,0.105
'0:03.561',0.050,0.115
'0:03.564',0.045,0.085
'0:03.567',0.030,0.085
'0:03.569',0.005,0.080
'0:03.572',0.000,0.090
'0:03.575',0.010,0.100
'0:03.578',0.005,0.110
'0:03.581',0.015,0.105
'0:03.583',-0.005,0.085
'0:03.586',-0.035,0.085
'0:03.589',-0.045,0.085
'0:03.592',-0.040,0.090
'0:03.594',-0.025,0.110
'0:03.597',-0.010,0.095
'0:03.600',-0.035,0.090
'0:03.603',-0.070,0.080
'0:03.606',-0.065,0.090
'0:03.608',-0.040,0.100
'0:03.611',-0.040,0.115
'0:03.614',-0.040,0.100
'0:03.617',-0.040,0.090
'0:03.619',-0.060,0.080
'0:03.622',-0.055,0.080
'0:03.625',-0.065,0.105
'0:03.628',-0.030,0.120
'0:03.631',-0.020,0.115
'0:03.633',-0.045,0.090
'0:03.636',-0.050,0.070
'0:03.639',-0.045,0.090
'0:03.642',-0.050,0.100
'0:03.644',-0.020,0.110
'0:03.647',-0.020,0.115
'0:03.650',-0.030,0.110
'0:03.653',-0.050,0.115
'0:03.656',-0.050,0.105
'0:03.658',-0.045,0.120
'0:03.661',-0.050,0.135
'0:03.664',-0.040,0.110
'0:03.667',-0.030,0.095
'0:03.669',-0.045,0.105
'0:03.672',-0.055,0.100
'0:03.675',-0.055,0.115
'0:03.678',-0.025,0.120
'0:03.681',-0.030,0.115
'0:03.683',-0.040,0.105
'0:03.686',-0.055,0.090
'0:03.689',-0.050,0.095
'0:03.692',-0.040,0.115
'0:03.694',-0.040,0.125
'0:03.697',-0.030,0.115
'0:03.700',-0.045,0.095
'0:03.703',-0.040,0.085
'0:03.706',-0.050,0.100
'0:03.708',-0.035,0.115
'0:03.711',-0.025,0.110
'0:03.714',-0.025,0.110
'0:03.717',-0.030,0.095
'0:03.719',-0.060,0.085
'0:03.722',-0.070,0.095
'0:03.725',-0.050,0.105
'0:03.728',-0.020,0.120
'0:03.731',-0.020,0.115
'0:03.733',-0.025,0.105
'0:03.736',-0.040,0.085
'0:03.739',-0.045,0.095
'0:03.742',-0.030,0.105
'0:03.744',-0.005,0.110
'0:03.747',0.000,0.115
'0:03.750',-0.010,0.095
'0:03.753',-0.020,0.080
'0:03.756',-0.040,0.085
'0:03.758',-0.020,0.105
'0:03.761',-0.005,0.105
'0:03.764',-0.005,0.110
'0:03.767',-0.015,0.105
'0:03.769',-0.040,0.085
'0:03.772',-0.045,0.085
'0:03.775',-0.035,0.095
'0:03.778',-0.025,0.110
'0:03.781',0.000,0.115
'0:03.783',-0.015,0.105
'0:03.786',-0.035,0.090
'0:03.789',-0.050,0.105
'0:03.792',-0.030,0.115
'0:03.794',-0.015,0.120
'0:03.797',-0.010,0.110
'0:03.800',-0.015,0.095
'0:03.803',-0.035,0.075
'0:03.806',-0.035,0.090
'0:03.808',-0.035,0.100
'0:03.811',-0.015,0.105
'0:03.814',-0.020,0.095
'0:03.817',-0.015,0.080
'0:03.819',-0.030,0.080
'0:03.822',-0.050,0.085
'0:03.825',-0.035,0.110
'0:03.828',-0.010,0.120
'0:03.831',0.000,0.110
'0:03.833',-0.020,0.095
'0:03.836',-0.030,0.075
'0:03.839',-0.045,0.090
'0:03.842',-0.020,0.085
'0:03.844',-0.010,0.100
'0:03.847',-0.005,0.110
'0:03.850',-0.015,0.100
'0:03.853',-0.035,0.075
'0:03.856',-0.035,0.085
'0:03.858',-0.030,0.100
'0:03.861',-0.005,0.100
'0:03.864',-0.015,0.095
'0:03.867',-0.010,0.070
'0:03.869',-0.040,0.060
'0:03.872',-0.040,0.075
'0:03.875',-0.045,0.090
'0:03.878',-0.050,0.100
'0:03.881',-0.035,0.095
'0:03.883',-0.035,0.060
'0:03.886',-0.065,0.055
'0:03.889',-0.055,0.065
'0:03.892',-0.055,0.075
'0:03.894',-0.030,0.105
'0:03.897',-0.020,0.090
'0:03.900',-0.040,0.075
'0:03.903',-0.045,0.075
'0:03.906',-0.040,0.070
'0:03.908',-0.040,0.085
'0:03.911',-0.035,0.100
'0:03.914',-0.025,0.085
'0:03.917',-0.035,0.075
'0:03.919',-0.040,0.065
'0:03.922',-0.050,0.075
'0:03.925',-0.040,0.090
'0:03.928',-0.025,0.095
'0:03.931',-0.030,0.075
'0:03.933',-0.025,0.070
'0:03.936',-0.040,0.045
'0:03.939',-0.065,0.070
'0:03.942',-0.050,0.080
'0:03.944',-0.020,0.085
'0:03.947',-0.015,0.075
'0:03.950',-0.030,0.065
'0:03.953',-0.035,0.050
'0:03.956',-0.050,0.070
'0:03.958',-0.035,0.080
'0:03.961',-0.020,0.090
'0:03.964',-0.025,0.075
'0:03.967',-0.035,0.065
'0:03.969',-0.060,0.045
'0:03.972',-0.065,0.050
'0:03.975',-0.045,0.060
'0:03.978',-0.025,0.085
'0:03.981',-0.030,0.085
'0:03.983',-0.035,0.065
'0:03.986',-0.060,0.055
'0:03.989',-0.055,0.065
'0:03.992',-0.040,0.075
'0:03.994',-0.030,0.085
'0:03.997',-0.035,0.070
'0:04.000',-0.035,0.060
'0:04.003',-0.035,0.050
'0:04.006',-0.045,0.060
'0:04.008',-0.050,0.065
'0:04.011',-0.030,0.090
'0:04.014',-0.015,0.085
'0:04.017',-0.040,0.075
'0:04.019',-0.060,0.065
'0:04.022',-0.055,0.070
'0:04.025',-0.040,0.080
'0:04.028',-0.035,0.095
'0:04.031',-0.035,0.090
'0:04.033',-0.045,0.075
'0:04.036',-0.050,0.070
'0:04.039',-0.050,0.075
'0:04.042',-0.040,0.085
'0:04.044',-0.020,0.085
'0:04.047',-0.030,0.075
'0:04.050',-0.040,0.060
'0:04.053',-0.045,0.045
'0:04.056',-0.050,0.070
'0:04.058',-0.030,0.080
'0:04.061',-0.020,0.090
'0:04.064',-0.020,0.075
'0:04.067',-0.035,0.075
'0:04.069',-0.040,0.055
'0:04.072',-0.045,0.055
'0:04.075',-0.035,0.075
'0:04.078',-0.025,0.080
'0:04.081',-0.020,0.080
'0:04.083',-0.025,0.065
'0:04.086',-0.035,0.060
'0:04.089',-0.050,0.070
'0:04.092',-0.040,0.070
'0:04.094',-0.045,0.100
'0:04.097',-0.020,0.085
'0:04.100',-0.025,0.065
'0:04.103',-0.030,0.050
'0:04.106',-0.045,0.070
'0:04.108',-0.040,0.075
'0:04.111',-0.015,0.085
'0:04.114',-0.010,0.085
'0:04.117',-0.025,0.065
'0:04.119',-0.035,0.060
'0:04.122',-0.040,0.060
'0:04.125',-0.035,0.070
'0:04.128',-0.010,0.095
'0:04.131',-0.005,0.085
'0:04.133',-0.020,0.075
'0:04.136',-0.040,0.070
'0:04.139',-0.035,0.060
'0:04.142',-0.015,0.090
'0:04.144',-0.020,0.095
'0:04.147',-0.025,0.090
'0:04.150',-0.010,0.080
'0:04.153',-0.045,0.060
'0:04.156',-0.035,0.055
'0:04.158',-0.030,0.085
'0:04.161',-0.010,0.090
'0:04.164',-0.020,0.080
'0:04.167',-0.015,0.070
'0:04.169',-0.025,0.055
'0:04.172',-0.020,0.060
'0:04.175',-0.020,0.075
'0:04.178',-0.005,0.080
'0:04.181',0.005,0.070
'0:04.183',-0.020,0.055
'0:04.186',-0.030,0.030
'0:04.189',-0.010,0.055
'0:04.192',0.005,0.075
'0:04.194',0.010,0.095
'0:04.197',0.010,0.120
'0:04.200',0.010,0.095
'0:04.203',-0.015,0.100
'0:04.206',-0.020,0.100
'0:04.208',-0.020,0.125
'0:04.211',-0.005,0.135
'0:04.214',-0.010,0.125
'0:04.217',0.010,0.120
'0:04.219',0.005,0.105
'0:04.222',0.030,0.115
'0:04.225',0.040,0.130
'0:04.228',0.055,0.135
'0:04.231',0.075,0.115
'0:04.233',0.075,0.105
'0:04.236',0.060,0.095
'0:04.239',0.050,0.105
'0:04.242',0.055,0.120
'0:04.244',0.075,0.135
'0:04.247',0.070,0.115
'0:04.250',0.060,0.100
'0:04.253',0.050,0.085
'0:04.256',0.030,0.095
'0:04.258',0.035,0.100
'0:04.261',0.040,0.110
'0:04.264',0.035,0.100
'0:04.267',0.020,0.085
'0:04.269',0.000,0.080
'0:04.272',-0.005,0.085
'0:04.275',0.005,0.105
'0:04.278',0.020,0.105
'0:04.281',0.015,0.120
'0:04.283',0.010,0.110
'0:04.286',0.010,0.100
'0:04.289',0.005,0.105
'0:04.292',0.010,0.110
'0:04.294',0.025,0.120
'0:04.297',0.020,0.095
'0:04.300',0.020,0.080
'0:04.303',-0.005,0.070
'0:04.306',-0.010,0.085
'0:04.308',0.015,0.080
'0:04.311',0.030,0.090
'0:04.314',0.035,0.090
'0:04.317',0.020,0.085
'0:04.319',0.020,0.075
'0:04.322',0.030,0.095
'0:04.325',0.050,0.120
'0:04.328',0.060,0.155
'0:04.331',0.075,0.165
'0:04.333',0.075,0.160
'0:04.336',0.075,0.135
'0:04.339',0.095,0.090
'0:04.342',0.135,0.040
'0:04.344',0.170,-0.050
'0:04.347',0.200,-0.175
'0:04.350',0.220,-0.295
'0:04.353',0.295,-0.445
'0:04.356',0.405,-0.590
'0:04.358',0.540,-0.730
'0:04.361',0.690,-0.850
'0:04.364',0.835,-0.935
'0:04.367',0.970,-0.940
'0:04.369',1.065,-0.900
'0:04.372',1.205,-0.800
'0:04.375',1.360,-0.685
'0:04.378',1.480,-0.530
'0:04.381',1.515,-0.370
'0:04.383',1.455,-0.225
'0:04.386',1.315,-0.120
'0:04.389',1.110,-0.010
'0:04.392',0.875,0.065
'0:04.394',0.700,0.090
'0:04.397',0.515,0.060
'0:04.400',0.335,0.020
'0:04.403',0.175,-0.005
'0:04.406',0.090,0.020
'0:04.408',0.080,0.060
'0:04.411',0.105,0.100
'0:04.414',0.115,0.095
'0:04.417',0.105,0.110
'0:04.419',0.075,0.085
'0:04.422',0.045,0.095
'0:04.425',0.035,0.120
'0:04.428',0.035,0.125
'0:04.431',0.025,0.105
'0:04.433',0.010,0.115
'0:04.436',-0.020,0.105
'0:04.439',-0.020,0.105
'0:04.442',-0.020,0.125
'0:04.444',-0.015,0.140
'0:04.447',-0.005,0.145
'0:04.450',-0.020,0.120
'0:04.453',-0.035,0.120
'0:04.456',-0.045,0.130
'0:04.458',-0.040,0.135
'0:04.461',-0.025,0.150
'0:04.464',-0.030,0.140
'0:04.467',-0.030,0.135
'0:04.469',-0.045,0.105
'0:04.472',-0.050,0.115
'0:04.475',-0.050,0.130
'0:04.478',-0.050,0.135
'0:04.481',-0.045,0.150
'0:04.483',-0.035,0.125
'0:04.486',-0.060,0.120
'0:04.489',-0.065,0.120
'0:04.492',-0.060,0.130
'0:04.494',-0.040,0.145
'0:04.497',-0.030,0.135
'0:04.500',-0.045,0.120
'0:04.503',-0.045,0.105
'0:04.506',-0.040,0.125
'0:04.508',-0.030,0.125
'0:04.511',-0.015,0.140
'0:04.514',-0.015,0.140
'0:04.517',-0.025,0.125
'0:04.519',-0.025,0.110
'0:04.522',-0.030,0.120
'0:04.525',-0.025,0.125
'0:04.528',-0.005,0.135
'0:04.531',0.010,0.130
'0:04.533',0.000,0.120
'0:04.536',-0.015,0.120
'0:04.539',-0.005,0.105
'0:04.542',-0.005,0.115
'0:04.544',0.020,0.120
'0:04.547',0.010,0.135
'0:04.550',0.015,0.105
'0:04.553',0.000,0.095
'0:04.556',0.010,0.090
'0:04.558',0.025,0.115
'0:04.561',0.055,0.110
'0:04.564',0.060,0.095
'0:04.567',0.055,0.085
'0:04.569',0.055,0.075
'0:04.572',0.055,0.085
'0:04.575',0.060,0.090
'0:04.578',0.090,0.110
'0:04.581',0.090,0.095
'0:04.583',0.095,0.070
'0:04.586',0.100,0.050
'0:04.589',0.085,0.060
'0:04.592',0.120,0.065
'0:04.594',0.145,0.075
'0:04.597',0.150,0.060
'0:04.600',0.145,0.040
'0:04.603',0.150,0.030
'0:04.606',0.150,0.030
'0:04.608',0.180,0.040
'0:04.611',0.200,0.025
'0:04.614',0.210,0.025
'0:04.617',0.220,0.010
'0:04.619',0.220,0.010
'0:04.622',0.220,0.000
'0:04.625',0.240,0.005
'0:04.628',0.255,0.015
'0:04.631',0.285,0.000
'0:04.633',0.275,-0.010
'0:04.636',0.265,-0.015
'0:04.639',0.275,-0.010
'0:04.642',0.290,0.010
'0:04.644',0.290,0.010
'0:04.647',0.310,-0.005
'0:04.650',0.320,-0.010
'0:04.653',0.300,-0.005
'0:04.656',0.290,-0.005
'0:04.658',0.315,0.015
'0:04.661',0.305,0.025
'0:04.664',0.320,0.025
'0:04.667',0.290,0.025
'0:04.669',0.280,0.020
'0:04.672',0.250,0.030
'0:04.675',0.245,0.050
'0:04.678',0.250,0.080
'0:04.681',0.225,0.075
'0:04.683',0.210,0.070
'0:04.686',0.175,0.070
'0:04.689',0.155,0.070
'0:04.692',0.145,0.095
'0:04.694',0.130,0.105
'0:04.697',0.120,0.105
'0:04.700',0.095,0.085
'0:04.703',0.065,0.095
'0:04.706',0.045,0.105
'0:04.708',0.045,0.120
'0:04.711',0.040,0.140
'0:04.714',0.030,0.135
'0:04.717',0.015,0.105
'0:04.719',-0.010,0.110
'0:04.722',-0.030,0.115
'0:04.725',-0.020,0.125
'0:04.728',-0.015,0.125
'0:04.731',-0.020,0.125
'0:04.733',-0.055,0.120
'0:04.736',-0.060,0.095
'0:04.739',-0.065,0.110
'0:04.742',-0.080,0.125
'0:04.744',-0.060,0.135
'0:04.747',-0.045,0.130
'0:04.750',-0.065,0.120
'0:04.753',-0.080,0.110
'0:04.756',-0.085,0.115
'0:04.758',-0.080,0.115
'0:04.761',-0.080,0.130
'0:04.764',-0.085,0.135
'0:04.767',-0.085,0.110
'0:04.769',-0.080,0.110
'0:04.772',-0.095,0.120
'0:04.775',-0.080,0.125
'0:04.778',-0.075,0.145
'0:04.781',-0.075,0.130
'0:04.783',-0.075,0.125
'0:04.786',-0.090,0.120
'0:04.789',-0.100,0.135
'0:04.792',-0.085,0.140
'0:04.794',-0.075,0.150
'0:04.797',-0.070,0.140
'0:04.800',-0.080,0.130
'0:04.803',-0.095,0.130
'0:04.806',-0.090,0.135
'0:04.808',-0.085,0.145
'0:04.811',-0.065,0.155
'0:04.814',-0.065,0.145
'0:04.817',-0.070,0.150
'0:04.819',-0.085,0.130
'0:04.822',-0.090,0.135
'0:04.825',-0.080,0.145
'0:04.828',-0.055,0.160
'0:04.831',-0.075,0.150
'0:04.833',-0.065,0.145
'0:04.836',-0.090,0.120
'0:04.839',-0.085,0.130
'0:04.842',-0.075,0.145
'0:04.844',-0.055,0.155
'0:04.847',-0.055,0.145
'0:04.850',-0.065,0.135
'0:04.853',-0.085,0.120
'0:04.856',-0.075,0.130
'0:04.858',-0.065,0.140
'0:04.861',-0.060,0.160
'0:04.864',-0.055,0.145
'0:04.867',-0.065,0.140
'0:04.869',-0.075,0.115
'0:04.872',-0.085,0.130
'0:04.875',-0.065,0.145
'0:04.878',-0.050,0.155
'0:04.881',-0.065,0.150
'0:04.883',-0.060,0.140
'0:04.886',-0.070,0.125
'0:04.889',-0.075,0.135
'0:04.892',-0.075,0.145
'0:04.894',-0.055,0.155
'0:04.897',-0.050,0.155
'0:04.900',-0.065,0.140
'0:04.903',-0.075,0.130
'0:04.906',-0.075,0.140
'0:04.908',-0.070,0.145
'0:04.911',-0.055,0.150
'0:04.914',-0.060,0.145
'0:04.917',-0.060,0.135
'0:04.919',-0.075,0.135
'0:04.922',-0.085,0.135
'0:04.925',-0.080,0.150
'0:04.928',-0.065,0.150
'0:04.931',-0.050,0.145
'0:04.933',-0.065,0.140
'0:04.936',-0.080,0.130
'0:04.939',-0.090,0.135
'0:04.942',-0.075,0.140
'0:04.944',-0.070,0.150
'0:04.947',-0.040,0.150
'0:04.950',-0.070,0.140
'0:04.953',-0.075,0.130
'0:04.956',-0.085,0.135
'0:04.958',-0.075,0.150
'0:04.961',-0.060,0.155
'0:04.964',-0.045,0.150
'0:04.967',-0.060,0.140
'0:04.969',-0.090,0.125
'0:04.972',-0.090,0.130
'0:04.975',-0.075,0.140
'0:04.978',-0.055,0.155
'0:04.981',-0.055,0.145
'0:04.983',-0.060,0.145
'0:04.986',-0.070,0.145
'0:04.989',-0.065,0.145
'0:04.992',-0.060,0.155
'0:04.994',-0.070,0.160
'0:04.997',-0.060,0.150
'0:05.000',-0.055,0.145
'0:05.003',-0.070,0.120
'0:05.006',-0.085,0.135
'0:05.008',-0.075,0.150
'0:05.011',-0.065,0.160
'0:05.014',-0.055,0.160
'0:05.017',-0.075,0.130
'0:05.019',-0.085,0.120
'0:05.022',-0.085,0.140
'0:05.025',-0.080,0.145
'0:05.028',-0.065,0.155
'0:05.031',-0.065,0.135
'0:05.033',-0.075,0.135
'0:05.036',-0.085,0.115
'0:05.039',-0.080,0.130
'0:05.042',-0.070,0.125
'0:05.044',-0.070,0.145
'0:05.047',-0.080,0.155
'0:05.050',-0.070,0.115
'0:05.053',-0.080,0.125
'0:05.056',-0.095,0.120
'0:05.058',-0.070,0.140
'0:05.061',-0.055,0.145
'0:05.064',-0.055,0.130
'0:05.067',-0.065,0.115
'0:05.069',-0.085,0.120
'0:05.072',-0.095,0.120
'0:05.075',-0.075,0.135
'0:05.078',-0.075,0.145
'0:05.081',-0.065,0.135
'0:05.083',-0.075,0.115
'0:05.086',-0.080,0.115
'0:05.089',-0.085,0.120
'0:05.092',-0.070,0.125
'0:05.094',-0.060,0.140
'0:05.097',-0.055,0.130
'0:05.100',-0.070,0.110
'0:05.103',-0.095,0.105
'0:05.106',-0.080,0.120
'0:05.108',-0.075,0.135
'0:05.111',-0.055,0.140
'0:05.114',-0.055,0.140
'0:05.117',-0.075,0.120
'0:05.119',-0.075,0.105
'0:05.122',-0.075,0.115
'0:05.125',-0.075,0.120
'0:05.128',-0.065,0.140
'0:05.131',-0.065,0.120
'0:05.133',-0.070,0.115
'0:05.136',-0.095,0.105
'0:05.139',-0.090,0.120
'0:05.142',-0.075,0.135
'0:05.144',-0.065,0.150
'0:05.147',-0.075,0.130
'0:05.150',-0.075,0.130
'0:05.153',-0.085,0.115
'0:05.156',-0.090,0.130
'0:05.158',-0.075,0.130
'0:05.161',-0.060,0.150
'0:05.164',-0.055,0.140
'0:05.167',-0.055,0.120
'0:05.169',-0.075,0.130
'0:05.172',-0.070,0.115
'0:05.175',-0.065,0.130
'0:05.178',-0.055,0.135
'0:05.181',-0.065,0.130
'0:05.183',-0.045,0.125
'0:05.186',-0.065,0.120
'0:05.189',-0.075,0.110
'0:05.192',-0.065,0.115
'0:05.194',-0.045,0.125
'0:05.197',-0.040,0.115
'0:05.200',-0.045,0.115
'0:05.203',-0.070,0.105
'0:05.206',-0.065,0.120
'0:05.208',-0.060,0.130
'0:05.211',-0.035,0.155
'0:05.214',-0.035,0.130
'0:05.217',-0.045,0.115
'0:05.219',-0.065,0.105
'0:05.222',-0.080,0.110
'0:05.225',-0.065,0.125
'0:05.228',-0.055,0.140
'0:05.231',-0.060,0.110
'0:05.233',-0.075,0.110
'0:05.236',-0.065,0.115
'0:05.239',-0.080,0.115
'0:05.242',-0.060,0.115
'0:05.244',-0.050,0.125
'0:05.247',-0.035,0.115
'0:05.250',-0.050,0.100
'0:05.253',-0.065,0.095
'0:05.256',-0.065,0.100
'0:05.258',-0.070,0.125
'0:05.261',-0.060,0.125
'0:05.264',-0.045,0.125
'0:05.267',-0.055,0.115
'0:05.269',-0.060,0.105
'0:05.272',-0.050,0.110
'0:05.275',-0.060,0.120
'0:05.278',-0.040,0.130
'0:05.281',-0.040,0.120
'0:05.283',-0.050,0.110
'0:05.286',-0.080,0.110
'0:05.289',-0.075,0.110
'0:05.292',-0.085,0.130
'0:05.294',-0.040,0.135
'0:05.297',-0.040,0.125
'0:05.300',-0.050,0.110
'0:05.303',-0.060,0.095
'0:05.306',-0.050,0.110
'0:05.308',-0.040,0.115
'0:05.311',-0.030,0.125
'0:05.314',-0.015,0.100
'0:05.317',-0.020,0.100
'0:05.319',-0.035,0.085
'0:05.322',-0.045,0.110
'0:05.325',-0.030,0.135
'0:05.328',-0.035,0.155
'0:05.331',-0.035,0.145
'0:05.333',-0.045,0.145
'0:05.336',-0.055,0.145
'0:05.339',-0.065,0.150
'0:05.342',-0.045,0.155
'0:05.344',-0.025,0.170
'0:05.347',-0.010,0.160
'0:05.350',0.010,0.130
'0:05.353',0.000,0.125
'0:05.356',0.010,0.115
'0:05.358',0.015,0.110
'0:05.361',0.025,0.135
'0:05.364',0.030,0.125
'0:05.367',0.010,0.115
'0:05.369',0.005,0.100
'0:05.372',0.010,0.120
'0:05.375',0.015,0.135
'0:05.378',0.020,0.140
'0:05.381',0.015,0.120
'0:05.383',-0.005,0.105
'0:05.386',-0.020,0.095
'0:05.389',-0.035,0.105
'0:05.392',-0.025,0.120
'0:05.394',-0.035,0.120
'0:05.397',-0.030,0.120
'0:05.400',-0.050,0.110
'0:05.403',-0.055,0.095
'0:05.406',-0.060,0.100
'0:05.408',-0.050,0.110
'0:05.411',-0.050,0.125
'0:05.414',-0.035,0.125
'0:05.417',-0.040,0.105
'0:05.419',-0.060,0.100
'0:05.422',-0.060,0.085
'0:05.425',-0.050,0.105
'0:05.428',-0.030,0.115
'0:05.431',-0.035,0.115
'0:05.433',-0.055,0.105
'0:05.436',-0.055,0.085
'0:05.439',-0.065,0.110
'0:05.442',-0.055,0.105
'0:05.444',-0.035,0.135
'0:05.447',-0.020,0.135
'0:05.450',-0.010,0.140
'0:05.453',-0.010,0.140
'0:05.456',-0.025,0.155
'0:05.458',0.020,0.145
'0:05.461',0.055,0.130
'0:05.464',0.095,0.025
'0:05.467',0.100,-0.085
'0:05.469',0.130,-0.195
'0:05.472',0.190,-0.315
'0:05.475',0.290,-0.430
'0:05.478',0.405,-0.570
'0:05.481',0.510,-0.725
'0:05.483',0.635,-0.860
'0:05.486',0.750,-0.945
'0:05.489',0.875,-0.965
'0:05.492',1.000,-0.900
'0:05.494',1.145,-0.815
'0:05.497',1.270,-0.695
'0:05.500',1.350,-0.545
'0:05.503',1.335,-0.365
'0:05.506',1.240,-0.195
'0:05.508',1.095,-0.060
'0:05.511',0.915,0.030
'0:05.514',0.700,0.050
'0:05.517',0.510,0.045
'0:05.519',0.335,0.000
'0:05.522',0.195,0.025
'0:05.525',0.105,0.045
'0:05.528',0.085,0.095
'0:05.531',0.080,0.110
'0:05.533',0.055,0.110
'0:05.536',0.045,0.110
'0:05.539',0.030,0.110
'0:05.542',0.005,0.125
'0:05.544',-0.015,0.150
'0:05.547',-0.030,0.145
'0:05.550',-0.055,0.140
'0:05.553',-0.070,0.130
'0:05.556',-0.080,0.140
'0:05.558',-0.075,0.155
'0:05.561',-0.070,0.165
'0:05.564',-0.065,0.175
'0:05.567',-0.075,0.150
'0:05.569',-0.110,0.145
'0:05.572',-0.100,0.145
'0:05.575',-0.095,0.160
'0:05.578',-0.085,0.170
'0:05.581',-0.085,0.165
'0:05.583',-0.095,0.150
'0:05.586',-0.110,0.140
'0:05.589',-0.110,0.155
'0:05.592',-0.105,0.150
'0:05.594',-0.100,0.160
'0:05.597',-0.090,0.160
'0:05.600',-0.100,0.150
'0:05.603',-0.115,0.150
'0:05.606',-0.115,0.145
'0:05.608',-0.115,0.155
'0:05.611',-0.100,0.175
'0:05.614',-0.100,0.155
'0:05.617',-0.090,0.145
'0:05.619',-0.110,0.125
'0:05.622',-0.110,0.140
'0:05.625',-0.100,0.165
'0:05.628',-0.100,0.170
'0:05.631',-0.090,0.150
'0:05.633',-0.080,0.140
'0:05.636',-0.095,0.125
'0:05.639',-0.090,0.130
'0:05.642',-0.085,0.145
'0:05.644',-0.060,0.165
'0:05.647',-0.055,0.150
'0:05.650',-0.065,0.145
'0:05.653',-0.070,0.135
'0:05.656',-0.065,0.135
'0:05.658',-0.060,0.140
'0:05.661',-0.035,0.150
'0:05.664',-0.030,0.140
'0:05.667',-0.025,0.130
'0:05.669',-0.040,0.115
'0:05.672',-0.045,0.125
'0:05.675',-0.025,0.120
'0:05.678',-0.005,0.135
'0:05.681',0.010,0.115
'0:05.683',0.005,0.100
'0:05.686',-0.005,0.095
'0:05.689',-0.005,0.090
'0:05.692',0.015,0.100
'0:05.694',0.035,0.105
'0:05.697',0.050,0.085
'0:05.700',0.050,0.080
'0:05.703',0.050,0.065
'0:05.706',0.060,0.065
'0:05.708',0.060,0.085
'0:05.711',0.100,0.095
'0:05.714',0.120,0.070
'0:05.717',0.125,0.050
'0:05.719',0.120,0.040
'0:05.722',0.135,0.045
'0:05.725',0.155,0.060
'0:05.728',0.190,0.055
'0:05.731',0.190,0.040
'0:05.733',0.195,0.025
'0:05.736',0.195,0.015
'0:05.739',0.195,0.010
'0:05.742',0.220,0.010
'0:05.744',0.245,0.025
'0:05.747',0.250,0.015
'0:05.750',0.250,0.005
'0:05.753',0.245,0.000
'0:05.756',0.260,0.005
'0:05.758',0.275,0.010
'0:05.761',0.295,0.020
'0:05.764',0.300,0.035
'0:05.767',0.290,0.025
'0:05.769',0.270,0.015
'0:05.772',0.260,0.035
'0:05.775',0.265,0.060
'0:05.778',0.260,0.075
'0:05.781',0.250,0.070
'0:05.783',0.220,0.075
'0:05.786',0.175,0.060
'0:05.789',0.160,0.085
'0:05.792',0.150,0.100
'0:05.794',0.145,0.115
'0:05.797',0.120,0.110
'0:05.800',0.090,0.105
'0:05.803',0.055,0.095
'0:05.806',0.025,0.100
'0:05.808',0.010,0.105
'0:05.811',0.010,0.115
'0:05.814',-0.005,0.115
'0:05.817',-0.010,0.115
'0:05.819',-0.035,0.105
'0:05.822',-0.055,0.100
'0:05.825',-0.045,0.115
'0:05.828',-0.050,0.130
'0:05.831',-0.050,0.120
'0:05.833',-0.070,0.125
'0:05.836',-0.100,0.095
'0:05.839',-0.100,0.105
'0:05.842',-0.100,0.125
'0:05.844',-0.080,0.125
'0:05.847',-0.085,0.115
'0:05.850',-0.095,0.105
'0:05.853',-0.110,0.085
'0:05.856',-0.120,0.095
'0:05.858',-0.115,0.115
'0:05.861',-0.110,0.120
'0:05.864',-0.115,0.115
'0:05.867',-0.110,0.105
'0:05.869',-0.120,0.095
'0:05.872',-0.140,0.110
'0:05.875',-0.125,0.115
'0:05.878',-0.105,0.130
'0:05.881',-0.095,0.115
'0:05.883',-0.105,0.110
'0:05.886',-0.120,0.105
'0:05.889',-0.135,0.110
'0:05.892',-0.115,0.115
'0:05.894',-0.095,0.130
'0:05.897',-0.095,0.120
'0:05.900',-0.105,0.125
'0:05.903',-0.110,0.100
'0:05.906',-0.120,0.125
'0:05.908',-0.100,0.140
'0:05.911',-0.095,0.135
'0:05.914',-0.085,0.140
'0:05.917',-0.105,0.130
'0:05.919',-0.110,0.125
'0:05.922',-0.120,0.130
'0:05.925',-0.100,0.145
'0:05.928',-0.090,0.150
'0:05.931',-0.090,0.140
'0:05.933',-0.095,0.130
'0:05.936',-0.115,0.120
'0:05.939',-0.115,0.130
'0:05.942',-0.100,0.150
'0:05.944',-0.100,0.160
'0:05.947',-0.095,0.150
'0:05.950',-0.105,0.130
'0:05.953',-0.115,0.120
'0:05.956',-0.120,0.130
'0:05.958',-0.120,0.140
'0:05.961',-0.105,0.150
'0:05.964',-0.100,0.150
'0:05.967',-0.105,0.120
'0:05.969',-0.105,0.115
'0:05.972',-0.125,0.135
'0:05.975',-0.110,0.145
'0:05.978',-0.095,0.145
'0:05.981',-0.095,0.145
'0:05.983',-0.110,0.120
'0:05.986',-0.125,0.110
'0:05.989',-0.105,0.115
'0:05.992',-0.105,0.135
'0:05.994',-0.090,0.145
'0:05.997',-0.090,0.130
'0:06.000',-0.095,0.120
'0:06.003',-0.115,0.110
'0:06.006',-0.120,0.120
'0:06.008',-0.115,0.140
'0:06.011',-0.100,0.130
'0:06.014',-0.105,0.135
'0:06.017',-0.095,0.115
'0:06.019',-0.110,0.110
'0:06.022',-0.125,0.105
'0:06.025',-0.110,0.125
'0:06.028',-0.095,0.135
'0:06.031',-0.100,0.125
'0:06.033',-0.105,0.110
'0:06.036',-0.110,0.115
'0:06.039',-0.120,0.105
'0:06.042',-0.110,0.130
'0:06.044',-0.115,0.135
'0:06.047',-0.110,0.120
'0:06.050',-0.110,0.110
'0:06.053',-0.130,0.100
'0:06.056',-0.130,0.100
'0:06.058',-0.120,0.110
'0:06.061',-0.105,0.120
'0:06.064',-0.115,0.120
'0:06.067',-0.110,0.120
'0:06.069',-0.125,0.100
'0:06.072',-0.135,0.105
'0:06.075',-0.140,0.115
'0:06.078',-0.120,0.115
'0:06.081',-0.120,0.110
'0:06.083',-0.130,0.105
'0:06.086',-0.140,0.075
'0:06.089',-0.150,0.080
'0:06.092',-0.130,0.105
'0:06.094',-0.125,0.110
'0:06.097',-0.115,0.105
'0:06.100',-0.130,0.105
'0:06.103',-0.140,0.090
'0:06.106',-0.130,0.085
'0:06.108',-0.125,0.105
'0:06.111',-0.110,0.115
'0:06.114',-0.125,0.120
'0:06.117',-0.120,0.105
'0:06.119',-0.125,0.090
'0:06.122',-0.140,0.085
'0:06.125',-0.125,0.100
'0:06.128',-0.115,0.110
'0:06.131',-0.120,0.100
'0:06.133',-0.120,0.085
'0:06.136',-0.135,0.075
'0:06.139',-0.125,0.090
'0:06.142',-0.120,0.105
'0:06.144',-0.105,0.120
'0:06.147',-0.105,0.105
'0:06.150',-0.125,0.085
'0:06.153',-0.135,0.070
'0:06.156',-0.125,0.085
'0:06.158',-0.135,0.090
'0:06.161',-0.115,0.105
'0:06.164',-0.110,0.095
'0:06.167',-0.135,0.090
'0:06.169',-0.140,0.070
'0:06.172',-0.150,0.070
'0:06.175',-0.130,0.090
'0:06.178',-0.120,0.090
'0:06.181',-0.110,0.100
'0:06.183',-0.125,0.085
'0:06.186',-0.140,0.060
'0:06.189',-0.140,0.070
'0:06.192',-0.135,0.085
'0:06.194',-0.120,0.085
'0:06.197',-0.115,0.085
'0:06.200',-0.120,0.075
'0:06.203',-0.135,0.075
'0:06.206',-0.155,0.080
'0:06.208',-0.145,0.095
'0:06.211',-0.105,0.095
'0:06.214',-0.110,0.090
'0:06.217',-0.130,0.085
'0:06.219',-0.145,0.075
'0:06.222',-0.140,0.075
'0:06.225',-0.130,0.085
'0:06.228',-0.120,0.090
'0:06.231',-0.120,0.090
'0:06.233',-0.125,0.080
'0:06.236',-0.145,0.065
'0:06.239',-0.140,0.090
'0:06.242',-0.135,0.085
'0:06.244',-0.115,0.090
'0:06.247',-0.115,0.080
'0:06.250',-0.120,0.070
'0:06.253',-0.135,0.055
'0:06.256',-0.125,0.075
'0:06.258',-0.125,0.080
'0:06.261',-0.115,0.085
'0:06.264',-0.115,0.090
'0:06.267',-0.120,0.065
'0:06.269',-0.140,0.060
'0:06.272',-0.140,0.070
'0:06.275',-0.130,0.090
'0:06.278',-0.130,0.090
'0:06.281',-0.110,0.085
'0:06.283',-0.125,0.070
'0:06.286',-0.130,0.065
'0:06.289',-0.140,0.065
'0:06.292',-0.130,0.075
'0:06.294',-0.110,0.080
'0:06.297',-0.110,0.075
'0:06.300',-0.120,0.055
'0:06.303',-0.140,0.055
'0:06.306',-0.140,0.060
'0:06.308',-0.130,0.060
'0:06.311',-0.110,0.080
'0:06.314',-0.105,0.070
'0:06.317',-0.110,0.060
'0:06.319',-0.130,0.045
'0:06.322',-0.160,0.050
'0:06.325',-0.135,0.065
'0:06.328',-0.125,0.080
'0:06.331',-0.100,0.075
'0:06.333',-0.115,0.040
'0:06.336',-0.145,0.040
'0:06.339',-0.130,0.060
'0:06.342',-0.120,0.065
'0:06.344',-0.100,0.075
'0:06.347',-0.105,0.065
'0:06.350',-0.100,0.050
'0:06.353',-0.120,0.040
'0:06.356',-0.125,0.050
'0:06.358',-0.120,0.055
'0:06.361',-0.100,0.065
'0:06.364',-0.090,0.070
'0:06.367',-0.100,0.055
'0:06.369',-0.115,0.030
'0:06.372',-0.130,0.045
'0:06.375',-0.120,0.040
'0:06.378',-0.095,0.065
'0:06.381',-0.100,0.055
'0:06.383',-0.115,0.035
'0:06.386',-0.125,0.035
'0:06.389',-0.110,0.040
'0:06.392',-0.100,0.045
'0:06.394',-0.085,0.065
'0:06.397',-0.095,0.055
'0:06.400',-0.090,0.060
'0:06.403',-0.095,0.060
'0:06.406',-0.100,0.070
'0:06.408',-0.095,0.095
'0:06.411',-0.095,0.100
'0:06.414',-0.095,0.095
'0:06.417',-0.095,0.100
'0:06.419',-0.095,0.085
'0:06.422',-0.085,0.085
'0:06.425',-0.060,0.090
'0:06.428',-0.045,0.110
'0:06.431',-0.030,0.100
'0:06.433',-0.020,0.075
'0:06.436',-0.025,0.055
'0:06.439',-0.025,0.070
'0:06.442',-0.020,0.085
'0:06.444',-0.010,0.090
'0:06.447',-0.010,0.075
'0:06.450',-0.010,0.075
'0:06.453',-0.045,0.055
'0:06.456',-0.050,0.065
'0:06.458',-0.035,0.060
'0:06.461',-0.035,0.070
'0:06.464',-0.035,0.065
'0:06.467',-0.050,0.055
'0:06.469',-0.065,0.040
'0:06.472',-0.090,0.045
'0:06.475',-0.075,0.060
'0:06.478',-0.045,0.065
'0:06.481',-0.045,0.065
'0:06.483',-0.055,0.045
'0:06.486',-0.075,0.045
'0:06.489',-0.065,0.045
'0:06.492',-0.070,0.050
'0:06.494',-0.060,0.055
'0:06.497',-0.040,0.055
'0:06.500',-0.055,0.040
'0:06.503',-0.055,0.040
'0:06.506',-0.060,0.025
'0:06.508',-0.060,0.040
'0:06.511',-0.035,0.055
'0:06.514',-0.040,0.050
'0:06.517',-0.045,0.035
'0:06.519',-0.045,0.050
'0:06.522',-0.045,0.065
'0:06.525',-0.030,0.090
'0:06.528',0.000,0.115
'0:06.531',0.005,0.090
'0:06.533',0.025,0.045
'0:06.536',0.030,-0.040
'0:06.539',0.070,-0.145
'0:06.542',0.115,-0.250
'0:06.544',0.190,-0.380
'0:06.547',0.265,-0.520
'0:06.550',0.395,-0.680
'0:06.553',0.520,-0.835
'0:06.556',0.665,-0.940
'0:06.558',0.840,-0.960
'0:06.561',0.990,-0.925
'0:06.564',1.135,-0.845
'0:06.567',1.265,-0.765
'0:06.569',1.370,-0.645
'0:06.572',1.430,-0.485
'0:06.575',1.400,-0.335
'0:06.578',1.275,-0.200
'0:06.581',1.060,-0.090
'0:06.583',0.815,-0.025
'0:06.586',0.600,-0.015
'0:06.589',0.400,-0.010
'0:06.592',0.230,-0.030
'0:06.594',0.105,-0.030
'0:06.597',0.030,-0.015
'0:06.600',0.005,-0.010
'0:06.603',-0.005,0.000
'0:06.606',-0.010,0.020
'0:06.608',0.000,0.050
'0:06.611',-0.005,0.055
'0:06.614',-0.015,0.060
'0:06.617',-0.045,0.050
'0:06.619',-0.075,0.055
'0:06.622',-0.095,0.060
'0:06.625',-0.100,0.075
'0:06.628',-0.095,0.090
'0:06.631',-0.095,0.090
'0:06.633',-0.095,0.070
'0:06.636',-0.125,0.060
'0:06.639',-0.125,0.080
'0:06.642',-0.125,0.080
'0:06.644',-0.110,0.095
'0:06.647',-0.105,0.105
'0:06.650',-0.115,0.095
'0:06.653',-0.135,0.070
'0:06.656',-0.135,0.080
'0:06.658',-0.125,0.100
'0:06.661',-0.110,0.110
'0:06.664',-0.115,0.080
'0:06.667',-0.115,0.080
'0:06.669',-0.135,0.065
'0:06.672',-0.140,0.085
'0:06.675',-0.130,0.095
'0:06.678',-0.115,0.115
'0:06.681',-0.125,0.105
'0:06.683',-0.115,0.080
'0:06.686',-0.135,0.080
'0:06.689',-0.125,0.085
'0:06.692',-0.120,0.095
'0:06.694',-0.105,0.105
'0:06.697',-0.105,0.095
'0:06.700',-0.110,0.090
'0:06.703',-0.105,0.075
'0:06.706',-0.110,0.080
'0:06.708',-0.095,0.095
'0:06.711',-0.085,0.105
'0:06.714',-0.085,0.100
'0:06.717',-0.080,0.080
'0:06.719',-0.080,0.060
'0:06.722',-0.090,0.075
'0:06.725',-0.075,0.080
'0:06.728',-0.060,0.090
'0:06.731',-0.050,0.080
'0:06.733',-0.050,0.055
'0:06.736',-0.060,0.050
'0:06.739',-0.075,0.060
'0:06.742',-0.045,0.060
'0:06.744',-0.050,0.055
'0:06.747',-0.035,0.060
'0:06.750',-0.045,0.040
'0:06.753',-0.045,0.030
'0:06.756',-0.045,0.040
'0:06.758',-0.020,0.045
'0:06.761',0.000,0.060
'0:06.764',0.005,0.040
'0:06.767',0.010,0.020
'0:06.769',0.005,0.010
'0:06.772',0.005,0.005
'0:06.775',0.030,0.010
'0:06.778',0.055,0.025
'0:06.781',0.075,0.010
'0:06.783',0.070,0.000
'0:06.786',0.075,-0.020
'0:06.789',0.080,0.000
'0:06.792',0.100,-0.005
'0:06.794',0.130,0.005
'0:06.797',0.140,-0.010
'0:06.800',0.140,-0.015
'0:06.803',0.140,-0.040
'0:06.806',0.155,-0.030
'0:06.808',0.175,-0.025
'0:06.811',0.200,-0.025
'0:06.814',0.210,-0.035
'0:06.817',0.205,-0.045
'0:06.819',0.195,-0.060
'0:06.822',0.190,-0.045
'0:06.825',0.210,-0.040
'0:06.828',0.240,-0.025
'0:06.831',0.255,-0.030
'0:06.833',0.245,-0.030
'0:06.836',0.245,-0.040
'0:06.839',0.230,-0.020
'0:06.842',0.240,-0.005
'0:06.844',0.250,0.010
'0:06.847',0.240,0.010
'0:06.850',0.225,0.010
'0:06.853',0.195,0.000
'0:06.856',0.175,0.010
'0:06.858',0.160,0.035
'0:06.861',0.140,0.050
'0:06.864',0.130,0.050
'0:06.867',0.115,0.055
'0:06.869',0.080,0.045
'0:06.872',0.055,0.060
'0:06.875',0.040,0.065
'0:06.878',0.045,0.090
'0:06.881',0.030,0.075
'0:06.883',0.005,0.070
'0:06.886',-0.020,0.055
'0:06.889',-0.045,0.075
'0:06.892',-0.045,0.075
'0:06.894',-0.045,0.095
'0:06.897',-0.060,0.090
'0:06.900',-0.080,0.075
'0:06.903',-0.085,0.075
'0:06.906',-0.090,0.075
'0:06.908',-0.080,0.090
'0:06.911',-0.090,0.100
'0:06.914',-0.090,0.105
'0:06.917',-0.105,0.085
'0:06.919',-0.105,0.075
'0:06.922',-0.115,0.075
'0:06.925',-0.115,0.090
'0:06.928',-0.100,0.105
'0:06.931',-0.095,0.090
'0:06.933',-0.100,0.090
'0:06.936',-0.120,0.080
'0:06.939',-0.120,0.080
'0:06.942',-0.120,0.095
'0:06.944',-0.110,0.100
'0:06.947',-0.100,0.105
'0:06.950',-0.115,0.090
'0:06.953',-0.130,0.075
'0:06.956',-0.130,0.085
'0:06.958',-0.125,0.105
'0:06.961',-0.110,0.125
'0:06.964',-0.120,0.120
'0:06.967',-0.120,0.095
'0:06.969',-0.120,0.100
'0:06.972',-0.125,0.110
'0:06.975',-0.115,0.115
'0:06.978',-0.110,0.120
'0:06.981',-0.095,0.120
'0:06.983',-0.100,0.100
'0:06.986',-0.115,0.095
'0:06.989',-0.135,0.105
'0:06.992',-0.125,0.110
'0:06.994',-0.095,0.140
'0:06.997',-0.100,0.125
'0:07.000',-0.100,0.115
'0:07.003',-0.120,0.105
'0:07.006',-0.120,0.115
'0:07.008',-0.110,0.115
'0:07.011',-0.080,0.130
'0:07.014',-0.085,0.125
'0:07.017',-0.090,0.100
'0:07.019',-0.105,0.090
'0:07.022',-0.120,0.100
'0:07.025',-0.100,0.120
'0:07.028',-0.095,0.130
'0:07.031',-0.085,0.135
'0:07.033',-0.100,0.115
'0:07.036',-0.105,0.100
'0:07.039',-0.120,0.110
'0:07.042',-0.115,0.120
'0:07.044',-0.110,0.125
'0:07.047',-0.110,0.120
'0:07.050',-0.110,0.105
'0:07.053',-0.120,0.095
'0:07.056',-0.125,0.100
'0:07.058',-0.115,0.110
'0:07.061',-0.110,0.125
'0:07.064',-0.110,0.130
'0:07.067',-0.130,0.100
'0:07.069',-0.120,0.105
'0:07.072',-0.135,0.110
'0:07.075',-0.115,0.115
'0:07.078',-0.110,0.120
'0:07.081',-0.105,0.125
'0:07.083',-0.105,0.100
'0:07.086',-0.135,0.100
'0:07.089',-0.145,0.105
'0:07.092',-0.120,0.125
'0:07.094',-0.110,0.120
'0:07.097',-0.115,0.115
'0:07.100',-0.130,0.100
'0:07.103',-0.150,0.100
'0:07.106',-0.140,0.105
'0:07.108',-0.120,0.110
'0:07.111',-0.120,0.120
'0:07.114',-0.100,0.130
'0:07.117',-0.120,0.095
'0:07.119',-0.130,0.105
'0:07.122',-0.135,0.120
'0:07.125',-0.125,0.115
'0:07.128',-0.110,0.125
'0:07.131',-0.110,0.120
'0:07.133',-0.130,0.110
'0:07.136',-0.135,0.100
'0:07.139',-0.130,0.105
'0:07.142',-0.120,0.115
'0:07.144',-0.110,0.130
'0:07.147',-0.100,0.125
'0:07.150',-0.110,0.110
'0:07.153',-0.130,0.095
'0:07.156',-0.135,0.110
'0:07.158',-0.125,0.125
'0:07.161',-0.120,0.125
'0:07.164',-0.110,0.125
'0:07.167',-0.110,0.110
'0:07.169',-0.125,0.105
'0:07.172',-0.135,0.115
'0:07.175',-0.125,0.120
'0:07.178',-0.105,0.135
'0:07.181',-0.110,0.135
'0:07.183',-0.110,0.130
'0:07.186',-0.135,0.115
'0:07.189',-0.125,0.120
'0:07.192',-0.125,0.135
'0:07.194',-0.120,0.150
'0:07.197',-0.120,0.140
'0:07.200',-0.110,0.115
'0:07.203',-0.125,0.110
'0:07.206',-0.145,0.125
'0:07.208',-0.105,0.135
'0:07.211',-0.105,0.125
'0:07.214',-0.115,0.140
'0:07.217',-0.120,0.130
'0:07.219',-0.125,0.110
'0:07.222',-0.120,0.115
'0:07.225',-0.110,0.135
'0:07.228',-0.110,0.150
'0:07.231',-0.095,0.135
'0:07.233',-0.110,0.130
'0:07.236',-0.125,0.105
'0:07.239',-0.125,0.115
'0:07.242',-0.115,0.130
'0:07.244',-0.115,0.140
'0:07.247',-0.100,0.130
'0:07.250',-0.100,0.120
'0:07.253',-0.130,0.110
'0:07.256',-0.140,0.120
'0:07.258',-0.125,0.130
'0:07.261',-0.105,0.145
'0:07.264',-0.105,0.130
'0:07.267',-0.100,0.105
'0:07.269',-0.105,0.105
'0:07.272',-0.115,0.110
'0:07.275',-0.110,0.135
'0:07.278',-0.100,0.140
'0:07.281',-0.105,0.130
'0:07.283',-0.110,0.125
'0:07.286',-0.125,0.110
'0:07.289',-0.120,0.120
'0:07.292',-0.105,0.135
'0:07.294',-0.100,0.145
'0:07.297',-0.100,0.130
'0:07.300',-0.100,0.125
'0:07.303',-0.120,0.110
'0:07.306',-0.135,0.120
'0:07.308',-0.110,0.135
'0:07.311',-0.110,0.140
'0:07.314',-0.100,0.125
'0:07.317',-0.115,0.125
'0:07.319',-0.110,0.120
'0:07.322',-0.115,0.120
'0:07.325',-0.105,0.135
'0:07.328',-0.080,0.150
'0:07.331',-0.080,0.130
'0:07.333',-0.100,0.125
'0:07.336',-0.100,0.105
'0:07.339',-0.120,0.120
'0:07.342',-0.095,0.125
'0:07.344',-0.085,0.140
'0:07.347',-0.090,0.135
'0:07.350',-0.095,0.110
'0:07.353',-0.110,0.105
'0:07.356',-0.100,0.115
'0:07.358',-0.110,0.130
'0:07.361',-0.090,0.140
'0:07.364',-0.090,0.135
'0:07.367',-0.095,0.120
'0:07.369',-0.105,0.105
'0:07.372',-0.110,0.125
'0:07.375',-0.095,0.135
'0:07.378',-0.095,0.150
'0:07.381',-0.095,0.140
'0:07.383',-0.090,0.120
'0:07.386',-0.105,0.105
'0:07.389',-0.105,0.120
'0:07.392',-0.095,0.130
'0:07.394',-0.075,0.160
'0:07.397',-0.080,0.125
'0:07.400',-0.080,0.125
'0:07.403',-0.105,0.125
'0:07.406',-0.095,0.130
'0:07.408',-0.080,0.130
'0:07.411',-0.085,0.150
'0:07.414',-0.075,0.140
'0:07.417',-0.070,0.125
'0:07.419',-0.090,0.115
'0:07.422',-0.090,0.130
'0:07.425',-0.075,0.135
'0:07.428',-0.065,0.155
'0:07.431',-0.065,0.145
'0:07.433',-0.080,0.135
'0:07.436',-0.090,0.125
'0:07.439',-0.080,0.120
'0:07.442',-0.075,0.135
'0:07.444',-0.065,0.160
'0:07.447',-0.055,0.145
'0:07.450',-0.065,0.120
'0:07.453',-0.080,0.120
'0:07.456',-0.070,0.120
'0:07.458',-0.080,0.135
'0:07.461',-0.050,0.145
'0:07.464',-0.055,0.125
'0:07.467',-0.060,0.110
'0:07.469',-0.065,0.100
'0:07.472',-0.080,0.120
'0:07.475',-0.065,0.125
'0:07.478',-0.040,0.135
'0:07.481',-0.045,0.130
'0:07.483',-0.045,0.135
'0:07.486',-0.065,0.120
'0:07.489',-0.060,0.140
'0:07.492',-0.060,0.155
'0:07.494',-0.055,0.170
'0:07.497',-0.060,0.170
'0:07.500',-0.060,0.155
'0:07.503',-0.065,0.150
'0:07.506',-0.060,0.155
'0:07.508',-0.050,0.165
'0:07.511',-0.020,0.175
'0:07.514',0.005,0.150
'0:07.517',-0.005,0.130
'0:07.519',-0.010,0.130
'0:07.522',-0.020,0.140
'0:07.525',-0.005,0.140
'0:07.528',-0.010,0.150
'0:07.531',0.000,0.145
'0:07.533',-0.005,0.125
'0:07.536',-0.025,0.115
'0:07.539',-0.040,0.120
'0:07.542',-0.030,0.135
'0:07.544',-0.025,0.140
'0:07.547',-0.025,0.135
'0:07.550',-0.040,0.125
'0:07.553',-0.065,0.110
'0:07.556',-0.080,0.120
'0:07.558',-0.090,0.145
'0:07.561',-0.060,0.135
'0:07.564',-0.060,0.145
'0:07.567',-0.060,0.130
'0:07.569',-0.070,0.120
'0:07.572',-0.070,0.120
'0:07.575',-0.065,0.125
'0:07.578',-0.040,0.150
'0:07.581',-0.035,0.130
'0:07.583',-0.040,0.115
'0:07.586',-0.050,0.100
'0:07.589',-0.065,0.125
'0:07.592',-0.055,0.150
'0:07.594',-0.030,0.140
'0:07.597',-0.025,0.140
'0:07.600',-0.025,0.130
'0:07.603',-0.040,0.125
'0:07.606',-0.030,0.155
'0:07.608',-0.020,0.185
'0:07.611',0.000,0.200
'0:07.614',0.015,0.185
'0:07.617',0.035,0.150
'0:07.619',0.035,0.090
'0:07.622',0.065,0.000
'0:07.625',0.115,-0.085
'0:07.628',0.165,-0.185
'0:07.631',0.250,-0.305
'0:07.633',0.335,-0.460
'0:07.636',0.430,-0.605
'0:07.639',0.545,-0.745
'0:07.642',0.670,-0.850
'0:07.644',0.820,-0.900
'0:07.647',0.955,-0.905
'0:07.650',1.050,-0.855
'0:07.653',1.130,-0.785
'0:07.656',1.240,-0.665
'0:07.658',1.325,-0.485
'0:07.661',1.315,-0.305
'0:07.664',1.210,-0.155
'0:07.667',1.050,-0.060
'0:07.669',0.850,0.005
'0:07.672',0.650,0.035
'0:07.675',0.475,0.050
'0:07.678',0.340,0.045
'0:07.681',0.215,0.050
'0:07.683',0.125,0.070
'0:07.686',0.055,0.075
'0:07.689',0.045,0.110
'0:07.692',0.050,0.135
'0:07.694',0.050,0.160
'0:07.697',0.040,0.160
'0:07.700',0.015,0.150
'0:07.703',-0.030,0.150
'0:07.706',-0.040,0.150
'0:07.708',-0.055,0.175
'0:07.711',-0.060,0.175
'0:07.714',-0.070,0.180
'0:07.717',-0.100,0.165
'0:07.719',-0.100,0.145
'0:07.722',-0.130,0.155
'0:07.725',-0.135,0.175
'0:07.728',-0.110,0.190
'0:07.731',-0.125,0.180
'0:07.733',-0.135,0.170
'0:07.736',-0.145,0.160
'0:07.739',-0.170,0.165
'0:07.742',-0.160,0.180
'0:07.744',-0.140,0.180
'0:07.747',-0.130,0.180
'0:07.750',-0.140,0.175
'0:07.753',-0.150,0.165
'0:07.756',-0.155,0.170
'0:07.758',-0.135,0.185
'0:07.761',-0.130,0.205
'0:07.764',-0.140,0.205
'0:07.767',-0.140,0.170
'0:07.769',-0.140,0.160
'0:07.772',-0.135,0.180
'0:07.775',-0.125,0.190
'0:07.778',-0.115,0.205
'0:07.781',-0.100,0.205
'0:07.783',-0.110,0.180
'0:07.786',-0.135,0.165
'0:07.789',-0.125,0.175
'0:07.792',-0.105,0.185
'0:07.794',-0.110,0.195
'0:07.797',-0.100,0.185
'0:07.800',-0.095,0.175
'0:07.803',-0.105,0.160
'0:07.806',-0.100,0.170
'0:07.808',-0.095,0.180
'0:07.811',-0.070,0.185
'0:07.814',-0.055,0.170
'0:07.817',-0.070,0.155
'0:07.819',-0.095,0.155
'0:07.822',-0.075,0.145
'0:07.825',-0.060,0.160
'0:07.828',-0.050,0.165
'0:07.831',-0.040,0.180
'0:07.833',-0.040,0.150
'0:07.836',-0.055,0.135
'0:07.839',-0.035,0.130
'0:07.842',-0.035,0.160
'0:07.844',0.000,0.160
'0:07.847',0.020,0.155
'0:07.850',0.020,0.135
'0:07.853',0.010,0.125
'0:07.856',0.010,0.125
'0:07.858',0.035,0.140
'0:07.861',0.055,0.140
'0:07.864',0.065,0.130
'0:07.867',0.060,0.110
'0:07.869',0.070,0.095
'0:07.872',0.065,0.090
'0:07.875',0.090,0.100
'0:07.878',0.120,0.100
'0:07.881',0.130,0.105
'0:07.883',0.125,0.080
'0:07.886',0.125,0.055
'0:07.889',0.125,0.060
'0:07.892',0.135,0.070
'0:07.894',0.160,0.075
'0:07.897',0.185,0.060
'0:07.900',0.185,0.045
'0:07.903',0.175,0.020
'0:07.906',0.185,0.035
'0:07.908',0.195,0.055
'0:07.911',0.240,0.065
'0:07.914',0.255,0.060
'0:07.917',0.255,0.045
'0:07.919',0.220,0.040
'0:07.922',0.230,0.035
'0:07.925',0.230,0.070
'0:07.928',0.250,0.090
'0:07.931',0.245,0.075
'0:07.933',0.225,0.070
'0:07.936',0.210,0.065
'0:07.939',0.190,0.075
'0:07.942',0.195,0.095
'0:07.944',0.180,0.105
'0:07.947',0.170,0.120
'0:07.950',0.140,0.115
'0:07.953',0.105,0.110
'0:07.956',0.085,0.115
'0:07.958',0.075,0.125
'0:07.961',0.065,0.140
'0:07.964',0.045,0.135
'0:07.967',0.030,0.130
'0:07.969',-0.010,0.125
'0:07.972',-0.035,0.135
'0:07.975',-0.040,0.145
'0:07.978',-0.040,0.155
'0:07.981',-0.040,0.150
'0:07.983',-0.060,0.140
'0:07.986',-0.085,0.135
'0:07.989',-0.095,0.140
'0:07.992',-0.100,0.140
'0:07.994',-0.100,0.155
'0:07.997',-0.100,0.155
'0:08.000',-0.115,0.140
'0:08.003',-0.135,0.135
'0:08.006',-0.145,0.140
'0:08.008',-0.140,0.150
'0:08.011',-0.140,0.160
'0:08.014',-0.135,0.150
'0:08.017',-0.140,0.130
'0:08.019',-0.145,0.125
'0:08.022',-0.160,0.130
'0:08.025',-0.160,0.140
'0:08.028',-0.145,0.150
'0:08.031',-0.140,0.140
'0:08.033',-0.155,0.130
'0:08.036',-0.165,0.120
'0:08.039',-0.170,0.125
'0:08.042',-0.165,0.145
'0:08.044',-0.145,0.150
'0:08.047',-0.160,0.140
'0:08.050',-0.155,0.125
'0:08.053',-0.165,0.120
'0:08.056',-0.185,0.120
'0:08.058',-0.170,0.145
'0:08.061',-0.160,0.145
'0:08.064',-0.140,0.150
'0:08.067',-0.150,0.145
'0:08.069',-0.165,0.130
'0:08.072',-0.175,0.140
'0:08.075',-0.175,0.155
'0:08.078',-0.165,0.165
'0:08.081',-0.145,0.150
'0:08.083',-0.155,0.140
'0:08.086',-0.165,0.135
'0:08.089',-0.185,0.145
'0:08.092',-0.170,0.165
'0:08.094',-0.155,0.185
'0:08.097',-0.145,0.170
'0:08.100',-0.155,0.165
'0:08.103',-0.170,0.150
'0:08.106',-0.165,0.155
'0:08.108',-0.160,0.165
'0:08.111',-0.145,0.175
'0:08.114',-0.135,0.165
'0:08.117',-0.145,0.155
'0:08.119',-0.165,0.135
'0:08.122',-0.170,0.150
'0:08.125',-0.150,0.175
'0:08.128',-0.140,0.185
'0:08.131',-0.125,0.175
'0:08.133',-0.140,0.155
'0:08.136',-0.155,0.150
'0:08.139',-0.155,0.165
'0:08.142',-0.140,0.165
'0:08.144',-0.130,0.180
'0:08.147',-0.125,0.170
'0:08.150',-0.135,0.150
'0:08.153',-0.160,0.135
'0:08.156',-0.155,0.155
'0:08.158',-0.155,0.165
'0:08.161',-0.135,0.170
'0:08.164',-0.135,0.175
'0:08.167',-0.130,0.150
'0:08.169',-0.150,0.145
'0:08.172',-0.160,0.165
'0:08.175',-0.155,0.160
'0:08.178',-0.145,0.175
'0:08.181',-0.125,0.175
'0:08.183',-0.135,0.140
'0:08.186',-0.160,0.145
'0:08.189',-0.160,0.150
'0:08.192',-0.145,0.160
'0:08.194',-0.135,0.165
'0:08.197',-0.140,0.165
'0:08.200',-0.150,0.145
'0:08.203',-0.165,0.135
'0:08.206',-0.165,0.130
'0:08.208',-0.175,0.155
'0:08.211',-0.145,0.160
'0:08.214',-0.150,0.155
'0:08.217',-0.145,0.140
'0:08.219',-0.175,0.125
'0:08.222',-0.170,0.145
'0:08.225',-0.160,0.135
'0:08.228',-0.150,0.155
'0:08.231',-0.140,0.140
'0:08.233',-0.160,0.140
'0:08.236',-0.180,0.130
'0:08.239',-0.175,0.135
'0:08.242',-0.165,0.155
'0:08.244',-0.150,0.140
'0:08.247',-0.145,0.145
'0:08.250',-0.165,0.130
'0:08.253',-0.175,0.125
'0:08.256',-0.180,0.130
'0:08.258',-0.175,0.135
'0:08.261',-0.160,0.145
'0:08.264',-0.155,0.135
'0:08.267',-0.180,0.120
'0:08.269',-0.190,0.125
'0:08.272',-0.190,0.120
'0:08.275',-0.175,0.150
'0:08.278',-0.160,0.140
'0:08.281',-0.155,0.120
'0:08.283',-0.165,0.110
'0:08.286',-0.180,0.125
'0:08.289',-0.185,0.115
'0:08.292',-0.175,0.135
'0:08.294',-0.165,0.135
'0:08.297',-0.160,0.135
'0:08.300',-0.170,0.110
'0:08.303',-0.180,0.100
'0:08.306',-0.190,0.115
'0:08.308',-0.175,0.125
'0:08.311',-0.175,0.125
'0:08.314',-0.155,0.130
'0:08.317',-0.175,0.110
'0:08.319',-0.185,0.110
'0:08.322',-0.190,0.105
'0:08.325',-0.160,0.120
'0:08.328',-0.150,0.140
'0:08.331',-0.160,0.130
'0:08.333',-0.165,0.110
'0:08.336',-0.170,0.105
'0:08.339',-0.175,0.095
'0:08.342',-0.170,0.115
'0:08.344',-0.165,0.135
'0:08.347',-0.155,0.130
'0:08.350',-0.175,0.125
'0:08.353',-0.180,0.100
'0:08.356',-0.185,0.110
'0:08.358',-0.155,0.110
'0:08.361',-0.145,0.125
'0:08.364',-0.145,0.140
'0:08.367',-0.150,0.120
'0:08.369',-0.165,0.100
'0:08.372',-0.175,0.115
'0:08.375',-0.155,0.130
'0:08.378',-0.150,0.140
'0:08.381',-0.145,0.135
'0:08.383',-0.140,0.110
'0:08.386',-0.155,0.110
'0:08.389',-0.160,0.105
'0:08.392',-0.140,0.115
'0:08.394',-0.135,0.125
'0:08.397',-0.135,0.130
'0:08.400',-0.140,0.105
'0:08.403',-0.170,0.100
'0:08.406',-0.150,0.105
'0:08.408',-0.140,0.120
'0:08.411',-0.135,0.125
'0:08.414',-0.130,0.125
'0:08.417',-0.130,0.100
'0:08.419',-0.135,0.105
'0:08.422',-0.160,0.110
'0:08.425',-0.150,0.115
'0:08.428',-0.125,0.125
'0:08.431',-0.125,0.130
'0:08.433',-0.135,0.115
'0:08.436',-0.150,0.095
'0:08.439',-0.150,0.110
'0:08.442',-0.135,0.110
'0:08.444',-0.120,0.135
'0:08.447',-0.125,0.120
'0:08.450',-0.120,0.105
'0:08.453',-0.155,0.095
'0:08.456',-0.145,0.100
'0:08.458',-0.145,0.115
'0:08.461',-0.125,0.130
'0:08.464',-0.135,0.120
'0:08.467',-0.130,0.110
'0:08.469',-0.150,0.100
'0:08.472',-0.145,0.110
'0:08.475',-0.135,0.115
'0:08.478',-0.120,0.135
'0:08.481',-0.125,0.135
'0:08.483',-0.120,0.110
'0:08.486',-0.145,0.105
'0:08.489',-0.145,0.100
'0:08.492',-0.125,0.115
'0:08.494',-0.115,0.125
'0:08.497',-0.110,0.120
'0:08.500',-0.130,0.100
'0:08.503',-0.140,0.100
'0:08.506',-0.145,0.100
'0:08.508',-0.145,0.110
'0:08.511',-0.125,0.120
'0:08.514',-0.120,0.115
'0:08.517',-0.125,0.115
'0:08.519',-0.135,0.095
'0:08.522',-0.135,0.105
'0:08.525',-0.125,0.120
'0:08.528',-0.120,0.115
'0:08.531',-0.105,0.115
'0:08.533',-0.115,0.100
'0:08.536',-0.125,0.090
'0:08.539',-0.135,0.100
'0:08.542',-0.135,0.110
'0:08.544',-0.105,0.115
'0:08.547',-0.100,0.110
'0:08.550',-0.115,0.090
'0:08.553',-0.125,0.080
'0:08.556',-0.130,0.095
'0:08.558',-0.130,0.110
'0:08.561',-0.120,0.110
'0:08.564',-0.110,0.105
'0:08.567',-0.125,0.090
'0:08.569',-0.120,0.075
'0:08.572',-0.120,0.085
'0:08.575',-0.110,0.090
'0:08.578',-0.105,0.105
'0:08.581',-0.100,0.100
'0:08.583',-0.095,0.075
'0:08.586',-0.110,0.080
'0:08.589',-0.105,0.080
'0:08.592',-0.120,0.095
'0:08.594',-0.095,0.095
'0:08.597',-0.085,0.090
'0:08.600',-0.095,0.075
'0:08.603',-0.100,0.075
'0:08.606',-0.110,0.075
'0:08.608',-0.100,0.100
'0:08.611',-0.095,0.135
'0:08.614',-0.095,0.130
'0:08.617',-0.100,0.125
'0:08.619',-0.120,0.110
'0:08.622',-0.130,0.115
'0:08.625',-0.135,0.130
'0:08.628',-0.095,0.145
'0:08.631',-0.100,0.135
'0:08.633',-0.085,0.120
'0:08.636',-0.085,0.105
'0:08.639',-0.075,0.110
'0:08.642',-0.060,0.125
'0:08.644',-0.030,0.115
'0:08.647',-0.025,0.100
'0:08.650',-0.025,0.090
'0:08.653',-0.045,0.085
'0:08.656',-0.045,0.095
'0:08.658',-0.035,0.100
'0:08.661',-0.015,0.110
'0:08.664',-0.025,0.110
'0:08.667',-0.035,0.110
'0:08.669',-0.045,0.085
'0:08.672',-0.065,0.090
'0:08.675',-0.060,0.105
'0:08.678',-0.055,0.100
'0:08.681',-0.055,0.110
'0:08.683',-0.070,0.090
'0:08.686',-0.095,0.085
'0:08.689',-0.095,0.095
'0:08.692',-0.090,0.105
'0:08.694',-0.090,0.120
'0:08.697',-0.075,0.115
'0:08.700',-0.080,0.090
'0:08.703',-0.095,0.080
'0:08.706',-0.115,0.080
'0:08.708',-0.110,0.090
'0:08.711',-0.075,0.105
'0:08.714',-0.075,0.100
'0:08.717',-0.080,0.100
'0:08.719',-0.105,0.080
'0:08.722',-0.105,0.080
'0:08.725',-0.085,0.090
'0:08.728',-0.080,0.100
'0:08.731',-0.075,0.095
'0:08.733',-0.080,0.090
'0:08.736',-0.095,0.070
'0:08.739',-0.085,0.095
'0:08.742',-0.055,0.100
'0:08.744',-0.050,0.130
'0:08.747',-0.030,0.155
'0:08.750',-0.030,0.155
'0:08.753',-0.040,0.145
'0:08.756',-0.030,0.135
'0:08.758',0.005,0.080
'0:08.761',0.035,0.020
'0:08.764',0.080,-0.095
'0:08.767',0.100,-0.225
'0:08.769',0.125,-0.360
'0:08.772',0.210,-0.490
'0:08.775',0.330,-0.630
'0:08.778',0.455,-0.770
'0:08.781',0.575,-0.890
'0:08.783',0.695,-0.970
'0:08.786',0.815,-0.980
'0:08.789',0.910,-0.935
'0:08.792',1.020,-0.855
'0:08.794',1.150,-0.745
'0:08.797',1.245,-0.620
'0:08.800',1.275,-0.465
'0:08.803',1.205,-0.310
'0:08.806',1.080,-0.180
'0:08.808',0.930,-0.065
'0:08.811',0.750,0.025
'0:08.814',0.565,0.040
'0:08.817',0.405,0.020
'0:08.819',0.250,-0.005
'0:08.822',0.125,-0.020
'0:08.825',0.050,0.010
'0:08.828',0.010,0.040
'0:08.831',0.000,0.070
'0:08.833',0.010,0.070
'0:08.836',-0.015,0.085
'0:08.839',-0.020,0.080
'0:08.842',-0.030,0.100
'0:08.844',-0.040,0.115
'0:08.847',-0.060,0.110
'0:08.850',-0.085,0.095
'0:08.853',-0.105,0.105
'0:08.856',-0.125,0.105
'0:08.858',-0.125,0.120
'0:08.861',-0.115,0.125
'0:08.864',-0.115,0.130
'0:08.867',-0.135,0.105
'0:08.869',-0.160,0.100
'0:08.872',-0.155,0.100
'0:08.875',-0.150,0.125
'0:08.878',-0.130,0.135
'0:08.881',-0.140,0.130
'0:08.883',-0.160,0.120
'0:08.886',-0.165,0.105
'0:08.889',-0.170,0.125
'0:08.892',-0.160,0.130
'0:08.894',-0.150,0.145
'0:08.897',-0.145,0.140
'0:08.900',-0.155,0.120
'0:08.903',-0.165,0.110
'0:08.906',-0.180,0.130
'0:08.908',-0.165,0.130
'0:08.911',-0.150,0.155
'0:08.914',-0.150,0.140
'0:08.917',-0.150,0.130
'0:08.919',-0.165,0.125
'0:08.922',-0.170,0.130
'0:08.925',-0.155,0.135
'0:08.928',-0.135,0.135
'0:08.931',-0.145,0.130
'0:08.933',-0.145,0.120
'0:08.936',-0.160,0.105
'0:08.939',-0.160,0.110
'0:08.942',-0.160,0.115
'0:08.944',-0.140,0.125
'0:08.947',-0.130,0.115
'0:08.950',-0.130,0.105
'0:08.953',-0.140,0.085
'0:08.956',-0.150,0.090
'0:08.958',-0.130,0.100
'0:08.961',-0.125,0.125
'0:08.964',-0.105,0.110
'0:08.967',-0.120,0.085
'0:08.969',-0.135,0.070
'0:08.972',-0.150,0.085
'0:08.975',-0.120,0.100
'0:08.978',-0.105,0.100
'0:08.981',-0.110,0.085
'0:08.983',-0.085,0.075
'0:08.986',-0.105,0.065
'0:08.989',-0.110,0.070
'0:08.992',-0.085,0.070
'0:08.994',-0.070,0.080
'0:08.997',-0.060,0.080
'0:09.000',-0.070,0.065
'0:09.003',-0.070,0.045
'0:09.006',-0.090,0.050
'0:09.008',-0.060,0.045
'0:09.011',-0.045,0.055
'0:09.014',-0.030,0.040
'0:09.017',-0.015,0.030
'0:09.019',-0.035,0.020
'0:09.022',-0.020,0.015
'0:09.025',-0.005,0.015
'0:09.028',0.010,0.035
'0:09.031',0.030,0.015
'0:09.033',0.035,-0.005
'0:09.036',0.035,-0.015
'0:09.039',0.040,-0.010
'0:09.042',0.055,-0.010
'0:09.044',0.080,-0.005
'0:09.047',0.090,-0.015
'0:09.050',0.105,-0.030
'0:09.053',0.115,-0.055
'0:09.056',0.095,-0.050
'0:09.058',0.115,-0.040
'0:09.061',0.145,-0.035
'0:09.064',0.165,-0.040
'0:09.067',0.165,-0.065
'0:09.069',0.155,-0.065
'0:09.072',0.155,-0.060
'0:09.075',0.165,-0.045
'0:09.078',0.180,-0.030
'0:09.081',0.210,-0.035
'0:09.083',0.190,-0.040
'0:09.086',0.180,-0.040
'0:09.089',0.185,-0.025
'0:09.092',0.170,0.000
'0:09.094',0.190,0.000
'0:09.097',0.175,0.005
'0:09.100',0.170,0.010
'0:09.103',0.150,-0.005
'0:09.106',0.125,0.010
'0:09.108',0.105,0.025
'0:09.111',0.105,0.045
'0:09.114',0.085,0.060
'0:09.117',0.060,0.050
'0:09.119',0.025,0.045
'0:09.122',0.015,0.050
'0:09.125',-0.015,0.055
'0:09.128',-0.010,0.075
'0:09.131',-0.010,0.080
'0:09.133',-0.040,0.065
'0:09.136',-0.075,0.060
'0:09.139',-0.100,0.070
'0:09.142',-0.085,0.080
'0:09.144',-0.090,0.085
'0:09.147',-0.095,0.095
'0:09.150',-0.110,0.075
'0:09.153',-0.145,0.055
'0:09.156',-0.145,0.065
'0:09.158',-0.160,0.075
'0:09.161',-0.150,0.095
'0:09.164',-0.165,0.085
'0:09.167',-0.160,0.070
'0:09.169',-0.180,0.070
'0:09.172',-0.195,0.075
'0:09.175',-0.185,0.080
'0:09.178',-0.175,0.095
'0:09.181',-0.180,0.105
'0:09.183',-0.190,0.080
'0:09.186',-0.195,0.065
'0:09.189',-0.215,0.065
'0:09.192',-0.200,0.085
'0:09.194',-0.205,0.095
'0:09.197',-0.185,0.080
'0:09.200',-0.195,0.080
'0:09.203',-0.215,0.060
'0:09.206',-0.215,0.070
'0:09.208',-0.205,0.090
'0:09.211',-0.210,0.100
'0:09.214',-0.195,0.090
'0:09.217',-0.200,0.070
'0:09.219',-0.225,0.065
'0:09.222',-0.210,0.070
'0:09.225',-0.200,0.080
'0:09.228',-0.195,0.080
'0:09.231',-0.190,0.090
'0:09.233',-0.210,0.065
'0:09.236',-0.205,0.065
'0:09.239',-0.210,0.065
'0:09.242',-0.195,0.090
'0:09.244',-0.185,0.090
'0:09.247',-0.185,0.095
'0:09.250',-0.190,0.075
'0:09.253',-0.205,0.070
'0:09.256',-0.215,0.075
'0:09.258',-0.200,0.100
'0:09.261',-0.200,0.110
'0:09.264',-0.200,0.100
'0:09.267',-0.210,0.090
'0:09.269',-0.215,0.080
'0:09.272',-0.210,0.080
'0:09.275',-0.200,0.090
'0:09.278',-0.180,0.110
'0:09.281',-0.185,0.100
'0:09.283',-0.190,0.090
'0:09.286',-0.200,0.080
'0:09.289',-0.210,0.095
'0:09.292',-0.195,0.110
'0:09.294',-0.200,0.110
'0:09.297',-0.185,0.105
'0:09.300',-0.185,0.110
'0:09.303',-0.205,0.080
'0:09.306',-0.205,0.095
'0:09.308',-0.195,0.095
'0:09.311',-0.180,0.110
'0:09.314',-0.180,0.120
'0:09.317',-0.195,0.100
'0:09.319',-0.205,0.085
'0:09.322',-0.190,0.075
'0:09.325',-0.175,0.095
'0:09.328',-0.165,0.100
'0:09.331',-0.160,0.110
'0:09.333',-0.170,0.095
'0:09.336',-0.195,0.075
'0:09.339',-0.210,0.090
'0:09.342',-0.200,0.095
'0:09.344',-0.155,0.105
'0:09.347',-0.160,0.090
'0:09.350',-0.165,0.080
'0:09.353',-0.185,0.080
'0:09.356',-0.180,0.085
'0:09.358',-0.175,0.090
'0:09.361',-0.170,0.100
'0:09.364',-0.170,0.095
'0:09.367',-0.175,0.090
'0:09.369',-0.185,0.065
'0:09.372',-0.180,0.090
'0:09.375',-0.175,0.105
'0:09.378',-0.175,0.100
'0:09.381',-0.160,0.090
'0:09.383',-0.180,0.080
'0:09.386',-0.195,0.075
'0:09.389',-0.190,0.080
'0:09.392',-0.180,0.110
'0:09.394',-0.160,0.105
'0:09.397',-0.165,0.105
'0:09.400',-0.175,0.085
'0:09.403',-0.175,0.075
'0:09.406',-0.200,0.085
'0:09.408',-0.185,0.105
'0:09.411',-0.165,0.110
'0:09.414',-0.160,0.110
'0:09.417',-0.170,0.090
'0:09.419',-0.180,0.070
'0:09.422',-0.180,0.080
'0:09.425',-0.180,0.090
'0:09.428',-0.160,0.095
'0:09.431',-0.170,0.105
'0:09.433',-0.175,0.085
'0:09.436',-0.180,0.090
'0:09.439',-0.195,0.085
'0:09.442',-0.185,0.085
'0:09.444',-0.170,0.095
'0:09.447',-0.160,0.095
'0:09.450',-0.160,0.080
'0:09.453',-0.175,0.080
'0:09.456',-0.185,0.080
'0:09.458',-0.175,0.085
'0:09.461',-0.150,0.095
'0:09.464',-0.145,0.100
'0:09.467',-0.165,0.070
'0:09.469',-0.180,0.070
'0:09.472',-0.180,0.085
'0:09.475',-0.185,0.090
'0:09.478',-0.175,0.090
'0:09.481',-0.155,0.090
'0:09.483',-0.170,0.070
'0:09.486',-0.190,0.070
'0:09.489',-0.200,0.065
'0:09.492',-0.190,0.085
'0:09.494',-0.180,0.100
'0:09.497',-0.175,0.075
'0:09.500',-0.185,0.070
'0:09.503',-0.190,0.070
'0:09.506',-0.195,0.075
'0:09.508',-0.190,0.090
'0:09.511',-0.175,0.095
'0:09.514',-0.175,0.085
'0:09.517',-0.190,0.070
'0:09.519',-0.190,0.060
'0:09.522',-0.200,0.070
'0:09.525',-0.200,0.060
'0:09.528',-0.195,0.090
'0:09.531',-0.165,0.070
'0:09.533',-0.185,0.065
'0:09.536',-0.190,0.045
'0:09.539',-0.190,0.060
'0:09.542',-0.180,0.070
'0:09.544',-0.170,0.095
'0:09.547',-0.180,0.085
'0:09.550',-0.175,0.075
'0:09.553',-0.185,0.060
'0:09.556',-0.180,0.055
'0:09.558',-0.190,0.070
'0:09.561',-0.165,0.080
'0:09.564',-0.165,0.080
'0:09.567',-0.160,0.080
'0:09.569',-0.200,0.065
'0:09.572',-0.195,0.070
'0:09.575',-0.175,0.075
'0:09.578',-0.165,0.105
'0:09.581',-0.150,0.090
'0:09.583',-0.160,0.070
'0:09.586',-0.170,0.060
'0:09.589',-0.175,0.050
'0:09.592',-0.160,0.070
'0:09.594',-0.160,0.080
'0:09.597',-0.155,0.075
'0:09.600',-0.170,0.060
'0:09.603',-0.185,0.055
'0:09.606',-0.180,0.065
'0:09.608',-0.170,0.070
'0:09.611',-0.150,0.075
'0:09.614',-0.155,0.070
'0:09.617',-0.150,0.055
'0:09.619',-0.165,0.045
'0:09.622',-0.180,0.050
'0:09.625',-0.185,0.060
'0:09.628',-0.150,0.080
'0:09.631',-0.140,0.080
'0:09.633',-0.160,0.065
'0:09.636',-0.170,0.055
'0:09.639',-0.170,0.055
'0:09.642',-0.170,0.060
'0:09.644',-0.150,0.070
'0:09.647',-0.155,0.080
'0:09.650',-0.170,0.070
'0:09.653',-0.185,0.060
'0:09.656',-0.170,0.050
'0:09.658',-0.165,0.060
'0:09.661',-0.155,0.070
'0:09.664',-0.155,0.080
'0:09.667',-0.170,0.060
'0:09.669',-0.180,0.045
'0:09.672',-0.190,0.060
'0:09.675',-0.175,0.070
'0:09.678',-0.160,0.070
'0:09.681',-0.160,0.070
'0:09.683',-0.160,0.050
'0:09.686',-0.175,0.040
'0:09.689',-0.190,0.050
'0:09.692',-0.170,0.065
'0:09.694',-0.165,0.075
'0:09.697',-0.155,0.070
'0:09.700',-0.170,0.070
'0:09.703',-0.185,0.050
'0:09.706',-0.185,0.060
'0:09.708',-0.185,0.070
'0:09.711',-0.165,0.090
'0:09.714',-0.155,0.075
'0:09.717',-0.160,0.065
'0:09.719',-0.180,0.060
'0:09.722',-0.185,0.065
'0:09.725',-0.170,0.075
'0:09.728',-0.165,0.090
'0:09.731',-0.150,0.080
'0:09.733',-0.165,0.070
'0:09.736',-0.175,0.070
'0:09.739',-0.175,0.060
'0:09.742',-0.180,0.085
'0:09.744',-0.165,0.090
'0:09.747',-0.150,0.080
'0:09.750',-0.165,0.070
'0:09.753',-0.180,0.065
'0:09.756',-0.175,0.085
'0:09.758',-0.170,0.085
'0:09.761',-0.155,0.095
'0:09.764',-0.160,0.085
'0:09.767',-0.150,0.070
'0:09.769',-0.175,0.055
'0:09.772',-0.180,0.050
'0:09.775',-0.160,0.065
'0:09.778',-0.165,0.070
'0:09.781',-0.150,0.075
'0:09.783',-0.155,0.075
'0:09.786',-0.170,0.080
'0:09.789',-0.185,0.090
'0:09.792',-0.175,0.110
'0:09.794',-0.155,0.125
'0:09.797',-0.170,0.130
'0:09.800',-0.190,0.105
'0:09.803',-0.195,0.110
'0:09.806',-0.185,0.110
'0:09.808',-0.175,0.115
'0:09.811',-0.135,0.145
'0:09.814',-0.130,0.130
'0:09.817',-0.125,0.115
'0:09.819',-0.135,0.100
'0:09.822',-0.130,0.100
'0:09.825',-0.120,0.115
'0:09.828',-0.095,0.120
'0:09.831',-0.095,0.115
'0:09.833',-0.105,0.095
'0:09.836',-0.130,0.085
'0:09.839',-0.115,0.100
'0:09.842',-0.120,0.110
'0:09.844',-0.105,0.110
'0:09.847',-0.115,0.100
'0:09.850',-0.130,0.085
'0:09.853',-0.155,0.080
'0:09.856',-0.165,0.085
'0:09.858',-0.160,0.105
'0:09.861',-0.150,0.100
'0:09.864',-0.165,0.110
'0:09.867',-0.185,0.085
'0:09.869',-0.185,0.070
'0:09.872',-0.175,0.080
'0:09.875',-0.170,0.090
'0:09.878',-0.160,0.100
'0:09.881',-0.150,0.090
'0:09.883',-0.160,0.080
'0:09.886',-0.175,0.075
'0:09.889',-0.185,0.075
'0:09.892',-0.170,0.085
'0:09.894',-0.170,0.095
'0:09.897',-0.160,0.095
'0:09.900',-0.160,0.080
'0:09.903',-0.175,0.075
'0:09.906',-0.170,0.080
'0:09.908',-0.175,0.095
'0:09.911',-0.125,0.115
'0:09.914',-0.120,0.115
'0:09.917',-0.125,0.125
'0:09.919',-0.130,0.140
'0:09.922',-0.130,0.150
'0:09.925',-0.095,0.165
'0:09.928',-0.065,0.160
'0:09.931',-0.040,0.085
'0:09.933',-0.030,-0.020
'0:09.936',-0.020,-0.135
'0:09.939',0.010,-0.245
'0:09.942',0.090,-0.355
'0:09.944',0.185,-0.475
'0:09.947',0.310,-0.625
'0:09.950',0.420,-0.760
'0:09.953',0.540,-0.865
'0:09.956',0.685,-0.915
'0:09.958',0.835,-0.905
'0:09.961',0.960,-0.835
'0:09.964',1.090,-0.755
'0:09.967',1.205,-0.670
'0:09.969',1.285,-0.525
'0:09.972',1.340,-0.370
'0:09.975',1.300,-0.210
'0:09.978',1.190,-0.080
'0:09.981',0.980,0.010
'0:09.983',0.770,0.065
'0:09.986',0.540,0.060
'0:09.989',0.345,0.055
'0:09.992',0.200,0.035
'0:09.994',0.060,0.030
'0:09.997',-0.045,0.040
