'Elapsed time','MLII','V1'
'hh:mm:ss.mmm','mV','mV'
'0:00.000',-0.695,-0.955
'0:00.003',-0.695,-0.955
'0:00.006',-0.695,-0.955
'0:00.008',-0.695,-0.955
'0:00.011',-0.695,-0.955
'0:00.014',-0.695,-0.955
'0:00.017',-0.695,-0.955
'0:00.019',-0.695,-0.925
'0:00.022',-0.695,-0.905
'0:00.025',-0.695,-0.860
'0:00.028',-0.700,-0.830
'0:00.031',-0.710,-0.810
'0:00.033',-0.700,-0.795
'0:00.036',-0.700,-0.780
'0:00.039',-0.685,-0.780
'0:00.042',-0.680,-0.765
'0:00.044',-0.670,-0.770
'0:00.047',-0.670,-0.750
'0:00.050',-0.665,-0.765
'0:00.053',-0.665,-0.780
'0:00.056',-0.670,-0.760
'0:00.058',-0.675,-0.765
'0:00.061',-0.680,-0.760
'0:00.064',-0.695,-0.745
'0:00.067',-0.695,-0.740
'0:00.069',-0.695,-0.740
'0:00.072',-0.690,-0.730
'0:00.075',-0.695,-0.735
'0:00.078',-0.705,-0.750
'0:00.081',-0.705,-0.750
'0:00.083',-0.730,-0.760
'0:00.086',-0.745,-0.765
'0:00.089',-0.750,-0.765
'0:00.092',-0.770,-0.790
'0:00.094',-0.765,-0.770
'0:00.097',-0.790,-0.775
'0:00.100',-0.770,-0.755
'0:00.103',-0.780,-0.765
'0:00.106',-0.785,-0.770
'0:00.108',-0.790,-0.780
'0:00.111',-0.800,-0.785
'0:00.114',-0.815,-0.795
'0:00.117',-0.840,-0.805
'0:00.119',-0.860,-0.810
'0:00.122',-0.875,-0.825
'0:00.125',-0.895,-0.825
'0:00.128',-0.905,-0.825
'0:00.131',-0.885,-0.820
'0:00.133',-0.885,-0.810
'0:00.136',-0.870,-0.795
'0:00.139',-0.860,-0.790
'0:00.142',-0.855,-0.795
'0:00.144',-0.865,-0.810
'0:00.147',-0.875,-0.815
'0:00.150',-0.890,-0.830
'0:00.153',-0.910,-0.840
'0:00.156',-0.925,-0.855
'0:00.158',-0.940,-0.860
'0:00.161',-0.940,-0.850
'0:00.164',-0.950,-0.855
'0:00.167',-0.955,-0.850
'0:00.169',-0.965,-0.850
'0:00.172',-0.980,-0.835
'0:00.175',-0.975,-0.845
'0:00.178',-0.985,-0.860
'0:00.181',-1.005,-0.860
'0:00.183',-1.025,-0.890
'0:00.186',-1.040,-0.900
'0:00.189',-1.045,-0.915
'0:00.192',-1.065,-0.940
'0:00.194',-1.080,-0.935
'0:00.197',-1.100,-0.950
'0:00.200',-1.105,-0.940
'0:00.203',-1.120,-0.960
'0:00.206',-1.115,-0.970
'0:00.208',-1.115,-0.975
'0:00.211',-1.135,-1.005
'0:00.214',-1.145,-1.015
'0:00.217',-1.165,-1.025
'0:00.219',-1.165,-1.045
'0:00.222',-1.170,-1.065
'0:00.225',-1.175,-1.080
'0:00.228',-1.140,-1.075
'0:00.231',-1.125,-1.070
'0:00.233',-1.090,-1.075
'0:00.236',-1.075,-1.060
'0:00.239',-1.040,-1.060
'0:00.242',-1.010,-1.055
'0:00.244',-1.000,-1.045
'0:00.247',-0.960,-1.035
'0:00.250',-0.935,-1.025
'0:00.253',-0.920,-1.015
'0:00.256',-0.895,-1.005
'0:00.258',-0.865,-1.000
'0:00.261',-0.840,-0.975
'0:00.264',-0.830,-0.965
'0:00.267',-0.800,-0.945
'0:00.269',-0.765,-0.920
'0:00.272',-0.735,-0.900
'0:00.275',-0.695,-0.885
'0:00.278',-0.680,-0.885
'0:00.281',-0.660,-0.860
'0:00.283',-0.650,-0.870
'0:00.286',-0.655,-0.870
'0:00.289',-0.625,-0.860
'0:00.292',-0.620,-0.865
'0:00.294',-0.615,-0.850
'0:00.297',-0.620,-0.840
'0:00.300',-0.610,-0.835
'0:00.303',-0.605,-0.830
'0:00.306',-0.595,-0.830
'0:00.308',-0.595,-0.825
'0:00.311',-0.590,-0.830
'0:00.314',-0.590,-0.840
'0:00.317',-0.615,-0.840
'0:00.319',-0.620,-0.860
'0:00.322',-0.625,-0.860
'0:00.325',-0.625,-0.850
'0:00.328',-0.615,-0.855
'0:00.331',-0.625,-0.860
'0:00.333',-0.620,-0.840
'0:00.336',-0.610,-0.835
'0:00.339',-0.615,-0.830
'0:00.342',-0.595,-0.820
'0:00.344',-0.600,-0.835
'0:00.347',-0.600,-0.825
'0:00.350',-0.610,-0.840
'0:00.353',-0.600,-0.840
'0:00.356',-0.605,-0.840
'0:00.358',-0.600,-0.845
'0:00.361',-0.605,-0.825
'0:00.364',-0.585,-0.830
'0:00.367',-0.575,-0.820
'0:00.369',-0.560,-0.795
'0:00.372',-0.560,-0.785
'0:00.375',-0.545,-0.780
'0:00.378',-0.555,-0.785
'0:00.381',-0.565,-0.775
'0:00.383',-0.570,-0.780
'0:00.386',-0.565,-0.795
'0:00.389',-0.555,-0.805
'0:00.392',-0.560,-0.795
'0:00.394',-0.555,-0.790
'0:00.397',-0.545,-0.795
'0:00.400',-0.550,-0.780
'0:00.403',-0.545,-0.770
'0:00.406',-0.540,-0.760
'0:00.408',-0.525,-0.755
'0:00.411',-0.530,-0.765
'0:00.414',-0.520,-0.765
'0:00.417',-0.505,-0.770
'0:00.419',-0.520,-0.780
'0:00.422',-0.535,-0.785
'0:00.425',-0.535,-0.775
'0:00.428',-0.525,-0.765
'0:00.431',-0.520,-0.760
'0:00.433',-0.505,-0.740
'0:00.436',-0.490,-0.730
'0:00.439',-0.480,-0.720
'0:00.442',-0.470,-0.720
'0:00.444',-0.470,-0.725
'0:00.447',-0.475,-0.725
'0:00.450',-0.485,-0.745
'0:00.453',-0.495,-0.755
'0:00.456',-0.505,-0.775
'0:00.458',-0.510,-0.770
'0:00.461',-0.510,-0.770
'0:00.464',-0.515,-0.760
'0:00.467',-0.520,-0.760
'0:00.469',-0.515,-0.760
'0:00.472',-0.515,-0.755
'0:00.475',-0.520,-0.755
'0:00.478',-0.530,-0.775
'0:00.481',-0.530,-0.765
'0:00.483',-0.540,-0.790
'0:00.486',-0.545,-0.800
'0:00.489',-0.550,-0.800
'0:00.492',-0.565,-0.810
'0:00.494',-0.565,-0.795
'0:00.497',-0.575,-0.795
'0:00.500',-0.570,-0.795
'0:00.503',-0.560,-0.785
'0:00.506',-0.565,-0.785
'0:00.508',-0.550,-0.780
'0:00.511',-0.555,-0.805
'0:00.514',-0.560,-0.795
'0:00.517',-0.575,-0.810
'0:00.519',-0.590,-0.810
'0:00.522',-0.585,-0.830
'0:00.525',-0.595,-0.825
'0:00.528',-0.615,-0.815
'0:00.531',-0.615,-0.815
'0:00.533',-0.605,-0.810
'0:00.536',-0.595,-0.795
'0:00.539',-0.585,-0.785
'0:00.542',-0.570,-0.795
'0:00.544',-0.575,-0.805
'0:00.547',-0.570,-0.800
'0:00.550',-0.585,-0.815
'0:00.553',-0.590,-0.835
'0:00.556',-0.595,-0.835
'0:00.558',-0.595,-0.840
'0:00.561',-0.585,-0.830
'0:00.564',-0.575,-0.830
'0:00.567',-0.560,-0.830
'0:00.569',-0.560,-0.835
'0:00.572',-0.565,-0.825
'0:00.575',-0.555,-0.840
'0:00.578',-0.555,-0.835
'0:00.581',-0.560,-0.840
'0:00.583',-0.575,-0.850
'0:00.586',-0.585,-0.855
'0:00.589',-0.585,-0.865
'0:00.592',-0.600,-0.860
'0:00.594',-0.605,-0.855
'0:00.597',-0.590,-0.860
'0:00.600',-0.590,-0.850
'0:00.603',-0.585,-0.850
'0:00.606',-0.560,-0.840
'0:00.608',-0.560,-0.845
'0:00.611',-0.545,-0.840
'0:00.614',-0.545,-0.860
'0:00.617',-0.535,-0.860
'0:00.619',-0.530,-0.855
'0:00.622',-0.545,-0.870
'0:00.625',-0.550,-0.875
'0:00.628',-0.555,-0.880
'0:00.631',-0.555,-0.870
'0:00.633',-0.550,-0.865
'0:00.636',-0.555,-0.855
'0:00.639',-0.565,-0.850
'0:00.642',-0.550,-0.850
'0:00.644',-0.560,-0.855
'0:00.647',-0.560,-0.870
'0:00.650',-0.570,-0.860
'0:00.653',-0.575,-0.865
'0:00.656',-0.575,-0.875
'0:00.658',-0.585,-0.880
'0:00.661',-0.580,-0.870
'0:00.664',-0.600,-0.875
'0:00.667',-0.590,-0.870
'0:00.669',-0.595,-0.865
'0:00.672',-0.580,-0.860
'0:00.675',-0.585,-0.850
'0:00.678',-0.585,-0.860
'0:00.681',-0.585,-0.875
'0:00.683',-0.590,-0.875
'0:00.686',-0.595,-0.880
'0:00.689',-0.615,-0.890
'0:00.692',-0.605,-0.880
'0:00.694',-0.590,-0.875
'0:00.697',-0.595,-0.865
'0:00.700',-0.590,-0.850
'0:00.703',-0.575,-0.845
'0:00.706',-0.570,-0.850
'0:00.708',-0.560,-0.840
'0:00.711',-0.560,-0.840
'0:00.714',-0.560,-0.845
'0:00.717',-0.560,-0.845
'0:00.719',-0.565,-0.850
'0:00.722',-0.560,-0.850
'0:00.725',-0.555,-0.845
'0:00.728',-0.555,-0.845
'0:00.731',-0.540,-0.835
'0:00.733',-0.540,-0.815
'0:00.736',-0.520,-0.810
'0:00.739',-0.510,-0.805
'0:00.742',-0.510,-0.805
'0:00.744',-0.505,-0.810
'0:00.747',-0.510,-0.810
'0:00.750',-0.505,-0.815
'0:00.753',-0.505,-0.815
'0:00.756',-0.505,-0.825
'0:00.758',-0.505,-0.820
'0:00.761',-0.520,-0.815
'0:00.764',-0.525,-0.805
'0:00.767',-0.520,-0.800
'0:00.769',-0.525,-0.775
'0:00.772',-0.535,-0.765
'0:00.775',-0.525,-0.750
'0:00.778',-0.540,-0.770
'0:00.781',-0.540,-0.760
'0:00.783',-0.560,-0.765
'0:00.786',-0.585,-0.770
'0:00.789',-0.600,-0.770
'0:00.792',-0.625,-0.785
'0:00.794',-0.640,-0.780
'0:00.797',-0.645,-0.770
'0:00.800',-0.630,-0.770
'0:00.803',-0.575,-0.735
'0:00.806',-0.450,-0.695
'0:00.808',-0.275,-0.615
'0:00.811',-0.075,-0.540
'0:00.814',0.160,-0.450
'0:00.817',0.410,-0.365
'0:00.819',0.690,-0.295
'0:00.822',0.965,-0.230
'0:00.825',1.215,-0.150
'0:00.828',1.435,-0.060
'0:00.831',1.610,0.025
'0:00.833',1.690,0.145
'0:00.836',1.695,0.255
'0:00.839',1.660,0.365
'0:00.842',1.540,0.375
'0:00.844',1.305,0.220
'0:00.847',0.900,-0.125
'0:00.850',0.370,-0.590
'0:00.853',-0.175,-1.105
'0:00.856',-0.585,-1.575
'0:00.858',-0.800,-1.870
'0:00.861',-0.860,-1.925
'0:00.864',-0.820,-1.795
'0:00.867',-0.745,-1.580
'0:00.869',-0.675,-1.350
'0:00.872',-0.630,-1.185
'0:00.875',-0.620,-1.095
'0:00.878',-0.640,-1.050
'0:00.881',-0.680,-1.030
'0:00.883',-0.710,-1.010
'0:00.886',-0.730,-1.010
'0:00.889',-0.740,-0.980
'0:00.892',-0.730,-0.960
'0:00.894',-0.730,-0.930
'0:00.897',-0.725,-0.900
'0:00.900',-0.715,-0.880
'0:00.903',-0.710,-0.875
'0:00.906',-0.720,-0.865
'0:00.908',-0.705,-0.860
'0:00.911',-0.710,-0.865
'0:00.914',-0.705,-0.855
'0:00.917',-0.720,-0.870
'0:00.919',-0.720,-0.870
'0:00.922',-0.745,-0.860
'0:00.925',-0.740,-0.870
'0:00.928',-0.755,-0.870
'0:00.931',-0.760,-0.850
'0:00.933',-0.750,-0.855
'0:00.936',-0.760,-0.835
'0:00.939',-0.765,-0.835
'0:00.942',-0.760,-0.830
'0:00.944',-0.775,-0.855
'0:00.947',-0.780,-0.855
'0:00.950',-0.805,-0.870
'0:00.953',-0.805,-0.880
'0:00.956',-0.815,-0.890
'0:00.958',-0.820,-0.885
'0:00.961',-0.810,-0.870
'0:00.964',-0.820,-0.875
'0:00.967',-0.825,-0.850
'0:00.969',-0.810,-0.860
'0:00.972',-0.810,-0.840
'0:00.975',-0.800,-0.825
'0:00.978',-0.785,-0.815
'0:00.981',-0.790,-0.805
'0:00.983',-0.795,-0.805
'0:00.986',-0.800,-0.810
'0:00.989',-0.810,-0.810
'0:00.992',-0.820,-0.835
'0:00.994',-0.830,-0.815
'0:00.997',-0.840,-0.815
'0:01.000',-0.840,-0.810
'0:01.003',-0.850,-0.800
'0:01.006',-0.850,-0.790
'0:01.008',-0.855,-0.795
'0:01.011',-0.865,-0.815
'0:01.014',-0.875,-0.820
'0:01.017',-0.880,-0.840
'0:01.019',-0.890,-0.835
'0:01.022',-0.890,-0.860
'0:01.025',-0.905,-0.855
'0:01.028',-0.910,-0.855
'0:01.031',-0.915,-0.855
'0:01.033',-0.910,-0.855
'0:01.036',-0.920,-0.860
'0:01.039',-0.915,-0.855
'0:01.042',-0.925,-0.845
'0:01.044',-0.940,-0.875
'0:01.047',-0.950,-0.875
'0:01.050',-0.975,-0.890
'0:01.053',-0.995,-0.900
'0:01.056',-1.020,-0.920
'0:01.058',-1.020,-0.930
'0:01.061',-1.035,-0.935
'0:01.064',-1.030,-0.940
'0:01.067',-1.040,-0.935
'0:01.069',-1.055,-0.940
'0:01.072',-1.065,-0.940
'0:01.075',-1.060,-0.960
'0:01.078',-1.085,-0.995
'0:01.081',-1.100,-1.005
'0:01.083',-1.100,-1.020
'0:01.086',-1.120,-1.040
'0:01.089',-1.150,-1.070
'0:01.092',-1.170,-1.075
'0:01.094',-1.175,-1.095
'0:01.097',-1.180,-1.110
'0:01.100',-1.195,-1.100
'0:01.103',-1.190,-1.110
'0:01.106',-1.195,-1.120
'0:01.108',-1.190,-1.120
'0:01.111',-1.195,-1.155
'0:01.114',-1.200,-1.165
'0:01.117',-1.205,-1.180
'0:01.119',-1.205,-1.195
'0:01.122',-1.205,-1.205
'0:01.125',-1.200,-1.210
'0:01.128',-1.165,-1.195
'0:01.131',-1.135,-1.190
'0:01.133',-1.085,-1.175
'0:01.136',-1.065,-1.165
'0:01.139',-1.015,-1.135
'0:01.142',-0.960,-1.115
'0:01.144',-0.930,-1.095
'0:01.147',-0.900,-1.095
'0:01.150',-0.865,-1.070
'0:01.153',-0.845,-1.060
'0:01.156',-0.815,-1.050
'0:01.158',-0.795,-1.030
'0:01.161',-0.775,-0.985
'0:01.164',-0.740,-0.955
'0:01.167',-0.710,-0.930
'0:01.169',-0.695,-0.900
'0:01.172',-0.680,-0.880
'0:01.175',-0.670,-0.850
'0:01.178',-0.665,-0.845
'0:01.181',-0.660,-0.830
'0:01.183',-0.675,-0.820
'0:01.186',-0.685,-0.825
'0:01.189',-0.690,-0.830
'0:01.192',-0.680,-0.835
'0:01.194',-0.675,-0.825
'0:01.197',-0.680,-0.815
'0:01.200',-0.660,-0.805
'0:01.203',-0.660,-0.805
'0:01.206',-0.640,-0.785
'0:01.208',-0.635,-0.785
'0:01.211',-0.625,-0.795
'0:01.214',-0.625,-0.795
'0:01.217',-0.620,-0.790
'0:01.219',-0.630,-0.805
'0:01.222',-0.625,-0.805
'0:01.225',-0.635,-0.815
'0:01.228',-0.640,-0.800
'0:01.231',-0.630,-0.800
'0:01.233',-0.625,-0.790
'0:01.236',-0.610,-0.780
'0:01.239',-0.600,-0.770
'0:01.242',-0.575,-0.765
'0:01.244',-0.580,-0.780
'0:01.247',-0.575,-0.775
'0:01.250',-0.565,-0.775
'0:01.253',-0.565,-0.780
'0:01.256',-0.575,-0.790
'0:01.258',-0.575,-0.790
'0:01.261',-0.575,-0.770
'0:01.264',-0.575,-0.770
'0:01.267',-0.590,-0.760
'0:01.269',-0.590,-0.755
'0:01.272',-0.605,-0.750
'0:01.275',-0.595,-0.745
'0:01.278',-0.595,-0.755
'0:01.281',-0.600,-0.765
'0:01.283',-0.610,-0.780
'0:01.286',-0.610,-0.785
'0:01.289',-0.610,-0.795
'0:01.292',-0.600,-0.790
'0:01.294',-0.595,-0.795
'0:01.297',-0.600,-0.785
'0:01.300',-0.590,-0.780
'0:01.303',-0.580,-0.765
'0:01.306',-0.565,-0.750
'0:01.308',-0.555,-0.735
'0:01.311',-0.545,-0.750
'0:01.314',-0.545,-0.735
'0:01.317',-0.550,-0.750
'0:01.319',-0.555,-0.755
'0:01.322',-0.540,-0.755
'0:01.325',-0.550,-0.750
'0:01.328',-0.545,-0.725
'0:01.331',-0.545,-0.735
'0:01.333',-0.530,-0.725
'0:01.336',-0.530,-0.710
'0:01.339',-0.535,-0.700
'0:01.342',-0.525,-0.695
'0:01.344',-0.525,-0.700
'0:01.347',-0.535,-0.700
'0:01.350',-0.550,-0.705
'0:01.353',-0.555,-0.710
'0:01.356',-0.575,-0.720
'0:01.358',-0.570,-0.720
'0:01.361',-0.570,-0.710
'0:01.364',-0.575,-0.715
'0:01.367',-0.560,-0.680
'0:01.369',-0.545,-0.685
'0:01.372',-0.540,-0.670
'0:01.375',-0.530,-0.670
'0:01.378',-0.525,-0.675
'0:01.381',-0.530,-0.665
'0:01.383',-0.530,-0.680
'0:01.386',-0.535,-0.695
'0:01.389',-0.550,-0.700
'0:01.392',-0.560,-0.690
'0:01.394',-0.560,-0.685
'0:01.397',-0.570,-0.685
'0:01.400',-0.560,-0.685
'0:01.403',-0.560,-0.680
'0:01.406',-0.555,-0.680
'0:01.408',-0.545,-0.675
'0:01.411',-0.545,-0.685
'0:01.414',-0.545,-0.695
'0:01.417',-0.545,-0.700
'0:01.419',-0.550,-0.710
'0:01.422',-0.560,-0.700
'0:01.425',-0.575,-0.715
'0:01.428',-0.580,-0.715
'0:01.431',-0.585,-0.720
'0:01.433',-0.600,-0.725
'0:01.436',-0.610,-0.710
'0:01.439',-0.620,-0.715
'0:01.442',-0.610,-0.715
'0:01.444',-0.630,-0.725
'0:01.447',-0.615,-0.725
'0:01.450',-0.615,-0.750
'0:01.453',-0.620,-0.755
'0:01.456',-0.620,-0.760
'0:01.458',-0.625,-0.780
'0:01.461',-0.630,-0.770
'0:01.464',-0.610,-0.765
'0:01.467',-0.605,-0.750
'0:01.469',-0.600,-0.745
'0:01.472',-0.590,-0.745
'0:01.475',-0.580,-0.740
'0:01.478',-0.565,-0.745
'0:01.481',-0.580,-0.750
'0:01.483',-0.575,-0.750
'0:01.486',-0.580,-0.745
'0:01.489',-0.585,-0.750
'0:01.492',-0.595,-0.745
'0:01.494',-0.600,-0.735
'0:01.497',-0.590,-0.735
'0:01.500',-0.585,-0.735
'0:01.503',-0.585,-0.740
'0:01.506',-0.580,-0.730
'0:01.508',-0.575,-0.730
'0:01.511',-0.570,-0.745
'0:01.514',-0.565,-0.740
'0:01.517',-0.570,-0.755
'0:01.519',-0.590,-0.760
'0:01.522',-0.595,-0.765
'0:01.525',-0.605,-0.770
'0:01.528',-0.595,-0.760
'0:01.531',-0.605,-0.755
'0:01.533',-0.590,-0.760
'0:01.536',-0.585,-0.750
'0:01.539',-0.585,-0.730
'0:01.542',-0.570,-0.735
'0:01.544',-0.565,-0.745
'0:01.547',-0.565,-0.740
'0:01.550',-0.565,-0.760
'0:01.553',-0.570,-0.780
'0:01.556',-0.575,-0.770
'0:01.558',-0.600,-0.765
'0:01.561',-0.610,-0.755
'0:01.564',-0.595,-0.750
'0:01.567',-0.590,-0.735
'0:01.569',-0.575,-0.730
'0:01.572',-0.570,-0.715
'0:01.575',-0.555,-0.705
'0:01.578',-0.555,-0.715
'0:01.581',-0.550,-0.715
'0:01.583',-0.545,-0.720
'0:01.586',-0.550,-0.715
'0:01.589',-0.560,-0.725
'0:01.592',-0.555,-0.730
'0:01.594',-0.550,-0.720
'0:01.597',-0.550,-0.715
'0:01.600',-0.545,-0.705
'0:01.603',-0.550,-0.700
'0:01.606',-0.535,-0.700
'0:01.608',-0.530,-0.690
'0:01.611',-0.550,-0.695
'0:01.614',-0.560,-0.700
'0:01.617',-0.560,-0.705
'0:01.619',-0.575,-0.705
'0:01.622',-0.575,-0.720
'0:01.625',-0.580,-0.730
'0:01.628',-0.585,-0.715
'0:01.631',-0.575,-0.715
'0:01.633',-0.575,-0.705
'0:01.636',-0.575,-0.700
'0:01.639',-0.570,-0.680
'0:01.642',-0.560,-0.685
'0:01.644',-0.560,-0.680
'0:01.647',-0.565,-0.680
'0:01.650',-0.575,-0.685
'0:01.653',-0.565,-0.705
'0:01.656',-0.575,-0.705
'0:01.658',-0.575,-0.700
'0:01.661',-0.580,-0.680
'0:01.664',-0.595,-0.680
'0:01.667',-0.610,-0.670
'0:01.669',-0.640,-0.660
'0:01.672',-0.620,-0.660
'0:01.675',-0.555,-0.635
'0:01.678',-0.455,-0.605
'0:01.681',-0.290,-0.535
'0:01.683',-0.085,-0.450
'0:01.686',0.135,-0.360
'0:01.689',0.400,-0.275
'0:01.692',0.705,-0.185
'0:01.694',1.005,-0.090
'0:01.697',1.285,-0.015
'0:01.700',1.525,0.065
'0:01.703',1.665,0.155
'0:01.706',1.735,0.265
'0:01.708',1.730,0.360
'0:01.711',1.650,0.430
'0:01.714',1.490,0.395
'0:01.717',1.210,0.210
'0:01.719',0.795,-0.130
'0:01.722',0.270,-0.580
'0:01.725',-0.225,-1.045
'0:01.728',-0.595,-1.465
'0:01.731',-0.775,-1.710
'0:01.733',-0.810,-1.780
'0:01.736',-0.770,-1.660
'0:01.739',-0.675,-1.460
'0:01.742',-0.620,-1.245
'0:01.744',-0.575,-1.095
'0:01.747',-0.585,-1.005
'0:01.750',-0.605,-0.960
'0:01.753',-0.620,-0.935
'0:01.756',-0.640,-0.910
'0:01.758',-0.655,-0.870
'0:01.761',-0.660,-0.850
'0:01.764',-0.640,-0.810
'0:01.767',-0.635,-0.780
'0:01.769',-0.635,-0.750
'0:01.772',-0.635,-0.715
'0:01.775',-0.645,-0.705
'0:01.778',-0.655,-0.700
'0:01.781',-0.670,-0.685
'0:01.783',-0.685,-0.705
'0:01.786',-0.710,-0.705
'0:01.789',-0.715,-0.710
'0:01.792',-0.725,-0.705
'0:01.794',-0.720,-0.700
'0:01.797',-0.725,-0.695
'0:01.800',-0.715,-0.680
'0:01.803',-0.720,-0.670
'0:01.806',-0.715,-0.665
'0:01.808',-0.720,-0.665
'0:01.811',-0.715,-0.665
'0:01.814',-0.730,-0.670
'0:01.817',-0.740,-0.675
'0:01.819',-0.755,-0.680
'0:01.822',-0.765,-0.690
'0:01.825',-0.785,-0.685
'0:01.828',-0.800,-0.670
'0:01.831',-0.790,-0.675
'0:01.833',-0.785,-0.670
'0:01.836',-0.795,-0.655
'0:01.839',-0.780,-0.645
'0:01.842',-0.775,-0.650
'0:01.844',-0.775,-0.650
'0:01.847',-0.790,-0.655
'0:01.850',-0.800,-0.665
'0:01.853',-0.800,-0.675
'0:01.856',-0.800,-0.690
'0:01.858',-0.835,-0.690
'0:01.861',-0.830,-0.675
'0:01.864',-0.840,-0.685
'0:01.867',-0.855,-0.660
'0:01.869',-0.850,-0.675
'0:01.872',-0.850,-0.660
'0:01.875',-0.860,-0.655
'0:01.878',-0.870,-0.675
'0:01.881',-0.890,-0.670
'0:01.883',-0.890,-0.690
'0:01.886',-0.900,-0.685
'0:01.889',-0.900,-0.705
'0:01.892',-0.915,-0.705
'0:01.894',-0.915,-0.705
'0:01.897',-0.925,-0.710
'0:01.900',-0.925,-0.700
'0:01.903',-0.920,-0.700
'0:01.906',-0.925,-0.690
'0:01.908',-0.920,-0.695
'0:01.911',-0.930,-0.700
'0:01.914',-0.945,-0.710
'0:01.917',-0.960,-0.715
'0:01.919',-0.975,-0.725
'0:01.922',-0.980,-0.735
'0:01.925',-0.995,-0.745
'0:01.928',-1.000,-0.750
'0:01.931',-1.010,-0.750
'0:01.933',-1.010,-0.755
'0:01.936',-1.030,-0.765
'0:01.939',-1.040,-0.770
'0:01.942',-1.060,-0.780
'0:01.944',-1.090,-0.810
'0:01.947',-1.110,-0.840
'0:01.950',-1.125,-0.845
'0:01.953',-1.125,-0.880
'0:01.956',-1.140,-0.905
'0:01.958',-1.150,-0.930
'0:01.961',-1.170,-0.925
'0:01.964',-1.160,-0.940
'0:01.967',-1.175,-0.940
'0:01.969',-1.170,-0.935
'0:01.972',-1.180,-0.945
'0:01.975',-1.170,-0.935
'0:01.978',-1.155,-0.955
'0:01.981',-1.145,-0.955
'0:01.983',-1.140,-0.955
'0:01.986',-1.130,-0.960
'0:01.989',-1.100,-0.955
'0:01.992',-1.080,-0.955
'0:01.994',-1.045,-0.935
'0:01.997',-1.020,-0.925
'0:02.000',-0.970,-0.900
'0:02.003',-0.940,-0.880
'0:02.006',-0.895,-0.845
'0:02.008',-0.865,-0.835
'0:02.011',-0.835,-0.820
'0:02.014',-0.815,-0.795
'0:02.017',-0.795,-0.800
'0:02.019',-0.795,-0.795
'0:02.022',-0.780,-0.790
'0:02.025',-0.775,-0.775
'0:02.028',-0.750,-0.755
'0:02.031',-0.745,-0.750
'0:02.033',-0.725,-0.725
'0:02.036',-0.720,-0.710
'0:02.039',-0.680,-0.695
'0:02.042',-0.655,-0.695
'0:02.044',-0.650,-0.695
'0:02.047',-0.650,-0.680
'0:02.050',-0.655,-0.685
'0:02.053',-0.665,-0.685
'0:02.056',-0.660,-0.695
'0:02.058',-0.665,-0.700
'0:02.061',-0.665,-0.690
'0:02.064',-0.650,-0.690
'0:02.067',-0.650,-0.685
'0:02.069',-0.625,-0.665
'0:02.072',-0.610,-0.660
'0:02.075',-0.610,-0.660
'0:02.078',-0.600,-0.670
'0:02.081',-0.600,-0.665
'0:02.083',-0.595,-0.675
'0:02.086',-0.610,-0.685
'0:02.089',-0.600,-0.685
'0:02.092',-0.600,-0.670
'0:02.094',-0.595,-0.665
'0:02.097',-0.590,-0.675
'0:02.100',-0.585,-0.665
'0:02.103',-0.585,-0.655
'0:02.106',-0.570,-0.650
'0:02.108',-0.555,-0.635
'0:02.111',-0.545,-0.650
'0:02.114',-0.535,-0.655
'0:02.117',-0.530,-0.645
'0:02.119',-0.535,-0.640
'0:02.122',-0.530,-0.640
'0:02.125',-0.535,-0.630
'0:02.128',-0.530,-0.610
'0:02.131',-0.535,-0.590
'0:02.133',-0.515,-0.580
'0:02.136',-0.515,-0.580
'0:02.139',-0.505,-0.560
'0:02.142',-0.500,-0.560
'0:02.144',-0.500,-0.560
'0:02.147',-0.505,-0.560
'0:02.150',-0.510,-0.555
'0:02.153',-0.520,-0.560
'0:02.156',-0.540,-0.580
'0:02.158',-0.540,-0.575
'0:02.161',-0.545,-0.560
'0:02.164',-0.550,-0.555
'0:02.167',-0.550,-0.545
'0:02.169',-0.550,-0.550
'0:02.172',-0.550,-0.535
'0:02.175',-0.535,-0.540
'0:02.178',-0.540,-0.545
'0:02.181',-0.550,-0.545
'0:02.183',-0.555,-0.560
'0:02.186',-0.565,-0.560
'0:02.189',-0.590,-0.570
'0:02.192',-0.600,-0.580
'0:02.194',-0.595,-0.575
'0:02.197',-0.595,-0.570
'0:02.200',-0.600,-0.570
'0:02.203',-0.600,-0.555
'0:02.206',-0.600,-0.550
'0:02.208',-0.585,-0.540
'0:02.211',-0.590,-0.555
'0:02.214',-0.595,-0.550
'0:02.217',-0.615,-0.570
'0:02.219',-0.620,-0.585
'0:02.222',-0.640,-0.585
'0:02.225',-0.645,-0.600
'0:02.228',-0.655,-0.600
'0:02.231',-0.660,-0.605
'0:02.233',-0.650,-0.595
'0:02.236',-0.640,-0.605
'0:02.239',-0.625,-0.605
'0:02.242',-0.615,-0.605
'0:02.244',-0.595,-0.615
'0:02.247',-0.585,-0.620
'0:02.250',-0.590,-0.630
'0:02.253',-0.580,-0.635
'0:02.256',-0.590,-0.635
'0:02.258',-0.575,-0.645
'0:02.261',-0.575,-0.640
'0:02.264',-0.570,-0.630
'0:02.267',-0.565,-0.625
'0:02.269',-0.570,-0.620
'0:02.272',-0.565,-0.615
'0:02.275',-0.555,-0.600
'0:02.278',-0.550,-0.620
'0:02.281',-0.555,-0.620
'0:02.283',-0.550,-0.625
'0:02.286',-0.555,-0.640
'0:02.289',-0.570,-0.640
'0:02.292',-0.560,-0.635
'0:02.294',-0.560,-0.620
'0:02.297',-0.555,-0.605
'0:02.300',-0.535,-0.605
'0:02.303',-0.535,-0.585
'0:02.306',-0.520,-0.570
'0:02.308',-0.515,-0.560
'0:02.311',-0.520,-0.565
'0:02.314',-0.525,-0.560
'0:02.317',-0.535,-0.570
'0:02.319',-0.530,-0.570
'0:02.322',-0.540,-0.585
'0:02.325',-0.550,-0.580
'0:02.328',-0.555,-0.585
'0:02.331',-0.555,-0.575
'0:02.333',-0.545,-0.570
'0:02.336',-0.545,-0.545
'0:02.339',-0.535,-0.540
'0:02.342',-0.530,-0.540
'0:02.344',-0.530,-0.540
'0:02.347',-0.530,-0.545
'0:02.350',-0.545,-0.540
'0:02.353',-0.550,-0.540
'0:02.356',-0.555,-0.545
'0:02.358',-0.560,-0.550
'0:02.361',-0.575,-0.530
'0:02.364',-0.570,-0.540
'0:02.367',-0.550,-0.525
'0:02.369',-0.565,-0.525
'0:02.372',-0.565,-0.540
'0:02.375',-0.580,-0.535
'0:02.378',-0.580,-0.545
'0:02.381',-0.585,-0.535
'0:02.383',-0.595,-0.555
'0:02.386',-0.625,-0.555
'0:02.389',-0.635,-0.565
'0:02.392',-0.655,-0.575
'0:02.394',-0.645,-0.575
'0:02.397',-0.645,-0.575
'0:02.400',-0.630,-0.570
'0:02.403',-0.615,-0.560
'0:02.406',-0.595,-0.560
'0:02.408',-0.585,-0.555
'0:02.411',-0.575,-0.555
'0:02.414',-0.565,-0.555
'0:02.417',-0.560,-0.560
'0:02.419',-0.565,-0.570
'0:02.422',-0.565,-0.565
'0:02.425',-0.590,-0.565
'0:02.428',-0.605,-0.570
'0:02.431',-0.610,-0.550
'0:02.433',-0.570,-0.530
'0:02.436',-0.490,-0.490
'0:02.439',-0.340,-0.415
'0:02.442',-0.155,-0.335
'0:02.444',0.050,-0.245
'0:02.447',0.310,-0.150
'0:02.450',0.600,-0.055
'0:02.453',0.890,0.025
'0:02.456',1.150,0.100
'0:02.458',1.365,0.170
'0:02.461',1.535,0.255
'0:02.464',1.610,0.340
'0:02.467',1.625,0.455
'0:02.469',1.590,0.535
'0:02.472',1.500,0.565
'0:02.475',1.330,0.470
'0:02.478',1.045,0.220
'0:02.481',0.615,-0.150
'0:02.483',0.100,-0.580
'0:02.486',-0.345,-1.025
'0:02.489',-0.635,-1.370
'0:02.492',-0.770,-1.550
'0:02.494',-0.765,-1.545
'0:02.497',-0.705,-1.400
'0:02.500',-0.620,-1.195
'0:02.503',-0.565,-1.020
'0:02.506',-0.535,-0.865
'0:02.508',-0.530,-0.785
'0:02.511',-0.555,-0.730
'0:02.514',-0.580,-0.695
'0:02.517',-0.615,-0.685
'0:02.519',-0.625,-0.660
'0:02.522',-0.645,-0.635
'0:02.525',-0.660,-0.595
'0:02.528',-0.665,-0.575
'0:02.531',-0.670,-0.565
'0:02.533',-0.675,-0.545
'0:02.536',-0.680,-0.535
'0:02.539',-0.680,-0.520
'0:02.542',-0.695,-0.515
'0:02.544',-0.700,-0.515
'0:02.547',-0.705,-0.510
'0:02.550',-0.735,-0.520
'0:02.553',-0.760,-0.510
'0:02.556',-0.765,-0.520
'0:02.558',-0.785,-0.525
'0:02.561',-0.805,-0.505
'0:02.564',-0.815,-0.505
'0:02.567',-0.820,-0.500
'0:02.569',-0.805,-0.490
'0:02.572',-0.800,-0.485
'0:02.575',-0.800,-0.485
'0:02.578',-0.800,-0.500
'0:02.581',-0.800,-0.500
'0:02.583',-0.805,-0.515
'0:02.586',-0.810,-0.515
'0:02.589',-0.810,-0.525
'0:02.592',-0.815,-0.515
'0:02.594',-0.805,-0.520
'0:02.597',-0.785,-0.530
'0:02.600',-0.790,-0.515
'0:02.603',-0.780,-0.520
'0:02.606',-0.765,-0.520
'0:02.608',-0.770,-0.525
'0:02.611',-0.760,-0.520
'0:02.614',-0.745,-0.525
'0:02.617',-0.760,-0.530
'0:02.619',-0.760,-0.535
'0:02.622',-0.775,-0.540
'0:02.625',-0.770,-0.540
'0:02.628',-0.775,-0.530
'0:02.631',-0.780,-0.530
'0:02.633',-0.780,-0.520
'0:02.636',-0.770,-0.515
'0:02.639',-0.765,-0.510
'0:02.642',-0.755,-0.505
'0:02.644',-0.775,-0.520
'0:02.647',-0.785,-0.510
'0:02.650',-0.795,-0.520
'0:02.653',-0.800,-0.525
'0:02.656',-0.815,-0.530
'0:02.658',-0.835,-0.540
'0:02.661',-0.835,-0.540
'0:02.664',-0.850,-0.530
'0:02.667',-0.855,-0.540
'0:02.669',-0.860,-0.535
'0:02.672',-0.870,-0.525
'0:02.675',-0.865,-0.530
'0:02.678',-0.880,-0.545
'0:02.681',-0.895,-0.555
'0:02.683',-0.905,-0.580
'0:02.686',-0.920,-0.585
'0:02.689',-0.955,-0.590
'0:02.692',-0.960,-0.610
'0:02.694',-0.980,-0.610
'0:02.697',-0.990,-0.615
'0:02.700',-1.000,-0.615
'0:02.703',-1.000,-0.620
'0:02.706',-1.010,-0.635
'0:02.708',-1.020,-0.640
'0:02.711',-1.030,-0.665
'0:02.714',-1.035,-0.680
'0:02.717',-1.065,-0.695
'0:02.719',-1.085,-0.720
'0:02.722',-1.115,-0.745
'0:02.725',-1.130,-0.760
'0:02.728',-1.135,-0.765
'0:02.731',-1.145,-0.775
'0:02.733',-1.145,-0.785
'0:02.736',-1.140,-0.800
'0:02.739',-1.120,-0.785
'0:02.742',-1.105,-0.785
'0:02.744',-1.100,-0.780
'0:02.747',-1.090,-0.780
'0:02.750',-1.065,-0.780
'0:02.753',-1.065,-0.775
'0:02.756',-1.050,-0.775
'0:02.758',-1.000,-0.775
'0:02.761',-0.970,-0.750
'0:02.764',-0.940,-0.730
'0:02.767',-0.905,-0.715
'0:02.769',-0.880,-0.685
'0:02.772',-0.835,-0.660
'0:02.775',-0.770,-0.625
'0:02.778',-0.750,-0.605
'0:02.781',-0.720,-0.590
'0:02.783',-0.695,-0.585
'0:02.786',-0.685,-0.585
'0:02.789',-0.670,-0.575
'0:02.792',-0.650,-0.560
'0:02.794',-0.645,-0.545
'0:02.797',-0.615,-0.530
'0:02.800',-0.595,-0.525
'0:02.803',-0.570,-0.510
'0:02.806',-0.555,-0.500
'0:02.808',-0.540,-0.495
'0:02.811',-0.535,-0.505
'0:02.814',-0.525,-0.510
'0:02.817',-0.535,-0.505
'0:02.819',-0.540,-0.520
'0:02.822',-0.545,-0.510
'0:02.825',-0.550,-0.515
'0:02.828',-0.555,-0.505
'0:02.831',-0.550,-0.490
'0:02.833',-0.545,-0.490
'0:02.836',-0.535,-0.485
'0:02.839',-0.520,-0.470
'0:02.842',-0.535,-0.470
'0:02.844',-0.530,-0.470
'0:02.847',-0.530,-0.480
'0:02.850',-0.540,-0.490
'0:02.853',-0.545,-0.490
'0:02.856',-0.565,-0.495
'0:02.858',-0.560,-0.475
'0:02.861',-0.560,-0.480
'0:02.864',-0.560,-0.470
'0:02.867',-0.560,-0.465
'0:02.869',-0.555,-0.465
'0:02.872',-0.550,-0.455
'0:02.875',-0.565,-0.450
'0:02.878',-0.565,-0.450
'0:02.881',-0.570,-0.460
'0:02.883',-0.580,-0.465
'0:02.886',-0.585,-0.480
'0:02.889',-0.595,-0.470
'0:02.892',-0.590,-0.470
'0:02.894',-0.595,-0.455
'0:02.897',-0.585,-0.450
'0:02.900',-0.570,-0.430
'0:02.903',-0.560,-0.425
'0:02.906',-0.545,-0.420
'0:02.908',-0.565,-0.420
'0:02.911',-0.565,-0.420
'0:02.914',-0.570,-0.430
'0:02.917',-0.580,-0.440
'0:02.919',-0.580,-0.430
'0:02.922',-0.585,-0.430
'0:02.925',-0.580,-0.425
'0:02.928',-0.580,-0.420
'0:02.931',-0.570,-0.405
'0:02.933',-0.565,-0.415
'0:02.936',-0.560,-0.405
'0:02.939',-0.555,-0.410
'0:02.942',-0.555,-0.425
'0:02.944',-0.555,-0.440
'0:02.947',-0.565,-0.435
'0:02.950',-0.565,-0.440
'0:02.953',-0.575,-0.460
'0:02.956',-0.580,-0.455
'0:02.958',-0.585,-0.460
'0:02.961',-0.605,-0.460
'0:02.964',-0.605,-0.450
'0:02.967',-0.595,-0.450
'0:02.969',-0.590,-0.445
'0:02.972',-0.570,-0.445
'0:02.975',-0.555,-0.460
'0:02.978',-0.550,-0.450
'0:02.981',-0.535,-0.455
'0:02.983',-0.540,-0.465
'0:02.986',-0.545,-0.480
'0:02.989',-0.535,-0.465
'0:02.992',-0.530,-0.455
'0:02.994',-0.530,-0.445
'0:02.997',-0.520,-0.425
'0:03.000',-0.510,-0.420
'0:03.003',-0.495,-0.405
'0:03.006',-0.495,-0.400
'0:03.008',-0.480,-0.400
'0:03.011',-0.490,-0.395
'0:03.014',-0.490,-0.405
'0:03.017',-0.500,-0.405
'0:03.019',-0.505,-0.415
'0:03.022',-0.510,-0.410
'0:03.025',-0.515,-0.410
'0:03.028',-0.515,-0.400
'0:03.031',-0.520,-0.385
'0:03.033',-0.520,-0.370
'0:03.036',-0.510,-0.350
'0:03.039',-0.495,-0.340
'0:03.042',-0.495,-0.350
'0:03.044',-0.505,-0.350
'0:03.047',-0.515,-0.350
'0:03.050',-0.510,-0.360
'0:03.053',-0.515,-0.355
'0:03.056',-0.525,-0.365
'0:03.058',-0.525,-0.360
'0:03.061',-0.525,-0.350
'0:03.064',-0.525,-0.340
'0:03.067',-0.525,-0.335
'0:03.069',-0.520,-0.325
'0:03.072',-0.500,-0.310
'0:03.075',-0.505,-0.315
'0:03.078',-0.500,-0.315
'0:03.081',-0.505,-0.335
'0:03.083',-0.515,-0.340
'0:03.086',-0.525,-0.345
'0:03.089',-0.535,-0.350
'0:03.092',-0.530,-0.350
'0:03.094',-0.525,-0.355
'0:03.097',-0.525,-0.350
'0:03.100',-0.515,-0.350
'0:03.103',-0.500,-0.340
'0:03.106',-0.505,-0.330
'0:03.108',-0.505,-0.345
'0:03.111',-0.510,-0.345
'0:03.114',-0.515,-0.355
'0:03.117',-0.525,-0.370
'0:03.119',-0.540,-0.395
'0:03.122',-0.565,-0.400
'0:03.125',-0.570,-0.390
'0:03.128',-0.580,-0.395
'0:03.131',-0.585,-0.395
'0:03.133',-0.575,-0.390
'0:03.136',-0.585,-0.385
'0:03.139',-0.575,-0.380
'0:03.142',-0.575,-0.400
'0:03.144',-0.590,-0.405
'0:03.147',-0.580,-0.420
'0:03.150',-0.580,-0.430
'0:03.153',-0.580,-0.440
'0:03.156',-0.585,-0.445
'0:03.158',-0.560,-0.430
'0:03.161',-0.570,-0.425
'0:03.164',-0.555,-0.410
'0:03.167',-0.515,-0.400
'0:03.169',-0.505,-0.385
'0:03.172',-0.500,-0.395
'0:03.175',-0.490,-0.385
'0:03.178',-0.475,-0.390
'0:03.181',-0.485,-0.390
'0:03.183',-0.485,-0.400
'0:03.186',-0.490,-0.395
'0:03.189',-0.485,-0.400
'0:03.192',-0.500,-0.395
'0:03.194',-0.505,-0.380
'0:03.197',-0.515,-0.380
'0:03.200',-0.505,-0.380
'0:03.203',-0.495,-0.375
'0:03.206',-0.485,-0.365
'0:03.208',-0.490,-0.380
'0:03.211',-0.475,-0.370
'0:03.214',-0.490,-0.370
'0:03.217',-0.495,-0.375
'0:03.219',-0.500,-0.385
'0:03.222',-0.505,-0.380
'0:03.225',-0.505,-0.370
'0:03.228',-0.510,-0.365
'0:03.231',-0.495,-0.360
'0:03.233',-0.490,-0.360
'0:03.236',-0.485,-0.335
'0:03.239',-0.465,-0.340
'0:03.242',-0.465,-0.345
'0:03.244',-0.460,-0.335
'0:03.247',-0.465,-0.340
'0:03.250',-0.480,-0.365
'0:03.253',-0.495,-0.360
'0:03.256',-0.495,-0.365
'0:03.258',-0.510,-0.370
'0:03.261',-0.515,-0.365
'0:03.264',-0.510,-0.355
'0:03.267',-0.505,-0.350
'0:03.269',-0.495,-0.335
'0:03.272',-0.490,-0.340
'0:03.275',-0.485,-0.350
'0:03.278',-0.490,-0.355
'0:03.281',-0.490,-0.360
'0:03.283',-0.490,-0.365
'0:03.286',-0.505,-0.380
'0:03.289',-0.500,-0.375
'0:03.292',-0.510,-0.370
'0:03.294',-0.515,-0.365
'0:03.297',-0.505,-0.350
'0:03.300',-0.495,-0.345
'0:03.303',-0.500,-0.340
'0:03.306',-0.500,-0.340
'0:03.308',-0.520,-0.345
'0:03.311',-0.555,-0.345
'0:03.314',-0.590,-0.360
'0:03.317',-0.600,-0.370
'0:03.319',-0.550,-0.350
'0:03.322',-0.460,-0.320
'0:03.325',-0.305,-0.245
'0:03.328',-0.100,-0.145
'0:03.331',0.155,-0.030
'0:03.333',0.440,0.060
'0:03.336',0.745,0.170
'0:03.339',1.055,0.260
'0:03.342',1.330,0.345
'0:03.344',1.545,0.430
'0:03.347',1.670,0.520
'0:03.350',1.705,0.630
'0:03.353',1.690,0.725
'0:03.356',1.650,0.810
'0:03.358',1.550,0.825
'0:03.361',1.360,0.705
'0:03.364',1.055,0.430
'0:03.367',0.605,0.020
'0:03.369',0.100,-0.470
'0:03.372',-0.325,-0.945
'0:03.375',-0.605,-1.305
'0:03.378',-0.700,-1.495
'0:03.381',-0.700,-1.460
'0:03.383',-0.660,-1.305
'0:03.386',-0.600,-1.095
'0:03.389',-0.560,-0.915
'0:03.392',-0.545,-0.775
'0:03.394',-0.540,-0.665
'0:03.397',-0.555,-0.610
'0:03.400',-0.575,-0.565
'0:03.403',-0.585,-0.525
'0:03.406',-0.585,-0.490
'0:03.408',-0.595,-0.460
'0:03.411',-0.595,-0.435
'0:03.414',-0.595,-0.415
'0:03.417',-0.620,-0.405
'0:03.419',-0.630,-0.400
'0:03.422',-0.640,-0.400
'0:03.425',-0.655,-0.375
'0:03.428',-0.660,-0.365
'0:03.431',-0.680,-0.360
'0:03.433',-0.675,-0.350
'0:03.436',-0.675,-0.355
'0:03.439',-0.680,-0.335
'0:03.442',-0.675,-0.340
'0:03.444',-0.685,-0.345
'0:03.447',-0.680,-0.355
'0:03.450',-0.700,-0.365
'0:03.453',-0.715,-0.365
'0:03.456',-0.725,-0.365
'0:03.458',-0.740,-0.365
'0:03.461',-0.725,-0.370
'0:03.464',-0.740,-0.365
'0:03.467',-0.730,-0.365
'0:03.469',-0.730,-0.350
'0:03.472',-0.730,-0.345
'0:03.475',-0.735,-0.360
'0:03.478',-0.735,-0.365
'0:03.481',-0.745,-0.370
'0:03.483',-0.750,-0.380
'0:03.486',-0.770,-0.400
'0:03.489',-0.770,-0.405
'0:03.492',-0.775,-0.395
'0:03.494',-0.785,-0.410
'0:03.497',-0.815,-0.405
'0:03.500',-0.820,-0.410
'0:03.503',-0.825,-0.410
'0:03.506',-0.820,-0.405
'0:03.508',-0.820,-0.425
'0:03.511',-0.825,-0.435
'0:03.514',-0.825,-0.445
'0:03.517',-0.825,-0.450
'0:03.519',-0.835,-0.465
'0:03.522',-0.835,-0.470
'0:03.525',-0.840,-0.450
'0:03.528',-0.835,-0.465
'0:03.531',-0.840,-0.450
'0:03.533',-0.845,-0.430
'0:03.536',-0.860,-0.430
'0:03.539',-0.875,-0.415
'0:03.542',-0.860,-0.415
'0:03.544',-0.880,-0.430
'0:03.547',-0.875,-0.435
'0:03.550',-0.890,-0.440
'0:03.553',-0.915,-0.445
'0:03.556',-0.920,-0.445
'0:03.558',-0.935,-0.440
'0:03.561',-0.945,-0.435
'0:03.564',-0.955,-0.425
'0:03.567',-0.955,-0.430
'0:03.569',-0.975,-0.425
'0:03.572',-0.985,-0.435
'0:03.575',-1.005,-0.440
'0:03.578',-1.030,-0.460
'0:03.581',-1.045,-0.465
'0:03.583',-1.060,-0.500
'0:03.586',-1.075,-0.525
'0:03.589',-1.090,-0.530
'0:03.592',-1.100,-0.555
'0:03.594',-1.105,-0.555
'0:03.597',-1.125,-0.560
'0:03.600',-1.125,-0.570
'0:03.603',-1.130,-0.575
'0:03.606',-1.130,-0.585
'0:03.608',-1.135,-0.600
'0:03.611',-1.150,-0.620
'0:03.614',-1.160,-0.655
'0:03.617',-1.175,-0.660
'0:03.619',-1.175,-0.680
'0:03.622',-1.170,-0.685
'0:03.625',-1.165,-0.690
'0:03.628',-1.160,-0.680
'0:03.631',-1.125,-0.690
'0:03.633',-1.100,-0.670
'0:03.636',-1.070,-0.670
'0:03.639',-1.045,-0.655
'0:03.642',-1.015,-0.650
'0:03.644',-0.980,-0.640
'0:03.647',-0.930,-0.630
'0:03.650',-0.915,-0.630
'0:03.653',-0.895,-0.610
'0:03.656',-0.880,-0.600
'0:03.658',-0.860,-0.585
'0:03.661',-0.830,-0.560
'0:03.664',-0.800,-0.545
'0:03.667',-0.760,-0.525
'0:03.669',-0.740,-0.505
'0:03.672',-0.700,-0.485
'0:03.675',-0.675,-0.485
'0:03.678',-0.650,-0.475
'0:03.681',-0.640,-0.470
'0:03.683',-0.630,-0.470
'0:03.686',-0.625,-0.475
'0:03.689',-0.605,-0.460
'0:03.692',-0.595,-0.450
'0:03.694',-0.600,-0.435
'0:03.697',-0.565,-0.430
'0:03.700',-0.550,-0.415
'0:03.703',-0.545,-0.410
'0:03.706',-0.525,-0.400
'0:03.708',-0.525,-0.400
'0:03.711',-0.525,-0.400
'0:03.714',-0.525,-0.395
'0:03.717',-0.535,-0.385
'0:03.719',-0.550,-0.395
'0:03.722',-0.555,-0.395
'0:03.725',-0.555,-0.390
'0:03.728',-0.555,-0.400
'0:03.731',-0.555,-0.375
'0:03.733',-0.550,-0.375
'0:03.736',-0.560,-0.355
'0:03.739',-0.550,-0.345
'0:03.742',-0.550,-0.340
'0:03.744',-0.565,-0.340
'0:03.747',-0.565,-0.335
'0:03.750',-0.570,-0.330
'0:03.753',-0.575,-0.325
'0:03.756',-0.580,-0.330
'0:03.758',-0.580,-0.320
'0:03.761',-0.585,-0.305
'0:03.764',-0.575,-0.285
'0:03.767',-0.555,-0.280
'0:03.769',-0.550,-0.285
'0:03.772',-0.535,-0.265
'0:03.775',-0.545,-0.295
'0:03.778',-0.535,-0.285
'0:03.781',-0.540,-0.285
'0:03.783',-0.535,-0.290
'0:03.786',-0.540,-0.305
'0:03.789',-0.535,-0.295
'0:03.792',-0.525,-0.300
'0:03.794',-0.525,-0.295
'0:03.797',-0.520,-0.280
'0:03.800',-0.510,-0.270
'0:03.803',-0.510,-0.265
'0:03.806',-0.505,-0.265
'0:03.808',-0.500,-0.275
'0:03.811',-0.510,-0.280
'0:03.814',-0.520,-0.290
'0:03.817',-0.525,-0.305
'0:03.819',-0.545,-0.310
'0:03.822',-0.540,-0.320
'0:03.825',-0.540,-0.315
'0:03.828',-0.525,-0.310
'0:03.831',-0.505,-0.305
'0:03.833',-0.480,-0.300
'0:03.836',-0.475,-0.295
'0:03.839',-0.465,-0.290
'0:03.842',-0.450,-0.295
'0:03.844',-0.445,-0.300
'0:03.847',-0.445,-0.315
'0:03.850',-0.430,-0.310
'0:03.853',-0.435,-0.320
'0:03.856',-0.455,-0.320
'0:03.858',-0.435,-0.310
'0:03.861',-0.435,-0.315
'0:03.864',-0.430,-0.290
'0:03.867',-0.420,-0.295
'0:03.869',-0.415,-0.285
'0:03.872',-0.415,-0.285
'0:03.875',-0.410,-0.280
'0:03.878',-0.405,-0.290
'0:03.881',-0.405,-0.290
'0:03.883',-0.415,-0.290
'0:03.886',-0.420,-0.305
'0:03.889',-0.430,-0.310
'0:03.892',-0.445,-0.295
'0:03.894',-0.465,-0.300
'0:03.897',-0.485,-0.300
'0:03.900',-0.505,-0.280
'0:03.903',-0.530,-0.275
'0:03.906',-0.485,-0.240
'0:03.908',-0.375,-0.210
'0:03.911',-0.215,-0.115
'0:03.914',-0.010,-0.025
'0:03.917',0.245,0.100
'0:03.919',0.520,0.205
'0:03.922',0.820,0.285
'0:03.925',1.120,0.355
'0:03.928',1.400,0.425
'0:03.931',1.600,0.505
'0:03.933',1.730,0.600
'0:03.936',1.795,0.730
'0:03.939',1.785,0.845
'0:03.942',1.690,0.905
'0:03.944',1.535,0.855
'0:03.947',1.265,0.640
'0:03.950',0.825,0.270
'0:03.953',0.305,-0.195
'0:03.956',-0.200,-0.675
'0:03.958',-0.570,-1.070
'0:03.961',-0.755,-1.285
'0:03.964',-0.820,-1.305
'0:03.967',-0.800,-1.165
'0:03.969',-0.750,-0.975
'0:03.972',-0.690,-0.790
'0:03.975',-0.665,-0.680
'0:03.978',-0.655,-0.615
'0:03.981',-0.655,-0.580
'0:03.983',-0.665,-0.560
'0:03.986',-0.700,-0.540
'0:03.989',-0.715,-0.515
'0:03.992',-0.715,-0.480
'0:03.994',-0.715,-0.465
'0:03.997',-0.705,-0.415
'0:04.000',-0.705,-0.410
'0:04.003',-0.680,-0.395
'0:04.006',-0.670,-0.375
'0:04.008',-0.665,-0.375
'0:04.011',-0.670,-0.380
'0:04.014',-0.675,-0.370
'0:04.017',-0.670,-0.370
'0:04.019',-0.670,-0.375
'0:04.022',-0.685,-0.360
'0:04.025',-0.690,-0.355
'0:04.028',-0.680,-0.355
'0:04.031',-0.680,-0.335
'0:04.033',-0.660,-0.330
'0:04.036',-0.660,-0.315
'0:04.039',-0.645,-0.305
'0:04.042',-0.655,-0.315
'0:04.044',-0.665,-0.315
'0:04.047',-0.680,-0.320
'0:04.050',-0.690,-0.330
'0:04.053',-0.685,-0.330
'0:04.056',-0.685,-0.325
'0:04.058',-0.685,-0.320
'0:04.061',-0.690,-0.320
'0:04.064',-0.690,-0.310
'0:04.067',-0.685,-0.305
'0:04.069',-0.690,-0.300
'0:04.072',-0.695,-0.295
'0:04.075',-0.700,-0.295
'0:04.078',-0.710,-0.300
'0:04.081',-0.715,-0.305
'0:04.083',-0.720,-0.310
'0:04.086',-0.735,-0.310
'0:04.089',-0.750,-0.330
'0:04.092',-0.755,-0.320
'0:04.094',-0.765,-0.315
'0:04.097',-0.765,-0.305
'0:04.100',-0.765,-0.295
'0:04.103',-0.770,-0.305
'0:04.106',-0.770,-0.285
'0:04.108',-0.780,-0.295
'0:04.111',-0.795,-0.295
'0:04.114',-0.815,-0.290
'0:04.117',-0.830,-0.305
'0:04.119',-0.840,-0.315
'0:04.122',-0.870,-0.325
'0:04.125',-0.885,-0.320
'0:04.128',-0.905,-0.340
'0:04.131',-0.920,-0.325
'0:04.133',-0.925,-0.350
'0:04.136',-0.925,-0.335
'0:04.139',-0.940,-0.340
'0:04.142',-0.940,-0.355
'0:04.144',-0.975,-0.375
'0:04.147',-0.970,-0.380
'0:04.150',-0.980,-0.405
'0:04.153',-0.985,-0.425
'0:04.156',-0.995,-0.445
'0:04.158',-1.010,-0.440
'0:04.161',-1.020,-0.445
'0:04.164',-1.025,-0.445
'0:04.167',-1.020,-0.455
'0:04.169',-1.035,-0.455
'0:04.172',-1.030,-0.460
'0:04.175',-1.025,-0.470
'0:04.178',-1.030,-0.490
'0:04.181',-1.035,-0.500
'0:04.183',-1.035,-0.525
'0:04.186',-1.035,-0.540
'0:04.189',-1.040,-0.545
'0:04.192',-1.060,-0.550
'0:04.194',-1.055,-0.555
'0:04.197',-1.065,-0.555
'0:04.200',-1.045,-0.555
'0:04.203',-1.045,-0.550
'0:04.206',-1.025,-0.555
'0:04.208',-1.000,-0.545
'0:04.211',-0.990,-0.565
'0:04.214',-0.970,-0.555
'0:04.217',-0.955,-0.560
'0:04.219',-0.940,-0.550
'0:04.222',-0.915,-0.550
'0:04.225',-0.880,-0.540
'0:04.228',-0.845,-0.520
'0:04.231',-0.810,-0.500
'0:04.233',-0.770,-0.470
'0:04.236',-0.740,-0.460
'0:04.239',-0.730,-0.435
'0:04.242',-0.700,-0.430
'0:04.244',-0.680,-0.420
'0:04.247',-0.680,-0.415
'0:04.250',-0.670,-0.425
'0:04.253',-0.660,-0.420
'0:04.256',-0.655,-0.415
'0:04.258',-0.640,-0.400
'0:04.261',-0.625,-0.380
'0:04.264',-0.615,-0.360
'0:04.267',-0.605,-0.350
'0:04.269',-0.595,-0.350
'0:04.272',-0.595,-0.345
'0:04.275',-0.575,-0.340
'0:04.278',-0.575,-0.330
'0:04.281',-0.585,-0.335
'0:04.283',-0.580,-0.335
'0:04.286',-0.590,-0.345
'0:04.289',-0.595,-0.345
'0:04.292',-0.595,-0.330
'0:04.294',-0.610,-0.330
'0:04.297',-0.605,-0.335
'0:04.300',-0.600,-0.320
'0:04.303',-0.605,-0.320
'0:04.306',-0.585,-0.315
'0:04.308',-0.580,-0.315
'0:04.311',-0.585,-0.320
'0:04.314',-0.595,-0.320
'0:04.317',-0.595,-0.325
'0:04.319',-0.585,-0.330
'0:04.322',-0.590,-0.340
'0:04.325',-0.615,-0.330
'0:04.328',-0.610,-0.320
'0:04.331',-0.615,-0.315
'0:04.333',-0.610,-0.305
'0:04.336',-0.605,-0.305
'0:04.339',-0.595,-0.305
'0:04.342',-0.590,-0.300
'0:04.344',-0.580,-0.305
'0:04.347',-0.580,-0.315
'0:04.350',-0.565,-0.320
'0:04.353',-0.560,-0.330
'0:04.356',-0.560,-0.340
'0:04.358',-0.555,-0.325
'0:04.361',-0.535,-0.315
'0:04.364',-0.530,-0.300
'0:04.367',-0.505,-0.280
'0:04.369',-0.495,-0.270
'0:04.372',-0.505,-0.260
'0:04.375',-0.495,-0.270
'0:04.378',-0.530,-0.285
'0:04.381',-0.525,-0.290
'0:04.383',-0.540,-0.300
'0:04.386',-0.550,-0.320
'0:04.389',-0.555,-0.325
'0:04.392',-0.565,-0.325
'0:04.394',-0.575,-0.310
'0:04.397',-0.565,-0.315
'0:04.400',-0.565,-0.310
'0:04.403',-0.565,-0.300
'0:04.406',-0.555,-0.305
'0:04.408',-0.540,-0.310
'0:04.411',-0.545,-0.310
'0:04.414',-0.540,-0.315
'0:04.417',-0.550,-0.335
'0:04.419',-0.560,-0.315
'0:04.422',-0.565,-0.320
'0:04.425',-0.565,-0.315
'0:04.428',-0.565,-0.315
'0:04.431',-0.565,-0.310
'0:04.433',-0.560,-0.300
'0:04.436',-0.570,-0.300
'0:04.439',-0.565,-0.290
'0:04.442',-0.565,-0.285
'0:04.444',-0.575,-0.290
'0:04.447',-0.570,-0.305
'0:04.450',-0.580,-0.315
'0:04.453',-0.580,-0.325
'0:04.456',-0.605,-0.330
'0:04.458',-0.605,-0.335
'0:04.461',-0.600,-0.325
'0:04.464',-0.600,-0.320
'0:04.467',-0.600,-0.325
'0:04.469',-0.590,-0.315
'0:04.472',-0.585,-0.310
'0:04.475',-0.575,-0.320
'0:04.478',-0.590,-0.315
'0:04.481',-0.585,-0.335
'0:04.483',-0.610,-0.340
'0:04.486',-0.620,-0.345
'0:04.489',-0.620,-0.360
'0:04.492',-0.625,-0.355
'0:04.494',-0.630,-0.345
'0:04.497',-0.630,-0.345
'0:04.500',-0.630,-0.340
'0:04.503',-0.635,-0.330
'0:04.506',-0.645,-0.330
'0:04.508',-0.645,-0.335
'0:04.511',-0.650,-0.355
'0:04.514',-0.660,-0.375
'0:04.517',-0.670,-0.385
'0:04.519',-0.670,-0.395
'0:04.522',-0.665,-0.410
'0:04.525',-0.655,-0.390
'0:04.528',-0.640,-0.390
'0:04.531',-0.625,-0.365
'0:04.533',-0.590,-0.365
'0:04.536',-0.570,-0.355
'0:04.539',-0.560,-0.350
'0:04.542',-0.545,-0.340
'0:04.544',-0.540,-0.330
'0:04.547',-0.545,-0.330
'0:04.550',-0.535,-0.325
'0:04.553',-0.545,-0.330
'0:04.556',-0.535,-0.335
'0:04.558',-0.540,-0.330
'0:04.561',-0.545,-0.325
'0:04.564',-0.540,-0.315
'0:04.567',-0.535,-0.305
'0:04.569',-0.530,-0.305
'0:04.572',-0.520,-0.285
'0:04.575',-0.525,-0.285
'0:04.578',-0.520,-0.285
'0:04.581',-0.525,-0.290
'0:04.583',-0.540,-0.300
'0:04.586',-0.540,-0.310
'0:04.589',-0.550,-0.315
'0:04.592',-0.550,-0.310
'0:04.594',-0.565,-0.310
'0:04.597',-0.560,-0.295
'0:04.600',-0.565,-0.300
'0:04.603',-0.565,-0.290
'0:04.606',-0.580,-0.270
'0:04.608',-0.595,-0.295
'0:04.611',-0.600,-0.295
'0:04.614',-0.610,-0.310
'0:04.617',-0.625,-0.325
'0:04.619',-0.625,-0.340
'0:04.622',-0.630,-0.340
'0:04.625',-0.640,-0.330
'0:04.628',-0.635,-0.320
'0:04.631',-0.625,-0.325
'0:04.633',-0.610,-0.315
'0:04.636',-0.600,-0.320
'0:04.639',-0.595,-0.310
'0:04.642',-0.600,-0.325
'0:04.644',-0.600,-0.310
'0:04.647',-0.605,-0.330
'0:04.650',-0.615,-0.335
'0:04.653',-0.615,-0.340
'0:04.656',-0.635,-0.340
'0:04.658',-0.645,-0.355
'0:04.661',-0.640,-0.350
'0:04.664',-0.640,-0.340
'0:04.667',-0.640,-0.340
'0:04.669',-0.645,-0.335
'0:04.672',-0.635,-0.330
'0:04.675',-0.635,-0.345
'0:04.678',-0.650,-0.345
'0:04.681',-0.660,-0.355
'0:04.683',-0.655,-0.350
'0:04.686',-0.655,-0.365
'0:04.689',-0.635,-0.365
'0:04.692',-0.625,-0.360
'0:04.694',-0.605,-0.355
'0:04.697',-0.590,-0.340
'0:04.700',-0.580,-0.335
'0:04.703',-0.585,-0.310
'0:04.706',-0.580,-0.305
'0:04.708',-0.605,-0.310
'0:04.711',-0.620,-0.310
'0:04.714',-0.610,-0.300
'0:04.717',-0.555,-0.270
'0:04.719',-0.420,-0.235
'0:04.722',-0.240,-0.160
'0:04.725',-0.020,-0.045
'0:04.728',0.255,0.065
'0:04.731',0.550,0.170
'0:04.733',0.875,0.250
'0:04.736',1.190,0.335
'0:04.739',1.450,0.415
'0:04.742',1.640,0.490
'0:04.744',1.735,0.600
'0:04.747',1.760,0.700
'0:04.750',1.705,0.790
'0:04.753',1.600,0.815
'0:04.756',1.420,0.715
'0:04.758',1.100,0.465
'0:04.761',0.640,0.080
'0:04.764',0.105,-0.365
'0:04.767',-0.360,-0.810
'0:04.769',-0.660,-1.170
'0:04.772',-0.770,-1.340
'0:04.775',-0.770,-1.350
'0:04.778',-0.710,-1.190
'0:04.781',-0.660,-1.000
'0:04.783',-0.605,-0.835
'0:04.786',-0.595,-0.705
'0:04.789',-0.610,-0.625
'0:04.792',-0.645,-0.585
'0:04.794',-0.675,-0.550
'0:04.797',-0.695,-0.510
'0:04.800',-0.700,-0.475
'0:04.803',-0.715,-0.430
'0:04.806',-0.710,-0.400
'0:04.808',-0.710,-0.380
'0:04.811',-0.720,-0.350
'0:04.814',-0.740,-0.360
'0:04.817',-0.770,-0.355
'0:04.819',-0.795,-0.365
'0:04.822',-0.810,-0.370
'0:04.825',-0.820,-0.365
'0:04.828',-0.830,-0.365
'0:04.831',-0.825,-0.355
'0:04.833',-0.820,-0.345
'0:04.836',-0.815,-0.315
'0:04.839',-0.805,-0.315
'0:04.842',-0.805,-0.325
'0:04.844',-0.815,-0.310
'0:04.847',-0.795,-0.335
'0:04.850',-0.810,-0.330
'0:04.853',-0.815,-0.335
'0:04.856',-0.820,-0.340
'0:04.858',-0.825,-0.340
'0:04.861',-0.835,-0.335
'0:04.864',-0.830,-0.320
'0:04.867',-0.835,-0.315
'0:04.869',-0.835,-0.300
'0:04.872',-0.830,-0.300
'0:04.875',-0.820,-0.305
'0:04.878',-0.820,-0.305
'0:04.881',-0.820,-0.310
'0:04.883',-0.810,-0.320
'0:04.886',-0.820,-0.330
'0:04.889',-0.815,-0.325
'0:04.892',-0.840,-0.325
'0:04.894',-0.830,-0.315
'0:04.897',-0.845,-0.305
'0:04.900',-0.835,-0.305
'0:04.903',-0.835,-0.295
'0:04.906',-0.835,-0.285
'0:04.908',-0.830,-0.290
'0:04.911',-0.835,-0.295
'0:04.914',-0.845,-0.310
'0:04.917',-0.860,-0.320
'0:04.919',-0.865,-0.320
'0:04.922',-0.880,-0.330
'0:04.925',-0.885,-0.325
'0:04.928',-0.885,-0.335
'0:04.931',-0.900,-0.330
'0:04.933',-0.895,-0.325
'0:04.936',-0.905,-0.320
'0:04.939',-0.910,-0.325
'0:04.942',-0.915,-0.320
'0:04.944',-0.925,-0.335
'0:04.947',-0.950,-0.350
'0:04.950',-0.965,-0.355
'0:04.953',-0.975,-0.360
'0:04.956',-0.995,-0.385
'0:04.958',-1.000,-0.385
'0:04.961',-1.010,-0.395
'0:04.964',-1.030,-0.395
'0:04.967',-1.040,-0.400
'0:04.969',-1.055,-0.410
'0:04.972',-1.065,-0.420
'0:04.975',-1.085,-0.440
'0:04.978',-1.110,-0.465
'0:04.981',-1.130,-0.475
'0:04.983',-1.145,-0.505
'0:04.986',-1.165,-0.540
'0:04.989',-1.185,-0.565
'0:04.992',-1.210,-0.565
'0:04.994',-1.205,-0.585
'0:04.997',-1.210,-0.585
'0:05.000',-1.225,-0.595
'0:05.003',-1.225,-0.595
'0:05.006',-1.210,-0.605
'0:05.008',-1.210,-0.610
'0:05.011',-1.215,-0.615
'0:05.014',-1.215,-0.640
'0:05.017',-1.225,-0.660
'0:05.019',-1.235,-0.675
'0:05.022',-1.230,-0.685
'0:05.025',-1.240,-0.680
'0:05.028',-1.240,-0.680
'0:05.031',-1.225,-0.670
'0:05.033',-1.205,-0.660
'0:05.036',-1.195,-0.660
'0:05.039',-1.165,-0.655
'0:05.042',-1.135,-0.650
'0:05.044',-1.125,-0.640
'0:05.047',-1.095,-0.645
'0:05.050',-1.060,-0.640
'0:05.053',-1.020,-0.640
'0:05.056',-1.000,-0.625
'0:05.058',-0.975,-0.595
'0:05.061',-0.935,-0.570
'0:05.064',-0.895,-0.545
'0:05.067',-0.855,-0.515
'0:05.069',-0.825,-0.490
'0:05.072',-0.780,-0.465
'0:05.075',-0.755,-0.450
'0:05.078',-0.735,-0.425
'0:05.081',-0.720,-0.430
'0:05.083',-0.710,-0.415
'0:05.086',-0.700,-0.410
'0:05.089',-0.690,-0.400
'0:05.092',-0.675,-0.380
'0:05.094',-0.665,-0.380
'0:05.097',-0.650,-0.355
'0:05.100',-0.630,-0.340
'0:05.103',-0.620,-0.335
'0:05.106',-0.595,-0.310
'0:05.108',-0.590,-0.310
'0:05.111',-0.580,-0.310
'0:05.114',-0.590,-0.310
'0:05.117',-0.595,-0.335
'0:05.119',-0.610,-0.345
'0:05.122',-0.610,-0.345
'0:05.125',-0.615,-0.330
'0:05.128',-0.615,-0.335
'0:05.131',-0.615,-0.320
'0:05.133',-0.615,-0.320
'0:05.136',-0.620,-0.320
'0:05.139',-0.600,-0.310
'0:05.142',-0.585,-0.315
'0:05.144',-0.585,-0.320
'0:05.147',-0.580,-0.335
'0:05.150',-0.595,-0.345
'0:05.153',-0.595,-0.340
'0:05.156',-0.600,-0.345
'0:05.158',-0.610,-0.335
'0:05.161',-0.600,-0.330
'0:05.164',-0.590,-0.325
'0:05.167',-0.580,-0.305
'0:05.169',-0.575,-0.305
'0:05.172',-0.560,-0.300
'0:05.175',-0.540,-0.305
'0:05.178',-0.535,-0.295
'0:05.181',-0.535,-0.295
'0:05.183',-0.535,-0.295
'0:05.186',-0.540,-0.305
'0:05.189',-0.540,-0.300
'0:05.192',-0.550,-0.280
'0:05.194',-0.550,-0.265
'0:05.197',-0.545,-0.250
'0:05.200',-0.535,-0.240
'0:05.203',-0.540,-0.220
'0:05.206',-0.520,-0.205
'0:05.208',-0.510,-0.200
'0:05.211',-0.520,-0.195
'0:05.214',-0.520,-0.200
'0:05.217',-0.535,-0.205
'0:05.219',-0.525,-0.200
'0:05.222',-0.540,-0.200
'0:05.225',-0.530,-0.195
'0:05.228',-0.525,-0.190
'0:05.231',-0.530,-0.170
'0:05.233',-0.520,-0.160
'0:05.236',-0.525,-0.145
'0:05.239',-0.520,-0.140
'0:05.242',-0.505,-0.140
'0:05.244',-0.510,-0.130
'0:05.247',-0.520,-0.150
'0:05.250',-0.510,-0.155
'0:05.253',-0.525,-0.160
'0:05.256',-0.545,-0.170
'0:05.258',-0.555,-0.170
'0:05.261',-0.565,-0.175
'0:05.264',-0.560,-0.165
'0:05.267',-0.550,-0.155
'0:05.269',-0.545,-0.165
'0:05.272',-0.550,-0.165
'0:05.275',-0.545,-0.170
'0:05.278',-0.560,-0.185
'0:05.281',-0.570,-0.205
'0:05.283',-0.595,-0.210
'0:05.286',-0.600,-0.215
'0:05.289',-0.625,-0.235
'0:05.292',-0.630,-0.235
'0:05.294',-0.615,-0.235
'0:05.297',-0.625,-0.230
'0:05.300',-0.605,-0.235
'0:05.303',-0.605,-0.230
'0:05.306',-0.620,-0.215
'0:05.308',-0.615,-0.225
'0:05.311',-0.625,-0.240
'0:05.314',-0.600,-0.225
'0:05.317',-0.510,-0.200
'0:05.319',-0.360,-0.140
'0:05.322',-0.160,-0.040
'0:05.325',0.080,0.075
'0:05.328',0.370,0.185
'0:05.331',0.675,0.275
'0:05.333',0.995,0.355
'0:05.336',1.300,0.425
'0:05.339',1.550,0.485
'0:05.342',1.700,0.560
'0:05.344',1.745,0.655
'0:05.347',1.725,0.730
'0:05.350',1.640,0.765
'0:05.353',1.455,0.670
'0:05.356',1.130,0.410
'0:05.358',0.650,0.005
'0:05.361',0.095,-0.480
'0:05.364',-0.385,-0.930
'0:05.367',-0.685,-1.255
'0:05.369',-0.810,-1.365
'0:05.372',-0.795,-1.290
'0:05.375',-0.710,-1.100
'0:05.378',-0.635,-0.875
'0:05.381',-0.580,-0.695
'0:05.383',-0.580,-0.570
'0:05.386',-0.595,-0.510
'0:05.389',-0.635,-0.470
'0:05.392',-0.675,-0.435
'0:05.394',-0.695,-0.405
'0:05.397',-0.695,-0.365
'0:05.400',-0.680,-0.315
'0:05.403',-0.675,-0.290
'0:05.406',-0.670,-0.265
'0:05.408',-0.665,-0.255
'0:05.411',-0.675,-0.245
'0:05.414',-0.700,-0.250
'0:05.417',-0.695,-0.265
'0:05.419',-0.715,-0.255
'0:05.422',-0.730,-0.250
'0:05.425',-0.730,-0.255
'0:05.428',-0.745,-0.245
'0:05.431',-0.750,-0.245
'0:05.433',-0.745,-0.230
'0:05.436',-0.765,-0.220
'0:05.439',-0.765,-0.220
'0:05.442',-0.770,-0.225
'0:05.444',-0.775,-0.225
'0:05.447',-0.790,-0.230
'0:05.450',-0.810,-0.250
'0:05.453',-0.825,-0.235
'0:05.456',-0.845,-0.255
'0:05.458',-0.850,-0.265
'0:05.461',-0.855,-0.260
'0:05.464',-0.865,-0.265
'0:05.467',-0.865,-0.260
'0:05.469',-0.855,-0.255
'0:05.472',-0.850,-0.240
'0:05.475',-0.845,-0.260
'0:05.478',-0.850,-0.260
'0:05.481',-0.850,-0.260
'0:05.483',-0.855,-0.260
'0:05.486',-0.860,-0.265
'0:05.489',-0.860,-0.280
'0:05.492',-0.860,-0.265
'0:05.494',-0.850,-0.265
'0:05.497',-0.845,-0.260
'0:05.500',-0.840,-0.260
'0:05.503',-0.825,-0.255
'0:05.506',-0.830,-0.245
'0:05.508',-0.825,-0.240
'0:05.511',-0.830,-0.240
'0:05.514',-0.820,-0.240
'0:05.517',-0.825,-0.255
'0:05.519',-0.840,-0.250
'0:05.522',-0.845,-0.255
'0:05.525',-0.860,-0.260
'0:05.528',-0.880,-0.260
'0:05.531',-0.880,-0.250
'0:05.533',-0.870,-0.250
'0:05.536',-0.870,-0.235
'0:05.539',-0.875,-0.245
'0:05.542',-0.880,-0.245
'0:05.544',-0.880,-0.260
'0:05.547',-0.890,-0.280
'0:05.550',-0.900,-0.280
'0:05.553',-0.915,-0.300
'0:05.556',-0.935,-0.310
'0:05.558',-0.950,-0.310
'0:05.561',-0.965,-0.310
'0:05.564',-0.980,-0.315
'0:05.567',-0.985,-0.320
'0:05.569',-0.995,-0.320
'0:05.572',-1.000,-0.315
'0:05.575',-1.000,-0.330
'0:05.578',-1.015,-0.335
'0:05.581',-1.020,-0.355
'0:05.583',-1.045,-0.365
'0:05.586',-1.065,-0.375
'0:05.589',-1.090,-0.400
'0:05.592',-1.100,-0.410
'0:05.594',-1.125,-0.415
'0:05.597',-1.135,-0.415
'0:05.600',-1.150,-0.420
'0:05.603',-1.140,-0.430
'0:05.606',-1.140,-0.420
'0:05.608',-1.140,-0.440
'0:05.611',-1.135,-0.455
'0:05.614',-1.125,-0.460
'0:05.617',-1.125,-0.485
'0:05.619',-1.120,-0.490
'0:05.622',-1.105,-0.500
'0:05.625',-1.100,-0.485
'0:05.628',-1.070,-0.490
'0:05.631',-1.025,-0.465
'0:05.633',-0.975,-0.450
'0:05.636',-0.955,-0.435
'0:05.639',-0.910,-0.415
'0:05.642',-0.865,-0.405
'0:05.644',-0.840,-0.400
'0:05.647',-0.820,-0.405
'0:05.650',-0.815,-0.400
'0:05.653',-0.800,-0.395
'0:05.656',-0.785,-0.405
'0:05.658',-0.785,-0.380
'0:05.661',-0.745,-0.365
'0:05.664',-0.720,-0.360
'0:05.667',-0.700,-0.335
'0:05.669',-0.675,-0.325
'0:05.672',-0.635,-0.310
'0:05.675',-0.620,-0.300
'0:05.678',-0.615,-0.300
'0:05.681',-0.600,-0.300
'0:05.683',-0.595,-0.290
'0:05.686',-0.610,-0.300
'0:05.689',-0.605,-0.310
'0:05.692',-0.605,-0.315
'0:05.694',-0.605,-0.295
'0:05.697',-0.605,-0.300
'0:05.700',-0.605,-0.290
'0:05.703',-0.600,-0.265
'0:05.706',-0.595,-0.265
'0:05.708',-0.580,-0.265
'0:05.711',-0.585,-0.260
'0:05.714',-0.590,-0.260
'0:05.717',-0.575,-0.270
'0:05.719',-0.595,-0.275
'0:05.722',-0.610,-0.280
'0:05.725',-0.610,-0.275
'0:05.728',-0.620,-0.275
'0:05.731',-0.615,-0.270
'0:05.733',-0.605,-0.260
'0:05.736',-0.605,-0.240
'0:05.739',-0.595,-0.230
'0:05.742',-0.590,-0.235
'0:05.744',-0.585,-0.235
'0:05.747',-0.580,-0.230
'0:05.750',-0.595,-0.240
'0:05.753',-0.615,-0.250
'0:05.756',-0.620,-0.250
'0:05.758',-0.625,-0.245
'0:05.761',-0.620,-0.245
'0:05.764',-0.615,-0.235
'0:05.767',-0.620,-0.240
'0:05.769',-0.605,-0.230
'0:05.772',-0.605,-0.205
'0:05.775',-0.595,-0.225
'0:05.778',-0.605,-0.225
'0:05.781',-0.600,-0.225
'0:05.783',-0.605,-0.235
'0:05.786',-0.610,-0.250
'0:05.789',-0.610,-0.245
'0:05.792',-0.610,-0.235
'0:05.794',-0.605,-0.220
'0:05.797',-0.610,-0.230
'0:05.800',-0.600,-0.210
'0:05.803',-0.605,-0.200
'0:05.806',-0.590,-0.195
'0:05.808',-0.565,-0.190
'0:05.811',-0.570,-0.195
'0:05.814',-0.580,-0.220
'0:05.817',-0.585,-0.220
'0:05.819',-0.600,-0.225
'0:05.822',-0.600,-0.225
'0:05.825',-0.600,-0.220
'0:05.828',-0.605,-0.220
'0:05.831',-0.600,-0.215
'0:05.833',-0.585,-0.195
'0:05.836',-0.580,-0.200
'0:05.839',-0.570,-0.185
'0:05.842',-0.535,-0.190
'0:05.844',-0.535,-0.200
'0:05.847',-0.535,-0.205
'0:05.850',-0.545,-0.205
'0:05.853',-0.550,-0.205
'0:05.856',-0.565,-0.215
'0:05.858',-0.570,-0.215
'0:05.861',-0.585,-0.205
'0:05.864',-0.590,-0.200
'0:05.867',-0.575,-0.205
'0:05.869',-0.565,-0.200
'0:05.872',-0.550,-0.195
'0:05.875',-0.550,-0.220
'0:05.878',-0.555,-0.225
'0:05.881',-0.555,-0.235
'0:05.883',-0.575,-0.240
'0:05.886',-0.580,-0.240
'0:05.889',-0.585,-0.250
'0:05.892',-0.585,-0.250
'0:05.894',-0.585,-0.245
'0:05.897',-0.575,-0.230
'0:05.900',-0.575,-0.230
'0:05.903',-0.575,-0.230
'0:05.906',-0.560,-0.235
'0:05.908',-0.560,-0.225
'0:05.911',-0.570,-0.230
'0:05.914',-0.570,-0.230
'0:05.917',-0.565,-0.230
'0:05.919',-0.580,-0.230
'0:05.922',-0.585,-0.225
'0:05.925',-0.580,-0.230
'0:05.928',-0.575,-0.225
'0:05.931',-0.565,-0.225
'0:05.933',-0.560,-0.225
'0:05.936',-0.550,-0.215
'0:05.939',-0.540,-0.210
'0:05.942',-0.550,-0.215
'0:05.944',-0.545,-0.225
'0:05.947',-0.550,-0.240
'0:05.950',-0.575,-0.240
'0:05.953',-0.580,-0.245
'0:05.956',-0.590,-0.270
'0:05.958',-0.585,-0.260
'0:05.961',-0.560,-0.250
'0:05.964',-0.555,-0.250
'0:05.967',-0.550,-0.245
'0:05.969',-0.550,-0.240
'0:05.972',-0.545,-0.235
'0:05.975',-0.545,-0.235
'0:05.978',-0.550,-0.245
'0:05.981',-0.550,-0.250
'0:05.983',-0.545,-0.260
'0:05.986',-0.545,-0.260
'0:05.989',-0.555,-0.260
'0:05.992',-0.555,-0.255
'0:05.994',-0.560,-0.245
'0:05.997',-0.565,-0.240
'0:06.000',-0.560,-0.245
'0:06.003',-0.555,-0.240
'0:06.006',-0.555,-0.230
'0:06.008',-0.545,-0.235
'0:06.011',-0.540,-0.230
'0:06.014',-0.550,-0.230
'0:06.017',-0.540,-0.220
'0:06.019',-0.540,-0.230
'0:06.022',-0.545,-0.225
'0:06.025',-0.555,-0.220
'0:06.028',-0.565,-0.220
'0:06.031',-0.565,-0.225
'0:06.033',-0.545,-0.220
'0:06.036',-0.565,-0.215
'0:06.039',-0.565,-0.210
'0:06.042',-0.580,-0.215
'0:06.044',-0.565,-0.215
'0:06.047',-0.575,-0.230
'0:06.050',-0.585,-0.240
'0:06.053',-0.595,-0.255
'0:06.056',-0.600,-0.260
'0:06.058',-0.605,-0.270
'0:06.061',-0.595,-0.265
'0:06.064',-0.585,-0.250
'0:06.067',-0.575,-0.240
'0:06.069',-0.565,-0.225
'0:06.072',-0.550,-0.220
'0:06.075',-0.550,-0.215
'0:06.078',-0.550,-0.220
'0:06.081',-0.555,-0.210
'0:06.083',-0.550,-0.215
'0:06.086',-0.565,-0.210
'0:06.089',-0.585,-0.210
'0:06.092',-0.605,-0.210
'0:06.094',-0.630,-0.185
'0:06.097',-0.655,-0.185
'0:06.100',-0.645,-0.180
'0:06.103',-0.585,-0.155
'0:06.106',-0.465,-0.080
'0:06.108',-0.270,0.000
'0:06.111',-0.035,0.100
'0:06.114',0.260,0.225
'0:06.117',0.590,0.325
'0:06.119',0.935,0.415
'0:06.122',1.255,0.515
'0:06.125',1.525,0.605
'0:06.128',1.710,0.710
'0:06.131',1.775,0.845
'0:06.133',1.770,0.945
'0:06.136',1.695,1.005
'0:06.139',1.525,0.935
'0:06.142',1.200,0.665
'0:06.144',0.710,0.215
'0:06.147',0.120,-0.345
'0:06.150',-0.390,-0.895
'0:06.153',-0.710,-1.270
'0:06.156',-0.840,-1.420
'0:06.158',-0.840,-1.345
'0:06.161',-0.755,-1.130
'0:06.164',-0.665,-0.875
'0:06.167',-0.620,-0.670
'0:06.169',-0.590,-0.555
'0:06.172',-0.590,-0.475
'0:06.175',-0.605,-0.450
'0:06.178',-0.635,-0.420
'0:06.181',-0.650,-0.390
'0:06.183',-0.650,-0.375
'0:06.186',-0.670,-0.355
'0:06.189',-0.665,-0.310
'0:06.192',-0.670,-0.290
'0:06.194',-0.675,-0.280
'0:06.197',-0.685,-0.260
'0:06.200',-0.685,-0.250
'0:06.203',-0.685,-0.255
'0:06.206',-0.680,-0.230
'0:06.208',-0.685,-0.245
'0:06.211',-0.715,-0.245
'0:06.214',-0.720,-0.260
'0:06.217',-0.725,-0.265
'0:06.219',-0.735,-0.265
'0:06.222',-0.770,-0.265
'0:06.225',-0.755,-0.270
'0:06.228',-0.770,-0.245
'0:06.231',-0.770,-0.240
'0:06.233',-0.765,-0.235
'0:06.236',-0.770,-0.215
'0:06.239',-0.770,-0.215
'0:06.242',-0.785,-0.220
'0:06.244',-0.780,-0.220
'0:06.247',-0.800,-0.225
'0:06.250',-0.805,-0.240
'0:06.253',-0.815,-0.240
'0:06.256',-0.830,-0.250
'0:06.258',-0.840,-0.255
'0:06.261',-0.845,-0.255
'0:06.264',-0.840,-0.245
'0:06.267',-0.840,-0.235
'0:06.269',-0.840,-0.230
'0:06.272',-0.840,-0.235
'0:06.275',-0.835,-0.230
'0:06.278',-0.845,-0.245
'0:06.281',-0.855,-0.250
'0:06.283',-0.865,-0.255
'0:06.286',-0.875,-0.260
'0:06.289',-0.880,-0.275
'0:06.292',-0.885,-0.280
'0:06.294',-0.885,-0.280
'0:06.297',-0.890,-0.265
'0:06.300',-0.895,-0.265
'0:06.303',-0.905,-0.275
'0:06.306',-0.910,-0.265
'0:06.308',-0.915,-0.280
'0:06.311',-0.930,-0.295
'0:06.314',-0.950,-0.315
'0:06.317',-0.985,-0.330
'0:06.319',-0.995,-0.355
'0:06.322',-1.005,-0.375
'0:06.325',-1.025,-0.375
'0:06.328',-1.020,-0.370
'0:06.331',-1.015,-0.380
'0:06.333',-1.025,-0.375
'0:06.336',-1.030,-0.380
'0:06.339',-1.030,-0.380
'0:06.342',-1.035,-0.395
'0:06.344',-1.055,-0.420
'0:06.347',-1.075,-0.440
'0:06.350',-1.090,-0.460
'0:06.353',-1.110,-0.480
'0:06.356',-1.125,-0.500
'0:06.358',-1.150,-0.515
'0:06.361',-1.165,-0.525
'0:06.364',-1.185,-0.535
'0:06.367',-1.190,-0.555
'0:06.369',-1.190,-0.545
'0:06.372',-1.190,-0.540
'0:06.375',-1.190,-0.560
'0:06.378',-1.200,-0.570
'0:06.381',-1.210,-0.585
'0:06.383',-1.215,-0.600
'0:06.386',-1.215,-0.620
'0:06.389',-1.220,-0.640
'0:06.392',-1.210,-0.640
'0:06.394',-1.195,-0.625
'0:06.397',-1.175,-0.625
'0:06.400',-1.160,-0.610
'0:06.403',-1.125,-0.600
'0:06.406',-1.095,-0.590
'0:06.408',-1.065,-0.575
'0:06.411',-1.035,-0.575
'0:06.414',-0.985,-0.560
'0:06.417',-0.955,-0.555
'0:06.419',-0.930,-0.535
'0:06.422',-0.900,-0.515
'0:06.425',-0.865,-0.495
'0:06.428',-0.830,-0.465
'0:06.431',-0.810,-0.440
'0:06.433',-0.780,-0.430
'0:06.436',-0.745,-0.405
'0:06.439',-0.700,-0.375
'0:06.442',-0.685,-0.360
'0:06.444',-0.655,-0.345
'0:06.447',-0.645,-0.335
'0:06.450',-0.630,-0.340
'0:06.453',-0.630,-0.330
'0:06.456',-0.630,-0.330
'0:06.458',-0.620,-0.320
'0:06.461',-0.620,-0.300
'0:06.464',-0.615,-0.315
'0:06.467',-0.605,-0.290
'0:06.469',-0.590,-0.295
'0:06.472',-0.585,-0.290
'0:06.475',-0.580,-0.275
'0:06.478',-0.580,-0.290
'0:06.481',-0.580,-0.300
'0:06.483',-0.585,-0.310
'0:06.486',-0.585,-0.305
'0:06.489',-0.595,-0.315
'0:06.492',-0.615,-0.315
'0:06.494',-0.610,-0.320
'0:06.497',-0.610,-0.320
'0:06.500',-0.595,-0.305
'0:06.503',-0.580,-0.295
'0:06.506',-0.565,-0.285
'0:06.508',-0.545,-0.285
'0:06.511',-0.545,-0.290
'0:06.514',-0.545,-0.285
'0:06.517',-0.550,-0.280
'0:06.519',-0.555,-0.295
'0:06.522',-0.555,-0.290
'0:06.525',-0.555,-0.290
'0:06.528',-0.550,-0.280
'0:06.531',-0.550,-0.265
'0:06.533',-0.545,-0.250
'0:06.536',-0.535,-0.235
'0:06.539',-0.530,-0.235
'0:06.542',-0.515,-0.225
'0:06.544',-0.510,-0.225
'0:06.547',-0.510,-0.210
'0:06.550',-0.515,-0.215
'0:06.553',-0.520,-0.215
'0:06.556',-0.530,-0.215
'0:06.558',-0.530,-0.220
'0:06.561',-0.525,-0.190
'0:06.564',-0.525,-0.175
'0:06.567',-0.515,-0.165
'0:06.569',-0.505,-0.155
'0:06.572',-0.505,-0.145
'0:06.575',-0.490,-0.140
'0:06.578',-0.490,-0.150
'0:06.581',-0.485,-0.145
'0:06.583',-0.500,-0.155
'0:06.586',-0.510,-0.155
'0:06.589',-0.510,-0.150
'0:06.592',-0.500,-0.160
'0:06.594',-0.495,-0.155
'0:06.597',-0.495,-0.160
'0:06.600',-0.480,-0.135
'0:06.603',-0.485,-0.135
'0:06.606',-0.465,-0.130
'0:06.608',-0.465,-0.135
'0:06.611',-0.475,-0.135
'0:06.614',-0.475,-0.135
'0:06.617',-0.480,-0.155
'0:06.619',-0.495,-0.165
'0:06.622',-0.505,-0.175
'0:06.625',-0.500,-0.170
'0:06.628',-0.510,-0.160
'0:06.631',-0.490,-0.160
'0:06.633',-0.500,-0.165
'0:06.636',-0.510,-0.165
'0:06.639',-0.510,-0.170
'0:06.642',-0.510,-0.165
'0:06.644',-0.510,-0.185
'0:06.647',-0.515,-0.180
'0:06.650',-0.520,-0.200
'0:06.653',-0.535,-0.205
'0:06.656',-0.540,-0.220
'0:06.658',-0.550,-0.205
'0:06.661',-0.545,-0.195
'0:06.664',-0.555,-0.200
'0:06.667',-0.550,-0.195
'0:06.669',-0.545,-0.185
'0:06.672',-0.550,-0.180
'0:06.675',-0.545,-0.195
'0:06.678',-0.550,-0.190
'0:06.681',-0.555,-0.200
'0:06.683',-0.565,-0.210
'0:06.686',-0.580,-0.215
'0:06.689',-0.570,-0.230
'0:06.692',-0.580,-0.205
'0:06.694',-0.575,-0.210
'0:06.697',-0.565,-0.205
'0:06.700',-0.570,-0.190
'0:06.703',-0.570,-0.190
'0:06.706',-0.550,-0.185
'0:06.708',-0.545,-0.195
'0:06.711',-0.545,-0.205
'0:06.714',-0.545,-0.210
'0:06.717',-0.550,-0.215
'0:06.719',-0.565,-0.240
'0:06.722',-0.560,-0.250
'0:06.725',-0.565,-0.250
'0:06.728',-0.560,-0.255
'0:06.731',-0.565,-0.245
'0:06.733',-0.550,-0.240
'0:06.736',-0.555,-0.230
'0:06.739',-0.555,-0.225
'0:06.742',-0.560,-0.240
'0:06.744',-0.555,-0.235
'0:06.747',-0.545,-0.245
'0:06.750',-0.540,-0.260
'0:06.753',-0.550,-0.270
'0:06.756',-0.555,-0.260
'0:06.758',-0.555,-0.265
'0:06.761',-0.550,-0.260
'0:06.764',-0.545,-0.265
'0:06.767',-0.550,-0.255
'0:06.769',-0.530,-0.255
'0:06.772',-0.520,-0.250
'0:06.775',-0.505,-0.245
'0:06.778',-0.510,-0.255
'0:06.781',-0.515,-0.260
'0:06.783',-0.520,-0.270
'0:06.786',-0.515,-0.270
'0:06.789',-0.510,-0.280
'0:06.792',-0.520,-0.280
'0:06.794',-0.525,-0.280
'0:06.797',-0.525,-0.280
'0:06.800',-0.530,-0.260
'0:06.803',-0.520,-0.265
'0:06.806',-0.515,-0.265
'0:06.808',-0.505,-0.275
'0:06.811',-0.510,-0.280
'0:06.814',-0.530,-0.280
'0:06.817',-0.545,-0.280
'0:06.819',-0.550,-0.290
'0:06.822',-0.540,-0.280
'0:06.825',-0.535,-0.280
'0:06.828',-0.535,-0.260
'0:06.831',-0.535,-0.250
'0:06.833',-0.530,-0.245
'0:06.836',-0.535,-0.245
'0:06.839',-0.545,-0.250
'0:06.842',-0.545,-0.250
'0:06.844',-0.590,-0.255
'0:06.847',-0.615,-0.265
'0:06.850',-0.640,-0.270
'0:06.853',-0.635,-0.250
'0:06.856',-0.570,-0.225
'0:06.858',-0.435,-0.150
'0:06.861',-0.245,-0.060
'0:06.864',0.005,0.040
'0:06.867',0.325,0.155
'0:06.869',0.655,0.255
'0:06.872',0.985,0.340
'0:06.875',1.300,0.415
'0:06.878',1.555,0.485
'0:06.881',1.710,0.595
'0:06.883',1.775,0.700
'0:06.886',1.750,0.805
'0:06.889',1.655,0.835
'0:06.892',1.440,0.725
'0:06.894',1.100,0.450
'0:06.897',0.595,0.015
'0:06.900',0.025,-0.495
'0:06.903',-0.455,-0.980
'0:06.906',-0.745,-1.315
'0:06.908',-0.875,-1.410
'0:06.911',-0.830,-1.335
'0:06.914',-0.760,-1.120
'0:06.917',-0.680,-0.915
'0:06.919',-0.625,-0.740
'0:06.922',-0.615,-0.630
'0:06.925',-0.630,-0.570
'0:06.928',-0.645,-0.535
'0:06.931',-0.675,-0.495
'0:06.933',-0.675,-0.465
'0:06.936',-0.690,-0.440
'0:06.939',-0.675,-0.390
'0:06.942',-0.670,-0.365
'0:06.944',-0.675,-0.360
'0:06.947',-0.690,-0.340
'0:06.950',-0.705,-0.350
'0:06.953',-0.705,-0.345
'0:06.956',-0.730,-0.355
'0:06.958',-0.730,-0.355
'0:06.961',-0.720,-0.355
'0:06.964',-0.720,-0.340
'0:06.967',-0.710,-0.325
'0:06.969',-0.720,-0.320
'0:06.972',-0.725,-0.300
'0:06.975',-0.715,-0.305
'0:06.978',-0.730,-0.300
'0:06.981',-0.730,-0.305
'0:06.983',-0.740,-0.305
'0:06.986',-0.750,-0.310
'0:06.989',-0.765,-0.310
'0:06.992',-0.765,-0.305
'0:06.994',-0.755,-0.310
'0:06.997',-0.760,-0.300
'0:07.000',-0.760,-0.290
'0:07.003',-0.770,-0.290
'0:07.006',-0.770,-0.270
'0:07.008',-0.790,-0.275
'0:07.011',-0.800,-0.285
'0:07.014',-0.820,-0.295
'0:07.017',-0.830,-0.310
'0:07.019',-0.860,-0.325
'0:07.022',-0.865,-0.340
'0:07.025',-0.880,-0.335
'0:07.028',-0.895,-0.335
'0:07.031',-0.890,-0.345
'0:07.033',-0.880,-0.345
'0:07.036',-0.895,-0.330
'0:07.039',-0.885,-0.320
'0:07.042',-0.870,-0.330
'0:07.044',-0.875,-0.340
'0:07.047',-0.890,-0.335
'0:07.050',-0.895,-0.350
'0:07.053',-0.910,-0.375
'0:07.056',-0.925,-0.375
'0:07.058',-0.945,-0.380
'0:07.061',-0.950,-0.375
'0:07.064',-0.955,-0.385
'0:07.067',-0.965,-0.380
'0:07.069',-0.970,-0.370
'0:07.072',-0.960,-0.365
'0:07.075',-0.960,-0.385
'0:07.078',-0.960,-0.385
'0:07.081',-0.955,-0.405
'0:07.083',-0.985,-0.415
'0:07.086',-1.005,-0.425
'0:07.089',-1.025,-0.440
'0:07.092',-1.035,-0.445
'0:07.094',-1.055,-0.450
'0:07.097',-1.070,-0.455
'0:07.100',-1.080,-0.470
'0:07.103',-1.070,-0.470
'0:07.106',-1.080,-0.470
'0:07.108',-1.095,-0.475
'0:07.111',-1.105,-0.500
'0:07.114',-1.115,-0.520
'0:07.117',-1.125,-0.530
'0:07.119',-1.135,-0.555
'0:07.122',-1.160,-0.575
'0:07.125',-1.180,-0.580
'0:07.128',-1.195,-0.585
'0:07.131',-1.205,-0.595
'0:07.133',-1.215,-0.600
'0:07.136',-1.230,-0.615
'0:07.139',-1.245,-0.610
'0:07.142',-1.220,-0.630
'0:07.144',-1.230,-0.640
'0:07.147',-1.225,-0.645
'0:07.150',-1.220,-0.660
'0:07.153',-1.215,-0.665
'0:07.156',-1.190,-0.665
'0:07.158',-1.160,-0.670
'0:07.161',-1.135,-0.640
'0:07.164',-1.095,-0.625
'0:07.167',-1.060,-0.605
'0:07.169',-1.030,-0.585
'0:07.172',-1.000,-0.565
'0:07.175',-0.960,-0.540
'0:07.178',-0.925,-0.550
'0:07.181',-0.910,-0.530
'0:07.183',-0.870,-0.520
'0:07.186',-0.860,-0.505
'0:07.189',-0.835,-0.505
'0:07.192',-0.820,-0.490
'0:07.194',-0.790,-0.465
'0:07.197',-0.780,-0.450
'0:07.200',-0.755,-0.430
'0:07.203',-0.730,-0.415
'0:07.206',-0.710,-0.390
'0:07.208',-0.700,-0.380
'0:07.211',-0.690,-0.385
'0:07.214',-0.680,-0.375
'0:07.217',-0.670,-0.375
'0:07.219',-0.665,-0.375
'0:07.222',-0.665,-0.375
'0:07.225',-0.660,-0.375
'0:07.228',-0.650,-0.370
'0:07.231',-0.640,-0.360
'0:07.233',-0.625,-0.350
'0:07.236',-0.625,-0.340
'0:07.239',-0.610,-0.335
'0:07.242',-0.610,-0.315
'0:07.244',-0.605,-0.330
'0:07.247',-0.610,-0.335
'0:07.250',-0.615,-0.325
'0:07.253',-0.620,-0.325
'0:07.256',-0.615,-0.330
'0:07.258',-0.615,-0.330
'0:07.261',-0.610,-0.305
'0:07.264',-0.620,-0.305
'0:07.267',-0.615,-0.305
'0:07.269',-0.600,-0.295
'0:07.272',-0.585,-0.300
'0:07.275',-0.590,-0.300
'0:07.278',-0.580,-0.305
'0:07.281',-0.575,-0.305
'0:07.283',-0.590,-0.310
'0:07.286',-0.575,-0.320
'0:07.289',-0.585,-0.325
'0:07.292',-0.590,-0.320
'0:07.294',-0.585,-0.315
'0:07.297',-0.585,-0.315
'0:07.300',-0.575,-0.280
'0:07.303',-0.575,-0.260
'0:07.306',-0.565,-0.250
'0:07.308',-0.555,-0.250
'0:07.311',-0.560,-0.260
'0:07.314',-0.545,-0.250
'0:07.317',-0.555,-0.265
'0:07.319',-0.565,-0.265
'0:07.322',-0.570,-0.265
'0:07.325',-0.575,-0.260
'0:07.328',-0.590,-0.260
'0:07.331',-0.600,-0.255
'0:07.333',-0.585,-0.260
'0:07.336',-0.595,-0.255
'0:07.339',-0.590,-0.245
'0:07.342',-0.575,-0.245
'0:07.344',-0.570,-0.260
'0:07.347',-0.560,-0.260
'0:07.350',-0.575,-0.275
'0:07.353',-0.570,-0.280
'0:07.356',-0.580,-0.300
'0:07.358',-0.595,-0.300
'0:07.361',-0.585,-0.295
'0:07.364',-0.595,-0.290
'0:07.367',-0.580,-0.285
'0:07.369',-0.585,-0.270
'0:07.372',-0.580,-0.270
'0:07.375',-0.575,-0.275
'0:07.378',-0.590,-0.280
'0:07.381',-0.590,-0.290
'0:07.383',-0.600,-0.285
'0:07.386',-0.615,-0.310
'0:07.389',-0.625,-0.320
'0:07.392',-0.610,-0.325
'0:07.394',-0.630,-0.310
'0:07.397',-0.625,-0.320
'0:07.400',-0.620,-0.310
'0:07.403',-0.605,-0.300
'0:07.406',-0.605,-0.295
'0:07.408',-0.610,-0.295
'0:07.411',-0.605,-0.305
'0:07.414',-0.605,-0.315
'0:07.417',-0.625,-0.325
'0:07.419',-0.625,-0.335
'0:07.422',-0.625,-0.340
'0:07.425',-0.620,-0.345
'0:07.428',-0.610,-0.355
'0:07.431',-0.600,-0.335
'0:07.433',-0.585,-0.330
'0:07.436',-0.595,-0.320
'0:07.439',-0.570,-0.315
'0:07.442',-0.575,-0.300
'0:07.444',-0.585,-0.320
'0:07.447',-0.570,-0.320
'0:07.450',-0.580,-0.340
'0:07.453',-0.585,-0.355
'0:07.456',-0.600,-0.350
'0:07.458',-0.600,-0.360
'0:07.461',-0.600,-0.350
'0:07.464',-0.600,-0.345
'0:07.467',-0.600,-0.335
'0:07.469',-0.595,-0.335
'0:07.472',-0.590,-0.330
'0:07.475',-0.575,-0.320
'0:07.478',-0.570,-0.335
'0:07.481',-0.570,-0.330
'0:07.483',-0.560,-0.335
'0:07.486',-0.565,-0.355
'0:07.489',-0.570,-0.355
'0:07.492',-0.580,-0.365
'0:07.494',-0.585,-0.345
'0:07.497',-0.585,-0.350
'0:07.500',-0.575,-0.345
'0:07.503',-0.555,-0.335
'0:07.506',-0.565,-0.335
'0:07.508',-0.550,-0.335
'0:07.511',-0.560,-0.330
'0:07.514',-0.550,-0.340
'0:07.517',-0.560,-0.340
'0:07.519',-0.560,-0.350
'0:07.522',-0.585,-0.360
'0:07.525',-0.600,-0.360
'0:07.528',-0.630,-0.345
'0:07.531',-0.630,-0.340
'0:07.533',-0.625,-0.320
'0:07.536',-0.585,-0.290
'0:07.539',-0.485,-0.235
'0:07.542',-0.325,-0.150
'0:07.544',-0.110,-0.055
'0:07.547',0.125,0.030
'0:07.550',0.420,0.115
'0:07.553',0.730,0.200
'0:07.556',1.025,0.265
'0:07.558',1.305,0.340
'0:07.561',1.520,0.420
'0:07.564',1.670,0.530
'0:07.567',1.710,0.640
'0:07.569',1.705,0.745
'0:07.572',1.640,0.795
'0:07.575',1.480,0.710
'0:07.578',1.205,0.470
'0:07.581',0.785,0.110
'0:07.583',0.265,-0.325
'0:07.586',-0.285,-0.790
'0:07.589',-0.675,-1.180
'0:07.592',-0.875,-1.400
'0:07.594',-0.900,-1.425
'0:07.597',-0.870,-1.300
'0:07.600',-0.775,-1.105
'0:07.603',-0.720,-0.895
'0:07.606',-0.690,-0.750
'0:07.608',-0.675,-0.655
'0:07.611',-0.700,-0.620
'0:07.614',-0.730,-0.580
'0:07.617',-0.760,-0.555
'0:07.619',-0.780,-0.535
'0:07.622',-0.785,-0.520
'0:07.625',-0.790,-0.480
'0:07.628',-0.780,-0.455
'0:07.631',-0.775,-0.425
'0:07.633',-0.770,-0.400
'0:07.636',-0.760,-0.390
'0:07.639',-0.755,-0.380
'0:07.642',-0.760,-0.375
'0:07.644',-0.760,-0.375
'0:07.647',-0.755,-0.385
'0:07.650',-0.760,-0.385
'0:07.653',-0.770,-0.385
'0:07.656',-0.770,-0.400
'0:07.658',-0.790,-0.395
'0:07.661',-0.775,-0.385
'0:07.664',-0.790,-0.380
'0:07.667',-0.775,-0.365
'0:07.669',-0.785,-0.365
'0:07.672',-0.780,-0.345
'0:07.675',-0.775,-0.350
'0:07.678',-0.780,-0.355
'0:07.681',-0.795,-0.350
'0:07.683',-0.795,-0.360
'0:07.686',-0.815,-0.365
'0:07.689',-0.820,-0.375
'0:07.692',-0.830,-0.385
'0:07.694',-0.825,-0.375
'0:07.697',-0.840,-0.375
'0:07.700',-0.825,-0.365
'0:07.703',-0.835,-0.355
'0:07.706',-0.845,-0.355
'0:07.708',-0.845,-0.345
'0:07.711',-0.855,-0.355
'0:07.714',-0.860,-0.355
'0:07.717',-0.870,-0.370
'0:07.719',-0.875,-0.375
'0:07.722',-0.890,-0.380
'0:07.725',-0.890,-0.395
'0:07.728',-0.895,-0.380
'0:07.731',-0.910,-0.375
'0:07.733',-0.900,-0.360
'0:07.736',-0.910,-0.350
'0:07.739',-0.900,-0.330
'0:07.742',-0.905,-0.345
'0:07.744',-0.910,-0.350
'0:07.747',-0.920,-0.350
'0:07.750',-0.940,-0.365
'0:07.753',-0.965,-0.375
'0:07.756',-0.975,-0.380
'0:07.758',-0.990,-0.385
'0:07.761',-0.995,-0.390
'0:07.764',-1.010,-0.380
'0:07.767',-1.005,-0.380
'0:07.769',-1.005,-0.380
'0:07.772',-1.005,-0.370
'0:07.775',-1.010,-0.375
'0:07.778',-1.010,-0.385
'0:07.781',-1.035,-0.395
'0:07.783',-1.055,-0.410
'0:07.786',-1.070,-0.420
'0:07.789',-1.100,-0.445
'0:07.792',-1.110,-0.455
'0:07.794',-1.120,-0.465
'0:07.797',-1.125,-0.480
'0:07.800',-1.140,-0.485
'0:07.803',-1.150,-0.490
'0:07.806',-1.150,-0.495
'0:07.808',-1.155,-0.505
'0:07.811',-1.150,-0.535
'0:07.814',-1.155,-0.560
'0:07.817',-1.180,-0.565
'0:07.819',-1.205,-0.605
'0:07.822',-1.215,-0.610
'0:07.825',-1.235,-0.630
'0:07.828',-1.245,-0.635
'0:07.831',-1.235,-0.635
'0:07.833',-1.225,-0.635
'0:07.836',-1.205,-0.650
'0:07.839',-1.190,-0.645
'0:07.842',-1.165,-0.635
'0:07.844',-1.145,-0.650
'0:07.847',-1.135,-0.640
'0:07.850',-1.115,-0.645
'0:07.853',-1.100,-0.640
'0:07.856',-1.070,-0.635
'0:07.858',-1.055,-0.630
'0:07.861',-1.020,-0.610
'0:07.864',-1.015,-0.595
'0:07.867',-0.970,-0.565
'0:07.869',-0.925,-0.555
'0:07.872',-0.905,-0.530
'0:07.875',-0.875,-0.505
'0:07.878',-0.865,-0.500
'0:07.881',-0.855,-0.485
'0:07.883',-0.840,-0.485
'0:07.886',-0.840,-0.480
'0:07.889',-0.835,-0.480
'0:07.892',-0.840,-0.470
'0:07.894',-0.810,-0.465
'0:07.897',-0.800,-0.450
'0:07.900',-0.765,-0.415
'0:07.903',-0.765,-0.415
'0:07.906',-0.745,-0.400
'0:07.908',-0.740,-0.395
'0:07.911',-0.740,-0.390
'0:07.914',-0.725,-0.405
'0:07.917',-0.725,-0.395
'0:07.919',-0.735,-0.405
'0:07.922',-0.735,-0.390
'0:07.925',-0.725,-0.405
'0:07.928',-0.720,-0.390
'0:07.931',-0.700,-0.375
'0:07.933',-0.685,-0.360
'0:07.936',-0.680,-0.345
'0:07.939',-0.660,-0.340
'0:07.942',-0.650,-0.330
'0:07.944',-0.650,-0.335
'0:07.947',-0.635,-0.325
'0:07.950',-0.630,-0.325
'0:07.953',-0.630,-0.335
'0:07.956',-0.635,-0.335
'0:07.958',-0.630,-0.340
'0:07.961',-0.620,-0.335
'0:07.964',-0.635,-0.330
'0:07.967',-0.635,-0.330
'0:07.969',-0.610,-0.320
'0:07.972',-0.590,-0.315
'0:07.975',-0.575,-0.310
'0:07.978',-0.560,-0.315
'0:07.981',-0.555,-0.310
'0:07.983',-0.550,-0.320
'0:07.986',-0.555,-0.335
'0:07.989',-0.550,-0.335
'0:07.992',-0.550,-0.330
'0:07.994',-0.560,-0.325
'0:07.997',-0.545,-0.310
'0:08.000',-0.545,-0.295
'0:08.003',-0.535,-0.295
'0:08.006',-0.525,-0.275
'0:08.008',-0.525,-0.275
'0:08.011',-0.510,-0.290
'0:08.014',-0.525,-0.285
'0:08.017',-0.540,-0.300
'0:08.019',-0.550,-0.300
'0:08.022',-0.570,-0.310
'0:08.025',-0.575,-0.300
'0:08.028',-0.570,-0.300
'0:08.031',-0.575,-0.300
'0:08.033',-0.580,-0.290
'0:08.036',-0.595,-0.285
'0:08.039',-0.590,-0.280
'0:08.042',-0.595,-0.285
'0:08.044',-0.595,-0.290
'0:08.047',-0.610,-0.275
'0:08.050',-0.615,-0.295
'0:08.053',-0.635,-0.305
'0:08.056',-0.645,-0.320
'0:08.058',-0.665,-0.325
'0:08.061',-0.680,-0.315
'0:08.064',-0.665,-0.315
'0:08.067',-0.680,-0.310
'0:08.069',-0.670,-0.305
'0:08.072',-0.685,-0.305
'0:08.075',-0.665,-0.300
'0:08.078',-0.675,-0.315
'0:08.081',-0.685,-0.310
'0:08.083',-0.685,-0.335
'0:08.086',-0.710,-0.340
'0:08.089',-0.705,-0.345
'0:08.092',-0.720,-0.355
'0:08.094',-0.720,-0.340
'0:08.097',-0.705,-0.335
'0:08.100',-0.695,-0.335
'0:08.103',-0.675,-0.330
'0:08.106',-0.660,-0.320
'0:08.108',-0.660,-0.320
'0:08.111',-0.665,-0.320
'0:08.114',-0.665,-0.325
'0:08.117',-0.675,-0.335
'0:08.119',-0.675,-0.335
'0:08.122',-0.680,-0.345
'0:08.125',-0.685,-0.335
'0:08.128',-0.670,-0.320
'0:08.131',-0.650,-0.330
'0:08.133',-0.640,-0.325
'0:08.136',-0.620,-0.310
'0:08.139',-0.610,-0.315
'0:08.142',-0.590,-0.305
'0:08.144',-0.590,-0.305
'0:08.147',-0.585,-0.320
'0:08.150',-0.585,-0.340
'0:08.153',-0.590,-0.345
'0:08.156',-0.585,-0.355
'0:08.158',-0.595,-0.355
'0:08.161',-0.585,-0.340
'0:08.164',-0.580,-0.335
'0:08.167',-0.575,-0.335
'0:08.169',-0.565,-0.325
'0:08.172',-0.545,-0.320
'0:08.175',-0.545,-0.315
'0:08.178',-0.545,-0.330
'0:08.181',-0.555,-0.315
'0:08.183',-0.555,-0.335
'0:08.186',-0.575,-0.335
'0:08.189',-0.585,-0.350
'0:08.192',-0.590,-0.355
'0:08.194',-0.600,-0.345
'0:08.197',-0.600,-0.355
'0:08.200',-0.605,-0.340
'0:08.203',-0.600,-0.340
'0:08.206',-0.605,-0.335
'0:08.208',-0.625,-0.340
'0:08.211',-0.635,-0.350
'0:08.214',-0.655,-0.350
'0:08.217',-0.665,-0.370
'0:08.219',-0.685,-0.375
'0:08.222',-0.700,-0.385
'0:08.225',-0.705,-0.390
'0:08.228',-0.715,-0.395
'0:08.231',-0.725,-0.390
'0:08.233',-0.720,-0.395
'0:08.236',-0.735,-0.400
'0:08.239',-0.735,-0.400
'0:08.242',-0.720,-0.380
'0:08.244',-0.715,-0.400
'0:08.247',-0.705,-0.385
'0:08.250',-0.705,-0.380
'0:08.253',-0.715,-0.380
'0:08.256',-0.710,-0.390
'0:08.258',-0.710,-0.400
'0:08.261',-0.720,-0.385
'0:08.264',-0.715,-0.380
'0:08.267',-0.710,-0.365
'0:08.269',-0.685,-0.350
'0:08.272',-0.670,-0.350
'0:08.275',-0.635,-0.340
'0:08.278',-0.635,-0.340
'0:08.281',-0.630,-0.350
'0:08.283',-0.645,-0.340
'0:08.286',-0.640,-0.355
'0:08.289',-0.640,-0.355
'0:08.292',-0.645,-0.375
'0:08.294',-0.630,-0.350
'0:08.297',-0.635,-0.350
'0:08.300',-0.610,-0.335
'0:08.303',-0.595,-0.325
'0:08.306',-0.580,-0.315
'0:08.308',-0.570,-0.305
'0:08.311',-0.565,-0.315
'0:08.314',-0.565,-0.315
'0:08.317',-0.570,-0.325
'0:08.319',-0.580,-0.335
'0:08.322',-0.615,-0.330
'0:08.325',-0.645,-0.320
'0:08.328',-0.660,-0.320
'0:08.331',-0.625,-0.295
'0:08.333',-0.520,-0.245
'0:08.336',-0.370,-0.170
'0:08.339',-0.165,-0.075
'0:08.342',0.085,0.015
'0:08.344',0.350,0.090
'0:08.347',0.650,0.195
'0:08.350',0.955,0.255
'0:08.353',1.235,0.325
'0:08.356',1.470,0.390
'0:08.358',1.635,0.465
'0:08.361',1.730,0.565
'0:08.364',1.750,0.670
'0:08.367',1.705,0.780
'0:08.369',1.620,0.800
'0:08.372',1.505,0.715
'0:08.375',1.270,0.495
'0:08.378',0.885,0.130
'0:08.381',0.360,-0.295
'0:08.383',-0.175,-0.740
'0:08.386',-0.605,-1.140
'0:08.389',-0.850,-1.400
'0:08.392',-0.925,-1.485
'0:08.394',-0.895,-1.390
'0:08.397',-0.840,-1.215
'0:08.400',-0.775,-1.010
'0:08.403',-0.730,-0.850
'0:08.406',-0.715,-0.725
'0:08.408',-0.735,-0.665
'0:08.411',-0.765,-0.610
'0:08.414',-0.790,-0.580
'0:08.417',-0.820,-0.555
'0:08.419',-0.830,-0.525
'0:08.422',-0.850,-0.505
'0:08.425',-0.850,-0.480
'0:08.428',-0.840,-0.460
'0:08.431',-0.835,-0.430
'0:08.433',-0.830,-0.405
'0:08.436',-0.825,-0.375
'0:08.439',-0.815,-0.360
'0:08.442',-0.810,-0.355
'0:08.444',-0.820,-0.360
'0:08.447',-0.835,-0.350
'0:08.450',-0.835,-0.355
'0:08.453',-0.855,-0.360
'0:08.456',-0.860,-0.370
'0:08.458',-0.870,-0.370
'0:08.461',-0.885,-0.365
'0:08.464',-0.870,-0.365
'0:08.467',-0.875,-0.365
'0:08.469',-0.860,-0.350
'0:08.472',-0.850,-0.345
'0:08.475',-0.855,-0.345
'0:08.478',-0.840,-0.345
'0:08.481',-0.850,-0.345
'0:08.483',-0.860,-0.365
'0:08.486',-0.870,-0.365
'0:08.489',-0.875,-0.370
'0:08.492',-0.870,-0.380
'0:08.494',-0.880,-0.385
'0:08.497',-0.875,-0.370
'0:08.500',-0.885,-0.350
'0:08.503',-0.880,-0.350
'0:08.506',-0.875,-0.355
'0:08.508',-0.880,-0.365
'0:08.511',-0.890,-0.370
'0:08.514',-0.900,-0.375
'0:08.517',-0.905,-0.385
'0:08.519',-0.905,-0.395
'0:08.522',-0.910,-0.390
'0:08.525',-0.910,-0.400
'0:08.528',-0.930,-0.390
'0:08.531',-0.935,-0.380
'0:08.533',-0.935,-0.370
'0:08.536',-0.940,-0.375
'0:08.539',-0.945,-0.385
'0:08.542',-0.945,-0.380
'0:08.544',-0.955,-0.395
'0:08.547',-0.965,-0.405
'0:08.550',-0.980,-0.415
'0:08.553',-0.985,-0.430
'0:08.556',-1.000,-0.420
'0:08.558',-1.005,-0.435
'0:08.561',-1.020,-0.430
'0:08.564',-1.025,-0.420
'0:08.567',-1.035,-0.425
'0:08.569',-1.040,-0.415
'0:08.572',-1.025,-0.420
'0:08.575',-1.050,-0.415
'0:08.578',-1.060,-0.430
'0:08.581',-1.080,-0.435
'0:08.583',-1.110,-0.460
'0:08.586',-1.125,-0.470
'0:08.589',-1.165,-0.480
'0:08.592',-1.175,-0.495
'0:08.594',-1.175,-0.505
'0:08.597',-1.190,-0.505
'0:08.600',-1.195,-0.510
'0:08.603',-1.205,-0.530
'0:08.606',-1.215,-0.535
'0:08.608',-1.215,-0.540
'0:08.611',-1.225,-0.570
'0:08.614',-1.245,-0.585
'0:08.617',-1.265,-0.600
'0:08.619',-1.285,-0.630
'0:08.622',-1.315,-0.640
'0:08.625',-1.325,-0.665
'0:08.628',-1.340,-0.670
'0:08.631',-1.340,-0.675
'0:08.633',-1.330,-0.680
'0:08.636',-1.325,-0.685
'0:08.639',-1.320,-0.695
'0:08.642',-1.300,-0.690
'0:08.644',-1.285,-0.715
'0:08.647',-1.275,-0.720
'0:08.650',-1.250,-0.715
'0:08.653',-1.215,-0.730
'0:08.656',-1.205,-0.725
'0:08.658',-1.175,-0.715
'0:08.661',-1.155,-0.695
'0:08.664',-1.130,-0.670
'0:08.667',-1.085,-0.660
'0:08.669',-1.040,-0.625
'0:08.672',-1.000,-0.620
'0:08.675',-0.955,-0.585
'0:08.678',-0.905,-0.585
'0:08.681',-0.885,-0.550
'0:08.683',-0.875,-0.555
'0:08.686',-0.850,-0.540
'0:08.689',-0.840,-0.545
'0:08.692',-0.825,-0.525
'0:08.694',-0.810,-0.515
'0:08.697',-0.790,-0.495
'0:08.700',-0.770,-0.475
'0:08.703',-0.755,-0.465
'0:08.706',-0.735,-0.445
'0:08.708',-0.735,-0.425
'0:08.711',-0.720,-0.430
'0:08.714',-0.715,-0.430
'0:08.717',-0.715,-0.430
'0:08.719',-0.710,-0.425
'0:08.722',-0.705,-0.415
'0:08.725',-0.705,-0.415
'0:08.728',-0.700,-0.415
'0:08.731',-0.695,-0.405
'0:08.733',-0.690,-0.400
'0:08.736',-0.680,-0.385
'0:08.739',-0.675,-0.370
'0:08.742',-0.660,-0.370
'0:08.744',-0.655,-0.380
'0:08.747',-0.655,-0.380
'0:08.750',-0.675,-0.390
'0:08.753',-0.665,-0.405
'0:08.756',-0.665,-0.400
'0:08.758',-0.665,-0.405
'0:08.761',-0.670,-0.395
'0:08.764',-0.665,-0.395
'0:08.767',-0.655,-0.375
'0:08.769',-0.640,-0.370
'0:08.772',-0.625,-0.350
'0:08.775',-0.625,-0.340
'0:08.778',-0.620,-0.350
'0:08.781',-0.610,-0.345
'0:08.783',-0.610,-0.335
'0:08.786',-0.600,-0.345
'0:08.789',-0.610,-0.340
'0:08.792',-0.605,-0.340
'0:08.794',-0.615,-0.325
'0:08.797',-0.600,-0.315
'0:08.800',-0.605,-0.305
'0:08.803',-0.600,-0.290
'0:08.806',-0.600,-0.290
'0:08.808',-0.595,-0.285
'0:08.811',-0.600,-0.290
'0:08.814',-0.595,-0.275
'0:08.817',-0.590,-0.285
'0:08.819',-0.595,-0.285
'0:08.822',-0.600,-0.275
'0:08.825',-0.600,-0.285
'0:08.828',-0.605,-0.280
'0:08.831',-0.600,-0.265
'0:08.833',-0.600,-0.260
'0:08.836',-0.600,-0.250
'0:08.839',-0.595,-0.245
'0:08.842',-0.590,-0.240
'0:08.844',-0.600,-0.250
'0:08.847',-0.600,-0.255
'0:08.850',-0.605,-0.260
'0:08.853',-0.615,-0.270
'0:08.856',-0.615,-0.270
'0:08.858',-0.625,-0.265
'0:08.861',-0.625,-0.285
'0:08.864',-0.615,-0.270
'0:08.867',-0.615,-0.265
'0:08.869',-0.610,-0.265
'0:08.872',-0.595,-0.265
'0:08.875',-0.600,-0.270
'0:08.878',-0.590,-0.285
'0:08.881',-0.605,-0.285
'0:08.883',-0.605,-0.285
'0:08.886',-0.600,-0.285
'0:08.889',-0.620,-0.295
'0:08.892',-0.610,-0.295
'0:08.894',-0.610,-0.280
'0:08.897',-0.605,-0.280
'0:08.900',-0.595,-0.285
'0:08.903',-0.590,-0.275
'0:08.906',-0.560,-0.275
'0:08.908',-0.550,-0.265
'0:08.911',-0.550,-0.270
'0:08.914',-0.545,-0.280
'0:08.917',-0.555,-0.285
'0:08.919',-0.555,-0.285
'0:08.922',-0.570,-0.290
'0:08.925',-0.565,-0.300
'0:08.928',-0.580,-0.295
'0:08.931',-0.595,-0.285
'0:08.933',-0.625,-0.275
'0:08.936',-0.650,-0.270
'0:08.939',-0.670,-0.260
'0:08.942',-0.640,-0.240
'0:08.944',-0.570,-0.220
'0:08.947',-0.430,-0.155
'0:08.950',-0.255,-0.080
'0:08.953',-0.020,0.020
'0:08.956',0.270,0.120
'0:08.958',0.595,0.210
'0:08.961',0.955,0.310
'0:08.964',1.275,0.410
'0:08.967',1.520,0.515
'0:08.969',1.680,0.615
'0:08.972',1.735,0.725
'0:08.975',1.715,0.830
'0:08.978',1.605,0.830
'0:08.981',1.395,0.705
'0:08.983',1.030,0.400
'0:08.986',0.505,-0.060
'0:08.989',-0.065,-0.595
'0:08.992',-0.545,-1.065
'0:08.994',-0.810,-1.375
'0:08.997',-0.900,-1.480
'0:09.000',-0.860,-1.375
'0:09.003',-0.745,-1.155
'0:09.006',-0.655,-0.915
'0:09.008',-0.600,-0.725
'0:09.011',-0.600,-0.605
'0:09.014',-0.625,-0.535
'0:09.017',-0.660,-0.505
'0:09.019',-0.715,-0.505
'0:09.022',-0.735,-0.475
'0:09.025',-0.750,-0.460
'0:09.028',-0.755,-0.430
'0:09.031',-0.735,-0.405
'0:09.033',-0.725,-0.365
'0:09.036',-0.720,-0.350
'0:09.039',-0.725,-0.340
'0:09.042',-0.720,-0.330
'0:09.044',-0.730,-0.330
'0:09.047',-0.725,-0.330
'0:09.050',-0.740,-0.335
'0:09.053',-0.730,-0.340
'0:09.056',-0.750,-0.325
'0:09.058',-0.755,-0.325
'0:09.061',-0.765,-0.315
'0:09.064',-0.775,-0.305
'0:09.067',-0.760,-0.290
'0:09.069',-0.760,-0.285
'0:09.072',-0.765,-0.270
'0:09.075',-0.760,-0.280
'0:09.078',-0.795,-0.285
'0:09.081',-0.795,-0.290
'0:09.083',-0.810,-0.300
'0:09.086',-0.820,-0.300
'0:09.089',-0.830,-0.315
'0:09.092',-0.840,-0.315
'0:09.094',-0.840,-0.305
'0:09.097',-0.855,-0.295
'0:09.100',-0.850,-0.300
'0:09.103',-0.840,-0.300
'0:09.106',-0.845,-0.300
'0:09.108',-0.835,-0.295
'0:09.111',-0.840,-0.320
'0:09.114',-0.850,-0.320
'0:09.117',-0.865,-0.335
'0:09.119',-0.870,-0.345
'0:09.122',-0.875,-0.360
'0:09.125',-0.885,-0.365
'0:09.128',-0.905,-0.365
'0:09.131',-0.915,-0.360
'0:09.133',-0.920,-0.365
'0:09.136',-0.925,-0.340
'0:09.139',-0.930,-0.345
'0:09.142',-0.925,-0.340
'0:09.144',-0.930,-0.360
'0:09.147',-0.935,-0.360
'0:09.150',-0.925,-0.370
'0:09.153',-0.950,-0.380
'0:09.156',-0.960,-0.385
'0:09.158',-0.970,-0.395
'0:09.161',-0.990,-0.385
'0:09.164',-0.985,-0.380
'0:09.167',-0.990,-0.380
'0:09.169',-0.990,-0.380
'0:09.172',-0.995,-0.365
'0:09.175',-0.995,-0.365
'0:09.178',-0.995,-0.380
'0:09.181',-1.010,-0.395
'0:09.183',-1.020,-0.405
'0:09.186',-1.040,-0.420
'0:09.189',-1.055,-0.435
'0:09.192',-1.065,-0.435
'0:09.194',-1.070,-0.455
'0:09.197',-1.075,-0.470
'0:09.200',-1.075,-0.460
'0:09.203',-1.070,-0.465
'0:09.206',-1.075,-0.460
'0:09.208',-1.070,-0.475
'0:09.211',-1.080,-0.485
'0:09.214',-1.080,-0.490
'0:09.217',-1.090,-0.505
'0:09.219',-1.100,-0.535
'0:09.222',-1.105,-0.545
'0:09.225',-1.110,-0.555
'0:09.228',-1.115,-0.550
'0:09.231',-1.110,-0.560
'0:09.233',-1.095,-0.570
'0:09.236',-1.080,-0.555
'0:09.239',-1.050,-0.560
'0:09.242',-1.035,-0.550
'0:09.244',-1.015,-0.555
'0:09.247',-0.985,-0.550
'0:09.250',-0.960,-0.560
'0:09.253',-0.935,-0.545
'0:09.256',-0.915,-0.545
'0:09.258',-0.885,-0.530
'0:09.261',-0.855,-0.515
'0:09.264',-0.840,-0.495
'0:09.267',-0.815,-0.480
'0:09.269',-0.790,-0.450
'0:09.272',-0.765,-0.445
'0:09.275',-0.735,-0.415
'0:09.278',-0.700,-0.420
'0:09.281',-0.710,-0.410
'0:09.283',-0.715,-0.430
'0:09.286',-0.705,-0.425
'0:09.289',-0.710,-0.430
'0:09.292',-0.725,-0.440
'0:09.294',-0.725,-0.440
'0:09.297',-0.725,-0.435
'0:09.300',-0.705,-0.435
'0:09.303',-0.680,-0.425
'0:09.306',-0.680,-0.425
'0:09.308',-0.670,-0.420
'0:09.311',-0.675,-0.415
'0:09.314',-0.670,-0.425
'0:09.317',-0.675,-0.435
'0:09.319',-0.675,-0.430
'0:09.322',-0.680,-0.440
'0:09.325',-0.685,-0.455
'0:09.328',-0.695,-0.440
'0:09.331',-0.685,-0.435
'0:09.333',-0.690,-0.425
'0:09.336',-0.685,-0.425
'0:09.339',-0.690,-0.420
'0:09.342',-0.675,-0.410
'0:09.344',-0.670,-0.425
'0:09.347',-0.660,-0.425
'0:09.350',-0.680,-0.425
'0:09.353',-0.680,-0.420
'0:09.356',-0.670,-0.415
'0:09.358',-0.665,-0.415
'0:09.361',-0.660,-0.410
'0:09.364',-0.650,-0.400
'0:09.367',-0.645,-0.380
'0:09.369',-0.625,-0.370
'0:09.372',-0.615,-0.365
'0:09.375',-0.605,-0.360
'0:09.378',-0.615,-0.360
'0:09.381',-0.610,-0.360
'0:09.383',-0.610,-0.360
'0:09.386',-0.620,-0.370
'0:09.389',-0.605,-0.365
'0:09.392',-0.615,-0.375
'0:09.394',-0.615,-0.365
'0:09.397',-0.605,-0.370
'0:09.400',-0.600,-0.355
'0:09.403',-0.595,-0.345
'0:09.406',-0.585,-0.335
'0:09.408',-0.580,-0.340
'0:09.411',-0.565,-0.325
'0:09.414',-0.570,-0.335
'0:09.417',-0.575,-0.340
'0:09.419',-0.580,-0.350
'0:09.422',-0.585,-0.355
'0:09.425',-0.585,-0.355
'0:09.428',-0.585,-0.355
'0:09.431',-0.565,-0.365
'0:09.433',-0.550,-0.345
'0:09.436',-0.550,-0.335
'0:09.439',-0.550,-0.330
'0:09.442',-0.525,-0.315
'0:09.444',-0.535,-0.335
'0:09.447',-0.540,-0.330
'0:09.450',-0.545,-0.355
'0:09.453',-0.560,-0.365
'0:09.456',-0.560,-0.360
'0:09.458',-0.585,-0.365
'0:09.461',-0.590,-0.365
'0:09.464',-0.600,-0.350
'0:09.467',-0.595,-0.365
'0:09.469',-0.590,-0.350
'0:09.472',-0.595,-0.345
'0:09.475',-0.595,-0.345
'0:09.478',-0.595,-0.360
'0:09.481',-0.595,-0.360
'0:09.483',-0.605,-0.385
'0:09.486',-0.605,-0.395
'0:09.489',-0.620,-0.395
'0:09.492',-0.640,-0.415
'0:09.494',-0.645,-0.405
'0:09.497',-0.645,-0.410
'0:09.500',-0.635,-0.400
'0:09.503',-0.635,-0.400
'0:09.506',-0.630,-0.395
'0:09.508',-0.625,-0.385
'0:09.511',-0.625,-0.385
'0:09.514',-0.630,-0.390
'0:09.517',-0.620,-0.395
'0:09.519',-0.635,-0.420
'0:09.522',-0.630,-0.420
'0:09.525',-0.635,-0.425
'0:09.528',-0.635,-0.415
'0:09.531',-0.630,-0.425
'0:09.533',-0.620,-0.410
'0:09.536',-0.615,-0.400
'0:09.539',-0.620,-0.390
'0:09.542',-0.620,-0.365
'0:09.544',-0.595,-0.365
'0:09.547',-0.585,-0.355
'0:09.550',-0.590,-0.360
'0:09.553',-0.605,-0.355
'0:09.556',-0.595,-0.360
'0:09.558',-0.600,-0.360
'0:09.561',-0.625,-0.345
'0:09.564',-0.660,-0.335
'0:09.567',-0.680,-0.335
'0:09.569',-0.675,-0.325
'0:09.572',-0.660,-0.305
'0:09.575',-0.580,-0.250
'0:09.578',-0.445,-0.200
'0:09.581',-0.245,-0.115
'0:09.583',-0.005,-0.020
'0:09.586',0.270,0.075
'0:09.589',0.590,0.150
'0:09.592',0.900,0.225
'0:09.594',1.210,0.320
'0:09.597',1.460,0.410
'0:09.600',1.625,0.510
'0:09.603',1.695,0.620
'0:09.606',1.685,0.735
'0:09.608',1.630,0.780
'0:09.611',1.500,0.710
'0:09.614',1.235,0.485
'0:09.617',0.815,0.105
'0:09.619',0.270,-0.365
'0:09.622',-0.240,-0.840
'0:09.625',-0.600,-1.210
'0:09.628',-0.780,-1.395
'0:09.631',-0.820,-1.375
'0:09.633',-0.760,-1.230
'0:09.636',-0.685,-1.035
'0:09.639',-0.640,-0.855
'0:09.642',-0.600,-0.730
'0:09.644',-0.595,-0.660
'0:09.647',-0.615,-0.620
'0:09.650',-0.660,-0.585
'0:09.653',-0.690,-0.575
'0:09.656',-0.715,-0.560
'0:09.658',-0.710,-0.540
'0:09.661',-0.710,-0.495
'0:09.664',-0.715,-0.475
'0:09.667',-0.725,-0.450
'0:09.669',-0.745,-0.435
'0:09.672',-0.755,-0.430
'0:09.675',-0.770,-0.425
'0:09.678',-0.775,-0.430
'0:09.681',-0.790,-0.445
'0:09.683',-0.800,-0.440
'0:09.686',-0.810,-0.450
'0:09.689',-0.820,-0.465
'0:09.692',-0.840,-0.460
'0:09.694',-0.845,-0.450
'0:09.697',-0.840,-0.445
'0:09.700',-0.850,-0.425
'0:09.703',-0.845,-0.425
'0:09.706',-0.835,-0.420
'0:09.708',-0.835,-0.405
'0:09.711',-0.855,-0.430
'0:09.714',-0.870,-0.430
'0:09.717',-0.885,-0.430
'0:09.719',-0.895,-0.445
'0:09.722',-0.910,-0.460
'0:09.725',-0.920,-0.470
'0:09.728',-0.935,-0.465
'0:09.731',-0.935,-0.455
'0:09.733',-0.935,-0.455
'0:09.736',-0.955,-0.450
'0:09.739',-0.940,-0.435
'0:09.742',-0.940,-0.425
'0:09.744',-0.945,-0.440
'0:09.747',-0.955,-0.435
'0:09.750',-0.965,-0.440
'0:09.753',-0.965,-0.450
'0:09.756',-0.945,-0.440
'0:09.758',-0.950,-0.440
'0:09.761',-0.950,-0.425
'0:09.764',-0.950,-0.410
'0:09.767',-0.945,-0.410
'0:09.769',-0.930,-0.390
'0:09.772',-0.925,-0.395
'0:09.775',-0.925,-0.390
'0:09.778',-0.920,-0.405
'0:09.781',-0.915,-0.405
'0:09.783',-0.930,-0.415
'0:09.786',-0.930,-0.430
'0:09.789',-0.955,-0.440
'0:09.792',-0.960,-0.450
'0:09.794',-0.975,-0.450
'0:09.797',-0.975,-0.465
'0:09.800',-0.970,-0.470
'0:09.803',-0.980,-0.480
'0:09.806',-0.995,-0.480
'0:09.808',-0.995,-0.490
'0:09.811',-1.015,-0.520
'0:09.814',-1.035,-0.525
'0:09.817',-1.060,-0.550
'0:09.819',-1.095,-0.575
'0:09.822',-1.115,-0.600
'0:09.825',-1.130,-0.620
'0:09.828',-1.160,-0.635
'0:09.831',-1.170,-0.645
'0:09.833',-1.185,-0.655
'0:09.836',-1.200,-0.675
'0:09.839',-1.190,-0.680
'0:09.842',-1.210,-0.685
'0:09.844',-1.230,-0.715
'0:09.847',-1.250,-0.735
'0:09.850',-1.265,-0.755
'0:09.853',-1.290,-0.775
'0:09.856',-1.310,-0.785
'0:09.858',-1.310,-0.795
'0:09.861',-1.310,-0.790
'0:09.864',-1.290,-0.800
'0:09.867',-1.270,-0.785
'0:09.869',-1.225,-0.775
'0:09.872',-1.200,-0.775
'0:09.875',-1.165,-0.750
'0:09.878',-1.140,-0.750
'0:09.881',-1.105,-0.735
'0:09.883',-1.075,-0.735
'0:09.886',-1.050,-0.720
'0:09.889',-1.025,-0.710
'0:09.892',-0.990,-0.695
'0:09.894',-0.970,-0.670
'0:09.897',-0.935,-0.640
'0:09.900',-0.910,-0.615
'0:09.903',-0.855,-0.585
'0:09.906',-0.830,-0.560
'0:09.908',-0.805,-0.550
'0:09.911',-0.785,-0.540
'0:09.914',-0.770,-0.530
'0:09.917',-0.775,-0.525
'0:09.919',-0.765,-0.520
'0:09.922',-0.760,-0.520
'0:09.925',-0.750,-0.510
'0:09.928',-0.740,-0.495
'0:09.931',-0.720,-0.505
'0:09.933',-0.705,-0.485
'0:09.936',-0.680,-0.485
'0:09.939',-0.675,-0.470
'0:09.942',-0.665,-0.460
'0:09.944',-0.660,-0.455
'0:09.947',-0.650,-0.450
'0:09.950',-0.645,-0.460
'0:09.953',-0.630,-0.460
'0:09.956',-0.635,-0.455
'0:09.958',-0.635,-0.470
'0:09.961',-0.645,-0.455
'0:09.964',-0.620,-0.465
'0:09.967',-0.620,-0.450
'0:09.969',-0.610,-0.445
'0:09.972',-0.605,-0.440
'0:09.975',-0.595,-0.435
'0:09.978',-0.595,-0.440
'0:09.981',-0.600,-0.445
'0:09.983',-0.615,-0.440
'0:09.986',-0.635,-0.460
'0:09.989',-0.625,-0.470
'0:09.992',-0.635,-0.460
'0:09.994',-0.645,-0.465
'0:09.997',-0.635,-0.455
