'Elapsed time','MLII','V1'
'hh:mm:ss.mmm','mV','mV'
'0:00.000',-0.285,0.050
'0:00.003',-0.285,0.050
'0:00.006',-0.285,0.050
'0:00.008',-0.285,0.050
'0:00.011',-0.285,0.050
'0:00.014',-0.285,0.050
'0:00.017',-0.285,0.050
'0:00.019',-0.285,0.050
'0:00.022',-0.290,0.050
'0:00.025',-0.280,0.050
'0:00.028',-0.300,0.055
'0:00.031',-0.305,0.035
'0:00.033',-0.320,0.015
'0:00.036',-0.325,0.035
'0:00.039',-0.315,0.055
'0:00.042',-0.285,0.075
'0:00.044',-0.285,0.065
'0:00.047',-0.310,0.050
'0:00.050',-0.320,0.035
'0:00.053',-0.340,0.050
'0:00.056',-0.325,0.075
'0:00.058',-0.310,0.080
'0:00.061',-0.315,0.080
'0:00.064',-0.325,0.070
'0:00.067',-0.335,0.065
'0:00.069',-0.335,0.065
'0:00.072',-0.305,0.085
'0:00.075',-0.305,0.095
'0:00.078',-0.305,0.085
'0:00.081',-0.310,0.080
'0:00.083',-0.325,0.070
'0:00.086',-0.325,0.075
'0:00.089',-0.320,0.085
'0:00.092',-0.310,0.090
'0:00.094',-0.295,0.085
'0:00.097',-0.305,0.080
'0:00.100',-0.315,0.060
'0:00.103',-0.330,0.070
'0:00.106',-0.335,0.080
'0:00.108',-0.295,0.100
'0:00.111',-0.300,0.085
'0:00.114',-0.320,0.065
'0:00.117',-0.330,0.055
'0:00.119',-0.345,0.060
'0:00.122',-0.340,0.080
'0:00.125',-0.335,0.090
'0:00.128',-0.325,0.070
'0:00.131',-0.335,0.055
'0:00.133',-0.340,0.040
'0:00.136',-0.355,0.045
'0:00.139',-0.330,0.050
'0:00.142',-0.315,0.050
'0:00.144',-0.305,0.050
'0:00.147',-0.305,0.040
'0:00.150',-0.330,0.025
'0:00.153',-0.325,0.020
'0:00.156',-0.310,0.030
'0:00.158',-0.300,0.045
'0:00.161',-0.290,0.035
'0:00.164',-0.310,0.025
'0:00.167',-0.320,-0.005
'0:00.169',-0.325,0.010
'0:00.172',-0.320,0.020
'0:00.175',-0.290,0.030
'0:00.178',-0.290,0.020
'0:00.181',-0.295,0.005
'0:00.183',-0.330,-0.010
'0:00.186',-0.315,-0.010
'0:00.189',-0.290,0.000
'0:00.192',-0.270,0.005
'0:00.194',-0.270,-0.020
'0:00.197',-0.280,-0.030
'0:00.200',-0.290,-0.050
'0:00.203',-0.295,-0.055
'0:00.206',-0.275,-0.060
'0:00.208',-0.265,-0.045
'0:00.211',-0.255,-0.050
'0:00.214',-0.260,-0.065
'0:00.217',-0.270,-0.085
'0:00.219',-0.275,-0.100
'0:00.222',-0.275,-0.100
'0:00.225',-0.235,-0.075
'0:00.228',-0.235,-0.085
'0:00.231',-0.235,-0.095
'0:00.233',-0.250,-0.105
'0:00.236',-0.240,-0.105
'0:00.239',-0.225,-0.105
'0:00.242',-0.210,-0.115
'0:00.244',-0.200,-0.110
'0:00.247',-0.200,-0.125
'0:00.250',-0.195,-0.135
'0:00.253',-0.200,-0.145
'0:00.256',-0.175,-0.145
'0:00.258',-0.160,-0.125
'0:00.261',-0.155,-0.125
'0:00.264',-0.175,-0.135
'0:00.267',-0.150,-0.130
'0:00.269',-0.160,-0.130
'0:00.272',-0.140,-0.110
'0:00.275',-0.120,-0.105
'0:00.278',-0.110,-0.115
'0:00.281',-0.120,-0.115
'0:00.283',-0.140,-0.110
'0:00.286',-0.140,-0.100
'0:00.289',-0.125,-0.055
'0:00.292',-0.110,-0.035
'0:00.294',-0.120,-0.020
'0:00.297',-0.140,-0.025
'0:00.300',-0.150,-0.005
'0:00.303',-0.155,0.010
'0:00.306',-0.145,0.040
'0:00.308',-0.140,0.070
'0:00.311',-0.140,0.080
'0:00.314',-0.185,0.080
'0:00.317',-0.185,0.080
'0:00.319',-0.200,0.095
'0:00.322',-0.185,0.095
'0:00.325',-0.170,0.110
'0:00.328',-0.175,0.100
'0:00.331',-0.210,0.080
'0:00.333',-0.220,0.065
'0:00.336',-0.230,0.075
'0:00.339',-0.215,0.085
'0:00.342',-0.200,0.100
'0:00.344',-0.210,0.085
'0:00.347',-0.225,0.070
'0:00.350',-0.245,0.065
'0:00.353',-0.225,0.070
'0:00.356',-0.230,0.090
'0:00.358',-0.220,0.110
'0:00.361',-0.215,0.095
'0:00.364',-0.225,0.080
'0:00.367',-0.245,0.065
'0:00.369',-0.245,0.080
'0:00.372',-0.215,0.075
'0:00.375',-0.210,0.095
'0:00.378',-0.210,0.085
'0:00.381',-0.210,0.090
'0:00.383',-0.225,0.085
'0:00.386',-0.220,0.090
'0:00.389',-0.215,0.105
'0:00.392',-0.210,0.110
'0:00.394',-0.210,0.085
'0:00.397',-0.215,0.090
'0:00.400',-0.230,0.075
'0:00.403',-0.225,0.080
'0:00.406',-0.220,0.090
'0:00.408',-0.205,0.100
'0:00.411',-0.200,0.100
'0:00.414',-0.210,0.085
'0:00.417',-0.210,0.075
'0:00.419',-0.215,0.080
'0:00.422',-0.210,0.090
'0:00.425',-0.175,0.105
'0:00.428',-0.170,0.080
'0:00.431',-0.175,0.060
'0:00.433',-0.205,0.075
'0:00.436',-0.215,0.075
'0:00.439',-0.210,0.075
'0:00.442',-0.180,0.070
'0:00.444',-0.175,0.055
'0:00.447',-0.180,0.050
'0:00.450',-0.195,0.045
'0:00.453',-0.190,0.055
'0:00.456',-0.205,0.055
'0:00.458',-0.190,0.050
'0:00.461',-0.205,0.030
'0:00.464',-0.195,0.015
'0:00.467',-0.195,0.005
'0:00.469',-0.200,0.005
'0:00.472',-0.195,0.010
'0:00.475',-0.185,0.030
'0:00.478',-0.185,0.025
'0:00.481',-0.190,0.030
'0:00.483',-0.205,0.015
'0:00.486',-0.205,0.030
'0:00.489',-0.205,0.040
'0:00.492',-0.190,0.050
'0:00.494',-0.200,0.045
'0:00.497',-0.215,0.035
'0:00.500',-0.225,0.020
'0:00.503',-0.235,0.045
'0:00.506',-0.225,0.065
'0:00.508',-0.215,0.080
'0:00.511',-0.205,0.070
'0:00.514',-0.200,0.045
'0:00.517',-0.210,0.035
'0:00.519',-0.210,0.045
'0:00.522',-0.205,0.070
'0:00.525',-0.210,0.090
'0:00.528',-0.200,0.085
'0:00.531',-0.215,0.080
'0:00.533',-0.220,0.060
'0:00.536',-0.225,0.065
'0:00.539',-0.215,0.070
'0:00.542',-0.225,0.090
'0:00.544',-0.205,0.085
'0:00.547',-0.220,0.070
'0:00.550',-0.220,0.070
'0:00.553',-0.230,0.080
'0:00.556',-0.220,0.110
'0:00.558',-0.210,0.120
'0:00.561',-0.200,0.120
'0:00.564',-0.215,0.110
'0:00.567',-0.215,0.105
'0:00.569',-0.210,0.120
'0:00.572',-0.190,0.125
'0:00.575',-0.185,0.135
'0:00.578',-0.170,0.115
'0:00.581',-0.150,0.090
'0:00.583',-0.110,0.055
'0:00.586',-0.045,0.030
'0:00.589',0.035,0.020
'0:00.592',0.150,0.030
'0:00.594',0.295,0.025
'0:00.597',0.445,-0.005
'0:00.600',0.640,-0.055
'0:00.603',0.855,-0.085
'0:00.606',1.080,-0.105
'0:00.608',1.280,-0.095
'0:00.611',1.415,-0.050
'0:00.614',1.445,0.025
'0:00.617',1.355,0.085
'0:00.619',1.130,0.090
'0:00.622',0.815,0.110
'0:00.625',0.480,0.150
'0:00.628',0.130,0.210
'0:00.631',-0.190,0.260
'0:00.633',-0.395,0.260
'0:00.636',-0.415,0.245
'0:00.639',-0.360,0.215
'0:00.642',-0.285,0.175
'0:00.644',-0.255,0.115
'0:00.647',-0.265,0.075
'0:00.650',-0.285,0.045
'0:00.653',-0.290,0.060
'0:00.656',-0.265,0.070
'0:00.658',-0.250,0.090
'0:00.661',-0.290,0.095
'0:00.664',-0.285,0.085
'0:00.667',-0.310,0.085
'0:00.669',-0.315,0.100
'0:00.672',-0.305,0.115
'0:00.675',-0.295,0.110
'0:00.678',-0.325,0.080
'0:00.681',-0.320,0.085
'0:00.683',-0.335,0.075
'0:00.686',-0.335,0.085
'0:00.689',-0.325,0.095
'0:00.692',-0.315,0.105
'0:00.694',-0.325,0.090
'0:00.697',-0.335,0.095
'0:00.700',-0.360,0.090
'0:00.703',-0.375,0.110
'0:00.706',-0.370,0.110
'0:00.708',-0.325,0.130
'0:00.711',-0.315,0.120
'0:00.714',-0.320,0.095
'0:00.717',-0.320,0.075
'0:00.719',-0.335,0.075
'0:00.722',-0.345,0.085
'0:00.725',-0.310,0.100
'0:00.728',-0.315,0.095
'0:00.731',-0.320,0.080
'0:00.733',-0.320,0.065
'0:00.736',-0.345,0.075
'0:00.739',-0.330,0.100
'0:00.742',-0.320,0.105
'0:00.744',-0.310,0.100
'0:00.747',-0.320,0.070
'0:00.750',-0.335,0.070
'0:00.753',-0.325,0.065
'0:00.756',-0.315,0.065
'0:00.758',-0.295,0.085
'0:00.761',-0.300,0.075
'0:00.764',-0.300,0.070
'0:00.767',-0.305,0.045
'0:00.769',-0.280,0.040
'0:00.772',-0.270,0.060
'0:00.775',-0.265,0.075
'0:00.778',-0.270,0.060
'0:00.781',-0.270,0.050
'0:00.783',-0.280,0.020
'0:00.786',-0.275,0.025
'0:00.789',-0.250,0.030
'0:00.792',-0.240,0.035
'0:00.794',-0.225,0.020
'0:00.797',-0.240,0.005
'0:00.800',-0.240,0.000
'0:00.803',-0.245,-0.005
'0:00.806',-0.240,0.010
'0:00.808',-0.220,0.010
'0:00.811',-0.215,-0.005
'0:00.814',-0.230,-0.010
'0:00.817',-0.235,-0.045
'0:00.819',-0.240,-0.030
'0:00.822',-0.215,-0.040
'0:00.825',-0.210,-0.030
'0:00.828',-0.190,-0.035
'0:00.831',-0.190,-0.060
'0:00.833',-0.200,-0.085
'0:00.836',-0.185,-0.075
'0:00.839',-0.185,-0.070
'0:00.842',-0.160,-0.060
'0:00.844',-0.160,-0.065
'0:00.847',-0.150,-0.090
'0:00.850',-0.175,-0.095
'0:00.853',-0.155,-0.095
'0:00.856',-0.140,-0.090
'0:00.858',-0.115,-0.075
'0:00.861',-0.110,-0.075
'0:00.864',-0.120,-0.095
'0:00.867',-0.115,-0.100
'0:00.869',-0.105,-0.105
'0:00.872',-0.090,-0.085
'0:00.875',-0.075,-0.080
'0:00.878',-0.075,-0.075
'0:00.881',-0.095,-0.100
'0:00.883',-0.120,-0.090
'0:00.886',-0.120,-0.085
'0:00.889',-0.105,-0.045
'0:00.892',-0.105,-0.050
'0:00.894',-0.115,-0.045
'0:00.897',-0.120,-0.060
'0:00.900',-0.145,-0.060
'0:00.903',-0.145,-0.025
'0:00.906',-0.145,0.000
'0:00.908',-0.145,0.025
'0:00.911',-0.170,0.030
'0:00.914',-0.185,0.015
'0:00.917',-0.215,0.030
'0:00.919',-0.215,0.040
'0:00.922',-0.215,0.075
'0:00.925',-0.195,0.085
'0:00.928',-0.190,0.095
'0:00.931',-0.230,0.100
'0:00.933',-0.240,0.095
'0:00.936',-0.220,0.110
'0:00.939',-0.225,0.130
'0:00.942',-0.230,0.130
'0:00.944',-0.215,0.125
'0:00.947',-0.230,0.110
'0:00.950',-0.245,0.110
'0:00.953',-0.255,0.120
'0:00.956',-0.260,0.140
'0:00.958',-0.245,0.150
'0:00.961',-0.225,0.145
'0:00.964',-0.240,0.135
'0:00.967',-0.250,0.120
'0:00.969',-0.260,0.125
'0:00.972',-0.245,0.135
'0:00.975',-0.215,0.135
'0:00.978',-0.215,0.125
'0:00.981',-0.210,0.110
'0:00.983',-0.225,0.100
'0:00.986',-0.225,0.120
'0:00.989',-0.215,0.140
'0:00.992',-0.205,0.150
'0:00.994',-0.200,0.120
'0:00.997',-0.220,0.110
'0:01.000',-0.225,0.095
'0:01.003',-0.220,0.110
'0:01.006',-0.225,0.125
'0:01.008',-0.220,0.135
'0:01.011',-0.200,0.115
'0:01.014',-0.205,0.100
'0:01.017',-0.215,0.100
'0:01.019',-0.225,0.105
'0:01.022',-0.215,0.105
'0:01.025',-0.200,0.120
'0:01.028',-0.215,0.110
'0:01.031',-0.230,0.080
'0:01.033',-0.260,0.065
'0:01.036',-0.260,0.075
'0:01.039',-0.225,0.085
'0:01.042',-0.225,0.095
'0:01.044',-0.220,0.085
'0:01.047',-0.230,0.075
'0:01.050',-0.230,0.060
'0:01.053',-0.230,0.075
'0:01.056',-0.220,0.090
'0:01.058',-0.210,0.100
'0:01.061',-0.210,0.100
'0:01.064',-0.230,0.080
'0:01.067',-0.230,0.065
'0:01.069',-0.235,0.075
'0:01.072',-0.220,0.085
'0:01.075',-0.195,0.105
'0:01.078',-0.185,0.095
'0:01.081',-0.200,0.095
'0:01.083',-0.225,0.100
'0:01.086',-0.210,0.090
'0:01.089',-0.215,0.090
'0:01.092',-0.185,0.090
'0:01.094',-0.160,0.095
'0:01.097',-0.175,0.080
'0:01.100',-0.200,0.090
'0:01.103',-0.195,0.110
'0:01.106',-0.185,0.110
'0:01.108',-0.165,0.115
'0:01.111',-0.180,0.105
'0:01.114',-0.175,0.085
'0:01.117',-0.175,0.080
'0:01.119',-0.185,0.105
'0:01.122',-0.175,0.115
'0:01.125',-0.175,0.115
'0:01.128',-0.175,0.105
'0:01.131',-0.185,0.090
'0:01.133',-0.205,0.075
'0:01.136',-0.200,0.085
'0:01.139',-0.200,0.105
'0:01.142',-0.200,0.120
'0:01.144',-0.185,0.105
'0:01.147',-0.190,0.090
'0:01.150',-0.210,0.075
'0:01.153',-0.210,0.090
'0:01.156',-0.195,0.100
'0:01.158',-0.185,0.115
'0:01.161',-0.175,0.095
'0:01.164',-0.195,0.080
'0:01.167',-0.220,0.085
'0:01.169',-0.200,0.080
'0:01.172',-0.215,0.100
'0:01.175',-0.180,0.095
'0:01.178',-0.180,0.085
'0:01.181',-0.205,0.090
'0:01.183',-0.205,0.085
'0:01.186',-0.210,0.080
'0:01.189',-0.185,0.095
'0:01.192',-0.165,0.110
'0:01.194',-0.145,0.090
'0:01.197',-0.125,0.060
'0:01.200',-0.100,0.045
'0:01.203',-0.040,0.050
'0:01.206',0.050,0.050
'0:01.208',0.165,0.060
'0:01.211',0.290,0.045
'0:01.214',0.440,0.020
'0:01.217',0.610,-0.020
'0:01.219',0.810,-0.070
'0:01.222',1.030,-0.100
'0:01.225',1.235,-0.080
'0:01.228',1.375,-0.070
'0:01.231',1.435,0.005
'0:01.233',1.380,0.070
'0:01.236',1.185,0.110
'0:01.239',0.915,0.130
'0:01.242',0.615,0.165
'0:01.244',0.300,0.205
'0:01.247',-0.015,0.225
'0:01.250',-0.235,0.240
'0:01.253',-0.325,0.240
'0:01.256',-0.305,0.245
'0:01.258',-0.235,0.205
'0:01.261',-0.200,0.150
'0:01.264',-0.190,0.110
'0:01.267',-0.185,0.095
'0:01.269',-0.190,0.100
'0:01.272',-0.190,0.105
'0:01.275',-0.200,0.105
'0:01.278',-0.205,0.110
'0:01.281',-0.225,0.110
'0:01.283',-0.280,0.090
'0:01.286',-0.250,0.085
'0:01.289',-0.255,0.100
'0:01.292',-0.245,0.105
'0:01.294',-0.260,0.115
'0:01.297',-0.280,0.090
'0:01.300',-0.295,0.070
'0:01.303',-0.295,0.080
'0:01.306',-0.285,0.100
'0:01.308',-0.280,0.100
'0:01.311',-0.260,0.105
'0:01.314',-0.285,0.075
'0:01.317',-0.300,0.080
'0:01.319',-0.305,0.095
'0:01.322',-0.290,0.105
'0:01.325',-0.270,0.095
'0:01.328',-0.270,0.085
'0:01.331',-0.280,0.080
'0:01.333',-0.300,0.075
'0:01.336',-0.310,0.075
'0:01.339',-0.300,0.070
'0:01.342',-0.270,0.080
'0:01.344',-0.270,0.075
'0:01.347',-0.285,0.070
'0:01.350',-0.295,0.070
'0:01.353',-0.295,0.070
'0:01.356',-0.280,0.080
'0:01.358',-0.260,0.080
'0:01.361',-0.260,0.075
'0:01.364',-0.260,0.065
'0:01.367',-0.270,0.060
'0:01.369',-0.275,0.075
'0:01.372',-0.265,0.085
'0:01.375',-0.245,0.095
'0:01.378',-0.235,0.080
'0:01.381',-0.255,0.080
'0:01.383',-0.255,0.070
'0:01.386',-0.255,0.090
'0:01.389',-0.225,0.085
'0:01.392',-0.200,0.105
'0:01.394',-0.200,0.100
'0:01.397',-0.205,0.085
'0:01.400',-0.220,0.085
'0:01.403',-0.220,0.080
'0:01.406',-0.210,0.095
'0:01.408',-0.215,0.090
'0:01.411',-0.210,0.095
'0:01.414',-0.180,0.075
'0:01.417',-0.200,0.055
'0:01.419',-0.205,0.045
'0:01.422',-0.195,0.055
'0:01.425',-0.175,0.070
'0:01.428',-0.165,0.050
'0:01.431',-0.180,0.035
'0:01.433',-0.165,0.025
'0:01.436',-0.160,0.020
'0:01.439',-0.145,0.030
'0:01.442',-0.155,0.025
'0:01.444',-0.145,0.010
'0:01.447',-0.145,-0.020
'0:01.450',-0.160,-0.030
'0:01.453',-0.150,-0.035
'0:01.456',-0.150,-0.040
'0:01.458',-0.140,-0.040
'0:01.461',-0.130,-0.040
'0:01.464',-0.155,-0.055
'0:01.467',-0.155,-0.070
'0:01.469',-0.130,-0.075
'0:01.472',-0.120,-0.070
'0:01.475',-0.095,-0.060
'0:01.478',-0.100,-0.060
'0:01.481',-0.105,-0.100
'0:01.483',-0.110,-0.110
'0:01.486',-0.120,-0.105
'0:01.489',-0.100,-0.110
'0:01.492',-0.060,-0.090
'0:01.494',-0.055,-0.105
'0:01.497',-0.055,-0.100
'0:01.500',-0.060,-0.105
'0:01.503',-0.055,-0.095
'0:01.506',-0.040,-0.065
'0:01.508',-0.020,-0.050
'0:01.511',-0.015,-0.055
'0:01.514',-0.025,-0.050
'0:01.517',-0.040,-0.040
'0:01.519',-0.055,-0.035
'0:01.522',-0.040,0.000
'0:01.525',-0.020,0.005
'0:01.528',-0.040,0.010
'0:01.531',-0.040,0.000
'0:01.533',-0.050,0.010
'0:01.536',-0.070,0.045
'0:01.539',-0.060,0.070
'0:01.542',-0.065,0.075
'0:01.544',-0.070,0.075
'0:01.547',-0.085,0.065
'0:01.550',-0.105,0.065
'0:01.553',-0.120,0.085
'0:01.556',-0.125,0.120
'0:01.558',-0.115,0.140
'0:01.561',-0.135,0.145
'0:01.564',-0.165,0.135
'0:01.567',-0.190,0.130
'0:01.569',-0.190,0.135
'0:01.572',-0.170,0.140
'0:01.575',-0.165,0.140
'0:01.578',-0.180,0.140
'0:01.581',-0.200,0.110
'0:01.583',-0.210,0.115
'0:01.586',-0.225,0.110
'0:01.589',-0.210,0.120
'0:01.592',-0.175,0.145
'0:01.594',-0.180,0.135
'0:01.597',-0.200,0.115
'0:01.600',-0.205,0.115
'0:01.603',-0.180,0.135
'0:01.606',-0.130,0.140
'0:01.608',-0.105,0.140
'0:01.611',-0.080,0.145
'0:01.614',-0.065,0.140
'0:01.617',-0.060,0.140
'0:01.619',-0.030,0.170
'0:01.622',0.005,0.185
'0:01.625',0.045,0.190
'0:01.628',0.085,0.190
'0:01.631',0.140,0.165
'0:01.633',0.205,0.135
'0:01.636',0.270,0.075
'0:01.639',0.340,-0.005
'0:01.642',0.415,-0.060
'0:01.644',0.500,-0.125
'0:01.647',0.575,-0.210
'0:01.650',0.640,-0.285
'0:01.653',0.710,-0.375
'0:01.656',0.790,-0.450
'0:01.658',0.885,-0.550
'0:01.661',0.975,-0.675
'0:01.664',1.060,-0.790
'0:01.667',1.130,-0.875
'0:01.669',1.180,-0.940
'0:01.672',1.220,-0.980
'0:01.675',1.215,-0.995
'0:01.678',1.195,-1.015
'0:01.681',1.150,-1.040
'0:01.683',1.105,-1.070
'0:01.686',1.030,-1.085
'0:01.689',0.970,-1.075
'0:01.692',0.880,-1.065
'0:01.694',0.755,-1.060
'0:01.697',0.610,-1.050
'0:01.700',0.470,-0.995
'0:01.703',0.370,-0.930
'0:01.706',0.275,-0.850
'0:01.708',0.220,-0.760
'0:01.711',0.170,-0.700
'0:01.714',0.135,-0.620
'0:01.717',0.120,-0.565
'0:01.719',0.105,-0.480
'0:01.722',0.090,-0.415
'0:01.725',0.115,-0.350
'0:01.728',0.145,-0.285
'0:01.731',0.190,-0.235
'0:01.733',0.250,-0.195
'0:01.736',0.340,-0.145
'0:01.739',0.370,-0.105
'0:01.742',0.335,-0.065
'0:01.744',0.185,-0.035
'0:01.747',-0.020,0.015
'0:01.750',-0.220,0.050
'0:01.753',-0.320,0.145
'0:01.756',-0.370,0.225
'0:01.758',-0.390,0.285
'0:01.761',-0.425,0.325
'0:01.764',-0.445,0.335
'0:01.767',-0.500,0.335
'0:01.769',-0.515,0.355
'0:01.772',-0.505,0.375
'0:01.775',-0.505,0.400
'0:01.778',-0.535,0.400
'0:01.781',-0.575,0.400
'0:01.783',-0.605,0.400
'0:01.786',-0.605,0.435
'0:01.789',-0.590,0.450
'0:01.792',-0.585,0.470
'0:01.794',-0.615,0.445
'0:01.797',-0.630,0.430
'0:01.800',-0.655,0.450
'0:01.803',-0.665,0.455
'0:01.806',-0.650,0.480
'0:01.808',-0.630,0.485
'0:01.811',-0.645,0.480
'0:01.814',-0.665,0.470
'0:01.817',-0.670,0.470
'0:01.819',-0.700,0.495
'0:01.822',-0.670,0.525
'0:01.825',-0.675,0.540
'0:01.828',-0.680,0.550
'0:01.831',-0.685,0.540
'0:01.833',-0.700,0.540
'0:01.836',-0.690,0.565
'0:01.839',-0.710,0.585
'0:01.842',-0.705,0.625
'0:01.844',-0.705,0.625
'0:01.847',-0.715,0.630
'0:01.850',-0.715,0.625
'0:01.853',-0.720,0.650
'0:01.856',-0.715,0.660
'0:01.858',-0.705,0.685
'0:01.861',-0.690,0.690
'0:01.864',-0.710,0.695
'0:01.867',-0.725,0.700
'0:01.869',-0.725,0.735
'0:01.872',-0.715,0.770
'0:01.875',-0.700,0.795
'0:01.878',-0.695,0.790
'0:01.881',-0.730,0.795
'0:01.883',-0.740,0.795
'0:01.886',-0.715,0.810
'0:01.889',-0.685,0.830
'0:01.892',-0.660,0.840
'0:01.894',-0.650,0.830
'0:01.897',-0.650,0.815
'0:01.900',-0.670,0.810
'0:01.903',-0.645,0.835
'0:01.906',-0.630,0.845
'0:01.908',-0.605,0.845
'0:01.911',-0.595,0.835
'0:01.914',-0.600,0.815
'0:01.917',-0.630,0.780
'0:01.919',-0.605,0.790
'0:01.922',-0.570,0.790
'0:01.925',-0.535,0.785
'0:01.928',-0.520,0.750
'0:01.931',-0.515,0.710
'0:01.933',-0.525,0.680
'0:01.936',-0.505,0.680
'0:01.939',-0.475,0.665
'0:01.942',-0.440,0.650
'0:01.944',-0.430,0.620
'0:01.947',-0.420,0.585
'0:01.950',-0.430,0.555
'0:01.953',-0.410,0.535
'0:01.956',-0.385,0.535
'0:01.958',-0.355,0.510
'0:01.961',-0.340,0.465
'0:01.964',-0.340,0.425
'0:01.967',-0.355,0.415
'0:01.969',-0.340,0.390
'0:01.972',-0.320,0.385
'0:01.975',-0.310,0.370
'0:01.978',-0.295,0.340
'0:01.981',-0.285,0.310
'0:01.983',-0.315,0.295
'0:01.986',-0.305,0.290
'0:01.989',-0.305,0.295
'0:01.992',-0.275,0.290
'0:01.994',-0.285,0.275
'0:01.997',-0.280,0.235
'0:02.000',-0.290,0.205
'0:02.003',-0.285,0.170
'0:02.006',-0.275,0.170
'0:02.008',-0.235,0.160
'0:02.011',-0.245,0.155
'0:02.014',-0.255,0.155
'0:02.017',-0.280,0.140
'0:02.019',-0.280,0.135
'0:02.022',-0.285,0.155
'0:02.025',-0.260,0.155
'0:02.028',-0.260,0.130
'0:02.031',-0.260,0.125
'0:02.033',-0.255,0.130
'0:02.036',-0.250,0.125
'0:02.039',-0.235,0.135
'0:02.042',-0.225,0.145
'0:02.044',-0.220,0.135
'0:02.047',-0.225,0.130
'0:02.050',-0.235,0.120
'0:02.053',-0.235,0.125
'0:02.056',-0.210,0.135
'0:02.058',-0.200,0.145
'0:02.061',-0.215,0.140
'0:02.064',-0.215,0.130
'0:02.067',-0.250,0.130
'0:02.069',-0.240,0.125
'0:02.072',-0.230,0.130
'0:02.075',-0.225,0.140
'0:02.078',-0.225,0.135
'0:02.081',-0.235,0.130
'0:02.083',-0.265,0.125
'0:02.086',-0.260,0.135
'0:02.089',-0.230,0.150
'0:02.092',-0.225,0.165
'0:02.094',-0.220,0.140
'0:02.097',-0.220,0.140
'0:02.100',-0.240,0.130
'0:02.103',-0.225,0.140
'0:02.106',-0.225,0.165
'0:02.108',-0.195,0.160
'0:02.111',-0.200,0.145
'0:02.114',-0.215,0.125
'0:02.117',-0.235,0.120
'0:02.119',-0.240,0.130
'0:02.122',-0.235,0.130
'0:02.125',-0.205,0.160
'0:02.128',-0.195,0.145
'0:02.131',-0.200,0.120
'0:02.133',-0.210,0.110
'0:02.136',-0.210,0.120
'0:02.139',-0.215,0.135
'0:02.142',-0.220,0.155
'0:02.144',-0.205,0.150
'0:02.147',-0.205,0.120
'0:02.150',-0.215,0.120
'0:02.153',-0.215,0.135
'0:02.156',-0.210,0.130
'0:02.158',-0.210,0.145
'0:02.161',-0.215,0.135
'0:02.164',-0.210,0.130
'0:02.167',-0.215,0.125
'0:02.169',-0.210,0.135
'0:02.172',-0.205,0.145
'0:02.175',-0.185,0.145
'0:02.178',-0.185,0.130
'0:02.181',-0.200,0.120
'0:02.183',-0.225,0.120
'0:02.186',-0.230,0.130
'0:02.189',-0.205,0.130
'0:02.192',-0.185,0.135
'0:02.194',-0.180,0.130
'0:02.197',-0.185,0.125
'0:02.200',-0.205,0.120
'0:02.203',-0.205,0.120
'0:02.206',-0.210,0.135
'0:02.208',-0.195,0.140
'0:02.211',-0.205,0.135
'0:02.214',-0.195,0.120
'0:02.217',-0.220,0.120
'0:02.219',-0.230,0.130
'0:02.222',-0.225,0.145
'0:02.225',-0.215,0.140
'0:02.228',-0.210,0.135
'0:02.231',-0.210,0.130
'0:02.233',-0.215,0.140
'0:02.236',-0.225,0.145
'0:02.239',-0.210,0.150
'0:02.242',-0.200,0.145
'0:02.244',-0.195,0.140
'0:02.247',-0.210,0.110
'0:02.250',-0.230,0.085
'0:02.253',-0.220,0.105
'0:02.256',-0.205,0.110
'0:02.258',-0.190,0.145
'0:02.261',-0.195,0.135
'0:02.264',-0.200,0.125
'0:02.267',-0.225,0.115
'0:02.269',-0.215,0.120
'0:02.272',-0.210,0.120
'0:02.275',-0.185,0.135
'0:02.278',-0.190,0.125
'0:02.281',-0.200,0.120
'0:02.283',-0.205,0.125
'0:02.286',-0.205,0.120
'0:02.289',-0.205,0.140
'0:02.292',-0.195,0.145
'0:02.294',-0.200,0.145
'0:02.297',-0.215,0.130
'0:02.300',-0.205,0.135
'0:02.303',-0.215,0.135
'0:02.306',-0.200,0.145
'0:02.308',-0.185,0.155
'0:02.311',-0.175,0.145
'0:02.314',-0.195,0.135
'0:02.317',-0.210,0.130
'0:02.319',-0.230,0.140
'0:02.322',-0.200,0.140
'0:02.325',-0.195,0.145
'0:02.328',-0.185,0.130
'0:02.331',-0.190,0.120
'0:02.333',-0.215,0.120
'0:02.336',-0.215,0.125
'0:02.339',-0.205,0.145
'0:02.342',-0.195,0.145
'0:02.344',-0.205,0.145
'0:02.347',-0.235,0.130
'0:02.350',-0.235,0.120
'0:02.353',-0.240,0.130
'0:02.356',-0.220,0.140
'0:02.358',-0.200,0.145
'0:02.361',-0.210,0.145
'0:02.364',-0.230,0.140
'0:02.367',-0.240,0.125
'0:02.369',-0.235,0.125
'0:02.372',-0.230,0.120
'0:02.375',-0.200,0.130
'0:02.378',-0.195,0.115
'0:02.381',-0.215,0.115
'0:02.383',-0.220,0.095
'0:02.386',-0.230,0.110
'0:02.389',-0.210,0.120
'0:02.392',-0.190,0.135
'0:02.394',-0.195,0.125
'0:02.397',-0.215,0.115
'0:02.400',-0.225,0.115
'0:02.403',-0.225,0.120
'0:02.406',-0.185,0.135
'0:02.408',-0.190,0.140
'0:02.411',-0.180,0.135
'0:02.414',-0.185,0.120
'0:02.417',-0.210,0.115
'0:02.419',-0.200,0.125
'0:02.422',-0.190,0.135
'0:02.425',-0.165,0.155
'0:02.428',-0.180,0.135
'0:02.431',-0.190,0.120
'0:02.433',-0.205,0.110
'0:02.436',-0.210,0.130
'0:02.439',-0.180,0.130
'0:02.442',-0.170,0.145
'0:02.444',-0.180,0.140
'0:02.447',-0.185,0.135
'0:02.450',-0.195,0.130
'0:02.453',-0.205,0.135
'0:02.456',-0.210,0.150
'0:02.458',-0.185,0.155
'0:02.461',-0.180,0.140
'0:02.464',-0.200,0.135
'0:02.467',-0.215,0.130
'0:02.469',-0.215,0.135
'0:02.472',-0.185,0.155
'0:02.475',-0.160,0.155
'0:02.478',-0.165,0.140
'0:02.481',-0.170,0.135
'0:02.483',-0.165,0.135
'0:02.486',-0.180,0.135
'0:02.489',-0.160,0.155
'0:02.492',-0.145,0.155
'0:02.494',-0.135,0.160
'0:02.497',-0.145,0.120
'0:02.500',-0.155,0.130
'0:02.503',-0.160,0.135
'0:02.506',-0.145,0.135
'0:02.508',-0.120,0.150
'0:02.511',-0.125,0.150
'0:02.514',-0.130,0.130
'0:02.517',-0.130,0.105
'0:02.519',-0.135,0.125
'0:02.522',-0.130,0.135
'0:02.525',-0.115,0.135
'0:02.528',-0.095,0.135
'0:02.531',-0.090,0.105
'0:02.533',-0.070,0.085
'0:02.536',-0.020,0.090
'0:02.539',0.045,0.095
'0:02.542',0.135,0.090
'0:02.544',0.220,0.070
'0:02.547',0.335,0.050
'0:02.550',0.460,0.015
'0:02.553',0.615,0.000
'0:02.556',0.780,-0.035
'0:02.558',0.970,-0.065
'0:02.561',1.145,-0.090
'0:02.564',1.275,-0.080
'0:02.567',1.375,-0.025
'0:02.569',1.395,0.075
'0:02.572',1.300,0.155
'0:02.575',1.130,0.165
'0:02.578',0.855,0.160
'0:02.581',0.565,0.155
'0:02.583',0.260,0.200
'0:02.586',-0.005,0.260
'0:02.589',-0.195,0.305
'0:02.592',-0.280,0.340
'0:02.594',-0.280,0.320
'0:02.597',-0.240,0.275
'0:02.600',-0.215,0.225
'0:02.603',-0.210,0.205
'0:02.606',-0.170,0.185
'0:02.608',-0.170,0.175
'0:02.611',-0.175,0.165
'0:02.614',-0.205,0.145
'0:02.617',-0.215,0.145
'0:02.619',-0.205,0.150
'0:02.622',-0.215,0.160
'0:02.625',-0.205,0.150
'0:02.628',-0.225,0.120
'0:02.631',-0.240,0.095
'0:02.633',-0.255,0.085
'0:02.636',-0.270,0.080
'0:02.639',-0.270,0.100
'0:02.642',-0.245,0.110
'0:02.644',-0.250,0.095
'0:02.647',-0.260,0.075
'0:02.650',-0.280,0.090
'0:02.653',-0.280,0.105
'0:02.656',-0.270,0.110
'0:02.658',-0.270,0.115
'0:02.661',-0.265,0.110
'0:02.664',-0.290,0.085
'0:02.667',-0.305,0.085
'0:02.669',-0.295,0.090
'0:02.672',-0.280,0.085
'0:02.675',-0.255,0.090
'0:02.678',-0.265,0.085
'0:02.681',-0.275,0.080
'0:02.683',-0.295,0.085
'0:02.686',-0.290,0.105
'0:02.689',-0.285,0.110
'0:02.692',-0.270,0.110
'0:02.694',-0.265,0.105
'0:02.697',-0.270,0.095
'0:02.700',-0.280,0.075
'0:02.703',-0.280,0.095
'0:02.706',-0.270,0.105
'0:02.708',-0.255,0.135
'0:02.711',-0.255,0.120
'0:02.714',-0.265,0.105
'0:02.717',-0.285,0.115
'0:02.719',-0.270,0.115
'0:02.722',-0.250,0.125
'0:02.725',-0.235,0.125
'0:02.728',-0.235,0.125
'0:02.731',-0.235,0.115
'0:02.733',-0.250,0.100
'0:02.736',-0.245,0.125
'0:02.739',-0.220,0.135
'0:02.742',-0.205,0.150
'0:02.744',-0.205,0.110
'0:02.747',-0.205,0.115
'0:02.750',-0.200,0.105
'0:02.753',-0.215,0.120
'0:02.756',-0.205,0.145
'0:02.758',-0.190,0.145
'0:02.761',-0.185,0.140
'0:02.764',-0.200,0.120
'0:02.767',-0.200,0.110
'0:02.769',-0.220,0.115
'0:02.772',-0.180,0.125
'0:02.775',-0.165,0.100
'0:02.778',-0.175,0.075
'0:02.781',-0.175,0.055
'0:02.783',-0.180,0.060
'0:02.786',-0.170,0.055
'0:02.789',-0.145,0.055
'0:02.792',-0.160,0.030
'0:02.794',-0.150,0.005
'0:02.797',-0.175,-0.010
'0:02.800',-0.160,-0.005
'0:02.803',-0.145,0.010
'0:02.806',-0.130,0.000
'0:02.808',-0.135,-0.010
'0:02.811',-0.150,-0.030
'0:02.814',-0.160,-0.035
'0:02.817',-0.165,-0.030
'0:02.819',-0.150,-0.030
'0:02.822',-0.140,-0.020
'0:02.825',-0.125,-0.025
'0:02.828',-0.130,-0.050
'0:02.831',-0.140,-0.045
'0:02.833',-0.115,-0.020
'0:02.836',-0.095,-0.020
'0:02.839',-0.080,-0.020
'0:02.842',-0.055,-0.030
'0:02.844',-0.050,-0.055
'0:02.847',-0.060,-0.065
'0:02.850',-0.030,-0.050
'0:02.853',-0.005,-0.040
'0:02.856',0.010,-0.045
'0:02.858',0.020,-0.060
'0:02.861',0.025,-0.085
'0:02.864',0.015,-0.080
'0:02.867',0.025,-0.065
'0:02.869',0.035,-0.035
'0:02.872',0.060,0.000
'0:02.875',0.070,-0.015
'0:02.878',0.055,-0.020
'0:02.881',0.035,-0.020
'0:02.883',0.025,-0.020
'0:02.886',0.040,-0.005
'0:02.889',0.055,0.010
'0:02.892',0.025,0.020
'0:02.894',0.005,0.015
'0:02.897',-0.005,0.010
'0:02.900',-0.005,0.035
'0:02.903',0.000,0.050
'0:02.906',0.005,0.065
'0:02.908',0.000,0.070
'0:02.911',-0.020,0.055
'0:02.914',-0.050,0.055
'0:02.917',-0.065,0.070
'0:02.919',-0.055,0.080
'0:02.922',-0.065,0.105
'0:02.925',-0.080,0.095
'0:02.928',-0.095,0.090
'0:02.931',-0.110,0.090
'0:02.933',-0.110,0.105
'0:02.936',-0.105,0.110
'0:02.939',-0.095,0.125
'0:02.942',-0.105,0.120
'0:02.944',-0.120,0.105
'0:02.947',-0.125,0.100
'0:02.950',-0.135,0.100
'0:02.953',-0.125,0.125
'0:02.956',-0.115,0.125
'0:02.958',-0.125,0.125
'0:02.961',-0.145,0.110
'0:02.964',-0.145,0.120
'0:02.967',-0.150,0.135
'0:02.969',-0.150,0.145
'0:02.972',-0.130,0.155
'0:02.975',-0.135,0.140
'0:02.978',-0.145,0.135
'0:02.981',-0.145,0.130
'0:02.983',-0.145,0.140
'0:02.986',-0.125,0.160
'0:02.989',-0.105,0.165
'0:02.992',-0.115,0.150
'0:02.994',-0.120,0.145
'0:02.997',-0.125,0.135
'0:03.000',-0.135,0.150
'0:03.003',-0.110,0.160
'0:03.006',-0.090,0.165
'0:03.008',-0.090,0.150
'0:03.011',-0.105,0.125
'0:03.014',-0.130,0.125
'0:03.017',-0.130,0.135
'0:03.019',-0.095,0.150
'0:03.022',-0.085,0.145
'0:03.025',-0.095,0.130
'0:03.028',-0.115,0.120
'0:03.031',-0.110,0.125
'0:03.033',-0.110,0.120
'0:03.036',-0.100,0.130
'0:03.039',-0.095,0.135
'0:03.042',-0.115,0.125
'0:03.044',-0.105,0.100
'0:03.047',-0.120,0.095
'0:03.050',-0.125,0.110
'0:03.053',-0.110,0.140
'0:03.056',-0.105,0.125
'0:03.058',-0.115,0.115
'0:03.061',-0.120,0.080
'0:03.064',-0.130,0.070
'0:03.067',-0.120,0.080
'0:03.069',-0.135,0.095
'0:03.072',-0.100,0.090
'0:03.075',-0.125,0.085
'0:03.078',-0.140,0.075
'0:03.081',-0.140,0.080
'0:03.083',-0.145,0.095
'0:03.086',-0.115,0.100
'0:03.089',-0.115,0.105
'0:03.092',-0.120,0.080
'0:03.094',-0.140,0.065
'0:03.097',-0.175,0.060
'0:03.100',-0.180,0.090
'0:03.103',-0.175,0.095
'0:03.106',-0.150,0.105
'0:03.108',-0.150,0.105
'0:03.111',-0.145,0.100
'0:03.114',-0.145,0.115
'0:03.117',-0.150,0.120
'0:03.119',-0.145,0.115
'0:03.122',-0.140,0.110
'0:03.125',-0.140,0.100
'0:03.128',-0.160,0.090
'0:03.131',-0.185,0.095
'0:03.133',-0.175,0.105
'0:03.136',-0.150,0.125
'0:03.139',-0.135,0.130
'0:03.142',-0.140,0.110
'0:03.144',-0.170,0.105
'0:03.147',-0.170,0.105
'0:03.150',-0.165,0.125
'0:03.153',-0.155,0.135
'0:03.156',-0.145,0.140
'0:03.158',-0.145,0.120
'0:03.161',-0.160,0.130
'0:03.164',-0.165,0.120
'0:03.167',-0.160,0.125
'0:03.169',-0.150,0.145
'0:03.172',-0.125,0.150
'0:03.175',-0.130,0.125
'0:03.178',-0.160,0.125
'0:03.181',-0.150,0.120
'0:03.183',-0.155,0.135
'0:03.186',-0.155,0.145
'0:03.189',-0.155,0.145
'0:03.192',-0.160,0.135
'0:03.194',-0.150,0.130
'0:03.197',-0.155,0.125
'0:03.200',-0.150,0.150
'0:03.203',-0.150,0.165
'0:03.206',-0.135,0.170
'0:03.208',-0.145,0.150
'0:03.211',-0.165,0.130
'0:03.214',-0.180,0.115
'0:03.217',-0.190,0.135
'0:03.219',-0.185,0.145
'0:03.222',-0.155,0.140
'0:03.225',-0.165,0.135
'0:03.228',-0.165,0.115
'0:03.231',-0.200,0.115
'0:03.233',-0.205,0.120
'0:03.236',-0.175,0.125
'0:03.239',-0.165,0.125
'0:03.242',-0.155,0.100
'0:03.244',-0.170,0.095
'0:03.247',-0.175,0.095
'0:03.250',-0.195,0.105
'0:03.253',-0.165,0.110
'0:03.256',-0.165,0.120
'0:03.258',-0.155,0.115
'0:03.261',-0.165,0.105
'0:03.264',-0.210,0.090
'0:03.267',-0.195,0.095
'0:03.269',-0.160,0.105
'0:03.272',-0.150,0.130
'0:03.275',-0.165,0.120
'0:03.278',-0.165,0.115
'0:03.281',-0.175,0.100
'0:03.283',-0.165,0.125
'0:03.286',-0.145,0.120
'0:03.289',-0.125,0.130
'0:03.292',-0.125,0.120
'0:03.294',-0.150,0.110
'0:03.297',-0.160,0.100
'0:03.300',-0.175,0.125
'0:03.303',-0.145,0.135
'0:03.306',-0.135,0.140
'0:03.308',-0.130,0.140
'0:03.311',-0.140,0.125
'0:03.314',-0.165,0.110
'0:03.317',-0.170,0.115
'0:03.319',-0.170,0.125
'0:03.322',-0.155,0.150
'0:03.325',-0.145,0.145
'0:03.328',-0.150,0.120
'0:03.331',-0.160,0.105
'0:03.333',-0.155,0.135
'0:03.336',-0.125,0.135
'0:03.339',-0.115,0.155
'0:03.342',-0.125,0.150
'0:03.344',-0.135,0.140
'0:03.347',-0.155,0.140
'0:03.350',-0.155,0.160
'0:03.353',-0.135,0.170
'0:03.356',-0.130,0.170
'0:03.358',-0.135,0.150
'0:03.361',-0.155,0.135
'0:03.364',-0.155,0.135
'0:03.367',-0.160,0.145
'0:03.369',-0.140,0.155
'0:03.372',-0.135,0.160
'0:03.375',-0.130,0.155
'0:03.378',-0.135,0.135
'0:03.381',-0.130,0.120
'0:03.383',-0.135,0.130
'0:03.386',-0.145,0.140
'0:03.389',-0.110,0.145
'0:03.392',-0.125,0.130
'0:03.394',-0.130,0.120
'0:03.397',-0.145,0.105
'0:03.400',-0.130,0.130
'0:03.403',-0.090,0.135
'0:03.406',-0.050,0.120
'0:03.408',-0.065,0.105
'0:03.411',-0.065,0.075
'0:03.414',-0.050,0.060
'0:03.417',-0.005,0.075
'0:03.419',0.070,0.080
'0:03.422',0.165,0.070
'0:03.425',0.255,0.050
'0:03.428',0.360,0.020
'0:03.431',0.485,0.000
'0:03.433',0.630,-0.025
'0:03.436',0.790,-0.045
'0:03.439',0.965,-0.055
'0:03.442',1.135,-0.060
'0:03.444',1.275,-0.040
'0:03.447',1.385,0.010
'0:03.450',1.425,0.100
'0:03.453',1.385,0.170
'0:03.456',1.260,0.205
'0:03.458',1.025,0.200
'0:03.461',0.745,0.180
'0:03.464',0.495,0.215
'0:03.467',0.245,0.275
'0:03.469',0.005,0.315
'0:03.472',-0.170,0.350
'0:03.475',-0.265,0.355
'0:03.478',-0.275,0.335
'0:03.481',-0.250,0.290
'0:03.483',-0.200,0.250
'0:03.486',-0.170,0.245
'0:03.489',-0.150,0.220
'0:03.492',-0.150,0.195
'0:03.494',-0.155,0.150
'0:03.497',-0.165,0.120
'0:03.500',-0.160,0.115
'0:03.503',-0.180,0.115
'0:03.506',-0.170,0.095
'0:03.508',-0.190,0.080
'0:03.511',-0.215,0.070
'0:03.514',-0.225,0.060
'0:03.517',-0.225,0.095
'0:03.519',-0.215,0.105
'0:03.522',-0.195,0.110
'0:03.525',-0.200,0.100
'0:03.528',-0.215,0.085
'0:03.531',-0.205,0.095
'0:03.533',-0.205,0.095
'0:03.536',-0.200,0.115
'0:03.539',-0.185,0.105
'0:03.542',-0.185,0.115
'0:03.544',-0.205,0.100
'0:03.547',-0.210,0.110
'0:03.550',-0.220,0.130
'0:03.553',-0.210,0.140
'0:03.556',-0.210,0.135
'0:03.558',-0.210,0.110
'0:03.561',-0.235,0.090
'0:03.564',-0.245,0.100
'0:03.567',-0.235,0.115
'0:03.569',-0.220,0.125
'0:03.572',-0.190,0.130
'0:03.575',-0.190,0.120
'0:03.578',-0.195,0.120
'0:03.581',-0.215,0.110
'0:03.583',-0.230,0.120
'0:03.586',-0.215,0.130
'0:03.589',-0.210,0.140
'0:03.592',-0.210,0.135
'0:03.594',-0.220,0.095
'0:03.597',-0.230,0.105
'0:03.600',-0.230,0.105
'0:03.603',-0.215,0.125
'0:03.606',-0.195,0.140
'0:03.608',-0.200,0.130
'0:03.611',-0.200,0.130
'0:03.614',-0.215,0.125
'0:03.617',-0.200,0.125
'0:03.619',-0.185,0.120
'0:03.622',-0.190,0.115
'0:03.625',-0.200,0.115
'0:03.628',-0.205,0.105
'0:03.631',-0.225,0.105
'0:03.633',-0.220,0.115
'0:03.636',-0.205,0.115
'0:03.639',-0.200,0.125
'0:03.642',-0.200,0.110
'0:03.644',-0.220,0.095
'0:03.647',-0.220,0.060
'0:03.650',-0.200,0.060
'0:03.653',-0.170,0.065
'0:03.656',-0.150,0.070
'0:03.658',-0.145,0.060
'0:03.661',-0.155,0.040
'0:03.664',-0.170,0.045
'0:03.667',-0.160,0.045
'0:03.669',-0.135,0.065
'0:03.672',-0.125,0.060
'0:03.675',-0.115,0.040
'0:03.678',-0.125,0.040
'0:03.681',-0.145,0.035
'0:03.683',-0.130,0.030
'0:03.686',-0.130,0.040
'0:03.689',-0.115,0.045
'0:03.692',-0.105,0.025
'0:03.694',-0.100,0.015
'0:03.697',-0.115,0.010
'0:03.700',-0.110,0.020
'0:03.703',-0.100,0.015
'0:03.706',-0.090,0.005
'0:03.708',-0.080,-0.015
'0:03.711',-0.090,-0.015
'0:03.714',-0.080,-0.010
'0:03.717',-0.080,0.005
'0:03.719',-0.065,0.010
'0:03.722',-0.060,0.010
'0:03.725',-0.065,-0.010
'0:03.728',-0.075,-0.015
'0:03.731',-0.080,-0.045
'0:03.733',-0.065,-0.025
'0:03.736',-0.065,-0.005
'0:03.739',-0.045,0.000
'0:03.742',-0.040,-0.020
'0:03.744',-0.045,-0.035
'0:03.747',-0.055,-0.055
'0:03.750',-0.055,-0.040
'0:03.753',-0.040,-0.025
'0:03.756',-0.035,-0.035
'0:03.758',-0.040,-0.040
'0:03.761',-0.050,-0.035
'0:03.764',-0.040,-0.040
'0:03.767',-0.035,-0.035
'0:03.769',-0.015,-0.035
'0:03.772',0.000,-0.015
'0:03.775',-0.005,-0.035
'0:03.778',-0.035,-0.045
'0:03.781',-0.050,-0.040
'0:03.783',-0.045,-0.040
'0:03.786',-0.030,-0.020
'0:03.789',-0.025,-0.015
'0:03.792',-0.035,-0.030
'0:03.794',-0.035,-0.035
'0:03.797',-0.065,-0.025
'0:03.800',-0.065,0.010
'0:03.803',-0.065,0.025
'0:03.806',-0.055,0.035
'0:03.808',-0.080,0.055
'0:03.811',-0.095,0.035
'0:03.814',-0.115,0.045
'0:03.817',-0.100,0.055
'0:03.819',-0.090,0.095
'0:03.822',-0.085,0.110
'0:03.825',-0.085,0.110
'0:03.828',-0.110,0.125
'0:03.831',-0.130,0.125
'0:03.833',-0.140,0.140
'0:03.836',-0.125,0.165
'0:03.839',-0.110,0.185
'0:03.842',-0.115,0.160
'0:03.844',-0.125,0.135
'0:03.847',-0.145,0.145
'0:03.850',-0.150,0.175
'0:03.853',-0.140,0.195
'0:03.856',-0.125,0.195
'0:03.858',-0.120,0.200
'0:03.861',-0.140,0.190
'0:03.864',-0.150,0.200
'0:03.867',-0.165,0.215
'0:03.869',-0.140,0.215
'0:03.872',-0.125,0.220
'0:03.875',-0.130,0.210
'0:03.878',-0.130,0.210
'0:03.881',-0.125,0.200
'0:03.883',-0.105,0.220
'0:03.886',-0.075,0.210
'0:03.889',-0.060,0.210
'0:03.892',-0.080,0.205
'0:03.894',-0.080,0.205
'0:03.897',-0.080,0.195
'0:03.900',-0.055,0.195
'0:03.903',-0.020,0.215
'0:03.906',0.015,0.225
'0:03.908',0.035,0.200
'0:03.911',0.055,0.205
'0:03.914',0.040,0.210
'0:03.917',0.040,0.230
'0:03.919',0.080,0.230
'0:03.922',0.135,0.230
'0:03.925',0.175,0.210
'0:03.928',0.225,0.170
'0:03.931',0.265,0.110
'0:03.933',0.335,0.020
'0:03.936',0.420,-0.045
'0:03.939',0.495,-0.110
'0:03.942',0.560,-0.190
'0:03.944',0.620,-0.270
'0:03.947',0.670,-0.350
'0:03.950',0.735,-0.410
'0:03.953',0.825,-0.490
'0:03.956',0.910,-0.590
'0:03.958',0.980,-0.690
'0:03.961',1.030,-0.780
'0:03.964',1.065,-0.855
'0:03.967',1.120,-0.890
'0:03.969',1.125,-0.915
'0:03.972',1.115,-0.915
'0:03.975',1.100,-0.915
'0:03.978',1.085,-0.910
'0:03.981',1.065,-0.905
'0:03.983',1.015,-0.905
'0:03.986',0.970,-0.890
'0:03.989',0.910,-0.875
'0:03.992',0.810,-0.870
'0:03.994',0.690,-0.850
'0:03.997',0.560,-0.805
'0:04.000',0.445,-0.740
'0:04.003',0.345,-0.665
'0:04.006',0.280,-0.615
'0:04.008',0.225,-0.555
'0:04.011',0.175,-0.505
'0:04.014',0.135,-0.455
'0:04.017',0.135,-0.405
'0:04.019',0.130,-0.355
'0:04.022',0.145,-0.290
'0:04.025',0.150,-0.240
'0:04.028',0.145,-0.210
'0:04.031',0.180,-0.170
'0:04.033',0.235,-0.115
'0:04.036',0.305,-0.085
'0:04.039',0.365,-0.065
'0:04.042',0.315,-0.060
'0:04.044',0.200,-0.060
'0:04.047',0.040,-0.030
'0:04.050',-0.120,0.025
'0:04.053',-0.250,0.090
'0:04.056',-0.305,0.145
'0:04.058',-0.360,0.200
'0:04.061',-0.385,0.240
'0:04.064',-0.415,0.285
'0:04.067',-0.445,0.300
'0:04.069',-0.470,0.320
'0:04.072',-0.465,0.345
'0:04.075',-0.485,0.355
'0:04.078',-0.510,0.360
'0:04.081',-0.540,0.370
'0:04.083',-0.570,0.380
'0:04.086',-0.560,0.410
'0:04.089',-0.560,0.420
'0:04.092',-0.575,0.410
'0:04.094',-0.585,0.405
'0:04.097',-0.595,0.395
'0:04.100',-0.615,0.420
'0:04.103',-0.605,0.460
'0:04.106',-0.600,0.480
'0:04.108',-0.605,0.480
'0:04.111',-0.615,0.470
'0:04.114',-0.620,0.470
'0:04.117',-0.620,0.495
'0:04.119',-0.640,0.520
'0:04.122',-0.640,0.545
'0:04.125',-0.635,0.555
'0:04.128',-0.645,0.530
'0:04.131',-0.675,0.540
'0:04.133',-0.660,0.550
'0:04.136',-0.645,0.570
'0:04.139',-0.625,0.575
'0:04.142',-0.635,0.575
'0:04.144',-0.655,0.580
'0:04.147',-0.660,0.585
'0:04.150',-0.685,0.625
'0:04.153',-0.675,0.635
'0:04.156',-0.665,0.635
'0:04.158',-0.675,0.635
'0:04.161',-0.695,0.635
'0:04.164',-0.705,0.645
'0:04.167',-0.720,0.675
'0:04.169',-0.720,0.690
'0:04.172',-0.710,0.710
'0:04.175',-0.705,0.695
'0:04.178',-0.740,0.705
'0:04.181',-0.750,0.700
'0:04.183',-0.745,0.720
'0:04.186',-0.745,0.745
'0:04.189',-0.725,0.745
'0:04.192',-0.725,0.755
'0:04.194',-0.730,0.755
'0:04.197',-0.730,0.765
'0:04.200',-0.735,0.790
'0:04.203',-0.715,0.800
'0:04.206',-0.705,0.790
'0:04.208',-0.730,0.800
'0:04.211',-0.735,0.795
'0:04.214',-0.725,0.795
'0:04.217',-0.730,0.810
'0:04.219',-0.715,0.810
'0:04.222',-0.670,0.815
'0:04.225',-0.675,0.815
'0:04.228',-0.670,0.800
'0:04.231',-0.665,0.790
'0:04.233',-0.650,0.800
'0:04.236',-0.625,0.770
'0:04.239',-0.615,0.780
'0:04.242',-0.610,0.760
'0:04.244',-0.610,0.730
'0:04.247',-0.595,0.710
'0:04.250',-0.570,0.700
'0:04.253',-0.540,0.690
'0:04.256',-0.520,0.660
'0:04.258',-0.510,0.645
'0:04.261',-0.495,0.595
'0:04.264',-0.480,0.580
'0:04.267',-0.480,0.560
'0:04.269',-0.445,0.555
'0:04.272',-0.405,0.530
'0:04.275',-0.400,0.490
'0:04.278',-0.415,0.430
'0:04.281',-0.405,0.430
'0:04.283',-0.365,0.415
'0:04.286',-0.350,0.395
'0:04.289',-0.325,0.385
'0:04.292',-0.310,0.360
'0:04.294',-0.315,0.335
'0:04.297',-0.335,0.305
'0:04.300',-0.330,0.300
'0:04.303',-0.310,0.305
'0:04.306',-0.270,0.295
'0:04.308',-0.255,0.260
'0:04.311',-0.265,0.240
'0:04.314',-0.290,0.225
'0:04.317',-0.285,0.230
'0:04.319',-0.255,0.230
'0:04.322',-0.240,0.225
'0:04.325',-0.250,0.220
'0:04.328',-0.250,0.195
'0:04.331',-0.255,0.170
'0:04.333',-0.255,0.180
'0:04.336',-0.255,0.190
'0:04.339',-0.250,0.200
'0:04.342',-0.235,0.185
'0:04.344',-0.250,0.155
'0:04.347',-0.255,0.155
'0:04.350',-0.250,0.165
'0:04.353',-0.240,0.180
'0:04.356',-0.225,0.185
'0:04.358',-0.230,0.175
'0:04.361',-0.260,0.165
'0:04.364',-0.250,0.165
'0:04.367',-0.245,0.175
'0:04.369',-0.245,0.190
'0:04.372',-0.220,0.190
'0:04.375',-0.220,0.170
'0:04.378',-0.240,0.165
'0:04.381',-0.255,0.155
'0:04.383',-0.230,0.160
'0:04.386',-0.215,0.180
'0:04.389',-0.195,0.165
'0:04.392',-0.210,0.140
'0:04.394',-0.205,0.125
'0:04.397',-0.205,0.110
'0:04.400',-0.210,0.125
'0:04.403',-0.205,0.155
'0:04.406',-0.195,0.160
'0:04.408',-0.200,0.155
'0:04.411',-0.215,0.130
'0:04.414',-0.235,0.125
'0:04.417',-0.235,0.130
'0:04.419',-0.225,0.140
'0:04.422',-0.210,0.160
'0:04.425',-0.205,0.150
'0:04.428',-0.200,0.140
'0:04.431',-0.225,0.130
'0:04.433',-0.240,0.155
'0:04.436',-0.220,0.165
'0:04.439',-0.205,0.175
'0:04.442',-0.200,0.160
'0:04.444',-0.210,0.135
'0:04.447',-0.230,0.140
'0:04.450',-0.215,0.145
'0:04.453',-0.210,0.160
'0:04.456',-0.180,0.175
'0:04.458',-0.195,0.170
'0:04.461',-0.230,0.150
'0:04.464',-0.240,0.160
'0:04.467',-0.225,0.170
'0:04.469',-0.210,0.180
'0:04.472',-0.200,0.190
'0:04.475',-0.220,0.180
'0:04.478',-0.240,0.165
'0:04.481',-0.235,0.165
'0:04.483',-0.230,0.195
'0:04.486',-0.225,0.185
'0:04.489',-0.215,0.180
'0:04.492',-0.230,0.180
'0:04.494',-0.235,0.170
'0:04.497',-0.240,0.160
'0:04.500',-0.240,0.155
'0:04.503',-0.235,0.150
'0:04.506',-0.235,0.145
'0:04.508',-0.250,0.120
'0:04.511',-0.255,0.115
'0:04.514',-0.260,0.095
'0:04.517',-0.245,0.110
'0:04.519',-0.225,0.135
'0:04.522',-0.200,0.130
'0:04.525',-0.215,0.115
'0:04.528',-0.225,0.095
'0:04.531',-0.235,0.085
'0:04.533',-0.225,0.110
'0:04.536',-0.210,0.120
'0:04.539',-0.205,0.110
'0:04.542',-0.215,0.110
'0:04.544',-0.225,0.105
'0:04.547',-0.235,0.100
'0:04.550',-0.230,0.110
'0:04.553',-0.240,0.120
'0:04.556',-0.215,0.125
'0:04.558',-0.220,0.100
'0:04.561',-0.225,0.070
'0:04.564',-0.230,0.095
'0:04.567',-0.220,0.105
'0:04.569',-0.215,0.125
'0:04.572',-0.190,0.130
'0:04.575',-0.195,0.130
'0:04.578',-0.225,0.110
'0:04.581',-0.245,0.115
'0:04.583',-0.260,0.135
'0:04.586',-0.245,0.155
'0:04.589',-0.215,0.140
'0:04.592',-0.215,0.135
'0:04.594',-0.240,0.120
'0:04.597',-0.280,0.135
'0:04.600',-0.260,0.140
'0:04.603',-0.250,0.160
'0:04.606',-0.240,0.155
'0:04.608',-0.240,0.145
'0:04.611',-0.235,0.145
'0:04.614',-0.240,0.145
'0:04.617',-0.235,0.150
'0:04.619',-0.230,0.155
'0:04.622',-0.215,0.155
'0:04.625',-0.215,0.160
'0:04.628',-0.225,0.145
'0:04.631',-0.235,0.140
'0:04.633',-0.230,0.140
'0:04.636',-0.220,0.150
'0:04.639',-0.235,0.150
'0:04.642',-0.240,0.140
'0:04.644',-0.250,0.135
'0:04.647',-0.245,0.135
'0:04.650',-0.230,0.140
'0:04.653',-0.225,0.160
'0:04.656',-0.210,0.160
'0:04.658',-0.220,0.165
'0:04.661',-0.235,0.140
'0:04.664',-0.245,0.135
'0:04.667',-0.245,0.150
'0:04.669',-0.230,0.150
'0:04.672',-0.220,0.135
'0:04.675',-0.230,0.135
'0:04.678',-0.250,0.120
'0:04.681',-0.240,0.120
'0:04.683',-0.245,0.125
'0:04.686',-0.225,0.125
'0:04.689',-0.190,0.140
'0:04.692',-0.195,0.135
'0:04.694',-0.205,0.115
'0:04.697',-0.230,0.115
'0:04.700',-0.225,0.125
'0:04.703',-0.225,0.135
'0:04.706',-0.190,0.130
'0:04.708',-0.200,0.140
'0:04.711',-0.225,0.110
'0:04.714',-0.235,0.120
'0:04.717',-0.235,0.120
'0:04.719',-0.220,0.125
'0:04.722',-0.240,0.130
'0:04.725',-0.250,0.130
'0:04.728',-0.265,0.115
'0:04.731',-0.265,0.140
'0:04.733',-0.245,0.145
'0:04.736',-0.230,0.155
'0:04.739',-0.215,0.150
'0:04.742',-0.225,0.125
'0:04.744',-0.240,0.100
'0:04.747',-0.240,0.110
'0:04.750',-0.250,0.110
'0:04.753',-0.230,0.125
'0:04.756',-0.215,0.120
'0:04.758',-0.215,0.125
'0:04.761',-0.230,0.105
'0:04.764',-0.240,0.120
'0:04.767',-0.245,0.125
'0:04.769',-0.230,0.125
'0:04.772',-0.230,0.110
'0:04.775',-0.210,0.120
'0:04.778',-0.220,0.115
'0:04.781',-0.235,0.120
'0:04.783',-0.235,0.135
'0:04.786',-0.220,0.165
'0:04.789',-0.205,0.140
'0:04.792',-0.225,0.135
'0:04.794',-0.235,0.110
'0:04.797',-0.250,0.115
'0:04.800',-0.260,0.115
'0:04.803',-0.225,0.135
'0:04.806',-0.215,0.135
'0:04.808',-0.235,0.120
'0:04.811',-0.240,0.110
'0:04.814',-0.255,0.105
'0:04.817',-0.245,0.110
'0:04.819',-0.225,0.115
'0:04.822',-0.205,0.115
'0:04.825',-0.210,0.105
'0:04.828',-0.225,0.095
'0:04.831',-0.240,0.105
'0:04.833',-0.225,0.115
'0:04.836',-0.205,0.125
'0:04.839',-0.235,0.125
'0:04.842',-0.255,0.125
'0:04.844',-0.280,0.115
'0:04.847',-0.275,0.110
'0:04.850',-0.235,0.125
'0:04.853',-0.210,0.140
'0:04.856',-0.210,0.150
'0:04.858',-0.215,0.135
'0:04.861',-0.210,0.125
'0:04.864',-0.210,0.125
'0:04.867',-0.210,0.140
'0:04.869',-0.200,0.145
'0:04.872',-0.180,0.145
'0:04.875',-0.190,0.115
'0:04.878',-0.200,0.095
'0:04.881',-0.220,0.090
'0:04.883',-0.230,0.115
'0:04.886',-0.205,0.125
'0:04.889',-0.190,0.115
'0:04.892',-0.210,0.115
'0:04.894',-0.200,0.095
'0:04.897',-0.225,0.110
'0:04.900',-0.220,0.125
'0:04.903',-0.200,0.145
'0:04.906',-0.195,0.150
'0:04.908',-0.195,0.145
'0:04.911',-0.215,0.120
'0:04.914',-0.215,0.125
'0:04.917',-0.215,0.145
'0:04.919',-0.200,0.155
'0:04.922',-0.210,0.140
'0:04.925',-0.205,0.130
'0:04.928',-0.190,0.110
'0:04.931',-0.210,0.125
'0:04.933',-0.205,0.135
'0:04.936',-0.205,0.155
'0:04.939',-0.180,0.150
'0:04.942',-0.190,0.135
'0:04.944',-0.205,0.115
'0:04.947',-0.200,0.130
'0:04.950',-0.200,0.125
'0:04.953',-0.185,0.145
'0:04.956',-0.160,0.145
'0:04.958',-0.165,0.125
'0:04.961',-0.170,0.105
'0:04.964',-0.190,0.095
'0:04.967',-0.190,0.100
'0:04.969',-0.170,0.105
'0:04.972',-0.155,0.095
'0:04.975',-0.150,0.085
'0:04.978',-0.125,0.060
'0:04.981',-0.095,0.045
'0:04.983',-0.025,0.055
'0:04.986',0.045,0.050
'0:04.989',0.135,0.050
'0:04.992',0.245,0.040
'0:04.994',0.340,0.025
'0:04.997',0.480,0.015
'0:05.000',0.670,-0.030
'0:05.003',0.855,-0.050
'0:05.006',1.030,-0.065
'0:05.008',1.190,-0.080
'0:05.011',1.285,-0.065
'0:05.014',1.335,-0.005
'0:05.017',1.275,0.080
'0:05.019',1.130,0.120
'0:05.022',0.905,0.105
'0:05.025',0.635,0.110
'0:05.028',0.370,0.140
'0:05.031',0.090,0.175
'0:05.033',-0.135,0.215
'0:05.036',-0.270,0.225
'0:05.039',-0.290,0.235
'0:05.042',-0.260,0.200
'0:05.044',-0.230,0.155
'0:05.047',-0.225,0.120
'0:05.050',-0.195,0.110
'0:05.053',-0.200,0.110
'0:05.056',-0.210,0.115
'0:05.058',-0.200,0.110
'0:05.061',-0.225,0.095
'0:05.064',-0.230,0.085
'0:05.067',-0.220,0.095
'0:05.069',-0.220,0.120
'0:05.072',-0.230,0.130
'0:05.075',-0.250,0.125
'0:05.078',-0.285,0.120
'0:05.081',-0.275,0.115
'0:05.083',-0.275,0.115
'0:05.086',-0.260,0.135
'0:05.089',-0.260,0.130
'0:05.092',-0.275,0.120
'0:05.094',-0.290,0.095
'0:05.097',-0.295,0.110
'0:05.100',-0.290,0.120
'0:05.103',-0.275,0.140
'0:05.106',-0.265,0.140
'0:05.108',-0.265,0.130
'0:05.111',-0.285,0.115
'0:05.114',-0.300,0.120
'0:05.117',-0.290,0.155
'0:05.119',-0.280,0.160
'0:05.122',-0.270,0.155
'0:05.125',-0.265,0.130
'0:05.128',-0.275,0.115
'0:05.131',-0.315,0.120
'0:05.133',-0.330,0.135
'0:05.136',-0.305,0.165
'0:05.139',-0.290,0.165
'0:05.142',-0.300,0.150
'0:05.144',-0.310,0.150
'0:05.147',-0.330,0.145
'0:05.150',-0.335,0.155
'0:05.153',-0.295,0.160
'0:05.156',-0.280,0.155
'0:05.158',-0.295,0.140
'0:05.161',-0.300,0.115
'0:05.164',-0.310,0.115
'0:05.167',-0.300,0.120
'0:05.169',-0.285,0.115
'0:05.172',-0.260,0.105
'0:05.175',-0.260,0.085
'0:05.178',-0.285,0.090
'0:05.181',-0.275,0.095
'0:05.183',-0.270,0.120
'0:05.186',-0.255,0.120
'0:05.189',-0.245,0.125
'0:05.192',-0.245,0.100
'0:05.194',-0.260,0.095
'0:05.197',-0.275,0.085
'0:05.200',-0.270,0.080
'0:05.203',-0.260,0.105
'0:05.206',-0.245,0.110
'0:05.208',-0.230,0.095
'0:05.211',-0.235,0.070
'0:05.214',-0.245,0.075
'0:05.217',-0.230,0.090
'0:05.219',-0.240,0.095
'0:05.222',-0.195,0.090
'0:05.225',-0.205,0.075
'0:05.228',-0.205,0.070
'0:05.231',-0.210,0.075
'0:05.233',-0.195,0.070
'0:05.236',-0.165,0.075
'0:05.239',-0.140,0.080
'0:05.242',-0.145,0.065
'0:05.244',-0.150,0.055
'0:05.247',-0.160,0.030
'0:05.250',-0.165,0.040
'0:05.253',-0.145,0.035
'0:05.256',-0.130,0.045
'0:05.258',-0.130,0.020
'0:05.261',-0.145,0.005
'0:05.264',-0.135,0.005
'0:05.267',-0.120,0.010
'0:05.269',-0.110,0.010
'0:05.272',-0.090,0.000
'0:05.275',-0.095,-0.020
'0:05.278',-0.110,-0.040
'0:05.281',-0.100,-0.040
'0:05.283',-0.085,-0.040
'0:05.286',-0.075,-0.040
'0:05.289',-0.075,-0.040
'0:05.292',-0.065,-0.050
'0:05.294',-0.070,-0.060
'0:05.297',-0.070,-0.055
'0:05.300',-0.065,-0.060
'0:05.303',-0.035,-0.055
'0:05.306',-0.015,-0.050
'0:05.308',-0.020,-0.080
'0:05.311',-0.025,-0.085
'0:05.314',-0.025,-0.090
'0:05.317',-0.030,-0.060
'0:05.319',-0.015,-0.040
'0:05.322',0.015,-0.035
'0:05.325',0.020,-0.050
'0:05.328',-0.005,-0.050
'0:05.331',-0.010,-0.020
'0:05.333',-0.025,0.005
'0:05.336',-0.025,0.030
'0:05.339',-0.030,0.035
'0:05.342',-0.040,0.030
'0:05.344',-0.050,0.020
'0:05.347',-0.070,0.050
'0:05.350',-0.080,0.080
'0:05.353',-0.075,0.095
'0:05.356',-0.060,0.090
'0:05.358',-0.075,0.090
'0:05.361',-0.100,0.075
'0:05.364',-0.120,0.100
'0:05.367',-0.130,0.125
'0:05.369',-0.125,0.145
'0:05.372',-0.115,0.140
'0:05.375',-0.135,0.135
'0:05.378',-0.155,0.120
'0:05.381',-0.175,0.125
'0:05.383',-0.175,0.140
'0:05.386',-0.155,0.160
'0:05.389',-0.150,0.155
'0:05.392',-0.155,0.150
'0:05.394',-0.160,0.135
'0:05.397',-0.170,0.130
'0:05.400',-0.175,0.150
'0:05.403',-0.170,0.170
'0:05.406',-0.155,0.180
'0:05.408',-0.175,0.165
'0:05.411',-0.180,0.155
'0:05.414',-0.190,0.130
'0:05.417',-0.195,0.120
'0:05.419',-0.185,0.120
'0:05.422',-0.165,0.125
'0:05.425',-0.165,0.110
'0:05.428',-0.195,0.095
'0:05.431',-0.195,0.100
'0:05.433',-0.190,0.105
'0:05.436',-0.170,0.115
'0:05.439',-0.155,0.100
'0:05.442',-0.175,0.095
'0:05.444',-0.185,0.085
'0:05.447',-0.175,0.075
'0:05.450',-0.170,0.090
'0:05.453',-0.155,0.095
'0:05.456',-0.140,0.090
'0:05.458',-0.135,0.085
'0:05.461',-0.155,0.075
'0:05.464',-0.160,0.085
'0:05.467',-0.140,0.085
'0:05.469',-0.140,0.090
'0:05.472',-0.145,0.100
'0:05.475',-0.145,0.095
'0:05.478',-0.165,0.080
'0:05.481',-0.165,0.090
'0:05.483',-0.175,0.105
'0:05.486',-0.160,0.110
'0:05.489',-0.135,0.105
'0:05.492',-0.120,0.090
'0:05.494',-0.145,0.085
'0:05.497',-0.150,0.095
'0:05.500',-0.130,0.090
'0:05.503',-0.130,0.115
'0:05.506',-0.100,0.115
'0:05.508',-0.110,0.115
'0:05.511',-0.125,0.090
'0:05.514',-0.140,0.095
'0:05.517',-0.150,0.095
'0:05.519',-0.130,0.115
'0:05.522',-0.150,0.100
'0:05.525',-0.160,0.100
'0:05.528',-0.180,0.085
'0:05.531',-0.180,0.090
'0:05.533',-0.180,0.100
'0:05.536',-0.160,0.110
'0:05.539',-0.150,0.105
'0:05.542',-0.160,0.095
'0:05.544',-0.155,0.085
'0:05.547',-0.165,0.095
'0:05.550',-0.160,0.095
'0:05.553',-0.165,0.110
'0:05.556',-0.150,0.115
'0:05.558',-0.160,0.120
'0:05.561',-0.165,0.095
'0:05.564',-0.185,0.085
'0:05.567',-0.170,0.085
'0:05.569',-0.160,0.115
'0:05.572',-0.150,0.105
'0:05.575',-0.160,0.110
'0:05.578',-0.185,0.085
'0:05.581',-0.190,0.095
'0:05.583',-0.210,0.095
'0:05.586',-0.190,0.105
'0:05.589',-0.180,0.115
'0:05.592',-0.170,0.105
'0:05.594',-0.185,0.095
'0:05.597',-0.200,0.100
'0:05.600',-0.185,0.100
'0:05.603',-0.170,0.115
'0:05.606',-0.170,0.110
'0:05.608',-0.175,0.090
'0:05.611',-0.180,0.095
'0:05.614',-0.200,0.100
'0:05.617',-0.175,0.105
'0:05.619',-0.165,0.125
'0:05.622',-0.150,0.110
'0:05.625',-0.155,0.090
'0:05.628',-0.160,0.080
'0:05.631',-0.185,0.095
'0:05.633',-0.185,0.110
'0:05.636',-0.165,0.130
'0:05.639',-0.160,0.120
'0:05.642',-0.155,0.105
'0:05.644',-0.160,0.080
'0:05.647',-0.180,0.090
'0:05.650',-0.165,0.110
'0:05.653',-0.170,0.115
'0:05.656',-0.155,0.105
'0:05.658',-0.170,0.105
'0:05.661',-0.190,0.105
'0:05.664',-0.195,0.115
'0:05.667',-0.190,0.135
'0:05.669',-0.170,0.125
'0:05.672',-0.150,0.130
'0:05.675',-0.140,0.110
'0:05.678',-0.160,0.095
'0:05.681',-0.190,0.100
'0:05.683',-0.200,0.105
'0:05.686',-0.185,0.120
'0:05.689',-0.155,0.130
'0:05.692',-0.150,0.110
'0:05.694',-0.155,0.090
'0:05.697',-0.175,0.085
'0:05.700',-0.155,0.090
'0:05.703',-0.105,0.095
'0:05.706',-0.030,0.085
'0:05.708',0.030,0.060
'0:05.711',0.105,0.050
'0:05.714',0.200,0.035
'0:05.717',0.300,0.045
'0:05.719',0.460,0.035
'0:05.722',0.645,-0.005
'0:05.725',0.835,-0.055
'0:05.728',1.000,-0.100
'0:05.731',1.165,-0.085
'0:05.733',1.295,-0.050
'0:05.736',1.335,0.045
'0:05.739',1.250,0.140
'0:05.742',1.010,0.175
'0:05.744',0.700,0.145
'0:05.747',0.355,0.170
'0:05.750',0.055,0.245
'0:05.753',-0.200,0.320
'0:05.756',-0.340,0.365
'0:05.758',-0.375,0.355
'0:05.761',-0.325,0.320
'0:05.764',-0.290,0.260
'0:05.767',-0.250,0.205
'0:05.769',-0.200,0.165
'0:05.772',-0.170,0.140
'0:05.775',-0.180,0.085
'0:05.778',-0.205,0.080
'0:05.781',-0.225,0.085
'0:05.783',-0.220,0.080
'0:05.786',-0.210,0.100
'0:05.789',-0.220,0.100
'0:05.792',-0.235,0.100
'0:05.794',-0.250,0.090
'0:05.797',-0.265,0.100
'0:05.800',-0.265,0.120
'0:05.803',-0.260,0.130
'0:05.806',-0.245,0.130
'0:05.808',-0.240,0.110
'0:05.811',-0.250,0.100
'0:05.814',-0.265,0.100
'0:05.817',-0.265,0.110
'0:05.819',-0.270,0.130
'0:05.822',-0.260,0.115
'0:05.825',-0.285,0.125
'0:05.828',-0.290,0.115
'0:05.831',-0.285,0.105
'0:05.833',-0.280,0.110
'0:05.836',-0.265,0.115
'0:05.839',-0.260,0.100
'0:05.842',-0.255,0.090
'0:05.844',-0.285,0.080
'0:05.847',-0.290,0.090
'0:05.850',-0.305,0.110
'0:05.853',-0.300,0.135
'0:05.856',-0.280,0.120
'0:05.858',-0.280,0.110
'0:05.861',-0.295,0.100
'0:05.864',-0.285,0.095
'0:05.867',-0.270,0.120
'0:05.869',-0.260,0.125
'0:05.872',-0.250,0.110
'0:05.875',-0.255,0.095
'0:05.878',-0.260,0.090
'0:05.881',-0.250,0.085
'0:05.883',-0.245,0.065
'0:05.886',-0.240,0.095
'0:05.889',-0.215,0.085
'0:05.892',-0.220,0.070
'0:05.894',-0.250,0.055
'0:05.897',-0.230,0.065
'0:05.900',-0.230,0.070
'0:05.903',-0.215,0.070
'0:05.906',-0.205,0.075
'0:05.908',-0.215,0.060
'0:05.911',-0.220,0.050
'0:05.914',-0.235,0.035
'0:05.917',-0.235,0.030
'0:05.919',-0.215,0.040
'0:05.922',-0.190,0.025
'0:05.925',-0.170,0.020
'0:05.928',-0.170,0.005
'0:05.931',-0.185,0.005
'0:05.933',-0.205,0.015
'0:05.936',-0.205,0.030
'0:05.939',-0.175,0.040
'0:05.942',-0.165,0.020
'0:05.944',-0.160,-0.005
'0:05.947',-0.160,-0.040
'0:05.950',-0.160,-0.030
'0:05.953',-0.135,-0.005
'0:05.956',-0.125,-0.010
'0:05.958',-0.125,-0.020
'0:05.961',-0.120,-0.050
'0:05.964',-0.110,-0.060
'0:05.967',-0.115,-0.055
'0:05.969',-0.095,-0.045
'0:05.972',-0.075,-0.060
'0:05.975',-0.075,-0.065
'0:05.978',-0.110,-0.090
'0:05.981',-0.120,-0.090
'0:05.983',-0.105,-0.080
'0:05.986',-0.065,-0.075
'0:05.989',-0.060,-0.090
'0:05.992',-0.070,-0.090
'0:05.994',-0.065,-0.095
'0:05.997',-0.090,-0.100
'0:06.000',-0.085,-0.095
'0:06.003',-0.060,-0.100
'0:06.006',-0.040,-0.090
'0:06.008',-0.040,-0.095
'0:06.011',-0.065,-0.105
'0:06.014',-0.070,-0.105
'0:06.017',-0.055,-0.090
'0:06.019',-0.065,-0.075
'0:06.022',-0.050,-0.065
'0:06.025',-0.045,-0.050
'0:06.028',-0.060,-0.050
'0:06.031',-0.090,-0.040
'0:06.033',-0.095,-0.015
'0:06.036',-0.095,0.020
'0:06.039',-0.100,0.015
'0:06.042',-0.115,0.035
'0:06.044',-0.130,0.025
'0:06.047',-0.155,0.030
'0:06.050',-0.155,0.055
'0:06.053',-0.140,0.080
'0:06.056',-0.145,0.085
'0:06.058',-0.140,0.075
'0:06.061',-0.160,0.085
'0:06.064',-0.180,0.100
'0:06.067',-0.190,0.105
'0:06.069',-0.185,0.125
'0:06.072',-0.185,0.145
'0:06.075',-0.190,0.140
'0:06.078',-0.210,0.130
'0:06.081',-0.215,0.140
'0:06.083',-0.200,0.160
'0:06.086',-0.200,0.195
'0:06.089',-0.200,0.200
'0:06.092',-0.205,0.205
'0:06.094',-0.230,0.195
'0:06.097',-0.230,0.190
'0:06.100',-0.215,0.185
'0:06.103',-0.210,0.190
'0:06.106',-0.195,0.200
'0:06.108',-0.185,0.195
'0:06.111',-0.200,0.185
'0:06.114',-0.205,0.185
'0:06.117',-0.230,0.205
'0:06.119',-0.215,0.215
'0:06.122',-0.200,0.205
'0:06.125',-0.190,0.190
'0:06.128',-0.185,0.165
'0:06.131',-0.190,0.170
'0:06.133',-0.170,0.185
'0:06.136',-0.170,0.185
'0:06.139',-0.160,0.175
'0:06.142',-0.175,0.165
'0:06.144',-0.185,0.150
'0:06.147',-0.185,0.160
'0:06.150',-0.175,0.170
'0:06.153',-0.175,0.175
'0:06.156',-0.145,0.180
'0:06.158',-0.175,0.140
'0:06.161',-0.185,0.130
'0:06.164',-0.200,0.130
'0:06.167',-0.215,0.130
'0:06.169',-0.175,0.160
'0:06.172',-0.170,0.140
'0:06.175',-0.175,0.125
'0:06.178',-0.180,0.100
'0:06.181',-0.190,0.085
'0:06.183',-0.195,0.110
'0:06.186',-0.190,0.115
'0:06.189',-0.190,0.120
'0:06.192',-0.200,0.110
'0:06.194',-0.195,0.105
'0:06.197',-0.205,0.115
'0:06.200',-0.195,0.120
'0:06.203',-0.175,0.120
'0:06.206',-0.160,0.105
'0:06.208',-0.170,0.100
'0:06.211',-0.205,0.085
'0:06.214',-0.195,0.100
'0:06.217',-0.210,0.120
'0:06.219',-0.185,0.140
'0:06.222',-0.170,0.130
'0:06.225',-0.185,0.125
'0:06.228',-0.205,0.100
'0:06.231',-0.215,0.105
'0:06.233',-0.190,0.125
'0:06.236',-0.175,0.150
'0:06.239',-0.165,0.150
'0:06.242',-0.175,0.155
'0:06.244',-0.185,0.130
'0:06.247',-0.185,0.150
'0:06.250',-0.185,0.160
'0:06.253',-0.190,0.175
'0:06.256',-0.165,0.145
'0:06.258',-0.180,0.120
'0:06.261',-0.200,0.120
'0:06.264',-0.225,0.125
'0:06.267',-0.205,0.140
'0:06.269',-0.190,0.165
'0:06.272',-0.180,0.145
'0:06.275',-0.180,0.155
'0:06.278',-0.185,0.135
'0:06.281',-0.190,0.140
'0:06.283',-0.205,0.150
'0:06.286',-0.180,0.145
'0:06.289',-0.190,0.145
'0:06.292',-0.190,0.125
'0:06.294',-0.215,0.120
'0:06.297',-0.235,0.135
'0:06.300',-0.215,0.135
'0:06.303',-0.195,0.145
'0:06.306',-0.170,0.140
'0:06.308',-0.180,0.130
'0:06.311',-0.190,0.115
'0:06.314',-0.205,0.120
'0:06.317',-0.210,0.130
'0:06.319',-0.190,0.150
'0:06.322',-0.185,0.145
'0:06.325',-0.210,0.130
'0:06.328',-0.220,0.125
'0:06.331',-0.230,0.130
'0:06.333',-0.235,0.145
'0:06.336',-0.215,0.160
'0:06.339',-0.190,0.170
'0:06.342',-0.215,0.150
'0:06.344',-0.235,0.125
'0:06.347',-0.220,0.120
'0:06.350',-0.210,0.135
'0:06.353',-0.205,0.155
'0:06.356',-0.200,0.150
'0:06.358',-0.185,0.120
'0:06.361',-0.200,0.090
'0:06.364',-0.210,0.105
'0:06.367',-0.220,0.135
'0:06.369',-0.210,0.155
'0:06.372',-0.200,0.160
'0:06.375',-0.200,0.155
'0:06.378',-0.185,0.130
'0:06.381',-0.210,0.140
'0:06.383',-0.210,0.145
'0:06.386',-0.205,0.155
'0:06.389',-0.185,0.155
'0:06.392',-0.195,0.155
'0:06.394',-0.190,0.150
'0:06.397',-0.200,0.150
'0:06.400',-0.205,0.155
'0:06.403',-0.205,0.150
'0:06.406',-0.200,0.155
'0:06.408',-0.190,0.140
'0:06.411',-0.200,0.120
'0:06.414',-0.195,0.120
'0:06.417',-0.200,0.120
'0:06.419',-0.195,0.145
'0:06.422',-0.195,0.140
'0:06.425',-0.200,0.150
'0:06.428',-0.220,0.145
'0:06.431',-0.200,0.135
'0:06.433',-0.180,0.140
'0:06.436',-0.175,0.160
'0:06.439',-0.160,0.160
'0:06.442',-0.180,0.155
'0:06.444',-0.195,0.135
'0:06.447',-0.205,0.145
'0:06.450',-0.200,0.155
'0:06.453',-0.175,0.165
'0:06.456',-0.145,0.145
'0:06.458',-0.160,0.140
'0:06.461',-0.170,0.130
'0:06.464',-0.190,0.130
'0:06.467',-0.185,0.140
'0:06.469',-0.160,0.140
'0:06.472',-0.165,0.140
'0:06.475',-0.170,0.120
'0:06.478',-0.180,0.130
'0:06.481',-0.185,0.135
'0:06.483',-0.165,0.140
'0:06.486',-0.145,0.160
'0:06.489',-0.135,0.145
'0:06.492',-0.145,0.115
'0:06.494',-0.165,0.115
'0:06.497',-0.150,0.115
'0:06.500',-0.170,0.135
'0:06.503',-0.155,0.140
'0:06.506',-0.165,0.135
'0:06.508',-0.145,0.105
'0:06.511',-0.145,0.080
'0:06.514',-0.115,0.075
'0:06.517',-0.045,0.075
'0:06.519',0.040,0.090
'0:06.522',0.130,0.070
'0:06.525',0.215,0.060
'0:06.528',0.320,0.020
'0:06.531',0.455,0.010
'0:06.533',0.625,-0.010
'0:06.536',0.820,-0.035
'0:06.539',1.035,-0.055
'0:06.542',1.215,-0.060
'0:06.544',1.340,-0.035
'0:06.547',1.400,0.050
'0:06.550',1.350,0.150
'0:06.553',1.195,0.195
'0:06.556',0.935,0.185
'0:06.558',0.640,0.170
'0:06.561',0.325,0.195
'0:06.564',0.010,0.260
'0:06.567',-0.245,0.325
'0:06.569',-0.355,0.365
'0:06.572',-0.350,0.355
'0:06.575',-0.275,0.310
'0:06.578',-0.265,0.230
'0:06.581',-0.245,0.195
'0:06.583',-0.225,0.170
'0:06.586',-0.200,0.165
'0:06.589',-0.185,0.145
'0:06.592',-0.220,0.130
'0:06.594',-0.230,0.130
'0:06.597',-0.240,0.130
'0:06.600',-0.250,0.140
'0:06.603',-0.230,0.145
'0:06.606',-0.230,0.145
'0:06.608',-0.260,0.115
'0:06.611',-0.265,0.115
'0:06.614',-0.295,0.130
'0:06.617',-0.270,0.130
'0:06.619',-0.260,0.150
'0:06.622',-0.250,0.145
'0:06.625',-0.265,0.125
'0:06.628',-0.280,0.100
'0:06.631',-0.280,0.105
'0:06.633',-0.290,0.100
'0:06.636',-0.260,0.105
'0:06.639',-0.245,0.110
'0:06.642',-0.270,0.110
'0:06.644',-0.275,0.105
'0:06.647',-0.290,0.100
'0:06.650',-0.270,0.090
'0:06.653',-0.260,0.110
'0:06.656',-0.245,0.100
'0:06.658',-0.250,0.100
'0:06.661',-0.260,0.100
'0:06.664',-0.265,0.110
'0:06.667',-0.270,0.125
'0:06.669',-0.255,0.135
'0:06.672',-0.260,0.130
'0:06.675',-0.265,0.130
'0:06.678',-0.275,0.125
'0:06.681',-0.285,0.110
'0:06.683',-0.295,0.115
'0:06.686',-0.280,0.130
'0:06.689',-0.250,0.125
'0:06.692',-0.240,0.110
'0:06.694',-0.240,0.090
'0:06.697',-0.265,0.080
'0:06.700',-0.260,0.100
'0:06.703',-0.245,0.125
'0:06.706',-0.230,0.115
'0:06.708',-0.235,0.115
'0:06.711',-0.240,0.105
'0:06.714',-0.235,0.105
'0:06.717',-0.230,0.115
'0:06.719',-0.235,0.120
'0:06.722',-0.220,0.100
'0:06.725',-0.200,0.095
'0:06.728',-0.215,0.075
'0:06.731',-0.235,0.095
'0:06.733',-0.220,0.100
'0:06.736',-0.215,0.105
'0:06.739',-0.195,0.080
'0:06.742',-0.200,0.060
'0:06.744',-0.215,0.045
'0:06.747',-0.225,0.050
'0:06.750',-0.190,0.050
'0:06.753',-0.150,0.045
'0:06.756',-0.120,0.035
'0:06.758',-0.125,0.000
'0:06.761',-0.140,-0.025
'0:06.764',-0.140,-0.025
'0:06.767',-0.135,-0.015
'0:06.769',-0.110,-0.010
'0:06.772',-0.080,-0.020
'0:06.775',-0.095,-0.040
'0:06.778',-0.100,-0.070
'0:06.781',-0.100,-0.070
'0:06.783',-0.095,-0.070
'0:06.786',-0.070,-0.060
'0:06.789',-0.045,-0.070
'0:06.792',-0.050,-0.085
'0:06.794',-0.090,-0.100
'0:06.797',-0.065,-0.085
'0:06.800',-0.060,-0.080
'0:06.803',-0.050,-0.075
'0:06.806',-0.040,-0.095
'0:06.808',-0.030,-0.095
'0:06.811',-0.040,-0.085
'0:06.814',-0.055,-0.100
'0:06.817',-0.035,-0.075
'0:06.819',-0.040,-0.060
'0:06.822',-0.015,-0.075
'0:06.825',-0.030,-0.075
'0:06.828',-0.045,-0.090
'0:06.831',-0.050,-0.070
'0:06.833',-0.040,-0.045
'0:06.836',-0.040,-0.025
'0:06.839',-0.045,-0.025
'0:06.842',-0.045,-0.020
'0:06.844',-0.055,-0.025
'0:06.847',-0.070,-0.020
'0:06.850',-0.080,0.000
'0:06.853',-0.080,0.020
'0:06.856',-0.090,0.040
'0:06.858',-0.100,0.035
'0:06.861',-0.125,0.025
'0:06.864',-0.135,0.035
'0:06.867',-0.130,0.065
'0:06.869',-0.105,0.090
'0:06.872',-0.090,0.095
'0:06.875',-0.130,0.080
'0:06.878',-0.165,0.075
'0:06.881',-0.185,0.095
'0:06.883',-0.180,0.120
'0:06.886',-0.170,0.150
'0:06.889',-0.170,0.140
'0:06.892',-0.170,0.130
'0:06.894',-0.180,0.120
'0:06.897',-0.190,0.130
'0:06.900',-0.185,0.145
'0:06.903',-0.195,0.145
'0:06.906',-0.180,0.135
'0:06.908',-0.185,0.125
'0:06.911',-0.195,0.115
'0:06.914',-0.190,0.135
'0:06.917',-0.185,0.140
'0:06.919',-0.165,0.165
'0:06.922',-0.135,0.155
'0:06.925',-0.145,0.155
'0:06.928',-0.145,0.130
'0:06.931',-0.145,0.130
'0:06.933',-0.105,0.140
'0:06.936',-0.055,0.155
'0:06.939',-0.005,0.170
'0:06.942',0.005,0.165
'0:06.944',0.005,0.170
'0:06.947',0.030,0.195
'0:06.950',0.065,0.205
'0:06.953',0.140,0.205
'0:06.956',0.215,0.170
'0:06.958',0.275,0.095
'0:06.961',0.345,-0.005
'0:06.964',0.395,-0.080
'0:06.967',0.470,-0.135
'0:06.969',0.570,-0.205
'0:06.972',0.645,-0.265
'0:06.975',0.705,-0.355
'0:06.978',0.750,-0.430
'0:06.981',0.820,-0.535
'0:06.983',0.915,-0.625
'0:06.986',1.035,-0.710
'0:06.989',1.120,-0.815
'0:06.992',1.160,-0.905
'0:06.994',1.170,-0.965
'0:06.997',1.145,-0.965
'0:07.000',1.125,-0.940
'0:07.003',1.120,-0.920
'0:07.006',1.105,-0.950
'0:07.008',1.055,-0.985
'0:07.011',0.980,-1.010
'0:07.014',0.890,-1.010
'0:07.017',0.785,-0.990
'0:07.019',0.670,-0.940
'0:07.022',0.555,-0.920
'0:07.025',0.425,-0.890
'0:07.028',0.290,-0.855
'0:07.031',0.170,-0.790
'0:07.033',0.075,-0.720
'0:07.036',0.015,-0.620
'0:07.039',-0.010,-0.560
'0:07.042',-0.025,-0.505
'0:07.044',-0.055,-0.435
'0:07.047',-0.075,-0.380
'0:07.050',-0.085,-0.310
'0:07.053',-0.045,-0.250
'0:07.056',0.025,-0.200
'0:07.058',0.100,-0.150
'0:07.061',0.165,-0.120
'0:07.064',0.215,-0.095
'0:07.067',0.220,-0.065
'0:07.069',0.150,-0.030
'0:07.072',0.025,0.010
'0:07.075',-0.140,0.045
'0:07.078',-0.285,0.085
'0:07.081',-0.350,0.150
'0:07.083',-0.405,0.225
'0:07.086',-0.410,0.285
'0:07.089',-0.425,0.315
'0:07.092',-0.430,0.345
'0:07.094',-0.470,0.345
'0:07.097',-0.505,0.370
'0:07.100',-0.515,0.395
'0:07.103',-0.510,0.415
'0:07.106',-0.500,0.415
'0:07.108',-0.520,0.400
'0:07.111',-0.560,0.395
'0:07.114',-0.580,0.400
'0:07.117',-0.575,0.420
'0:07.119',-0.560,0.440
'0:07.122',-0.560,0.445
'0:07.125',-0.585,0.440
'0:07.128',-0.605,0.425
'0:07.131',-0.615,0.440
'0:07.133',-0.610,0.460
'0:07.136',-0.610,0.490
'0:07.139',-0.605,0.475
'0:07.142',-0.625,0.480
'0:07.144',-0.630,0.480
'0:07.147',-0.660,0.480
'0:07.150',-0.645,0.510
'0:07.153',-0.650,0.520
'0:07.156',-0.640,0.525
'0:07.158',-0.670,0.505
'0:07.161',-0.670,0.505
'0:07.164',-0.695,0.525
'0:07.167',-0.695,0.545
'0:07.169',-0.680,0.560
'0:07.172',-0.665,0.575
'0:07.175',-0.670,0.555
'0:07.178',-0.690,0.545
'0:07.181',-0.710,0.575
'0:07.183',-0.690,0.595
'0:07.186',-0.695,0.630
'0:07.189',-0.690,0.635
'0:07.192',-0.700,0.635
'0:07.194',-0.720,0.640
'0:07.197',-0.725,0.650
'0:07.200',-0.720,0.685
'0:07.203',-0.700,0.710
'0:07.206',-0.690,0.700
'0:07.208',-0.685,0.705
'0:07.211',-0.705,0.715
'0:07.214',-0.705,0.725
'0:07.217',-0.695,0.735
'0:07.219',-0.675,0.770
'0:07.222',-0.670,0.780
'0:07.225',-0.660,0.775
'0:07.228',-0.675,0.775
'0:07.231',-0.650,0.785
'0:07.233',-0.635,0.805
'0:07.236',-0.605,0.825
'0:07.239',-0.600,0.825
'0:07.242',-0.610,0.800
'0:07.244',-0.600,0.790
'0:07.247',-0.600,0.785
'0:07.250',-0.570,0.790
'0:07.253',-0.555,0.800
'0:07.256',-0.525,0.785
'0:07.258',-0.515,0.755
'0:07.261',-0.520,0.740
'0:07.264',-0.515,0.730
'0:07.267',-0.500,0.725
'0:07.269',-0.470,0.715
'0:07.272',-0.435,0.705
'0:07.275',-0.430,0.655
'0:07.278',-0.410,0.640
'0:07.281',-0.400,0.620
'0:07.283',-0.375,0.600
'0:07.286',-0.360,0.590
'0:07.289',-0.350,0.560
'0:07.292',-0.325,0.535
'0:07.294',-0.330,0.490
'0:07.297',-0.335,0.480
'0:07.300',-0.305,0.460
'0:07.303',-0.290,0.450
'0:07.306',-0.280,0.405
'0:07.308',-0.305,0.385
'0:07.311',-0.315,0.355
'0:07.314',-0.315,0.345
'0:07.317',-0.305,0.340
'0:07.319',-0.305,0.335
'0:07.322',-0.290,0.305
'0:07.325',-0.290,0.290
'0:07.328',-0.305,0.260
'0:07.331',-0.315,0.255
'0:07.333',-0.310,0.245
'0:07.336',-0.305,0.255
'0:07.339',-0.295,0.245
'0:07.342',-0.295,0.230
'0:07.344',-0.305,0.210
'0:07.347',-0.335,0.200
'0:07.350',-0.335,0.215
'0:07.353',-0.310,0.210
'0:07.356',-0.320,0.210
'0:07.358',-0.330,0.180
'0:07.361',-0.325,0.185
'0:07.364',-0.320,0.185
'0:07.367',-0.300,0.195
'0:07.369',-0.280,0.205
'0:07.372',-0.280,0.180
'0:07.375',-0.270,0.165
'0:07.378',-0.295,0.150
'0:07.381',-0.290,0.165
'0:07.383',-0.290,0.180
'0:07.386',-0.265,0.210
'0:07.389',-0.255,0.195
'0:07.392',-0.245,0.170
'0:07.394',-0.265,0.140
'0:07.397',-0.270,0.140
'0:07.400',-0.280,0.155
'0:07.403',-0.275,0.165
'0:07.406',-0.255,0.160
'0:07.408',-0.260,0.150
'0:07.411',-0.250,0.130
'0:07.414',-0.260,0.140
'0:07.417',-0.265,0.160
'0:07.419',-0.240,0.165
'0:07.422',-0.235,0.150
'0:07.425',-0.235,0.140
'0:07.428',-0.275,0.135
'0:07.431',-0.285,0.135
'0:07.433',-0.285,0.130
'0:07.436',-0.255,0.155
'0:07.439',-0.230,0.155
'0:07.442',-0.230,0.155
'0:07.444',-0.250,0.135
'0:07.447',-0.265,0.145
'0:07.450',-0.260,0.150
'0:07.453',-0.260,0.155
'0:07.456',-0.255,0.150
'0:07.458',-0.260,0.155
'0:07.461',-0.265,0.140
'0:07.464',-0.265,0.155
'0:07.467',-0.260,0.165
'0:07.469',-0.255,0.190
'0:07.472',-0.235,0.190
'0:07.475',-0.240,0.175
'0:07.478',-0.255,0.165
'0:07.481',-0.260,0.170
'0:07.483',-0.275,0.185
'0:07.486',-0.250,0.190
'0:07.489',-0.245,0.170
'0:07.492',-0.245,0.130
'0:07.494',-0.260,0.120
'0:07.497',-0.265,0.115
'0:07.500',-0.250,0.115
'0:07.503',-0.240,0.125
'0:07.506',-0.245,0.130
'0:07.508',-0.245,0.125
'0:07.511',-0.250,0.115
'0:07.514',-0.275,0.120
'0:07.517',-0.265,0.130
'0:07.519',-0.260,0.155
'0:07.522',-0.255,0.150
'0:07.525',-0.255,0.140
'0:07.528',-0.265,0.145
'0:07.531',-0.275,0.135
'0:07.533',-0.260,0.140
'0:07.536',-0.255,0.155
'0:07.539',-0.240,0.150
'0:07.542',-0.255,0.145
'0:07.544',-0.255,0.145
'0:07.547',-0.255,0.155
'0:07.550',-0.260,0.160
'0:07.553',-0.245,0.170
'0:07.556',-0.240,0.165
'0:07.558',-0.255,0.145
'0:07.561',-0.270,0.145
'0:07.564',-0.280,0.130
'0:07.567',-0.265,0.155
'0:07.569',-0.250,0.170
'0:07.572',-0.240,0.155
'0:07.575',-0.245,0.145
'0:07.578',-0.270,0.140
'0:07.581',-0.265,0.140
'0:07.583',-0.255,0.155
'0:07.586',-0.245,0.155
'0:07.589',-0.235,0.135
'0:07.592',-0.245,0.120
'0:07.594',-0.250,0.135
'0:07.597',-0.270,0.150
'0:07.600',-0.265,0.155
'0:07.603',-0.240,0.180
'0:07.606',-0.235,0.190
'0:07.608',-0.245,0.175
'0:07.611',-0.280,0.160
'0:07.614',-0.265,0.160
'0:07.617',-0.270,0.185
'0:07.619',-0.260,0.200
'0:07.622',-0.245,0.175
'0:07.625',-0.240,0.155
'0:07.628',-0.260,0.135
'0:07.631',-0.265,0.140
'0:07.633',-0.275,0.135
'0:07.636',-0.250,0.135
'0:07.639',-0.250,0.145
'0:07.642',-0.245,0.145
'0:07.644',-0.255,0.135
'0:07.647',-0.255,0.120
'0:07.650',-0.260,0.130
'0:07.653',-0.255,0.150
'0:07.656',-0.250,0.145
'0:07.658',-0.265,0.125
'0:07.661',-0.285,0.105
'0:07.664',-0.300,0.125
'0:07.667',-0.260,0.145
'0:07.669',-0.250,0.165
'0:07.672',-0.240,0.160
'0:07.675',-0.235,0.145
'0:07.678',-0.240,0.145
'0:07.681',-0.250,0.140
'0:07.683',-0.250,0.165
'0:07.686',-0.255,0.175
'0:07.689',-0.245,0.175
'0:07.692',-0.245,0.160
'0:07.694',-0.250,0.155
'0:07.697',-0.255,0.165
'0:07.700',-0.250,0.175
'0:07.703',-0.240,0.185
'0:07.706',-0.230,0.190
'0:07.708',-0.240,0.175
'0:07.711',-0.250,0.170
'0:07.714',-0.255,0.175
'0:07.717',-0.270,0.180
'0:07.719',-0.260,0.190
'0:07.722',-0.245,0.185
'0:07.725',-0.250,0.175
'0:07.728',-0.265,0.170
'0:07.731',-0.275,0.155
'0:07.733',-0.260,0.170
'0:07.736',-0.240,0.190
'0:07.739',-0.230,0.190
'0:07.742',-0.240,0.160
'0:07.744',-0.245,0.135
'0:07.747',-0.265,0.120
'0:07.750',-0.265,0.135
'0:07.753',-0.240,0.145
'0:07.756',-0.230,0.140
'0:07.758',-0.215,0.130
'0:07.761',-0.240,0.115
'0:07.764',-0.245,0.110
'0:07.767',-0.245,0.115
'0:07.769',-0.235,0.140
'0:07.772',-0.215,0.135
'0:07.775',-0.225,0.125
'0:07.778',-0.240,0.100
'0:07.781',-0.255,0.110
'0:07.783',-0.240,0.125
'0:07.786',-0.240,0.145
'0:07.789',-0.215,0.135
'0:07.792',-0.210,0.130
'0:07.794',-0.230,0.105
'0:07.797',-0.235,0.130
'0:07.800',-0.205,0.145
'0:07.803',-0.180,0.140
'0:07.806',-0.180,0.125
'0:07.808',-0.190,0.115
'0:07.811',-0.200,0.100
'0:07.814',-0.190,0.095
'0:07.817',-0.150,0.095
'0:07.819',-0.110,0.105
'0:07.822',-0.030,0.085
'0:07.825',0.035,0.065
'0:07.828',0.100,0.050
'0:07.831',0.225,0.055
'0:07.833',0.390,0.050
'0:07.836',0.570,0.020
'0:07.839',0.775,-0.025
'0:07.842',0.970,-0.075
'0:07.844',1.105,-0.100
'0:07.847',1.235,-0.060
'0:07.850',1.320,0.060
'0:07.853',1.295,0.155
'0:07.856',1.145,0.205
'0:07.858',0.860,0.205
'0:07.861',0.525,0.210
'0:07.864',0.185,0.245
'0:07.867',-0.105,0.290
'0:07.869',-0.305,0.330
'0:07.872',-0.385,0.320
'0:07.875',-0.370,0.295
'0:07.878',-0.330,0.250
'0:07.881',-0.290,0.200
'0:07.883',-0.260,0.155
'0:07.886',-0.235,0.145
'0:07.889',-0.230,0.120
'0:07.892',-0.275,0.115
'0:07.894',-0.290,0.115
'0:07.897',-0.315,0.110
'0:07.900',-0.285,0.130
'0:07.903',-0.305,0.140
'0:07.906',-0.275,0.135
'0:07.908',-0.300,0.120
'0:07.911',-0.305,0.115
'0:07.914',-0.310,0.130
'0:07.917',-0.315,0.130
'0:07.919',-0.300,0.150
'0:07.922',-0.305,0.145
'0:07.925',-0.310,0.130
'0:07.928',-0.320,0.120
'0:07.931',-0.325,0.125
'0:07.933',-0.305,0.135
'0:07.936',-0.320,0.135
'0:07.939',-0.305,0.145
'0:07.942',-0.325,0.140
'0:07.944',-0.320,0.145
'0:07.947',-0.310,0.150
'0:07.950',-0.300,0.160
'0:07.953',-0.300,0.165
'0:07.956',-0.295,0.160
'0:07.958',-0.315,0.145
'0:07.961',-0.315,0.120
'0:07.964',-0.320,0.105
'0:07.967',-0.320,0.110
'0:07.969',-0.320,0.135
'0:07.972',-0.300,0.130
'0:07.975',-0.310,0.120
'0:07.978',-0.325,0.115
'0:07.981',-0.325,0.110
'0:07.983',-0.320,0.130
'0:07.986',-0.320,0.150
'0:07.989',-0.320,0.140
'0:07.992',-0.315,0.130
'0:07.994',-0.330,0.120
'0:07.997',-0.340,0.125
'0:08.000',-0.320,0.135
'0:08.003',-0.310,0.140
'0:08.006',-0.300,0.150
'0:08.008',-0.300,0.135
'0:08.011',-0.325,0.120
'0:08.014',-0.320,0.110
'0:08.017',-0.300,0.120
'0:08.019',-0.280,0.140
'0:08.022',-0.265,0.130
'0:08.025',-0.275,0.125
'0:08.028',-0.280,0.110
'0:08.031',-0.280,0.120
'0:08.033',-0.275,0.120
'0:08.036',-0.250,0.130
'0:08.039',-0.235,0.105
'0:08.042',-0.240,0.070
'0:08.044',-0.255,0.070
'0:08.047',-0.255,0.075
'0:08.050',-0.260,0.075
'0:08.053',-0.245,0.080
'0:08.056',-0.225,0.065
'0:08.058',-0.210,0.040
'0:08.061',-0.210,0.030
'0:08.064',-0.200,0.035
'0:08.067',-0.175,0.035
'0:08.069',-0.145,0.040
'0:08.072',-0.150,0.020
'0:08.075',-0.145,-0.010
'0:08.078',-0.150,-0.035
'0:08.081',-0.170,-0.025
'0:08.083',-0.175,-0.015
'0:08.086',-0.155,-0.005
'0:08.089',-0.150,-0.015
'0:08.092',-0.170,-0.035
'0:08.094',-0.150,-0.060
'0:08.097',-0.160,-0.045
'0:08.100',-0.155,-0.045
'0:08.103',-0.140,-0.045
'0:08.106',-0.125,-0.050
'0:08.108',-0.110,-0.060
'0:08.111',-0.110,-0.080
'0:08.114',-0.110,-0.075
'0:08.117',-0.095,-0.075
'0:08.119',-0.090,-0.070
'0:08.122',-0.075,-0.080
'0:08.125',-0.090,-0.075
'0:08.128',-0.085,-0.085
'0:08.131',-0.105,-0.065
'0:08.133',-0.105,-0.060
'0:08.136',-0.070,-0.055
'0:08.139',-0.055,-0.080
'0:08.142',-0.060,-0.070
'0:08.144',-0.075,-0.080
'0:08.147',-0.085,-0.055
'0:08.150',-0.085,-0.035
'0:08.153',-0.075,-0.005
'0:08.156',-0.050,0.000
'0:08.158',-0.055,-0.005
'0:08.161',-0.080,0.005
'0:08.164',-0.095,0.015
'0:08.167',-0.105,0.035
'0:08.169',-0.110,0.060
'0:08.172',-0.090,0.065
'0:08.175',-0.115,0.075
'0:08.178',-0.125,0.090
'0:08.181',-0.150,0.095
'0:08.183',-0.145,0.125
'0:08.186',-0.145,0.140
'0:08.189',-0.155,0.140
'0:08.192',-0.180,0.150
'0:08.194',-0.200,0.150
'0:08.197',-0.220,0.135
'0:08.200',-0.215,0.150
'0:08.203',-0.195,0.165
'0:08.206',-0.195,0.165
'0:08.208',-0.210,0.140
'0:08.211',-0.245,0.125
'0:08.214',-0.250,0.140
'0:08.217',-0.245,0.145
'0:08.219',-0.240,0.145
'0:08.222',-0.240,0.135
'0:08.225',-0.250,0.120
'0:08.228',-0.250,0.125
'0:08.231',-0.260,0.135
'0:08.233',-0.250,0.140
'0:08.236',-0.230,0.155
'0:08.239',-0.235,0.160
'0:08.242',-0.230,0.140
'0:08.244',-0.255,0.125
'0:08.247',-0.250,0.125
'0:08.250',-0.250,0.155
'0:08.253',-0.225,0.170
'0:08.256',-0.230,0.170
'0:08.258',-0.220,0.150
'0:08.261',-0.245,0.125
'0:08.264',-0.255,0.135
'0:08.267',-0.250,0.135
'0:08.269',-0.225,0.170
'0:08.272',-0.205,0.155
'0:08.275',-0.210,0.140
'0:08.278',-0.225,0.120
'0:08.281',-0.235,0.125
'0:08.283',-0.220,0.145
'0:08.286',-0.220,0.155
'0:08.289',-0.200,0.150
'0:08.292',-0.215,0.135
'0:08.294',-0.200,0.125
'0:08.297',-0.215,0.135
'0:08.300',-0.200,0.145
'0:08.303',-0.180,0.165
'0:08.306',-0.170,0.175
'0:08.308',-0.170,0.170
'0:08.311',-0.195,0.155
'0:08.314',-0.210,0.150
'0:08.317',-0.215,0.160
'0:08.319',-0.190,0.155
'0:08.322',-0.195,0.130
'0:08.325',-0.205,0.130
'0:08.328',-0.215,0.125
'0:08.331',-0.210,0.130
'0:08.333',-0.195,0.155
'0:08.336',-0.175,0.165
'0:08.339',-0.155,0.150
'0:08.342',-0.165,0.120
'0:08.344',-0.205,0.105
'0:08.347',-0.200,0.105
'0:08.350',-0.195,0.105
'0:08.353',-0.195,0.135
'0:08.356',-0.200,0.120
'0:08.358',-0.200,0.105
'0:08.361',-0.210,0.090
'0:08.364',-0.210,0.090
'0:08.367',-0.210,0.105
'0:08.369',-0.200,0.135
'0:08.372',-0.200,0.125
'0:08.375',-0.220,0.110
'0:08.378',-0.225,0.095
'0:08.381',-0.220,0.115
'0:08.383',-0.215,0.115
'0:08.386',-0.190,0.120
'0:08.389',-0.205,0.120
'0:08.392',-0.215,0.120
'0:08.394',-0.245,0.115
'0:08.397',-0.245,0.110
'0:08.400',-0.230,0.130
'0:08.403',-0.215,0.135
'0:08.406',-0.190,0.130
'0:08.408',-0.190,0.135
'0:08.411',-0.210,0.115
'0:08.414',-0.220,0.125
'0:08.417',-0.230,0.130
'0:08.419',-0.230,0.150
'0:08.422',-0.200,0.155
'0:08.425',-0.195,0.135
'0:08.428',-0.210,0.125
'0:08.431',-0.215,0.115
'0:08.433',-0.205,0.130
'0:08.436',-0.205,0.145
'0:08.439',-0.205,0.140
'0:08.442',-0.205,0.140
'0:08.444',-0.225,0.115
'0:08.447',-0.230,0.130
'0:08.450',-0.225,0.120
'0:08.453',-0.205,0.135
'0:08.456',-0.185,0.135
'0:08.458',-0.195,0.125
'0:08.461',-0.195,0.115
'0:08.464',-0.195,0.105
'0:08.467',-0.185,0.120
'0:08.469',-0.195,0.135
'0:08.472',-0.180,0.105
'0:08.475',-0.180,0.080
'0:08.478',-0.155,0.060
'0:08.481',-0.120,0.055
'0:08.483',-0.040,0.080
'0:08.486',0.035,0.080
'0:08.489',0.130,0.060
'0:08.492',0.235,0.030
'0:08.494',0.390,0.020
'0:08.497',0.545,0.010
'0:08.500',0.760,-0.025
'0:08.503',0.990,-0.035
'0:08.506',1.165,-0.040
'0:08.508',1.320,-0.030
'0:08.511',1.390,0.010
'0:08.514',1.365,0.115
'0:08.517',1.255,0.180
'0:08.519',1.065,0.210
'0:08.522',0.805,0.190
'0:08.525',0.500,0.175
'0:08.528',0.195,0.205
'0:08.531',-0.110,0.275
'0:08.533',-0.340,0.330
'0:08.536',-0.460,0.365
'0:08.539',-0.465,0.385
'0:08.542',-0.415,0.355
'0:08.544',-0.365,0.310
'0:08.547',-0.335,0.260
'0:08.550',-0.305,0.225
'0:08.553',-0.265,0.220
'0:08.556',-0.265,0.170
'0:08.558',-0.260,0.140
'0:08.561',-0.290,0.120
'0:08.564',-0.285,0.090
'0:08.567',-0.290,0.105
'0:08.569',-0.280,0.120
'0:08.572',-0.280,0.125
'0:08.575',-0.285,0.115
'0:08.578',-0.305,0.115
'0:08.581',-0.310,0.115
'0:08.583',-0.310,0.130
'0:08.586',-0.305,0.140
'0:08.589',-0.295,0.125
'0:08.592',-0.305,0.110
'0:08.594',-0.330,0.120
'0:08.597',-0.345,0.115
'0:08.600',-0.315,0.130
'0:08.603',-0.305,0.130
'0:08.606',-0.310,0.135
'0:08.608',-0.315,0.110
'0:08.611',-0.330,0.095
'0:08.614',-0.340,0.100
'0:08.617',-0.325,0.120
'0:08.619',-0.325,0.125
'0:08.622',-0.300,0.120
'0:08.625',-0.320,0.115
'0:08.628',-0.330,0.100
'0:08.631',-0.340,0.105
'0:08.633',-0.325,0.135
'0:08.636',-0.310,0.145
'0:08.639',-0.315,0.140
'0:08.642',-0.320,0.110
'0:08.644',-0.315,0.090
'0:08.647',-0.335,0.090
'0:08.650',-0.335,0.110
'0:08.653',-0.325,0.110
'0:08.656',-0.310,0.110
'0:08.658',-0.325,0.090
'0:08.661',-0.335,0.080
'0:08.664',-0.325,0.080
'0:08.667',-0.300,0.105
'0:08.669',-0.285,0.120
'0:08.672',-0.295,0.110
'0:08.675',-0.310,0.105
'0:08.678',-0.330,0.085
'0:08.681',-0.315,0.075
'0:08.683',-0.325,0.075
'0:08.686',-0.310,0.085
'0:08.689',-0.285,0.085
'0:08.692',-0.300,0.070
'0:08.694',-0.325,0.060
'0:08.697',-0.325,0.065
'0:08.700',-0.320,0.075
'0:08.703',-0.310,0.070
'0:08.706',-0.295,0.080
'0:08.708',-0.305,0.050
'0:08.711',-0.315,0.040
'0:08.714',-0.295,0.035
'0:08.717',-0.280,0.040
'0:08.719',-0.270,0.050
'0:08.722',-0.245,0.045
'0:08.725',-0.240,0.025
'0:08.728',-0.245,-0.005
'0:08.731',-0.245,0.010
'0:08.733',-0.225,-0.025
'0:08.736',-0.225,-0.030
'0:08.739',-0.220,-0.045
'0:08.742',-0.230,-0.055
'0:08.744',-0.225,-0.065
'0:08.747',-0.215,-0.070
'0:08.750',-0.205,-0.065
'0:08.753',-0.180,-0.040
'0:08.756',-0.175,-0.060
'0:08.758',-0.190,-0.080
'0:08.761',-0.195,-0.100
'0:08.764',-0.185,-0.095
'0:08.767',-0.170,-0.080
'0:08.769',-0.150,-0.090
'0:08.772',-0.140,-0.100
'0:08.775',-0.140,-0.120
'0:08.778',-0.150,-0.115
'0:08.781',-0.150,-0.110
'0:08.783',-0.150,-0.125
'0:08.786',-0.130,-0.105
'0:08.789',-0.125,-0.115
'0:08.792',-0.120,-0.120
'0:08.794',-0.155,-0.125
'0:08.797',-0.135,-0.105
'0:08.800',-0.115,-0.095
'0:08.803',-0.105,-0.055
'0:08.806',-0.110,-0.065
'0:08.808',-0.125,-0.065
'0:08.811',-0.140,-0.075
'0:08.814',-0.150,-0.055
'0:08.817',-0.150,-0.025
'0:08.819',-0.165,0.000
'0:08.822',-0.160,0.005
'0:08.825',-0.170,0.010
'0:08.828',-0.190,0.010
'0:08.831',-0.210,0.035
'0:08.833',-0.200,0.060
'0:08.836',-0.200,0.085
'0:08.839',-0.210,0.090
'0:08.842',-0.235,0.080
'0:08.844',-0.265,0.070
'0:08.847',-0.275,0.090
'0:08.850',-0.245,0.120
'0:08.853',-0.240,0.130
'0:08.856',-0.260,0.135
'0:08.858',-0.265,0.125
'0:08.861',-0.285,0.140
'0:08.864',-0.310,0.160
'0:08.867',-0.305,0.195
'0:08.869',-0.275,0.195
'0:08.872',-0.260,0.195
'0:08.875',-0.270,0.175
'0:08.878',-0.285,0.165
'0:08.881',-0.305,0.175
'0:08.883',-0.310,0.185
'0:08.886',-0.300,0.190
'0:08.889',-0.290,0.190
'0:08.892',-0.300,0.185
'0:08.894',-0.300,0.165
'0:08.897',-0.305,0.175
'0:08.900',-0.295,0.175
'0:08.903',-0.280,0.185
'0:08.906',-0.265,0.180
'0:08.908',-0.290,0.185
'0:08.911',-0.290,0.155
'0:08.914',-0.285,0.165
'0:08.917',-0.280,0.165
'0:08.919',-0.275,0.175
'0:08.922',-0.260,0.170
'0:08.925',-0.270,0.170
'0:08.928',-0.295,0.145
'0:08.931',-0.285,0.155
'0:08.933',-0.275,0.175
'0:08.936',-0.255,0.170
'0:08.939',-0.250,0.175
'0:08.942',-0.260,0.170
'0:08.944',-0.275,0.155
'0:08.947',-0.240,0.155
'0:08.950',-0.245,0.165
'0:08.953',-0.235,0.170
'0:08.956',-0.235,0.160
'0:08.958',-0.240,0.135
'0:08.961',-0.255,0.130
'0:08.964',-0.270,0.140
'0:08.967',-0.255,0.150
'0:08.969',-0.245,0.155
'0:08.972',-0.235,0.150
'0:08.975',-0.240,0.140
'0:08.978',-0.265,0.115
'0:08.981',-0.265,0.125
'0:08.983',-0.255,0.135
'0:08.986',-0.245,0.150
'0:08.989',-0.230,0.145
'0:08.992',-0.245,0.125
'0:08.994',-0.265,0.120
'0:08.997',-0.255,0.120
'0:09.000',-0.245,0.135
'0:09.003',-0.245,0.155
'0:09.006',-0.235,0.155
'0:09.008',-0.255,0.130
'0:09.011',-0.275,0.110
'0:09.014',-0.265,0.130
'0:09.017',-0.265,0.140
'0:09.019',-0.245,0.150
'0:09.022',-0.240,0.135
'0:09.025',-0.250,0.135
'0:09.028',-0.265,0.130
'0:09.031',-0.260,0.145
'0:09.033',-0.265,0.150
'0:09.036',-0.255,0.160
'0:09.039',-0.240,0.150
'0:09.042',-0.260,0.145
'0:09.044',-0.285,0.140
'0:09.047',-0.290,0.145
'0:09.050',-0.285,0.155
'0:09.053',-0.275,0.175
'0:09.056',-0.280,0.165
'0:09.058',-0.270,0.155
'0:09.061',-0.285,0.145
'0:09.064',-0.290,0.150
'0:09.067',-0.265,0.170
'0:09.069',-0.255,0.195
'0:09.072',-0.255,0.180
'0:09.075',-0.265,0.160
'0:09.078',-0.280,0.140
'0:09.081',-0.290,0.155
'0:09.083',-0.295,0.165
'0:09.086',-0.275,0.175
'0:09.089',-0.275,0.175
'0:09.092',-0.295,0.155
'0:09.094',-0.300,0.150
'0:09.097',-0.305,0.145
'0:09.100',-0.290,0.150
'0:09.103',-0.260,0.165
'0:09.106',-0.260,0.140
'0:09.108',-0.285,0.130
'0:09.111',-0.305,0.115
'0:09.114',-0.315,0.125
'0:09.117',-0.295,0.140
'0:09.119',-0.265,0.150
'0:09.122',-0.255,0.140
'0:09.125',-0.270,0.125
'0:09.128',-0.285,0.120
'0:09.131',-0.290,0.125
'0:09.133',-0.295,0.130
'0:09.136',-0.285,0.130
'0:09.139',-0.280,0.125
'0:09.142',-0.290,0.115
'0:09.144',-0.300,0.120
'0:09.147',-0.290,0.135
'0:09.150',-0.285,0.150
'0:09.153',-0.260,0.150
'0:09.156',-0.255,0.140
'0:09.158',-0.275,0.125
'0:09.161',-0.280,0.120
'0:09.164',-0.305,0.135
'0:09.167',-0.280,0.150
'0:09.169',-0.280,0.160
'0:09.172',-0.250,0.160
'0:09.175',-0.260,0.145
'0:09.178',-0.280,0.150
'0:09.181',-0.275,0.155
'0:09.183',-0.290,0.150
'0:09.186',-0.265,0.175
'0:09.189',-0.260,0.170
'0:09.192',-0.270,0.155
'0:09.194',-0.290,0.130
'0:09.197',-0.295,0.150
'0:09.200',-0.275,0.170
'0:09.203',-0.260,0.175
'0:09.206',-0.255,0.180
'0:09.208',-0.260,0.160
'0:09.211',-0.280,0.150
'0:09.214',-0.290,0.145
'0:09.217',-0.280,0.165
'0:09.219',-0.270,0.175
'0:09.222',-0.255,0.180
'0:09.225',-0.275,0.170
'0:09.228',-0.305,0.160
'0:09.231',-0.290,0.155
'0:09.233',-0.280,0.170
'0:09.236',-0.275,0.180
'0:09.239',-0.260,0.170
'0:09.242',-0.290,0.155
'0:09.244',-0.305,0.140
'0:09.247',-0.305,0.145
'0:09.250',-0.285,0.170
'0:09.253',-0.265,0.160
'0:09.256',-0.260,0.165
'0:09.258',-0.275,0.135
'0:09.261',-0.290,0.130
'0:09.264',-0.285,0.140
'0:09.267',-0.290,0.155
'0:09.269',-0.285,0.165
'0:09.272',-0.280,0.150
'0:09.275',-0.285,0.125
'0:09.278',-0.300,0.120
'0:09.281',-0.315,0.125
'0:09.283',-0.290,0.140
'0:09.286',-0.275,0.155
'0:09.289',-0.265,0.140
'0:09.292',-0.270,0.130
'0:09.294',-0.275,0.125
'0:09.297',-0.270,0.135
'0:09.300',-0.270,0.145
'0:09.303',-0.270,0.145
'0:09.306',-0.270,0.145
'0:09.308',-0.265,0.140
'0:09.311',-0.265,0.130
'0:09.314',-0.260,0.140
'0:09.317',-0.265,0.155
'0:09.319',-0.255,0.150
'0:09.322',-0.255,0.165
'0:09.325',-0.255,0.145
'0:09.328',-0.270,0.155
'0:09.331',-0.270,0.160
'0:09.333',-0.260,0.170
'0:09.336',-0.260,0.175
'0:09.339',-0.255,0.160
'0:09.342',-0.265,0.140
'0:09.344',-0.270,0.135
'0:09.347',-0.270,0.150
'0:09.350',-0.255,0.185
'0:09.353',-0.250,0.190
'0:09.356',-0.250,0.165
'0:09.358',-0.245,0.160
'0:09.361',-0.260,0.140
'0:09.364',-0.265,0.145
'0:09.367',-0.265,0.150
'0:09.369',-0.250,0.165
'0:09.372',-0.250,0.165
'0:09.375',-0.250,0.145
'0:09.378',-0.260,0.145
'0:09.381',-0.260,0.145
'0:09.383',-0.250,0.155
'0:09.386',-0.255,0.180
'0:09.389',-0.245,0.170
'0:09.392',-0.250,0.165
'0:09.394',-0.260,0.145
'0:09.397',-0.245,0.125
'0:09.400',-0.240,0.140
'0:09.403',-0.245,0.145
'0:09.406',-0.250,0.150
'0:09.408',-0.250,0.145
'0:09.411',-0.260,0.140
'0:09.414',-0.260,0.140
'0:09.417',-0.245,0.155
'0:09.419',-0.225,0.160
'0:09.422',-0.220,0.155
'0:09.425',-0.225,0.145
'0:09.428',-0.245,0.130
'0:09.431',-0.250,0.150
'0:09.433',-0.240,0.160
'0:09.436',-0.230,0.165
'0:09.439',-0.230,0.165
'0:09.442',-0.245,0.150
'0:09.444',-0.250,0.145
'0:09.447',-0.240,0.150
'0:09.450',-0.225,0.160
'0:09.453',-0.210,0.170
'0:09.456',-0.200,0.150
'0:09.458',-0.220,0.145
'0:09.461',-0.235,0.130
'0:09.464',-0.230,0.155
'0:09.467',-0.235,0.175
'0:09.469',-0.220,0.190
'0:09.472',-0.230,0.175
'0:09.475',-0.225,0.160
'0:09.478',-0.230,0.155
'0:09.481',-0.230,0.160
'0:09.483',-0.235,0.170
'0:09.486',-0.225,0.170
'0:09.489',-0.220,0.160
'0:09.492',-0.220,0.145
'0:09.494',-0.235,0.125
'0:09.497',-0.230,0.140
'0:09.500',-0.195,0.155
'0:09.503',-0.180,0.160
'0:09.506',-0.195,0.150
'0:09.508',-0.220,0.135
'0:09.511',-0.235,0.130
'0:09.514',-0.230,0.125
'0:09.517',-0.215,0.135
'0:09.519',-0.200,0.135
'0:09.522',-0.195,0.135
'0:09.525',-0.185,0.125
'0:09.528',-0.190,0.110
'0:09.531',-0.195,0.115
'0:09.533',-0.200,0.140
'0:09.536',-0.190,0.145
'0:09.539',-0.195,0.125
'0:09.542',-0.200,0.100
'0:09.544',-0.210,0.100
'0:09.547',-0.210,0.125
'0:09.550',-0.205,0.140
'0:09.553',-0.185,0.135
'0:09.556',-0.190,0.130
'0:09.558',-0.185,0.120
'0:09.561',-0.195,0.115
'0:09.564',-0.200,0.105
'0:09.567',-0.195,0.120
'0:09.569',-0.195,0.120
'0:09.572',-0.180,0.125
'0:09.575',-0.200,0.120
'0:09.578',-0.200,0.100
'0:09.581',-0.210,0.110
'0:09.583',-0.200,0.120
'0:09.586',-0.185,0.135
'0:09.589',-0.175,0.135
'0:09.592',-0.175,0.115
'0:09.594',-0.190,0.110
'0:09.597',-0.190,0.110
'0:09.600',-0.180,0.125
'0:09.603',-0.170,0.140
'0:09.606',-0.180,0.140
'0:09.608',-0.210,0.125
'0:09.611',-0.210,0.115
'0:09.614',-0.205,0.115
'0:09.617',-0.195,0.130
'0:09.619',-0.160,0.140
'0:09.622',-0.150,0.135
'0:09.625',-0.170,0.120
'0:09.628',-0.175,0.105
'0:09.631',-0.185,0.115
'0:09.633',-0.185,0.125
'0:09.636',-0.180,0.145
'0:09.639',-0.180,0.140
'0:09.642',-0.190,0.140
'0:09.644',-0.190,0.125
'0:09.647',-0.195,0.135
'0:09.650',-0.180,0.145
'0:09.653',-0.175,0.165
'0:09.656',-0.175,0.145
'0:09.658',-0.170,0.130
'0:09.661',-0.185,0.120
'0:09.664',-0.180,0.130
'0:09.667',-0.180,0.150
'0:09.669',-0.155,0.145
'0:09.672',-0.165,0.135
'0:09.675',-0.170,0.125
'0:09.678',-0.185,0.100
'0:09.681',-0.200,0.110
'0:09.683',-0.175,0.135
'0:09.686',-0.155,0.160
'0:09.689',-0.150,0.165
'0:09.692',-0.135,0.145
'0:09.694',-0.165,0.120
'0:09.697',-0.150,0.125
'0:09.700',-0.155,0.125
'0:09.703',-0.145,0.140
'0:09.706',-0.135,0.135
'0:09.708',-0.150,0.125
'0:09.711',-0.160,0.125
'0:09.714',-0.160,0.140
'0:09.717',-0.155,0.155
'0:09.719',-0.135,0.160
'0:09.722',-0.140,0.150
'0:09.725',-0.140,0.130
'0:09.728',-0.155,0.120
'0:09.731',-0.160,0.120
'0:09.733',-0.135,0.110
'0:09.736',-0.115,0.115
'0:09.739',-0.105,0.120
'0:09.742',-0.130,0.100
'0:09.744',-0.130,0.095
'0:09.747',-0.115,0.100
'0:09.750',-0.110,0.105
'0:09.753',-0.105,0.095
'0:09.756',-0.105,0.085
'0:09.758',-0.090,0.055
'0:09.761',-0.070,0.040
'0:09.764',-0.015,0.035
'0:09.767',0.085,0.025
'0:09.769',0.185,0.030
'0:09.772',0.310,0.015
'0:09.775',0.430,-0.005
'0:09.778',0.555,-0.035
'0:09.781',0.705,-0.070
'0:09.783',0.885,-0.085
'0:09.786',1.045,-0.100
'0:09.789',1.185,-0.115
'0:09.792',1.320,-0.115
'0:09.794',1.370,-0.070
'0:09.797',1.340,0.005
'0:09.800',1.190,0.070
'0:09.803',0.950,0.105
'0:09.806',0.655,0.100
'0:09.808',0.360,0.125
'0:09.811',0.080,0.155
'0:09.814',-0.135,0.200
'0:09.817',-0.260,0.230
'0:09.819',-0.260,0.210
'0:09.822',-0.235,0.180
'0:09.825',-0.180,0.145
'0:09.828',-0.170,0.110
'0:09.831',-0.160,0.110
'0:09.833',-0.175,0.120
'0:09.836',-0.190,0.125
'0:09.839',-0.170,0.115
'0:09.842',-0.175,0.100
'0:09.844',-0.195,0.085
'0:09.847',-0.205,0.090
'0:09.850',-0.200,0.110
'0:09.853',-0.195,0.125
'0:09.856',-0.205,0.125
'0:09.858',-0.220,0.110
'0:09.861',-0.240,0.105
'0:09.864',-0.240,0.125
'0:09.867',-0.225,0.140
'0:09.869',-0.210,0.145
'0:09.872',-0.210,0.130
'0:09.875',-0.240,0.100
'0:09.878',-0.250,0.095
'0:09.881',-0.245,0.115
'0:09.883',-0.235,0.140
'0:09.886',-0.210,0.155
'0:09.889',-0.205,0.130
'0:09.892',-0.235,0.115
'0:09.894',-0.250,0.110
'0:09.897',-0.255,0.110
'0:09.900',-0.235,0.125
'0:09.903',-0.225,0.125
'0:09.906',-0.230,0.125
'0:09.908',-0.240,0.115
'0:09.911',-0.260,0.100
'0:09.914',-0.250,0.110
'0:09.917',-0.255,0.115
'0:09.919',-0.235,0.140
'0:09.922',-0.225,0.130
'0:09.925',-0.240,0.090
'0:09.928',-0.260,0.090
'0:09.931',-0.260,0.115
'0:09.933',-0.250,0.120
'0:09.936',-0.250,0.155
'0:09.939',-0.235,0.140
'0:09.942',-0.265,0.120
'0:09.944',-0.265,0.105
'0:09.947',-0.245,0.125
'0:09.950',-0.250,0.135
'0:09.953',-0.215,0.140
'0:09.956',-0.225,0.120
'0:09.958',-0.245,0.105
'0:09.961',-0.245,0.120
'0:09.964',-0.235,0.135
'0:09.967',-0.205,0.150
'0:09.969',-0.185,0.145
'0:09.972',-0.170,0.120
'0:09.975',-0.200,0.095
'0:09.978',-0.195,0.080
'0:09.981',-0.200,0.070
'0:09.983',-0.180,0.075
'0:09.986',-0.165,0.090
'0:09.989',-0.160,0.085
'0:09.992',-0.155,0.060
'0:09.994',-0.145,0.055
'0:09.997',-0.145,0.055
