'Elapsed time','MLII','V1'
'hh:mm:ss.mmm','mV','mV'
'0:00.000',-0.140,-0.375
'0:00.003',-0.140,-0.375
'0:00.006',-0.140,-0.375
'0:00.008',-0.140,-0.375
'0:00.011',-0.140,-0.375
'0:00.014',-0.140,-0.375
'0:00.017',-0.140,-0.375
'0:00.019',-0.140,-0.375
'0:00.022',-0.140,-0.350
'0:00.025',-0.115,-0.355
'0:00.028',-0.140,-0.370
'0:00.031',-0.140,-0.385
'0:00.033',-0.155,-0.385
'0:00.036',-0.145,-0.365
'0:00.039',-0.130,-0.360
'0:00.042',-0.110,-0.360
'0:00.044',-0.125,-0.360
'0:00.047',-0.125,-0.375
'0:00.050',-0.130,-0.360
'0:00.053',-0.125,-0.350
'0:00.056',-0.100,-0.335
'0:00.058',-0.075,-0.320
'0:00.061',-0.075,-0.320
'0:00.064',-0.070,-0.340
'0:00.067',-0.075,-0.325
'0:00.069',-0.070,-0.320
'0:00.072',-0.060,-0.295
'0:00.075',-0.025,-0.280
'0:00.078',-0.020,-0.285
'0:00.081',-0.005,-0.290
'0:00.083',0.005,-0.300
'0:00.086',0.050,-0.310
'0:00.089',0.115,-0.330
'0:00.092',0.160,-0.360
'0:00.094',0.170,-0.380
'0:00.097',0.175,-0.380
'0:00.100',0.165,-0.390
'0:00.103',0.170,-0.380
'0:00.106',0.150,-0.380
'0:00.108',0.185,-0.380
'0:00.111',0.135,-0.385
'0:00.114',0.105,-0.390
'0:00.117',0.080,-0.390
'0:00.119',0.065,-0.365
'0:00.122',0.060,-0.355
'0:00.125',0.060,-0.345
'0:00.128',0.015,-0.380
'0:00.131',-0.025,-0.395
'0:00.133',-0.070,-0.405
'0:00.136',-0.090,-0.395
'0:00.139',-0.120,-0.375
'0:00.142',-0.130,-0.385
'0:00.144',-0.120,-0.395
'0:00.147',-0.150,-0.415
'0:00.150',-0.170,-0.400
'0:00.153',-0.175,-0.395
'0:00.156',-0.165,-0.390
'0:00.158',-0.145,-0.385
'0:00.161',-0.155,-0.400
'0:00.164',-0.160,-0.395
'0:00.167',-0.160,-0.385
'0:00.169',-0.150,-0.375
'0:00.172',-0.140,-0.380
'0:00.175',-0.120,-0.385
'0:00.178',-0.140,-0.395
'0:00.181',-0.155,-0.390
'0:00.183',-0.155,-0.375
'0:00.186',-0.135,-0.335
'0:00.189',-0.130,-0.285
'0:00.192',-0.110,-0.245
'0:00.194',-0.105,-0.255
'0:00.197',-0.130,-0.330
'0:00.200',-0.140,-0.440
'0:00.203',-0.140,-0.585
'0:00.206',-0.140,-0.790
'0:00.208',-0.100,-1.025
'0:00.211',0.020,-1.210
'0:00.214',0.180,-1.345
'0:00.217',0.380,-1.380
'0:00.219',0.605,-1.310
'0:00.222',0.790,-1.195
'0:00.225',0.895,-1.075
'0:00.228',0.840,-0.930
'0:00.231',0.590,-0.780
'0:00.233',0.225,-0.635
'0:00.236',-0.055,-0.475
'0:00.239',-0.185,-0.360
'0:00.242',-0.190,-0.310
'0:00.244',-0.195,-0.295
'0:00.247',-0.160,-0.290
'0:00.250',-0.135,-0.295
'0:00.253',-0.125,-0.280
'0:00.256',-0.100,-0.275
'0:00.258',-0.100,-0.280
'0:00.261',-0.120,-0.290
'0:00.264',-0.135,-0.305
'0:00.267',-0.155,-0.290
'0:00.269',-0.150,-0.285
'0:00.272',-0.125,-0.285
'0:00.275',-0.105,-0.295
'0:00.278',-0.100,-0.300
'0:00.281',-0.115,-0.305
'0:00.283',-0.125,-0.305
'0:00.286',-0.120,-0.295
'0:00.289',-0.100,-0.295
'0:00.292',-0.095,-0.290
'0:00.294',-0.105,-0.300
'0:00.297',-0.115,-0.330
'0:00.300',-0.120,-0.320
'0:00.303',-0.110,-0.305
'0:00.306',-0.105,-0.290
'0:00.308',-0.095,-0.295
'0:00.311',-0.095,-0.305
'0:00.314',-0.110,-0.315
'0:00.317',-0.110,-0.320
'0:00.319',-0.105,-0.305
'0:00.322',-0.090,-0.295
'0:00.325',-0.085,-0.310
'0:00.328',-0.090,-0.310
'0:00.331',-0.115,-0.320
'0:00.333',-0.105,-0.325
'0:00.336',-0.090,-0.305
'0:00.339',-0.085,-0.300
'0:00.342',-0.085,-0.285
'0:00.344',-0.085,-0.310
'0:00.347',-0.090,-0.315
'0:00.350',-0.100,-0.310
'0:00.353',-0.095,-0.295
'0:00.356',-0.080,-0.285
'0:00.358',-0.060,-0.285
'0:00.361',-0.075,-0.295
'0:00.364',-0.080,-0.315
'0:00.367',-0.085,-0.320
'0:00.369',-0.075,-0.300
'0:00.372',-0.070,-0.285
'0:00.375',-0.055,-0.290
'0:00.378',-0.070,-0.305
'0:00.381',-0.085,-0.300
'0:00.383',-0.080,-0.310
'0:00.386',-0.085,-0.295
'0:00.389',-0.055,-0.300
'0:00.392',-0.040,-0.290
'0:00.394',-0.050,-0.295
'0:00.397',-0.065,-0.305
'0:00.400',-0.060,-0.305
'0:00.403',-0.065,-0.295
'0:00.406',-0.050,-0.285
'0:00.408',-0.035,-0.290
'0:00.411',-0.045,-0.290
'0:00.414',-0.045,-0.290
'0:00.417',-0.045,-0.305
'0:00.419',-0.045,-0.290
'0:00.422',-0.030,-0.270
'0:00.425',-0.035,-0.265
'0:00.428',-0.020,-0.285
'0:00.431',-0.040,-0.295
'0:00.433',-0.050,-0.310
'0:00.436',-0.055,-0.290
'0:00.439',-0.030,-0.280
'0:00.442',-0.025,-0.270
'0:00.444',-0.030,-0.290
'0:00.447',-0.055,-0.300
'0:00.450',-0.055,-0.295
'0:00.453',-0.050,-0.280
'0:00.456',-0.040,-0.270
'0:00.458',-0.040,-0.290
'0:00.461',-0.050,-0.295
'0:00.464',-0.065,-0.300
'0:00.467',-0.085,-0.295
'0:00.469',-0.080,-0.295
'0:00.472',-0.080,-0.280
'0:00.475',-0.070,-0.285
'0:00.478',-0.070,-0.310
'0:00.481',-0.080,-0.315
'0:00.483',-0.090,-0.315
'0:00.486',-0.090,-0.310
'0:00.489',-0.095,-0.310
'0:00.492',-0.090,-0.300
'0:00.494',-0.090,-0.310
'0:00.497',-0.115,-0.320
'0:00.500',-0.135,-0.330
'0:00.503',-0.115,-0.325
'0:00.506',-0.105,-0.320
'0:00.508',-0.100,-0.330
'0:00.511',-0.110,-0.335
'0:00.514',-0.125,-0.340
'0:00.517',-0.140,-0.335
'0:00.519',-0.140,-0.330
'0:00.522',-0.120,-0.320
'0:00.525',-0.115,-0.330
'0:00.528',-0.130,-0.345
'0:00.531',-0.135,-0.360
'0:00.533',-0.150,-0.360
'0:00.536',-0.145,-0.340
'0:00.539',-0.130,-0.325
'0:00.542',-0.130,-0.335
'0:00.544',-0.145,-0.340
'0:00.547',-0.150,-0.375
'0:00.550',-0.160,-0.360
'0:00.553',-0.150,-0.350
'0:00.556',-0.130,-0.335
'0:00.558',-0.125,-0.335
'0:00.561',-0.125,-0.350
'0:00.564',-0.155,-0.370
'0:00.567',-0.155,-0.360
'0:00.569',-0.155,-0.350
'0:00.572',-0.140,-0.340
'0:00.575',-0.125,-0.350
'0:00.578',-0.130,-0.355
'0:00.581',-0.135,-0.370
'0:00.583',-0.150,-0.360
'0:00.586',-0.155,-0.345
'0:00.589',-0.135,-0.340
'0:00.592',-0.130,-0.340
'0:00.594',-0.135,-0.350
'0:00.597',-0.140,-0.365
'0:00.600',-0.165,-0.360
'0:00.603',-0.150,-0.360
'0:00.606',-0.135,-0.340
'0:00.608',-0.125,-0.330
'0:00.611',-0.145,-0.350
'0:00.614',-0.150,-0.360
'0:00.617',-0.160,-0.365
'0:00.619',-0.155,-0.355
'0:00.622',-0.135,-0.345
'0:00.625',-0.140,-0.350
'0:00.628',-0.150,-0.355
'0:00.631',-0.145,-0.375
'0:00.633',-0.160,-0.365
'0:00.636',-0.155,-0.360
'0:00.639',-0.150,-0.335
'0:00.642',-0.130,-0.350
'0:00.644',-0.125,-0.365
'0:00.647',-0.145,-0.385
'0:00.650',-0.150,-0.375
'0:00.653',-0.145,-0.365
'0:00.656',-0.135,-0.360
'0:00.658',-0.120,-0.355
'0:00.661',-0.130,-0.360
'0:00.664',-0.130,-0.370
'0:00.667',-0.150,-0.380
'0:00.669',-0.130,-0.355
'0:00.672',-0.125,-0.365
'0:00.675',-0.110,-0.350
'0:00.678',-0.120,-0.365
'0:00.681',-0.135,-0.385
'0:00.683',-0.140,-0.385
'0:00.686',-0.130,-0.355
'0:00.689',-0.115,-0.350
'0:00.692',-0.105,-0.360
'0:00.694',-0.110,-0.365
'0:00.697',-0.115,-0.375
'0:00.700',-0.125,-0.380
'0:00.703',-0.125,-0.360
'0:00.706',-0.105,-0.355
'0:00.708',-0.100,-0.340
'0:00.711',-0.105,-0.355
'0:00.714',-0.110,-0.365
'0:00.717',-0.120,-0.375
'0:00.719',-0.110,-0.365
'0:00.722',-0.100,-0.350
'0:00.725',-0.080,-0.355
'0:00.728',-0.085,-0.360
'0:00.731',-0.120,-0.385
'0:00.733',-0.110,-0.380
'0:00.736',-0.105,-0.370
'0:00.739',-0.105,-0.355
'0:00.742',-0.090,-0.360
'0:00.744',-0.085,-0.375
'0:00.747',-0.105,-0.380
'0:00.750',-0.120,-0.365
'0:00.753',-0.105,-0.365
'0:00.756',-0.105,-0.355
'0:00.758',-0.090,-0.355
'0:00.761',-0.090,-0.365
'0:00.764',-0.115,-0.390
'0:00.767',-0.130,-0.380
'0:00.769',-0.110,-0.370
'0:00.772',-0.095,-0.355
'0:00.775',-0.085,-0.355
'0:00.778',-0.095,-0.365
'0:00.781',-0.095,-0.385
'0:00.783',-0.120,-0.380
'0:00.786',-0.100,-0.370
'0:00.789',-0.090,-0.350
'0:00.792',-0.100,-0.360
'0:00.794',-0.095,-0.370
'0:00.797',-0.105,-0.380
'0:00.800',-0.110,-0.385
'0:00.803',-0.100,-0.370
'0:00.806',-0.090,-0.355
'0:00.808',-0.070,-0.360
'0:00.811',-0.085,-0.370
'0:00.814',-0.095,-0.365
'0:00.817',-0.110,-0.375
'0:00.819',-0.090,-0.365
'0:00.822',-0.085,-0.350
'0:00.825',-0.075,-0.340
'0:00.828',-0.085,-0.360
'0:00.831',-0.095,-0.375
'0:00.833',-0.125,-0.360
'0:00.836',-0.090,-0.340
'0:00.839',-0.070,-0.325
'0:00.842',-0.055,-0.320
'0:00.844',-0.060,-0.325
'0:00.847',-0.045,-0.335
'0:00.850',-0.055,-0.320
'0:00.853',-0.050,-0.310
'0:00.856',-0.020,-0.290
'0:00.858',-0.005,-0.285
'0:00.861',0.000,-0.295
'0:00.864',0.020,-0.290
'0:00.867',0.020,-0.285
'0:00.869',0.050,-0.290
'0:00.872',0.115,-0.310
'0:00.875',0.175,-0.340
'0:00.878',0.200,-0.380
'0:00.881',0.200,-0.400
'0:00.883',0.180,-0.410
'0:00.886',0.200,-0.400
'0:00.889',0.205,-0.385
'0:00.892',0.190,-0.385
'0:00.894',0.145,-0.395
'0:00.897',0.115,-0.400
'0:00.900',0.095,-0.385
'0:00.903',0.075,-0.360
'0:00.906',0.070,-0.350
'0:00.908',0.065,-0.370
'0:00.911',0.020,-0.385
'0:00.914',-0.020,-0.395
'0:00.917',-0.075,-0.395
'0:00.919',-0.085,-0.405
'0:00.922',-0.105,-0.395
'0:00.925',-0.100,-0.395
'0:00.928',-0.120,-0.410
'0:00.931',-0.160,-0.410
'0:00.933',-0.160,-0.405
'0:00.936',-0.155,-0.395
'0:00.939',-0.145,-0.395
'0:00.942',-0.130,-0.395
'0:00.944',-0.145,-0.400
'0:00.947',-0.155,-0.410
'0:00.950',-0.150,-0.410
'0:00.953',-0.145,-0.410
'0:00.956',-0.135,-0.390
'0:00.958',-0.115,-0.380
'0:00.961',-0.120,-0.375
'0:00.964',-0.115,-0.375
'0:00.967',-0.125,-0.340
'0:00.969',-0.130,-0.290
'0:00.972',-0.115,-0.270
'0:00.975',-0.105,-0.300
'0:00.978',-0.100,-0.395
'0:00.981',-0.115,-0.550
'0:00.983',-0.155,-0.755
'0:00.986',-0.140,-0.990
'0:00.989',-0.040,-1.180
'0:00.992',0.140,-1.325
'0:00.994',0.365,-1.340
'0:00.997',0.570,-1.285
'0:01.000',0.735,-1.160
'0:01.003',0.805,-0.995
'0:01.006',0.725,-0.830
'0:01.008',0.465,-0.665
'0:01.011',0.150,-0.540
'0:01.014',-0.075,-0.435
'0:01.017',-0.175,-0.370
'0:01.019',-0.175,-0.340
'0:01.022',-0.140,-0.310
'0:01.025',-0.110,-0.310
'0:01.028',-0.105,-0.330
'0:01.031',-0.135,-0.345
'0:01.033',-0.155,-0.360
'0:01.036',-0.160,-0.340
'0:01.039',-0.130,-0.330
'0:01.042',-0.120,-0.330
'0:01.044',-0.120,-0.350
'0:01.047',-0.140,-0.365
'0:01.050',-0.150,-0.360
'0:01.053',-0.160,-0.350
'0:01.056',-0.140,-0.340
'0:01.058',-0.120,-0.345
'0:01.061',-0.125,-0.345
'0:01.064',-0.135,-0.375
'0:01.067',-0.160,-0.355
'0:01.069',-0.155,-0.350
'0:01.072',-0.125,-0.340
'0:01.075',-0.110,-0.340
'0:01.078',-0.120,-0.355
'0:01.081',-0.130,-0.370
'0:01.083',-0.120,-0.375
'0:01.086',-0.105,-0.375
'0:01.089',-0.100,-0.355
'0:01.092',-0.075,-0.360
'0:01.094',-0.075,-0.370
'0:01.097',-0.080,-0.390
'0:01.100',-0.095,-0.390
'0:01.103',-0.085,-0.370
'0:01.106',-0.075,-0.360
'0:01.108',-0.055,-0.365
'0:01.111',-0.055,-0.360
'0:01.114',-0.075,-0.375
'0:01.117',-0.070,-0.375
'0:01.119',-0.075,-0.360
'0:01.122',-0.080,-0.345
'0:01.125',-0.070,-0.340
'0:01.128',-0.085,-0.360
'0:01.131',-0.100,-0.365
'0:01.133',-0.110,-0.340
'0:01.136',-0.100,-0.335
'0:01.139',-0.115,-0.325
'0:01.142',-0.085,-0.335
'0:01.144',-0.085,-0.330
'0:01.147',-0.105,-0.365
'0:01.150',-0.110,-0.350
'0:01.153',-0.120,-0.335
'0:01.156',-0.120,-0.325
'0:01.158',-0.105,-0.315
'0:01.161',-0.115,-0.325
'0:01.164',-0.120,-0.330
'0:01.167',-0.135,-0.325
'0:01.169',-0.105,-0.320
'0:01.172',-0.100,-0.300
'0:01.175',-0.085,-0.305
'0:01.178',-0.095,-0.305
'0:01.181',-0.115,-0.315
'0:01.183',-0.115,-0.315
'0:01.186',-0.120,-0.300
'0:01.189',-0.110,-0.295
'0:01.192',-0.095,-0.310
'0:01.194',-0.095,-0.320
'0:01.197',-0.105,-0.325
'0:01.200',-0.120,-0.320
'0:01.203',-0.110,-0.300
'0:01.206',-0.100,-0.285
'0:01.208',-0.085,-0.280
'0:01.211',-0.105,-0.300
'0:01.214',-0.120,-0.310
'0:01.217',-0.125,-0.310
'0:01.219',-0.120,-0.315
'0:01.222',-0.130,-0.295
'0:01.225',-0.115,-0.310
'0:01.228',-0.125,-0.310
'0:01.231',-0.150,-0.325
'0:01.233',-0.175,-0.330
'0:01.236',-0.170,-0.320
'0:01.239',-0.140,-0.305
'0:01.242',-0.145,-0.315
'0:01.244',-0.155,-0.330
'0:01.247',-0.175,-0.350
'0:01.250',-0.185,-0.340
'0:01.253',-0.205,-0.335
'0:01.256',-0.210,-0.335
'0:01.258',-0.190,-0.340
'0:01.261',-0.200,-0.345
'0:01.264',-0.210,-0.365
'0:01.267',-0.220,-0.365
'0:01.269',-0.230,-0.360
'0:01.272',-0.210,-0.335
'0:01.275',-0.190,-0.355
'0:01.278',-0.195,-0.355
'0:01.281',-0.210,-0.380
'0:01.283',-0.240,-0.360
'0:01.286',-0.235,-0.365
'0:01.289',-0.235,-0.350
'0:01.292',-0.210,-0.365
'0:01.294',-0.220,-0.365
'0:01.297',-0.225,-0.365
'0:01.300',-0.245,-0.365
'0:01.303',-0.235,-0.355
'0:01.306',-0.225,-0.355
'0:01.308',-0.220,-0.350
'0:01.311',-0.235,-0.350
'0:01.314',-0.245,-0.365
'0:01.317',-0.260,-0.375
'0:01.319',-0.255,-0.350
'0:01.322',-0.245,-0.350
'0:01.325',-0.230,-0.360
'0:01.328',-0.230,-0.370
'0:01.331',-0.250,-0.385
'0:01.333',-0.270,-0.375
'0:01.336',-0.250,-0.360
'0:01.339',-0.250,-0.350
'0:01.342',-0.260,-0.360
'0:01.344',-0.260,-0.365
'0:01.347',-0.275,-0.375
'0:01.350',-0.290,-0.360
'0:01.353',-0.285,-0.365
'0:01.356',-0.265,-0.350
'0:01.358',-0.260,-0.355
'0:01.361',-0.255,-0.370
'0:01.364',-0.265,-0.380
'0:01.367',-0.275,-0.380
'0:01.369',-0.265,-0.370
'0:01.372',-0.270,-0.365
'0:01.375',-0.265,-0.365
'0:01.378',-0.255,-0.385
'0:01.381',-0.265,-0.395
'0:01.383',-0.280,-0.380
'0:01.386',-0.265,-0.365
'0:01.389',-0.265,-0.360
'0:01.392',-0.250,-0.375
'0:01.394',-0.260,-0.385
'0:01.397',-0.270,-0.400
'0:01.400',-0.270,-0.400
'0:01.403',-0.255,-0.375
'0:01.406',-0.245,-0.350
'0:01.408',-0.225,-0.365
'0:01.411',-0.225,-0.375
'0:01.414',-0.260,-0.395
'0:01.417',-0.265,-0.390
'0:01.419',-0.260,-0.390
'0:01.422',-0.255,-0.380
'0:01.425',-0.245,-0.395
'0:01.428',-0.235,-0.395
'0:01.431',-0.270,-0.405
'0:01.433',-0.250,-0.405
'0:01.436',-0.250,-0.395
'0:01.439',-0.225,-0.375
'0:01.442',-0.225,-0.390
'0:01.444',-0.225,-0.400
'0:01.447',-0.235,-0.415
'0:01.450',-0.245,-0.410
'0:01.453',-0.240,-0.400
'0:01.456',-0.230,-0.385
'0:01.458',-0.225,-0.390
'0:01.461',-0.235,-0.415
'0:01.464',-0.240,-0.425
'0:01.467',-0.250,-0.415
'0:01.469',-0.245,-0.400
'0:01.472',-0.245,-0.390
'0:01.475',-0.190,-0.390
'0:01.478',-0.215,-0.400
'0:01.481',-0.215,-0.415
'0:01.483',-0.235,-0.410
'0:01.486',-0.225,-0.395
'0:01.489',-0.225,-0.405
'0:01.492',-0.220,-0.390
'0:01.494',-0.200,-0.405
'0:01.497',-0.220,-0.430
'0:01.500',-0.230,-0.430
'0:01.503',-0.235,-0.410
'0:01.506',-0.220,-0.395
'0:01.508',-0.205,-0.405
'0:01.511',-0.205,-0.405
'0:01.514',-0.195,-0.415
'0:01.517',-0.230,-0.420
'0:01.519',-0.205,-0.400
'0:01.522',-0.200,-0.390
'0:01.525',-0.190,-0.385
'0:01.528',-0.195,-0.405
'0:01.531',-0.215,-0.420
'0:01.533',-0.215,-0.415
'0:01.536',-0.200,-0.400
'0:01.539',-0.190,-0.380
'0:01.542',-0.170,-0.390
'0:01.544',-0.175,-0.400
'0:01.547',-0.185,-0.420
'0:01.550',-0.210,-0.425
'0:01.553',-0.190,-0.405
'0:01.556',-0.185,-0.385
'0:01.558',-0.185,-0.390
'0:01.561',-0.190,-0.400
'0:01.564',-0.185,-0.415
'0:01.567',-0.200,-0.420
'0:01.569',-0.200,-0.390
'0:01.572',-0.180,-0.390
'0:01.575',-0.180,-0.395
'0:01.578',-0.175,-0.405
'0:01.581',-0.200,-0.410
'0:01.583',-0.195,-0.410
'0:01.586',-0.200,-0.385
'0:01.589',-0.190,-0.385
'0:01.592',-0.190,-0.385
'0:01.594',-0.175,-0.400
'0:01.597',-0.180,-0.405
'0:01.600',-0.200,-0.410
'0:01.603',-0.195,-0.400
'0:01.606',-0.165,-0.380
'0:01.608',-0.155,-0.380
'0:01.611',-0.175,-0.405
'0:01.614',-0.195,-0.405
'0:01.617',-0.195,-0.395
'0:01.619',-0.185,-0.390
'0:01.622',-0.165,-0.375
'0:01.625',-0.150,-0.385
'0:01.628',-0.145,-0.375
'0:01.631',-0.150,-0.385
'0:01.633',-0.170,-0.365
'0:01.636',-0.150,-0.345
'0:01.639',-0.135,-0.330
'0:01.642',-0.105,-0.330
'0:01.644',-0.110,-0.335
'0:01.647',-0.110,-0.355
'0:01.650',-0.100,-0.355
'0:01.653',-0.080,-0.345
'0:01.656',-0.055,-0.335
'0:01.658',-0.015,-0.350
'0:01.661',0.000,-0.380
'0:01.664',0.020,-0.415
'0:01.667',0.030,-0.430
'0:01.669',0.055,-0.440
'0:01.672',0.065,-0.415
'0:01.675',0.090,-0.425
'0:01.678',0.090,-0.440
'0:01.681',0.065,-0.450
'0:01.683',0.045,-0.435
'0:01.686',0.050,-0.420
'0:01.689',0.030,-0.405
'0:01.692',0.030,-0.395
'0:01.694',-0.010,-0.395
'0:01.697',-0.025,-0.410
'0:01.700',-0.050,-0.395
'0:01.703',-0.070,-0.390
'0:01.706',-0.090,-0.385
'0:01.708',-0.090,-0.395
'0:01.711',-0.145,-0.390
'0:01.714',-0.175,-0.415
'0:01.717',-0.185,-0.415
'0:01.719',-0.205,-0.420
'0:01.722',-0.205,-0.385
'0:01.725',-0.200,-0.395
'0:01.728',-0.200,-0.420
'0:01.731',-0.200,-0.420
'0:01.733',-0.210,-0.425
'0:01.736',-0.215,-0.395
'0:01.739',-0.200,-0.390
'0:01.742',-0.190,-0.380
'0:01.744',-0.190,-0.395
'0:01.747',-0.195,-0.405
'0:01.750',-0.205,-0.400
'0:01.753',-0.185,-0.365
'0:01.756',-0.180,-0.330
'0:01.758',-0.170,-0.310
'0:01.761',-0.165,-0.330
'0:01.764',-0.180,-0.350
'0:01.767',-0.190,-0.430
'0:01.769',-0.195,-0.505
'0:01.772',-0.210,-0.610
'0:01.775',-0.230,-0.775
'0:01.778',-0.215,-0.945
'0:01.781',-0.145,-1.105
'0:01.783',-0.005,-1.200
'0:01.786',0.190,-1.220
'0:01.789',0.415,-1.170
'0:01.792',0.615,-1.075
'0:01.794',0.695,-0.960
'0:01.797',0.580,-0.835
'0:01.800',0.275,-0.690
'0:01.803',-0.020,-0.535
'0:01.806',-0.195,-0.415
'0:01.808',-0.260,-0.350
'0:01.811',-0.250,-0.325
'0:01.814',-0.245,-0.335
'0:01.817',-0.205,-0.325
'0:01.819',-0.165,-0.305
'0:01.822',-0.155,-0.290
'0:01.825',-0.140,-0.295
'0:01.828',-0.155,-0.305
'0:01.831',-0.180,-0.325
'0:01.833',-0.195,-0.325
'0:01.836',-0.190,-0.305
'0:01.839',-0.185,-0.305
'0:01.842',-0.165,-0.300
'0:01.844',-0.190,-0.315
'0:01.847',-0.180,-0.325
'0:01.850',-0.200,-0.325
'0:01.853',-0.185,-0.300
'0:01.856',-0.175,-0.295
'0:01.858',-0.170,-0.290
'0:01.861',-0.175,-0.305
'0:01.864',-0.175,-0.320
'0:01.867',-0.180,-0.305
'0:01.869',-0.160,-0.295
'0:01.872',-0.160,-0.300
'0:01.875',-0.150,-0.280
'0:01.878',-0.150,-0.295
'0:01.881',-0.155,-0.300
'0:01.883',-0.160,-0.315
'0:01.886',-0.155,-0.290
'0:01.889',-0.145,-0.290
'0:01.892',-0.125,-0.290
'0:01.894',-0.135,-0.305
'0:01.897',-0.150,-0.315
'0:01.900',-0.155,-0.305
'0:01.903',-0.150,-0.295
'0:01.906',-0.135,-0.290
'0:01.908',-0.120,-0.285
'0:01.911',-0.120,-0.290
'0:01.914',-0.130,-0.305
'0:01.917',-0.145,-0.305
'0:01.919',-0.130,-0.290
'0:01.922',-0.125,-0.280
'0:01.925',-0.120,-0.290
'0:01.928',-0.115,-0.290
'0:01.931',-0.125,-0.315
'0:01.933',-0.145,-0.305
'0:01.936',-0.135,-0.300
'0:01.939',-0.130,-0.280
'0:01.942',-0.110,-0.295
'0:01.944',-0.115,-0.295
'0:01.947',-0.110,-0.310
'0:01.950',-0.135,-0.310
'0:01.953',-0.130,-0.295
'0:01.956',-0.105,-0.290
'0:01.958',-0.090,-0.285
'0:01.961',-0.100,-0.295
'0:01.964',-0.110,-0.305
'0:01.967',-0.125,-0.300
'0:01.969',-0.100,-0.290
'0:01.972',-0.090,-0.275
'0:01.975',-0.085,-0.270
'0:01.978',-0.095,-0.285
'0:01.981',-0.095,-0.305
'0:01.983',-0.095,-0.295
'0:01.986',-0.100,-0.285
'0:01.989',-0.095,-0.280
'0:01.992',-0.085,-0.280
'0:01.994',-0.075,-0.290
'0:01.997',-0.100,-0.305
'0:02.000',-0.095,-0.300
'0:02.003',-0.095,-0.295
'0:02.006',-0.085,-0.275
'0:02.008',-0.080,-0.290
'0:02.011',-0.080,-0.290
'0:02.014',-0.110,-0.315
'0:02.017',-0.135,-0.315
'0:02.019',-0.120,-0.295
'0:02.022',-0.120,-0.285
'0:02.025',-0.105,-0.285
'0:02.028',-0.115,-0.305
'0:02.031',-0.135,-0.310
'0:02.033',-0.145,-0.305
'0:02.036',-0.160,-0.310
'0:02.039',-0.135,-0.300
'0:02.042',-0.140,-0.300
'0:02.044',-0.160,-0.305
'0:02.047',-0.165,-0.320
'0:02.050',-0.185,-0.315
'0:02.053',-0.170,-0.310
'0:02.056',-0.160,-0.305
'0:02.058',-0.150,-0.300
'0:02.061',-0.160,-0.325
'0:02.064',-0.155,-0.325
'0:02.067',-0.175,-0.320
'0:02.069',-0.175,-0.310
'0:02.072',-0.150,-0.295
'0:02.075',-0.145,-0.295
'0:02.078',-0.155,-0.310
'0:02.081',-0.155,-0.320
'0:02.083',-0.180,-0.320
'0:02.086',-0.160,-0.305
'0:02.089',-0.165,-0.295
'0:02.092',-0.150,-0.305
'0:02.094',-0.155,-0.320
'0:02.097',-0.170,-0.315
'0:02.100',-0.185,-0.325
'0:02.103',-0.170,-0.305
'0:02.106',-0.170,-0.285
'0:02.108',-0.160,-0.290
'0:02.111',-0.165,-0.320
'0:02.114',-0.180,-0.320
'0:02.117',-0.190,-0.325
'0:02.119',-0.185,-0.320
'0:02.122',-0.155,-0.305
'0:02.125',-0.155,-0.310
'0:02.128',-0.175,-0.310
'0:02.131',-0.190,-0.325
'0:02.133',-0.190,-0.320
'0:02.136',-0.180,-0.300
'0:02.139',-0.175,-0.305
'0:02.142',-0.160,-0.315
'0:02.144',-0.160,-0.315
'0:02.147',-0.185,-0.345
'0:02.150',-0.185,-0.325
'0:02.153',-0.195,-0.325
'0:02.156',-0.170,-0.310
'0:02.158',-0.170,-0.305
'0:02.161',-0.175,-0.330
'0:02.164',-0.185,-0.330
'0:02.167',-0.185,-0.335
'0:02.169',-0.185,-0.340
'0:02.172',-0.170,-0.310
'0:02.175',-0.155,-0.310
'0:02.178',-0.165,-0.315
'0:02.181',-0.170,-0.345
'0:02.183',-0.190,-0.340
'0:02.186',-0.180,-0.325
'0:02.189',-0.170,-0.310
'0:02.192',-0.160,-0.330
'0:02.194',-0.155,-0.335
'0:02.197',-0.175,-0.345
'0:02.200',-0.180,-0.340
'0:02.203',-0.180,-0.330
'0:02.206',-0.155,-0.325
'0:02.208',-0.160,-0.315
'0:02.211',-0.160,-0.325
'0:02.214',-0.165,-0.345
'0:02.217',-0.165,-0.345
'0:02.219',-0.155,-0.325
'0:02.222',-0.150,-0.310
'0:02.225',-0.125,-0.320
'0:02.228',-0.130,-0.345
'0:02.231',-0.155,-0.345
'0:02.233',-0.170,-0.345
'0:02.236',-0.165,-0.330
'0:02.239',-0.150,-0.315
'0:02.242',-0.130,-0.320
'0:02.244',-0.145,-0.325
'0:02.247',-0.155,-0.335
'0:02.250',-0.170,-0.340
'0:02.253',-0.160,-0.330
'0:02.256',-0.155,-0.325
'0:02.258',-0.145,-0.320
'0:02.261',-0.145,-0.345
'0:02.264',-0.170,-0.355
'0:02.267',-0.165,-0.345
'0:02.269',-0.150,-0.330
'0:02.272',-0.145,-0.310
'0:02.275',-0.140,-0.320
'0:02.278',-0.145,-0.330
'0:02.281',-0.155,-0.340
'0:02.283',-0.175,-0.340
'0:02.286',-0.160,-0.330
'0:02.289',-0.140,-0.310
'0:02.292',-0.115,-0.325
'0:02.294',-0.135,-0.330
'0:02.297',-0.150,-0.335
'0:02.300',-0.150,-0.340
'0:02.303',-0.150,-0.340
'0:02.306',-0.125,-0.310
'0:02.308',-0.115,-0.305
'0:02.311',-0.115,-0.310
'0:02.314',-0.130,-0.340
'0:02.317',-0.150,-0.325
'0:02.319',-0.140,-0.315
'0:02.322',-0.140,-0.315
'0:02.325',-0.120,-0.300
'0:02.328',-0.115,-0.295
'0:02.331',-0.115,-0.310
'0:02.333',-0.110,-0.305
'0:02.336',-0.100,-0.280
'0:02.339',-0.070,-0.270
'0:02.342',-0.050,-0.265
'0:02.344',-0.045,-0.270
'0:02.347',-0.040,-0.280
'0:02.350',-0.060,-0.265
'0:02.353',-0.040,-0.260
'0:02.356',-0.005,-0.250
'0:02.358',0.055,-0.250
'0:02.361',0.110,-0.305
'0:02.364',0.140,-0.320
'0:02.367',0.155,-0.340
'0:02.369',0.160,-0.315
'0:02.372',0.150,-0.305
'0:02.375',0.170,-0.315
'0:02.378',0.160,-0.330
'0:02.381',0.125,-0.345
'0:02.383',0.095,-0.340
'0:02.386',0.080,-0.335
'0:02.389',0.065,-0.310
'0:02.392',0.085,-0.320
'0:02.394',0.065,-0.320
'0:02.397',0.020,-0.345
'0:02.400',-0.025,-0.345
'0:02.403',-0.070,-0.335
'0:02.406',-0.095,-0.335
'0:02.408',-0.110,-0.330
'0:02.411',-0.130,-0.335
'0:02.414',-0.165,-0.360
'0:02.417',-0.175,-0.355
'0:02.419',-0.185,-0.340
'0:02.422',-0.165,-0.335
'0:02.425',-0.150,-0.335
'0:02.428',-0.155,-0.345
'0:02.431',-0.175,-0.355
'0:02.433',-0.180,-0.345
'0:02.436',-0.160,-0.325
'0:02.439',-0.170,-0.315
'0:02.442',-0.140,-0.305
'0:02.444',-0.130,-0.290
'0:02.447',-0.145,-0.300
'0:02.450',-0.160,-0.310
'0:02.453',-0.160,-0.380
'0:02.456',-0.160,-0.505
'0:02.458',-0.160,-0.690
'0:02.461',-0.145,-0.865
'0:02.464',-0.065,-1.005
'0:02.467',0.115,-1.070
'0:02.469',0.360,-1.060
'0:02.472',0.575,-1.005
'0:02.475',0.735,-0.945
'0:02.478',0.795,-0.875
'0:02.481',0.760,-0.785
'0:02.483',0.560,-0.700
'0:02.486',0.310,-0.580
'0:02.489',0.050,-0.470
'0:02.492',-0.120,-0.395
'0:02.494',-0.215,-0.340
'0:02.497',-0.245,-0.310
'0:02.500',-0.230,-0.265
'0:02.503',-0.190,-0.255
'0:02.506',-0.150,-0.235
'0:02.508',-0.120,-0.230
'0:02.511',-0.120,-0.245
'0:02.514',-0.155,-0.250
'0:02.517',-0.170,-0.255
'0:02.519',-0.165,-0.230
'0:02.522',-0.150,-0.215
'0:02.525',-0.140,-0.235
'0:02.528',-0.160,-0.245
'0:02.531',-0.160,-0.260
'0:02.533',-0.160,-0.255
'0:02.536',-0.160,-0.245
'0:02.539',-0.150,-0.225
'0:02.542',-0.140,-0.220
'0:02.544',-0.140,-0.230
'0:02.547',-0.155,-0.240
'0:02.550',-0.155,-0.250
'0:02.553',-0.155,-0.235
'0:02.556',-0.140,-0.225
'0:02.558',-0.130,-0.225
'0:02.561',-0.125,-0.235
'0:02.564',-0.125,-0.240
'0:02.567',-0.135,-0.245
'0:02.569',-0.140,-0.230
'0:02.572',-0.120,-0.215
'0:02.575',-0.120,-0.215
'0:02.578',-0.115,-0.240
'0:02.581',-0.120,-0.255
'0:02.583',-0.125,-0.235
'0:02.586',-0.120,-0.230
'0:02.589',-0.100,-0.225
'0:02.592',-0.090,-0.230
'0:02.594',-0.095,-0.235
'0:02.597',-0.110,-0.260
'0:02.600',-0.105,-0.245
'0:02.603',-0.120,-0.235
'0:02.606',-0.100,-0.225
'0:02.608',-0.095,-0.225
'0:02.611',-0.110,-0.225
'0:02.614',-0.105,-0.250
'0:02.617',-0.125,-0.245
'0:02.619',-0.110,-0.225
'0:02.622',-0.105,-0.220
'0:02.625',-0.085,-0.205
'0:02.628',-0.095,-0.230
'0:02.631',-0.095,-0.235
'0:02.633',-0.110,-0.225
'0:02.636',-0.100,-0.225
'0:02.639',-0.090,-0.200
'0:02.642',-0.070,-0.205
'0:02.644',-0.070,-0.220
'0:02.647',-0.080,-0.235
'0:02.650',-0.105,-0.230
'0:02.653',-0.085,-0.210
'0:02.656',-0.075,-0.200
'0:02.658',-0.050,-0.205
'0:02.661',-0.055,-0.205
'0:02.664',-0.060,-0.220
'0:02.667',-0.070,-0.225
'0:02.669',-0.080,-0.205
'0:02.672',-0.075,-0.190
'0:02.675',-0.045,-0.210
'0:02.678',-0.045,-0.215
'0:02.681',-0.060,-0.220
'0:02.683',-0.060,-0.215
'0:02.686',-0.055,-0.205
'0:02.689',-0.045,-0.190
'0:02.692',-0.050,-0.195
'0:02.694',-0.055,-0.205
'0:02.697',-0.055,-0.230
'0:02.700',-0.065,-0.225
'0:02.703',-0.065,-0.200
'0:02.706',-0.040,-0.175
'0:02.708',-0.045,-0.185
'0:02.711',-0.050,-0.200
'0:02.714',-0.070,-0.225
'0:02.717',-0.085,-0.205
'0:02.719',-0.075,-0.205
'0:02.722',-0.065,-0.205
'0:02.725',-0.065,-0.200
'0:02.728',-0.065,-0.225
'0:02.731',-0.080,-0.235
'0:02.733',-0.100,-0.235
'0:02.736',-0.095,-0.215
'0:02.739',-0.100,-0.205
'0:02.742',-0.100,-0.225
'0:02.744',-0.105,-0.235
'0:02.747',-0.120,-0.250
'0:02.750',-0.120,-0.235
'0:02.753',-0.130,-0.230
'0:02.756',-0.120,-0.220
'0:02.758',-0.105,-0.235
'0:02.761',-0.120,-0.245
'0:02.764',-0.140,-0.260
'0:02.767',-0.150,-0.250
'0:02.769',-0.130,-0.230
'0:02.772',-0.130,-0.245
'0:02.775',-0.130,-0.255
'0:02.778',-0.135,-0.270
'0:02.781',-0.145,-0.270
'0:02.783',-0.150,-0.255
'0:02.786',-0.140,-0.245
'0:02.789',-0.135,-0.255
'0:02.792',-0.160,-0.275
'0:02.794',-0.165,-0.280
'0:02.797',-0.165,-0.280
'0:02.800',-0.155,-0.265
'0:02.803',-0.150,-0.265
'0:02.806',-0.135,-0.245
'0:02.808',-0.125,-0.255
'0:02.811',-0.160,-0.280
'0:02.814',-0.160,-0.275
'0:02.817',-0.160,-0.270
'0:02.819',-0.150,-0.260
'0:02.822',-0.135,-0.265
'0:02.825',-0.150,-0.255
'0:02.828',-0.150,-0.280
'0:02.831',-0.145,-0.270
'0:02.833',-0.135,-0.265
'0:02.836',-0.120,-0.260
'0:02.839',-0.115,-0.260
'0:02.842',-0.120,-0.270
'0:02.844',-0.125,-0.290
'0:02.847',-0.155,-0.290
'0:02.850',-0.140,-0.275
'0:02.853',-0.135,-0.260
'0:02.856',-0.115,-0.265
'0:02.858',-0.125,-0.285
'0:02.861',-0.145,-0.300
'0:02.864',-0.165,-0.290
'0:02.867',-0.155,-0.290
'0:02.869',-0.135,-0.260
'0:02.872',-0.120,-0.280
'0:02.875',-0.125,-0.280
'0:02.878',-0.145,-0.290
'0:02.881',-0.155,-0.295
'0:02.883',-0.145,-0.280
'0:02.886',-0.140,-0.270
'0:02.889',-0.140,-0.290
'0:02.892',-0.145,-0.285
'0:02.894',-0.160,-0.300
'0:02.897',-0.160,-0.305
'0:02.900',-0.150,-0.285
'0:02.903',-0.145,-0.280
'0:02.906',-0.155,-0.290
'0:02.908',-0.155,-0.300
'0:02.911',-0.155,-0.320
'0:02.914',-0.150,-0.300
'0:02.917',-0.160,-0.290
'0:02.919',-0.145,-0.275
'0:02.922',-0.140,-0.285
'0:02.925',-0.140,-0.285
'0:02.928',-0.160,-0.305
'0:02.931',-0.165,-0.295
'0:02.933',-0.140,-0.290
'0:02.936',-0.140,-0.290
'0:02.939',-0.130,-0.290
'0:02.942',-0.125,-0.300
'0:02.944',-0.140,-0.315
'0:02.947',-0.140,-0.305
'0:02.950',-0.135,-0.295
'0:02.953',-0.125,-0.280
'0:02.956',-0.115,-0.290
'0:02.958',-0.125,-0.285
'0:02.961',-0.140,-0.300
'0:02.964',-0.135,-0.305
'0:02.967',-0.125,-0.285
'0:02.969',-0.120,-0.285
'0:02.972',-0.110,-0.285
'0:02.975',-0.120,-0.305
'0:02.978',-0.125,-0.305
'0:02.981',-0.145,-0.300
'0:02.983',-0.140,-0.300
'0:02.986',-0.120,-0.295
'0:02.989',-0.100,-0.285
'0:02.992',-0.100,-0.295
'0:02.994',-0.115,-0.310
'0:02.997',-0.115,-0.305
'0:03.000',-0.120,-0.290
'0:03.003',-0.095,-0.280
'0:03.006',-0.105,-0.285
'0:03.008',-0.110,-0.300
'0:03.011',-0.110,-0.305
'0:03.014',-0.120,-0.305
'0:03.017',-0.105,-0.295
'0:03.019',-0.120,-0.285
'0:03.022',-0.110,-0.290
'0:03.025',-0.105,-0.285
'0:03.028',-0.110,-0.305
'0:03.031',-0.115,-0.310
'0:03.033',-0.115,-0.305
'0:03.036',-0.100,-0.280
'0:03.039',-0.090,-0.290
'0:03.042',-0.090,-0.295
'0:03.044',-0.095,-0.310
'0:03.047',-0.100,-0.295
'0:03.050',-0.100,-0.295
'0:03.053',-0.100,-0.280
'0:03.056',-0.080,-0.290
'0:03.058',-0.080,-0.305
'0:03.061',-0.090,-0.315
'0:03.064',-0.090,-0.305
'0:03.067',-0.095,-0.290
'0:03.069',-0.090,-0.275
'0:03.072',-0.070,-0.285
'0:03.075',-0.075,-0.290
'0:03.078',-0.090,-0.310
'0:03.081',-0.090,-0.310
'0:03.083',-0.100,-0.295
'0:03.086',-0.090,-0.285
'0:03.089',-0.085,-0.290
'0:03.092',-0.080,-0.305
'0:03.094',-0.080,-0.315
'0:03.097',-0.100,-0.305
'0:03.100',-0.095,-0.290
'0:03.103',-0.075,-0.280
'0:03.106',-0.065,-0.290
'0:03.108',-0.070,-0.295
'0:03.111',-0.105,-0.295
'0:03.114',-0.100,-0.305
'0:03.117',-0.095,-0.285
'0:03.119',-0.075,-0.265
'0:03.122',-0.065,-0.290
'0:03.125',-0.065,-0.285
'0:03.128',-0.075,-0.315
'0:03.131',-0.075,-0.310
'0:03.133',-0.060,-0.295
'0:03.136',-0.055,-0.270
'0:03.139',-0.045,-0.255
'0:03.142',-0.050,-0.255
'0:03.144',-0.055,-0.265
'0:03.147',-0.065,-0.250
'0:03.150',-0.040,-0.225
'0:03.153',-0.010,-0.225
'0:03.156',0.015,-0.220
'0:03.158',0.010,-0.230
'0:03.161',-0.010,-0.240
'0:03.164',-0.015,-0.240
'0:03.167',0.015,-0.225
'0:03.169',0.040,-0.215
'0:03.172',0.060,-0.235
'0:03.175',0.075,-0.255
'0:03.178',0.090,-0.295
'0:03.181',0.105,-0.300
'0:03.183',0.125,-0.305
'0:03.186',0.165,-0.305
'0:03.189',0.180,-0.300
'0:03.192',0.195,-0.325
'0:03.194',0.180,-0.330
'0:03.197',0.145,-0.330
'0:03.200',0.140,-0.310
'0:03.203',0.120,-0.300
'0:03.206',0.115,-0.285
'0:03.208',0.100,-0.275
'0:03.211',0.075,-0.295
'0:03.214',0.055,-0.300
'0:03.217',0.055,-0.280
'0:03.219',0.030,-0.260
'0:03.222',0.010,-0.275
'0:03.225',-0.030,-0.295
'0:03.228',-0.080,-0.310
'0:03.231',-0.095,-0.305
'0:03.233',-0.105,-0.295
'0:03.236',-0.110,-0.275
'0:03.239',-0.105,-0.290
'0:03.242',-0.120,-0.300
'0:03.244',-0.135,-0.315
'0:03.247',-0.145,-0.315
'0:03.250',-0.140,-0.300
'0:03.253',-0.125,-0.290
'0:03.256',-0.120,-0.285
'0:03.258',-0.125,-0.285
'0:03.261',-0.130,-0.305
'0:03.264',-0.130,-0.295
'0:03.267',-0.115,-0.270
'0:03.269',-0.105,-0.230
'0:03.272',-0.090,-0.210
'0:03.275',-0.105,-0.190
'0:03.278',-0.105,-0.200
'0:03.281',-0.120,-0.215
'0:03.283',-0.105,-0.245
'0:03.286',-0.100,-0.295
'0:03.289',-0.105,-0.400
'0:03.292',-0.140,-0.525
'0:03.294',-0.160,-0.670
'0:03.297',-0.120,-0.815
'0:03.300',-0.025,-0.940
'0:03.303',0.105,-1.040
'0:03.306',0.270,-1.105
'0:03.308',0.425,-1.115
'0:03.311',0.605,-1.065
'0:03.314',0.775,-0.970
'0:03.317',0.880,-0.825
'0:03.319',0.820,-0.675
'0:03.322',0.555,-0.545
'0:03.325',0.215,-0.420
'0:03.328',-0.055,-0.330
'0:03.331',-0.160,-0.265
'0:03.333',-0.185,-0.225
'0:03.336',-0.140,-0.205
'0:03.339',-0.090,-0.200
'0:03.342',-0.080,-0.205
'0:03.344',-0.085,-0.215
'0:03.347',-0.095,-0.215
'0:03.350',-0.105,-0.205
'0:03.353',-0.120,-0.200
'0:03.356',-0.100,-0.190
'0:03.358',-0.115,-0.205
'0:03.361',-0.120,-0.225
'0:03.364',-0.110,-0.220
'0:03.367',-0.105,-0.200
'0:03.369',-0.105,-0.190
'0:03.372',-0.085,-0.210
'0:03.375',-0.095,-0.205
'0:03.378',-0.105,-0.220
'0:03.381',-0.110,-0.210
'0:03.383',-0.100,-0.205
'0:03.386',-0.080,-0.200
'0:03.389',-0.070,-0.205
'0:03.392',-0.085,-0.205
'0:03.394',-0.090,-0.225
'0:03.397',-0.095,-0.215
'0:03.400',-0.090,-0.210
'0:03.403',-0.065,-0.195
'0:03.406',-0.070,-0.200
'0:03.408',-0.065,-0.215
'0:03.411',-0.075,-0.225
'0:03.414',-0.080,-0.215
'0:03.417',-0.060,-0.205
'0:03.419',-0.050,-0.190
'0:03.422',-0.045,-0.200
'0:03.425',-0.055,-0.215
'0:03.428',-0.055,-0.220
'0:03.431',-0.065,-0.225
'0:03.433',-0.060,-0.220
'0:03.436',-0.050,-0.205
'0:03.439',-0.040,-0.215
'0:03.442',-0.045,-0.220
'0:03.444',-0.070,-0.220
'0:03.447',-0.070,-0.220
'0:03.450',-0.055,-0.210
'0:03.453',-0.050,-0.210
'0:03.456',-0.040,-0.215
'0:03.458',-0.045,-0.220
'0:03.461',-0.050,-0.225
'0:03.464',-0.065,-0.225
'0:03.467',-0.070,-0.210
'0:03.469',-0.040,-0.190
'0:03.472',-0.035,-0.205
'0:03.475',-0.025,-0.215
'0:03.478',-0.055,-0.230
'0:03.481',-0.055,-0.220
'0:03.483',-0.050,-0.200
'0:03.486',-0.050,-0.200
'0:03.489',-0.025,-0.210
'0:03.492',-0.045,-0.210
'0:03.494',-0.050,-0.230
'0:03.497',-0.055,-0.225
'0:03.500',-0.045,-0.210
'0:03.503',-0.030,-0.195
'0:03.506',-0.020,-0.215
'0:03.508',-0.030,-0.205
'0:03.511',-0.040,-0.220
'0:03.514',-0.040,-0.215
'0:03.517',-0.035,-0.205
'0:03.519',-0.035,-0.195
'0:03.522',-0.005,-0.200
'0:03.525',-0.035,-0.205
'0:03.528',-0.040,-0.220
'0:03.531',-0.050,-0.225
'0:03.533',-0.045,-0.200
'0:03.536',-0.035,-0.190
'0:03.539',-0.030,-0.195
'0:03.542',-0.035,-0.210
'0:03.544',-0.045,-0.220
'0:03.547',-0.070,-0.220
'0:03.550',-0.055,-0.215
'0:03.553',-0.045,-0.205
'0:03.556',-0.050,-0.220
'0:03.558',-0.060,-0.215
'0:03.561',-0.075,-0.225
'0:03.564',-0.105,-0.230
'0:03.567',-0.100,-0.220
'0:03.569',-0.090,-0.200
'0:03.572',-0.090,-0.225
'0:03.575',-0.105,-0.225
'0:03.578',-0.125,-0.255
'0:03.581',-0.120,-0.255
'0:03.583',-0.115,-0.235
'0:03.586',-0.100,-0.225
'0:03.589',-0.090,-0.235
'0:03.592',-0.105,-0.245
'0:03.594',-0.120,-0.260
'0:03.597',-0.145,-0.255
'0:03.600',-0.140,-0.255
'0:03.603',-0.120,-0.240
'0:03.606',-0.115,-0.245
'0:03.608',-0.130,-0.265
'0:03.611',-0.140,-0.265
'0:03.614',-0.155,-0.250
'0:03.617',-0.145,-0.240
'0:03.619',-0.155,-0.235
'0:03.622',-0.145,-0.245
'0:03.625',-0.140,-0.270
'0:03.628',-0.160,-0.275
'0:03.631',-0.145,-0.275
'0:03.633',-0.145,-0.265
'0:03.636',-0.140,-0.260
'0:03.639',-0.150,-0.255
'0:03.642',-0.135,-0.260
'0:03.644',-0.150,-0.275
'0:03.647',-0.165,-0.275
'0:03.650',-0.160,-0.260
'0:03.653',-0.170,-0.260
'0:03.656',-0.145,-0.250
'0:03.658',-0.145,-0.270
'0:03.661',-0.185,-0.285
'0:03.664',-0.180,-0.280
'0:03.667',-0.180,-0.275
'0:03.669',-0.160,-0.270
'0:03.672',-0.140,-0.275
'0:03.675',-0.155,-0.285
'0:03.678',-0.170,-0.290
'0:03.681',-0.180,-0.285
'0:03.683',-0.185,-0.280
'0:03.686',-0.165,-0.265
'0:03.689',-0.160,-0.275
'0:03.692',-0.185,-0.290
'0:03.694',-0.180,-0.300
'0:03.697',-0.190,-0.295
'0:03.700',-0.180,-0.290
'0:03.703',-0.160,-0.270
'0:03.706',-0.150,-0.275
'0:03.708',-0.150,-0.280
'0:03.711',-0.160,-0.290
'0:03.714',-0.170,-0.295
'0:03.717',-0.170,-0.280
'0:03.719',-0.155,-0.270
'0:03.722',-0.150,-0.285
'0:03.725',-0.160,-0.290
'0:03.728',-0.175,-0.310
'0:03.731',-0.190,-0.310
'0:03.733',-0.195,-0.280
'0:03.736',-0.185,-0.275
'0:03.739',-0.170,-0.280
'0:03.742',-0.180,-0.285
'0:03.744',-0.165,-0.310
'0:03.747',-0.180,-0.315
'0:03.750',-0.165,-0.290
'0:03.753',-0.165,-0.295
'0:03.756',-0.155,-0.295
'0:03.758',-0.180,-0.310
'0:03.761',-0.195,-0.315
'0:03.764',-0.200,-0.310
'0:03.767',-0.180,-0.305
'0:03.769',-0.170,-0.290
'0:03.772',-0.165,-0.280
'0:03.775',-0.165,-0.295
'0:03.778',-0.175,-0.305
'0:03.781',-0.180,-0.300
'0:03.783',-0.170,-0.290
'0:03.786',-0.160,-0.280
'0:03.789',-0.145,-0.290
'0:03.792',-0.155,-0.305
'0:03.794',-0.170,-0.315
'0:03.797',-0.165,-0.310
'0:03.800',-0.175,-0.300
'0:03.803',-0.170,-0.290
'0:03.806',-0.140,-0.300
'0:03.808',-0.150,-0.310
'0:03.811',-0.170,-0.320
'0:03.814',-0.175,-0.315
'0:03.817',-0.170,-0.300
'0:03.819',-0.150,-0.295
'0:03.822',-0.145,-0.285
'0:03.825',-0.150,-0.300
'0:03.828',-0.160,-0.320
'0:03.831',-0.175,-0.310
'0:03.833',-0.155,-0.300
'0:03.836',-0.150,-0.290
'0:03.839',-0.140,-0.290
'0:03.842',-0.145,-0.310
'0:03.844',-0.150,-0.330
'0:03.847',-0.180,-0.315
'0:03.850',-0.170,-0.295
'0:03.853',-0.145,-0.285
'0:03.856',-0.130,-0.285
'0:03.858',-0.145,-0.300
'0:03.861',-0.155,-0.305
'0:03.864',-0.185,-0.330
'0:03.867',-0.165,-0.315
'0:03.869',-0.155,-0.295
'0:03.872',-0.140,-0.300
'0:03.875',-0.140,-0.305
'0:03.878',-0.150,-0.315
'0:03.881',-0.160,-0.320
'0:03.883',-0.155,-0.305
'0:03.886',-0.155,-0.305
'0:03.889',-0.140,-0.310
'0:03.892',-0.140,-0.315
'0:03.894',-0.145,-0.325
'0:03.897',-0.150,-0.310
'0:03.900',-0.165,-0.295
'0:03.903',-0.145,-0.285
'0:03.906',-0.130,-0.300
'0:03.908',-0.140,-0.315
'0:03.911',-0.145,-0.330
'0:03.914',-0.160,-0.315
'0:03.917',-0.160,-0.315
'0:03.919',-0.145,-0.295
'0:03.922',-0.130,-0.300
'0:03.925',-0.130,-0.305
'0:03.928',-0.155,-0.310
'0:03.931',-0.150,-0.305
'0:03.933',-0.145,-0.285
'0:03.936',-0.120,-0.270
'0:03.939',-0.115,-0.260
'0:03.942',-0.120,-0.255
'0:03.944',-0.135,-0.270
'0:03.947',-0.120,-0.250
'0:03.950',-0.110,-0.245
'0:03.953',-0.090,-0.230
'0:03.956',-0.075,-0.225
'0:03.958',-0.050,-0.230
'0:03.961',-0.055,-0.245
'0:03.964',-0.070,-0.225
'0:03.967',-0.035,-0.220
'0:03.969',0.000,-0.230
'0:03.972',0.020,-0.270
'0:03.975',0.050,-0.300
'0:03.978',0.075,-0.340
'0:03.981',0.090,-0.345
'0:03.983',0.095,-0.340
'0:03.986',0.115,-0.335
'0:03.989',0.120,-0.325
'0:03.992',0.115,-0.330
'0:03.994',0.085,-0.335
'0:03.997',0.060,-0.325
'0:04.000',0.040,-0.310
'0:04.003',0.040,-0.280
'0:04.006',0.035,-0.275
'0:04.008',0.015,-0.300
'0:04.011',-0.005,-0.310
'0:04.014',-0.025,-0.320
'0:04.017',-0.045,-0.305
'0:04.019',-0.070,-0.285
'0:04.022',-0.095,-0.300
'0:04.025',-0.130,-0.310
'0:04.028',-0.165,-0.325
'0:04.031',-0.165,-0.325
'0:04.033',-0.160,-0.320
'0:04.036',-0.175,-0.310
'0:04.039',-0.175,-0.305
'0:04.042',-0.180,-0.320
'0:04.044',-0.185,-0.330
'0:04.047',-0.200,-0.330
'0:04.050',-0.180,-0.315
'0:04.053',-0.170,-0.305
'0:04.056',-0.155,-0.305
'0:04.058',-0.150,-0.310
'0:04.061',-0.180,-0.315
'0:04.064',-0.170,-0.315
'0:04.067',-0.160,-0.280
'0:04.069',-0.150,-0.255
'0:04.072',-0.120,-0.220
'0:04.075',-0.110,-0.190
'0:04.078',-0.135,-0.170
'0:04.081',-0.150,-0.185
'0:04.083',-0.135,-0.225
'0:04.086',-0.115,-0.265
'0:04.089',-0.140,-0.405
'0:04.092',-0.165,-0.565
'0:04.094',-0.200,-0.755
'0:04.097',-0.175,-0.925
'0:04.100',-0.085,-1.070
'0:04.103',0.080,-1.180
'0:04.106',0.265,-1.235
'0:04.108',0.450,-1.220
'0:04.111',0.640,-1.145
'0:04.114',0.775,-1.010
'0:04.117',0.855,-0.865
'0:04.119',0.790,-0.710
'0:04.122',0.545,-0.570
'0:04.125',0.220,-0.445
'0:04.128',-0.055,-0.350
'0:04.131',-0.190,-0.255
'0:04.133',-0.220,-0.195
'0:04.136',-0.175,-0.185
'0:04.139',-0.145,-0.180
'0:04.142',-0.105,-0.200
'0:04.144',-0.105,-0.205
'0:04.147',-0.135,-0.205
'0:04.150',-0.130,-0.195
'0:04.153',-0.135,-0.200
'0:04.156',-0.115,-0.205
'0:04.158',-0.125,-0.195
'0:04.161',-0.135,-0.205
'0:04.164',-0.140,-0.220
'0:04.167',-0.115,-0.210
'0:04.169',-0.105,-0.195
'0:04.172',-0.100,-0.195
'0:04.175',-0.115,-0.215
'0:04.178',-0.120,-0.215
'0:04.181',-0.125,-0.220
'0:04.183',-0.125,-0.200
'0:04.186',-0.135,-0.195
'0:04.189',-0.110,-0.200
'0:04.192',-0.115,-0.215
'0:04.194',-0.125,-0.230
'0:04.197',-0.125,-0.225
'0:04.200',-0.115,-0.210
'0:04.203',-0.105,-0.205
'0:04.206',-0.075,-0.195
'0:04.208',-0.100,-0.210
'0:04.211',-0.115,-0.210
'0:04.214',-0.110,-0.215
'0:04.217',-0.095,-0.205
'0:04.219',-0.085,-0.190
'0:04.222',-0.060,-0.205
'0:04.225',-0.070,-0.215
'0:04.228',-0.080,-0.225
'0:04.231',-0.090,-0.205
'0:04.233',-0.070,-0.190
'0:04.236',-0.060,-0.180
'0:04.239',-0.045,-0.175
'0:04.242',-0.065,-0.200
'0:04.244',-0.065,-0.205
'0:04.247',-0.075,-0.200
'0:04.250',-0.070,-0.195
'0:04.253',-0.065,-0.190
'0:04.256',-0.060,-0.190
'0:04.258',-0.060,-0.195
'0:04.261',-0.065,-0.200
'0:04.264',-0.065,-0.200
'0:04.267',-0.060,-0.205
'0:04.269',-0.050,-0.185
'0:04.272',-0.060,-0.185
'0:04.275',-0.050,-0.210
'0:04.278',-0.050,-0.220
'0:04.281',-0.055,-0.200
'0:04.283',-0.035,-0.190
'0:04.286',-0.030,-0.180
'0:04.289',-0.010,-0.190
'0:04.292',-0.025,-0.200
'0:04.294',-0.035,-0.210
'0:04.297',-0.060,-0.215
'0:04.300',-0.040,-0.190
'0:04.303',-0.020,-0.165
'0:04.306',-0.020,-0.175
'0:04.308',-0.010,-0.190
'0:04.311',-0.030,-0.185
'0:04.314',-0.035,-0.190
'0:04.317',-0.020,-0.180
'0:04.319',-0.010,-0.160
'0:04.322',0.010,-0.170
'0:04.325',0.010,-0.190
'0:04.328',0.005,-0.200
'0:04.331',-0.015,-0.195
'0:04.333',-0.005,-0.175
'0:04.336',-0.005,-0.155
'0:04.339',-0.010,-0.160
'0:04.342',0.000,-0.170
'0:04.344',-0.020,-0.190
'0:04.347',-0.020,-0.190
'0:04.350',-0.020,-0.180
'0:04.353',-0.015,-0.165
'0:04.356',-0.005,-0.165
'0:04.358',-0.025,-0.190
'0:04.361',-0.045,-0.200
'0:04.364',-0.040,-0.205
'0:04.367',-0.035,-0.190
'0:04.369',-0.030,-0.185
'0:04.372',-0.020,-0.200
'0:04.375',-0.040,-0.205
'0:04.378',-0.065,-0.220
'0:04.381',-0.070,-0.210
'0:04.383',-0.065,-0.210
'0:04.386',-0.060,-0.190
'0:04.389',-0.050,-0.210
'0:04.392',-0.070,-0.220
'0:04.394',-0.080,-0.230
'0:04.397',-0.105,-0.230
'0:04.400',-0.095,-0.220
'0:04.403',-0.080,-0.210
'0:04.406',-0.070,-0.210
'0:04.408',-0.060,-0.220
'0:04.411',-0.085,-0.235
'0:04.414',-0.095,-0.240
'0:04.417',-0.100,-0.230
'0:04.419',-0.075,-0.225
'0:04.422',-0.075,-0.225
'0:04.425',-0.080,-0.235
'0:04.428',-0.100,-0.250
'0:04.431',-0.120,-0.240
'0:04.433',-0.105,-0.230
'0:04.436',-0.105,-0.215
'0:04.439',-0.095,-0.225
'0:04.442',-0.095,-0.230
'0:04.444',-0.100,-0.255
'0:04.447',-0.110,-0.235
'0:04.450',-0.115,-0.230
'0:04.453',-0.095,-0.210
'0:04.456',-0.095,-0.215
'0:04.458',-0.095,-0.215
'0:04.461',-0.105,-0.235
'0:04.464',-0.115,-0.235
'0:04.467',-0.110,-0.220
'0:04.469',-0.105,-0.215
'0:04.472',-0.075,-0.225
'0:04.475',-0.090,-0.235
'0:04.478',-0.090,-0.235
'0:04.481',-0.100,-0.240
'0:04.483',-0.095,-0.240
'0:04.486',-0.105,-0.215
'0:04.489',-0.085,-0.230
'0:04.492',-0.085,-0.235
'0:04.494',-0.105,-0.250
'0:04.497',-0.100,-0.250
'0:04.500',-0.115,-0.235
'0:04.503',-0.110,-0.220
'0:04.506',-0.105,-0.230
'0:04.508',-0.100,-0.240
'0:04.511',-0.110,-0.255
'0:04.514',-0.120,-0.250
'0:04.517',-0.100,-0.235
'0:04.519',-0.105,-0.215
'0:04.522',-0.095,-0.230
'0:04.525',-0.105,-0.235
'0:04.528',-0.110,-0.245
'0:04.531',-0.130,-0.260
'0:04.533',-0.120,-0.255
'0:04.536',-0.105,-0.235
'0:04.539',-0.100,-0.240
'0:04.542',-0.095,-0.235
'0:04.544',-0.105,-0.250
'0:04.547',-0.105,-0.245
'0:04.550',-0.100,-0.240
'0:04.553',-0.105,-0.225
'0:04.556',-0.080,-0.230
'0:04.558',-0.075,-0.240
'0:04.561',-0.105,-0.245
'0:04.564',-0.105,-0.245
'0:04.567',-0.100,-0.240
'0:04.569',-0.095,-0.220
'0:04.572',-0.080,-0.230
'0:04.575',-0.090,-0.245
'0:04.578',-0.090,-0.250
'0:04.581',-0.090,-0.255
'0:04.583',-0.095,-0.245
'0:04.586',-0.080,-0.230
'0:04.589',-0.070,-0.235
'0:04.592',-0.080,-0.240
'0:04.594',-0.095,-0.260
'0:04.597',-0.105,-0.250
'0:04.600',-0.105,-0.250
'0:04.603',-0.105,-0.235
'0:04.606',-0.085,-0.245
'0:04.608',-0.060,-0.255
'0:04.611',-0.095,-0.270
'0:04.614',-0.085,-0.265
'0:04.617',-0.080,-0.245
'0:04.619',-0.080,-0.240
'0:04.622',-0.055,-0.235
'0:04.625',-0.075,-0.235
'0:04.628',-0.085,-0.255
'0:04.631',-0.085,-0.255
'0:04.633',-0.075,-0.250
'0:04.636',-0.075,-0.230
'0:04.639',-0.070,-0.240
'0:04.642',-0.060,-0.250
'0:04.644',-0.075,-0.255
'0:04.647',-0.080,-0.255
'0:04.650',-0.075,-0.240
'0:04.653',-0.055,-0.230
'0:04.656',-0.050,-0.235
'0:04.658',-0.060,-0.250
'0:04.661',-0.080,-0.270
'0:04.664',-0.085,-0.265
'0:04.667',-0.070,-0.250
'0:04.669',-0.055,-0.240
'0:04.672',-0.040,-0.245
'0:04.675',-0.050,-0.245
'0:04.678',-0.065,-0.270
'0:04.681',-0.100,-0.245
'0:04.683',-0.070,-0.240
'0:04.686',-0.055,-0.225
'0:04.689',-0.040,-0.235
'0:04.692',-0.070,-0.250
'0:04.694',-0.050,-0.250
'0:04.697',-0.070,-0.245
'0:04.700',-0.050,-0.245
'0:04.703',-0.050,-0.235
'0:04.706',-0.035,-0.240
'0:04.708',-0.040,-0.250
'0:04.711',-0.055,-0.260
'0:04.714',-0.070,-0.250
'0:04.717',-0.070,-0.235
'0:04.719',-0.050,-0.240
'0:04.722',-0.040,-0.225
'0:04.725',-0.040,-0.250
'0:04.728',-0.050,-0.265
'0:04.731',-0.060,-0.245
'0:04.733',-0.075,-0.240
'0:04.736',-0.070,-0.225
'0:04.739',-0.055,-0.230
'0:04.742',-0.060,-0.240
'0:04.744',-0.075,-0.255
'0:04.747',-0.080,-0.245
'0:04.750',-0.065,-0.230
'0:04.753',-0.060,-0.220
'0:04.756',-0.045,-0.215
'0:04.758',-0.035,-0.230
'0:04.761',-0.040,-0.225
'0:04.764',-0.030,-0.210
'0:04.767',-0.025,-0.190
'0:04.769',0.005,-0.175
'0:04.772',0.010,-0.165
'0:04.775',0.005,-0.180
'0:04.778',0.005,-0.180
'0:04.781',0.005,-0.175
'0:04.783',0.025,-0.170
'0:04.786',0.050,-0.155
'0:04.789',0.070,-0.175
'0:04.792',0.095,-0.200
'0:04.794',0.110,-0.245
'0:04.797',0.130,-0.265
'0:04.800',0.150,-0.275
'0:04.803',0.170,-0.270
'0:04.806',0.185,-0.270
'0:04.808',0.170,-0.295
'0:04.811',0.155,-0.315
'0:04.814',0.135,-0.300
'0:04.817',0.130,-0.275
'0:04.819',0.100,-0.255
'0:04.822',0.105,-0.250
'0:04.825',0.085,-0.250
'0:04.828',0.055,-0.265
'0:04.831',0.040,-0.255
'0:04.833',0.025,-0.250
'0:04.836',0.015,-0.230
'0:04.839',0.000,-0.245
'0:04.842',-0.035,-0.260
'0:04.844',-0.065,-0.265
'0:04.847',-0.105,-0.265
'0:04.850',-0.125,-0.265
'0:04.853',-0.110,-0.260
'0:04.856',-0.130,-0.260
'0:04.858',-0.145,-0.270
'0:04.861',-0.150,-0.270
'0:04.864',-0.145,-0.265
'0:04.867',-0.150,-0.265
'0:04.869',-0.135,-0.250
'0:04.872',-0.115,-0.255
'0:04.875',-0.130,-0.265
'0:04.878',-0.155,-0.285
'0:04.881',-0.165,-0.265
'0:04.883',-0.160,-0.255
'0:04.886',-0.140,-0.235
'0:04.889',-0.130,-0.240
'0:04.892',-0.135,-0.235
'0:04.894',-0.150,-0.220
'0:04.897',-0.165,-0.185
'0:04.900',-0.130,-0.140
'0:04.903',-0.115,-0.120
'0:04.906',-0.115,-0.170
'0:04.908',-0.120,-0.235
'0:04.911',-0.120,-0.330
'0:04.914',-0.150,-0.475
'0:04.917',-0.160,-0.630
'0:04.919',-0.170,-0.805
'0:04.922',-0.110,-0.980
'0:04.925',-0.030,-1.130
'0:04.928',0.105,-1.215
'0:04.931',0.275,-1.210
'0:04.933',0.490,-1.145
'0:04.936',0.665,-1.035
'0:04.939',0.750,-0.915
'0:04.942',0.690,-0.770
'0:04.944',0.475,-0.640
'0:04.947',0.190,-0.495
'0:04.950',-0.030,-0.365
'0:04.953',-0.155,-0.240
'0:04.956',-0.205,-0.190
'0:04.958',-0.200,-0.185
'0:04.961',-0.180,-0.180
'0:04.964',-0.175,-0.175
'0:04.967',-0.140,-0.175
'0:04.969',-0.135,-0.160
'0:04.972',-0.120,-0.160
'0:04.975',-0.135,-0.170
'0:04.978',-0.160,-0.180
'0:04.981',-0.160,-0.180
'0:04.983',-0.170,-0.155
'0:04.986',-0.155,-0.145
'0:04.989',-0.145,-0.160
'0:04.992',-0.140,-0.165
'0:04.994',-0.150,-0.195
'0:04.997',-0.145,-0.195
'0:05.000',-0.150,-0.185
'0:05.003',-0.140,-0.170
'0:05.006',-0.125,-0.170
'0:05.008',-0.135,-0.175
'0:05.011',-0.145,-0.205
'0:05.014',-0.150,-0.195
'0:05.017',-0.145,-0.170
'0:05.019',-0.150,-0.165
'0:05.022',-0.150,-0.180
'0:05.025',-0.130,-0.180
'0:05.028',-0.140,-0.195
'0:05.031',-0.160,-0.185
'0:05.033',-0.150,-0.165
'0:05.036',-0.125,-0.155
'0:05.039',-0.115,-0.145
'0:05.042',-0.110,-0.170
'0:05.044',-0.130,-0.180
'0:05.047',-0.145,-0.170
'0:05.050',-0.145,-0.160
'0:05.053',-0.120,-0.155
'0:05.056',-0.105,-0.160
'0:05.058',-0.120,-0.175
'0:05.061',-0.120,-0.175
'0:05.064',-0.125,-0.185
'0:05.067',-0.120,-0.165
'0:05.069',-0.115,-0.165
'0:05.072',-0.095,-0.175
'0:05.075',-0.090,-0.175
'0:05.078',-0.105,-0.185
'0:05.081',-0.115,-0.175
'0:05.083',-0.100,-0.175
'0:05.086',-0.110,-0.165
'0:05.089',-0.090,-0.165
'0:05.092',-0.100,-0.170
'0:05.094',-0.100,-0.180
'0:05.097',-0.125,-0.185
'0:05.100',-0.105,-0.170
'0:05.103',-0.085,-0.160
'0:05.106',-0.080,-0.160
'0:05.108',-0.085,-0.160
'0:05.111',-0.105,-0.175
'0:05.114',-0.100,-0.165
'0:05.117',-0.100,-0.150
'0:05.119',-0.100,-0.140
'0:05.122',-0.090,-0.150
'0:05.125',-0.085,-0.165
'0:05.128',-0.100,-0.175
'0:05.131',-0.115,-0.165
'0:05.133',-0.095,-0.145
'0:05.136',-0.080,-0.140
'0:05.139',-0.075,-0.150
'0:05.142',-0.085,-0.160
'0:05.144',-0.080,-0.190
'0:05.147',-0.095,-0.180
'0:05.150',-0.090,-0.170
'0:05.153',-0.080,-0.155
'0:05.156',-0.060,-0.155
'0:05.158',-0.080,-0.160
'0:05.161',-0.085,-0.170
'0:05.164',-0.100,-0.165
'0:05.167',-0.100,-0.160
'0:05.169',-0.095,-0.160
'0:05.172',-0.070,-0.155
'0:05.175',-0.080,-0.170
'0:05.178',-0.080,-0.180
'0:05.181',-0.080,-0.190
'0:05.183',-0.085,-0.170
'0:05.186',-0.095,-0.165
'0:05.189',-0.085,-0.175
'0:05.192',-0.105,-0.180
'0:05.194',-0.125,-0.195
'0:05.197',-0.145,-0.205
'0:05.200',-0.155,-0.180
'0:05.203',-0.140,-0.180
'0:05.206',-0.120,-0.195
'0:05.208',-0.130,-0.190
'0:05.211',-0.155,-0.205
'0:05.214',-0.165,-0.200
'0:05.217',-0.160,-0.200
'0:05.219',-0.155,-0.185
'0:05.222',-0.150,-0.195
'0:05.225',-0.160,-0.205
'0:05.228',-0.155,-0.210
'0:05.231',-0.160,-0.205
'0:05.233',-0.160,-0.200
'0:05.236',-0.145,-0.195
'0:05.239',-0.150,-0.195
'0:05.242',-0.165,-0.225
'0:05.244',-0.180,-0.235
'0:05.247',-0.185,-0.220
'0:05.250',-0.180,-0.195
'0:05.253',-0.180,-0.195
'0:05.256',-0.170,-0.190
'0:05.258',-0.165,-0.210
'0:05.261',-0.170,-0.210
'0:05.264',-0.180,-0.205
'0:05.267',-0.175,-0.215
'0:05.269',-0.160,-0.200
'0:05.272',-0.155,-0.190
'0:05.275',-0.165,-0.205
'0:05.278',-0.175,-0.225
'0:05.281',-0.185,-0.215
'0:05.283',-0.190,-0.205
'0:05.286',-0.160,-0.210
'0:05.289',-0.160,-0.205
'0:05.292',-0.160,-0.210
'0:05.294',-0.180,-0.210
'0:05.297',-0.195,-0.210
'0:05.300',-0.195,-0.205
'0:05.303',-0.180,-0.200
'0:05.306',-0.165,-0.195
'0:05.308',-0.175,-0.225
'0:05.311',-0.185,-0.235
'0:05.314',-0.190,-0.245
'0:05.317',-0.200,-0.215
'0:05.319',-0.190,-0.200
'0:05.322',-0.175,-0.215
'0:05.325',-0.190,-0.215
'0:05.328',-0.185,-0.225
'0:05.331',-0.205,-0.230
'0:05.333',-0.200,-0.215
'0:05.336',-0.190,-0.210
'0:05.339',-0.165,-0.215
'0:05.342',-0.170,-0.225
'0:05.344',-0.185,-0.240
'0:05.347',-0.185,-0.225
'0:05.350',-0.185,-0.225
'0:05.353',-0.175,-0.220
'0:05.356',-0.180,-0.230
'0:05.358',-0.165,-0.230
'0:05.361',-0.175,-0.245
'0:05.364',-0.190,-0.230
'0:05.367',-0.185,-0.225
'0:05.369',-0.155,-0.210
'0:05.372',-0.160,-0.215
'0:05.375',-0.170,-0.225
'0:05.378',-0.190,-0.245
'0:05.381',-0.185,-0.240
'0:05.383',-0.180,-0.235
'0:05.386',-0.160,-0.200
'0:05.389',-0.140,-0.215
'0:05.392',-0.145,-0.225
'0:05.394',-0.160,-0.245
'0:05.397',-0.165,-0.240
'0:05.400',-0.180,-0.220
'0:05.403',-0.155,-0.220
'0:05.406',-0.150,-0.225
'0:05.408',-0.165,-0.225
'0:05.411',-0.165,-0.245
'0:05.414',-0.165,-0.245
'0:05.417',-0.175,-0.240
'0:05.419',-0.165,-0.225
'0:05.422',-0.145,-0.230
'0:05.425',-0.145,-0.250
'0:05.428',-0.155,-0.255
'0:05.431',-0.160,-0.250
'0:05.433',-0.165,-0.240
'0:05.436',-0.140,-0.225
'0:05.439',-0.135,-0.235
'0:05.442',-0.145,-0.240
'0:05.444',-0.150,-0.250
'0:05.447',-0.160,-0.240
'0:05.450',-0.155,-0.235
'0:05.453',-0.140,-0.230
'0:05.456',-0.130,-0.215
'0:05.458',-0.135,-0.230
'0:05.461',-0.150,-0.250
'0:05.464',-0.145,-0.240
'0:05.467',-0.155,-0.235
'0:05.469',-0.140,-0.215
'0:05.472',-0.115,-0.210
'0:05.475',-0.120,-0.235
'0:05.478',-0.130,-0.245
'0:05.481',-0.125,-0.235
'0:05.483',-0.130,-0.220
'0:05.486',-0.115,-0.215
'0:05.489',-0.120,-0.210
'0:05.492',-0.125,-0.230
'0:05.494',-0.125,-0.245
'0:05.497',-0.130,-0.225
'0:05.500',-0.120,-0.230
'0:05.503',-0.130,-0.220
'0:05.506',-0.115,-0.225
'0:05.508',-0.115,-0.235
'0:05.511',-0.125,-0.245
'0:05.514',-0.125,-0.240
'0:05.517',-0.125,-0.220
'0:05.519',-0.125,-0.225
'0:05.522',-0.110,-0.200
'0:05.525',-0.095,-0.225
'0:05.528',-0.125,-0.230
'0:05.531',-0.135,-0.230
'0:05.533',-0.125,-0.225
'0:05.536',-0.100,-0.215
'0:05.539',-0.085,-0.220
'0:05.542',-0.100,-0.240
'0:05.544',-0.110,-0.245
'0:05.547',-0.115,-0.245
'0:05.550',-0.120,-0.235
'0:05.553',-0.105,-0.205
'0:05.556',-0.080,-0.215
'0:05.558',-0.095,-0.230
'0:05.561',-0.110,-0.245
'0:05.564',-0.115,-0.235
'0:05.567',-0.115,-0.215
'0:05.569',-0.090,-0.195
'0:05.572',-0.085,-0.200
'0:05.575',-0.095,-0.225
'0:05.578',-0.100,-0.230
'0:05.581',-0.110,-0.225
'0:05.583',-0.090,-0.220
'0:05.586',-0.080,-0.185
'0:05.589',-0.070,-0.185
'0:05.592',-0.065,-0.170
'0:05.594',-0.070,-0.175
'0:05.597',-0.055,-0.180
'0:05.600',-0.050,-0.160
'0:05.603',-0.025,-0.150
'0:05.606',0.000,-0.165
'0:05.608',0.010,-0.180
'0:05.611',0.005,-0.185
'0:05.614',0.015,-0.200
'0:05.617',0.045,-0.190
'0:05.619',0.095,-0.220
'0:05.622',0.135,-0.245
'0:05.625',0.140,-0.270
'0:05.628',0.150,-0.280
'0:05.631',0.145,-0.280
'0:05.633',0.150,-0.260
'0:05.636',0.135,-0.245
'0:05.639',0.130,-0.245
'0:05.642',0.115,-0.260
'0:05.644',0.095,-0.255
'0:05.647',0.075,-0.240
'0:05.650',0.065,-0.220
'0:05.653',0.075,-0.210
'0:05.656',0.070,-0.205
'0:05.658',0.055,-0.230
'0:05.661',0.000,-0.235
'0:05.664',-0.045,-0.220
'0:05.667',-0.065,-0.225
'0:05.669',-0.095,-0.225
'0:05.672',-0.105,-0.230
'0:05.675',-0.120,-0.255
'0:05.678',-0.130,-0.245
'0:05.681',-0.140,-0.240
'0:05.683',-0.150,-0.225
'0:05.686',-0.125,-0.220
'0:05.689',-0.110,-0.225
'0:05.692',-0.115,-0.225
'0:05.694',-0.130,-0.245
'0:05.697',-0.135,-0.230
'0:05.700',-0.135,-0.220
'0:05.703',-0.115,-0.225
'0:05.706',-0.105,-0.215
'0:05.708',-0.110,-0.225
'0:05.711',-0.100,-0.235
'0:05.714',-0.100,-0.210
'0:05.717',-0.100,-0.165
'0:05.719',-0.090,-0.120
'0:05.722',-0.070,-0.105
'0:05.725',-0.080,-0.140
'0:05.728',-0.095,-0.220
'0:05.731',-0.125,-0.310
'0:05.733',-0.145,-0.450
'0:05.736',-0.150,-0.610
'0:05.739',-0.130,-0.800
'0:05.742',-0.070,-0.980
'0:05.744',0.050,-1.115
'0:05.747',0.215,-1.170
'0:05.750',0.440,-1.120
'0:05.753',0.665,-1.000
'0:05.756',0.800,-0.840
'0:05.758',0.770,-0.695
'0:05.761',0.550,-0.535
'0:05.764',0.215,-0.380
'0:05.767',-0.030,-0.230
'0:05.769',-0.130,-0.160
'0:05.772',-0.145,-0.115
'0:05.775',-0.115,-0.115
'0:05.778',-0.100,-0.120
'0:05.781',-0.095,-0.120
'0:05.783',-0.080,-0.105
'0:05.786',-0.055,-0.100
'0:05.789',-0.060,-0.110
'0:05.792',-0.080,-0.130
'0:05.794',-0.095,-0.145
'0:05.797',-0.085,-0.135
'0:05.800',-0.090,-0.135
'0:05.803',-0.080,-0.120
'0:05.806',-0.075,-0.110
'0:05.808',-0.065,-0.130
'0:05.811',-0.075,-0.145
'0:05.814',-0.080,-0.140
'0:05.817',-0.070,-0.125
'0:05.819',-0.060,-0.130
'0:05.822',-0.060,-0.140
'0:05.825',-0.055,-0.130
'0:05.828',-0.060,-0.150
'0:05.831',-0.065,-0.155
'0:05.833',-0.055,-0.135
'0:05.836',-0.045,-0.130
'0:05.839',-0.050,-0.120
'0:05.842',-0.055,-0.140
'0:05.844',-0.070,-0.155
'0:05.847',-0.080,-0.155
'0:05.850',-0.050,-0.135
'0:05.853',-0.050,-0.115
'0:05.856',-0.020,-0.120
'0:05.858',-0.035,-0.135
'0:05.861',-0.050,-0.145
'0:05.864',-0.040,-0.155
'0:05.867',-0.045,-0.125
'0:05.869',-0.030,-0.125
'0:05.872',-0.020,-0.125
'0:05.875',-0.015,-0.125
'0:05.878',-0.035,-0.145
'0:05.881',-0.040,-0.150
'0:05.883',-0.030,-0.145
'0:05.886',-0.020,-0.130
'0:05.889',-0.015,-0.140
'0:05.892',-0.025,-0.135
'0:05.894',-0.035,-0.145
'0:05.897',-0.025,-0.150
'0:05.900',-0.025,-0.135
'0:05.903',-0.015,-0.120
'0:05.906',-0.005,-0.120
'0:05.908',-0.015,-0.135
'0:05.911',-0.030,-0.150
'0:05.914',-0.035,-0.140
'0:05.917',-0.035,-0.140
'0:05.919',-0.010,-0.115
'0:05.922',-0.005,-0.110
'0:05.925',-0.005,-0.145
'0:05.928',-0.020,-0.140
'0:05.931',-0.020,-0.160
'0:05.933',-0.020,-0.145
'0:05.936',0.000,-0.130
'0:05.939',0.015,-0.110
'0:05.942',0.020,-0.145
'0:05.944',0.005,-0.150
'0:05.947',0.000,-0.155
'0:05.950',0.000,-0.145
'0:05.953',0.015,-0.135
'0:05.956',0.005,-0.140
'0:05.958',0.015,-0.150
'0:05.961',0.010,-0.145
'0:05.964',-0.005,-0.160
'0:05.967',0.010,-0.135
'0:05.969',0.015,-0.130
'0:05.972',0.035,-0.140
'0:05.975',0.010,-0.150
'0:05.978',0.005,-0.170
'0:05.981',0.000,-0.165
'0:05.983',0.000,-0.145
'0:05.986',0.000,-0.145
'0:05.989',0.010,-0.140
'0:05.992',0.000,-0.145
'0:05.994',-0.015,-0.170
'0:05.997',-0.035,-0.175
'0:06.000',-0.030,-0.150
'0:06.003',-0.030,-0.145
'0:06.006',-0.025,-0.160
'0:06.008',-0.045,-0.170
'0:06.011',-0.055,-0.185
'0:06.014',-0.075,-0.180
'0:06.017',-0.060,-0.175
'0:06.019',-0.055,-0.160
'0:06.022',-0.035,-0.165
'0:06.025',-0.055,-0.170
'0:06.028',-0.080,-0.185
'0:06.031',-0.100,-0.170
'0:06.033',-0.070,-0.165
'0:06.036',-0.045,-0.155
'0:06.039',-0.050,-0.155
'0:06.042',-0.050,-0.170
'0:06.044',-0.070,-0.180
'0:06.047',-0.075,-0.180
'0:06.050',-0.070,-0.170
'0:06.053',-0.050,-0.145
'0:06.056',-0.045,-0.155
'0:06.058',-0.045,-0.170
'0:06.061',-0.055,-0.175
'0:06.064',-0.065,-0.180
'0:06.067',-0.075,-0.175
'0:06.069',-0.060,-0.175
'0:06.072',-0.035,-0.175
'0:06.075',-0.050,-0.185
'0:06.078',-0.075,-0.205
'0:06.081',-0.085,-0.205
'0:06.083',-0.090,-0.175
'0:06.086',-0.055,-0.160
'0:06.089',-0.055,-0.175
'0:06.092',-0.065,-0.195
'0:06.094',-0.065,-0.210
'0:06.097',-0.090,-0.200
'0:06.100',-0.080,-0.170
'0:06.103',-0.065,-0.180
'0:06.106',-0.060,-0.180
'0:06.108',-0.070,-0.195
'0:06.111',-0.095,-0.200
'0:06.114',-0.095,-0.205
'0:06.117',-0.090,-0.190
'0:06.119',-0.080,-0.175
'0:06.122',-0.080,-0.195
'0:06.125',-0.080,-0.205
'0:06.128',-0.095,-0.220
'0:06.131',-0.100,-0.205
'0:06.133',-0.090,-0.205
'0:06.136',-0.070,-0.180
'0:06.139',-0.070,-0.190
'0:06.142',-0.075,-0.210
'0:06.144',-0.090,-0.215
'0:06.147',-0.100,-0.220
'0:06.150',-0.090,-0.195
'0:06.153',-0.080,-0.195
'0:06.156',-0.060,-0.200
'0:06.158',-0.060,-0.215
'0:06.161',-0.085,-0.235
'0:06.164',-0.095,-0.230
'0:06.167',-0.085,-0.215
'0:06.169',-0.065,-0.205
'0:06.172',-0.060,-0.200
'0:06.175',-0.065,-0.210
'0:06.178',-0.090,-0.225
'0:06.181',-0.090,-0.215
'0:06.183',-0.080,-0.215
'0:06.186',-0.070,-0.200
'0:06.189',-0.060,-0.205
'0:06.192',-0.060,-0.230
'0:06.194',-0.065,-0.230
'0:06.197',-0.070,-0.225
'0:06.200',-0.065,-0.210
'0:06.203',-0.055,-0.195
'0:06.206',-0.045,-0.210
'0:06.208',-0.055,-0.230
'0:06.211',-0.070,-0.240
'0:06.214',-0.075,-0.225
'0:06.217',-0.055,-0.225
'0:06.219',-0.040,-0.215
'0:06.222',-0.040,-0.215
'0:06.225',-0.045,-0.225
'0:06.228',-0.055,-0.230
'0:06.231',-0.065,-0.225
'0:06.233',-0.055,-0.210
'0:06.236',-0.050,-0.205
'0:06.239',-0.045,-0.210
'0:06.242',-0.040,-0.210
'0:06.244',-0.055,-0.245
'0:06.247',-0.065,-0.235
'0:06.250',-0.055,-0.225
'0:06.253',-0.020,-0.215
'0:06.256',-0.015,-0.220
'0:06.258',-0.030,-0.235
'0:06.261',-0.045,-0.245
'0:06.264',-0.045,-0.240
'0:06.267',-0.040,-0.225
'0:06.269',-0.045,-0.205
'0:06.272',-0.025,-0.225
'0:06.275',-0.035,-0.230
'0:06.278',-0.035,-0.250
'0:06.281',-0.055,-0.250
'0:06.283',-0.055,-0.225
'0:06.286',-0.050,-0.225
'0:06.289',-0.020,-0.225
'0:06.292',-0.030,-0.230
'0:06.294',-0.040,-0.245
'0:06.297',-0.060,-0.250
'0:06.300',-0.045,-0.220
'0:06.303',-0.035,-0.220
'0:06.306',-0.015,-0.195
'0:06.308',-0.010,-0.225
'0:06.311',-0.020,-0.220
'0:06.314',-0.025,-0.205
'0:06.317',-0.025,-0.190
'0:06.319',0.000,-0.170
'0:06.322',0.025,-0.180
'0:06.325',0.020,-0.175
'0:06.328',0.020,-0.200
'0:06.331',0.025,-0.185
'0:06.333',0.035,-0.175
'0:06.336',0.035,-0.150
'0:06.339',0.065,-0.135
'0:06.342',0.065,-0.140
'0:06.344',0.080,-0.160
'0:06.347',0.110,-0.180
'0:06.350',0.160,-0.200
'0:06.353',0.225,-0.215
'0:06.356',0.250,-0.225
'0:06.358',0.255,-0.260
'0:06.361',0.250,-0.270
'0:06.364',0.230,-0.270
'0:06.367',0.240,-0.265
'0:06.369',0.255,-0.250
'0:06.372',0.230,-0.250
'0:06.375',0.195,-0.250
'0:06.378',0.180,-0.250
'0:06.381',0.155,-0.230
'0:06.383',0.130,-0.230
'0:06.386',0.130,-0.225
'0:06.389',0.100,-0.225
'0:06.392',0.085,-0.255
'0:06.394',0.005,-0.260
'0:06.397',-0.030,-0.250
'0:06.400',-0.045,-0.260
'0:06.403',-0.035,-0.250
'0:06.406',-0.050,-0.250
'0:06.408',-0.060,-0.260
'0:06.411',-0.080,-0.275
'0:06.414',-0.090,-0.265
'0:06.417',-0.100,-0.265
'0:06.419',-0.085,-0.255
'0:06.422',-0.085,-0.260
'0:06.425',-0.090,-0.260
'0:06.428',-0.100,-0.275
'0:06.431',-0.120,-0.245
'0:06.433',-0.095,-0.235
'0:06.436',-0.075,-0.240
'0:06.439',-0.060,-0.225
'0:06.442',-0.065,-0.235
'0:06.444',-0.075,-0.235
'0:06.447',-0.080,-0.205
'0:06.450',-0.070,-0.140
'0:06.453',-0.050,-0.105
'0:06.456',-0.045,-0.105
'0:06.458',-0.050,-0.165
'0:06.461',-0.075,-0.285
'0:06.464',-0.100,-0.465
'0:06.467',-0.105,-0.680
'0:06.469',-0.080,-0.885
'0:06.472',0.025,-1.105
'0:06.475',0.180,-1.240
'0:06.478',0.365,-1.295
'0:06.481',0.540,-1.265
'0:06.483',0.715,-1.145
'0:06.486',0.860,-1.010
'0:06.489',0.890,-0.865
'0:06.492',0.795,-0.715
'0:06.494',0.535,-0.565
'0:06.497',0.190,-0.385
'0:06.500',-0.060,-0.245
'0:06.503',-0.170,-0.165
'0:06.506',-0.155,-0.155
'0:06.508',-0.100,-0.155
'0:06.511',-0.080,-0.175
'0:06.514',-0.085,-0.170
'0:06.517',-0.095,-0.160
'0:06.519',-0.100,-0.140
'0:06.522',-0.090,-0.145
'0:06.525',-0.100,-0.160
'0:06.528',-0.100,-0.175
'0:06.531',-0.105,-0.170
'0:06.533',-0.090,-0.155
'0:06.536',-0.075,-0.155
'0:06.539',-0.085,-0.155
'0:06.542',-0.070,-0.160
'0:06.544',-0.085,-0.160
'0:06.547',-0.085,-0.165
'0:06.550',-0.080,-0.150
'0:06.553',-0.080,-0.150
'0:06.556',-0.075,-0.155
'0:06.558',-0.080,-0.170
'0:06.561',-0.090,-0.180
'0:06.564',-0.090,-0.175
'0:06.567',-0.080,-0.165
'0:06.569',-0.070,-0.145
'0:06.572',-0.060,-0.145
'0:06.575',-0.065,-0.160
'0:06.578',-0.080,-0.175
'0:06.581',-0.075,-0.185
'0:06.583',-0.080,-0.170
'0:06.586',-0.065,-0.155
'0:06.589',-0.055,-0.155
'0:06.592',-0.060,-0.160
'0:06.594',-0.065,-0.180
'0:06.597',-0.080,-0.180
'0:06.600',-0.080,-0.165
'0:06.603',-0.055,-0.150
'0:06.606',-0.040,-0.150
'0:06.608',-0.045,-0.155
'0:06.611',-0.050,-0.165
'0:06.614',-0.065,-0.150
'0:06.617',-0.065,-0.150
'0:06.619',-0.045,-0.140
'0:06.622',-0.030,-0.150
'0:06.625',-0.060,-0.160
'0:06.628',-0.050,-0.155
'0:06.631',-0.070,-0.165
'0:06.633',-0.050,-0.135
'0:06.636',-0.035,-0.135
'0:06.639',-0.030,-0.135
'0:06.642',-0.035,-0.160
'0:06.644',-0.045,-0.150
'0:06.647',-0.050,-0.160
'0:06.650',-0.040,-0.130
'0:06.653',-0.030,-0.120
'0:06.656',-0.010,-0.120
'0:06.658',-0.025,-0.135
'0:06.661',-0.040,-0.145
'0:06.664',-0.045,-0.145
'0:06.667',-0.025,-0.125
'0:06.669',-0.015,-0.110
'0:06.672',0.000,-0.125
'0:06.675',-0.015,-0.130
'0:06.678',-0.015,-0.155
'0:06.681',-0.020,-0.140
'0:06.683',-0.015,-0.130
'0:06.686',-0.010,-0.115
'0:06.689',-0.005,-0.120
'0:06.692',-0.005,-0.135
'0:06.694',-0.015,-0.140
'0:06.697',-0.035,-0.130
'0:06.700',-0.040,-0.120
'0:06.703',-0.025,-0.120
'0:06.706',-0.020,-0.115
'0:06.708',-0.025,-0.130
'0:06.711',-0.040,-0.155
'0:06.714',-0.060,-0.155
'0:06.717',-0.065,-0.145
'0:06.719',-0.040,-0.130
'0:06.722',-0.055,-0.140
'0:06.725',-0.070,-0.155
'0:06.728',-0.090,-0.165
'0:06.731',-0.105,-0.170
'0:06.733',-0.100,-0.165
'0:06.736',-0.090,-0.160
'0:06.739',-0.070,-0.170
'0:06.742',-0.090,-0.170
'0:06.744',-0.115,-0.180
'0:06.747',-0.125,-0.190
'0:06.750',-0.115,-0.170
'0:06.753',-0.115,-0.165
'0:06.756',-0.105,-0.180
'0:06.758',-0.120,-0.190
'0:06.761',-0.130,-0.195
'0:06.764',-0.135,-0.190
'0:06.767',-0.145,-0.175
'0:06.769',-0.145,-0.170
'0:06.772',-0.135,-0.180
'0:06.775',-0.150,-0.185
'0:06.778',-0.165,-0.220
'0:06.781',-0.170,-0.210
'0:06.783',-0.170,-0.190
'0:06.786',-0.155,-0.195
'0:06.789',-0.155,-0.180
'0:06.792',-0.155,-0.195
'0:06.794',-0.165,-0.205
'0:06.797',-0.170,-0.200
'0:06.800',-0.170,-0.200
'0:06.803',-0.165,-0.190
'0:06.806',-0.150,-0.200
'0:06.808',-0.170,-0.215
'0:06.811',-0.175,-0.215
'0:06.814',-0.185,-0.210
'0:06.817',-0.160,-0.205
'0:06.819',-0.165,-0.215
'0:06.822',-0.150,-0.220
'0:06.825',-0.165,-0.210
'0:06.828',-0.170,-0.240
'0:06.831',-0.180,-0.245
'0:06.833',-0.175,-0.220
'0:06.836',-0.175,-0.205
'0:06.839',-0.165,-0.210
'0:06.842',-0.175,-0.230
'0:06.844',-0.195,-0.240
'0:06.847',-0.200,-0.240
'0:06.850',-0.190,-0.225
'0:06.853',-0.180,-0.215
'0:06.856',-0.180,-0.225
'0:06.858',-0.175,-0.215
'0:06.861',-0.175,-0.230
'0:06.864',-0.180,-0.225
'0:06.867',-0.180,-0.220
'0:06.869',-0.175,-0.210
'0:06.872',-0.155,-0.215
'0:06.875',-0.175,-0.240
'0:06.878',-0.185,-0.240
'0:06.881',-0.185,-0.235
'0:06.883',-0.190,-0.220
'0:06.886',-0.190,-0.220
'0:06.889',-0.175,-0.225
'0:06.892',-0.170,-0.240
'0:06.894',-0.180,-0.235
'0:06.897',-0.185,-0.255
'0:06.900',-0.185,-0.225
'0:06.903',-0.175,-0.225
'0:06.906',-0.165,-0.220
'0:06.908',-0.170,-0.230
'0:06.911',-0.180,-0.255
'0:06.914',-0.195,-0.245
'0:06.917',-0.180,-0.235
'0:06.919',-0.165,-0.220
'0:06.922',-0.170,-0.225
'0:06.925',-0.170,-0.240
'0:06.928',-0.165,-0.255
'0:06.931',-0.180,-0.255
'0:06.933',-0.170,-0.225
'0:06.936',-0.165,-0.235
'0:06.939',-0.150,-0.230
'0:06.942',-0.175,-0.230
'0:06.944',-0.165,-0.250
'0:06.947',-0.180,-0.235
'0:06.950',-0.170,-0.230
'0:06.953',-0.155,-0.225
'0:06.956',-0.155,-0.240
'0:06.958',-0.170,-0.250
'0:06.961',-0.165,-0.260
'0:06.964',-0.175,-0.255
'0:06.967',-0.170,-0.245
'0:06.969',-0.150,-0.220
'0:06.972',-0.160,-0.225
'0:06.975',-0.165,-0.245
'0:06.978',-0.180,-0.265
'0:06.981',-0.175,-0.255
'0:06.983',-0.170,-0.245
'0:06.986',-0.155,-0.225
'0:06.989',-0.150,-0.235
'0:06.992',-0.160,-0.245
'0:06.994',-0.180,-0.260
'0:06.997',-0.180,-0.250
'0:07.000',-0.175,-0.265
'0:07.003',-0.165,-0.240
'0:07.006',-0.160,-0.235
'0:07.008',-0.160,-0.255
'0:07.011',-0.180,-0.255
'0:07.014',-0.185,-0.260
'0:07.017',-0.190,-0.240
'0:07.019',-0.175,-0.235
'0:07.022',-0.170,-0.250
'0:07.025',-0.160,-0.260
'0:07.028',-0.175,-0.265
'0:07.031',-0.190,-0.260
'0:07.033',-0.200,-0.240
'0:07.036',-0.180,-0.235
'0:07.039',-0.175,-0.250
'0:07.042',-0.175,-0.250
'0:07.044',-0.190,-0.260
'0:07.047',-0.210,-0.270
'0:07.050',-0.205,-0.270
'0:07.053',-0.195,-0.245
'0:07.056',-0.185,-0.245
'0:07.058',-0.190,-0.260
'0:07.061',-0.205,-0.260
'0:07.064',-0.210,-0.255
'0:07.067',-0.205,-0.240
'0:07.069',-0.200,-0.240
'0:07.072',-0.195,-0.235
'0:07.075',-0.205,-0.255
'0:07.078',-0.205,-0.270
'0:07.081',-0.210,-0.270
'0:07.083',-0.205,-0.255
'0:07.086',-0.200,-0.240
'0:07.089',-0.185,-0.240
'0:07.092',-0.220,-0.255
'0:07.094',-0.230,-0.270
'0:07.097',-0.230,-0.270
'0:07.100',-0.210,-0.255
'0:07.103',-0.215,-0.240
'0:07.106',-0.200,-0.245
'0:07.108',-0.215,-0.255
'0:07.111',-0.225,-0.280
'0:07.114',-0.225,-0.265
'0:07.117',-0.225,-0.245
'0:07.119',-0.210,-0.245
'0:07.122',-0.220,-0.245
'0:07.125',-0.235,-0.245
'0:07.128',-0.250,-0.270
'0:07.131',-0.245,-0.260
'0:07.133',-0.235,-0.265
'0:07.136',-0.225,-0.230
'0:07.139',-0.220,-0.235
'0:07.142',-0.235,-0.245
'0:07.144',-0.230,-0.260
'0:07.147',-0.240,-0.255
'0:07.150',-0.220,-0.255
'0:07.153',-0.220,-0.245
'0:07.156',-0.215,-0.255
'0:07.158',-0.230,-0.260
'0:07.161',-0.240,-0.260
'0:07.164',-0.245,-0.245
'0:07.167',-0.225,-0.245
'0:07.169',-0.215,-0.215
'0:07.172',-0.220,-0.225
'0:07.175',-0.215,-0.255
'0:07.178',-0.230,-0.265
'0:07.181',-0.215,-0.260
'0:07.183',-0.220,-0.240
'0:07.186',-0.200,-0.235
'0:07.189',-0.195,-0.240
'0:07.192',-0.205,-0.245
'0:07.194',-0.215,-0.260
'0:07.197',-0.230,-0.255
'0:07.200',-0.215,-0.270
'0:07.203',-0.175,-0.275
'0:07.206',-0.165,-0.280
'0:07.208',-0.160,-0.310
'0:07.211',-0.170,-0.325
'0:07.214',-0.165,-0.340
'0:07.217',-0.155,-0.330
'0:07.219',-0.135,-0.320
'0:07.222',-0.115,-0.335
'0:07.225',-0.105,-0.340
'0:07.228',-0.120,-0.345
'0:07.231',-0.140,-0.335
'0:07.233',-0.180,-0.300
'0:07.236',-0.160,-0.280
'0:07.239',-0.165,-0.275
'0:07.242',-0.190,-0.275
'0:07.244',-0.220,-0.260
'0:07.247',-0.215,-0.240
'0:07.250',-0.215,-0.225
'0:07.253',-0.200,-0.215
'0:07.256',-0.200,-0.230
'0:07.258',-0.235,-0.245
'0:07.261',-0.260,-0.250
'0:07.264',-0.270,-0.260
'0:07.267',-0.295,-0.260
'0:07.269',-0.290,-0.245
'0:07.272',-0.270,-0.240
'0:07.275',-0.270,-0.260
'0:07.278',-0.290,-0.265
'0:07.281',-0.305,-0.275
'0:07.283',-0.300,-0.250
'0:07.286',-0.300,-0.250
'0:07.289',-0.270,-0.250
'0:07.292',-0.270,-0.255
'0:07.294',-0.280,-0.270
'0:07.297',-0.285,-0.260
'0:07.300',-0.290,-0.245
'0:07.303',-0.280,-0.220
'0:07.306',-0.265,-0.185
'0:07.308',-0.255,-0.140
'0:07.311',-0.275,-0.120
'0:07.314',-0.275,-0.120
'0:07.317',-0.265,-0.140
'0:07.319',-0.250,-0.225
'0:07.322',-0.270,-0.365
'0:07.325',-0.290,-0.570
'0:07.328',-0.335,-0.805
'0:07.331',-0.310,-1.010
'0:07.333',-0.200,-1.135
'0:07.336',-0.045,-1.195
'0:07.339',0.155,-1.165
'0:07.342',0.315,-1.090
'0:07.344',0.410,-1.000
'0:07.347',0.415,-0.840
'0:07.350',0.310,-0.670
'0:07.353',0.100,-0.490
'0:07.356',-0.155,-0.375
'0:07.358',-0.345,-0.260
'0:07.361',-0.420,-0.225
'0:07.364',-0.415,-0.170
'0:07.367',-0.360,-0.150
'0:07.369',-0.305,-0.145
'0:07.372',-0.260,-0.140
'0:07.375',-0.260,-0.145
'0:07.378',-0.270,-0.160
'0:07.381',-0.300,-0.160
'0:07.383',-0.295,-0.155
'0:07.386',-0.290,-0.145
'0:07.389',-0.295,-0.145
'0:07.392',-0.305,-0.160
'0:07.394',-0.310,-0.180
'0:07.397',-0.315,-0.185
'0:07.400',-0.280,-0.170
'0:07.403',-0.275,-0.170
'0:07.406',-0.265,-0.165
'0:07.408',-0.280,-0.170
'0:07.411',-0.290,-0.180
'0:07.414',-0.300,-0.180
'0:07.417',-0.300,-0.175
'0:07.419',-0.265,-0.165
'0:07.422',-0.265,-0.160
'0:07.425',-0.275,-0.175
'0:07.428',-0.290,-0.190
'0:07.431',-0.305,-0.180
'0:07.433',-0.280,-0.170
'0:07.436',-0.280,-0.160
'0:07.439',-0.270,-0.160
'0:07.442',-0.270,-0.185
'0:07.444',-0.275,-0.195
'0:07.447',-0.285,-0.195
'0:07.450',-0.275,-0.165
'0:07.453',-0.260,-0.155
'0:07.456',-0.245,-0.170
'0:07.458',-0.265,-0.185
'0:07.461',-0.295,-0.200
'0:07.464',-0.300,-0.190
'0:07.467',-0.285,-0.190
'0:07.469',-0.265,-0.175
'0:07.472',-0.255,-0.170
'0:07.475',-0.265,-0.185
'0:07.478',-0.290,-0.200
'0:07.481',-0.310,-0.190
'0:07.483',-0.300,-0.185
'0:07.486',-0.295,-0.175
'0:07.489',-0.270,-0.195
'0:07.492',-0.260,-0.200
'0:07.494',-0.270,-0.205
'0:07.497',-0.285,-0.210
'0:07.500',-0.270,-0.205
'0:07.503',-0.270,-0.180
'0:07.506',-0.255,-0.190
'0:07.508',-0.260,-0.200
'0:07.511',-0.280,-0.210
'0:07.514',-0.290,-0.205
'0:07.517',-0.290,-0.185
'0:07.519',-0.270,-0.185
'0:07.522',-0.260,-0.190
'0:07.525',-0.275,-0.195
'0:07.528',-0.295,-0.215
'0:07.531',-0.290,-0.195
'0:07.533',-0.280,-0.185
'0:07.536',-0.270,-0.165
'0:07.539',-0.255,-0.175
'0:07.542',-0.260,-0.190
'0:07.544',-0.280,-0.210
'0:07.547',-0.300,-0.195
'0:07.550',-0.305,-0.195
'0:07.553',-0.295,-0.180
'0:07.556',-0.275,-0.185
'0:07.558',-0.290,-0.205
'0:07.561',-0.295,-0.210
'0:07.564',-0.305,-0.210
'0:07.567',-0.295,-0.205
'0:07.569',-0.290,-0.190
'0:07.572',-0.280,-0.205
'0:07.575',-0.295,-0.205
'0:07.578',-0.305,-0.225
'0:07.581',-0.310,-0.210
'0:07.583',-0.310,-0.200
'0:07.586',-0.305,-0.200
'0:07.589',-0.315,-0.200
'0:07.592',-0.355,-0.225
'0:07.594',-0.365,-0.225
'0:07.597',-0.380,-0.225
'0:07.600',-0.390,-0.220
'0:07.603',-0.385,-0.215
'0:07.606',-0.385,-0.225
'0:07.608',-0.375,-0.225
'0:07.611',-0.385,-0.235
'0:07.614',-0.400,-0.220
'0:07.617',-0.390,-0.205
'0:07.619',-0.390,-0.205
'0:07.622',-0.385,-0.200
'0:07.625',-0.395,-0.215
'0:07.628',-0.415,-0.235
'0:07.631',-0.420,-0.240
'0:07.633',-0.440,-0.230
'0:07.636',-0.405,-0.210
'0:07.639',-0.370,-0.220
'0:07.642',-0.380,-0.230
'0:07.644',-0.410,-0.235
'0:07.647',-0.405,-0.245
'0:07.650',-0.410,-0.235
'0:07.653',-0.405,-0.215
'0:07.656',-0.395,-0.230
'0:07.658',-0.400,-0.235
'0:07.661',-0.435,-0.240
'0:07.664',-0.435,-0.235
'0:07.667',-0.430,-0.225
'0:07.669',-0.415,-0.210
'0:07.672',-0.395,-0.230
'0:07.675',-0.395,-0.235
'0:07.678',-0.435,-0.250
'0:07.681',-0.430,-0.240
'0:07.683',-0.435,-0.240
'0:07.686',-0.430,-0.220
'0:07.689',-0.435,-0.235
'0:07.692',-0.420,-0.245
'0:07.694',-0.430,-0.260
'0:07.697',-0.440,-0.250
'0:07.700',-0.435,-0.230
'0:07.703',-0.425,-0.225
'0:07.706',-0.415,-0.225
'0:07.708',-0.415,-0.240
'0:07.711',-0.425,-0.245
'0:07.714',-0.440,-0.245
'0:07.717',-0.435,-0.245
'0:07.719',-0.425,-0.240
'0:07.722',-0.445,-0.255
'0:07.725',-0.430,-0.250
'0:07.728',-0.445,-0.260
'0:07.731',-0.445,-0.270
'0:07.733',-0.440,-0.250
'0:07.736',-0.435,-0.235
'0:07.739',-0.430,-0.240
'0:07.742',-0.430,-0.260
'0:07.744',-0.435,-0.265
'0:07.747',-0.450,-0.255
'0:07.750',-0.430,-0.245
'0:07.753',-0.425,-0.240
'0:07.756',-0.405,-0.245
'0:07.758',-0.420,-0.260
'0:07.761',-0.435,-0.275
'0:07.764',-0.430,-0.250
'0:07.767',-0.430,-0.245
'0:07.769',-0.425,-0.250
'0:07.772',-0.415,-0.250
'0:07.775',-0.430,-0.260
'0:07.778',-0.435,-0.265
'0:07.781',-0.440,-0.270
'0:07.783',-0.445,-0.260
'0:07.786',-0.410,-0.260
'0:07.789',-0.410,-0.250
'0:07.792',-0.410,-0.255
'0:07.794',-0.430,-0.270
'0:07.797',-0.435,-0.270
'0:07.800',-0.430,-0.250
'0:07.803',-0.415,-0.250
'0:07.806',-0.395,-0.250
'0:07.808',-0.400,-0.275
'0:07.811',-0.410,-0.270
'0:07.814',-0.430,-0.265
'0:07.817',-0.420,-0.255
'0:07.819',-0.410,-0.250
'0:07.822',-0.400,-0.250
'0:07.825',-0.415,-0.260
'0:07.828',-0.425,-0.265
'0:07.831',-0.430,-0.270
'0:07.833',-0.425,-0.250
'0:07.836',-0.420,-0.245
'0:07.839',-0.400,-0.245
'0:07.842',-0.410,-0.255
'0:07.844',-0.405,-0.255
'0:07.847',-0.420,-0.270
'0:07.850',-0.420,-0.250
'0:07.853',-0.405,-0.250
'0:07.856',-0.405,-0.245
'0:07.858',-0.405,-0.250
'0:07.861',-0.420,-0.265
'0:07.864',-0.420,-0.270
'0:07.867',-0.415,-0.250
'0:07.869',-0.405,-0.240
'0:07.872',-0.400,-0.245
'0:07.875',-0.405,-0.260
'0:07.878',-0.400,-0.270
'0:07.881',-0.410,-0.250
'0:07.883',-0.420,-0.260
'0:07.886',-0.400,-0.240
'0:07.889',-0.385,-0.250
'0:07.892',-0.385,-0.260
'0:07.894',-0.400,-0.255
'0:07.897',-0.405,-0.270
'0:07.900',-0.415,-0.260
'0:07.903',-0.390,-0.245
'0:07.906',-0.390,-0.240
'0:07.908',-0.395,-0.260
'0:07.911',-0.400,-0.265
'0:07.914',-0.420,-0.275
'0:07.917',-0.395,-0.255
'0:07.919',-0.390,-0.250
'0:07.922',-0.375,-0.255
'0:07.925',-0.390,-0.260
'0:07.928',-0.405,-0.270
'0:07.931',-0.420,-0.260
'0:07.933',-0.415,-0.255
'0:07.936',-0.395,-0.250
'0:07.939',-0.385,-0.240
'0:07.942',-0.395,-0.255
'0:07.944',-0.400,-0.260
'0:07.947',-0.410,-0.265
'0:07.950',-0.425,-0.250
'0:07.953',-0.395,-0.240
'0:07.956',-0.385,-0.235
'0:07.958',-0.400,-0.245
'0:07.961',-0.410,-0.265
'0:07.964',-0.415,-0.265
'0:07.967',-0.400,-0.235
'0:07.969',-0.390,-0.230
'0:07.972',-0.380,-0.220
'0:07.975',-0.385,-0.235
'0:07.978',-0.395,-0.240
'0:07.981',-0.405,-0.240
'0:07.983',-0.395,-0.225
'0:07.986',-0.375,-0.215
'0:07.989',-0.365,-0.225
'0:07.992',-0.370,-0.250
'0:07.994',-0.385,-0.260
'0:07.997',-0.390,-0.245
'0:08.000',-0.385,-0.230
'0:08.003',-0.370,-0.220
'0:08.006',-0.360,-0.225
'0:08.008',-0.370,-0.240
'0:08.011',-0.360,-0.260
'0:08.014',-0.375,-0.260
'0:08.017',-0.360,-0.260
'0:08.019',-0.340,-0.265
'0:08.022',-0.320,-0.285
'0:08.025',-0.320,-0.305
'0:08.028',-0.325,-0.335
'0:08.031',-0.320,-0.340
'0:08.033',-0.310,-0.310
'0:08.036',-0.280,-0.320
'0:08.039',-0.260,-0.320
'0:08.042',-0.250,-0.345
'0:08.044',-0.260,-0.330
'0:08.047',-0.265,-0.305
'0:08.050',-0.285,-0.295
'0:08.053',-0.290,-0.270
'0:08.056',-0.290,-0.275
'0:08.058',-0.305,-0.265
'0:08.061',-0.325,-0.260
'0:08.064',-0.340,-0.245
'0:08.067',-0.335,-0.225
'0:08.069',-0.310,-0.205
'0:08.072',-0.315,-0.230
'0:08.075',-0.325,-0.240
'0:08.078',-0.355,-0.250
'0:08.081',-0.385,-0.255
'0:08.083',-0.400,-0.235
'0:08.086',-0.395,-0.235
'0:08.089',-0.385,-0.240
'0:08.092',-0.400,-0.260
'0:08.094',-0.405,-0.260
'0:08.097',-0.410,-0.265
'0:08.100',-0.400,-0.240
'0:08.103',-0.390,-0.235
'0:08.106',-0.390,-0.235
'0:08.108',-0.390,-0.245
'0:08.111',-0.410,-0.250
'0:08.114',-0.395,-0.250
'0:08.117',-0.380,-0.230
'0:08.119',-0.365,-0.200
'0:08.122',-0.355,-0.220
'0:08.125',-0.360,-0.200
'0:08.128',-0.375,-0.165
'0:08.131',-0.360,-0.135
'0:08.133',-0.365,-0.120
'0:08.136',-0.335,-0.130
'0:08.139',-0.335,-0.220
'0:08.142',-0.355,-0.355
'0:08.144',-0.385,-0.555
'0:08.147',-0.400,-0.765
'0:08.150',-0.340,-0.940
'0:08.153',-0.235,-1.065
'0:08.156',-0.075,-1.135
'0:08.158',0.085,-1.155
'0:08.161',0.220,-1.115
'0:08.164',0.350,-0.995
'0:08.167',0.395,-0.840
'0:08.169',0.325,-0.685
'0:08.172',0.145,-0.545
'0:08.175',-0.095,-0.410
'0:08.178',-0.295,-0.290
'0:08.181',-0.400,-0.195
'0:08.183',-0.430,-0.120
'0:08.186',-0.400,-0.100
'0:08.189',-0.350,-0.100
'0:08.192',-0.335,-0.115
'0:08.194',-0.340,-0.135
'0:08.197',-0.350,-0.135
'0:08.200',-0.345,-0.120
'0:08.203',-0.345,-0.120
'0:08.206',-0.360,-0.115
'0:08.208',-0.355,-0.130
'0:08.211',-0.345,-0.130
'0:08.214',-0.365,-0.135
'0:08.217',-0.350,-0.135
'0:08.219',-0.350,-0.125
'0:08.222',-0.330,-0.115
'0:08.225',-0.335,-0.130
'0:08.228',-0.350,-0.145
'0:08.231',-0.355,-0.135
'0:08.233',-0.360,-0.125
'0:08.236',-0.340,-0.115
'0:08.239',-0.335,-0.125
'0:08.242',-0.335,-0.135
'0:08.244',-0.340,-0.145
'0:08.247',-0.345,-0.150
'0:08.250',-0.345,-0.130
'0:08.253',-0.335,-0.120
'0:08.256',-0.325,-0.120
'0:08.258',-0.330,-0.140
'0:08.261',-0.345,-0.150
'0:08.264',-0.340,-0.150
'0:08.267',-0.320,-0.135
'0:08.269',-0.310,-0.110
'0:08.272',-0.300,-0.120
'0:08.275',-0.305,-0.120
'0:08.278',-0.310,-0.145
'0:08.281',-0.310,-0.145
'0:08.283',-0.300,-0.130
'0:08.286',-0.300,-0.125
'0:08.289',-0.280,-0.130
'0:08.292',-0.290,-0.140
'0:08.294',-0.300,-0.145
'0:08.297',-0.305,-0.135
'0:08.300',-0.305,-0.145
'0:08.303',-0.300,-0.115
'0:08.306',-0.290,-0.125
'0:08.308',-0.285,-0.130
'0:08.311',-0.305,-0.150
'0:08.314',-0.310,-0.145
'0:08.317',-0.295,-0.140
'0:08.319',-0.285,-0.125
'0:08.322',-0.290,-0.135
'0:08.325',-0.295,-0.140
'0:08.328',-0.300,-0.140
'0:08.331',-0.305,-0.145
'0:08.333',-0.295,-0.125
'0:08.336',-0.295,-0.110
'0:08.339',-0.280,-0.125
'0:08.342',-0.275,-0.135
'0:08.344',-0.300,-0.135
'0:08.347',-0.300,-0.150
'0:08.350',-0.295,-0.135
'0:08.353',-0.275,-0.130
'0:08.356',-0.275,-0.130
'0:08.358',-0.280,-0.130
'0:08.361',-0.275,-0.145
'0:08.364',-0.295,-0.130
'0:08.367',-0.295,-0.125
'0:08.369',-0.290,-0.115
'0:08.372',-0.270,-0.125
'0:08.375',-0.280,-0.135
'0:08.378',-0.285,-0.160
'0:08.381',-0.300,-0.145
'0:08.383',-0.285,-0.130
'0:08.386',-0.285,-0.125
'0:08.389',-0.275,-0.130
'0:08.392',-0.280,-0.150
'0:08.394',-0.305,-0.160
'0:08.397',-0.300,-0.155
'0:08.400',-0.315,-0.155
'0:08.403',-0.305,-0.135
'0:08.406',-0.300,-0.140
'0:08.408',-0.310,-0.165
'0:08.411',-0.345,-0.165
'0:08.414',-0.340,-0.170
'0:08.417',-0.340,-0.165
'0:08.419',-0.340,-0.155
'0:08.422',-0.325,-0.160
'0:08.425',-0.325,-0.165
'0:08.428',-0.345,-0.190
'0:08.431',-0.350,-0.175
'0:08.433',-0.350,-0.155
'0:08.436',-0.345,-0.160
'0:08.439',-0.345,-0.160
'0:08.442',-0.330,-0.175
'0:08.444',-0.345,-0.175
'0:08.447',-0.365,-0.170
'0:08.450',-0.345,-0.175
'0:08.453',-0.340,-0.155
'0:08.456',-0.320,-0.165
'0:08.458',-0.325,-0.175
'0:08.461',-0.340,-0.180
'0:08.464',-0.345,-0.180
'0:08.467',-0.355,-0.165
'0:08.469',-0.330,-0.160
'0:08.472',-0.320,-0.165
'0:08.475',-0.320,-0.175
'0:08.478',-0.340,-0.185
'0:08.481',-0.340,-0.185
'0:08.483',-0.345,-0.175
'0:08.486',-0.320,-0.160
'0:08.489',-0.320,-0.160
'0:08.492',-0.320,-0.185
'0:08.494',-0.335,-0.180
'0:08.497',-0.345,-0.200
'0:08.500',-0.340,-0.185
'0:08.503',-0.340,-0.160
'0:08.506',-0.315,-0.170
'0:08.508',-0.320,-0.185
'0:08.511',-0.340,-0.195
'0:08.514',-0.345,-0.180
'0:08.517',-0.335,-0.175
'0:08.519',-0.310,-0.170
'0:08.522',-0.315,-0.170
'0:08.525',-0.315,-0.180
'0:08.528',-0.325,-0.195
'0:08.531',-0.330,-0.180
'0:08.533',-0.325,-0.170
'0:08.536',-0.315,-0.160
'0:08.539',-0.295,-0.175
'0:08.542',-0.310,-0.175
'0:08.544',-0.320,-0.200
'0:08.547',-0.320,-0.175
'0:08.550',-0.315,-0.180
'0:08.553',-0.315,-0.175
'0:08.556',-0.290,-0.175
'0:08.558',-0.305,-0.185
'0:08.561',-0.315,-0.200
'0:08.564',-0.330,-0.200
'0:08.567',-0.315,-0.175
'0:08.569',-0.305,-0.160
'0:08.572',-0.310,-0.170
'0:08.575',-0.275,-0.170
'0:08.578',-0.320,-0.190
'0:08.581',-0.290,-0.195
'0:08.583',-0.295,-0.180
'0:08.586',-0.285,-0.185
'0:08.589',-0.270,-0.180
'0:08.592',-0.295,-0.195
'0:08.594',-0.290,-0.195
'0:08.597',-0.300,-0.190
'0:08.600',-0.285,-0.165
'0:08.603',-0.280,-0.170
'0:08.606',-0.280,-0.175
'0:08.608',-0.275,-0.190
'0:08.611',-0.280,-0.190
'0:08.614',-0.290,-0.195
'0:08.617',-0.285,-0.175
'0:08.619',-0.265,-0.165
'0:08.622',-0.250,-0.175
'0:08.625',-0.250,-0.180
'0:08.628',-0.265,-0.200
'0:08.631',-0.275,-0.195
'0:08.633',-0.270,-0.190
'0:08.636',-0.260,-0.185
'0:08.639',-0.250,-0.175
'0:08.642',-0.260,-0.180
'0:08.644',-0.275,-0.200
'0:08.647',-0.275,-0.195
'0:08.650',-0.280,-0.180
'0:08.653',-0.255,-0.175
'0:08.656',-0.250,-0.190
'0:08.658',-0.255,-0.190
'0:08.661',-0.265,-0.200
'0:08.664',-0.275,-0.200
'0:08.667',-0.265,-0.180
'0:08.669',-0.255,-0.160
'0:08.672',-0.240,-0.170
'0:08.675',-0.240,-0.185
'0:08.678',-0.245,-0.200
'0:08.681',-0.255,-0.195
'0:08.683',-0.245,-0.175
'0:08.686',-0.230,-0.150
'0:08.689',-0.225,-0.150
'0:08.692',-0.210,-0.140
'0:08.694',-0.205,-0.160
'0:08.697',-0.210,-0.145
'0:08.700',-0.200,-0.120
'0:08.703',-0.175,-0.110
'0:08.706',-0.160,-0.105
'0:08.708',-0.145,-0.110
'0:08.711',-0.165,-0.120
'0:08.714',-0.145,-0.120
'0:08.717',-0.140,-0.100
'0:08.719',-0.120,-0.110
'0:08.722',-0.095,-0.140
'0:08.725',-0.060,-0.190
'0:08.728',-0.030,-0.235
'0:08.731',-0.020,-0.245
'0:08.733',-0.025,-0.230
'0:08.736',-0.010,-0.220
'0:08.739',0.005,-0.225
'0:08.742',-0.005,-0.245
'0:08.744',-0.025,-0.235
'0:08.747',-0.055,-0.220
'0:08.750',-0.070,-0.195
'0:08.753',-0.070,-0.170
'0:08.756',-0.080,-0.165
'0:08.758',-0.080,-0.165
'0:08.761',-0.105,-0.185
'0:08.764',-0.115,-0.180
'0:08.767',-0.130,-0.185
'0:08.769',-0.160,-0.175
'0:08.772',-0.170,-0.190
'0:08.775',-0.200,-0.205
'0:08.778',-0.235,-0.220
'0:08.781',-0.250,-0.220
'0:08.783',-0.255,-0.205
'0:08.786',-0.250,-0.190
'0:08.789',-0.255,-0.190
'0:08.792',-0.255,-0.195
'0:08.794',-0.250,-0.210
'0:08.797',-0.265,-0.215
'0:08.800',-0.260,-0.195
'0:08.803',-0.240,-0.180
'0:08.806',-0.225,-0.185
'0:08.808',-0.245,-0.200
'0:08.811',-0.235,-0.205
'0:08.814',-0.235,-0.205
'0:08.817',-0.230,-0.185
'0:08.819',-0.210,-0.175
'0:08.822',-0.205,-0.160
'0:08.825',-0.205,-0.140
'0:08.828',-0.205,-0.100
'0:08.831',-0.215,-0.055
'0:08.833',-0.195,-0.055
'0:08.836',-0.185,-0.090
'0:08.839',-0.195,-0.205
'0:08.842',-0.215,-0.360
'0:08.844',-0.240,-0.580
'0:08.847',-0.245,-0.800
'0:08.850',-0.170,-1.000
'0:08.853',-0.015,-1.135
'0:08.856',0.170,-1.195
'0:08.858',0.370,-1.160
'0:08.861',0.525,-1.050
'0:08.864',0.620,-0.900
'0:08.867',0.620,-0.750
'0:08.869',0.480,-0.605
'0:08.872',0.250,-0.470
'0:08.875',-0.015,-0.340
'0:08.878',-0.195,-0.245
'0:08.881',-0.280,-0.165
'0:08.883',-0.280,-0.105
'0:08.886',-0.245,-0.080
'0:08.889',-0.215,-0.065
'0:08.892',-0.200,-0.080
'0:08.894',-0.195,-0.095
'0:08.897',-0.195,-0.095
'0:08.900',-0.190,-0.085
'0:08.903',-0.185,-0.070
'0:08.906',-0.190,-0.080
'0:08.908',-0.205,-0.095
'0:08.911',-0.230,-0.115
'0:08.914',-0.210,-0.100
'0:08.917',-0.205,-0.090
'0:08.919',-0.200,-0.085
'0:08.922',-0.205,-0.090
'0:08.925',-0.175,-0.100
'0:08.928',-0.185,-0.120
'0:08.931',-0.190,-0.115
'0:08.933',-0.180,-0.115
'0:08.936',-0.170,-0.100
'0:08.939',-0.165,-0.095
'0:08.942',-0.170,-0.110
'0:08.944',-0.170,-0.110
'0:08.947',-0.180,-0.115
'0:08.950',-0.170,-0.105
'0:08.953',-0.165,-0.085
'0:08.956',-0.155,-0.100
'0:08.958',-0.170,-0.115
'0:08.961',-0.170,-0.130
'0:08.964',-0.165,-0.115
'0:08.967',-0.155,-0.100
'0:08.969',-0.150,-0.085
'0:08.972',-0.140,-0.095
'0:08.975',-0.145,-0.115
'0:08.978',-0.155,-0.115
'0:08.981',-0.170,-0.125
'0:08.983',-0.160,-0.105
'0:08.986',-0.145,-0.080
'0:08.989',-0.125,-0.100
'0:08.992',-0.135,-0.105
'0:08.994',-0.150,-0.120
'0:08.997',-0.165,-0.115
'0:09.000',-0.150,-0.110
'0:09.003',-0.130,-0.085
'0:09.006',-0.120,-0.100
'0:09.008',-0.120,-0.115
'0:09.011',-0.130,-0.115
'0:09.014',-0.130,-0.115
'0:09.017',-0.120,-0.105
'0:09.019',-0.110,-0.080
'0:09.022',-0.105,-0.085
'0:09.025',-0.100,-0.105
'0:09.028',-0.120,-0.125
'0:09.031',-0.120,-0.115
'0:09.033',-0.115,-0.100
'0:09.036',-0.095,-0.080
'0:09.039',-0.085,-0.090
'0:09.042',-0.080,-0.110
'0:09.044',-0.100,-0.115
'0:09.047',-0.100,-0.105
'0:09.050',-0.105,-0.105
'0:09.053',-0.080,-0.075
'0:09.056',-0.070,-0.080
'0:09.058',-0.070,-0.105
'0:09.061',-0.070,-0.115
'0:09.064',-0.085,-0.105
'0:09.067',-0.095,-0.110
'0:09.069',-0.085,-0.085
'0:09.072',-0.055,-0.095
'0:09.075',-0.060,-0.090
'0:09.078',-0.080,-0.105
'0:09.081',-0.080,-0.100
'0:09.083',-0.065,-0.090
'0:09.086',-0.070,-0.070
'0:09.089',-0.065,-0.080
'0:09.092',-0.075,-0.095
'0:09.094',-0.080,-0.110
'0:09.097',-0.085,-0.095
'0:09.100',-0.080,-0.090
'0:09.103',-0.085,-0.080
'0:09.106',-0.075,-0.090
'0:09.108',-0.095,-0.095
'0:09.111',-0.100,-0.110
'0:09.114',-0.115,-0.115
'0:09.117',-0.125,-0.110
'0:09.119',-0.110,-0.100
'0:09.122',-0.110,-0.110
'0:09.125',-0.110,-0.130
'0:09.128',-0.125,-0.145
'0:09.131',-0.125,-0.140
'0:09.133',-0.130,-0.135
'0:09.136',-0.135,-0.125
'0:09.139',-0.125,-0.130
'0:09.142',-0.140,-0.150
'0:09.144',-0.155,-0.160
'0:09.147',-0.165,-0.160
'0:09.150',-0.160,-0.150
'0:09.153',-0.140,-0.135
'0:09.156',-0.145,-0.135
'0:09.158',-0.145,-0.155
'0:09.161',-0.160,-0.175
'0:09.164',-0.170,-0.165
'0:09.167',-0.170,-0.160
'0:09.169',-0.165,-0.155
'0:09.172',-0.150,-0.150
'0:09.175',-0.165,-0.180
'0:09.178',-0.180,-0.180
'0:09.181',-0.180,-0.165
'0:09.183',-0.170,-0.160
'0:09.186',-0.160,-0.160
'0:09.189',-0.150,-0.145
'0:09.192',-0.165,-0.170
'0:09.194',-0.175,-0.185
'0:09.197',-0.175,-0.175
'0:09.200',-0.180,-0.155
'0:09.203',-0.160,-0.155
'0:09.206',-0.155,-0.155
'0:09.208',-0.165,-0.155
'0:09.211',-0.170,-0.175
'0:09.214',-0.175,-0.180
'0:09.217',-0.175,-0.170
'0:09.219',-0.170,-0.145
'0:09.222',-0.160,-0.160
'0:09.225',-0.170,-0.155
'0:09.228',-0.170,-0.180
'0:09.231',-0.190,-0.180
'0:09.233',-0.175,-0.160
'0:09.236',-0.155,-0.165
'0:09.239',-0.155,-0.170
'0:09.242',-0.165,-0.190
'0:09.244',-0.170,-0.200
'0:09.247',-0.185,-0.190
'0:09.250',-0.175,-0.170
'0:09.253',-0.165,-0.150
'0:09.256',-0.160,-0.155
'0:09.258',-0.170,-0.180
'0:09.261',-0.195,-0.195
'0:09.264',-0.195,-0.195
'0:09.267',-0.180,-0.175
'0:09.269',-0.160,-0.175
'0:09.272',-0.165,-0.180
'0:09.275',-0.160,-0.185
'0:09.278',-0.180,-0.200
'0:09.281',-0.175,-0.210
'0:09.283',-0.175,-0.180
'0:09.286',-0.160,-0.160
'0:09.289',-0.140,-0.175
'0:09.292',-0.140,-0.200
'0:09.294',-0.155,-0.205
'0:09.297',-0.160,-0.195
'0:09.300',-0.150,-0.190
'0:09.303',-0.135,-0.175
'0:09.306',-0.140,-0.185
'0:09.308',-0.135,-0.185
'0:09.311',-0.145,-0.200
'0:09.314',-0.155,-0.205
'0:09.317',-0.155,-0.200
'0:09.319',-0.140,-0.190
'0:09.322',-0.125,-0.190
'0:09.325',-0.130,-0.195
'0:09.328',-0.135,-0.205
'0:09.331',-0.150,-0.200
'0:09.333',-0.145,-0.190
'0:09.336',-0.135,-0.180
'0:09.339',-0.135,-0.190
'0:09.342',-0.145,-0.200
'0:09.344',-0.125,-0.210
'0:09.347',-0.150,-0.210
'0:09.350',-0.140,-0.190
'0:09.353',-0.135,-0.180
'0:09.356',-0.125,-0.195
'0:09.358',-0.130,-0.195
'0:09.361',-0.135,-0.215
'0:09.364',-0.140,-0.215
'0:09.367',-0.130,-0.195
'0:09.369',-0.115,-0.180
'0:09.372',-0.100,-0.190
'0:09.375',-0.115,-0.200
'0:09.378',-0.125,-0.210
'0:09.381',-0.130,-0.210
'0:09.383',-0.135,-0.190
'0:09.386',-0.115,-0.195
'0:09.389',-0.105,-0.195
'0:09.392',-0.120,-0.200
'0:09.394',-0.130,-0.205
'0:09.397',-0.140,-0.205
'0:09.400',-0.120,-0.195
'0:09.403',-0.105,-0.190
'0:09.406',-0.095,-0.200
'0:09.408',-0.095,-0.205
'0:09.411',-0.115,-0.215
'0:09.414',-0.130,-0.205
'0:09.417',-0.130,-0.200
'0:09.419',-0.110,-0.185
'0:09.422',-0.105,-0.190
'0:09.425',-0.100,-0.205
'0:09.428',-0.095,-0.200
'0:09.431',-0.105,-0.195
'0:09.433',-0.100,-0.200
'0:09.436',-0.100,-0.185
'0:09.439',-0.075,-0.190
'0:09.442',-0.090,-0.215
'0:09.444',-0.090,-0.220
'0:09.447',-0.115,-0.210
'0:09.450',-0.100,-0.190
'0:09.453',-0.095,-0.185
'0:09.456',-0.090,-0.190
'0:09.458',-0.095,-0.195
'0:09.461',-0.105,-0.205
'0:09.464',-0.115,-0.205
'0:09.467',-0.105,-0.185
'0:09.469',-0.085,-0.190
'0:09.472',-0.085,-0.185
'0:09.475',-0.095,-0.195
'0:09.478',-0.095,-0.200
'0:09.481',-0.110,-0.215
'0:09.483',-0.095,-0.200
'0:09.486',-0.085,-0.200
'0:09.489',-0.080,-0.210
'0:09.492',-0.085,-0.215
'0:09.494',-0.085,-0.230
'0:09.497',-0.100,-0.210
'0:09.500',-0.090,-0.200
'0:09.503',-0.085,-0.190
'0:09.506',-0.075,-0.195
'0:09.508',-0.080,-0.200
'0:09.511',-0.100,-0.230
'0:09.514',-0.095,-0.215
'0:09.517',-0.090,-0.205
'0:09.519',-0.075,-0.190
'0:09.522',-0.075,-0.200
'0:09.525',-0.070,-0.205
'0:09.528',-0.080,-0.210
'0:09.531',-0.095,-0.225
'0:09.533',-0.090,-0.195
'0:09.536',-0.075,-0.195
'0:09.539',-0.060,-0.200
'0:09.542',-0.075,-0.200
'0:09.544',-0.100,-0.220
'0:09.547',-0.085,-0.205
'0:09.550',-0.080,-0.185
'0:09.553',-0.070,-0.175
'0:09.556',-0.055,-0.190
'0:09.558',-0.070,-0.210
'0:09.561',-0.100,-0.220
'0:09.564',-0.100,-0.215
'0:09.567',-0.085,-0.200
'0:09.569',-0.055,-0.195
'0:09.572',-0.055,-0.200
'0:09.575',-0.055,-0.200
'0:09.578',-0.075,-0.210
'0:09.581',-0.080,-0.195
'0:09.583',-0.090,-0.190
'0:09.586',-0.055,-0.180
'0:09.589',-0.035,-0.190
'0:09.592',-0.050,-0.195
'0:09.594',-0.050,-0.205
'0:09.597',-0.050,-0.195
'0:09.600',-0.040,-0.190
'0:09.603',-0.040,-0.170
'0:09.606',-0.030,-0.185
'0:09.608',-0.030,-0.195
'0:09.611',-0.025,-0.230
'0:09.614',-0.045,-0.230
'0:09.617',-0.030,-0.215
'0:09.619',-0.010,-0.205
'0:09.622',0.000,-0.220
'0:09.625',-0.005,-0.250
'0:09.628',-0.025,-0.280
'0:09.631',-0.005,-0.265
'0:09.633',0.000,-0.270
'0:09.636',0.020,-0.270
'0:09.639',0.045,-0.270
'0:09.642',0.040,-0.295
'0:09.644',0.045,-0.305
'0:09.647',0.055,-0.300
'0:09.650',0.065,-0.280
'0:09.653',0.070,-0.265
'0:09.656',0.050,-0.270
'0:09.658',0.050,-0.260
'0:09.661',0.020,-0.265
'0:09.664',-0.005,-0.245
'0:09.667',0.000,-0.200
'0:09.669',-0.020,-0.170
'0:09.672',-0.005,-0.170
'0:09.675',-0.005,-0.175
'0:09.678',-0.005,-0.195
'0:09.681',-0.020,-0.190
'0:09.683',-0.025,-0.185
'0:09.686',-0.045,-0.185
'0:09.689',-0.045,-0.195
'0:09.692',-0.055,-0.195
'0:09.694',-0.070,-0.210
'0:09.697',-0.080,-0.200
'0:09.700',-0.080,-0.185
'0:09.703',-0.075,-0.175
'0:09.706',-0.070,-0.195
'0:09.708',-0.080,-0.200
'0:09.711',-0.065,-0.215
'0:09.714',-0.075,-0.215
'0:09.717',-0.070,-0.205
'0:09.719',-0.060,-0.205
'0:09.722',-0.055,-0.200
'0:09.725',-0.070,-0.205
'0:09.728',-0.075,-0.215
'0:09.731',-0.075,-0.195
'0:09.733',-0.055,-0.170
'0:09.736',-0.050,-0.145
'0:09.739',-0.040,-0.115
'0:09.742',-0.040,-0.080
'0:09.744',-0.045,-0.060
'0:09.747',-0.050,-0.070
'0:09.750',-0.040,-0.110
'0:09.753',-0.035,-0.200
'0:09.756',-0.050,-0.340
'0:09.758',-0.070,-0.550
'0:09.761',-0.070,-0.755
'0:09.764',-0.010,-0.935
'0:09.767',0.115,-1.085
'0:09.769',0.270,-1.175
'0:09.772',0.445,-1.175
'0:09.775',0.605,-1.115
'0:09.778',0.710,-0.985
'0:09.781',0.740,-0.830
'0:09.783',0.670,-0.665
'0:09.786',0.480,-0.515
'0:09.789',0.250,-0.390
'0:09.792',0.040,-0.255
'0:09.794',-0.075,-0.180
'0:09.797',-0.120,-0.130
'0:09.800',-0.115,-0.100
'0:09.803',-0.080,-0.080
'0:09.806',-0.045,-0.085
'0:09.808',-0.035,-0.100
'0:09.811',-0.055,-0.105
'0:09.814',-0.065,-0.095
'0:09.817',-0.070,-0.080
'0:09.819',-0.060,-0.065
'0:09.822',-0.050,-0.075
'0:09.825',-0.070,-0.095
'0:09.828',-0.085,-0.110
'0:09.831',-0.065,-0.100
'0:09.833',-0.060,-0.090
'0:09.836',-0.040,-0.080
'0:09.839',-0.030,-0.090
'0:09.842',-0.030,-0.100
'0:09.844',-0.065,-0.115
'0:09.847',-0.065,-0.115
'0:09.850',-0.065,-0.100
'0:09.853',-0.040,-0.095
'0:09.856',-0.030,-0.110
'0:09.858',-0.025,-0.100
'0:09.861',-0.050,-0.110
'0:09.864',-0.055,-0.100
'0:09.867',-0.045,-0.100
'0:09.869',-0.050,-0.085
'0:09.872',-0.045,-0.085
'0:09.875',-0.030,-0.095
'0:09.878',-0.035,-0.110
'0:09.881',-0.050,-0.115
'0:09.883',-0.035,-0.095
'0:09.886',-0.025,-0.080
'0:09.889',-0.005,-0.085
'0:09.892',-0.005,-0.100
'0:09.894',-0.015,-0.110
'0:09.897',-0.035,-0.110
'0:09.900',-0.020,-0.100
'0:09.903',-0.020,-0.100
'0:09.906',-0.015,-0.100
'0:09.908',-0.030,-0.105
'0:09.911',-0.050,-0.120
'0:09.914',-0.050,-0.120
'0:09.917',-0.045,-0.110
'0:09.919',-0.025,-0.095
'0:09.922',-0.025,-0.095
'0:09.925',-0.025,-0.110
'0:09.928',-0.040,-0.125
'0:09.931',-0.040,-0.125
'0:09.933',-0.030,-0.105
'0:09.936',-0.015,-0.090
'0:09.939',-0.010,-0.100
'0:09.942',-0.015,-0.100
'0:09.944',-0.035,-0.110
'0:09.947',-0.035,-0.115
'0:09.950',-0.015,-0.100
'0:09.953',-0.005,-0.095
'0:09.956',0.005,-0.100
'0:09.958',-0.020,-0.110
'0:09.961',-0.030,-0.115
'0:09.964',-0.035,-0.120
'0:09.967',-0.020,-0.100
'0:09.969',-0.015,-0.095
'0:09.972',-0.005,-0.105
'0:09.975',-0.010,-0.115
'0:09.978',-0.015,-0.115
'0:09.981',-0.025,-0.115
'0:09.983',-0.020,-0.100
'0:09.986',-0.020,-0.090
'0:09.989',0.005,-0.090
'0:09.992',0.005,-0.115
'0:09.994',0.000,-0.120
'0:09.997',-0.015,-0.120
