'Elapsed time','MLII','V1'
'hh:mm:ss.mmm','mV','mV'
'0:00.000',-0.930,-0.160
'0:00.003',-0.930,-0.160
'0:00.006',-0.930,-0.160
'0:00.008',-0.930,-0.160
'0:00.011',-0.930,-0.160
'0:00.014',-0.930,-0.160
'0:00.017',-0.930,-0.160
'0:00.019',-0.930,-0.160
'0:00.022',-0.925,-0.160
'0:00.025',-0.925,-0.170
'0:00.028',-0.920,-0.160
'0:00.031',-0.915,-0.160
'0:00.033',-0.910,-0.150
'0:00.036',-0.900,-0.145
'0:00.039',-0.875,-0.135
'0:00.042',-0.870,-0.130
'0:00.044',-0.850,-0.125
'0:00.047',-0.840,-0.130
'0:00.050',-0.815,-0.130
'0:00.053',-0.815,-0.150
'0:00.056',-0.805,-0.170
'0:00.058',-0.785,-0.180
'0:00.061',-0.775,-0.175
'0:00.064',-0.770,-0.180
'0:00.067',-0.740,-0.185
'0:00.069',-0.735,-0.190
'0:00.072',-0.710,-0.190
'0:00.075',-0.700,-0.190
'0:00.078',-0.675,-0.190
'0:00.081',-0.670,-0.195
'0:00.083',-0.660,-0.210
'0:00.086',-0.655,-0.225
'0:00.089',-0.665,-0.235
'0:00.092',-0.660,-0.260
'0:00.094',-0.665,-0.270
'0:00.097',-0.665,-0.270
'0:00.100',-0.660,-0.270
'0:00.103',-0.670,-0.275
'0:00.106',-0.650,-0.265
'0:00.108',-0.655,-0.260
'0:00.111',-0.640,-0.255
'0:00.114',-0.630,-0.270
'0:00.117',-0.640,-0.285
'0:00.119',-0.635,-0.300
'0:00.122',-0.645,-0.310
'0:00.125',-0.650,-0.315
'0:00.128',-0.660,-0.325
'0:00.131',-0.665,-0.315
'0:00.133',-0.670,-0.315
'0:00.136',-0.665,-0.310
'0:00.139',-0.660,-0.315
'0:00.142',-0.650,-0.305
'0:00.144',-0.645,-0.310
'0:00.147',-0.650,-0.320
'0:00.150',-0.650,-0.315
'0:00.153',-0.650,-0.330
'0:00.156',-0.660,-0.345
'0:00.158',-0.670,-0.340
'0:00.161',-0.675,-0.350
'0:00.164',-0.680,-0.350
'0:00.167',-0.685,-0.340
'0:00.169',-0.690,-0.325
'0:00.172',-0.670,-0.330
'0:00.175',-0.675,-0.325
'0:00.178',-0.670,-0.320
'0:00.181',-0.675,-0.320
'0:00.183',-0.690,-0.330
'0:00.186',-0.695,-0.340
'0:00.189',-0.695,-0.345
'0:00.192',-0.680,-0.365
'0:00.194',-0.700,-0.360
'0:00.197',-0.695,-0.365
'0:00.200',-0.700,-0.355
'0:00.203',-0.695,-0.350
'0:00.206',-0.700,-0.340
'0:00.208',-0.690,-0.330
'0:00.211',-0.690,-0.335
'0:00.214',-0.695,-0.340
'0:00.217',-0.690,-0.335
'0:00.219',-0.695,-0.350
'0:00.222',-0.695,-0.350
'0:00.225',-0.700,-0.360
'0:00.228',-0.700,-0.360
'0:00.231',-0.700,-0.355
'0:00.233',-0.700,-0.360
'0:00.236',-0.700,-0.350
'0:00.239',-0.685,-0.340
'0:00.242',-0.685,-0.330
'0:00.244',-0.675,-0.335
'0:00.247',-0.670,-0.345
'0:00.250',-0.665,-0.350
'0:00.253',-0.670,-0.350
'0:00.256',-0.675,-0.370
'0:00.258',-0.670,-0.370
'0:00.261',-0.675,-0.370
'0:00.264',-0.685,-0.375
'0:00.267',-0.680,-0.370
'0:00.269',-0.680,-0.365
'0:00.272',-0.660,-0.360
'0:00.275',-0.655,-0.360
'0:00.278',-0.645,-0.350
'0:00.281',-0.655,-0.350
'0:00.283',-0.630,-0.375
'0:00.286',-0.640,-0.375
'0:00.289',-0.630,-0.380
'0:00.292',-0.640,-0.380
'0:00.294',-0.650,-0.385
'0:00.297',-0.650,-0.385
'0:00.300',-0.660,-0.385
'0:00.303',-0.650,-0.380
'0:00.306',-0.645,-0.380
'0:00.308',-0.625,-0.365
'0:00.311',-0.615,-0.370
'0:00.314',-0.625,-0.355
'0:00.317',-0.625,-0.365
'0:00.319',-0.620,-0.385
'0:00.322',-0.635,-0.385
'0:00.325',-0.635,-0.400
'0:00.328',-0.635,-0.405
'0:00.331',-0.635,-0.405
'0:00.333',-0.630,-0.400
'0:00.336',-0.625,-0.395
'0:00.339',-0.625,-0.395
'0:00.342',-0.605,-0.380
'0:00.344',-0.595,-0.370
'0:00.347',-0.580,-0.380
'0:00.350',-0.575,-0.370
'0:00.353',-0.565,-0.385
'0:00.356',-0.570,-0.405
'0:00.358',-0.565,-0.400
'0:00.361',-0.575,-0.405
'0:00.364',-0.565,-0.400
'0:00.367',-0.550,-0.390
'0:00.369',-0.550,-0.380
'0:00.372',-0.535,-0.385
'0:00.375',-0.520,-0.365
'0:00.378',-0.505,-0.365
'0:00.381',-0.495,-0.370
'0:00.383',-0.485,-0.365
'0:00.386',-0.480,-0.380
'0:00.389',-0.480,-0.395
'0:00.392',-0.470,-0.395
'0:00.394',-0.475,-0.420
'0:00.397',-0.465,-0.425
'0:00.400',-0.445,-0.430
'0:00.403',-0.450,-0.435
'0:00.406',-0.435,-0.435
'0:00.408',-0.430,-0.445
'0:00.411',-0.435,-0.450
'0:00.414',-0.445,-0.470
'0:00.417',-0.465,-0.465
'0:00.419',-0.470,-0.470
'0:00.422',-0.495,-0.475
'0:00.425',-0.515,-0.475
'0:00.428',-0.530,-0.480
'0:00.431',-0.550,-0.455
'0:00.433',-0.550,-0.460
'0:00.436',-0.575,-0.445
'0:00.439',-0.560,-0.425
'0:00.442',-0.565,-0.420
'0:00.444',-0.565,-0.400
'0:00.447',-0.575,-0.415
'0:00.450',-0.600,-0.415
'0:00.453',-0.610,-0.410
'0:00.456',-0.625,-0.415
'0:00.458',-0.640,-0.425
'0:00.461',-0.645,-0.435
'0:00.464',-0.650,-0.430
'0:00.467',-0.635,-0.420
'0:00.469',-0.630,-0.405
'0:00.472',-0.620,-0.410
'0:00.475',-0.605,-0.405
'0:00.478',-0.595,-0.405
'0:00.481',-0.605,-0.405
'0:00.483',-0.590,-0.415
'0:00.486',-0.590,-0.420
'0:00.489',-0.595,-0.435
'0:00.492',-0.605,-0.430
'0:00.494',-0.605,-0.445
'0:00.497',-0.625,-0.450
'0:00.500',-0.620,-0.435
'0:00.503',-0.595,-0.430
'0:00.506',-0.585,-0.420
'0:00.508',-0.580,-0.425
'0:00.511',-0.565,-0.415
'0:00.514',-0.555,-0.425
'0:00.517',-0.550,-0.425
'0:00.519',-0.545,-0.435
'0:00.522',-0.520,-0.440
'0:00.525',-0.505,-0.445
'0:00.528',-0.470,-0.465
'0:00.531',-0.435,-0.455
'0:00.533',-0.355,-0.450
'0:00.536',-0.280,-0.440
'0:00.539',-0.170,-0.425
'0:00.542',-0.050,-0.435
'0:00.544',0.065,-0.435
'0:00.547',0.240,-0.450
'0:00.550',0.410,-0.495
'0:00.553',0.615,-0.545
'0:00.556',0.810,-0.620
'0:00.558',0.980,-0.730
'0:00.561',1.115,-0.850
'0:00.564',1.230,-0.955
'0:00.567',1.335,-1.080
'0:00.569',1.445,-1.190
'0:00.572',1.500,-1.290
'0:00.575',1.455,-1.410
'0:00.578',1.240,-1.505
'0:00.581',0.855,-1.600
'0:00.583',0.405,-1.625
'0:00.586',-0.060,-1.610
'0:00.589',-0.450,-1.525
'0:00.592',-0.710,-1.420
'0:00.594',-0.840,-1.300
'0:00.597',-0.870,-1.165
'0:00.600',-0.820,-1.050
'0:00.603',-0.765,-0.945
'0:00.606',-0.730,-0.850
'0:00.608',-0.695,-0.780
'0:00.611',-0.670,-0.700
'0:00.614',-0.665,-0.640
'0:00.617',-0.665,-0.575
'0:00.619',-0.675,-0.525
'0:00.622',-0.690,-0.485
'0:00.625',-0.705,-0.470
'0:00.628',-0.720,-0.455
'0:00.631',-0.720,-0.455
'0:00.633',-0.725,-0.450
'0:00.636',-0.740,-0.445
'0:00.639',-0.725,-0.420
'0:00.642',-0.710,-0.415
'0:00.644',-0.710,-0.395
'0:00.647',-0.735,-0.395
'0:00.650',-0.725,-0.395
'0:00.653',-0.720,-0.420
'0:00.656',-0.730,-0.420
'0:00.658',-0.735,-0.420
'0:00.661',-0.750,-0.430
'0:00.664',-0.745,-0.425
'0:00.667',-0.755,-0.410
'0:00.669',-0.765,-0.410
'0:00.672',-0.760,-0.400
'0:00.675',-0.755,-0.400
'0:00.678',-0.760,-0.390
'0:00.681',-0.750,-0.385
'0:00.683',-0.765,-0.380
'0:00.686',-0.765,-0.395
'0:00.689',-0.770,-0.400
'0:00.692',-0.770,-0.405
'0:00.694',-0.785,-0.400
'0:00.697',-0.775,-0.390
'0:00.700',-0.775,-0.400
'0:00.703',-0.775,-0.380
'0:00.706',-0.775,-0.380
'0:00.708',-0.775,-0.375
'0:00.711',-0.775,-0.365
'0:00.714',-0.770,-0.350
'0:00.717',-0.770,-0.365
'0:00.719',-0.780,-0.375
'0:00.722',-0.785,-0.380
'0:00.725',-0.795,-0.395
'0:00.728',-0.810,-0.380
'0:00.731',-0.820,-0.385
'0:00.733',-0.825,-0.375
'0:00.736',-0.815,-0.370
'0:00.739',-0.815,-0.365
'0:00.742',-0.810,-0.360
'0:00.744',-0.805,-0.350
'0:00.747',-0.800,-0.355
'0:00.750',-0.815,-0.360
'0:00.753',-0.820,-0.355
'0:00.756',-0.825,-0.370
'0:00.758',-0.840,-0.370
'0:00.761',-0.845,-0.370
'0:00.764',-0.865,-0.355
'0:00.767',-0.860,-0.355
'0:00.769',-0.875,-0.355
'0:00.772',-0.855,-0.340
'0:00.775',-0.855,-0.320
'0:00.778',-0.860,-0.320
'0:00.781',-0.855,-0.320
'0:00.783',-0.860,-0.315
'0:00.786',-0.870,-0.315
'0:00.789',-0.890,-0.315
'0:00.792',-0.900,-0.315
'0:00.794',-0.900,-0.315
'0:00.797',-0.895,-0.325
'0:00.800',-0.895,-0.315
'0:00.803',-0.910,-0.285
'0:00.806',-0.905,-0.290
'0:00.808',-0.890,-0.275
'0:00.811',-0.885,-0.250
'0:00.814',-0.865,-0.260
'0:00.817',-0.870,-0.245
'0:00.819',-0.880,-0.245
'0:00.822',-0.885,-0.255
'0:00.825',-0.890,-0.250
'0:00.828',-0.900,-0.265
'0:00.831',-0.880,-0.260
'0:00.833',-0.875,-0.255
'0:00.836',-0.865,-0.240
'0:00.839',-0.840,-0.230
'0:00.842',-0.830,-0.220
'0:00.844',-0.805,-0.220
'0:00.847',-0.795,-0.230
'0:00.850',-0.775,-0.240
'0:00.853',-0.760,-0.250
'0:00.856',-0.760,-0.250
'0:00.858',-0.750,-0.260
'0:00.861',-0.740,-0.270
'0:00.864',-0.730,-0.275
'0:00.867',-0.725,-0.275
'0:00.869',-0.700,-0.270
'0:00.872',-0.685,-0.270
'0:00.875',-0.655,-0.275
'0:00.878',-0.645,-0.265
'0:00.881',-0.635,-0.280
'0:00.883',-0.630,-0.300
'0:00.886',-0.610,-0.310
'0:00.889',-0.610,-0.320
'0:00.892',-0.615,-0.335
'0:00.894',-0.615,-0.345
'0:00.897',-0.620,-0.355
'0:00.900',-0.625,-0.355
'0:00.903',-0.620,-0.360
'0:00.906',-0.600,-0.350
'0:00.908',-0.595,-0.360
'0:00.911',-0.575,-0.355
'0:00.914',-0.580,-0.365
'0:00.917',-0.580,-0.370
'0:00.919',-0.595,-0.380
'0:00.922',-0.590,-0.390
'0:00.925',-0.585,-0.410
'0:00.928',-0.595,-0.410
'0:00.931',-0.590,-0.405
'0:00.933',-0.595,-0.400
'0:00.936',-0.605,-0.395
'0:00.939',-0.590,-0.400
'0:00.942',-0.605,-0.395
'0:00.944',-0.590,-0.395
'0:00.947',-0.595,-0.385
'0:00.950',-0.590,-0.400
'0:00.953',-0.605,-0.410
'0:00.956',-0.600,-0.415
'0:00.958',-0.610,-0.425
'0:00.961',-0.610,-0.425
'0:00.964',-0.610,-0.430
'0:00.967',-0.610,-0.420
'0:00.969',-0.610,-0.415
'0:00.972',-0.620,-0.415
'0:00.975',-0.615,-0.405
'0:00.978',-0.610,-0.410
'0:00.981',-0.600,-0.415
'0:00.983',-0.605,-0.415
'0:00.986',-0.630,-0.410
'0:00.989',-0.625,-0.415
'0:00.992',-0.640,-0.430
'0:00.994',-0.645,-0.440
'0:00.997',-0.645,-0.435
'0:01.000',-0.640,-0.435
'0:01.003',-0.630,-0.425
'0:01.006',-0.635,-0.405
'0:01.008',-0.625,-0.400
'0:01.011',-0.625,-0.395
'0:01.014',-0.610,-0.405
'0:01.017',-0.620,-0.400
'0:01.019',-0.620,-0.420
'0:01.022',-0.620,-0.420
'0:01.025',-0.645,-0.415
'0:01.028',-0.650,-0.420
'0:01.031',-0.660,-0.425
'0:01.033',-0.650,-0.420
'0:01.036',-0.655,-0.410
'0:01.039',-0.630,-0.395
'0:01.042',-0.615,-0.400
'0:01.044',-0.610,-0.390
'0:01.047',-0.610,-0.410
'0:01.050',-0.605,-0.405
'0:01.053',-0.610,-0.400
'0:01.056',-0.615,-0.420
'0:01.058',-0.620,-0.420
'0:01.061',-0.620,-0.425
'0:01.064',-0.630,-0.430
'0:01.067',-0.635,-0.425
'0:01.069',-0.625,-0.410
'0:01.072',-0.605,-0.405
'0:01.075',-0.585,-0.405
'0:01.078',-0.580,-0.400
'0:01.081',-0.580,-0.405
'0:01.083',-0.590,-0.410
'0:01.086',-0.590,-0.410
'0:01.089',-0.590,-0.425
'0:01.092',-0.585,-0.420
'0:01.094',-0.605,-0.430
'0:01.097',-0.595,-0.430
'0:01.100',-0.605,-0.425
'0:01.103',-0.600,-0.415
'0:01.106',-0.600,-0.400
'0:01.108',-0.590,-0.415
'0:01.111',-0.575,-0.395
'0:01.114',-0.560,-0.410
'0:01.117',-0.565,-0.405
'0:01.119',-0.550,-0.415
'0:01.122',-0.550,-0.420
'0:01.125',-0.560,-0.435
'0:01.128',-0.560,-0.430
'0:01.131',-0.570,-0.430
'0:01.133',-0.555,-0.420
'0:01.136',-0.545,-0.430
'0:01.139',-0.535,-0.410
'0:01.142',-0.525,-0.410
'0:01.144',-0.515,-0.395
'0:01.147',-0.515,-0.390
'0:01.150',-0.505,-0.395
'0:01.153',-0.510,-0.400
'0:01.156',-0.495,-0.410
'0:01.158',-0.500,-0.410
'0:01.161',-0.500,-0.415
'0:01.164',-0.490,-0.410
'0:01.167',-0.475,-0.400
'0:01.169',-0.455,-0.405
'0:01.172',-0.440,-0.395
'0:01.175',-0.430,-0.390
'0:01.178',-0.425,-0.400
'0:01.181',-0.395,-0.410
'0:01.183',-0.385,-0.430
'0:01.186',-0.400,-0.460
'0:01.189',-0.400,-0.475
'0:01.192',-0.420,-0.500
'0:01.194',-0.445,-0.510
'0:01.197',-0.455,-0.515
'0:01.200',-0.470,-0.490
'0:01.203',-0.485,-0.485
'0:01.206',-0.490,-0.465
'0:01.208',-0.520,-0.445
'0:01.211',-0.525,-0.430
'0:01.214',-0.525,-0.430
'0:01.217',-0.545,-0.435
'0:01.219',-0.560,-0.435
'0:01.222',-0.580,-0.430
'0:01.225',-0.600,-0.435
'0:01.228',-0.625,-0.445
'0:01.231',-0.645,-0.435
'0:01.233',-0.620,-0.430
'0:01.236',-0.630,-0.435
'0:01.239',-0.610,-0.430
'0:01.242',-0.615,-0.415
'0:01.244',-0.600,-0.410
'0:01.247',-0.595,-0.410
'0:01.250',-0.595,-0.415
'0:01.253',-0.585,-0.410
'0:01.256',-0.600,-0.440
'0:01.258',-0.610,-0.445
'0:01.261',-0.620,-0.455
'0:01.264',-0.610,-0.450
'0:01.267',-0.605,-0.450
'0:01.269',-0.600,-0.435
'0:01.272',-0.600,-0.430
'0:01.275',-0.585,-0.435
'0:01.278',-0.570,-0.420
'0:01.281',-0.545,-0.435
'0:01.283',-0.535,-0.445
'0:01.286',-0.525,-0.445
'0:01.289',-0.490,-0.445
'0:01.292',-0.470,-0.465
'0:01.294',-0.410,-0.470
'0:01.297',-0.335,-0.475
'0:01.300',-0.255,-0.465
'0:01.303',-0.145,-0.450
'0:01.306',-0.015,-0.460
'0:01.308',0.110,-0.450
'0:01.311',0.280,-0.465
'0:01.314',0.430,-0.505
'0:01.317',0.600,-0.545
'0:01.319',0.780,-0.605
'0:01.322',0.930,-0.685
'0:01.325',1.065,-0.790
'0:01.328',1.165,-0.890
'0:01.331',1.250,-0.995
'0:01.333',1.325,-1.085
'0:01.336',1.405,-1.170
'0:01.339',1.445,-1.275
'0:01.342',1.445,-1.360
'0:01.344',1.325,-1.465
'0:01.347',1.075,-1.560
'0:01.350',0.710,-1.630
'0:01.353',0.290,-1.660
'0:01.356',-0.100,-1.650
'0:01.358',-0.425,-1.585
'0:01.361',-0.650,-1.475
'0:01.364',-0.765,-1.345
'0:01.367',-0.780,-1.220
'0:01.369',-0.770,-1.105
'0:01.372',-0.735,-1.000
'0:01.375',-0.725,-0.925
'0:01.378',-0.695,-0.850
'0:01.381',-0.690,-0.790
'0:01.383',-0.690,-0.750
'0:01.386',-0.680,-0.685
'0:01.389',-0.690,-0.615
'0:01.392',-0.690,-0.565
'0:01.394',-0.710,-0.515
'0:01.397',-0.710,-0.495
'0:01.400',-0.720,-0.455
'0:01.403',-0.730,-0.450
'0:01.406',-0.725,-0.440
'0:01.408',-0.715,-0.430
'0:01.411',-0.715,-0.435
'0:01.414',-0.710,-0.420
'0:01.417',-0.715,-0.420
'0:01.419',-0.725,-0.410
'0:01.422',-0.725,-0.420
'0:01.425',-0.740,-0.425
'0:01.428',-0.745,-0.435
'0:01.431',-0.755,-0.415
'0:01.433',-0.760,-0.420
'0:01.436',-0.765,-0.410
'0:01.439',-0.745,-0.390
'0:01.442',-0.750,-0.385
'0:01.444',-0.745,-0.380
'0:01.447',-0.745,-0.375
'0:01.450',-0.755,-0.385
'0:01.453',-0.745,-0.390
'0:01.456',-0.760,-0.400
'0:01.458',-0.775,-0.400
'0:01.461',-0.770,-0.400
'0:01.464',-0.785,-0.400
'0:01.467',-0.790,-0.395
'0:01.469',-0.775,-0.390
'0:01.472',-0.780,-0.385
'0:01.475',-0.760,-0.370
'0:01.478',-0.765,-0.365
'0:01.481',-0.770,-0.365
'0:01.483',-0.775,-0.375
'0:01.486',-0.765,-0.370
'0:01.489',-0.790,-0.370
'0:01.492',-0.785,-0.385
'0:01.494',-0.795,-0.385
'0:01.497',-0.795,-0.385
'0:01.500',-0.790,-0.380
'0:01.503',-0.805,-0.365
'0:01.506',-0.785,-0.365
'0:01.508',-0.795,-0.350
'0:01.511',-0.790,-0.350
'0:01.514',-0.790,-0.345
'0:01.517',-0.795,-0.355
'0:01.519',-0.800,-0.350
'0:01.522',-0.810,-0.355
'0:01.525',-0.820,-0.365
'0:01.528',-0.825,-0.365
'0:01.531',-0.830,-0.365
'0:01.533',-0.845,-0.350
'0:01.536',-0.845,-0.355
'0:01.539',-0.840,-0.335
'0:01.542',-0.835,-0.325
'0:01.544',-0.830,-0.315
'0:01.547',-0.830,-0.315
'0:01.550',-0.840,-0.320
'0:01.553',-0.850,-0.325
'0:01.556',-0.865,-0.320
'0:01.558',-0.875,-0.330
'0:01.561',-0.900,-0.320
'0:01.564',-0.900,-0.320
'0:01.567',-0.890,-0.310
'0:01.569',-0.885,-0.310
'0:01.572',-0.885,-0.280
'0:01.575',-0.880,-0.265
'0:01.578',-0.870,-0.265
'0:01.581',-0.880,-0.255
'0:01.583',-0.875,-0.250
'0:01.586',-0.865,-0.260
'0:01.589',-0.885,-0.265
'0:01.592',-0.885,-0.260
'0:01.594',-0.885,-0.260
'0:01.597',-0.890,-0.245
'0:01.600',-0.885,-0.245
'0:01.603',-0.870,-0.225
'0:01.606',-0.870,-0.215
'0:01.608',-0.850,-0.225
'0:01.611',-0.835,-0.200
'0:01.614',-0.825,-0.220
'0:01.617',-0.805,-0.220
'0:01.619',-0.790,-0.220
'0:01.622',-0.785,-0.230
'0:01.625',-0.760,-0.235
'0:01.628',-0.770,-0.245
'0:01.631',-0.745,-0.245
'0:01.633',-0.730,-0.245
'0:01.636',-0.720,-0.250
'0:01.639',-0.700,-0.245
'0:01.642',-0.680,-0.250
'0:01.644',-0.660,-0.245
'0:01.647',-0.645,-0.255
'0:01.650',-0.650,-0.260
'0:01.653',-0.630,-0.270
'0:01.656',-0.640,-0.295
'0:01.658',-0.630,-0.305
'0:01.661',-0.630,-0.320
'0:01.664',-0.640,-0.315
'0:01.667',-0.625,-0.325
'0:01.669',-0.630,-0.325
'0:01.672',-0.610,-0.315
'0:01.675',-0.605,-0.315
'0:01.678',-0.590,-0.330
'0:01.681',-0.585,-0.325
'0:01.683',-0.585,-0.330
'0:01.686',-0.590,-0.335
'0:01.689',-0.585,-0.355
'0:01.692',-0.605,-0.370
'0:01.694',-0.610,-0.375
'0:01.697',-0.625,-0.370
'0:01.700',-0.615,-0.370
'0:01.703',-0.605,-0.365
'0:01.706',-0.600,-0.370
'0:01.708',-0.600,-0.365
'0:01.711',-0.595,-0.375
'0:01.714',-0.585,-0.375
'0:01.717',-0.595,-0.390
'0:01.719',-0.605,-0.380
'0:01.722',-0.610,-0.390
'0:01.725',-0.615,-0.390
'0:01.728',-0.605,-0.410
'0:01.731',-0.615,-0.410
'0:01.733',-0.635,-0.425
'0:01.736',-0.625,-0.395
'0:01.739',-0.620,-0.395
'0:01.742',-0.620,-0.385
'0:01.744',-0.610,-0.385
'0:01.747',-0.595,-0.375
'0:01.750',-0.600,-0.385
'0:01.753',-0.605,-0.395
'0:01.756',-0.625,-0.395
'0:01.758',-0.625,-0.410
'0:01.761',-0.650,-0.410
'0:01.764',-0.650,-0.420
'0:01.767',-0.655,-0.415
'0:01.769',-0.640,-0.400
'0:01.772',-0.650,-0.395
'0:01.775',-0.640,-0.390
'0:01.778',-0.645,-0.380
'0:01.781',-0.620,-0.385
'0:01.783',-0.620,-0.380
'0:01.786',-0.640,-0.385
'0:01.789',-0.640,-0.395
'0:01.792',-0.635,-0.400
'0:01.794',-0.645,-0.395
'0:01.797',-0.655,-0.390
'0:01.800',-0.655,-0.395
'0:01.803',-0.665,-0.390
'0:01.806',-0.675,-0.390
'0:01.808',-0.660,-0.375
'0:01.811',-0.660,-0.370
'0:01.814',-0.655,-0.370
'0:01.817',-0.640,-0.385
'0:01.819',-0.640,-0.390
'0:01.822',-0.645,-0.395
'0:01.825',-0.665,-0.390
'0:01.828',-0.665,-0.395
'0:01.831',-0.665,-0.400
'0:01.833',-0.650,-0.400
'0:01.836',-0.660,-0.385
'0:01.839',-0.645,-0.380
'0:01.842',-0.630,-0.370
'0:01.844',-0.620,-0.370
'0:01.847',-0.610,-0.365
'0:01.850',-0.610,-0.380
'0:01.853',-0.610,-0.375
'0:01.856',-0.610,-0.385
'0:01.858',-0.615,-0.395
'0:01.861',-0.615,-0.385
'0:01.864',-0.610,-0.390
'0:01.867',-0.620,-0.390
'0:01.869',-0.610,-0.385
'0:01.872',-0.615,-0.385
'0:01.875',-0.610,-0.380
'0:01.878',-0.590,-0.355
'0:01.881',-0.585,-0.365
'0:01.883',-0.590,-0.370
'0:01.886',-0.575,-0.365
'0:01.889',-0.575,-0.380
'0:01.892',-0.580,-0.405
'0:01.894',-0.580,-0.410
'0:01.897',-0.580,-0.395
'0:01.900',-0.575,-0.390
'0:01.903',-0.560,-0.380
'0:01.906',-0.555,-0.375
'0:01.908',-0.545,-0.360
'0:01.911',-0.530,-0.355
'0:01.914',-0.525,-0.355
'0:01.917',-0.525,-0.370
'0:01.919',-0.520,-0.365
'0:01.922',-0.510,-0.370
'0:01.925',-0.520,-0.380
'0:01.928',-0.520,-0.380
'0:01.931',-0.520,-0.375
'0:01.933',-0.500,-0.375
'0:01.936',-0.490,-0.365
'0:01.939',-0.480,-0.350
'0:01.942',-0.465,-0.345
'0:01.944',-0.440,-0.355
'0:01.947',-0.425,-0.370
'0:01.950',-0.415,-0.375
'0:01.953',-0.415,-0.380
'0:01.956',-0.410,-0.415
'0:01.958',-0.420,-0.430
'0:01.961',-0.430,-0.450
'0:01.964',-0.440,-0.465
'0:01.967',-0.445,-0.460
'0:01.969',-0.445,-0.465
'0:01.972',-0.455,-0.460
'0:01.975',-0.455,-0.455
'0:01.978',-0.465,-0.435
'0:01.981',-0.475,-0.430
'0:01.983',-0.490,-0.430
'0:01.986',-0.510,-0.420
'0:01.989',-0.515,-0.420
'0:01.992',-0.535,-0.425
'0:01.994',-0.555,-0.425
'0:01.997',-0.560,-0.425
'0:02.000',-0.580,-0.415
'0:02.003',-0.605,-0.400
'0:02.006',-0.595,-0.400
'0:02.008',-0.605,-0.390
'0:02.011',-0.595,-0.370
'0:02.014',-0.600,-0.385
'0:02.017',-0.605,-0.385
'0:02.019',-0.600,-0.395
'0:02.022',-0.610,-0.390
'0:02.025',-0.625,-0.395
'0:02.028',-0.630,-0.405
'0:02.031',-0.615,-0.415
'0:02.033',-0.615,-0.405
'0:02.036',-0.605,-0.400
'0:02.039',-0.600,-0.400
'0:02.042',-0.590,-0.395
'0:02.044',-0.585,-0.385
'0:02.047',-0.570,-0.395
'0:02.050',-0.575,-0.395
'0:02.053',-0.565,-0.395
'0:02.056',-0.555,-0.400
'0:02.058',-0.550,-0.410
'0:02.061',-0.540,-0.425
'0:02.064',-0.525,-0.420
'0:02.067',-0.505,-0.415
'0:02.069',-0.455,-0.420
'0:02.072',-0.400,-0.410
'0:02.075',-0.320,-0.405
'0:02.078',-0.235,-0.405
'0:02.081',-0.125,-0.385
'0:02.083',-0.005,-0.405
'0:02.086',0.130,-0.420
'0:02.089',0.295,-0.450
'0:02.092',0.470,-0.510
'0:02.094',0.675,-0.560
'0:02.097',0.875,-0.640
'0:02.100',1.030,-0.740
'0:02.103',1.175,-0.845
'0:02.106',1.275,-0.960
'0:02.108',1.355,-1.070
'0:02.111',1.425,-1.165
'0:02.114',1.445,-1.290
'0:02.117',1.370,-1.395
'0:02.119',1.185,-1.510
'0:02.122',0.885,-1.590
'0:02.125',0.525,-1.655
'0:02.128',0.145,-1.675
'0:02.131',-0.200,-1.645
'0:02.133',-0.465,-1.550
'0:02.136',-0.635,-1.450
'0:02.139',-0.715,-1.310
'0:02.142',-0.740,-1.195
'0:02.144',-0.720,-1.085
'0:02.147',-0.710,-0.990
'0:02.150',-0.700,-0.925
'0:02.153',-0.700,-0.865
'0:02.156',-0.700,-0.820
'0:02.158',-0.705,-0.765
'0:02.161',-0.695,-0.705
'0:02.164',-0.690,-0.655
'0:02.167',-0.690,-0.580
'0:02.169',-0.680,-0.525
'0:02.172',-0.685,-0.475
'0:02.175',-0.680,-0.435
'0:02.178',-0.685,-0.395
'0:02.181',-0.690,-0.390
'0:02.183',-0.695,-0.390
'0:02.186',-0.705,-0.405
'0:02.189',-0.700,-0.405
'0:02.192',-0.695,-0.395
'0:02.194',-0.730,-0.405
'0:02.197',-0.735,-0.405
'0:02.200',-0.735,-0.375
'0:02.203',-0.745,-0.370
'0:02.206',-0.740,-0.360
'0:02.208',-0.730,-0.360
'0:02.211',-0.740,-0.350
'0:02.214',-0.720,-0.365
'0:02.217',-0.735,-0.360
'0:02.219',-0.725,-0.370
'0:02.222',-0.730,-0.375
'0:02.225',-0.740,-0.375
'0:02.228',-0.745,-0.375
'0:02.231',-0.760,-0.375
'0:02.233',-0.755,-0.370
'0:02.236',-0.750,-0.360
'0:02.239',-0.760,-0.350
'0:02.242',-0.750,-0.345
'0:02.244',-0.750,-0.330
'0:02.247',-0.740,-0.345
'0:02.250',-0.750,-0.335
'0:02.253',-0.745,-0.345
'0:02.256',-0.760,-0.345
'0:02.258',-0.770,-0.355
'0:02.261',-0.785,-0.355
'0:02.264',-0.795,-0.355
'0:02.267',-0.795,-0.345
'0:02.269',-0.790,-0.345
'0:02.272',-0.790,-0.325
'0:02.275',-0.785,-0.320
'0:02.278',-0.775,-0.315
'0:02.281',-0.780,-0.305
'0:02.283',-0.780,-0.320
'0:02.286',-0.785,-0.330
'0:02.289',-0.790,-0.335
'0:02.292',-0.815,-0.330
'0:02.294',-0.815,-0.330
'0:02.297',-0.835,-0.330
'0:02.300',-0.825,-0.325
'0:02.303',-0.830,-0.315
'0:02.306',-0.825,-0.310
'0:02.308',-0.825,-0.285
'0:02.311',-0.820,-0.285
'0:02.314',-0.820,-0.280
'0:02.317',-0.830,-0.285
'0:02.319',-0.825,-0.285
'0:02.322',-0.835,-0.285
'0:02.325',-0.845,-0.290
'0:02.328',-0.855,-0.285
'0:02.331',-0.865,-0.285
'0:02.333',-0.875,-0.265
'0:02.336',-0.860,-0.260
'0:02.339',-0.860,-0.255
'0:02.342',-0.870,-0.250
'0:02.344',-0.865,-0.225
'0:02.347',-0.865,-0.220
'0:02.350',-0.850,-0.230
'0:02.353',-0.860,-0.230
'0:02.356',-0.865,-0.220
'0:02.358',-0.875,-0.220
'0:02.361',-0.870,-0.225
'0:02.364',-0.865,-0.235
'0:02.367',-0.870,-0.220
'0:02.369',-0.865,-0.205
'0:02.372',-0.860,-0.175
'0:02.375',-0.850,-0.180
'0:02.378',-0.840,-0.170
'0:02.381',-0.835,-0.160
'0:02.383',-0.820,-0.175
'0:02.386',-0.815,-0.175
'0:02.389',-0.810,-0.190
'0:02.392',-0.800,-0.190
'0:02.394',-0.795,-0.200
'0:02.397',-0.790,-0.185
'0:02.400',-0.770,-0.180
'0:02.403',-0.760,-0.190
'0:02.406',-0.750,-0.185
'0:02.408',-0.735,-0.190
'0:02.411',-0.715,-0.170
'0:02.414',-0.680,-0.175
'0:02.417',-0.670,-0.200
'0:02.419',-0.665,-0.210
'0:02.422',-0.655,-0.215
'0:02.425',-0.645,-0.230
'0:02.428',-0.640,-0.240
'0:02.431',-0.645,-0.245
'0:02.433',-0.640,-0.250
'0:02.436',-0.625,-0.245
'0:02.439',-0.610,-0.250
'0:02.442',-0.595,-0.260
'0:02.444',-0.600,-0.245
'0:02.447',-0.585,-0.260
'0:02.450',-0.580,-0.275
'0:02.453',-0.580,-0.295
'0:02.456',-0.595,-0.300
'0:02.458',-0.595,-0.315
'0:02.461',-0.590,-0.305
'0:02.464',-0.580,-0.330
'0:02.467',-0.585,-0.335
'0:02.469',-0.580,-0.325
'0:02.472',-0.575,-0.310
'0:02.475',-0.575,-0.315
'0:02.478',-0.560,-0.300
'0:02.481',-0.555,-0.320
'0:02.483',-0.570,-0.320
'0:02.486',-0.565,-0.335
'0:02.489',-0.580,-0.350
'0:02.492',-0.590,-0.350
'0:02.494',-0.595,-0.355
'0:02.497',-0.600,-0.365
'0:02.500',-0.590,-0.360
'0:02.503',-0.605,-0.360
'0:02.506',-0.595,-0.340
'0:02.508',-0.585,-0.350
'0:02.511',-0.580,-0.340
'0:02.514',-0.580,-0.355
'0:02.517',-0.580,-0.345
'0:02.519',-0.595,-0.355
'0:02.522',-0.600,-0.355
'0:02.525',-0.600,-0.375
'0:02.528',-0.605,-0.375
'0:02.531',-0.615,-0.370
'0:02.533',-0.620,-0.365
'0:02.536',-0.615,-0.350
'0:02.539',-0.600,-0.350
'0:02.542',-0.605,-0.345
'0:02.544',-0.605,-0.335
'0:02.547',-0.585,-0.340
'0:02.550',-0.595,-0.350
'0:02.553',-0.605,-0.350
'0:02.556',-0.615,-0.360
'0:02.558',-0.615,-0.365
'0:02.561',-0.620,-0.355
'0:02.564',-0.620,-0.370
'0:02.567',-0.625,-0.355
'0:02.569',-0.620,-0.360
'0:02.572',-0.620,-0.350
'0:02.575',-0.610,-0.340
'0:02.578',-0.605,-0.330
'0:02.581',-0.600,-0.330
'0:02.583',-0.610,-0.335
'0:02.586',-0.610,-0.345
'0:02.589',-0.620,-0.340
'0:02.592',-0.620,-0.335
'0:02.594',-0.630,-0.350
'0:02.597',-0.630,-0.360
'0:02.600',-0.640,-0.345
'0:02.603',-0.625,-0.335
'0:02.606',-0.615,-0.325
'0:02.608',-0.605,-0.325
'0:02.611',-0.600,-0.315
'0:02.614',-0.590,-0.320
'0:02.617',-0.590,-0.325
'0:02.619',-0.595,-0.330
'0:02.622',-0.595,-0.335
'0:02.625',-0.595,-0.345
'0:02.628',-0.595,-0.345
'0:02.631',-0.595,-0.355
'0:02.633',-0.590,-0.340
'0:02.636',-0.590,-0.345
'0:02.639',-0.580,-0.340
'0:02.642',-0.590,-0.320
'0:02.644',-0.565,-0.315
'0:02.647',-0.565,-0.325
'0:02.650',-0.560,-0.325
'0:02.653',-0.550,-0.330
'0:02.656',-0.555,-0.335
'0:02.658',-0.570,-0.335
'0:02.661',-0.585,-0.345
'0:02.664',-0.570,-0.355
'0:02.667',-0.565,-0.330
'0:02.669',-0.550,-0.330
'0:02.672',-0.550,-0.330
'0:02.675',-0.530,-0.325
'0:02.678',-0.505,-0.300
'0:02.681',-0.500,-0.305
'0:02.683',-0.490,-0.315
'0:02.686',-0.495,-0.315
'0:02.689',-0.500,-0.310
'0:02.692',-0.495,-0.320
'0:02.694',-0.510,-0.315
'0:02.697',-0.520,-0.320
'0:02.700',-0.500,-0.320
'0:02.703',-0.485,-0.310
'0:02.706',-0.470,-0.290
'0:02.708',-0.460,-0.285
'0:02.711',-0.455,-0.280
'0:02.714',-0.425,-0.275
'0:02.717',-0.410,-0.285
'0:02.719',-0.395,-0.290
'0:02.722',-0.400,-0.300
'0:02.725',-0.395,-0.320
'0:02.728',-0.400,-0.335
'0:02.731',-0.395,-0.335
'0:02.733',-0.400,-0.350
'0:02.736',-0.395,-0.360
'0:02.739',-0.415,-0.355
'0:02.742',-0.405,-0.370
'0:02.744',-0.395,-0.370
'0:02.747',-0.400,-0.355
'0:02.750',-0.415,-0.365
'0:02.753',-0.440,-0.345
'0:02.756',-0.455,-0.350
'0:02.758',-0.475,-0.360
'0:02.761',-0.490,-0.335
'0:02.764',-0.510,-0.340
'0:02.767',-0.535,-0.315
'0:02.769',-0.540,-0.330
'0:02.772',-0.540,-0.320
'0:02.775',-0.545,-0.295
'0:02.778',-0.550,-0.295
'0:02.781',-0.560,-0.305
'0:02.783',-0.575,-0.295
'0:02.786',-0.580,-0.305
'0:02.789',-0.575,-0.310
'0:02.792',-0.585,-0.310
'0:02.794',-0.585,-0.315
'0:02.797',-0.590,-0.305
'0:02.800',-0.590,-0.315
'0:02.803',-0.575,-0.305
'0:02.806',-0.580,-0.295
'0:02.808',-0.580,-0.305
'0:02.811',-0.555,-0.295
'0:02.814',-0.555,-0.295
'0:02.817',-0.535,-0.285
'0:02.819',-0.540,-0.310
'0:02.822',-0.545,-0.320
'0:02.825',-0.540,-0.325
'0:02.828',-0.530,-0.340
'0:02.831',-0.530,-0.335
'0:02.833',-0.495,-0.325
'0:02.836',-0.470,-0.320
'0:02.839',-0.425,-0.300
'0:02.842',-0.345,-0.300
'0:02.844',-0.225,-0.300
'0:02.847',-0.095,-0.300
'0:02.850',0.055,-0.320
'0:02.853',0.230,-0.335
'0:02.856',0.420,-0.375
'0:02.858',0.625,-0.415
'0:02.861',0.820,-0.490
'0:02.864',0.990,-0.570
'0:02.867',1.125,-0.685
'0:02.869',1.220,-0.785
'0:02.872',1.295,-0.910
'0:02.875',1.370,-1.005
'0:02.878',1.400,-1.115
'0:02.881',1.345,-1.240
'0:02.883',1.180,-1.345
'0:02.886',0.870,-1.445
'0:02.889',0.475,-1.505
'0:02.892',0.060,-1.525
'0:02.894',-0.300,-1.485
'0:02.897',-0.580,-1.380
'0:02.900',-0.730,-1.255
'0:02.903',-0.800,-1.120
'0:02.906',-0.780,-0.985
'0:02.908',-0.750,-0.875
'0:02.911',-0.715,-0.795
'0:02.914',-0.675,-0.730
'0:02.917',-0.655,-0.665
'0:02.919',-0.645,-0.595
'0:02.922',-0.650,-0.535
'0:02.925',-0.655,-0.475
'0:02.928',-0.650,-0.420
'0:02.931',-0.655,-0.355
'0:02.933',-0.665,-0.330
'0:02.936',-0.675,-0.290
'0:02.939',-0.675,-0.280
'0:02.942',-0.675,-0.270
'0:02.944',-0.670,-0.270
'0:02.947',-0.665,-0.275
'0:02.950',-0.665,-0.280
'0:02.953',-0.660,-0.270
'0:02.956',-0.685,-0.275
'0:02.958',-0.690,-0.265
'0:02.961',-0.710,-0.270
'0:02.964',-0.695,-0.255
'0:02.967',-0.700,-0.255
'0:02.969',-0.700,-0.250
'0:02.972',-0.690,-0.235
'0:02.975',-0.695,-0.225
'0:02.978',-0.700,-0.230
'0:02.981',-0.700,-0.230
'0:02.983',-0.695,-0.230
'0:02.986',-0.705,-0.245
'0:02.989',-0.705,-0.245
'0:02.992',-0.715,-0.245
'0:02.994',-0.730,-0.260
'0:02.997',-0.735,-0.240
'0:03.000',-0.730,-0.230
'0:03.003',-0.725,-0.225
'0:03.006',-0.720,-0.215
'0:03.008',-0.740,-0.210
'0:03.011',-0.740,-0.200
'0:03.014',-0.735,-0.215
'0:03.017',-0.730,-0.215
'0:03.019',-0.725,-0.225
'0:03.022',-0.735,-0.215
'0:03.025',-0.735,-0.235
'0:03.028',-0.750,-0.230
'0:03.031',-0.750,-0.205
'0:03.033',-0.750,-0.215
'0:03.036',-0.750,-0.210
'0:03.039',-0.760,-0.195
'0:03.042',-0.755,-0.190
'0:03.044',-0.755,-0.190
'0:03.047',-0.755,-0.190
'0:03.050',-0.765,-0.190
'0:03.053',-0.770,-0.200
'0:03.056',-0.785,-0.205
'0:03.058',-0.795,-0.200
'0:03.061',-0.800,-0.205
'0:03.064',-0.805,-0.195
'0:03.067',-0.810,-0.190
'0:03.069',-0.820,-0.180
'0:03.072',-0.820,-0.165
'0:03.075',-0.815,-0.155
'0:03.078',-0.815,-0.145
'0:03.081',-0.820,-0.160
'0:03.083',-0.825,-0.145
'0:03.086',-0.835,-0.170
'0:03.089',-0.835,-0.155
'0:03.092',-0.845,-0.160
'0:03.094',-0.860,-0.150
'0:03.097',-0.855,-0.145
'0:03.100',-0.850,-0.120
'0:03.103',-0.850,-0.110
'0:03.106',-0.850,-0.105
'0:03.108',-0.855,-0.085
'0:03.111',-0.830,-0.090
'0:03.114',-0.835,-0.080
'0:03.117',-0.835,-0.090
'0:03.119',-0.835,-0.080
'0:03.122',-0.840,-0.075
'0:03.125',-0.840,-0.080
'0:03.128',-0.840,-0.080
'0:03.131',-0.840,-0.060
'0:03.133',-0.820,-0.070
'0:03.136',-0.815,-0.050
'0:03.139',-0.785,-0.035
'0:03.142',-0.780,-0.040
'0:03.144',-0.765,-0.040
'0:03.147',-0.750,-0.055
'0:03.150',-0.740,-0.050
'0:03.153',-0.730,-0.060
'0:03.156',-0.725,-0.075
'0:03.158',-0.700,-0.075
'0:03.161',-0.700,-0.080
'0:03.164',-0.680,-0.075
'0:03.167',-0.670,-0.070
'0:03.169',-0.635,-0.075
'0:03.172',-0.620,-0.060
'0:03.175',-0.605,-0.065
'0:03.178',-0.590,-0.080
'0:03.181',-0.580,-0.095
'0:03.183',-0.580,-0.100
'0:03.186',-0.585,-0.125
'0:03.189',-0.580,-0.135
'0:03.192',-0.585,-0.140
'0:03.194',-0.595,-0.150
'0:03.197',-0.570,-0.145
'0:03.200',-0.575,-0.155
'0:03.203',-0.565,-0.155
'0:03.206',-0.540,-0.150
'0:03.208',-0.540,-0.160
'0:03.211',-0.540,-0.150
'0:03.214',-0.540,-0.175
'0:03.217',-0.535,-0.180
'0:03.219',-0.550,-0.185
'0:03.222',-0.565,-0.205
'0:03.225',-0.555,-0.205
'0:03.228',-0.570,-0.210
'0:03.231',-0.570,-0.215
'0:03.233',-0.565,-0.200
'0:03.236',-0.545,-0.200
'0:03.239',-0.545,-0.210
'0:03.242',-0.540,-0.195
'0:03.244',-0.540,-0.190
'0:03.247',-0.545,-0.210
'0:03.250',-0.555,-0.210
'0:03.253',-0.575,-0.220
'0:03.256',-0.580,-0.235
'0:03.258',-0.590,-0.230
'0:03.261',-0.585,-0.245
'0:03.264',-0.590,-0.245
'0:03.267',-0.585,-0.240
'0:03.269',-0.565,-0.220
'0:03.272',-0.565,-0.215
'0:03.275',-0.565,-0.215
'0:03.278',-0.560,-0.210
'0:03.281',-0.575,-0.220
'0:03.283',-0.565,-0.230
'0:03.286',-0.585,-0.245
'0:03.289',-0.595,-0.240
'0:03.292',-0.605,-0.245
'0:03.294',-0.605,-0.240
'0:03.297',-0.615,-0.245
'0:03.300',-0.610,-0.240
'0:03.303',-0.610,-0.220
'0:03.306',-0.600,-0.220
'0:03.308',-0.600,-0.220
'0:03.311',-0.595,-0.210
'0:03.314',-0.605,-0.215
'0:03.317',-0.600,-0.220
'0:03.319',-0.615,-0.235
'0:03.322',-0.620,-0.230
'0:03.325',-0.630,-0.240
'0:03.328',-0.625,-0.240
'0:03.331',-0.620,-0.240
'0:03.333',-0.620,-0.240
'0:03.336',-0.620,-0.230
'0:03.339',-0.610,-0.215
'0:03.342',-0.605,-0.210
'0:03.344',-0.595,-0.205
'0:03.347',-0.595,-0.215
'0:03.350',-0.585,-0.215
'0:03.353',-0.590,-0.230
'0:03.356',-0.600,-0.230
'0:03.358',-0.600,-0.245
'0:03.361',-0.605,-0.250
'0:03.364',-0.600,-0.240
'0:03.367',-0.600,-0.235
'0:03.369',-0.590,-0.230
'0:03.372',-0.590,-0.220
'0:03.375',-0.590,-0.225
'0:03.378',-0.575,-0.215
'0:03.381',-0.565,-0.235
'0:03.383',-0.565,-0.230
'0:03.386',-0.585,-0.245
'0:03.389',-0.575,-0.245
'0:03.392',-0.580,-0.250
'0:03.394',-0.570,-0.255
'0:03.397',-0.580,-0.245
'0:03.400',-0.580,-0.240
'0:03.403',-0.570,-0.240
'0:03.406',-0.560,-0.235
'0:03.408',-0.565,-0.235
'0:03.411',-0.540,-0.225
'0:03.414',-0.540,-0.230
'0:03.417',-0.540,-0.240
'0:03.419',-0.535,-0.250
'0:03.422',-0.545,-0.255
'0:03.425',-0.540,-0.260
'0:03.428',-0.545,-0.270
'0:03.431',-0.550,-0.265
'0:03.433',-0.535,-0.260
'0:03.436',-0.535,-0.255
'0:03.439',-0.510,-0.240
'0:03.442',-0.510,-0.240
'0:03.444',-0.485,-0.225
'0:03.447',-0.485,-0.245
'0:03.450',-0.490,-0.235
'0:03.453',-0.460,-0.245
'0:03.456',-0.470,-0.245
'0:03.458',-0.470,-0.245
'0:03.461',-0.465,-0.245
'0:03.464',-0.465,-0.245
'0:03.467',-0.450,-0.240
'0:03.469',-0.430,-0.235
'0:03.472',-0.420,-0.240
'0:03.475',-0.400,-0.245
'0:03.478',-0.400,-0.250
'0:03.481',-0.390,-0.285
'0:03.483',-0.410,-0.295
'0:03.486',-0.410,-0.315
'0:03.489',-0.430,-0.340
'0:03.492',-0.430,-0.335
'0:03.494',-0.445,-0.355
'0:03.497',-0.460,-0.335
'0:03.500',-0.460,-0.325
'0:03.503',-0.485,-0.315
'0:03.506',-0.495,-0.290
'0:03.508',-0.510,-0.280
'0:03.511',-0.510,-0.280
'0:03.514',-0.510,-0.280
'0:03.517',-0.530,-0.290
'0:03.519',-0.545,-0.285
'0:03.522',-0.565,-0.285
'0:03.525',-0.585,-0.295
'0:03.528',-0.590,-0.280
'0:03.531',-0.615,-0.280
'0:03.533',-0.620,-0.270
'0:03.536',-0.625,-0.275
'0:03.539',-0.615,-0.255
'0:03.542',-0.605,-0.250
'0:03.544',-0.600,-0.255
'0:03.547',-0.590,-0.265
'0:03.550',-0.585,-0.255
'0:03.553',-0.600,-0.265
'0:03.556',-0.590,-0.275
'0:03.558',-0.590,-0.275
'0:03.561',-0.605,-0.285
'0:03.564',-0.595,-0.290
'0:03.567',-0.595,-0.270
'0:03.569',-0.595,-0.270
'0:03.572',-0.580,-0.255
'0:03.575',-0.570,-0.260
'0:03.578',-0.555,-0.270
'0:03.581',-0.560,-0.270
'0:03.583',-0.545,-0.275
'0:03.586',-0.535,-0.285
'0:03.589',-0.515,-0.285
'0:03.592',-0.500,-0.300
'0:03.594',-0.460,-0.305
'0:03.597',-0.405,-0.295
'0:03.600',-0.315,-0.290
'0:03.603',-0.205,-0.285
'0:03.606',-0.080,-0.265
'0:03.608',0.075,-0.275
'0:03.611',0.265,-0.275
'0:03.614',0.460,-0.305
'0:03.617',0.660,-0.350
'0:03.619',0.855,-0.425
'0:03.622',1.005,-0.535
'0:03.625',1.130,-0.660
'0:03.628',1.220,-0.770
'0:03.631',1.290,-0.890
'0:03.633',1.355,-0.995
'0:03.636',1.350,-1.110
'0:03.639',1.220,-1.230
'0:03.642',0.905,-1.325
'0:03.644',0.480,-1.415
'0:03.647',0.000,-1.420
'0:03.650',-0.445,-1.370
'0:03.653',-0.750,-1.270
'0:03.656',-0.905,-1.110
'0:03.658',-0.935,-0.970
'0:03.661',-0.900,-0.850
'0:03.664',-0.835,-0.755
'0:03.667',-0.760,-0.665
'0:03.669',-0.695,-0.600
'0:03.672',-0.655,-0.535
'0:03.675',-0.640,-0.450
'0:03.678',-0.645,-0.380
'0:03.681',-0.655,-0.340
'0:03.683',-0.670,-0.305
'0:03.686',-0.675,-0.290
'0:03.689',-0.695,-0.275
'0:03.692',-0.710,-0.280
'0:03.694',-0.720,-0.285
'0:03.697',-0.735,-0.270
'0:03.700',-0.745,-0.275
'0:03.703',-0.730,-0.255
'0:03.706',-0.725,-0.250
'0:03.708',-0.725,-0.240
'0:03.711',-0.700,-0.230
'0:03.714',-0.705,-0.245
'0:03.717',-0.715,-0.235
'0:03.719',-0.715,-0.245
'0:03.722',-0.725,-0.245
'0:03.725',-0.750,-0.245
'0:03.728',-0.755,-0.255
'0:03.731',-0.755,-0.245
'0:03.733',-0.765,-0.245
'0:03.736',-0.750,-0.225
'0:03.739',-0.740,-0.225
'0:03.742',-0.745,-0.215
'0:03.744',-0.735,-0.225
'0:03.747',-0.740,-0.215
'0:03.750',-0.750,-0.215
'0:03.753',-0.755,-0.230
'0:03.756',-0.770,-0.235
'0:03.758',-0.770,-0.240
'0:03.761',-0.770,-0.235
'0:03.764',-0.780,-0.230
'0:03.767',-0.785,-0.225
'0:03.769',-0.780,-0.225
'0:03.772',-0.785,-0.205
'0:03.775',-0.775,-0.200
'0:03.778',-0.770,-0.190
'0:03.781',-0.770,-0.195
'0:03.783',-0.780,-0.200
'0:03.786',-0.790,-0.210
'0:03.789',-0.800,-0.205
'0:03.792',-0.805,-0.220
'0:03.794',-0.810,-0.220
'0:03.797',-0.810,-0.205
'0:03.800',-0.820,-0.210
'0:03.803',-0.835,-0.190
'0:03.806',-0.820,-0.190
'0:03.808',-0.820,-0.185
'0:03.811',-0.810,-0.170
'0:03.814',-0.830,-0.180
'0:03.817',-0.840,-0.175
'0:03.819',-0.835,-0.170
'0:03.822',-0.840,-0.190
'0:03.825',-0.860,-0.185
'0:03.828',-0.870,-0.180
'0:03.831',-0.865,-0.170
'0:03.833',-0.875,-0.165
'0:03.836',-0.870,-0.145
'0:03.839',-0.875,-0.145
'0:03.842',-0.875,-0.125
'0:03.844',-0.880,-0.125
'0:03.847',-0.870,-0.120
'0:03.850',-0.875,-0.110
'0:03.853',-0.865,-0.105
'0:03.856',-0.895,-0.105
'0:03.858',-0.890,-0.100
'0:03.861',-0.885,-0.115
'0:03.864',-0.885,-0.105
'0:03.867',-0.860,-0.095
'0:03.869',-0.865,-0.075
'0:03.872',-0.850,-0.070
'0:03.875',-0.830,-0.065
'0:03.878',-0.810,-0.060
'0:03.881',-0.805,-0.075
'0:03.883',-0.790,-0.070
'0:03.886',-0.770,-0.075
'0:03.889',-0.760,-0.075
'0:03.892',-0.760,-0.090
'0:03.894',-0.745,-0.085
'0:03.897',-0.725,-0.095
'0:03.900',-0.720,-0.095
'0:03.903',-0.690,-0.105
'0:03.906',-0.670,-0.085
'0:03.908',-0.645,-0.080
'0:03.911',-0.630,-0.090
'0:03.914',-0.630,-0.125
'0:03.917',-0.620,-0.120
'0:03.919',-0.615,-0.135
'0:03.922',-0.635,-0.155
'0:03.925',-0.620,-0.160
'0:03.928',-0.615,-0.170
'0:03.931',-0.620,-0.175
'0:03.933',-0.615,-0.180
'0:03.936',-0.610,-0.185
'0:03.939',-0.595,-0.175
'0:03.942',-0.575,-0.170
'0:03.944',-0.570,-0.175
'0:03.947',-0.560,-0.175
'0:03.950',-0.560,-0.205
'0:03.953',-0.580,-0.205
'0:03.956',-0.585,-0.210
'0:03.958',-0.585,-0.225
'0:03.961',-0.600,-0.225
'0:03.964',-0.595,-0.225
'0:03.967',-0.600,-0.225
'0:03.969',-0.605,-0.215
'0:03.972',-0.585,-0.210
'0:03.975',-0.580,-0.200
'0:03.978',-0.570,-0.205
'0:03.981',-0.575,-0.220
'0:03.983',-0.580,-0.210
'0:03.986',-0.590,-0.220
'0:03.989',-0.610,-0.235
'0:03.992',-0.615,-0.240
'0:03.994',-0.630,-0.250
'0:03.997',-0.620,-0.250
'0:04.000',-0.620,-0.230
'0:04.003',-0.610,-0.235
'0:04.006',-0.615,-0.225
'0:04.008',-0.610,-0.220
'0:04.011',-0.600,-0.220
'0:04.014',-0.600,-0.220
'0:04.017',-0.610,-0.235
'0:04.019',-0.610,-0.240
'0:04.022',-0.615,-0.240
'0:04.025',-0.620,-0.240
'0:04.028',-0.630,-0.245
'0:04.031',-0.630,-0.240
'0:04.033',-0.640,-0.235
'0:04.036',-0.650,-0.230
'0:04.039',-0.635,-0.235
'0:04.042',-0.630,-0.225
'0:04.044',-0.630,-0.220
'0:04.047',-0.625,-0.230
'0:04.050',-0.635,-0.240
'0:04.053',-0.630,-0.245
'0:04.056',-0.640,-0.245
'0:04.058',-0.640,-0.240
'0:04.061',-0.640,-0.255
'0:04.064',-0.645,-0.250
'0:04.067',-0.655,-0.245
'0:04.069',-0.650,-0.240
'0:04.072',-0.645,-0.225
'0:04.075',-0.620,-0.230
'0:04.078',-0.630,-0.215
'0:04.081',-0.625,-0.225
'0:04.083',-0.620,-0.235
'0:04.086',-0.625,-0.245
'0:04.089',-0.625,-0.250
'0:04.092',-0.630,-0.245
'0:04.094',-0.625,-0.250
'0:04.097',-0.625,-0.245
'0:04.100',-0.620,-0.240
'0:04.103',-0.615,-0.250
'0:04.106',-0.600,-0.235
'0:04.108',-0.605,-0.240
'0:04.111',-0.590,-0.230
'0:04.114',-0.595,-0.225
'0:04.117',-0.600,-0.240
'0:04.119',-0.595,-0.250
'0:04.122',-0.590,-0.250
'0:04.125',-0.605,-0.255
'0:04.128',-0.600,-0.270
'0:04.131',-0.610,-0.265
'0:04.133',-0.605,-0.250
'0:04.136',-0.615,-0.250
'0:04.139',-0.610,-0.240
'0:04.142',-0.605,-0.230
'0:04.144',-0.575,-0.235
'0:04.147',-0.570,-0.240
'0:04.150',-0.580,-0.245
'0:04.153',-0.590,-0.240
'0:04.156',-0.585,-0.255
'0:04.158',-0.585,-0.265
'0:04.161',-0.575,-0.270
'0:04.164',-0.575,-0.270
'0:04.167',-0.565,-0.255
'0:04.169',-0.555,-0.255
'0:04.172',-0.550,-0.250
'0:04.175',-0.540,-0.245
'0:04.178',-0.525,-0.240
'0:04.181',-0.540,-0.245
'0:04.183',-0.535,-0.255
'0:04.186',-0.530,-0.250
'0:04.189',-0.535,-0.265
'0:04.192',-0.530,-0.260
'0:04.194',-0.530,-0.265
'0:04.197',-0.535,-0.245
'0:04.200',-0.520,-0.240
'0:04.203',-0.515,-0.240
'0:04.206',-0.495,-0.230
'0:04.208',-0.490,-0.235
'0:04.211',-0.460,-0.235
'0:04.214',-0.440,-0.250
'0:04.217',-0.430,-0.265
'0:04.219',-0.440,-0.285
'0:04.222',-0.440,-0.315
'0:04.225',-0.445,-0.325
'0:04.228',-0.450,-0.360
'0:04.231',-0.475,-0.360
'0:04.233',-0.470,-0.365
'0:04.236',-0.495,-0.345
'0:04.239',-0.490,-0.335
'0:04.242',-0.490,-0.320
'0:04.244',-0.510,-0.300
'0:04.247',-0.525,-0.295
'0:04.250',-0.550,-0.300
'0:04.253',-0.560,-0.290
'0:04.256',-0.580,-0.300
'0:04.258',-0.600,-0.310
'0:04.261',-0.615,-0.300
'0:04.264',-0.635,-0.285
'0:04.267',-0.635,-0.290
'0:04.269',-0.645,-0.270
'0:04.272',-0.640,-0.270
'0:04.275',-0.620,-0.270
'0:04.278',-0.615,-0.260
'0:04.281',-0.615,-0.270
'0:04.283',-0.615,-0.280
'0:04.286',-0.615,-0.290
'0:04.289',-0.610,-0.300
'0:04.292',-0.625,-0.305
'0:04.294',-0.635,-0.310
'0:04.297',-0.630,-0.295
'0:04.300',-0.635,-0.300
'0:04.303',-0.630,-0.295
'0:04.306',-0.620,-0.285
'0:04.308',-0.615,-0.285
'0:04.311',-0.595,-0.275
'0:04.314',-0.590,-0.285
'0:04.317',-0.585,-0.290
'0:04.319',-0.575,-0.305
'0:04.322',-0.570,-0.310
'0:04.325',-0.555,-0.315
'0:04.328',-0.535,-0.325
'0:04.331',-0.500,-0.315
'0:04.333',-0.455,-0.310
'0:04.336',-0.380,-0.295
'0:04.339',-0.280,-0.295
'0:04.342',-0.185,-0.275
'0:04.344',-0.050,-0.270
'0:04.347',0.085,-0.275
'0:04.350',0.235,-0.305
'0:04.353',0.410,-0.315
'0:04.356',0.580,-0.360
'0:04.358',0.740,-0.425
'0:04.361',0.890,-0.500
'0:04.364',1.015,-0.585
'0:04.367',1.100,-0.695
'0:04.369',1.195,-0.780
'0:04.372',1.260,-0.875
'0:04.375',1.350,-0.940
'0:04.378',1.380,-1.040
'0:04.381',1.310,-1.145
'0:04.383',1.140,-1.230
'0:04.386',0.850,-1.330
'0:04.389',0.485,-1.400
'0:04.392',0.100,-1.410
'0:04.394',-0.245,-1.420
'0:04.397',-0.525,-1.385
'0:04.400',-0.705,-1.315
'0:04.403',-0.805,-1.205
'0:04.406',-0.825,-1.105
'0:04.408',-0.815,-0.990
'0:04.411',-0.785,-0.900
'0:04.414',-0.770,-0.835
'0:04.417',-0.755,-0.760
'0:04.419',-0.740,-0.710
'0:04.422',-0.730,-0.640
'0:04.425',-0.725,-0.575
'0:04.428',-0.725,-0.510
'0:04.431',-0.720,-0.425
'0:04.433',-0.715,-0.385
'0:04.436',-0.715,-0.330
'0:04.439',-0.725,-0.320
'0:04.442',-0.715,-0.305
'0:04.444',-0.715,-0.300
'0:04.447',-0.715,-0.305
'0:04.450',-0.725,-0.305
'0:04.453',-0.740,-0.305
'0:04.456',-0.745,-0.305
'0:04.458',-0.750,-0.310
'0:04.461',-0.765,-0.315
'0:04.464',-0.775,-0.300
'0:04.467',-0.775,-0.310
'0:04.469',-0.765,-0.295
'0:04.472',-0.770,-0.285
'0:04.475',-0.765,-0.285
'0:04.478',-0.760,-0.270
'0:04.481',-0.760,-0.265
'0:04.483',-0.765,-0.275
'0:04.486',-0.770,-0.275
'0:04.489',-0.785,-0.295
'0:04.492',-0.780,-0.295
'0:04.494',-0.790,-0.300
'0:04.497',-0.790,-0.300
'0:04.500',-0.800,-0.285
'0:04.503',-0.795,-0.280
'0:04.506',-0.785,-0.275
'0:04.508',-0.790,-0.265
'0:04.511',-0.770,-0.255
'0:04.514',-0.785,-0.275
'0:04.517',-0.795,-0.270
'0:04.519',-0.800,-0.280
'0:04.522',-0.815,-0.285
'0:04.525',-0.805,-0.285
'0:04.528',-0.825,-0.290
'0:04.531',-0.825,-0.290
'0:04.533',-0.830,-0.285
'0:04.536',-0.825,-0.265
'0:04.539',-0.815,-0.255
'0:04.542',-0.825,-0.255
'0:04.544',-0.815,-0.255
'0:04.547',-0.835,-0.250
'0:04.550',-0.835,-0.255
'0:04.553',-0.835,-0.260
'0:04.556',-0.835,-0.270
'0:04.558',-0.845,-0.270
'0:04.561',-0.855,-0.275
'0:04.564',-0.865,-0.270
'0:04.567',-0.870,-0.265
'0:04.569',-0.865,-0.260
'0:04.572',-0.860,-0.245
'0:04.575',-0.860,-0.230
'0:04.578',-0.865,-0.230
'0:04.581',-0.865,-0.230
'0:04.583',-0.880,-0.230
'0:04.586',-0.875,-0.245
'0:04.589',-0.880,-0.245
'0:04.592',-0.905,-0.255
'0:04.594',-0.905,-0.245
'0:04.597',-0.915,-0.245
'0:04.600',-0.915,-0.230
'0:04.603',-0.915,-0.220
'0:04.606',-0.915,-0.210
'0:04.608',-0.910,-0.200
'0:04.611',-0.900,-0.180
'0:04.614',-0.885,-0.195
'0:04.617',-0.885,-0.195
'0:04.619',-0.890,-0.200
'0:04.622',-0.900,-0.200
'0:04.625',-0.885,-0.195
'0:04.628',-0.890,-0.195
'0:04.631',-0.890,-0.185
'0:04.633',-0.880,-0.180
'0:04.636',-0.875,-0.175
'0:04.639',-0.845,-0.175
'0:04.642',-0.845,-0.155
'0:04.644',-0.840,-0.165
'0:04.647',-0.815,-0.170
'0:04.650',-0.820,-0.170
'0:04.653',-0.805,-0.185
'0:04.656',-0.790,-0.185
'0:04.658',-0.770,-0.190
'0:04.661',-0.750,-0.200
'0:04.664',-0.740,-0.205
'0:04.667',-0.700,-0.205
'0:04.669',-0.690,-0.205
'0:04.672',-0.670,-0.210
'0:04.675',-0.650,-0.210
'0:04.678',-0.625,-0.210
'0:04.681',-0.615,-0.225
'0:04.683',-0.610,-0.240
'0:04.686',-0.600,-0.255
'0:04.689',-0.595,-0.275
'0:04.692',-0.600,-0.285
'0:04.694',-0.605,-0.285
'0:04.697',-0.600,-0.285
'0:04.700',-0.595,-0.290
'0:04.703',-0.590,-0.290
'0:04.706',-0.580,-0.290
'0:04.708',-0.580,-0.290
'0:04.711',-0.565,-0.285
'0:04.714',-0.570,-0.300
'0:04.717',-0.565,-0.310
'0:04.719',-0.560,-0.310
'0:04.722',-0.575,-0.330
'0:04.725',-0.565,-0.345
'0:04.728',-0.575,-0.350
'0:04.731',-0.575,-0.340
'0:04.733',-0.570,-0.340
'0:04.736',-0.565,-0.335
'0:04.739',-0.575,-0.340
'0:04.742',-0.565,-0.330
'0:04.744',-0.550,-0.335
'0:04.747',-0.560,-0.340
'0:04.750',-0.560,-0.345
'0:04.753',-0.560,-0.355
'0:04.756',-0.570,-0.370
'0:04.758',-0.565,-0.370
'0:04.761',-0.575,-0.370
'0:04.764',-0.580,-0.360
'0:04.767',-0.580,-0.365
'0:04.769',-0.580,-0.360
'0:04.772',-0.570,-0.365
'0:04.775',-0.555,-0.360
'0:04.778',-0.575,-0.345
'0:04.781',-0.575,-0.365
'0:04.783',-0.580,-0.370
'0:04.786',-0.595,-0.375
'0:04.789',-0.595,-0.385
'0:04.792',-0.590,-0.395
'0:04.794',-0.610,-0.390
'0:04.797',-0.610,-0.390
'0:04.800',-0.610,-0.380
'0:04.803',-0.595,-0.370
'0:04.806',-0.590,-0.365
'0:04.808',-0.585,-0.360
'0:04.811',-0.580,-0.360
'0:04.814',-0.590,-0.375
'0:04.817',-0.580,-0.370
'0:04.819',-0.590,-0.380
'0:04.822',-0.590,-0.385
'0:04.825',-0.600,-0.385
'0:04.828',-0.600,-0.385
'0:04.831',-0.610,-0.385
'0:04.833',-0.605,-0.390
'0:04.836',-0.605,-0.370
'0:04.839',-0.590,-0.370
'0:04.842',-0.580,-0.360
'0:04.844',-0.570,-0.365
'0:04.847',-0.570,-0.370
'0:04.850',-0.570,-0.360
'0:04.853',-0.585,-0.375
'0:04.856',-0.570,-0.380
'0:04.858',-0.580,-0.385
'0:04.861',-0.575,-0.395
'0:04.864',-0.585,-0.395
'0:04.867',-0.580,-0.390
'0:04.869',-0.575,-0.375
'0:04.872',-0.565,-0.385
'0:04.875',-0.560,-0.360
'0:04.878',-0.560,-0.360
'0:04.881',-0.545,-0.370
'0:04.883',-0.545,-0.370
'0:04.886',-0.535,-0.390
'0:04.889',-0.550,-0.400
'0:04.892',-0.550,-0.390
'0:04.894',-0.560,-0.410
'0:04.897',-0.555,-0.400
'0:04.900',-0.545,-0.395
'0:04.903',-0.555,-0.390
'0:04.906',-0.540,-0.385
'0:04.908',-0.535,-0.380
'0:04.911',-0.520,-0.370
'0:04.914',-0.505,-0.380
'0:04.917',-0.520,-0.385
'0:04.919',-0.515,-0.395
'0:04.922',-0.520,-0.410
'0:04.925',-0.515,-0.410
'0:04.928',-0.520,-0.420
'0:04.931',-0.525,-0.410
'0:04.933',-0.510,-0.405
'0:04.936',-0.510,-0.405
'0:04.939',-0.495,-0.390
'0:04.942',-0.480,-0.390
'0:04.944',-0.465,-0.380
'0:04.947',-0.460,-0.390
'0:04.950',-0.455,-0.390
'0:04.953',-0.450,-0.395
'0:04.956',-0.460,-0.395
'0:04.958',-0.465,-0.395
'0:04.961',-0.465,-0.405
'0:04.964',-0.460,-0.390
'0:04.967',-0.445,-0.385
'0:04.969',-0.435,-0.385
'0:04.972',-0.415,-0.375
'0:04.975',-0.405,-0.375
'0:04.978',-0.380,-0.375
'0:04.981',-0.365,-0.385
'0:04.983',-0.355,-0.390
'0:04.986',-0.355,-0.420
'0:04.989',-0.360,-0.425
'0:04.992',-0.370,-0.445
'0:04.994',-0.370,-0.475
'0:04.997',-0.385,-0.480
'0:05.000',-0.400,-0.480
'0:05.003',-0.405,-0.485
'0:05.006',-0.410,-0.480
'0:05.008',-0.405,-0.455
'0:05.011',-0.405,-0.455
'0:05.014',-0.410,-0.445
'0:05.017',-0.415,-0.445
'0:05.019',-0.445,-0.445
'0:05.022',-0.465,-0.450
'0:05.025',-0.485,-0.450
'0:05.028',-0.490,-0.440
'0:05.031',-0.505,-0.440
'0:05.033',-0.510,-0.440
'0:05.036',-0.515,-0.425
'0:05.039',-0.530,-0.405
'0:05.042',-0.520,-0.410
'0:05.044',-0.525,-0.400
'0:05.047',-0.540,-0.400
'0:05.050',-0.555,-0.405
'0:05.053',-0.555,-0.415
'0:05.056',-0.560,-0.410
'0:05.058',-0.560,-0.425
'0:05.061',-0.555,-0.435
'0:05.064',-0.565,-0.425
'0:05.067',-0.555,-0.415
'0:05.069',-0.555,-0.425
'0:05.072',-0.555,-0.410
'0:05.075',-0.535,-0.400
'0:05.078',-0.540,-0.400
'0:05.081',-0.535,-0.410
'0:05.083',-0.515,-0.410
'0:05.086',-0.515,-0.420
'0:05.089',-0.520,-0.435
'0:05.092',-0.520,-0.440
'0:05.094',-0.505,-0.445
'0:05.097',-0.505,-0.445
'0:05.100',-0.490,-0.445
'0:05.103',-0.475,-0.430
'0:05.106',-0.445,-0.420
'0:05.108',-0.425,-0.410
'0:05.111',-0.370,-0.405
'0:05.114',-0.320,-0.425
'0:05.117',-0.255,-0.430
'0:05.119',-0.175,-0.435
'0:05.122',-0.085,-0.450
'0:05.125',0.025,-0.450
'0:05.128',0.145,-0.460
'0:05.131',0.290,-0.475
'0:05.133',0.470,-0.495
'0:05.136',0.680,-0.530
'0:05.139',0.860,-0.575
'0:05.142',1.040,-0.675
'0:05.144',1.185,-0.775
'0:05.147',1.320,-0.885
'0:05.150',1.420,-0.990
'0:05.153',1.525,-1.105
'0:05.156',1.615,-1.215
'0:05.158',1.635,-1.320
'0:05.161',1.570,-1.420
'0:05.164',1.345,-1.520
'0:05.167',1.020,-1.590
'0:05.169',0.610,-1.625
'0:05.172',0.215,-1.635
'0:05.175',-0.150,-1.590
'0:05.178',-0.415,-1.510
'0:05.181',-0.575,-1.420
'0:05.183',-0.650,-1.310
'0:05.186',-0.660,-1.195
'0:05.189',-0.660,-1.095
'0:05.192',-0.655,-1.025
'0:05.194',-0.655,-0.960
'0:05.197',-0.660,-0.895
'0:05.200',-0.635,-0.830
'0:05.203',-0.630,-0.765
'0:05.206',-0.620,-0.690
'0:05.208',-0.605,-0.620
'0:05.211',-0.600,-0.560
'0:05.214',-0.600,-0.495
'0:05.217',-0.605,-0.460
'0:05.219',-0.615,-0.455
'0:05.222',-0.625,-0.445
'0:05.225',-0.640,-0.465
'0:05.228',-0.650,-0.450
'0:05.231',-0.660,-0.440
'0:05.233',-0.665,-0.435
'0:05.236',-0.655,-0.420
'0:05.239',-0.670,-0.410
'0:05.242',-0.650,-0.400
'0:05.244',-0.645,-0.380
'0:05.247',-0.650,-0.385
'0:05.250',-0.660,-0.400
'0:05.253',-0.660,-0.390
'0:05.256',-0.670,-0.405
'0:05.258',-0.670,-0.410
'0:05.261',-0.695,-0.410
'0:05.264',-0.685,-0.400
'0:05.267',-0.690,-0.390
'0:05.269',-0.700,-0.395
'0:05.272',-0.705,-0.390
'0:05.275',-0.690,-0.380
'0:05.278',-0.685,-0.355
'0:05.281',-0.680,-0.370
'0:05.283',-0.680,-0.375
'0:05.286',-0.685,-0.385
'0:05.289',-0.695,-0.380
'0:05.292',-0.705,-0.395
'0:05.294',-0.720,-0.395
'0:05.297',-0.725,-0.385
'0:05.300',-0.735,-0.380
'0:05.303',-0.730,-0.370
'0:05.306',-0.730,-0.370
'0:05.308',-0.735,-0.360
'0:05.311',-0.730,-0.355
'0:05.314',-0.720,-0.355
'0:05.317',-0.725,-0.345
'0:05.319',-0.730,-0.365
'0:05.322',-0.740,-0.370
'0:05.325',-0.745,-0.365
'0:05.328',-0.760,-0.370
'0:05.331',-0.780,-0.360
'0:05.333',-0.785,-0.355
'0:05.336',-0.790,-0.350
'0:05.339',-0.785,-0.350
'0:05.342',-0.775,-0.330
'0:05.344',-0.770,-0.325
'0:05.347',-0.765,-0.320
'0:05.350',-0.780,-0.325
'0:05.353',-0.780,-0.325
'0:05.356',-0.795,-0.320
'0:05.358',-0.800,-0.335
'0:05.361',-0.815,-0.330
'0:05.364',-0.825,-0.335
'0:05.367',-0.825,-0.325
'0:05.369',-0.835,-0.320
'0:05.372',-0.830,-0.290
'0:05.375',-0.830,-0.290
'0:05.378',-0.830,-0.265
'0:05.381',-0.825,-0.270
'0:05.383',-0.840,-0.270
'0:05.386',-0.835,-0.275
'0:05.389',-0.845,-0.285
'0:05.392',-0.830,-0.270
'0:05.394',-0.850,-0.270
'0:05.397',-0.850,-0.260
'0:05.400',-0.840,-0.255
'0:05.403',-0.840,-0.245
'0:05.406',-0.830,-0.230
'0:05.408',-0.815,-0.220
'0:05.411',-0.805,-0.215
'0:05.414',-0.805,-0.215
'0:05.417',-0.785,-0.205
'0:05.419',-0.785,-0.215
'0:05.422',-0.775,-0.235
'0:05.425',-0.770,-0.230
'0:05.428',-0.765,-0.240
'0:05.431',-0.765,-0.235
'0:05.433',-0.750,-0.220
'0:05.436',-0.730,-0.230
'0:05.439',-0.710,-0.225
'0:05.442',-0.680,-0.230
'0:05.444',-0.655,-0.225
'0:05.447',-0.645,-0.225
'0:05.450',-0.625,-0.250
'0:05.453',-0.625,-0.255
'0:05.456',-0.620,-0.265
'0:05.458',-0.625,-0.270
'0:05.461',-0.610,-0.290
'0:05.464',-0.605,-0.300
'0:05.467',-0.580,-0.310
'0:05.469',-0.590,-0.300
'0:05.472',-0.560,-0.315
'0:05.475',-0.560,-0.325
'0:05.478',-0.555,-0.320
'0:05.481',-0.545,-0.330
'0:05.483',-0.545,-0.340
'0:05.486',-0.540,-0.355
'0:05.489',-0.535,-0.370
'0:05.492',-0.540,-0.370
'0:05.494',-0.545,-0.385
'0:05.497',-0.550,-0.385
'0:05.500',-0.545,-0.390
'0:05.503',-0.540,-0.380
'0:05.506',-0.535,-0.385
'0:05.508',-0.540,-0.375
'0:05.511',-0.520,-0.375
'0:05.514',-0.515,-0.385
'0:05.517',-0.530,-0.375
'0:05.519',-0.540,-0.395
'0:05.522',-0.550,-0.405
'0:05.525',-0.560,-0.405
'0:05.528',-0.550,-0.410
'0:05.531',-0.560,-0.405
'0:05.533',-0.560,-0.400
'0:05.536',-0.565,-0.395
'0:05.539',-0.545,-0.400
'0:05.542',-0.550,-0.400
'0:05.544',-0.550,-0.390
'0:05.547',-0.550,-0.400
'0:05.550',-0.555,-0.390
'0:05.553',-0.565,-0.405
'0:05.556',-0.565,-0.415
'0:05.558',-0.575,-0.420
'0:05.561',-0.585,-0.415
'0:05.564',-0.585,-0.410
'0:05.567',-0.585,-0.415
'0:05.569',-0.590,-0.410
'0:05.572',-0.585,-0.395
'0:05.575',-0.580,-0.395
'0:05.578',-0.585,-0.385
'0:05.581',-0.580,-0.385
'0:05.583',-0.600,-0.395
'0:05.586',-0.580,-0.405
'0:05.589',-0.590,-0.390
'0:05.592',-0.585,-0.415
'0:05.594',-0.600,-0.410
'0:05.597',-0.600,-0.400
'0:05.600',-0.605,-0.405
'0:05.603',-0.600,-0.400
'0:05.606',-0.595,-0.395
'0:05.608',-0.595,-0.395
'0:05.611',-0.585,-0.385
'0:05.614',-0.585,-0.385
'0:05.617',-0.575,-0.390
'0:05.619',-0.575,-0.395
'0:05.622',-0.595,-0.405
'0:05.625',-0.585,-0.410
'0:05.628',-0.600,-0.405
'0:05.631',-0.605,-0.405
'0:05.633',-0.600,-0.415
'0:05.636',-0.585,-0.405
'0:05.639',-0.580,-0.400
'0:05.642',-0.570,-0.385
'0:05.644',-0.575,-0.375
'0:05.647',-0.565,-0.385
'0:05.650',-0.570,-0.385
'0:05.653',-0.570,-0.405
'0:05.656',-0.580,-0.405
'0:05.658',-0.575,-0.410
'0:05.661',-0.575,-0.415
'0:05.664',-0.580,-0.410
'0:05.667',-0.570,-0.405
'0:05.669',-0.565,-0.395
'0:05.672',-0.560,-0.395
'0:05.675',-0.560,-0.385
'0:05.678',-0.560,-0.385
'0:05.681',-0.540,-0.395
'0:05.683',-0.540,-0.405
'0:05.686',-0.530,-0.395
'0:05.689',-0.540,-0.405
'0:05.692',-0.520,-0.400
'0:05.694',-0.530,-0.420
'0:05.697',-0.520,-0.425
'0:05.700',-0.520,-0.415
'0:05.703',-0.515,-0.410
'0:05.706',-0.500,-0.385
'0:05.708',-0.500,-0.385
'0:05.711',-0.490,-0.370
'0:05.714',-0.475,-0.370
'0:05.717',-0.475,-0.385
'0:05.719',-0.470,-0.380
'0:05.722',-0.465,-0.385
'0:05.725',-0.470,-0.385
'0:05.728',-0.460,-0.400
'0:05.731',-0.465,-0.395
'0:05.733',-0.455,-0.390
'0:05.736',-0.445,-0.385
'0:05.739',-0.415,-0.385
'0:05.742',-0.405,-0.385
'0:05.744',-0.390,-0.390
'0:05.747',-0.385,-0.410
'0:05.750',-0.375,-0.420
'0:05.753',-0.385,-0.445
'0:05.756',-0.390,-0.460
'0:05.758',-0.405,-0.480
'0:05.761',-0.425,-0.500
'0:05.764',-0.425,-0.495
'0:05.767',-0.445,-0.485
'0:05.769',-0.450,-0.480
'0:05.772',-0.460,-0.455
'0:05.775',-0.470,-0.425
'0:05.778',-0.465,-0.430
'0:05.781',-0.475,-0.420
'0:05.783',-0.495,-0.430
'0:05.786',-0.515,-0.425
'0:05.789',-0.525,-0.420
'0:05.792',-0.540,-0.435
'0:05.794',-0.560,-0.435
'0:05.797',-0.575,-0.440
'0:05.800',-0.600,-0.420
'0:05.803',-0.595,-0.415
'0:05.806',-0.590,-0.405
'0:05.808',-0.585,-0.410
'0:05.811',-0.580,-0.395
'0:05.814',-0.575,-0.400
'0:05.817',-0.575,-0.415
'0:05.819',-0.585,-0.420
'0:05.822',-0.585,-0.425
'0:05.825',-0.600,-0.430
'0:05.828',-0.605,-0.445
'0:05.831',-0.610,-0.435
'0:05.833',-0.605,-0.430
'0:05.836',-0.610,-0.420
'0:05.839',-0.595,-0.415
'0:05.842',-0.585,-0.410
'0:05.844',-0.575,-0.405
'0:05.847',-0.545,-0.415
'0:05.850',-0.540,-0.415
'0:05.853',-0.530,-0.420
'0:05.856',-0.555,-0.435
'0:05.858',-0.530,-0.440
'0:05.861',-0.530,-0.460
'0:05.864',-0.505,-0.450
'0:05.867',-0.480,-0.445
'0:05.869',-0.425,-0.440
'0:05.872',-0.340,-0.440
'0:05.875',-0.250,-0.430
'0:05.878',-0.130,-0.435
'0:05.881',0.025,-0.435
'0:05.883',0.205,-0.455
'0:05.886',0.420,-0.495
'0:05.889',0.625,-0.570
'0:05.892',0.830,-0.665
'0:05.894',1.015,-0.775
'0:05.897',1.170,-0.895
'0:05.900',1.280,-1.030
'0:05.903',1.370,-1.145
'0:05.906',1.440,-1.250
'0:05.908',1.435,-1.355
'0:05.911',1.300,-1.465
'0:05.914',1.065,-1.560
'0:05.917',0.715,-1.630
'0:05.919',0.330,-1.680
'0:05.922',-0.045,-1.675
'0:05.925',-0.355,-1.615
'0:05.928',-0.585,-1.535
'0:05.931',-0.705,-1.420
'0:05.933',-0.745,-1.295
'0:05.936',-0.750,-1.185
'0:05.939',-0.720,-1.080
'0:05.942',-0.695,-1.000
'0:05.944',-0.700,-0.930
'0:05.947',-0.695,-0.880
'0:05.950',-0.690,-0.820
'0:05.953',-0.685,-0.755
'0:05.956',-0.680,-0.695
'0:05.958',-0.685,-0.620
'0:05.961',-0.690,-0.555
'0:05.964',-0.715,-0.515
'0:05.967',-0.715,-0.465
'0:05.969',-0.710,-0.455
'0:05.972',-0.715,-0.440
'0:05.975',-0.710,-0.435
'0:05.978',-0.725,-0.425
'0:05.981',-0.700,-0.420
'0:05.983',-0.710,-0.420
'0:05.986',-0.715,-0.405
'0:05.989',-0.720,-0.415
'0:05.992',-0.725,-0.425
'0:05.994',-0.730,-0.420
'0:05.997',-0.740,-0.415
'0:06.000',-0.745,-0.420
'0:06.003',-0.755,-0.410
'0:06.006',-0.755,-0.395
'0:06.008',-0.760,-0.390
'0:06.011',-0.745,-0.380
'0:06.014',-0.735,-0.385
'0:06.017',-0.740,-0.390
'0:06.019',-0.740,-0.405
'0:06.022',-0.755,-0.400
'0:06.025',-0.765,-0.405
'0:06.028',-0.770,-0.400
'0:06.031',-0.780,-0.395
'0:06.033',-0.770,-0.390
'0:06.036',-0.780,-0.390
'0:06.039',-0.775,-0.360
'0:06.042',-0.780,-0.370
'0:06.044',-0.765,-0.365
'0:06.047',-0.775,-0.365
'0:06.050',-0.785,-0.375
'0:06.053',-0.780,-0.375
'0:06.056',-0.780,-0.375
'0:06.058',-0.795,-0.385
'0:06.061',-0.800,-0.390
'0:06.064',-0.820,-0.380
'0:06.067',-0.810,-0.375
'0:06.069',-0.810,-0.370
'0:06.072',-0.805,-0.360
'0:06.075',-0.810,-0.345
'0:06.078',-0.805,-0.340
'0:06.081',-0.810,-0.330
'0:06.083',-0.810,-0.350
'0:06.086',-0.825,-0.345
'0:06.089',-0.825,-0.360
'0:06.092',-0.845,-0.350
'0:06.094',-0.855,-0.370
'0:06.097',-0.855,-0.355
'0:06.100',-0.860,-0.345
'0:06.103',-0.875,-0.335
'0:06.106',-0.870,-0.335
'0:06.108',-0.870,-0.320
'0:06.111',-0.870,-0.305
'0:06.114',-0.875,-0.300
'0:06.117',-0.880,-0.295
'0:06.119',-0.875,-0.310
'0:06.122',-0.895,-0.300
'0:06.125',-0.895,-0.305
'0:06.128',-0.910,-0.300
'0:06.131',-0.915,-0.285
'0:06.133',-0.915,-0.295
'0:06.136',-0.930,-0.275
'0:06.139',-0.915,-0.265
'0:06.142',-0.915,-0.250
'0:06.144',-0.905,-0.240
'0:06.147',-0.895,-0.240
'0:06.150',-0.900,-0.225
'0:06.153',-0.900,-0.235
'0:06.156',-0.895,-0.230
'0:06.158',-0.905,-0.240
'0:06.161',-0.900,-0.235
'0:06.164',-0.920,-0.230
'0:06.167',-0.905,-0.225
'0:06.169',-0.890,-0.220
'0:06.172',-0.870,-0.210
'0:06.175',-0.860,-0.190
'0:06.178',-0.840,-0.190
'0:06.181',-0.830,-0.190
'0:06.183',-0.815,-0.200
'0:06.186',-0.810,-0.210
'0:06.189',-0.800,-0.220
'0:06.192',-0.785,-0.220
'0:06.194',-0.770,-0.235
'0:06.197',-0.760,-0.240
'0:06.200',-0.750,-0.250
'0:06.203',-0.725,-0.235
'0:06.206',-0.715,-0.245
'0:06.208',-0.690,-0.235
'0:06.211',-0.670,-0.240
'0:06.214',-0.655,-0.260
'0:06.217',-0.655,-0.255
'0:06.219',-0.650,-0.285
'0:06.222',-0.640,-0.300
'0:06.225',-0.650,-0.305
'0:06.228',-0.655,-0.320
'0:06.231',-0.660,-0.335
'0:06.233',-0.650,-0.330
'0:06.236',-0.640,-0.325
'0:06.239',-0.640,-0.320
'0:06.242',-0.625,-0.325
'0:06.244',-0.615,-0.325
'0:06.247',-0.610,-0.325
'0:06.250',-0.620,-0.335
'0:06.253',-0.625,-0.345
'0:06.256',-0.630,-0.370
'0:06.258',-0.630,-0.370
'0:06.261',-0.630,-0.395
'0:06.264',-0.630,-0.395
'0:06.267',-0.640,-0.380
'0:06.269',-0.645,-0.385
'0:06.272',-0.645,-0.380
'0:06.275',-0.610,-0.370
'0:06.278',-0.620,-0.370
'0:06.281',-0.610,-0.380
'0:06.283',-0.610,-0.370
'0:06.286',-0.620,-0.390
'0:06.289',-0.635,-0.410
'0:06.292',-0.635,-0.405
'0:06.294',-0.645,-0.420
'0:06.297',-0.650,-0.420
'0:06.300',-0.640,-0.410
'0:06.303',-0.650,-0.395
'0:06.306',-0.635,-0.400
'0:06.308',-0.650,-0.390
'0:06.311',-0.645,-0.370
'0:06.314',-0.640,-0.385
'0:06.317',-0.655,-0.390
'0:06.319',-0.665,-0.390
'0:06.322',-0.665,-0.400
'0:06.325',-0.670,-0.410
'0:06.328',-0.670,-0.410
'0:06.331',-0.675,-0.405
'0:06.333',-0.670,-0.405
'0:06.336',-0.680,-0.395
'0:06.339',-0.665,-0.385
'0:06.342',-0.655,-0.380
'0:06.344',-0.655,-0.370
'0:06.347',-0.655,-0.370
'0:06.350',-0.655,-0.385
'0:06.353',-0.655,-0.390
'0:06.356',-0.660,-0.385
'0:06.358',-0.680,-0.385
'0:06.361',-0.670,-0.395
'0:06.364',-0.680,-0.385
'0:06.367',-0.680,-0.390
'0:06.369',-0.670,-0.380
'0:06.372',-0.665,-0.380
'0:06.375',-0.660,-0.365
'0:06.378',-0.660,-0.365
'0:06.381',-0.640,-0.360
'0:06.383',-0.650,-0.380
'0:06.386',-0.645,-0.375
'0:06.389',-0.645,-0.395
'0:06.392',-0.645,-0.385
'0:06.394',-0.650,-0.405
'0:06.397',-0.645,-0.390
'0:06.400',-0.640,-0.395
'0:06.403',-0.635,-0.380
'0:06.406',-0.635,-0.385
'0:06.408',-0.640,-0.370
'0:06.411',-0.620,-0.365
'0:06.414',-0.600,-0.370
'0:06.417',-0.600,-0.380
'0:06.419',-0.595,-0.385
'0:06.422',-0.595,-0.380
'0:06.425',-0.605,-0.390
'0:06.428',-0.600,-0.400
'0:06.431',-0.595,-0.390
'0:06.433',-0.590,-0.385
'0:06.436',-0.595,-0.385
'0:06.439',-0.580,-0.375
'0:06.442',-0.575,-0.360
'0:06.444',-0.555,-0.360
'0:06.447',-0.555,-0.350
'0:06.450',-0.545,-0.350
'0:06.453',-0.530,-0.370
'0:06.456',-0.540,-0.360
'0:06.458',-0.525,-0.370
'0:06.461',-0.520,-0.360
'0:06.464',-0.520,-0.360
'0:06.467',-0.500,-0.365
'0:06.469',-0.490,-0.360
'0:06.472',-0.465,-0.360
'0:06.475',-0.455,-0.370
'0:06.478',-0.440,-0.370
'0:06.481',-0.430,-0.385
'0:06.483',-0.445,-0.400
'0:06.486',-0.445,-0.425
'0:06.489',-0.470,-0.455
'0:06.492',-0.475,-0.455
'0:06.494',-0.505,-0.465
'0:06.497',-0.525,-0.465
'0:06.500',-0.535,-0.440
'0:06.503',-0.550,-0.415
'0:06.506',-0.550,-0.400
'0:06.508',-0.560,-0.390
'0:06.511',-0.570,-0.375
'0:06.514',-0.575,-0.385
'0:06.517',-0.605,-0.385
'0:06.519',-0.610,-0.385
'0:06.522',-0.630,-0.380
'0:06.525',-0.635,-0.390
'0:06.528',-0.655,-0.390
'0:06.531',-0.650,-0.385
'0:06.533',-0.650,-0.395
'0:06.536',-0.650,-0.385
'0:06.539',-0.640,-0.375
'0:06.542',-0.635,-0.375
'0:06.544',-0.630,-0.355
'0:06.547',-0.610,-0.365
'0:06.550',-0.630,-0.380
'0:06.553',-0.620,-0.385
'0:06.556',-0.630,-0.385
'0:06.558',-0.610,-0.400
'0:06.561',-0.615,-0.400
'0:06.564',-0.625,-0.400
'0:06.567',-0.605,-0.400
'0:06.569',-0.595,-0.390
'0:06.572',-0.585,-0.375
'0:06.575',-0.570,-0.375
'0:06.578',-0.535,-0.375
'0:06.581',-0.500,-0.380
'0:06.583',-0.455,-0.385
'0:06.586',-0.395,-0.400
'0:06.589',-0.320,-0.405
'0:06.592',-0.220,-0.400
'0:06.594',-0.095,-0.415
'0:06.597',0.040,-0.415
'0:06.600',0.210,-0.440
'0:06.603',0.400,-0.465
'0:06.606',0.625,-0.515
'0:06.608',0.815,-0.575
'0:06.611',0.990,-0.680
'0:06.614',1.120,-0.795
'0:06.617',1.215,-0.940
'0:06.619',1.285,-1.050
'0:06.622',1.345,-1.170
'0:06.625',1.330,-1.290
'0:06.628',1.215,-1.410
'0:06.631',1.035,-1.515
'0:06.633',0.740,-1.585
'0:06.636',0.395,-1.635
'0:06.639',0.050,-1.635
'0:06.642',-0.250,-1.600
'0:06.644',-0.500,-1.535
'0:06.647',-0.640,-1.445
'0:06.650',-0.730,-1.340
'0:06.653',-0.760,-1.230
'0:06.656',-0.755,-1.125
'0:06.658',-0.750,-1.030
'0:06.661',-0.750,-0.950
'0:06.664',-0.755,-0.875
'0:06.667',-0.750,-0.795
'0:06.669',-0.740,-0.725
'0:06.672',-0.725,-0.640
'0:06.675',-0.715,-0.555
'0:06.678',-0.715,-0.485
'0:06.681',-0.705,-0.430
'0:06.683',-0.715,-0.395
'0:06.686',-0.720,-0.380
'0:06.689',-0.750,-0.365
'0:06.692',-0.740,-0.385
'0:06.694',-0.755,-0.370
'0:06.697',-0.765,-0.365
'0:06.700',-0.760,-0.360
'0:06.703',-0.755,-0.355
'0:06.706',-0.760,-0.345
'0:06.708',-0.760,-0.330
'0:06.711',-0.765,-0.325
'0:06.714',-0.745,-0.325
'0:06.717',-0.760,-0.325
'0:06.719',-0.755,-0.320
'0:06.722',-0.770,-0.340
'0:06.725',-0.760,-0.345
'0:06.728',-0.765,-0.340
'0:06.731',-0.770,-0.345
'0:06.733',-0.770,-0.335
'0:06.736',-0.770,-0.325
'0:06.739',-0.775,-0.320
'0:06.742',-0.770,-0.315
'0:06.744',-0.765,-0.310
'0:06.747',-0.765,-0.315
'0:06.750',-0.775,-0.320
'0:06.753',-0.770,-0.315
'0:06.756',-0.790,-0.315
'0:06.758',-0.800,-0.330
'0:06.761',-0.800,-0.330
'0:06.764',-0.805,-0.330
'0:06.767',-0.805,-0.315
'0:06.769',-0.800,-0.310
'0:06.772',-0.800,-0.295
'0:06.775',-0.810,-0.305
'0:06.778',-0.800,-0.300
'0:06.781',-0.800,-0.290
'0:06.783',-0.815,-0.295
'0:06.786',-0.815,-0.305
'0:06.789',-0.820,-0.305
'0:06.792',-0.845,-0.300
'0:06.794',-0.850,-0.325
'0:06.797',-0.845,-0.305
'0:06.800',-0.835,-0.315
'0:06.803',-0.840,-0.290
'0:06.806',-0.840,-0.280
'0:06.808',-0.830,-0.280
'0:06.811',-0.830,-0.270
'0:06.814',-0.830,-0.260
'0:06.817',-0.840,-0.280
'0:06.819',-0.855,-0.270
'0:06.822',-0.860,-0.280
'0:06.825',-0.865,-0.280
'0:06.828',-0.895,-0.270
'0:06.831',-0.905,-0.285
'0:06.833',-0.900,-0.270
'0:06.836',-0.900,-0.260
'0:06.839',-0.900,-0.240
'0:06.842',-0.890,-0.230
'0:06.844',-0.895,-0.220
'0:06.847',-0.890,-0.215
'0:06.850',-0.890,-0.215
'0:06.853',-0.910,-0.225
'0:06.856',-0.920,-0.215
'0:06.858',-0.920,-0.220
'0:06.861',-0.915,-0.225
'0:06.864',-0.920,-0.215
'0:06.867',-0.920,-0.195
'0:06.869',-0.915,-0.185
'0:06.872',-0.900,-0.170
'0:06.875',-0.890,-0.165
'0:06.878',-0.895,-0.155
'0:06.881',-0.870,-0.135
'0:06.883',-0.865,-0.160
'0:06.886',-0.860,-0.145
'0:06.889',-0.870,-0.160
'0:06.892',-0.850,-0.160
'0:06.894',-0.855,-0.170
'0:06.897',-0.835,-0.155
'0:06.900',-0.820,-0.160
'0:06.903',-0.795,-0.155
'0:06.906',-0.770,-0.150
'0:06.908',-0.745,-0.150
'0:06.911',-0.740,-0.150
'0:06.914',-0.700,-0.150
'0:06.917',-0.690,-0.175
'0:06.919',-0.680,-0.180
'0:06.922',-0.680,-0.190
'0:06.925',-0.670,-0.210
'0:06.928',-0.670,-0.215
'0:06.931',-0.660,-0.230
'0:06.933',-0.650,-0.230
'0:06.936',-0.650,-0.230
'0:06.939',-0.630,-0.240
'0:06.942',-0.620,-0.250
'0:06.944',-0.615,-0.235
'0:06.947',-0.600,-0.245
'0:06.950',-0.595,-0.265
'0:06.953',-0.600,-0.265
'0:06.956',-0.600,-0.280
'0:06.958',-0.605,-0.290
'0:06.961',-0.610,-0.295
'0:06.964',-0.615,-0.310
'0:06.967',-0.610,-0.305
'0:06.969',-0.610,-0.300
'0:06.972',-0.615,-0.300
'0:06.975',-0.605,-0.290
'0:06.978',-0.600,-0.290
'0:06.981',-0.600,-0.295
'0:06.983',-0.585,-0.305
'0:06.986',-0.590,-0.320
'0:06.989',-0.590,-0.310
'0:06.992',-0.595,-0.340
'0:06.994',-0.615,-0.340
'0:06.997',-0.620,-0.340
'0:07.000',-0.615,-0.325
'0:07.003',-0.620,-0.320
'0:07.006',-0.605,-0.315
'0:07.008',-0.605,-0.305
'0:07.011',-0.595,-0.315
'0:07.014',-0.595,-0.300
'0:07.017',-0.585,-0.320
'0:07.019',-0.595,-0.305
'0:07.022',-0.605,-0.325
'0:07.025',-0.610,-0.335
'0:07.028',-0.615,-0.330
'0:07.031',-0.630,-0.335
'0:07.033',-0.625,-0.330
'0:07.036',-0.625,-0.315
'0:07.039',-0.625,-0.310
'0:07.042',-0.620,-0.305
'0:07.044',-0.610,-0.300
'0:07.047',-0.615,-0.305
'0:07.050',-0.605,-0.310
'0:07.053',-0.610,-0.310
'0:07.056',-0.620,-0.305
'0:07.058',-0.630,-0.315
'0:07.061',-0.630,-0.315
'0:07.064',-0.625,-0.320
'0:07.067',-0.635,-0.315
'0:07.069',-0.640,-0.300
'0:07.072',-0.630,-0.290
'0:07.075',-0.630,-0.285
'0:07.078',-0.630,-0.280
'0:07.081',-0.630,-0.280
'0:07.083',-0.620,-0.280
'0:07.086',-0.625,-0.290
'0:07.089',-0.630,-0.300
'0:07.092',-0.630,-0.300
'0:07.094',-0.630,-0.310
'0:07.097',-0.635,-0.300
'0:07.100',-0.635,-0.290
'0:07.103',-0.625,-0.290
'0:07.106',-0.620,-0.280
'0:07.108',-0.615,-0.280
'0:07.111',-0.605,-0.270
'0:07.114',-0.595,-0.270
'0:07.117',-0.585,-0.285
'0:07.119',-0.590,-0.280
'0:07.122',-0.585,-0.280
'0:07.125',-0.590,-0.290
'0:07.128',-0.600,-0.300
'0:07.131',-0.595,-0.295
'0:07.133',-0.585,-0.285
'0:07.136',-0.580,-0.275
'0:07.139',-0.565,-0.270
'0:07.142',-0.555,-0.270
'0:07.144',-0.545,-0.255
'0:07.147',-0.535,-0.255
'0:07.150',-0.525,-0.255
'0:07.153',-0.530,-0.260
'0:07.156',-0.535,-0.275
'0:07.158',-0.540,-0.285
'0:07.161',-0.530,-0.270
'0:07.164',-0.530,-0.270
'0:07.167',-0.515,-0.265
'0:07.169',-0.520,-0.260
'0:07.172',-0.505,-0.245
'0:07.175',-0.480,-0.240
'0:07.178',-0.480,-0.230
'0:07.181',-0.465,-0.230
'0:07.183',-0.435,-0.245
'0:07.186',-0.415,-0.245
'0:07.189',-0.410,-0.260
'0:07.192',-0.405,-0.270
'0:07.194',-0.405,-0.290
'0:07.197',-0.420,-0.300
'0:07.200',-0.415,-0.305
'0:07.203',-0.430,-0.310
'0:07.206',-0.425,-0.320
'0:07.208',-0.425,-0.330
'0:07.211',-0.435,-0.330
'0:07.214',-0.425,-0.320
'0:07.217',-0.440,-0.310
'0:07.219',-0.450,-0.310
'0:07.222',-0.475,-0.320
'0:07.225',-0.485,-0.305
'0:07.228',-0.505,-0.300
'0:07.231',-0.525,-0.305
'0:07.233',-0.540,-0.295
'0:07.236',-0.545,-0.285
'0:07.239',-0.535,-0.265
'0:07.242',-0.550,-0.260
'0:07.244',-0.555,-0.260
'0:07.247',-0.560,-0.245
'0:07.250',-0.575,-0.260
'0:07.253',-0.585,-0.265
'0:07.256',-0.595,-0.265
'0:07.258',-0.605,-0.270
'0:07.261',-0.615,-0.275
'0:07.264',-0.615,-0.280
'0:07.267',-0.605,-0.265
'0:07.269',-0.610,-0.270
'0:07.272',-0.605,-0.245
'0:07.275',-0.595,-0.255
'0:07.278',-0.595,-0.240
'0:07.281',-0.590,-0.250
'0:07.283',-0.580,-0.255
'0:07.286',-0.575,-0.270
'0:07.289',-0.585,-0.270
'0:07.292',-0.575,-0.285
'0:07.294',-0.575,-0.280
'0:07.297',-0.585,-0.295
'0:07.300',-0.580,-0.280
'0:07.303',-0.555,-0.285
'0:07.306',-0.560,-0.285
'0:07.308',-0.535,-0.270
'0:07.311',-0.485,-0.270
'0:07.314',-0.430,-0.265
'0:07.317',-0.365,-0.270
'0:07.319',-0.275,-0.260
'0:07.322',-0.160,-0.285
'0:07.325',-0.025,-0.290
'0:07.328',0.120,-0.305
'0:07.331',0.285,-0.315
'0:07.333',0.480,-0.340
'0:07.336',0.665,-0.380
'0:07.339',0.845,-0.460
'0:07.342',0.995,-0.545
'0:07.344',1.110,-0.655
'0:07.347',1.200,-0.780
'0:07.350',1.270,-0.885
'0:07.353',1.335,-0.995
'0:07.356',1.360,-1.095
'0:07.358',1.290,-1.200
'0:07.361',1.105,-1.320
'0:07.364',0.815,-1.410
'0:07.367',0.445,-1.465
'0:07.369',0.075,-1.485
'0:07.372',-0.275,-1.460
'0:07.375',-0.530,-1.395
'0:07.378',-0.690,-1.280
'0:07.381',-0.750,-1.165
'0:07.383',-0.770,-1.050
'0:07.386',-0.760,-0.945
'0:07.389',-0.745,-0.870
'0:07.392',-0.720,-0.810
'0:07.394',-0.720,-0.750
'0:07.397',-0.720,-0.690
'0:07.400',-0.710,-0.635
'0:07.403',-0.705,-0.565
'0:07.406',-0.685,-0.495
'0:07.408',-0.690,-0.430
'0:07.411',-0.685,-0.370
'0:07.414',-0.670,-0.315
'0:07.417',-0.675,-0.290
'0:07.419',-0.680,-0.270
'0:07.422',-0.705,-0.270
'0:07.425',-0.705,-0.265
'0:07.428',-0.715,-0.285
'0:07.431',-0.715,-0.280
'0:07.433',-0.720,-0.250
'0:07.436',-0.720,-0.255
'0:07.439',-0.715,-0.240
'0:07.442',-0.715,-0.225
'0:07.444',-0.715,-0.215
'0:07.447',-0.695,-0.210
'0:07.450',-0.715,-0.230
'0:07.453',-0.720,-0.225
'0:07.456',-0.730,-0.220
'0:07.458',-0.720,-0.230
'0:07.461',-0.740,-0.230
'0:07.464',-0.750,-0.230
'0:07.467',-0.745,-0.220
'0:07.469',-0.750,-0.215
'0:07.472',-0.740,-0.195
'0:07.475',-0.735,-0.200
'0:07.478',-0.735,-0.190
'0:07.481',-0.735,-0.190
'0:07.483',-0.730,-0.200
'0:07.486',-0.745,-0.185
'0:07.489',-0.755,-0.200
'0:07.492',-0.765,-0.210
'0:07.494',-0.765,-0.210
'0:07.497',-0.770,-0.195
'0:07.500',-0.775,-0.195
'0:07.503',-0.780,-0.190
'0:07.506',-0.780,-0.185
'0:07.508',-0.765,-0.175
'0:07.511',-0.755,-0.155
'0:07.514',-0.755,-0.165
'0:07.517',-0.765,-0.180
'0:07.519',-0.765,-0.170
'0:07.522',-0.775,-0.180
'0:07.525',-0.790,-0.175
'0:07.528',-0.805,-0.195
'0:07.531',-0.815,-0.185
'0:07.533',-0.810,-0.170
'0:07.536',-0.820,-0.175
'0:07.539',-0.820,-0.150
'0:07.542',-0.815,-0.150
'0:07.544',-0.805,-0.140
'0:07.547',-0.815,-0.125
'0:07.550',-0.815,-0.145
'0:07.553',-0.830,-0.140
'0:07.556',-0.840,-0.150
'0:07.558',-0.845,-0.150
'0:07.561',-0.845,-0.145
'0:07.564',-0.860,-0.145
'0:07.567',-0.865,-0.135
'0:07.569',-0.865,-0.120
'0:07.572',-0.870,-0.100
'0:07.575',-0.855,-0.100
'0:07.578',-0.850,-0.095
'0:07.581',-0.865,-0.075
'0:07.583',-0.870,-0.090
'0:07.586',-0.875,-0.090
'0:07.589',-0.880,-0.085
'0:07.592',-0.885,-0.080
'0:07.594',-0.885,-0.075
'0:07.597',-0.890,-0.075
'0:07.600',-0.890,-0.075
'0:07.603',-0.890,-0.050
'0:07.606',-0.870,-0.050
'0:07.608',-0.860,-0.030
'0:07.611',-0.855,-0.030
'0:07.614',-0.840,-0.020
'0:07.617',-0.835,-0.025
'0:07.619',-0.835,-0.035
'0:07.622',-0.825,-0.035
'0:07.625',-0.835,-0.035
'0:07.628',-0.835,-0.050
'0:07.631',-0.820,-0.045
'0:07.633',-0.825,-0.035
'0:07.636',-0.815,-0.035
'0:07.639',-0.790,-0.040
'0:07.642',-0.770,-0.010
'0:07.644',-0.745,-0.005
'0:07.647',-0.725,-0.010
'0:07.650',-0.720,-0.030
'0:07.653',-0.695,-0.035
'0:07.656',-0.700,-0.055
'0:07.658',-0.690,-0.050
'0:07.661',-0.685,-0.060
'0:07.664',-0.680,-0.070
'0:07.667',-0.675,-0.070
'0:07.669',-0.665,-0.065
'0:07.672',-0.635,-0.065
'0:07.675',-0.630,-0.070
'0:07.678',-0.615,-0.070
'0:07.681',-0.605,-0.080
'0:07.683',-0.595,-0.090
'0:07.686',-0.595,-0.095
'0:07.689',-0.600,-0.115
'0:07.692',-0.600,-0.135
'0:07.694',-0.600,-0.140
'0:07.697',-0.600,-0.150
'0:07.700',-0.605,-0.140
'0:07.703',-0.605,-0.150
'0:07.706',-0.600,-0.140
'0:07.708',-0.595,-0.135
'0:07.711',-0.580,-0.150
'0:07.714',-0.565,-0.145
'0:07.717',-0.565,-0.150
'0:07.719',-0.585,-0.165
'0:07.722',-0.590,-0.185
'0:07.725',-0.590,-0.190
'0:07.728',-0.590,-0.190
'0:07.731',-0.605,-0.195
'0:07.733',-0.610,-0.175
'0:07.736',-0.615,-0.190
'0:07.739',-0.620,-0.185
'0:07.742',-0.610,-0.170
'0:07.744',-0.600,-0.180
'0:07.747',-0.580,-0.170
'0:07.750',-0.590,-0.190
'0:07.753',-0.590,-0.195
'0:07.756',-0.605,-0.205
'0:07.758',-0.605,-0.200
'0:07.761',-0.610,-0.200
'0:07.764',-0.620,-0.210
'0:07.767',-0.625,-0.200
'0:07.769',-0.630,-0.205
'0:07.772',-0.615,-0.185
'0:07.775',-0.625,-0.185
'0:07.778',-0.610,-0.180
'0:07.781',-0.615,-0.175
'0:07.783',-0.615,-0.180
'0:07.786',-0.625,-0.180
'0:07.789',-0.635,-0.200
'0:07.792',-0.625,-0.200
'0:07.794',-0.660,-0.195
'0:07.797',-0.650,-0.200
'0:07.800',-0.655,-0.190
'0:07.803',-0.665,-0.195
'0:07.806',-0.655,-0.185
'0:07.808',-0.650,-0.180
'0:07.811',-0.645,-0.180
'0:07.814',-0.625,-0.165
'0:07.817',-0.615,-0.180
'0:07.819',-0.625,-0.180
'0:07.822',-0.630,-0.190
'0:07.825',-0.625,-0.195
'0:07.828',-0.640,-0.210
'0:07.831',-0.650,-0.205
'0:07.833',-0.650,-0.190
'0:07.836',-0.650,-0.205
'0:07.839',-0.645,-0.190
'0:07.842',-0.640,-0.185
'0:07.844',-0.645,-0.185
'0:07.847',-0.610,-0.185
'0:07.850',-0.615,-0.195
'0:07.853',-0.610,-0.185
'0:07.856',-0.615,-0.200
'0:07.858',-0.635,-0.190
'0:07.861',-0.615,-0.210
'0:07.864',-0.635,-0.215
'0:07.867',-0.625,-0.200
'0:07.869',-0.615,-0.215
'0:07.872',-0.610,-0.195
'0:07.875',-0.605,-0.185
'0:07.878',-0.585,-0.180
'0:07.881',-0.585,-0.175
'0:07.883',-0.570,-0.185
'0:07.886',-0.565,-0.185
'0:07.889',-0.565,-0.185
'0:07.892',-0.570,-0.210
'0:07.894',-0.575,-0.215
'0:07.897',-0.555,-0.210
'0:07.900',-0.570,-0.200
'0:07.903',-0.560,-0.205
'0:07.906',-0.555,-0.190
'0:07.908',-0.540,-0.180
'0:07.911',-0.525,-0.175
'0:07.914',-0.505,-0.160
'0:07.917',-0.475,-0.175
'0:07.919',-0.470,-0.185
'0:07.922',-0.450,-0.205
'0:07.925',-0.445,-0.220
'0:07.928',-0.445,-0.225
'0:07.931',-0.450,-0.255
'0:07.933',-0.450,-0.265
'0:07.936',-0.455,-0.280
'0:07.939',-0.460,-0.285
'0:07.942',-0.470,-0.280
'0:07.944',-0.475,-0.255
'0:07.947',-0.470,-0.255
'0:07.950',-0.495,-0.235
'0:07.953',-0.515,-0.250
'0:07.956',-0.535,-0.240
'0:07.958',-0.550,-0.240
'0:07.961',-0.570,-0.230
'0:07.964',-0.590,-0.230
'0:07.967',-0.595,-0.215
'0:07.969',-0.610,-0.230
'0:07.972',-0.615,-0.210
'0:07.975',-0.625,-0.205
'0:07.978',-0.635,-0.195
'0:07.981',-0.630,-0.195
'0:07.983',-0.625,-0.210
'0:07.986',-0.625,-0.205
'0:07.989',-0.625,-0.210
'0:07.992',-0.625,-0.220
'0:07.994',-0.625,-0.230
'0:07.997',-0.640,-0.230
'0:08.000',-0.640,-0.230
'0:08.003',-0.660,-0.225
'0:08.006',-0.645,-0.225
'0:08.008',-0.640,-0.205
'0:08.011',-0.615,-0.195
'0:08.014',-0.600,-0.210
'0:08.017',-0.595,-0.225
'0:08.019',-0.585,-0.220
'0:08.022',-0.585,-0.225
'0:08.025',-0.585,-0.235
'0:08.028',-0.585,-0.235
'0:08.031',-0.575,-0.245
'0:08.033',-0.555,-0.235
'0:08.036',-0.520,-0.220
'0:08.039',-0.495,-0.220
'0:08.042',-0.435,-0.225
'0:08.044',-0.370,-0.220
'0:08.047',-0.285,-0.210
'0:08.050',-0.190,-0.220
'0:08.053',-0.075,-0.220
'0:08.056',0.035,-0.225
'0:08.058',0.210,-0.250
'0:08.061',0.390,-0.270
'0:08.064',0.580,-0.300
'0:08.067',0.780,-0.375
'0:08.069',0.945,-0.465
'0:08.072',1.090,-0.560
'0:08.075',1.185,-0.680
'0:08.078',1.295,-0.780
'0:08.081',1.360,-0.890
'0:08.083',1.375,-1.015
'0:08.086',1.270,-1.125
'0:08.089',1.005,-1.250
'0:08.092',0.620,-1.330
'0:08.094',0.145,-1.385
'0:08.097',-0.290,-1.375
'0:08.100',-0.615,-1.305
'0:08.103',-0.825,-1.200
'0:08.106',-0.905,-1.060
'0:08.108',-0.905,-0.930
'0:08.111',-0.860,-0.830
'0:08.114',-0.810,-0.725
'0:08.117',-0.765,-0.660
'0:08.119',-0.740,-0.600
'0:08.122',-0.730,-0.535
'0:08.125',-0.715,-0.465
'0:08.128',-0.735,-0.395
'0:08.131',-0.740,-0.340
'0:08.133',-0.750,-0.280
'0:08.136',-0.755,-0.250
'0:08.139',-0.745,-0.215
'0:08.142',-0.740,-0.210
'0:08.144',-0.750,-0.200
'0:08.147',-0.760,-0.200
'0:08.150',-0.755,-0.215
'0:08.153',-0.755,-0.185
'0:08.156',-0.760,-0.200
'0:08.158',-0.750,-0.205
'0:08.161',-0.770,-0.200
'0:08.164',-0.780,-0.205
'0:08.167',-0.780,-0.190
'0:08.169',-0.775,-0.185
'0:08.172',-0.775,-0.185
'0:08.175',-0.775,-0.170
'0:08.178',-0.780,-0.155
'0:08.181',-0.765,-0.150
'0:08.183',-0.780,-0.160
'0:08.186',-0.770,-0.175
'0:08.189',-0.780,-0.175
'0:08.192',-0.795,-0.180
'0:08.194',-0.795,-0.175
'0:08.197',-0.800,-0.180
'0:08.200',-0.810,-0.170
'0:08.203',-0.815,-0.165
'0:08.206',-0.805,-0.150
'0:08.208',-0.800,-0.150
'0:08.211',-0.790,-0.140
'0:08.214',-0.790,-0.140
'0:08.217',-0.795,-0.150
'0:08.219',-0.795,-0.150
'0:08.222',-0.815,-0.170
'0:08.225',-0.835,-0.160
'0:08.228',-0.845,-0.165
'0:08.231',-0.845,-0.160
'0:08.233',-0.840,-0.165
'0:08.236',-0.845,-0.155
'0:08.239',-0.820,-0.135
'0:08.242',-0.830,-0.145
'0:08.244',-0.815,-0.135
'0:08.247',-0.810,-0.125
'0:08.250',-0.825,-0.135
'0:08.253',-0.825,-0.135
'0:08.256',-0.825,-0.130
'0:08.258',-0.845,-0.145
'0:08.261',-0.855,-0.140
'0:08.264',-0.860,-0.140
'0:08.267',-0.875,-0.140
'0:08.269',-0.875,-0.120
'0:08.272',-0.865,-0.125
'0:08.275',-0.865,-0.120
'0:08.278',-0.870,-0.100
'0:08.281',-0.870,-0.090
'0:08.283',-0.870,-0.100
'0:08.286',-0.890,-0.100
'0:08.289',-0.890,-0.100
'0:08.292',-0.890,-0.100
'0:08.294',-0.915,-0.115
'0:08.297',-0.915,-0.100
'0:08.300',-0.915,-0.090
'0:08.303',-0.915,-0.085
'0:08.306',-0.925,-0.070
'0:08.308',-0.905,-0.050
'0:08.311',-0.910,-0.045
'0:08.314',-0.905,-0.040
'0:08.317',-0.905,-0.040
'0:08.319',-0.910,-0.040
'0:08.322',-0.930,-0.040
'0:08.325',-0.910,-0.035
'0:08.328',-0.910,-0.040
'0:08.331',-0.915,-0.045
'0:08.333',-0.910,-0.030
'0:08.336',-0.900,-0.010
'0:08.339',-0.880,-0.005
'0:08.342',-0.865,-0.010
'0:08.344',-0.850,0.000
'0:08.347',-0.830,0.015
'0:08.350',-0.825,0.000
'0:08.353',-0.805,-0.005
'0:08.356',-0.800,-0.010
'0:08.358',-0.800,-0.015
'0:08.361',-0.790,-0.030
'0:08.364',-0.785,-0.030
'0:08.367',-0.770,-0.025
'0:08.369',-0.760,-0.035
'0:08.372',-0.735,-0.030
'0:08.375',-0.720,-0.020
'0:08.378',-0.715,-0.020
'0:08.381',-0.700,-0.025
'0:08.383',-0.690,-0.040
'0:08.386',-0.685,-0.055
'0:08.389',-0.660,-0.065
'0:08.392',-0.665,-0.080
'0:08.394',-0.670,-0.080
'0:08.397',-0.665,-0.100
'0:08.400',-0.660,-0.085
'0:08.403',-0.665,-0.090
'0:08.406',-0.655,-0.085
'0:08.408',-0.645,-0.090
'0:08.411',-0.630,-0.100
'0:08.414',-0.630,-0.085
'0:08.417',-0.620,-0.100
'0:08.419',-0.630,-0.110
'0:08.422',-0.615,-0.130
'0:08.425',-0.625,-0.135
'0:08.428',-0.640,-0.140
'0:08.431',-0.640,-0.145
'0:08.433',-0.650,-0.135
'0:08.436',-0.650,-0.140
'0:08.439',-0.665,-0.140
'0:08.442',-0.650,-0.125
'0:08.444',-0.635,-0.135
'0:08.447',-0.645,-0.130
'0:08.450',-0.635,-0.140
'0:08.453',-0.640,-0.145
'0:08.456',-0.640,-0.150
'0:08.458',-0.645,-0.160
'0:08.461',-0.655,-0.170
'0:08.464',-0.665,-0.180
'0:08.467',-0.670,-0.175
'0:08.469',-0.655,-0.165
'0:08.472',-0.655,-0.165
'0:08.475',-0.660,-0.160
'0:08.478',-0.645,-0.145
'0:08.481',-0.645,-0.145
'0:08.483',-0.655,-0.160
'0:08.486',-0.660,-0.165
'0:08.489',-0.665,-0.165
'0:08.492',-0.675,-0.170
'0:08.494',-0.685,-0.185
'0:08.497',-0.690,-0.190
'0:08.500',-0.685,-0.185
'0:08.503',-0.695,-0.170
'0:08.506',-0.680,-0.170
'0:08.508',-0.680,-0.165
'0:08.511',-0.685,-0.165
'0:08.514',-0.675,-0.165
'0:08.517',-0.675,-0.165
'0:08.519',-0.670,-0.165
'0:08.522',-0.680,-0.185
'0:08.525',-0.685,-0.185
'0:08.528',-0.700,-0.190
'0:08.531',-0.695,-0.185
'0:08.533',-0.705,-0.185
'0:08.536',-0.715,-0.175
'0:08.539',-0.705,-0.180
'0:08.542',-0.710,-0.180
'0:08.544',-0.690,-0.175
'0:08.547',-0.690,-0.165
'0:08.550',-0.685,-0.175
'0:08.553',-0.690,-0.170
'0:08.556',-0.685,-0.185
'0:08.558',-0.695,-0.190
'0:08.561',-0.700,-0.190
'0:08.564',-0.700,-0.190
'0:08.567',-0.690,-0.195
'0:08.569',-0.685,-0.185
'0:08.572',-0.680,-0.175
'0:08.575',-0.670,-0.185
'0:08.578',-0.685,-0.165
'0:08.581',-0.660,-0.165
'0:08.583',-0.655,-0.180
'0:08.586',-0.670,-0.185
'0:08.589',-0.670,-0.185
'0:08.592',-0.670,-0.195
'0:08.594',-0.665,-0.210
'0:08.597',-0.670,-0.205
'0:08.600',-0.670,-0.195
'0:08.603',-0.660,-0.195
'0:08.606',-0.645,-0.185
'0:08.608',-0.635,-0.190
'0:08.611',-0.620,-0.175
'0:08.614',-0.620,-0.175
'0:08.617',-0.610,-0.180
'0:08.619',-0.615,-0.190
'0:08.622',-0.600,-0.200
'0:08.625',-0.600,-0.210
'0:08.628',-0.600,-0.205
'0:08.631',-0.610,-0.210
'0:08.633',-0.600,-0.195
'0:08.636',-0.580,-0.190
'0:08.639',-0.570,-0.185
'0:08.642',-0.565,-0.175
'0:08.644',-0.545,-0.180
'0:08.647',-0.525,-0.175
'0:08.650',-0.515,-0.180
'0:08.653',-0.510,-0.190
'0:08.656',-0.500,-0.205
'0:08.658',-0.495,-0.205
'0:08.661',-0.485,-0.230
'0:08.664',-0.495,-0.240
'0:08.667',-0.490,-0.250
'0:08.669',-0.495,-0.250
'0:08.672',-0.495,-0.260
'0:08.675',-0.495,-0.265
'0:08.678',-0.490,-0.270
'0:08.681',-0.485,-0.275
'0:08.683',-0.495,-0.285
'0:08.686',-0.500,-0.290
'0:08.689',-0.520,-0.280
'0:08.692',-0.535,-0.290
'0:08.694',-0.565,-0.290
'0:08.697',-0.580,-0.275
'0:08.700',-0.600,-0.260
'0:08.703',-0.610,-0.255
'0:08.706',-0.620,-0.240
'0:08.708',-0.615,-0.230
'0:08.711',-0.625,-0.230
'0:08.714',-0.635,-0.210
'0:08.717',-0.655,-0.235
'0:08.719',-0.660,-0.230
'0:08.722',-0.665,-0.230
'0:08.725',-0.670,-0.235
'0:08.728',-0.685,-0.255
'0:08.731',-0.675,-0.250
'0:08.733',-0.680,-0.245
'0:08.736',-0.680,-0.240
'0:08.739',-0.670,-0.240
'0:08.742',-0.655,-0.240
'0:08.744',-0.655,-0.230
'0:08.747',-0.640,-0.225
'0:08.750',-0.640,-0.235
'0:08.753',-0.645,-0.245
'0:08.756',-0.645,-0.245
'0:08.758',-0.635,-0.250
'0:08.761',-0.630,-0.270
'0:08.764',-0.635,-0.265
'0:08.767',-0.625,-0.265
'0:08.769',-0.615,-0.260
'0:08.772',-0.585,-0.260
'0:08.775',-0.560,-0.250
'0:08.778',-0.530,-0.260
'0:08.781',-0.490,-0.255
'0:08.783',-0.440,-0.260
'0:08.786',-0.355,-0.265
'0:08.789',-0.275,-0.255
'0:08.792',-0.155,-0.265
'0:08.794',-0.030,-0.270
'0:08.797',0.105,-0.285
'0:08.800',0.300,-0.305
'0:08.803',0.515,-0.340
'0:08.806',0.730,-0.395
'0:08.808',0.915,-0.480
'0:08.811',1.070,-0.590
'0:08.814',1.175,-0.695
'0:08.817',1.290,-0.805
'0:08.819',1.375,-0.925
'0:08.822',1.445,-1.030
'0:08.825',1.420,-1.135
'0:08.828',1.270,-1.235
'0:08.831',0.965,-1.325
'0:08.833',0.580,-1.390
'0:08.836',0.135,-1.420
'0:08.839',-0.265,-1.415
'0:08.842',-0.565,-1.350
'0:08.844',-0.750,-1.255
'0:08.847',-0.830,-1.150
'0:08.850',-0.835,-1.040
'0:08.853',-0.810,-0.955
'0:08.856',-0.775,-0.875
'0:08.858',-0.745,-0.800
'0:08.861',-0.735,-0.755
'0:08.864',-0.735,-0.685
'0:08.867',-0.735,-0.625
'0:08.869',-0.720,-0.565
'0:08.872',-0.710,-0.490
'0:08.875',-0.710,-0.420
'0:08.878',-0.705,-0.365
'0:08.881',-0.695,-0.325
'0:08.883',-0.710,-0.300
'0:08.886',-0.720,-0.295
'0:08.889',-0.720,-0.290
'0:08.892',-0.745,-0.310
'0:08.894',-0.745,-0.305
'0:08.897',-0.765,-0.300
'0:08.900',-0.745,-0.300
'0:08.903',-0.750,-0.275
'0:08.906',-0.760,-0.270
'0:08.908',-0.750,-0.260
'0:08.911',-0.735,-0.260
'0:08.914',-0.730,-0.245
'0:08.917',-0.735,-0.250
'0:08.919',-0.730,-0.265
'0:08.922',-0.740,-0.260
'0:08.925',-0.755,-0.265
'0:08.928',-0.750,-0.280
'0:08.931',-0.755,-0.275
'0:08.933',-0.765,-0.270
'0:08.936',-0.765,-0.260
'0:08.939',-0.760,-0.250
'0:08.942',-0.765,-0.240
'0:08.944',-0.760,-0.235
'0:08.947',-0.750,-0.245
'0:08.950',-0.760,-0.235
'0:08.953',-0.765,-0.250
'0:08.956',-0.775,-0.245
'0:08.958',-0.795,-0.255
'0:08.961',-0.790,-0.260
'0:08.964',-0.800,-0.260
'0:08.967',-0.805,-0.245
'0:08.969',-0.795,-0.255
'0:08.972',-0.800,-0.240
'0:08.975',-0.800,-0.230
'0:08.978',-0.800,-0.210
'0:08.981',-0.795,-0.220
'0:08.983',-0.795,-0.220
'0:08.986',-0.800,-0.235
'0:08.989',-0.805,-0.225
'0:08.992',-0.820,-0.235
'0:08.994',-0.825,-0.250
'0:08.997',-0.855,-0.250
'0:09.000',-0.860,-0.240
'0:09.003',-0.845,-0.230
'0:09.006',-0.840,-0.225
'0:09.008',-0.840,-0.225
'0:09.011',-0.840,-0.200
'0:09.014',-0.835,-0.190
'0:09.017',-0.835,-0.200
'0:09.019',-0.835,-0.205
'0:09.022',-0.855,-0.205
'0:09.025',-0.860,-0.200
'0:09.028',-0.860,-0.200
'0:09.031',-0.875,-0.205
'0:09.033',-0.870,-0.195
'0:09.036',-0.890,-0.180
'0:09.039',-0.875,-0.155
'0:09.042',-0.875,-0.155
'0:09.044',-0.865,-0.150
'0:09.047',-0.865,-0.145
'0:09.050',-0.865,-0.160
'0:09.053',-0.870,-0.140
'0:09.056',-0.880,-0.145
'0:09.058',-0.875,-0.160
'0:09.061',-0.885,-0.150
'0:09.064',-0.890,-0.150
'0:09.067',-0.885,-0.150
'0:09.069',-0.875,-0.145
'0:09.072',-0.865,-0.135
'0:09.075',-0.865,-0.130
'0:09.078',-0.845,-0.125
'0:09.081',-0.825,-0.115
'0:09.083',-0.815,-0.120
'0:09.086',-0.805,-0.130
'0:09.089',-0.805,-0.130
'0:09.092',-0.790,-0.130
'0:09.094',-0.790,-0.145
'0:09.097',-0.775,-0.155
'0:09.100',-0.770,-0.135
'0:09.103',-0.755,-0.140
'0:09.106',-0.725,-0.140
'0:09.108',-0.705,-0.135
'0:09.111',-0.685,-0.120
'0:09.114',-0.665,-0.135
'0:09.117',-0.645,-0.160
'0:09.119',-0.635,-0.160
'0:09.122',-0.630,-0.175
'0:09.125',-0.625,-0.185
'0:09.128',-0.620,-0.200
'0:09.131',-0.605,-0.215
'0:09.133',-0.600,-0.215
'0:09.136',-0.590,-0.220
'0:09.139',-0.575,-0.225
'0:09.142',-0.580,-0.220
'0:09.144',-0.560,-0.225
'0:09.147',-0.555,-0.225
'0:09.150',-0.550,-0.235
'0:09.153',-0.555,-0.250
'0:09.156',-0.560,-0.275
'0:09.158',-0.565,-0.275
'0:09.161',-0.570,-0.290
'0:09.164',-0.575,-0.290
'0:09.167',-0.565,-0.285
'0:09.169',-0.570,-0.290
'0:09.172',-0.565,-0.280
'0:09.175',-0.560,-0.280
'0:09.178',-0.550,-0.275
'0:09.181',-0.550,-0.285
'0:09.183',-0.550,-0.300
'0:09.186',-0.555,-0.295
'0:09.189',-0.565,-0.305
'0:09.192',-0.570,-0.310
'0:09.194',-0.580,-0.325
'0:09.197',-0.580,-0.330
'0:09.200',-0.595,-0.330
'0:09.203',-0.600,-0.330
'0:09.206',-0.590,-0.315
'0:09.208',-0.590,-0.315
'0:09.211',-0.565,-0.315
'0:09.214',-0.565,-0.295
'0:09.217',-0.560,-0.315
'0:09.219',-0.570,-0.315
'0:09.222',-0.575,-0.325
'0:09.225',-0.580,-0.320
'0:09.228',-0.600,-0.335
'0:09.231',-0.595,-0.345
'0:09.233',-0.605,-0.330
'0:09.236',-0.610,-0.330
'0:09.239',-0.595,-0.320
'0:09.242',-0.605,-0.320
'0:09.244',-0.590,-0.310
'0:09.247',-0.580,-0.305
'0:09.250',-0.595,-0.310
'0:09.253',-0.615,-0.320
'0:09.256',-0.600,-0.325
'0:09.258',-0.610,-0.335
'0:09.261',-0.625,-0.340
'0:09.264',-0.615,-0.340
'0:09.267',-0.625,-0.330
'0:09.269',-0.635,-0.315
'0:09.272',-0.620,-0.315
'0:09.275',-0.615,-0.315
'0:09.278',-0.595,-0.300
'0:09.281',-0.600,-0.295
'0:09.283',-0.595,-0.310
'0:09.286',-0.595,-0.320
'0:09.289',-0.595,-0.320
'0:09.292',-0.600,-0.330
'0:09.294',-0.610,-0.335
'0:09.297',-0.620,-0.345
'0:09.300',-0.620,-0.335
'0:09.303',-0.615,-0.335
'0:09.306',-0.605,-0.320
'0:09.308',-0.605,-0.310
'0:09.311',-0.595,-0.305
'0:09.314',-0.585,-0.310
'0:09.317',-0.585,-0.315
'0:09.319',-0.575,-0.310
'0:09.322',-0.575,-0.330
'0:09.325',-0.590,-0.340
'0:09.328',-0.590,-0.340
'0:09.331',-0.595,-0.335
'0:09.333',-0.605,-0.345
'0:09.336',-0.600,-0.335
'0:09.339',-0.575,-0.330
'0:09.342',-0.565,-0.325
'0:09.344',-0.555,-0.325
'0:09.347',-0.540,-0.315
'0:09.350',-0.535,-0.320
'0:09.353',-0.545,-0.325
'0:09.356',-0.545,-0.335
'0:09.358',-0.525,-0.335
'0:09.361',-0.525,-0.325
'0:09.364',-0.525,-0.340
'0:09.367',-0.520,-0.335
'0:09.369',-0.510,-0.320
'0:09.372',-0.515,-0.315
'0:09.375',-0.500,-0.305
'0:09.378',-0.490,-0.305
'0:09.381',-0.475,-0.305
'0:09.383',-0.465,-0.310
'0:09.386',-0.460,-0.300
'0:09.389',-0.450,-0.315
'0:09.392',-0.450,-0.320
'0:09.394',-0.435,-0.330
'0:09.397',-0.430,-0.335
'0:09.400',-0.425,-0.345
'0:09.403',-0.420,-0.345
'0:09.406',-0.410,-0.340
'0:09.408',-0.405,-0.355
'0:09.411',-0.395,-0.355
'0:09.414',-0.390,-0.365
'0:09.417',-0.395,-0.385
'0:09.419',-0.405,-0.400
'0:09.422',-0.420,-0.400
'0:09.425',-0.430,-0.415
'0:09.428',-0.435,-0.410
'0:09.431',-0.455,-0.410
'0:09.433',-0.480,-0.395
'0:09.436',-0.490,-0.385
'0:09.439',-0.500,-0.360
'0:09.442',-0.495,-0.350
'0:09.444',-0.515,-0.345
'0:09.447',-0.530,-0.335
'0:09.450',-0.530,-0.340
'0:09.453',-0.530,-0.340
'0:09.456',-0.545,-0.355
'0:09.458',-0.570,-0.360
'0:09.461',-0.585,-0.355
'0:09.464',-0.605,-0.350
'0:09.467',-0.620,-0.355
'0:09.469',-0.615,-0.335
'0:09.472',-0.625,-0.340
'0:09.475',-0.605,-0.335
'0:09.478',-0.595,-0.330
'0:09.481',-0.590,-0.335
'0:09.483',-0.585,-0.320
'0:09.486',-0.590,-0.340
'0:09.489',-0.600,-0.350
'0:09.492',-0.600,-0.350
'0:09.494',-0.615,-0.350
'0:09.497',-0.610,-0.355
'0:09.500',-0.605,-0.345
'0:09.503',-0.605,-0.360
'0:09.506',-0.590,-0.350
'0:09.508',-0.595,-0.350
'0:09.511',-0.570,-0.340
'0:09.514',-0.555,-0.335
'0:09.517',-0.550,-0.345
'0:09.519',-0.550,-0.345
'0:09.522',-0.560,-0.360
'0:09.525',-0.550,-0.360
'0:09.528',-0.530,-0.365
'0:09.531',-0.495,-0.380
'0:09.533',-0.445,-0.375
'0:09.536',-0.360,-0.370
'0:09.539',-0.275,-0.365
'0:09.542',-0.145,-0.365
'0:09.544',0.005,-0.360
'0:09.547',0.185,-0.370
'0:09.550',0.400,-0.420
'0:09.553',0.630,-0.470
'0:09.556',0.840,-0.540
'0:09.558',1.025,-0.655
'0:09.561',1.165,-0.790
'0:09.564',1.275,-0.895
'0:09.567',1.370,-1.010
'0:09.569',1.470,-1.115
'0:09.572',1.510,-1.215
'0:09.575',1.445,-1.310
'0:09.578',1.215,-1.405
'0:09.581',0.875,-1.480
'0:09.583',0.465,-1.540
'0:09.586',0.040,-1.535
'0:09.589',-0.305,-1.525
'0:09.592',-0.565,-1.455
'0:09.594',-0.715,-1.365
'0:09.597',-0.775,-1.260
'0:09.600',-0.785,-1.135
'0:09.603',-0.750,-1.030
'0:09.606',-0.725,-0.940
'0:09.608',-0.720,-0.880
'0:09.611',-0.710,-0.790
'0:09.614',-0.675,-0.720
'0:09.617',-0.670,-0.655
'0:09.619',-0.670,-0.595
'0:09.622',-0.670,-0.540
'0:09.625',-0.680,-0.475
'0:09.628',-0.705,-0.440
'0:09.631',-0.705,-0.405
'0:09.633',-0.720,-0.380
'0:09.636',-0.720,-0.365
'0:09.639',-0.725,-0.355
'0:09.642',-0.700,-0.345
'0:09.644',-0.705,-0.345
'0:09.647',-0.690,-0.320
'0:09.650',-0.695,-0.325
'0:09.653',-0.715,-0.325
'0:09.656',-0.725,-0.325
'0:09.658',-0.705,-0.325
'0:09.661',-0.720,-0.340
'0:09.664',-0.735,-0.340
'0:09.667',-0.735,-0.320
'0:09.669',-0.750,-0.320
'0:09.672',-0.730,-0.310
'0:09.675',-0.730,-0.295
'0:09.678',-0.720,-0.305
'0:09.681',-0.715,-0.295
'0:09.683',-0.725,-0.285
'0:09.686',-0.730,-0.300
'0:09.689',-0.735,-0.300
'0:09.692',-0.740,-0.305
'0:09.694',-0.750,-0.315
'0:09.697',-0.755,-0.315
'0:09.700',-0.770,-0.310
'0:09.703',-0.780,-0.310
'0:09.706',-0.780,-0.300
'0:09.708',-0.765,-0.290
'0:09.711',-0.760,-0.285
'0:09.714',-0.755,-0.270
'0:09.717',-0.750,-0.275
'0:09.719',-0.760,-0.270
'0:09.722',-0.760,-0.275
'0:09.725',-0.785,-0.290
'0:09.728',-0.785,-0.290
'0:09.731',-0.790,-0.290
'0:09.733',-0.800,-0.300
'0:09.736',-0.815,-0.280
'0:09.739',-0.820,-0.275
'0:09.742',-0.820,-0.265
'0:09.744',-0.805,-0.255
'0:09.747',-0.805,-0.255
'0:09.750',-0.815,-0.260
'0:09.753',-0.825,-0.255
'0:09.756',-0.825,-0.260
'0:09.758',-0.845,-0.260
'0:09.761',-0.850,-0.270
'0:09.764',-0.850,-0.260
'0:09.767',-0.865,-0.250
'0:09.769',-0.865,-0.240
'0:09.772',-0.880,-0.240
'0:09.775',-0.865,-0.220
'0:09.778',-0.870,-0.210
'0:09.781',-0.865,-0.200
'0:09.783',-0.855,-0.200
'0:09.786',-0.870,-0.190
'0:09.789',-0.880,-0.195
'0:09.792',-0.875,-0.205
'0:09.794',-0.890,-0.200
'0:09.797',-0.890,-0.195
'0:09.800',-0.900,-0.180
'0:09.803',-0.890,-0.180
'0:09.806',-0.880,-0.160
'0:09.808',-0.875,-0.150
'0:09.811',-0.870,-0.140
'0:09.814',-0.860,-0.135
'0:09.817',-0.850,-0.135
'0:09.819',-0.855,-0.140
'0:09.822',-0.835,-0.140
'0:09.825',-0.840,-0.150
'0:09.828',-0.835,-0.145
'0:09.831',-0.825,-0.155
'0:09.833',-0.820,-0.145
'0:09.836',-0.805,-0.140
'0:09.839',-0.790,-0.140
'0:09.842',-0.760,-0.140
'0:09.844',-0.750,-0.125
'0:09.847',-0.725,-0.135
'0:09.850',-0.695,-0.130
'0:09.853',-0.680,-0.145
'0:09.856',-0.680,-0.155
'0:09.858',-0.680,-0.180
'0:09.861',-0.665,-0.185
'0:09.864',-0.665,-0.200
'0:09.867',-0.665,-0.200
'0:09.869',-0.655,-0.205
'0:09.872',-0.640,-0.205
'0:09.875',-0.620,-0.210
'0:09.878',-0.610,-0.195
'0:09.881',-0.600,-0.215
'0:09.883',-0.595,-0.225
'0:09.886',-0.580,-0.240
'0:09.889',-0.580,-0.255
'0:09.892',-0.600,-0.265
'0:09.894',-0.595,-0.270
'0:09.897',-0.595,-0.295
'0:09.900',-0.590,-0.295
'0:09.903',-0.590,-0.290
'0:09.906',-0.585,-0.275
'0:09.908',-0.580,-0.280
'0:09.911',-0.570,-0.275
'0:09.914',-0.570,-0.280
'0:09.917',-0.570,-0.280
'0:09.919',-0.575,-0.295
'0:09.922',-0.565,-0.300
'0:09.925',-0.575,-0.310
'0:09.928',-0.580,-0.320
'0:09.931',-0.600,-0.325
'0:09.933',-0.620,-0.330
'0:09.936',-0.600,-0.320
'0:09.939',-0.605,-0.315
'0:09.942',-0.610,-0.315
'0:09.944',-0.595,-0.305
'0:09.947',-0.595,-0.305
'0:09.950',-0.585,-0.315
'0:09.953',-0.595,-0.320
'0:09.956',-0.605,-0.325
'0:09.958',-0.625,-0.340
'0:09.961',-0.620,-0.350
'0:09.964',-0.620,-0.345
'0:09.967',-0.630,-0.350
'0:09.969',-0.630,-0.330
'0:09.972',-0.630,-0.325
'0:09.975',-0.630,-0.320
'0:09.978',-0.635,-0.310
'0:09.981',-0.615,-0.305
'0:09.983',-0.620,-0.320
'0:09.986',-0.610,-0.315
'0:09.989',-0.625,-0.325
'0:09.992',-0.630,-0.345
'0:09.994',-0.640,-0.340
'0:09.997',-0.640,-0.335
