'Elapsed time','MLII','V1'
'hh:mm:ss.mmm','mV','mV'
'0:00.000',-0.095,0.010
'0:00.003',-0.095,0.010
'0:00.006',-0.095,0.010
'0:00.008',-0.095,0.010
'0:00.011',-0.095,0.010
'0:00.014',-0.095,0.010
'0:00.017',-0.095,0.010
'0:00.019',-0.095,0.010
'0:00.022',-0.095,0.010
'0:00.025',-0.090,0.020
'0:00.028',-0.085,0.040
'0:00.031',-0.070,0.030
'0:00.033',-0.060,0.035
'0:00.036',-0.040,0.020
'0:00.039',-0.030,0.015
'0:00.042',-0.015,0.000
'0:00.044',0.010,0.000
'0:00.047',0.055,0.005
'0:00.050',0.095,0.005
'0:00.053',0.150,0.000
'0:00.056',0.215,0.010
'0:00.058',0.290,0.010
'0:00.061',0.365,0.005
'0:00.064',0.445,-0.010
'0:00.067',0.545,-0.005
'0:00.069',0.640,-0.025
'0:00.072',0.755,-0.035
'0:00.075',0.850,-0.055
'0:00.078',0.895,-0.100
'0:00.081',0.875,-0.150
'0:00.083',0.745,-0.205
'0:00.086',0.490,-0.280
'0:00.089',0.130,-0.340
'0:00.092',-0.325,-0.390
'0:00.094',-0.765,-0.400
'0:00.097',-1.150,-0.410
'0:00.100',-1.450,-0.400
'0:00.103',-1.670,-0.400
'0:00.106',-1.825,-0.435
'0:00.108',-1.955,-0.455
'0:00.111',-2.065,-0.470
'0:00.114',-2.150,-0.460
'0:00.117',-2.230,-0.415
'0:00.119',-2.265,-0.320
'0:00.122',-2.290,-0.210
'0:00.125',-2.255,-0.045
'0:00.128',-2.215,0.120
'0:00.131',-2.140,0.300
'0:00.133',-2.050,0.455
'0:00.136',-1.930,0.595
'0:00.139',-1.820,0.715
'0:00.142',-1.715,0.805
'0:00.144',-1.590,0.870
'0:00.147',-1.505,0.915
'0:00.150',-1.430,0.955
'0:00.153',-1.360,0.995
'0:00.156',-1.290,1.025
'0:00.158',-1.210,1.035
'0:00.161',-1.110,1.005
'0:00.164',-0.995,0.955
'0:00.167',-0.880,0.850
'0:00.169',-0.780,0.680
'0:00.172',-0.700,0.460
'0:00.175',-0.630,0.225
'0:00.178',-0.575,-0.010
'0:00.181',-0.530,-0.205
'0:00.183',-0.490,-0.350
'0:00.186',-0.445,-0.425
'0:00.189',-0.345,-0.440
'0:00.192',-0.230,-0.420
'0:00.194',-0.090,-0.360
'0:00.197',0.035,-0.310
'0:00.200',0.185,-0.260
'0:00.203',0.270,-0.205
'0:00.206',0.330,-0.170
'0:00.208',0.350,-0.130
'0:00.211',0.350,-0.115
'0:00.214',0.325,-0.110
'0:00.217',0.300,-0.110
'0:00.219',0.310,-0.130
'0:00.222',0.315,-0.115
'0:00.225',0.330,-0.110
'0:00.228',0.350,-0.105
'0:00.231',0.375,-0.105
'0:00.233',0.395,-0.090
'0:00.236',0.390,-0.090
'0:00.239',0.410,-0.095
'0:00.242',0.435,-0.095
'0:00.244',0.445,-0.110
'0:00.247',0.450,-0.115
'0:00.250',0.460,-0.130
'0:00.253',0.465,-0.135
'0:00.256',0.480,-0.140
'0:00.258',0.480,-0.140
'0:00.261',0.510,-0.130
'0:00.264',0.535,-0.110
'0:00.267',0.560,-0.100
'0:00.269',0.575,-0.115
'0:00.272',0.610,-0.105
'0:00.275',0.630,-0.110
'0:00.278',0.635,-0.130
'0:00.281',0.640,-0.135
'0:00.283',0.655,-0.145
'0:00.286',0.670,-0.155
'0:00.289',0.685,-0.150
'0:00.292',0.705,-0.145
'0:00.294',0.725,-0.140
'0:00.297',0.750,-0.130
'0:00.300',0.775,-0.130
'0:00.303',0.805,-0.120
'0:00.306',0.825,-0.140
'0:00.308',0.850,-0.150
'0:00.311',0.860,-0.170
'0:00.314',0.865,-0.180
'0:00.317',0.875,-0.170
'0:00.319',0.895,-0.175
'0:00.322',0.910,-0.185
'0:00.325',0.925,-0.170
'0:00.328',0.935,-0.185
'0:00.331',0.945,-0.180
'0:00.333',0.950,-0.195
'0:00.336',0.950,-0.200
'0:00.339',0.945,-0.210
'0:00.342',0.940,-0.220
'0:00.344',0.940,-0.225
'0:00.347',0.925,-0.240
'0:00.350',0.905,-0.250
'0:00.353',0.880,-0.265
'0:00.356',0.850,-0.260
'0:00.358',0.820,-0.260
'0:00.361',0.810,-0.260
'0:00.364',0.780,-0.270
'0:00.367',0.760,-0.260
'0:00.369',0.735,-0.255
'0:00.372',0.700,-0.255
'0:00.375',0.665,-0.245
'0:00.378',0.625,-0.245
'0:00.381',0.585,-0.255
'0:00.383',0.550,-0.265
'0:00.386',0.505,-0.265
'0:00.389',0.470,-0.255
'0:00.392',0.430,-0.230
'0:00.394',0.400,-0.220
'0:00.397',0.390,-0.195
'0:00.400',0.360,-0.170
'0:00.403',0.340,-0.160
'0:00.406',0.310,-0.140
'0:00.408',0.280,-0.120
'0:00.411',0.240,-0.120
'0:00.414',0.210,-0.100
'0:00.417',0.180,-0.095
'0:00.419',0.155,-0.080
'0:00.422',0.130,-0.070
'0:00.425',0.105,-0.055
'0:00.428',0.090,-0.035
'0:00.431',0.085,-0.015
'0:00.433',0.065,0.005
'0:00.436',0.060,0.020
'0:00.439',0.040,0.030
'0:00.442',0.025,0.015
'0:00.444',0.015,0.020
'0:00.447',-0.005,0.010
'0:00.450',-0.020,0.005
'0:00.453',-0.010,0.010
'0:00.456',-0.020,0.020
'0:00.458',-0.020,0.020
'0:00.461',-0.020,0.035
'0:00.464',-0.010,0.035
'0:00.467',0.000,0.045
'0:00.469',0.010,0.025
'0:00.472',0.000,0.025
'0:00.475',-0.005,0.035
'0:00.478',-0.005,0.030
'0:00.481',-0.010,0.035
'0:00.483',-0.010,0.025
'0:00.486',-0.020,0.020
'0:00.489',-0.010,0.025
'0:00.492',-0.010,0.030
'0:00.494',-0.015,0.030
'0:00.497',-0.005,0.025
'0:00.500',-0.005,0.030
'0:00.503',0.005,0.050
'0:00.506',-0.005,0.040
'0:00.508',-0.010,0.035
'0:00.511',-0.015,0.020
'0:00.514',-0.025,0.025
'0:00.517',-0.040,0.025
'0:00.519',-0.040,0.010
'0:00.522',-0.040,0.020
'0:00.525',-0.050,0.020
'0:00.528',-0.045,0.025
'0:00.531',-0.050,0.040
'0:00.533',-0.030,0.050
'0:00.536',-0.030,0.055
'0:00.539',-0.025,0.045
'0:00.542',-0.035,0.045
'0:00.544',-0.050,0.035
'0:00.547',-0.055,0.020
'0:00.550',-0.060,0.005
'0:00.553',-0.070,-0.005
'0:00.556',-0.070,-0.005
'0:00.558',-0.065,0.015
'0:00.561',-0.055,0.025
'0:00.564',-0.045,0.040
'0:00.567',-0.040,0.045
'0:00.569',-0.040,0.050
'0:00.572',-0.050,0.035
'0:00.575',-0.055,0.030
'0:00.578',-0.060,0.010
'0:00.581',-0.065,0.005
'0:00.583',-0.080,0.000
'0:00.586',-0.080,-0.005
'0:00.589',-0.075,0.015
'0:00.592',-0.095,0.015
'0:00.594',-0.085,0.015
'0:00.597',-0.070,0.025
'0:00.600',-0.065,0.030
'0:00.603',-0.055,0.025
'0:00.606',-0.060,0.005
'0:00.608',-0.075,0.005
'0:00.611',-0.075,0.010
'0:00.614',-0.095,0.000
'0:00.617',-0.085,0.015
'0:00.619',-0.100,0.005
'0:00.622',-0.100,0.000
'0:00.625',-0.090,0.005
'0:00.628',-0.090,0.005
'0:00.631',-0.085,0.010
'0:00.633',-0.085,0.000
'0:00.636',-0.070,0.005
'0:00.639',-0.100,0.015
'0:00.642',-0.085,0.010
'0:00.644',-0.075,-0.005
'0:00.647',-0.085,-0.010
'0:00.650',-0.085,0.000
'0:00.653',-0.100,-0.020
'0:00.656',-0.100,-0.015
'0:00.658',-0.100,-0.010
'0:00.661',-0.090,-0.020
'0:00.664',-0.100,-0.010
'0:00.667',-0.085,0.005
'0:00.669',-0.080,0.015
'0:00.672',-0.090,0.010
'0:00.675',-0.095,0.020
'0:00.678',-0.085,0.005
'0:00.681',-0.085,-0.015
'0:00.683',-0.085,-0.015
'0:00.686',-0.095,-0.020
'0:00.689',-0.095,-0.015
'0:00.692',-0.090,-0.005
'0:00.694',-0.090,0.000
'0:00.697',-0.090,0.015
'0:00.700',-0.080,0.000
'0:00.703',-0.075,0.010
'0:00.706',-0.080,0.010
'0:00.708',-0.060,0.005
'0:00.711',-0.040,0.005
'0:00.714',-0.035,0.025
'0:00.717',-0.030,0.055
'0:00.719',-0.010,0.070
'0:00.722',0.010,0.115
'0:00.725',0.025,0.145
'0:00.728',0.045,0.185
'0:00.731',0.065,0.185
'0:00.733',0.080,0.175
'0:00.736',0.100,0.190
'0:00.739',0.120,0.165
'0:00.742',0.145,0.155
'0:00.744',0.180,0.125
'0:00.747',0.200,0.085
'0:00.750',0.215,0.065
'0:00.753',0.215,0.040
'0:00.756',0.215,0.010
'0:00.758',0.180,0.000
'0:00.761',0.155,-0.015
'0:00.764',0.145,0.005
'0:00.767',0.155,0.000
'0:00.769',0.165,0.010
'0:00.772',0.170,0.010
'0:00.775',0.170,-0.015
'0:00.778',0.150,-0.050
'0:00.781',0.125,-0.080
'0:00.783',0.095,-0.110
'0:00.786',0.055,-0.115
'0:00.789',0.030,-0.115
'0:00.792',0.000,-0.080
'0:00.794',-0.025,-0.045
'0:00.797',-0.035,-0.030
'0:00.800',-0.045,-0.020
'0:00.803',-0.045,-0.005
'0:00.806',-0.065,-0.020
'0:00.808',-0.085,-0.015
'0:00.811',-0.115,-0.040
'0:00.814',-0.140,-0.040
'0:00.817',-0.145,-0.050
'0:00.819',-0.145,-0.045
'0:00.822',-0.155,-0.040
'0:00.825',-0.135,-0.035
'0:00.828',-0.135,-0.040
'0:00.831',-0.135,-0.045
'0:00.833',-0.130,-0.045
'0:00.836',-0.105,-0.045
'0:00.839',-0.105,-0.055
'0:00.842',-0.095,-0.045
'0:00.844',-0.105,-0.040
'0:00.847',-0.110,-0.020
'0:00.850',-0.115,0.000
'0:00.853',-0.100,0.020
'0:00.856',-0.050,0.080
'0:00.858',0.030,0.105
'0:00.861',0.170,0.130
'0:00.864',0.360,0.075
'0:00.867',0.545,0.005
'0:00.869',0.755,-0.125
'0:00.872',0.955,-0.325
'0:00.875',1.135,-0.560
'0:00.878',1.300,-0.855
'0:00.881',1.460,-1.215
'0:00.883',1.580,-1.570
'0:00.886',1.655,-1.890
'0:00.889',1.680,-2.120
'0:00.892',1.650,-2.220
'0:00.894',1.570,-2.205
'0:00.897',1.420,-2.110
'0:00.900',1.195,-1.960
'0:00.903',0.910,-1.765
'0:00.906',0.610,-1.550
'0:00.908',0.340,-1.305
'0:00.911',0.130,-1.060
'0:00.914',-0.015,-0.855
'0:00.917',-0.090,-0.680
'0:00.919',-0.135,-0.575
'0:00.922',-0.150,-0.475
'0:00.925',-0.170,-0.410
'0:00.928',-0.180,-0.325
'0:00.931',-0.200,-0.265
'0:00.933',-0.235,-0.185
'0:00.936',-0.280,-0.120
'0:00.939',-0.300,-0.085
'0:00.942',-0.310,-0.040
'0:00.944',-0.320,-0.025
'0:00.947',-0.330,-0.005
'0:00.950',-0.330,0.005
'0:00.953',-0.340,0.000
'0:00.956',-0.345,0.005
'0:00.958',-0.350,0.030
'0:00.961',-0.345,0.040
'0:00.964',-0.345,0.055
'0:00.967',-0.350,0.060
'0:00.969',-0.355,0.085
'0:00.972',-0.350,0.070
'0:00.975',-0.355,0.085
'0:00.978',-0.355,0.075
'0:00.981',-0.355,0.090
'0:00.983',-0.365,0.085
'0:00.986',-0.380,0.095
'0:00.989',-0.380,0.100
'0:00.992',-0.385,0.095
'0:00.994',-0.380,0.110
'0:00.997',-0.370,0.115
'0:01.000',-0.370,0.140
'0:01.003',-0.360,0.165
'0:01.006',-0.370,0.175
'0:01.008',-0.375,0.190
'0:01.011',-0.385,0.175
'0:01.014',-0.385,0.175
'0:01.017',-0.385,0.175
'0:01.019',-0.405,0.165
'0:01.022',-0.400,0.170
'0:01.025',-0.405,0.190
'0:01.028',-0.410,0.215
'0:01.031',-0.410,0.230
'0:01.033',-0.420,0.245
'0:01.036',-0.425,0.275
'0:01.039',-0.420,0.260
'0:01.042',-0.425,0.240
'0:01.044',-0.445,0.250
'0:01.047',-0.455,0.255
'0:01.050',-0.475,0.250
'0:01.053',-0.490,0.270
'0:01.056',-0.495,0.265
'0:01.058',-0.510,0.295
'0:01.061',-0.525,0.325
'0:01.064',-0.525,0.325
'0:01.067',-0.535,0.330
'0:01.069',-0.555,0.345
'0:01.072',-0.560,0.340
'0:01.075',-0.575,0.345
'0:01.078',-0.600,0.345
'0:01.081',-0.630,0.350
'0:01.083',-0.655,0.360
'0:01.086',-0.665,0.360
'0:01.089',-0.665,0.375
'0:01.092',-0.680,0.390
'0:01.094',-0.695,0.405
'0:01.097',-0.695,0.405
'0:01.100',-0.700,0.410
'0:01.103',-0.700,0.415
'0:01.106',-0.700,0.420
'0:01.108',-0.705,0.420
'0:01.111',-0.720,0.420
'0:01.114',-0.720,0.420
'0:01.117',-0.715,0.425
'0:01.119',-0.715,0.415
'0:01.122',-0.705,0.415
'0:01.125',-0.685,0.405
'0:01.128',-0.670,0.405
'0:01.131',-0.650,0.400
'0:01.133',-0.635,0.405
'0:01.136',-0.605,0.400
'0:01.139',-0.590,0.385
'0:01.142',-0.555,0.365
'0:01.144',-0.545,0.345
'0:01.147',-0.520,0.320
'0:01.150',-0.500,0.290
'0:01.153',-0.475,0.255
'0:01.156',-0.435,0.235
'0:01.158',-0.410,0.230
'0:01.161',-0.370,0.225
'0:01.164',-0.345,0.210
'0:01.167',-0.325,0.205
'0:01.169',-0.295,0.195
'0:01.172',-0.275,0.155
'0:01.175',-0.255,0.150
'0:01.178',-0.245,0.120
'0:01.181',-0.230,0.090
'0:01.183',-0.220,0.070
'0:01.186',-0.220,0.060
'0:01.189',-0.200,0.050
'0:01.192',-0.190,0.060
'0:01.194',-0.185,0.065
'0:01.197',-0.180,0.070
'0:01.200',-0.170,0.065
'0:01.203',-0.170,0.055
'0:01.206',-0.165,0.045
'0:01.208',-0.150,0.035
'0:01.211',-0.160,0.030
'0:01.214',-0.165,0.020
'0:01.217',-0.180,0.025
'0:01.219',-0.175,0.020
'0:01.222',-0.170,0.025
'0:01.225',-0.175,0.035
'0:01.228',-0.160,0.040
'0:01.231',-0.155,0.035
'0:01.233',-0.165,0.035
'0:01.236',-0.150,0.035
'0:01.239',-0.150,0.035
'0:01.242',-0.165,0.040
'0:01.244',-0.165,0.025
'0:01.247',-0.185,0.035
'0:01.250',-0.175,0.030
'0:01.253',-0.190,0.035
'0:01.256',-0.195,0.035
'0:01.258',-0.190,0.035
'0:01.261',-0.195,0.040
'0:01.264',-0.170,0.040
'0:01.267',-0.160,0.035
'0:01.269',-0.160,0.045
'0:01.272',-0.165,0.055
'0:01.275',-0.165,0.050
'0:01.278',-0.160,0.055
'0:01.281',-0.185,0.045
'0:01.283',-0.190,0.050
'0:01.286',-0.195,0.050
'0:01.289',-0.185,0.035
'0:01.292',-0.190,0.035
'0:01.294',-0.150,0.045
'0:01.297',-0.135,0.055
'0:01.300',-0.105,0.070
'0:01.303',-0.075,0.080
'0:01.306',-0.050,0.085
'0:01.308',-0.025,0.100
'0:01.311',-0.005,0.125
'0:01.314',0.000,0.145
'0:01.317',0.025,0.175
'0:01.319',0.035,0.195
'0:01.322',0.065,0.235
'0:01.325',0.085,0.275
'0:01.328',0.125,0.305
'0:01.331',0.175,0.320
'0:01.333',0.225,0.355
'0:01.336',0.300,0.370
'0:01.339',0.380,0.375
'0:01.342',0.495,0.380
'0:01.344',0.600,0.335
'0:01.347',0.715,0.280
'0:01.350',0.800,0.220
'0:01.353',0.870,0.155
'0:01.356',0.930,0.105
'0:01.358',0.980,0.065
'0:01.361',1.020,0.025
'0:01.364',1.105,0.000
'0:01.367',1.195,-0.025
'0:01.369',1.285,-0.075
'0:01.372',1.390,-0.135
'0:01.375',1.465,-0.220
'0:01.378',1.515,-0.335
'0:01.381',1.550,-0.460
'0:01.383',1.545,-0.605
'0:01.386',1.500,-0.730
'0:01.389',1.385,-0.855
'0:01.392',1.195,-0.950
'0:01.394',0.885,-1.030
'0:01.397',0.495,-1.105
'0:01.400',0.040,-1.195
'0:01.403',-0.460,-1.310
'0:01.406',-0.905,-1.420
'0:01.408',-1.265,-1.565
'0:01.411',-1.545,-1.660
'0:01.414',-1.680,-1.705
'0:01.417',-1.700,-1.710
'0:01.419',-1.655,-1.650
'0:01.422',-1.565,-1.575
'0:01.425',-1.440,-1.475
'0:01.428',-1.300,-1.340
'0:01.431',-1.200,-1.235
'0:01.433',-1.100,-1.080
'0:01.436',-1.010,-0.925
'0:01.439',-0.920,-0.765
'0:01.442',-0.805,-0.595
'0:01.444',-0.700,-0.445
'0:01.447',-0.585,-0.330
'0:01.450',-0.500,-0.250
'0:01.453',-0.455,-0.175
'0:01.456',-0.430,-0.130
'0:01.458',-0.420,-0.100
'0:01.461',-0.420,-0.065
'0:01.464',-0.425,-0.040
'0:01.467',-0.430,-0.020
'0:01.469',-0.420,-0.005
'0:01.472',-0.410,0.010
'0:01.475',-0.410,0.005
'0:01.478',-0.405,0.015
'0:01.481',-0.405,0.015
'0:01.483',-0.415,0.000
'0:01.486',-0.410,0.010
'0:01.489',-0.420,0.015
'0:01.492',-0.430,0.045
'0:01.494',-0.430,0.055
'0:01.497',-0.415,0.060
'0:01.500',-0.415,0.075
'0:01.503',-0.390,0.075
'0:01.506',-0.400,0.070
'0:01.508',-0.400,0.080
'0:01.511',-0.405,0.085
'0:01.514',-0.420,0.085
'0:01.517',-0.415,0.095
'0:01.519',-0.415,0.080
'0:01.522',-0.425,0.100
'0:01.525',-0.425,0.110
'0:01.528',-0.425,0.120
'0:01.531',-0.430,0.120
'0:01.533',-0.430,0.125
'0:01.536',-0.420,0.135
'0:01.539',-0.415,0.145
'0:01.542',-0.415,0.150
'0:01.544',-0.420,0.170
'0:01.547',-0.420,0.175
'0:01.550',-0.430,0.160
'0:01.553',-0.435,0.170
'0:01.556',-0.435,0.175
'0:01.558',-0.430,0.195
'0:01.561',-0.430,0.220
'0:01.564',-0.415,0.245
'0:01.567',-0.410,0.265
'0:01.569',-0.405,0.275
'0:01.572',-0.405,0.285
'0:01.575',-0.375,0.295
'0:01.578',-0.370,0.300
'0:01.581',-0.375,0.310
'0:01.583',-0.360,0.325
'0:01.586',-0.350,0.330
'0:01.589',-0.330,0.340
'0:01.592',-0.325,0.370
'0:01.594',-0.305,0.385
'0:01.597',-0.285,0.410
'0:01.600',-0.270,0.425
'0:01.603',-0.245,0.440
'0:01.606',-0.235,0.435
'0:01.608',-0.225,0.440
'0:01.611',-0.205,0.430
'0:01.614',-0.200,0.420
'0:01.617',-0.200,0.425
'0:01.619',-0.190,0.435
'0:01.622',-0.185,0.435
'0:01.625',-0.175,0.445
'0:01.628',-0.170,0.435
'0:01.631',-0.170,0.445
'0:01.633',-0.160,0.445
'0:01.636',-0.145,0.430
'0:01.639',-0.155,0.425
'0:01.642',-0.150,0.415
'0:01.644',-0.160,0.395
'0:01.647',-0.175,0.380
'0:01.650',-0.190,0.350
'0:01.653',-0.200,0.345
'0:01.656',-0.230,0.325
'0:01.658',-0.245,0.315
'0:01.661',-0.240,0.295
'0:01.664',-0.245,0.285
'0:01.667',-0.250,0.260
'0:01.669',-0.275,0.255
'0:01.672',-0.285,0.240
'0:01.675',-0.305,0.220
'0:01.678',-0.315,0.205
'0:01.681',-0.335,0.175
'0:01.683',-0.350,0.145
'0:01.686',-0.350,0.140
'0:01.689',-0.365,0.120
'0:01.692',-0.360,0.110
'0:01.694',-0.370,0.110
'0:01.697',-0.365,0.120
'0:01.700',-0.365,0.130
'0:01.703',-0.365,0.130
'0:01.706',-0.355,0.115
'0:01.708',-0.375,0.110
'0:01.711',-0.380,0.090
'0:01.714',-0.380,0.085
'0:01.717',-0.380,0.080
'0:01.719',-0.390,0.075
'0:01.722',-0.395,0.075
'0:01.725',-0.410,0.080
'0:01.728',-0.400,0.090
'0:01.731',-0.400,0.100
'0:01.733',-0.395,0.090
'0:01.736',-0.390,0.110
'0:01.739',-0.380,0.105
'0:01.742',-0.380,0.105
'0:01.744',-0.375,0.085
'0:01.747',-0.395,0.075
'0:01.750',-0.400,0.065
'0:01.753',-0.415,0.065
'0:01.756',-0.420,0.065
'0:01.758',-0.415,0.080
'0:01.761',-0.400,0.095
'0:01.764',-0.400,0.110
'0:01.767',-0.385,0.115
'0:01.769',-0.375,0.105
'0:01.772',-0.370,0.105
'0:01.775',-0.380,0.105
'0:01.778',-0.380,0.085
'0:01.781',-0.385,0.085
'0:01.783',-0.395,0.090
'0:01.786',-0.410,0.085
'0:01.789',-0.415,0.090
'0:01.792',-0.400,0.085
'0:01.794',-0.400,0.085
'0:01.797',-0.390,0.095
'0:01.800',-0.395,0.100
'0:01.803',-0.375,0.100
'0:01.806',-0.385,0.095
'0:01.808',-0.385,0.090
'0:01.811',-0.390,0.085
'0:01.814',-0.395,0.090
'0:01.817',-0.405,0.070
'0:01.819',-0.410,0.055
'0:01.822',-0.410,0.060
'0:01.825',-0.420,0.065
'0:01.828',-0.430,0.085
'0:01.831',-0.425,0.080
'0:01.833',-0.415,0.085
'0:01.836',-0.405,0.095
'0:01.839',-0.400,0.095
'0:01.842',-0.405,0.095
'0:01.844',-0.410,0.065
'0:01.847',-0.415,0.060
'0:01.850',-0.425,0.055
'0:01.853',-0.415,0.060
'0:01.856',-0.435,0.055
'0:01.858',-0.425,0.050
'0:01.861',-0.425,0.060
'0:01.864',-0.415,0.085
'0:01.867',-0.415,0.085
'0:01.869',-0.410,0.080
'0:01.872',-0.410,0.095
'0:01.875',-0.420,0.070
'0:01.878',-0.410,0.065
'0:01.881',-0.420,0.055
'0:01.883',-0.430,0.040
'0:01.886',-0.435,0.055
'0:01.889',-0.420,0.055
'0:01.892',-0.405,0.070
'0:01.894',-0.390,0.095
'0:01.897',-0.370,0.115
'0:01.900',-0.355,0.145
'0:01.903',-0.330,0.170
'0:01.906',-0.320,0.195
'0:01.908',-0.310,0.225
'0:01.911',-0.300,0.240
'0:01.914',-0.280,0.240
'0:01.917',-0.280,0.235
'0:01.919',-0.275,0.235
'0:01.922',-0.265,0.240
'0:01.925',-0.235,0.220
'0:01.928',-0.195,0.205
'0:01.931',-0.175,0.200
'0:01.933',-0.145,0.185
'0:01.936',-0.115,0.155
'0:01.939',-0.110,0.125
'0:01.942',-0.135,0.105
'0:01.944',-0.155,0.075
'0:01.947',-0.185,0.065
'0:01.950',-0.205,0.070
'0:01.953',-0.205,0.060
'0:01.956',-0.220,0.045
'0:01.958',-0.200,0.045
'0:01.961',-0.195,0.030
'0:01.964',-0.195,0.005
'0:01.967',-0.200,-0.005
'0:01.969',-0.225,-0.015
'0:01.972',-0.270,-0.035
'0:01.975',-0.300,-0.035
'0:01.978',-0.335,-0.040
'0:01.981',-0.375,-0.015
'0:01.983',-0.400,-0.010
'0:01.986',-0.415,0.000
'0:01.989',-0.435,0.010
'0:01.992',-0.445,0.005
'0:01.994',-0.450,0.015
'0:01.997',-0.465,0.025
'0:02.000',-0.475,0.035
'0:02.003',-0.465,0.045
'0:02.006',-0.490,0.040
'0:02.008',-0.495,0.040
'0:02.011',-0.495,0.025
'0:02.014',-0.510,0.005
'0:02.017',-0.500,0.005
'0:02.019',-0.510,0.000
'0:02.022',-0.515,0.000
'0:02.025',-0.505,0.000
'0:02.028',-0.500,0.015
'0:02.031',-0.495,0.015
'0:02.033',-0.485,0.035
'0:02.036',-0.480,0.020
'0:02.039',-0.490,0.045
'0:02.042',-0.470,0.070
'0:02.044',-0.460,0.090
'0:02.047',-0.430,0.130
'0:02.050',-0.360,0.160
'0:02.053',-0.245,0.195
'0:02.056',-0.090,0.170
'0:02.058',0.110,0.080
'0:02.061',0.315,-0.030
'0:02.064',0.515,-0.195
'0:02.067',0.695,-0.395
'0:02.069',0.865,-0.650
'0:02.072',1.035,-0.980
'0:02.075',1.165,-1.350
'0:02.078',1.285,-1.715
'0:02.081',1.340,-2.015
'0:02.083',1.345,-2.210
'0:02.086',1.290,-2.265
'0:02.089',1.165,-2.220
'0:02.092',1.000,-2.110
'0:02.094',0.760,-1.940
'0:02.097',0.470,-1.760
'0:02.100',0.190,-1.530
'0:02.103',-0.055,-1.270
'0:02.106',-0.235,-1.020
'0:02.108',-0.360,-0.770
'0:02.111',-0.440,-0.615
'0:02.114',-0.480,-0.475
'0:02.117',-0.510,-0.405
'0:02.119',-0.530,-0.345
'0:02.122',-0.550,-0.275
'0:02.125',-0.580,-0.210
'0:02.128',-0.620,-0.120
'0:02.131',-0.630,-0.050
'0:02.133',-0.650,0.025
'0:02.136',-0.660,0.065
'0:02.139',-0.660,0.075
'0:02.142',-0.665,0.090
'0:02.144',-0.670,0.080
'0:02.147',-0.680,0.070
'0:02.150',-0.695,0.085
'0:02.153',-0.690,0.090
'0:02.156',-0.710,0.110
'0:02.158',-0.715,0.120
'0:02.161',-0.705,0.140
'0:02.164',-0.705,0.155
'0:02.167',-0.700,0.180
'0:02.169',-0.705,0.175
'0:02.172',-0.700,0.180
'0:02.175',-0.705,0.175
'0:02.178',-0.700,0.180
'0:02.181',-0.720,0.190
'0:02.183',-0.735,0.175
'0:02.186',-0.735,0.200
'0:02.189',-0.745,0.200
'0:02.192',-0.740,0.225
'0:02.194',-0.725,0.235
'0:02.197',-0.725,0.240
'0:02.200',-0.715,0.245
'0:02.203',-0.725,0.260
'0:02.206',-0.715,0.245
'0:02.208',-0.720,0.265
'0:02.211',-0.720,0.255
'0:02.214',-0.740,0.260
'0:02.217',-0.745,0.280
'0:02.219',-0.745,0.275
'0:02.222',-0.755,0.280
'0:02.225',-0.755,0.295
'0:02.228',-0.755,0.295
'0:02.231',-0.760,0.315
'0:02.233',-0.755,0.330
'0:02.236',-0.750,0.345
'0:02.239',-0.760,0.345
'0:02.242',-0.770,0.355
'0:02.244',-0.790,0.365
'0:02.247',-0.800,0.375
'0:02.250',-0.810,0.375
'0:02.253',-0.830,0.380
'0:02.256',-0.840,0.380
'0:02.258',-0.845,0.390
'0:02.261',-0.865,0.410
'0:02.264',-0.870,0.410
'0:02.267',-0.875,0.435
'0:02.269',-0.870,0.445
'0:02.272',-0.900,0.455
'0:02.275',-0.905,0.465
'0:02.278',-0.925,0.480
'0:02.281',-0.940,0.465
'0:02.283',-0.950,0.465
'0:02.286',-0.970,0.465
'0:02.289',-0.985,0.470
'0:02.292',-1.005,0.480
'0:02.294',-1.000,0.495
'0:02.297',-1.000,0.520
'0:02.300',-1.000,0.530
'0:02.303',-1.010,0.540
'0:02.306',-1.010,0.530
'0:02.308',-1.005,0.525
'0:02.311',-1.000,0.505
'0:02.314',-0.995,0.505
'0:02.317',-0.985,0.490
'0:02.319',-0.985,0.490
'0:02.322',-0.985,0.485
'0:02.325',-0.955,0.490
'0:02.328',-0.935,0.485
'0:02.331',-0.915,0.480
'0:02.333',-0.875,0.475
'0:02.336',-0.850,0.445
'0:02.339',-0.825,0.430
'0:02.342',-0.805,0.405
'0:02.344',-0.780,0.370
'0:02.347',-0.760,0.355
'0:02.350',-0.735,0.330
'0:02.353',-0.715,0.315
'0:02.356',-0.705,0.290
'0:02.358',-0.685,0.290
'0:02.361',-0.660,0.265
'0:02.364',-0.625,0.245
'0:02.367',-0.605,0.220
'0:02.369',-0.575,0.215
'0:02.372',-0.565,0.195
'0:02.375',-0.560,0.175
'0:02.378',-0.560,0.170
'0:02.381',-0.555,0.155
'0:02.383',-0.555,0.125
'0:02.386',-0.550,0.120
'0:02.389',-0.545,0.120
'0:02.392',-0.545,0.115
'0:02.394',-0.535,0.125
'0:02.397',-0.530,0.120
'0:02.400',-0.525,0.115
'0:02.403',-0.510,0.125
'0:02.406',-0.510,0.130
'0:02.408',-0.515,0.120
'0:02.411',-0.510,0.100
'0:02.414',-0.510,0.095
'0:02.417',-0.525,0.080
'0:02.419',-0.530,0.090
'0:02.422',-0.530,0.095
'0:02.425',-0.530,0.085
'0:02.428',-0.520,0.100
'0:02.431',-0.530,0.115
'0:02.433',-0.520,0.130
'0:02.436',-0.505,0.130
'0:02.439',-0.500,0.130
'0:02.442',-0.500,0.115
'0:02.444',-0.520,0.115
'0:02.447',-0.515,0.105
'0:02.450',-0.525,0.100
'0:02.453',-0.530,0.100
'0:02.456',-0.530,0.100
'0:02.458',-0.530,0.115
'0:02.461',-0.525,0.125
'0:02.464',-0.520,0.120
'0:02.467',-0.510,0.135
'0:02.469',-0.505,0.140
'0:02.472',-0.500,0.135
'0:02.475',-0.500,0.140
'0:02.478',-0.520,0.125
'0:02.481',-0.520,0.125
'0:02.483',-0.535,0.120
'0:02.486',-0.540,0.130
'0:02.489',-0.520,0.135
'0:02.492',-0.510,0.150
'0:02.494',-0.500,0.155
'0:02.497',-0.485,0.175
'0:02.500',-0.465,0.200
'0:02.503',-0.440,0.230
'0:02.506',-0.415,0.260
'0:02.508',-0.400,0.295
'0:02.511',-0.380,0.300
'0:02.514',-0.380,0.295
'0:02.517',-0.360,0.305
'0:02.519',-0.360,0.300
'0:02.522',-0.335,0.290
'0:02.525',-0.315,0.300
'0:02.528',-0.275,0.285
'0:02.531',-0.230,0.280
'0:02.533',-0.185,0.265
'0:02.536',-0.160,0.230
'0:02.539',-0.170,0.185
'0:02.542',-0.180,0.160
'0:02.544',-0.205,0.120
'0:02.547',-0.225,0.100
'0:02.550',-0.245,0.095
'0:02.553',-0.245,0.095
'0:02.556',-0.240,0.085
'0:02.558',-0.235,0.070
'0:02.561',-0.235,0.070
'0:02.564',-0.250,0.050
'0:02.567',-0.275,0.025
'0:02.569',-0.295,0.010
'0:02.572',-0.335,0.005
'0:02.575',-0.375,0.025
'0:02.578',-0.410,0.045
'0:02.581',-0.440,0.055
'0:02.583',-0.465,0.065
'0:02.586',-0.470,0.065
'0:02.589',-0.500,0.070
'0:02.592',-0.500,0.070
'0:02.594',-0.525,0.075
'0:02.597',-0.535,0.085
'0:02.600',-0.530,0.080
'0:02.603',-0.525,0.075
'0:02.606',-0.525,0.060
'0:02.608',-0.530,0.060
'0:02.611',-0.510,0.065
'0:02.614',-0.525,0.045
'0:02.617',-0.525,0.055
'0:02.619',-0.535,0.030
'0:02.622',-0.535,0.040
'0:02.625',-0.525,0.035
'0:02.628',-0.505,0.045
'0:02.631',-0.515,0.045
'0:02.633',-0.505,0.065
'0:02.636',-0.485,0.095
'0:02.639',-0.480,0.135
'0:02.642',-0.460,0.175
'0:02.644',-0.415,0.220
'0:02.647',-0.325,0.235
'0:02.650',-0.185,0.235
'0:02.653',0.000,0.175
'0:02.656',0.195,0.060
'0:02.658',0.400,-0.090
'0:02.661',0.610,-0.255
'0:02.664',0.790,-0.510
'0:02.667',0.945,-0.795
'0:02.669',1.105,-1.150
'0:02.672',1.225,-1.540
'0:02.675',1.315,-1.885
'0:02.678',1.335,-2.130
'0:02.681',1.305,-2.280
'0:02.683',1.225,-2.305
'0:02.686',1.095,-2.220
'0:02.689',0.900,-2.085
'0:02.692',0.655,-1.910
'0:02.694',0.370,-1.700
'0:02.697',0.095,-1.460
'0:02.700',-0.120,-1.200
'0:02.703',-0.275,-0.935
'0:02.706',-0.380,-0.735
'0:02.708',-0.445,-0.560
'0:02.711',-0.475,-0.450
'0:02.714',-0.500,-0.365
'0:02.717',-0.525,-0.295
'0:02.719',-0.540,-0.215
'0:02.722',-0.570,-0.145
'0:02.725',-0.600,-0.065
'0:02.728',-0.625,-0.010
'0:02.731',-0.630,0.040
'0:02.733',-0.625,0.085
'0:02.736',-0.630,0.105
'0:02.739',-0.620,0.110
'0:02.742',-0.630,0.120
'0:02.744',-0.625,0.125
'0:02.747',-0.650,0.135
'0:02.750',-0.645,0.135
'0:02.753',-0.650,0.125
'0:02.756',-0.655,0.140
'0:02.758',-0.655,0.150
'0:02.761',-0.655,0.170
'0:02.764',-0.650,0.175
'0:02.767',-0.645,0.195
'0:02.769',-0.630,0.215
'0:02.772',-0.630,0.210
'0:02.775',-0.650,0.230
'0:02.778',-0.660,0.220
'0:02.781',-0.665,0.215
'0:02.783',-0.670,0.220
'0:02.786',-0.675,0.230
'0:02.789',-0.680,0.220
'0:02.792',-0.670,0.245
'0:02.794',-0.650,0.270
'0:02.797',-0.650,0.280
'0:02.800',-0.635,0.285
'0:02.803',-0.645,0.295
'0:02.806',-0.645,0.300
'0:02.808',-0.645,0.300
'0:02.811',-0.665,0.300
'0:02.814',-0.665,0.310
'0:02.817',-0.685,0.315
'0:02.819',-0.690,0.330
'0:02.822',-0.695,0.340
'0:02.825',-0.685,0.365
'0:02.828',-0.695,0.370
'0:02.831',-0.700,0.395
'0:02.833',-0.685,0.405
'0:02.836',-0.695,0.405
'0:02.839',-0.715,0.425
'0:02.842',-0.720,0.415
'0:02.844',-0.735,0.430
'0:02.847',-0.750,0.440
'0:02.850',-0.765,0.450
'0:02.853',-0.770,0.475
'0:02.856',-0.775,0.475
'0:02.858',-0.785,0.505
'0:02.861',-0.790,0.515
'0:02.864',-0.795,0.525
'0:02.867',-0.805,0.535
'0:02.869',-0.795,0.545
'0:02.872',-0.820,0.550
'0:02.875',-0.810,0.560
'0:02.878',-0.805,0.565
'0:02.881',-0.820,0.570
'0:02.883',-0.835,0.570
'0:02.886',-0.835,0.565
'0:02.889',-0.845,0.565
'0:02.892',-0.840,0.580
'0:02.894',-0.830,0.580
'0:02.897',-0.815,0.595
'0:02.900',-0.800,0.595
'0:02.903',-0.780,0.590
'0:02.906',-0.770,0.575
'0:02.908',-0.750,0.570
'0:02.911',-0.740,0.545
'0:02.914',-0.720,0.520
'0:02.917',-0.715,0.500
'0:02.919',-0.695,0.480
'0:02.922',-0.680,0.440
'0:02.925',-0.645,0.435
'0:02.928',-0.625,0.420
'0:02.931',-0.605,0.405
'0:02.933',-0.575,0.385
'0:02.936',-0.550,0.360
'0:02.939',-0.540,0.330
'0:02.942',-0.520,0.295
'0:02.944',-0.515,0.270
'0:02.947',-0.505,0.240
'0:02.950',-0.490,0.215
'0:02.953',-0.485,0.225
'0:02.956',-0.480,0.190
'0:02.958',-0.465,0.185
'0:02.961',-0.465,0.175
'0:02.964',-0.445,0.175
'0:02.967',-0.435,0.175
'0:02.969',-0.420,0.155
'0:02.972',-0.430,0.145
'0:02.975',-0.420,0.130
'0:02.978',-0.425,0.110
'0:02.981',-0.415,0.105
'0:02.983',-0.410,0.110
'0:02.986',-0.415,0.105
'0:02.989',-0.395,0.105
'0:02.992',-0.375,0.115
'0:02.994',-0.360,0.120
'0:02.997',-0.340,0.110
'0:03.000',-0.295,0.120
'0:03.003',-0.270,0.105
'0:03.006',-0.230,0.115
'0:03.008',-0.190,0.110
'0:03.011',-0.145,0.105
'0:03.014',-0.105,0.100
'0:03.017',-0.045,0.085
'0:03.019',0.020,0.080
'0:03.022',0.100,0.070
'0:03.025',0.190,0.065
'0:03.028',0.280,0.045
'0:03.031',0.400,0.050
'0:03.033',0.500,0.035
'0:03.036',0.555,-0.005
'0:03.039',0.530,-0.040
'0:03.042',0.420,-0.110
'0:03.044',0.180,-0.180
'0:03.047',-0.185,-0.260
'0:03.050',-0.625,-0.320
'0:03.053',-1.085,-0.345
'0:03.056',-1.480,-0.360
'0:03.058',-1.780,-0.345
'0:03.061',-2.005,-0.355
'0:03.064',-2.140,-0.355
'0:03.067',-2.230,-0.385
'0:03.069',-2.320,-0.410
'0:03.072',-2.380,-0.405
'0:03.075',-2.435,-0.355
'0:03.078',-2.470,-0.265
'0:03.081',-2.470,-0.135
'0:03.083',-2.455,0.035
'0:03.086',-2.420,0.230
'0:03.089',-2.335,0.420
'0:03.092',-2.240,0.605
'0:03.094',-2.130,0.750
'0:03.097',-2.015,0.895
'0:03.100',-1.895,0.995
'0:03.103',-1.790,1.090
'0:03.106',-1.680,1.170
'0:03.108',-1.600,1.205
'0:03.111',-1.550,1.240
'0:03.114',-1.490,1.240
'0:03.117',-1.405,1.220
'0:03.119',-1.290,1.140
'0:03.122',-1.160,0.965
'0:03.125',-1.020,0.725
'0:03.128',-0.925,0.435
'0:03.131',-0.860,0.110
'0:03.133',-0.820,-0.160
'0:03.136',-0.790,-0.355
'0:03.139',-0.740,-0.440
'0:03.142',-0.650,-0.430
'0:03.144',-0.520,-0.380
'0:03.147',-0.365,-0.300
'0:03.150',-0.180,-0.245
'0:03.153',-0.025,-0.190
'0:03.156',0.080,-0.160
'0:03.158',0.150,-0.135
'0:03.161',0.170,-0.120
'0:03.164',0.150,-0.095
'0:03.167',0.135,-0.080
'0:03.169',0.115,-0.070
'0:03.172',0.105,-0.050
'0:03.175',0.115,-0.050
'0:03.178',0.135,-0.050
'0:03.181',0.155,-0.055
'0:03.183',0.165,-0.050
'0:03.186',0.185,-0.055
'0:03.189',0.200,-0.040
'0:03.192',0.205,-0.035
'0:03.194',0.220,-0.020
'0:03.197',0.245,-0.020
'0:03.200',0.275,-0.015
'0:03.203',0.290,-0.015
'0:03.206',0.310,-0.035
'0:03.208',0.315,-0.040
'0:03.211',0.335,-0.060
'0:03.214',0.340,-0.060
'0:03.217',0.355,-0.060
'0:03.219',0.370,-0.060
'0:03.222',0.380,-0.050
'0:03.225',0.405,-0.050
'0:03.228',0.435,-0.040
'0:03.231',0.455,-0.040
'0:03.233',0.490,-0.035
'0:03.236',0.500,-0.055
'0:03.239',0.530,-0.050
'0:03.242',0.555,-0.065
'0:03.244',0.555,-0.075
'0:03.247',0.570,-0.070
'0:03.250',0.585,-0.065
'0:03.253',0.610,-0.075
'0:03.256',0.645,-0.080
'0:03.258',0.665,-0.085
'0:03.261',0.690,-0.085
'0:03.264',0.710,-0.090
'0:03.267',0.735,-0.075
'0:03.269',0.755,-0.085
'0:03.272',0.770,-0.090
'0:03.275',0.775,-0.100
'0:03.278',0.775,-0.115
'0:03.281',0.780,-0.125
'0:03.283',0.770,-0.135
'0:03.286',0.760,-0.150
'0:03.289',0.760,-0.155
'0:03.292',0.745,-0.160
'0:03.294',0.755,-0.155
'0:03.297',0.745,-0.165
'0:03.300',0.730,-0.175
'0:03.303',0.710,-0.180
'0:03.306',0.685,-0.175
'0:03.308',0.650,-0.190
'0:03.311',0.605,-0.215
'0:03.314',0.560,-0.220
'0:03.317',0.515,-0.210
'0:03.319',0.475,-0.210
'0:03.322',0.445,-0.205
'0:03.325',0.415,-0.185
'0:03.328',0.375,-0.165
'0:03.331',0.345,-0.150
'0:03.333',0.305,-0.145
'0:03.336',0.260,-0.135
'0:03.339',0.230,-0.110
'0:03.342',0.185,-0.110
'0:03.344',0.140,-0.090
'0:03.347',0.100,-0.075
'0:03.350',0.065,-0.065
'0:03.353',0.030,-0.035
'0:03.356',0.005,-0.005
'0:03.358',-0.020,0.015
'0:03.361',-0.050,0.020
'0:03.364',-0.060,0.040
'0:03.367',-0.060,0.055
'0:03.369',-0.080,0.070
'0:03.372',-0.110,0.075
'0:03.375',-0.125,0.085
'0:03.378',-0.145,0.085
'0:03.381',-0.160,0.080
'0:03.383',-0.180,0.080
'0:03.386',-0.190,0.090
'0:03.389',-0.185,0.085
'0:03.392',-0.190,0.095
'0:03.394',-0.200,0.110
'0:03.397',-0.190,0.115
'0:03.400',-0.180,0.120
'0:03.403',-0.195,0.105
'0:03.406',-0.190,0.115
'0:03.408',-0.205,0.100
'0:03.411',-0.215,0.105
'0:03.414',-0.215,0.090
'0:03.417',-0.225,0.080
'0:03.419',-0.240,0.085
'0:03.422',-0.230,0.090
'0:03.425',-0.220,0.115
'0:03.428',-0.215,0.115
'0:03.431',-0.210,0.120
'0:03.433',-0.200,0.120
'0:03.436',-0.195,0.125
'0:03.439',-0.195,0.115
'0:03.442',-0.190,0.100
'0:03.444',-0.210,0.090
'0:03.447',-0.210,0.095
'0:03.450',-0.215,0.075
'0:03.453',-0.225,0.095
'0:03.456',-0.220,0.100
'0:03.458',-0.220,0.110
'0:03.461',-0.225,0.105
'0:03.464',-0.225,0.115
'0:03.467',-0.210,0.120
'0:03.469',-0.210,0.100
'0:03.472',-0.205,0.100
'0:03.475',-0.210,0.100
'0:03.478',-0.220,0.090
'0:03.481',-0.235,0.085
'0:03.483',-0.235,0.095
'0:03.486',-0.245,0.090
'0:03.489',-0.250,0.095
'0:03.492',-0.240,0.085
'0:03.494',-0.240,0.095
'0:03.497',-0.235,0.095
'0:03.500',-0.220,0.100
'0:03.503',-0.225,0.110
'0:03.506',-0.230,0.100
'0:03.508',-0.240,0.095
'0:03.511',-0.240,0.080
'0:03.514',-0.255,0.075
'0:03.517',-0.260,0.075
'0:03.519',-0.260,0.065
'0:03.522',-0.270,0.070
'0:03.525',-0.270,0.080
'0:03.528',-0.255,0.075
'0:03.531',-0.260,0.090
'0:03.533',-0.245,0.095
'0:03.536',-0.250,0.085
'0:03.539',-0.235,0.095
'0:03.542',-0.235,0.085
'0:03.544',-0.240,0.070
'0:03.547',-0.240,0.070
'0:03.550',-0.255,0.060
'0:03.553',-0.260,0.065
'0:03.556',-0.265,0.070
'0:03.558',-0.245,0.065
'0:03.561',-0.245,0.070
'0:03.564',-0.235,0.065
'0:03.567',-0.230,0.075
'0:03.569',-0.230,0.060
'0:03.572',-0.240,0.065
'0:03.575',-0.245,0.055
'0:03.578',-0.245,0.045
'0:03.581',-0.255,0.050
'0:03.583',-0.255,0.050
'0:03.586',-0.245,0.050
'0:03.589',-0.240,0.055
'0:03.592',-0.245,0.060
'0:03.594',-0.250,0.060
'0:03.597',-0.240,0.060
'0:03.600',-0.230,0.075
'0:03.603',-0.220,0.070
'0:03.606',-0.230,0.080
'0:03.608',-0.220,0.075
'0:03.611',-0.225,0.055
'0:03.614',-0.235,0.040
'0:03.617',-0.245,0.030
'0:03.619',-0.230,0.040
'0:03.622',-0.230,0.035
'0:03.625',-0.240,0.055
'0:03.628',-0.235,0.065
'0:03.631',-0.225,0.065
'0:03.633',-0.200,0.065
'0:03.636',-0.200,0.060
'0:03.639',-0.200,0.065
'0:03.642',-0.200,0.050
'0:03.644',-0.210,0.035
'0:03.647',-0.220,0.040
'0:03.650',-0.210,0.035
'0:03.653',-0.210,0.045
'0:03.656',-0.190,0.055
'0:03.658',-0.175,0.075
'0:03.661',-0.155,0.090
'0:03.664',-0.120,0.125
'0:03.667',-0.105,0.165
'0:03.669',-0.080,0.190
'0:03.672',-0.070,0.220
'0:03.675',-0.045,0.235
'0:03.678',-0.040,0.240
'0:03.681',-0.045,0.235
'0:03.683',-0.050,0.230
'0:03.686',-0.030,0.220
'0:03.689',-0.005,0.215
'0:03.692',0.035,0.205
'0:03.694',0.070,0.180
'0:03.697',0.125,0.155
'0:03.700',0.160,0.130
'0:03.703',0.165,0.110
'0:03.706',0.150,0.100
'0:03.708',0.110,0.070
'0:03.711',0.080,0.045
'0:03.714',0.075,0.020
'0:03.717',0.065,0.030
'0:03.719',0.060,0.005
'0:03.722',0.080,0.015
'0:03.725',0.090,-0.005
'0:03.728',0.085,-0.030
'0:03.731',0.065,-0.055
'0:03.733',0.055,-0.055
'0:03.736',0.015,-0.070
'0:03.739',-0.025,-0.065
'0:03.742',-0.045,-0.065
'0:03.744',-0.070,-0.055
'0:03.747',-0.115,-0.030
'0:03.750',-0.135,-0.035
'0:03.753',-0.155,-0.035
'0:03.756',-0.170,-0.025
'0:03.758',-0.190,0.005
'0:03.761',-0.195,-0.005
'0:03.764',-0.190,0.015
'0:03.767',-0.190,0.025
'0:03.769',-0.205,0.010
'0:03.772',-0.200,0.000
'0:03.775',-0.200,-0.005
'0:03.778',-0.205,-0.020
'0:03.781',-0.205,-0.030
'0:03.783',-0.200,-0.040
'0:03.786',-0.210,-0.030
'0:03.789',-0.210,-0.030
'0:03.792',-0.205,-0.025
'0:03.794',-0.200,-0.015
'0:03.797',-0.190,-0.010
'0:03.800',-0.185,0.015
'0:03.803',-0.170,0.035
'0:03.806',-0.150,0.070
'0:03.808',-0.110,0.105
'0:03.811',-0.050,0.145
'0:03.814',0.055,0.150
'0:03.817',0.205,0.135
'0:03.819',0.380,0.040
'0:03.822',0.585,-0.095
'0:03.825',0.790,-0.265
'0:03.828',0.980,-0.475
'0:03.831',1.140,-0.735
'0:03.833',1.315,-1.055
'0:03.836',1.445,-1.410
'0:03.839',1.570,-1.770
'0:03.842',1.640,-2.065
'0:03.844',1.635,-2.270
'0:03.847',1.580,-2.345
'0:03.850',1.480,-2.305
'0:03.853',1.325,-2.215
'0:03.856',1.095,-2.060
'0:03.858',0.830,-1.880
'0:03.861',0.545,-1.655
'0:03.864',0.305,-1.405
'0:03.867',0.120,-1.135
'0:03.869',-0.015,-0.885
'0:03.872',-0.085,-0.705
'0:03.875',-0.140,-0.565
'0:03.878',-0.175,-0.485
'0:03.881',-0.190,-0.405
'0:03.883',-0.230,-0.345
'0:03.886',-0.270,-0.280
'0:03.889',-0.300,-0.205
'0:03.892',-0.325,-0.125
'0:03.894',-0.335,-0.060
'0:03.897',-0.345,-0.005
'0:03.900',-0.345,0.030
'0:03.903',-0.340,0.040
'0:03.906',-0.345,0.035
'0:03.908',-0.340,0.030
'0:03.911',-0.355,0.045
'0:03.914',-0.365,0.040
'0:03.917',-0.370,0.045
'0:03.919',-0.390,0.050
'0:03.922',-0.380,0.080
'0:03.925',-0.370,0.085
'0:03.928',-0.380,0.100
'0:03.931',-0.370,0.110
'0:03.933',-0.375,0.130
'0:03.936',-0.365,0.125
'0:03.939',-0.375,0.130
'0:03.942',-0.370,0.130
'0:03.944',-0.370,0.140
'0:03.947',-0.390,0.140
'0:03.950',-0.390,0.130
'0:03.953',-0.405,0.145
'0:03.956',-0.400,0.155
'0:03.958',-0.405,0.175
'0:03.961',-0.395,0.185
'0:03.964',-0.390,0.185
'0:03.967',-0.390,0.185
'0:03.969',-0.395,0.210
'0:03.972',-0.405,0.205
'0:03.975',-0.400,0.220
'0:03.978',-0.405,0.210
'0:03.981',-0.430,0.225
'0:03.983',-0.430,0.215
'0:03.986',-0.440,0.220
'0:03.989',-0.435,0.240
'0:03.992',-0.450,0.240
'0:03.994',-0.445,0.250
'0:03.997',-0.445,0.280
'0:04.000',-0.445,0.285
'0:04.003',-0.460,0.295
'0:04.006',-0.475,0.310
'0:04.008',-0.495,0.300
'0:04.011',-0.510,0.300
'0:04.014',-0.525,0.305
'0:04.017',-0.545,0.305
'0:04.019',-0.560,0.320
'0:04.022',-0.570,0.330
'0:04.025',-0.590,0.345
'0:04.028',-0.600,0.375
'0:04.031',-0.605,0.370
'0:04.033',-0.610,0.390
'0:04.036',-0.630,0.400
'0:04.039',-0.640,0.400
'0:04.042',-0.660,0.395
'0:04.044',-0.680,0.385
'0:04.047',-0.705,0.395
'0:04.050',-0.715,0.380
'0:04.053',-0.735,0.385
'0:04.056',-0.745,0.405
'0:04.058',-0.740,0.420
'0:04.061',-0.745,0.430
'0:04.064',-0.740,0.435
'0:04.067',-0.740,0.440
'0:04.069',-0.725,0.435
'0:04.072',-0.730,0.440
'0:04.075',-0.725,0.425
'0:04.078',-0.725,0.405
'0:04.081',-0.725,0.410
'0:04.083',-0.705,0.395
'0:04.086',-0.700,0.390
'0:04.089',-0.680,0.385
'0:04.092',-0.655,0.380
'0:04.094',-0.625,0.365
'0:04.097',-0.600,0.360
'0:04.100',-0.565,0.360
'0:04.103',-0.545,0.340
'0:04.106',-0.515,0.305
'0:04.108',-0.485,0.295
'0:04.111',-0.465,0.275
'0:04.114',-0.440,0.240
'0:04.117',-0.415,0.220
'0:04.119',-0.390,0.195
'0:04.122',-0.370,0.180
'0:04.125',-0.340,0.165
'0:04.128',-0.300,0.145
'0:04.131',-0.275,0.130
'0:04.133',-0.255,0.115
'0:04.136',-0.240,0.105
'0:04.139',-0.225,0.085
'0:04.142',-0.195,0.070
'0:04.144',-0.200,0.060
'0:04.147',-0.195,0.040
'0:04.150',-0.190,0.025
'0:04.153',-0.195,0.015
'0:04.156',-0.185,0.015
'0:04.158',-0.175,0.025
'0:04.161',-0.175,0.025
'0:04.164',-0.155,0.045
'0:04.167',-0.155,0.035
'0:04.169',-0.145,0.025
'0:04.172',-0.150,0.025
'0:04.175',-0.150,0.005
'0:04.178',-0.155,0.000
'0:04.181',-0.150,0.005
'0:04.183',-0.160,-0.005
'0:04.186',-0.150,0.005
'0:04.189',-0.155,0.020
'0:04.192',-0.145,0.020
'0:04.194',-0.140,0.005
'0:04.197',-0.135,0.030
'0:04.200',-0.120,0.020
'0:04.203',-0.120,0.020
'0:04.206',-0.130,0.015
'0:04.208',-0.130,0.015
'0:04.211',-0.135,0.010
'0:04.214',-0.135,0.010
'0:04.217',-0.145,0.010
'0:04.219',-0.155,0.010
'0:04.222',-0.150,0.010
'0:04.225',-0.145,0.015
'0:04.228',-0.145,0.030
'0:04.231',-0.135,0.030
'0:04.233',-0.115,0.045
'0:04.236',-0.120,0.040
'0:04.239',-0.120,0.050
'0:04.242',-0.115,0.050
'0:04.244',-0.110,0.045
'0:04.247',-0.110,0.045
'0:04.250',-0.105,0.030
'0:04.253',-0.100,0.035
'0:04.256',-0.080,0.020
'0:04.258',-0.060,0.040
'0:04.261',-0.030,0.055
'0:04.264',0.000,0.070
'0:04.267',0.035,0.115
'0:04.269',0.060,0.125
'0:04.272',0.070,0.155
'0:04.275',0.095,0.205
'0:04.278',0.125,0.230
'0:04.281',0.145,0.255
'0:04.283',0.180,0.275
'0:04.286',0.225,0.290
'0:04.289',0.285,0.300
'0:04.292',0.350,0.335
'0:04.294',0.440,0.360
'0:04.297',0.555,0.365
'0:04.300',0.670,0.325
'0:04.303',0.790,0.285
'0:04.306',0.875,0.210
'0:04.308',0.965,0.135
'0:04.311',1.015,0.060
'0:04.314',1.060,0.005
'0:04.317',1.105,-0.050
'0:04.319',1.175,-0.080
'0:04.322',1.265,-0.100
'0:04.325',1.350,-0.150
'0:04.328',1.450,-0.215
'0:04.331',1.525,-0.315
'0:04.333',1.575,-0.430
'0:04.336',1.595,-0.570
'0:04.339',1.565,-0.720
'0:04.342',1.475,-0.855
'0:04.344',1.315,-0.980
'0:04.347',1.075,-1.080
'0:04.350',0.725,-1.150
'0:04.353',0.300,-1.230
'0:04.356',-0.180,-1.315
'0:04.358',-0.645,-1.415
'0:04.361',-1.045,-1.525
'0:04.364',-1.360,-1.660
'0:04.367',-1.555,-1.710
'0:04.369',-1.640,-1.725
'0:04.372',-1.640,-1.710
'0:04.375',-1.570,-1.660
'0:04.378',-1.480,-1.615
'0:04.381',-1.355,-1.520
'0:04.383',-1.240,-1.410
'0:04.386',-1.150,-1.295
'0:04.389',-1.075,-1.160
'0:04.392',-0.990,-1.020
'0:04.394',-0.895,-0.840
'0:04.397',-0.770,-0.675
'0:04.400',-0.665,-0.530
'0:04.403',-0.550,-0.410
'0:04.406',-0.445,-0.290
'0:04.408',-0.350,-0.225
'0:04.411',-0.320,-0.170
'0:04.414',-0.280,-0.130
'0:04.417',-0.295,-0.115
'0:04.419',-0.305,-0.090
'0:04.422',-0.305,-0.075
'0:04.425',-0.295,-0.050
'0:04.428',-0.285,-0.020
'0:04.431',-0.285,-0.010
'0:04.433',-0.275,0.005
'0:04.436',-0.265,0.010
'0:04.439',-0.255,0.005
'0:04.442',-0.245,0.005
'0:04.444',-0.260,0.015
'0:04.447',-0.260,0.000
'0:04.450',-0.270,-0.010
'0:04.453',-0.260,0.005
'0:04.456',-0.270,0.025
'0:04.458',-0.255,0.045
'0:04.461',-0.245,0.060
'0:04.464',-0.255,0.060
'0:04.467',-0.245,0.060
'0:04.469',-0.240,0.070
'0:04.472',-0.230,0.075
'0:04.475',-0.240,0.060
'0:04.478',-0.245,0.065
'0:04.481',-0.250,0.060
'0:04.483',-0.250,0.070
'0:04.486',-0.260,0.080
'0:04.489',-0.255,0.090
'0:04.492',-0.255,0.100
'0:04.494',-0.240,0.110
'0:04.497',-0.235,0.125
'0:04.500',-0.230,0.135
'0:04.503',-0.230,0.145
'0:04.506',-0.230,0.140
'0:04.508',-0.235,0.155
'0:04.511',-0.245,0.150
'0:04.514',-0.240,0.165
'0:04.517',-0.245,0.180
'0:04.519',-0.240,0.185
'0:04.522',-0.230,0.200
'0:04.525',-0.225,0.205
'0:04.528',-0.225,0.225
'0:04.531',-0.195,0.245
'0:04.533',-0.180,0.260
'0:04.536',-0.170,0.280
'0:04.539',-0.165,0.300
'0:04.542',-0.145,0.300
'0:04.544',-0.135,0.310
'0:04.547',-0.140,0.325
'0:04.550',-0.125,0.325
'0:04.553',-0.125,0.340
'0:04.556',-0.110,0.350
'0:04.558',-0.085,0.365
'0:04.561',-0.065,0.390
'0:04.564',-0.050,0.410
'0:04.567',-0.025,0.425
'0:04.569',-0.005,0.430
'0:04.572',0.010,0.440
'0:04.575',0.025,0.435
'0:04.578',0.035,0.435
'0:04.581',0.020,0.425
'0:04.583',0.020,0.415
'0:04.586',0.025,0.420
'0:04.589',0.040,0.425
'0:04.592',0.045,0.440
'0:04.594',0.045,0.440
'0:04.597',0.070,0.420
'0:04.600',0.065,0.415
'0:04.603',0.070,0.400
'0:04.606',0.060,0.390
'0:04.608',0.045,0.365
'0:04.611',0.030,0.350
'0:04.614',0.015,0.325
'0:04.617',-0.005,0.310
'0:04.619',-0.020,0.295
'0:04.622',-0.020,0.295
'0:04.625',-0.035,0.260
'0:04.628',-0.040,0.260
'0:04.631',-0.050,0.225
'0:04.633',-0.055,0.225
'0:04.636',-0.060,0.195
'0:04.639',-0.070,0.185
'0:04.642',-0.080,0.150
'0:04.644',-0.110,0.140
'0:04.647',-0.115,0.115
'0:04.650',-0.120,0.110
'0:04.653',-0.135,0.105
'0:04.656',-0.130,0.100
'0:04.658',-0.135,0.080
'0:04.661',-0.125,0.090
'0:04.664',-0.140,0.080
'0:04.667',-0.120,0.085
'0:04.669',-0.130,0.075
'0:04.672',-0.130,0.080
'0:04.675',-0.135,0.060
'0:04.678',-0.145,0.060
'0:04.681',-0.160,0.040
'0:04.683',-0.155,0.045
'0:04.686',-0.160,0.040
'0:04.689',-0.170,0.030
'0:04.692',-0.160,0.045
'0:04.694',-0.160,0.040
'0:04.697',-0.140,0.050
'0:04.700',-0.135,0.065
'0:04.703',-0.130,0.065
'0:04.706',-0.135,0.050
'0:04.708',-0.140,0.055
'0:04.711',-0.135,0.040
'0:04.714',-0.140,0.030
'0:04.717',-0.140,0.015
'0:04.719',-0.145,0.025
'0:04.722',-0.145,0.030
'0:04.725',-0.130,0.055
'0:04.728',-0.120,0.060
'0:04.731',-0.115,0.075
'0:04.733',-0.095,0.060
'0:04.736',-0.105,0.055
'0:04.739',-0.110,0.055
'0:04.742',-0.120,0.035
'0:04.744',-0.120,0.035
'0:04.747',-0.120,0.030
'0:04.750',-0.115,0.020
'0:04.753',-0.125,0.020
'0:04.756',-0.130,0.045
'0:04.758',-0.125,0.050
'0:04.761',-0.110,0.045
'0:04.764',-0.110,0.055
'0:04.767',-0.105,0.060
'0:04.769',-0.105,0.055
'0:04.772',-0.105,0.050
'0:04.775',-0.110,0.040
'0:04.778',-0.120,0.035
'0:04.781',-0.120,0.030
'0:04.783',-0.125,0.025
'0:04.786',-0.135,0.025
'0:04.789',-0.140,0.020
'0:04.792',-0.125,0.020
'0:04.794',-0.115,0.025
'0:04.797',-0.115,0.040
'0:04.800',-0.110,0.040
'0:04.803',-0.105,0.035
'0:04.806',-0.120,0.030
'0:04.808',-0.110,0.040
'0:04.811',-0.120,0.030
'0:04.814',-0.125,0.025
'0:04.817',-0.120,0.015
'0:04.819',-0.115,0.015
'0:04.822',-0.115,0.010
'0:04.825',-0.115,0.010
'0:04.828',-0.110,0.020
'0:04.831',-0.110,0.035
'0:04.833',-0.105,0.035
'0:04.836',-0.095,0.025
'0:04.839',-0.115,0.025
'0:04.842',-0.110,0.020
'0:04.844',-0.115,0.005
'0:04.847',-0.105,-0.005
'0:04.850',-0.125,-0.020
'0:04.853',-0.115,-0.015
'0:04.856',-0.110,-0.010
'0:04.858',-0.090,0.005
'0:04.861',-0.080,0.025
'0:04.864',-0.065,0.030
'0:04.867',-0.050,0.055
'0:04.869',-0.030,0.070
'0:04.872',-0.015,0.095
'0:04.875',-0.005,0.110
'0:04.878',0.005,0.130
'0:04.881',0.010,0.150
'0:04.883',0.010,0.170
'0:04.886',0.035,0.190
'0:04.889',0.045,0.185
'0:04.892',0.040,0.210
'0:04.894',0.065,0.205
'0:04.897',0.090,0.195
'0:04.900',0.135,0.195
'0:04.903',0.160,0.170
'0:04.906',0.190,0.145
'0:04.908',0.230,0.115
'0:04.911',0.235,0.080
'0:04.914',0.220,0.045
'0:04.917',0.210,0.030
'0:04.919',0.185,0.015
'0:04.922',0.165,0.015
'0:04.925',0.155,0.010
'0:04.928',0.160,0.005
'0:04.931',0.165,0.005
'0:04.933',0.180,-0.005
'0:04.936',0.190,-0.030
'0:04.939',0.170,-0.050
'0:04.942',0.160,-0.080
'0:04.944',0.130,-0.110
'0:04.947',0.090,-0.115
'0:04.950',0.060,-0.120
'0:04.953',0.025,-0.110
'0:04.956',-0.005,-0.095
'0:04.958',-0.040,-0.070
'0:04.961',-0.055,-0.045
'0:04.964',-0.060,-0.025
'0:04.967',-0.065,-0.020
'0:04.969',-0.095,-0.035
'0:04.972',-0.095,-0.020
'0:04.975',-0.105,-0.035
'0:04.978',-0.130,-0.030
'0:04.981',-0.145,-0.050
'0:04.983',-0.155,-0.045
'0:04.986',-0.150,-0.060
'0:04.989',-0.155,-0.060
'0:04.992',-0.145,-0.055
'0:04.994',-0.120,-0.055
'0:04.997',-0.125,-0.050
'0:05.000',-0.120,-0.045
'0:05.003',-0.110,-0.040
'0:05.006',-0.105,-0.035
'0:05.008',-0.100,-0.050
'0:05.011',-0.100,-0.050
'0:05.014',-0.110,-0.040
'0:05.017',-0.090,-0.005
'0:05.019',-0.065,0.050
'0:05.022',-0.020,0.110
'0:05.025',0.085,0.140
'0:05.028',0.240,0.130
'0:05.031',0.430,0.055
'0:05.033',0.625,-0.070
'0:05.036',0.835,-0.245
'0:05.039',1.010,-0.460
'0:05.042',1.175,-0.735
'0:05.044',1.330,-1.060
'0:05.047',1.465,-1.420
'0:05.050',1.570,-1.795
'0:05.053',1.625,-2.115
'0:05.056',1.635,-2.320
'0:05.058',1.575,-2.390
'0:05.061',1.470,-2.350
'0:05.064',1.320,-2.240
'0:05.067',1.095,-2.085
'0:05.069',0.835,-1.895
'0:05.072',0.555,-1.655
'0:05.075',0.335,-1.400
'0:05.078',0.140,-1.125
'0:05.081',0.040,-0.885
'0:05.083',-0.050,-0.705
'0:05.086',-0.085,-0.575
'0:05.089',-0.105,-0.480
'0:05.092',-0.130,-0.390
'0:05.094',-0.155,-0.310
'0:05.097',-0.190,-0.220
'0:05.100',-0.220,-0.140
'0:05.103',-0.245,-0.075
'0:05.106',-0.255,-0.035
'0:05.108',-0.270,-0.010
'0:05.111',-0.280,-0.005
'0:05.114',-0.285,0.000
'0:05.117',-0.295,0.010
'0:05.119',-0.295,0.020
'0:05.122',-0.295,0.025
'0:05.125',-0.295,0.050
'0:05.128',-0.295,0.075
'0:05.131',-0.285,0.095
'0:05.133',-0.290,0.100
'0:05.136',-0.285,0.105
'0:05.139',-0.290,0.110
'0:05.142',-0.290,0.115
'0:05.144',-0.300,0.105
'0:05.147',-0.305,0.125
'0:05.150',-0.320,0.120
'0:05.153',-0.315,0.125
'0:05.156',-0.320,0.140
'0:05.158',-0.305,0.155
'0:05.161',-0.315,0.170
'0:05.164',-0.305,0.180
'0:05.167',-0.310,0.185
'0:05.169',-0.315,0.180
'0:05.172',-0.315,0.190
'0:05.175',-0.310,0.195
'0:05.178',-0.330,0.195
'0:05.181',-0.335,0.195
'0:05.183',-0.340,0.205
'0:05.186',-0.350,0.220
'0:05.189',-0.355,0.230
'0:05.192',-0.360,0.240
'0:05.194',-0.365,0.250
'0:05.197',-0.370,0.270
'0:05.200',-0.365,0.270
'0:05.203',-0.355,0.290
'0:05.206',-0.360,0.295
'0:05.208',-0.380,0.295
'0:05.211',-0.400,0.295
'0:05.214',-0.410,0.300
'0:05.217',-0.435,0.290
'0:05.219',-0.465,0.305
'0:05.222',-0.470,0.315
'0:05.225',-0.475,0.330
'0:05.228',-0.490,0.345
'0:05.231',-0.495,0.365
'0:05.233',-0.500,0.390
'0:05.236',-0.510,0.390
'0:05.239',-0.520,0.385
'0:05.242',-0.535,0.390
'0:05.244',-0.550,0.395
'0:05.247',-0.560,0.390
'0:05.250',-0.575,0.390
'0:05.253',-0.590,0.405
'0:05.256',-0.605,0.420
'0:05.258',-0.605,0.425
'0:05.261',-0.620,0.450
'0:05.264',-0.625,0.440
'0:05.267',-0.610,0.450
'0:05.269',-0.585,0.440
'0:05.272',-0.580,0.435
'0:05.275',-0.580,0.425
'0:05.278',-0.570,0.425
'0:05.281',-0.565,0.410
'0:05.283',-0.560,0.405
'0:05.286',-0.550,0.390
'0:05.289',-0.530,0.395
'0:05.292',-0.510,0.375
'0:05.294',-0.490,0.370
'0:05.297',-0.470,0.365
'0:05.300',-0.430,0.355
'0:05.303',-0.395,0.320
'0:05.306',-0.385,0.305
'0:05.308',-0.350,0.290
'0:05.311',-0.335,0.265
'0:05.314',-0.315,0.245
'0:05.317',-0.305,0.205
'0:05.319',-0.285,0.200
'0:05.322',-0.255,0.170
'0:05.325',-0.230,0.150
'0:05.328',-0.200,0.140
'0:05.331',-0.175,0.135
'0:05.333',-0.150,0.125
'0:05.336',-0.130,0.105
'0:05.339',-0.125,0.080
'0:05.342',-0.100,0.065
'0:05.344',-0.110,0.055
'0:05.347',-0.110,0.035
'0:05.350',-0.115,0.020
'0:05.353',-0.125,0.025
'0:05.356',-0.115,0.020
'0:05.358',-0.110,0.010
'0:05.361',-0.095,0.015
'0:05.364',-0.100,0.030
'0:05.367',-0.090,0.030
'0:05.369',-0.090,0.020
'0:05.372',-0.080,0.015
'0:05.375',-0.080,0.015
'0:05.378',-0.085,-0.005
'0:05.381',-0.085,-0.020
'0:05.383',-0.090,-0.025
'0:05.386',-0.100,-0.010
'0:05.389',-0.095,-0.015
'0:05.392',-0.090,0.005
'0:05.394',-0.085,0.020
'0:05.397',-0.090,0.020
'0:05.400',-0.080,0.025
'0:05.403',-0.090,0.010
'0:05.406',-0.085,0.015
'0:05.408',-0.095,-0.005
'0:05.411',-0.100,0.000
'0:05.414',-0.095,0.000
'0:05.417',-0.095,0.000
'0:05.419',-0.100,0.000
'0:05.422',-0.100,0.005
'0:05.425',-0.095,0.010
'0:05.428',-0.095,0.010
'0:05.431',-0.095,0.020
'0:05.433',-0.100,0.015
'0:05.436',-0.080,0.020
'0:05.439',-0.085,0.030
'0:05.442',-0.080,0.020
'0:05.444',-0.085,0.015
'0:05.447',-0.090,0.015
'0:05.450',-0.095,0.020
'0:05.453',-0.100,0.025
'0:05.456',-0.090,0.025
'0:05.458',-0.075,0.035
'0:05.461',-0.060,0.030
'0:05.464',-0.050,0.055
'0:05.467',-0.045,0.075
'0:05.469',-0.015,0.085
'0:05.472',-0.005,0.110
'0:05.475',0.020,0.135
'0:05.478',0.040,0.145
'0:05.481',0.050,0.170
'0:05.483',0.070,0.170
'0:05.486',0.075,0.180
'0:05.489',0.090,0.190
'0:05.492',0.110,0.190
'0:05.494',0.120,0.200
'0:05.497',0.155,0.195
'0:05.500',0.185,0.185
'0:05.503',0.235,0.155
'0:05.506',0.240,0.120
'0:05.508',0.255,0.060
'0:05.511',0.245,0.030
'0:05.514',0.225,0.005
'0:05.517',0.195,-0.025
'0:05.519',0.185,-0.030
'0:05.522',0.165,-0.020
'0:05.525',0.155,-0.020
'0:05.528',0.190,-0.020
'0:05.531',0.190,-0.040
'0:05.533',0.195,-0.060
'0:05.536',0.180,-0.090
'0:05.539',0.155,-0.100
'0:05.542',0.125,-0.115
'0:05.544',0.085,-0.115
'0:05.547',0.050,-0.110
'0:05.550',0.015,-0.085
'0:05.553',0.005,-0.060
'0:05.556',-0.025,-0.050
'0:05.558',-0.020,-0.040
'0:05.561',-0.035,-0.040
'0:05.564',-0.045,-0.035
'0:05.567',-0.060,-0.045
'0:05.569',-0.070,-0.040
'0:05.572',-0.080,-0.035
'0:05.575',-0.090,-0.035
'0:05.578',-0.100,-0.050
'0:05.581',-0.105,-0.050
'0:05.583',-0.105,-0.055
'0:05.586',-0.110,-0.055
'0:05.589',-0.100,-0.065
'0:05.592',-0.100,-0.065
'0:05.594',-0.085,-0.065
'0:05.597',-0.075,-0.055
'0:05.600',-0.065,-0.045
'0:05.603',-0.065,-0.040
'0:05.606',-0.075,-0.035
'0:05.608',-0.075,-0.045
'0:05.611',-0.095,-0.040
'0:05.614',-0.085,-0.020
'0:05.617',-0.070,0.010
'0:05.619',-0.040,0.060
'0:05.622',0.025,0.100
'0:05.625',0.155,0.125
'0:05.628',0.295,0.120
'0:05.631',0.490,0.050
'0:05.633',0.695,-0.085
'0:05.636',0.900,-0.265
'0:05.639',1.080,-0.490
'0:05.642',1.255,-0.795
'0:05.644',1.410,-1.155
'0:05.647',1.515,-1.550
'0:05.650',1.600,-1.925
'0:05.653',1.635,-2.210
'0:05.656',1.610,-2.370
'0:05.658',1.540,-2.400
'0:05.661',1.415,-2.330
'0:05.664',1.225,-2.210
'0:05.667',1.015,-2.020
'0:05.669',0.740,-1.815
'0:05.672',0.485,-1.555
'0:05.675',0.280,-1.290
'0:05.678',0.115,-1.050
'0:05.681',0.025,-0.810
'0:05.683',-0.030,-0.650
'0:05.686',-0.080,-0.545
'0:05.689',-0.085,-0.465
'0:05.692',-0.095,-0.400
'0:05.694',-0.125,-0.325
'0:05.697',-0.150,-0.245
'0:05.700',-0.185,-0.180
'0:05.703',-0.205,-0.120
'0:05.706',-0.230,-0.065
'0:05.708',-0.225,-0.035
'0:05.711',-0.230,-0.020
'0:05.714',-0.230,-0.015
'0:05.717',-0.240,-0.020
'0:05.719',-0.255,-0.010
'0:05.722',-0.255,0.005
'0:05.725',-0.260,0.010
'0:05.728',-0.260,0.025
'0:05.731',-0.260,0.050
'0:05.733',-0.255,0.065
'0:05.736',-0.255,0.075
'0:05.739',-0.250,0.080
'0:05.742',-0.260,0.080
'0:05.744',-0.265,0.090
'0:05.747',-0.265,0.085
'0:05.750',-0.260,0.075
'0:05.753',-0.280,0.090
'0:05.756',-0.280,0.110
'0:05.758',-0.285,0.120
'0:05.761',-0.270,0.130
'0:05.764',-0.260,0.145
'0:05.767',-0.265,0.160
'0:05.769',-0.260,0.155
'0:05.772',-0.270,0.165
'0:05.775',-0.280,0.165
'0:05.778',-0.290,0.170
'0:05.781',-0.300,0.175
'0:05.783',-0.305,0.170
'0:05.786',-0.310,0.185
'0:05.789',-0.325,0.195
'0:05.792',-0.340,0.215
'0:05.794',-0.340,0.240
'0:05.797',-0.320,0.250
'0:05.800',-0.325,0.255
'0:05.803',-0.325,0.260
'0:05.806',-0.345,0.265
'0:05.808',-0.345,0.270
'0:05.811',-0.365,0.290
'0:05.814',-0.375,0.300
'0:05.817',-0.400,0.300
'0:05.819',-0.410,0.315
'0:05.822',-0.420,0.325
'0:05.825',-0.435,0.345
'0:05.828',-0.445,0.355
'0:05.831',-0.455,0.385
'0:05.833',-0.460,0.405
'0:05.836',-0.470,0.415
'0:05.839',-0.475,0.410
'0:05.842',-0.495,0.425
'0:05.844',-0.500,0.410
'0:05.847',-0.520,0.410
'0:05.850',-0.525,0.410
'0:05.853',-0.540,0.420
'0:05.856',-0.540,0.425
'0:05.858',-0.560,0.435
'0:05.861',-0.540,0.455
'0:05.864',-0.525,0.460
'0:05.867',-0.525,0.465
'0:05.869',-0.515,0.470
'0:05.872',-0.500,0.460
'0:05.875',-0.490,0.440
'0:05.878',-0.490,0.435
'0:05.881',-0.475,0.405
'0:05.883',-0.465,0.385
'0:05.886',-0.450,0.355
'0:05.889',-0.440,0.350
'0:05.892',-0.400,0.335
'0:05.894',-0.375,0.325
'0:05.897',-0.350,0.295
'0:05.900',-0.320,0.280
'0:05.903',-0.300,0.230
'0:05.906',-0.285,0.215
'0:05.908',-0.270,0.185
'0:05.911',-0.260,0.155
'0:05.914',-0.260,0.120
'0:05.917',-0.245,0.095
'0:05.919',-0.245,0.075
'0:05.922',-0.235,0.060
'0:05.925',-0.215,0.060
'0:05.928',-0.205,0.050
'0:05.931',-0.200,0.035
'0:05.933',-0.190,0.025
'0:05.936',-0.190,0.015
'0:05.939',-0.180,0.010
'0:05.942',-0.190,0.000
'0:05.944',-0.185,-0.010
'0:05.947',-0.190,-0.020
'0:05.950',-0.205,-0.025
'0:05.953',-0.200,-0.045
'0:05.956',-0.195,-0.030
'0:05.958',-0.205,-0.030
'0:05.961',-0.160,-0.030
'0:05.964',-0.150,-0.015
'0:05.967',-0.125,-0.010
'0:05.969',-0.085,0.000
'0:05.972',-0.065,-0.015
'0:05.975',-0.020,-0.020
'0:05.978',0.030,-0.030
'0:05.981',0.080,-0.050
'0:05.983',0.140,-0.060
'0:05.986',0.195,-0.065
'0:05.989',0.280,-0.065
'0:05.992',0.360,-0.055
'0:05.994',0.480,-0.070
'0:05.997',0.590,-0.080
'0:06.000',0.680,-0.115
'0:06.003',0.700,-0.160
'0:06.006',0.620,-0.245
'0:06.008',0.390,-0.325
'0:06.011',0.000,-0.415
'0:06.014',-0.490,-0.485
'0:06.017',-1.015,-0.515
'0:06.019',-1.475,-0.515
'0:06.022',-1.835,-0.515
'0:06.025',-2.090,-0.520
'0:06.028',-2.240,-0.530
'0:06.031',-2.345,-0.535
'0:06.033',-2.400,-0.520
'0:06.036',-2.445,-0.455
'0:06.039',-2.455,-0.345
'0:06.042',-2.445,-0.205
'0:06.044',-2.430,-0.045
'0:06.047',-2.390,0.135
'0:06.050',-2.330,0.320
'0:06.053',-2.250,0.475
'0:06.056',-2.130,0.630
'0:06.058',-2.015,0.770
'0:06.061',-1.890,0.885
'0:06.064',-1.770,0.995
'0:06.067',-1.670,1.055
'0:06.069',-1.600,1.100
'0:06.072',-1.545,1.135
'0:06.075',-1.480,1.150
'0:06.078',-1.400,1.115
'0:06.081',-1.280,1.025
'0:06.083',-1.160,0.850
'0:06.086',-1.040,0.605
'0:06.089',-0.955,0.320
'0:06.092',-0.890,0.030
'0:06.094',-0.850,-0.230
'0:06.097',-0.820,-0.425
'0:06.100',-0.775,-0.550
'0:06.103',-0.715,-0.580
'0:06.106',-0.615,-0.550
'0:06.108',-0.470,-0.495
'0:06.111',-0.305,-0.440
'0:06.114',-0.155,-0.395
'0:06.117',-0.015,-0.345
'0:06.119',0.065,-0.305
'0:06.122',0.105,-0.285
'0:06.125',0.125,-0.240
'0:06.128',0.115,-0.220
'0:06.131',0.095,-0.205
'0:06.133',0.095,-0.195
'0:06.136',0.110,-0.185
'0:06.139',0.120,-0.180
'0:06.142',0.145,-0.175
'0:06.144',0.145,-0.175
'0:06.147',0.160,-0.180
'0:06.150',0.170,-0.175
'0:06.153',0.170,-0.185
'0:06.156',0.185,-0.190
'0:06.158',0.210,-0.185
'0:06.161',0.215,-0.185
'0:06.164',0.235,-0.165
'0:06.167',0.255,-0.175
'0:06.169',0.285,-0.175
'0:06.172',0.295,-0.175
'0:06.175',0.305,-0.195
'0:06.178',0.310,-0.205
'0:06.181',0.315,-0.220
'0:06.183',0.330,-0.215
'0:06.186',0.345,-0.220
'0:06.189',0.360,-0.205
'0:06.192',0.385,-0.200
'0:06.194',0.410,-0.200
'0:06.197',0.430,-0.185
'0:06.200',0.470,-0.195
'0:06.203',0.505,-0.200
'0:06.206',0.500,-0.195
'0:06.208',0.520,-0.210
'0:06.211',0.550,-0.225
'0:06.214',0.565,-0.220
'0:06.217',0.570,-0.225
'0:06.219',0.575,-0.230
'0:06.222',0.600,-0.240
'0:06.225',0.610,-0.250
'0:06.228',0.615,-0.245
'0:06.231',0.635,-0.245
'0:06.233',0.650,-0.255
'0:06.236',0.650,-0.260
'0:06.239',0.655,-0.260
'0:06.242',0.645,-0.265
'0:06.244',0.625,-0.280
'0:06.247',0.600,-0.300
'0:06.250',0.575,-0.305
'0:06.253',0.555,-0.315
'0:06.256',0.535,-0.325
'0:06.258',0.520,-0.330
'0:06.261',0.505,-0.330
'0:06.264',0.465,-0.325
'0:06.267',0.435,-0.315
'0:06.269',0.405,-0.320
'0:06.272',0.360,-0.335
'0:06.275',0.300,-0.330
'0:06.278',0.240,-0.345
'0:06.281',0.200,-0.345
'0:06.283',0.155,-0.335
'0:06.286',0.120,-0.310
'0:06.289',0.070,-0.305
'0:06.292',0.040,-0.275
'0:06.294',0.015,-0.260
'0:06.297',-0.020,-0.235
'0:06.300',-0.050,-0.230
'0:06.303',-0.085,-0.205
'0:06.306',-0.120,-0.195
'0:06.308',-0.160,-0.175
'0:06.311',-0.190,-0.160
'0:06.314',-0.220,-0.155
'0:06.317',-0.260,-0.130
'0:06.319',-0.305,-0.115
'0:06.322',-0.335,-0.090
'0:06.325',-0.360,-0.080
'0:06.328',-0.370,-0.065
'0:06.331',-0.380,-0.050
'0:06.333',-0.390,-0.035
'0:06.336',-0.395,-0.020
'0:06.339',-0.410,-0.030
'0:06.342',-0.430,-0.035
'0:06.344',-0.450,-0.035
'0:06.347',-0.470,-0.025
'0:06.350',-0.490,-0.010
'0:06.353',-0.510,-0.015
'0:06.356',-0.515,-0.015
'0:06.358',-0.515,-0.010
'0:06.361',-0.505,-0.015
'0:06.364',-0.515,-0.020
'0:06.367',-0.520,-0.005
'0:06.369',-0.510,-0.010
'0:06.372',-0.525,-0.005
'0:06.375',-0.525,0.000
'0:06.378',-0.540,0.000
'0:06.381',-0.550,0.000
'0:06.383',-0.565,-0.010
'0:06.386',-0.570,-0.015
'0:06.389',-0.570,-0.020
'0:06.392',-0.585,-0.020
'0:06.394',-0.575,-0.015
'0:06.397',-0.560,0.000
'0:06.400',-0.565,0.015
'0:06.403',-0.560,0.010
'0:06.406',-0.565,0.015
'0:06.408',-0.560,0.005
'0:06.411',-0.570,0.005
'0:06.414',-0.565,-0.020
'0:06.417',-0.570,-0.035
'0:06.419',-0.580,-0.035
'0:06.422',-0.580,-0.035
'0:06.425',-0.600,-0.025
'0:06.428',-0.600,0.010
'0:06.431',-0.625,0.015
'0:06.433',-0.625,0.030
'0:06.436',-0.620,0.025
'0:06.439',-0.625,-0.005
'0:06.442',-0.610,-0.005
'0:06.444',-0.620,-0.025
'0:06.447',-0.630,-0.030
'0:06.450',-0.635,-0.035
'0:06.453',-0.665,-0.020
'0:06.456',-0.675,0.005
'0:06.458',-0.675,0.010
'0:06.461',-0.670,0.035
'0:06.464',-0.670,0.045
'0:06.467',-0.670,0.035
'0:06.469',-0.655,0.015
'0:06.472',-0.660,0.010
'0:06.475',-0.675,0.000
'0:06.478',-0.690,0.005
'0:06.481',-0.685,-0.010
'0:06.483',-0.695,0.000
'0:06.486',-0.690,-0.005
'0:06.489',-0.695,0.005
'0:06.492',-0.695,0.000
'0:06.494',-0.685,0.005
'0:06.497',-0.695,-0.015
'0:06.500',-0.685,-0.015
'0:06.503',-0.690,-0.015
'0:06.506',-0.705,-0.025
'0:06.508',-0.705,-0.025
'0:06.511',-0.720,-0.020
'0:06.514',-0.725,-0.010
'0:06.517',-0.735,-0.020
'0:06.519',-0.750,-0.015
'0:06.522',-0.740,0.000
'0:06.525',-0.735,-0.015
'0:06.528',-0.720,0.015
'0:06.531',-0.705,0.000
'0:06.533',-0.690,-0.010
'0:06.536',-0.685,-0.010
'0:06.539',-0.710,-0.010
'0:06.542',-0.725,-0.005
'0:06.544',-0.740,-0.010
'0:06.547',-0.755,-0.015
'0:06.550',-0.765,-0.045
'0:06.553',-0.765,-0.080
'0:06.556',-0.765,-0.080
'0:06.558',-0.770,-0.065
'0:06.561',-0.765,-0.020
'0:06.564',-0.770,0.020
'0:06.567',-0.770,0.045
'0:06.569',-0.780,0.030
'0:06.572',-0.785,0.005
'0:06.575',-0.800,-0.020
'0:06.578',-0.800,-0.030
'0:06.581',-0.795,-0.040
'0:06.583',-0.805,-0.055
'0:06.586',-0.800,-0.050
'0:06.589',-0.785,-0.030
'0:06.592',-0.795,-0.015
'0:06.594',-0.790,0.005
'0:06.597',-0.785,0.015
'0:06.600',-0.790,0.030
'0:06.603',-0.795,0.030
'0:06.606',-0.795,0.035
'0:06.608',-0.780,0.005
'0:06.611',-0.780,0.000
'0:06.614',-0.785,0.005
'0:06.617',-0.790,0.015
'0:06.619',-0.810,0.015
'0:06.622',-0.825,0.015
'0:06.625',-0.830,0.000
'0:06.628',-0.825,0.010
'0:06.631',-0.800,0.025
'0:06.633',-0.780,0.065
'0:06.636',-0.735,0.105
'0:06.639',-0.715,0.160
'0:06.642',-0.715,0.205
'0:06.644',-0.725,0.220
'0:06.647',-0.730,0.235
'0:06.650',-0.730,0.215
'0:06.653',-0.725,0.215
'0:06.656',-0.705,0.200
'0:06.658',-0.665,0.205
'0:06.661',-0.645,0.210
'0:06.664',-0.610,0.195
'0:06.667',-0.580,0.170
'0:06.669',-0.575,0.150
'0:06.672',-0.555,0.130
'0:06.675',-0.565,0.120
'0:06.678',-0.585,0.090
'0:06.681',-0.585,0.070
'0:06.683',-0.585,0.060
'0:06.686',-0.590,0.035
'0:06.689',-0.580,0.030
'0:06.692',-0.590,0.015
'0:06.694',-0.605,0.010
'0:06.697',-0.655,0.005
'0:06.700',-0.675,-0.005
'0:06.703',-0.720,-0.015
'0:06.706',-0.760,-0.015
'0:06.708',-0.800,-0.015
'0:06.711',-0.840,0.015
'0:06.714',-0.855,0.040
'0:06.717',-0.865,0.065
'0:06.719',-0.890,0.055
'0:06.722',-0.900,0.040
'0:06.725',-0.905,0.025
'0:06.728',-0.905,0.010
'0:06.731',-0.905,0.020
'0:06.733',-0.905,0.010
'0:06.736',-0.900,0.010
'0:06.739',-0.910,0.020
'0:06.742',-0.920,0.005
'0:06.744',-0.935,0.005
'0:06.747',-0.945,0.005
'0:06.750',-0.960,0.005
'0:06.753',-0.940,0.005
'0:06.756',-0.940,0.020
'0:06.758',-0.940,0.020
'0:06.761',-0.930,0.020
'0:06.764',-0.930,0.050
'0:06.767',-0.910,0.090
'0:06.769',-0.870,0.130
'0:06.772',-0.840,0.160
'0:06.775',-0.720,0.180
'0:06.778',-0.565,0.170
'0:06.781',-0.360,0.110
'0:06.783',-0.125,0.040
'0:06.786',0.095,-0.095
'0:06.789',0.320,-0.280
'0:06.792',0.520,-0.495
'0:06.794',0.705,-0.760
'0:06.797',0.870,-1.060
'0:06.800',1.005,-1.385
'0:06.803',1.080,-1.670
'0:06.806',1.090,-1.855
'0:06.808',1.025,-1.955
'0:06.811',0.850,-1.960
'0:06.814',0.595,-1.860
'0:06.817',0.260,-1.725
'0:06.819',-0.115,-1.505
'0:06.822',-0.465,-1.280
'0:06.825',-0.720,-1.045
'0:06.828',-0.870,-0.820
'0:06.831',-0.920,-0.625
'0:06.833',-0.910,-0.485
'0:06.836',-0.890,-0.385
'0:06.839',-0.885,-0.315
'0:06.842',-0.890,-0.250
'0:06.844',-0.930,-0.190
'0:06.847',-0.975,-0.125
'0:06.850',-1.030,-0.070
'0:06.853',-1.065,-0.015
'0:06.856',-1.075,0.010
'0:06.858',-1.080,0.050
'0:06.861',-1.080,0.075
'0:06.864',-1.080,0.100
'0:06.867',-1.065,0.105
'0:06.869',-1.055,0.125
'0:06.872',-1.070,0.135
'0:06.875',-1.070,0.145
'0:06.878',-1.090,0.150
'0:06.881',-1.120,0.135
'0:06.883',-1.125,0.130
'0:06.886',-1.135,0.135
'0:06.889',-1.125,0.155
'0:06.892',-1.120,0.165
'0:06.894',-1.110,0.185
'0:06.897',-1.105,0.200
'0:06.900',-1.110,0.215
'0:06.903',-1.100,0.205
'0:06.906',-1.100,0.215
'0:06.908',-1.105,0.210
'0:06.911',-1.115,0.195
'0:06.914',-1.125,0.205
'0:06.917',-1.135,0.205
'0:06.919',-1.145,0.220
'0:06.922',-1.145,0.230
'0:06.925',-1.125,0.245
'0:06.928',-1.130,0.240
'0:06.931',-1.105,0.260
'0:06.933',-1.105,0.255
'0:06.936',-1.120,0.255
'0:06.939',-1.125,0.255
'0:06.942',-1.130,0.260
'0:06.944',-1.140,0.260
'0:06.947',-1.160,0.270
'0:06.950',-1.160,0.285
'0:06.953',-1.195,0.310
'0:06.956',-1.180,0.295
'0:06.958',-1.190,0.310
'0:06.961',-1.190,0.325
'0:06.964',-1.195,0.325
'0:06.967',-1.195,0.345
'0:06.969',-1.195,0.355
'0:06.972',-1.205,0.355
'0:06.975',-1.225,0.360
'0:06.978',-1.245,0.355
'0:06.981',-1.255,0.360
'0:06.983',-1.270,0.365
'0:06.986',-1.305,0.365
'0:06.989',-1.300,0.380
'0:06.992',-1.320,0.395
'0:06.994',-1.325,0.405
'0:06.997',-1.320,0.425
'0:07.000',-1.325,0.435
'0:07.003',-1.340,0.450
'0:07.006',-1.350,0.450
'0:07.008',-1.380,0.450
'0:07.011',-1.380,0.440
'0:07.014',-1.390,0.445
'0:07.017',-1.410,0.430
'0:07.019',-1.420,0.440
'0:07.022',-1.425,0.435
'0:07.025',-1.435,0.460
'0:07.028',-1.435,0.470
'0:07.031',-1.430,0.490
'0:07.033',-1.425,0.500
'0:07.036',-1.425,0.495
'0:07.039',-1.425,0.500
'0:07.042',-1.420,0.485
'0:07.044',-1.415,0.460
'0:07.047',-1.395,0.450
'0:07.050',-1.385,0.440
'0:07.053',-1.370,0.435
'0:07.056',-1.345,0.435
'0:07.058',-1.340,0.440
'0:07.061',-1.310,0.440
'0:07.064',-1.280,0.430
'0:07.067',-1.250,0.420
'0:07.069',-1.220,0.395
'0:07.072',-1.190,0.375
'0:07.075',-1.155,0.355
'0:07.078',-1.130,0.325
'0:07.081',-1.100,0.310
'0:07.083',-1.080,0.290
'0:07.086',-1.060,0.275
'0:07.089',-1.030,0.255
'0:07.092',-1.010,0.250
'0:07.094',-0.980,0.235
'0:07.097',-0.950,0.220
'0:07.100',-0.940,0.205
'0:07.103',-0.900,0.205
'0:07.106',-0.905,0.195
'0:07.108',-0.880,0.175
'0:07.111',-0.855,0.175
'0:07.114',-0.865,0.165
'0:07.117',-0.870,0.150
'0:07.119',-0.880,0.140
'0:07.122',-0.870,0.140
'0:07.125',-0.860,0.145
'0:07.128',-0.865,0.150
'0:07.131',-0.855,0.155
'0:07.133',-0.855,0.165
'0:07.136',-0.845,0.160
'0:07.139',-0.860,0.155
'0:07.142',-0.860,0.140
'0:07.144',-0.860,0.140
'0:07.147',-0.845,0.145
'0:07.150',-0.855,0.125
'0:07.153',-0.855,0.135
'0:07.156',-0.855,0.130
'0:07.158',-0.855,0.140
'0:07.161',-0.845,0.155
'0:07.164',-0.840,0.165
'0:07.167',-0.830,0.175
'0:07.169',-0.815,0.165
'0:07.172',-0.805,0.160
'0:07.175',-0.800,0.140
'0:07.178',-0.800,0.140
'0:07.181',-0.820,0.120
'0:07.183',-0.830,0.135
'0:07.186',-0.845,0.155
'0:07.189',-0.840,0.165
'0:07.192',-0.835,0.175
'0:07.194',-0.830,0.195
'0:07.197',-0.825,0.190
'0:07.200',-0.815,0.180
'0:07.203',-0.825,0.175
'0:07.206',-0.805,0.165
'0:07.208',-0.795,0.170
'0:07.211',-0.805,0.175
'0:07.214',-0.800,0.170
'0:07.217',-0.805,0.175
'0:07.219',-0.800,0.175
'0:07.222',-0.795,0.185
'0:07.225',-0.790,0.190
'0:07.228',-0.780,0.185
'0:07.231',-0.760,0.190
'0:07.233',-0.750,0.200
'0:07.236',-0.745,0.225
'0:07.239',-0.730,0.230
'0:07.242',-0.715,0.270
'0:07.244',-0.695,0.285
'0:07.247',-0.685,0.285
'0:07.250',-0.675,0.300
'0:07.253',-0.665,0.300
'0:07.256',-0.645,0.295
'0:07.258',-0.650,0.300
'0:07.261',-0.635,0.305
'0:07.264',-0.610,0.315
'0:07.267',-0.585,0.330
'0:07.269',-0.545,0.325
'0:07.272',-0.510,0.285
'0:07.275',-0.485,0.260
'0:07.278',-0.470,0.230
'0:07.281',-0.475,0.185
'0:07.283',-0.480,0.155
'0:07.286',-0.505,0.125
'0:07.289',-0.520,0.130
'0:07.292',-0.525,0.150
'0:07.294',-0.515,0.155
'0:07.297',-0.510,0.165
'0:07.300',-0.500,0.155
'0:07.303',-0.490,0.140
'0:07.306',-0.495,0.120
'0:07.308',-0.505,0.095
'0:07.311',-0.545,0.070
'0:07.314',-0.580,0.045
'0:07.317',-0.605,0.040
'0:07.319',-0.640,0.050
'0:07.322',-0.655,0.070
'0:07.325',-0.665,0.085
'0:07.328',-0.685,0.125
'0:07.331',-0.695,0.135
'0:07.333',-0.700,0.140
'0:07.336',-0.720,0.130
'0:07.339',-0.730,0.130
'0:07.342',-0.745,0.120
'0:07.344',-0.750,0.105
'0:07.347',-0.765,0.100
'0:07.350',-0.770,0.100
'0:07.353',-0.770,0.100
'0:07.356',-0.765,0.105
'0:07.358',-0.765,0.110
'0:07.361',-0.760,0.110
'0:07.364',-0.755,0.105
'0:07.367',-0.750,0.105
'0:07.369',-0.740,0.100
'0:07.372',-0.735,0.110
'0:07.375',-0.720,0.110
'0:07.378',-0.720,0.110
'0:07.381',-0.720,0.120
'0:07.383',-0.730,0.140
'0:07.386',-0.705,0.185
'0:07.389',-0.645,0.215
'0:07.392',-0.560,0.260
'0:07.394',-0.410,0.270
'0:07.397',-0.215,0.235
'0:07.400',0.010,0.155
'0:07.403',0.265,0.035
'0:07.406',0.480,-0.155
'0:07.408',0.695,-0.400
'0:07.411',0.885,-0.720
'0:07.414',1.050,-1.065
'0:07.417',1.180,-1.440
'0:07.419',1.265,-1.760
'0:07.422',1.280,-1.960
'0:07.425',1.210,-2.055
'0:07.428',1.070,-2.025
'0:07.431',0.850,-1.910
'0:07.433',0.535,-1.730
'0:07.436',0.175,-1.515
'0:07.439',-0.190,-1.270
'0:07.442',-0.440,-1.015
'0:07.444',-0.620,-0.795
'0:07.447',-0.710,-0.600
'0:07.450',-0.745,-0.470
'0:07.453',-0.725,-0.360
'0:07.456',-0.720,-0.280
'0:07.458',-0.725,-0.200
'0:07.461',-0.740,-0.120
'0:07.464',-0.770,-0.035
'0:07.467',-0.785,0.035
'0:07.469',-0.815,0.090
'0:07.472',-0.820,0.135
'0:07.475',-0.815,0.135
'0:07.478',-0.820,0.140
'0:07.481',-0.830,0.145
'0:07.483',-0.835,0.165
'0:07.486',-0.850,0.165
'0:07.489',-0.845,0.165
'0:07.492',-0.850,0.185
'0:07.494',-0.840,0.200
'0:07.497',-0.835,0.210
'0:07.500',-0.820,0.215
'0:07.503',-0.815,0.230
'0:07.506',-0.825,0.240
'0:07.508',-0.835,0.230
'0:07.511',-0.835,0.235
'0:07.514',-0.840,0.235
'0:07.517',-0.845,0.230
'0:07.519',-0.855,0.235
'0:07.522',-0.845,0.245
'0:07.525',-0.840,0.250
'0:07.528',-0.855,0.270
'0:07.531',-0.850,0.290
'0:07.533',-0.845,0.295
'0:07.536',-0.845,0.315
'0:07.539',-0.835,0.295
'0:07.542',-0.850,0.295
'0:07.544',-0.865,0.290
'0:07.547',-0.850,0.300
'0:07.550',-0.860,0.315
'0:07.553',-0.865,0.325
'0:07.556',-0.875,0.340
'0:07.558',-0.865,0.345
'0:07.561',-0.855,0.365
'0:07.564',-0.855,0.375
'0:07.567',-0.855,0.385
'0:07.569',-0.875,0.390
'0:07.572',-0.875,0.400
'0:07.575',-0.900,0.415
'0:07.578',-0.905,0.415
'0:07.581',-0.915,0.430
'0:07.583',-0.930,0.435
'0:07.586',-0.955,0.435
'0:07.589',-0.945,0.435
'0:07.592',-0.960,0.450
'0:07.594',-0.960,0.465
'0:07.597',-0.970,0.475
'0:07.600',-0.965,0.495
'0:07.603',-0.975,0.515
'0:07.606',-0.965,0.505
'0:07.608',-0.980,0.515
'0:07.611',-0.990,0.520
'0:07.614',-1.010,0.520
'0:07.617',-1.025,0.535
'0:07.619',-1.025,0.525
'0:07.622',-1.015,0.515
'0:07.625',-1.005,0.540
'0:07.628',-1.000,0.550
'0:07.631',-1.000,0.565
'0:07.633',-0.990,0.565
'0:07.636',-0.980,0.575
'0:07.639',-0.970,0.560
'0:07.642',-0.955,0.540
'0:07.644',-0.945,0.515
'0:07.647',-0.940,0.505
'0:07.650',-0.915,0.490
'0:07.653',-0.905,0.480
'0:07.656',-0.870,0.450
'0:07.658',-0.845,0.455
'0:07.661',-0.810,0.440
'0:07.664',-0.785,0.415
'0:07.667',-0.750,0.395
'0:07.669',-0.720,0.370
'0:07.672',-0.700,0.345
'0:07.675',-0.690,0.315
'0:07.678',-0.680,0.300
'0:07.681',-0.665,0.270
'0:07.683',-0.665,0.255
'0:07.686',-0.650,0.240
'0:07.689',-0.640,0.230
'0:07.692',-0.630,0.220
'0:07.694',-0.620,0.220
'0:07.697',-0.605,0.210
'0:07.700',-0.600,0.200
'0:07.703',-0.585,0.180
'0:07.706',-0.590,0.180
'0:07.708',-0.595,0.160
'0:07.711',-0.585,0.170
'0:07.714',-0.600,0.160
'0:07.717',-0.605,0.155
'0:07.719',-0.600,0.155
'0:07.722',-0.600,0.145
'0:07.725',-0.580,0.150
'0:07.728',-0.575,0.130
'0:07.731',-0.585,0.145
'0:07.733',-0.565,0.155
'0:07.736',-0.580,0.155
'0:07.739',-0.575,0.165
'0:07.742',-0.560,0.160
'0:07.744',-0.570,0.150
'0:07.747',-0.575,0.140
'0:07.750',-0.580,0.130
'0:07.753',-0.575,0.110
'0:07.756',-0.580,0.125
'0:07.758',-0.575,0.135
'0:07.761',-0.580,0.145
'0:07.764',-0.575,0.160
'0:07.767',-0.555,0.170
'0:07.769',-0.550,0.165
'0:07.772',-0.545,0.155
'0:07.775',-0.535,0.150
'0:07.778',-0.545,0.135
'0:07.781',-0.545,0.120
'0:07.783',-0.550,0.120
'0:07.786',-0.555,0.125
'0:07.789',-0.555,0.130
'0:07.792',-0.545,0.130
'0:07.794',-0.555,0.140
'0:07.797',-0.545,0.150
'0:07.800',-0.535,0.160
'0:07.803',-0.530,0.165
'0:07.806',-0.510,0.150
'0:07.808',-0.515,0.150
'0:07.811',-0.520,0.140
'0:07.814',-0.515,0.140
'0:07.817',-0.510,0.145
'0:07.819',-0.510,0.155
'0:07.822',-0.500,0.180
'0:07.825',-0.495,0.185
'0:07.828',-0.465,0.205
'0:07.831',-0.440,0.235
'0:07.833',-0.415,0.265
'0:07.836',-0.390,0.290
'0:07.839',-0.380,0.310
'0:07.842',-0.370,0.305
'0:07.844',-0.365,0.305
'0:07.847',-0.355,0.300
'0:07.850',-0.340,0.290
'0:07.853',-0.310,0.280
'0:07.856',-0.285,0.260
'0:07.858',-0.240,0.230
'0:07.861',-0.215,0.230
'0:07.864',-0.200,0.195
'0:07.867',-0.190,0.190
'0:07.869',-0.200,0.150
'0:07.872',-0.215,0.130
'0:07.875',-0.225,0.135
'0:07.878',-0.235,0.110
'0:07.881',-0.250,0.120
'0:07.883',-0.240,0.105
'0:07.886',-0.230,0.115
'0:07.889',-0.220,0.090
'0:07.892',-0.220,0.075
'0:07.894',-0.230,0.055
'0:07.897',-0.250,0.060
'0:07.900',-0.285,0.055
'0:07.903',-0.315,0.055
'0:07.906',-0.350,0.060
'0:07.908',-0.380,0.080
'0:07.911',-0.395,0.090
'0:07.914',-0.410,0.095
'0:07.917',-0.425,0.085
'0:07.919',-0.430,0.080
'0:07.922',-0.440,0.070
'0:07.925',-0.435,0.085
'0:07.928',-0.445,0.095
'0:07.931',-0.450,0.105
'0:07.933',-0.450,0.110
'0:07.936',-0.455,0.110
'0:07.939',-0.455,0.100
'0:07.942',-0.445,0.085
'0:07.944',-0.455,0.075
'0:07.947',-0.455,0.075
'0:07.950',-0.465,0.065
'0:07.953',-0.465,0.070
'0:07.956',-0.455,0.065
'0:07.958',-0.445,0.070
'0:07.961',-0.445,0.075
'0:07.964',-0.435,0.065
'0:07.967',-0.435,0.090
'0:07.969',-0.420,0.095
'0:07.972',-0.410,0.115
'0:07.975',-0.390,0.150
'0:07.978',-0.350,0.200
'0:07.981',-0.290,0.220
'0:07.983',-0.170,0.250
'0:07.986',-0.020,0.230
'0:07.989',0.190,0.160
'0:07.992',0.400,0.035
'0:07.994',0.630,-0.085
'0:07.997',0.820,-0.295
'0:08.000',1.020,-0.545
'0:08.003',1.200,-0.840
'0:08.006',1.355,-1.185
'0:08.008',1.485,-1.535
'0:08.011',1.560,-1.820
'0:08.014',1.575,-2.020
'0:08.017',1.515,-2.090
'0:08.019',1.400,-2.070
'0:08.022',1.225,-1.975
'0:08.025',0.975,-1.830
'0:08.028',0.660,-1.640
'0:08.031',0.325,-1.430
'0:08.033',0.055,-1.190
'0:08.036',-0.165,-0.950
'0:08.039',-0.300,-0.745
'0:08.042',-0.350,-0.605
'0:08.044',-0.370,-0.475
'0:08.047',-0.380,-0.390
'0:08.050',-0.385,-0.310
'0:08.053',-0.390,-0.240
'0:08.056',-0.425,-0.175
'0:08.058',-0.460,-0.100
'0:08.061',-0.520,-0.025
'0:08.064',-0.525,0.035
'0:08.067',-0.515,0.075
'0:08.069',-0.515,0.100
'0:08.072',-0.520,0.105
'0:08.075',-0.520,0.120
'0:08.078',-0.515,0.110
'0:08.081',-0.530,0.095
'0:08.083',-0.545,0.125
'0:08.086',-0.555,0.125
'0:08.089',-0.555,0.135
'0:08.092',-0.555,0.150
'0:08.094',-0.535,0.170
'0:08.097',-0.525,0.185
'0:08.100',-0.510,0.195
'0:08.103',-0.515,0.195
'0:08.106',-0.535,0.195
'0:08.108',-0.525,0.195
'0:08.111',-0.530,0.195
'0:08.114',-0.535,0.195
'0:08.117',-0.535,0.195
'0:08.119',-0.540,0.205
'0:08.122',-0.535,0.205
'0:08.125',-0.525,0.215
'0:08.128',-0.520,0.235
'0:08.131',-0.530,0.240
'0:08.133',-0.535,0.250
'0:08.136',-0.530,0.250
'0:08.139',-0.535,0.250
'0:08.142',-0.550,0.260
'0:08.144',-0.545,0.265
'0:08.147',-0.555,0.250
'0:08.150',-0.565,0.255
'0:08.153',-0.565,0.270
'0:08.156',-0.565,0.285
'0:08.158',-0.565,0.290
'0:08.161',-0.560,0.300
'0:08.164',-0.565,0.315
'0:08.167',-0.560,0.335
'0:08.169',-0.570,0.330
'0:08.172',-0.570,0.350
'0:08.175',-0.575,0.365
'0:08.178',-0.590,0.360
'0:08.181',-0.600,0.355
'0:08.183',-0.625,0.355
'0:08.186',-0.640,0.365
'0:08.189',-0.645,0.375
'0:08.192',-0.655,0.395
'0:08.194',-0.665,0.405
'0:08.197',-0.670,0.440
'0:08.200',-0.670,0.455
'0:08.203',-0.665,0.470
'0:08.206',-0.680,0.460
'0:08.208',-0.690,0.465
'0:08.211',-0.700,0.465
'0:08.214',-0.715,0.455
'0:08.217',-0.730,0.470
'0:08.219',-0.745,0.465
'0:08.222',-0.755,0.480
'0:08.225',-0.760,0.505
'0:08.228',-0.760,0.510
'0:08.231',-0.745,0.510
'0:08.233',-0.735,0.520
'0:08.236',-0.730,0.515
'0:08.239',-0.720,0.505
'0:08.242',-0.705,0.495
'0:08.244',-0.690,0.480
'0:08.247',-0.680,0.470
'0:08.250',-0.680,0.450
'0:08.253',-0.660,0.435
'0:08.256',-0.635,0.435
'0:08.258',-0.605,0.415
'0:08.261',-0.575,0.395
'0:08.264',-0.545,0.380
'0:08.267',-0.520,0.365
'0:08.269',-0.495,0.345
'0:08.272',-0.470,0.310
'0:08.275',-0.450,0.290
'0:08.278',-0.425,0.255
'0:08.281',-0.410,0.230
'0:08.283',-0.400,0.225
'0:08.286',-0.390,0.200
'0:08.289',-0.365,0.175
'0:08.292',-0.345,0.165
'0:08.294',-0.320,0.150
'0:08.297',-0.310,0.130
'0:08.300',-0.285,0.135
'0:08.303',-0.265,0.115
'0:08.306',-0.280,0.110
'0:08.308',-0.270,0.100
'0:08.311',-0.265,0.090
'0:08.314',-0.280,0.080
'0:08.317',-0.290,0.055
'0:08.319',-0.275,0.045
'0:08.322',-0.265,0.050
'0:08.325',-0.250,0.050
'0:08.328',-0.230,0.065
'0:08.331',-0.205,0.075
'0:08.333',-0.180,0.085
'0:08.336',-0.135,0.065
'0:08.339',-0.100,0.065
'0:08.342',-0.060,0.070
'0:08.344',-0.020,0.040
'0:08.347',0.025,0.025
'0:08.350',0.075,0.030
'0:08.353',0.140,0.005
'0:08.356',0.215,0.015
'0:08.358',0.300,0.005
'0:08.361',0.405,0.000
'0:08.364',0.520,0.000
'0:08.367',0.615,0.000
'0:08.369',0.695,-0.020
'0:08.372',0.705,-0.070
'0:08.375',0.625,-0.115
'0:08.378',0.445,-0.185
'0:08.381',0.145,-0.260
'0:08.383',-0.230,-0.310
'0:08.386',-0.630,-0.350
'0:08.389',-0.985,-0.355
'0:08.392',-1.300,-0.360
'0:08.394',-1.525,-0.330
'0:08.397',-1.675,-0.360
'0:08.400',-1.795,-0.370
'0:08.403',-1.885,-0.390
'0:08.406',-1.970,-0.395
'0:08.408',-2.050,-0.380
'0:08.411',-2.125,-0.310
'0:08.414',-2.175,-0.210
'0:08.417',-2.190,-0.075
'0:08.419',-2.175,0.090
'0:08.422',-2.125,0.230
'0:08.425',-2.035,0.385
'0:08.428',-1.960,0.520
'0:08.431',-1.870,0.635
'0:08.433',-1.765,0.745
'0:08.436',-1.650,0.835
'0:08.439',-1.555,0.890
'0:08.442',-1.460,0.960
'0:08.444',-1.400,0.990
'0:08.447',-1.340,1.010
'0:08.450',-1.270,1.025
'0:08.453',-1.195,1.015
'0:08.456',-1.085,0.940
'0:08.458',-0.940,0.800
'0:08.461',-0.805,0.590
'0:08.464',-0.695,0.325
'0:08.467',-0.605,0.055
'0:08.469',-0.555,-0.175
'0:08.472',-0.525,-0.340
'0:08.475',-0.500,-0.410
'0:08.478',-0.445,-0.435
'0:08.481',-0.360,-0.380
'0:08.483',-0.250,-0.330
'0:08.486',-0.090,-0.280
'0:08.489',0.085,-0.215
'0:08.492',0.210,-0.175
'0:08.494',0.295,-0.145
'0:08.497',0.325,-0.140
'0:08.500',0.320,-0.125
'0:08.503',0.300,-0.120
'0:08.506',0.270,-0.125
'0:08.508',0.245,-0.115
'0:08.511',0.250,-0.105
'0:08.514',0.255,-0.095
'0:08.517',0.260,-0.100
'0:08.519',0.280,-0.100
'0:08.522',0.290,-0.100
'0:08.525',0.310,-0.085
'0:08.528',0.325,-0.090
'0:08.531',0.340,-0.080
'0:08.533',0.360,-0.090
'0:08.536',0.370,-0.090
'0:08.539',0.385,-0.080
'0:08.542',0.395,-0.100
'0:08.544',0.415,-0.110
'0:08.547',0.405,-0.110
'0:08.550',0.420,-0.110
'0:08.553',0.425,-0.115
'0:08.556',0.445,-0.120
'0:08.558',0.455,-0.110
'0:08.561',0.495,-0.120
'0:08.564',0.515,-0.120
'0:08.567',0.545,-0.110
'0:08.569',0.560,-0.100
'0:08.572',0.580,-0.110
'0:08.575',0.600,-0.115
'0:08.578',0.605,-0.120
'0:08.581',0.635,-0.130
'0:08.583',0.645,-0.135
'0:08.586',0.665,-0.145
'0:08.589',0.685,-0.155
'0:08.592',0.705,-0.150
'0:08.594',0.730,-0.140
'0:08.597',0.760,-0.130
'0:08.600',0.805,-0.135
'0:08.603',0.820,-0.130
'0:08.606',0.840,-0.140
'0:08.608',0.855,-0.150
'0:08.611',0.855,-0.175
'0:08.614',0.860,-0.180
'0:08.617',0.860,-0.195
'0:08.619',0.865,-0.200
'0:08.622',0.865,-0.195
'0:08.625',0.875,-0.190
'0:08.628',0.875,-0.185
'0:08.631',0.870,-0.205
'0:08.633',0.840,-0.195
'0:08.636',0.830,-0.205
'0:08.639',0.820,-0.215
'0:08.642',0.795,-0.225
'0:08.644',0.765,-0.245
'0:08.647',0.730,-0.235
'0:08.650',0.710,-0.260
'0:08.653',0.675,-0.250
'0:08.656',0.635,-0.260
'0:08.658',0.615,-0.250
'0:08.661',0.585,-0.255
'0:08.664',0.545,-0.240
'0:08.667',0.500,-0.225
'0:08.669',0.475,-0.220
'0:08.672',0.430,-0.215
'0:08.675',0.400,-0.210
'0:08.678',0.360,-0.200
'0:08.681',0.310,-0.170
'0:08.683',0.280,-0.180
'0:08.686',0.230,-0.165
'0:08.689',0.215,-0.155
'0:08.692',0.180,-0.140
'0:08.694',0.160,-0.130
'0:08.697',0.145,-0.095
'0:08.700',0.125,-0.075
'0:08.703',0.105,-0.055
'0:08.706',0.075,-0.055
'0:08.708',0.065,-0.040
'0:08.711',0.060,-0.030
'0:08.714',0.035,-0.035
'0:08.717',0.020,-0.030
'0:08.719',0.005,-0.040
'0:08.722',-0.010,-0.035
'0:08.725',-0.020,-0.015
'0:08.728',-0.025,-0.005
'0:08.731',-0.025,0.000
'0:08.733',-0.040,0.005
'0:08.736',-0.035,-0.005
'0:08.739',-0.030,-0.005
'0:08.742',-0.035,-0.015
'0:08.744',-0.035,-0.020
'0:08.747',-0.045,-0.030
'0:08.750',-0.045,-0.030
'0:08.753',-0.060,-0.015
'0:08.756',-0.055,-0.015
'0:08.758',-0.050,-0.015
'0:08.761',-0.045,-0.020
'0:08.764',-0.035,-0.010
'0:08.767',-0.035,-0.010
'0:08.769',-0.025,-0.005
'0:08.772',-0.040,-0.015
'0:08.775',-0.035,-0.030
'0:08.778',-0.045,-0.025
'0:08.781',-0.045,-0.020
'0:08.783',-0.040,-0.035
'0:08.786',-0.055,-0.040
'0:08.789',-0.045,-0.035
'0:08.792',-0.055,-0.025
'0:08.794',-0.040,-0.035
'0:08.797',-0.050,-0.025
'0:08.800',-0.035,-0.025
'0:08.803',-0.030,-0.025
'0:08.806',-0.035,-0.020
'0:08.808',-0.030,-0.025
'0:08.811',-0.035,-0.030
'0:08.814',-0.055,-0.035
'0:08.817',-0.060,-0.050
'0:08.819',-0.070,-0.055
'0:08.822',-0.075,-0.065
'0:08.825',-0.065,-0.060
'0:08.828',-0.085,-0.040
'0:08.831',-0.070,-0.030
'0:08.833',-0.060,-0.020
'0:08.836',-0.050,-0.030
'0:08.839',-0.055,-0.020
'0:08.842',-0.040,-0.035
'0:08.844',-0.060,-0.050
'0:08.847',-0.070,-0.045
'0:08.850',-0.085,-0.060
'0:08.853',-0.085,-0.060
'0:08.856',-0.075,-0.070
'0:08.858',-0.075,-0.065
'0:08.861',-0.070,-0.065
'0:08.864',-0.070,-0.060
'0:08.867',-0.060,-0.040
'0:08.869',-0.060,-0.050
'0:08.872',-0.060,-0.045
'0:08.875',-0.065,-0.055
'0:08.878',-0.080,-0.060
'0:08.881',-0.100,-0.075
'0:08.883',-0.095,-0.085
'0:08.886',-0.100,-0.090
'0:08.889',-0.105,-0.085
'0:08.892',-0.090,-0.070
'0:08.894',-0.075,-0.065
'0:08.897',-0.075,-0.065
'0:08.900',-0.070,-0.060
'0:08.903',-0.060,-0.070
'0:08.906',-0.070,-0.070
'0:08.908',-0.075,-0.075
'0:08.911',-0.080,-0.080
'0:08.914',-0.090,-0.085
'0:08.917',-0.080,-0.080
'0:08.919',-0.085,-0.085
'0:08.922',-0.080,-0.085
'0:08.925',-0.100,-0.090
'0:08.928',-0.085,-0.080
'0:08.931',-0.080,-0.080
'0:08.933',-0.070,-0.070
'0:08.936',-0.050,-0.075
'0:08.939',-0.055,-0.090
'0:08.942',-0.055,-0.095
'0:08.944',-0.065,-0.100
'0:08.947',-0.065,-0.110
'0:08.950',-0.080,-0.105
'0:08.953',-0.070,-0.115
'0:08.956',-0.080,-0.090
'0:08.958',-0.070,-0.100
'0:08.961',-0.060,-0.100
'0:08.964',-0.065,-0.085
'0:08.967',-0.060,-0.095
'0:08.969',-0.050,-0.090
'0:08.972',-0.060,-0.090
'0:08.975',-0.050,-0.095
'0:08.978',-0.055,-0.100
'0:08.981',-0.060,-0.115
'0:08.983',-0.055,-0.125
'0:08.986',-0.060,-0.115
'0:08.989',-0.070,-0.115
'0:08.992',-0.055,-0.115
'0:08.994',-0.045,-0.110
'0:08.997',-0.050,-0.110
'0:09.000',-0.035,-0.100
'0:09.003',-0.025,-0.085
'0:09.006',-0.010,-0.090
'0:09.008',-0.010,-0.075
'0:09.011',0.000,-0.065
'0:09.014',0.005,-0.055
'0:09.017',0.025,-0.040
'0:09.019',0.040,0.000
'0:09.022',0.065,0.030
'0:09.025',0.090,0.045
'0:09.028',0.095,0.045
'0:09.031',0.110,0.070
'0:09.033',0.130,0.060
'0:09.036',0.145,0.060
'0:09.039',0.165,0.030
'0:09.042',0.195,0.010
'0:09.044',0.220,-0.035
'0:09.047',0.250,-0.065
'0:09.050',0.265,-0.095
'0:09.053',0.270,-0.105
'0:09.056',0.260,-0.120
'0:09.058',0.240,-0.110
'0:09.061',0.220,-0.125
'0:09.064',0.215,-0.115
'0:09.067',0.220,-0.110
'0:09.069',0.235,-0.130
'0:09.072',0.220,-0.155
'0:09.075',0.235,-0.190
'0:09.078',0.230,-0.200
'0:09.081',0.200,-0.230
'0:09.083',0.170,-0.235
'0:09.086',0.125,-0.225
'0:09.089',0.100,-0.225
'0:09.092',0.075,-0.200
'0:09.094',0.055,-0.175
'0:09.097',0.050,-0.165
'0:09.100',0.045,-0.165
'0:09.103',0.020,-0.160
'0:09.106',0.015,-0.155
'0:09.108',-0.005,-0.165
'0:09.111',-0.020,-0.155
'0:09.114',-0.030,-0.165
'0:09.117',-0.040,-0.180
'0:09.119',-0.050,-0.190
'0:09.122',-0.050,-0.190
'0:09.125',-0.040,-0.200
'0:09.128',-0.030,-0.190
'0:09.131',-0.025,-0.195
'0:09.133',0.000,-0.180
'0:09.136',0.000,-0.180
'0:09.139',-0.005,-0.180
'0:09.142',0.000,-0.175
'0:09.144',-0.010,-0.175
'0:09.147',-0.010,-0.160
'0:09.150',-0.005,-0.145
'0:09.153',0.000,-0.095
'0:09.156',0.060,-0.070
'0:09.158',0.145,-0.025
'0:09.161',0.295,-0.025
'0:09.164',0.485,-0.070
'0:09.167',0.695,-0.170
'0:09.169',0.915,-0.335
'0:09.172',1.110,-0.550
'0:09.175',1.290,-0.820
'0:09.178',1.470,-1.155
'0:09.181',1.640,-1.530
'0:09.183',1.785,-1.915
'0:09.186',1.875,-2.215
'0:09.189',1.905,-2.390
'0:09.192',1.870,-2.430
'0:09.194',1.760,-2.365
'0:09.197',1.585,-2.225
'0:09.200',1.330,-2.050
'0:09.203',1.010,-1.840
'0:09.206',0.690,-1.610
'0:09.208',0.425,-1.350
'0:09.211',0.225,-1.125
'0:09.214',0.085,-0.920
'0:09.217',0.025,-0.785
'0:09.219',0.000,-0.690
'0:09.222',0.000,-0.610
'0:09.225',-0.015,-0.540
'0:09.228',-0.030,-0.465
'0:09.231',-0.055,-0.385
'0:09.233',-0.095,-0.320
'0:09.236',-0.120,-0.240
'0:09.239',-0.135,-0.210
'0:09.242',-0.145,-0.165
'0:09.244',-0.145,-0.155
'0:09.247',-0.155,-0.170
'0:09.250',-0.165,-0.175
'0:09.253',-0.160,-0.170
'0:09.256',-0.175,-0.160
'0:09.258',-0.160,-0.155
'0:09.261',-0.160,-0.130
'0:09.264',-0.160,-0.110
'0:09.267',-0.155,-0.095
'0:09.269',-0.160,-0.090
'0:09.272',-0.165,-0.080
'0:09.275',-0.170,-0.080
'0:09.278',-0.190,-0.075
'0:09.281',-0.175,-0.080
'0:09.283',-0.180,-0.085
'0:09.286',-0.180,-0.090
'0:09.289',-0.190,-0.075
'0:09.292',-0.185,-0.060
'0:09.294',-0.190,-0.040
'0:09.297',-0.185,-0.030
'0:09.300',-0.180,-0.020
'0:09.303',-0.170,-0.015
'0:09.306',-0.190,-0.020
'0:09.308',-0.185,-0.025
'0:09.311',-0.190,-0.020
'0:09.314',-0.190,-0.015
'0:09.317',-0.200,0.000
'0:09.319',-0.200,0.005
'0:09.322',-0.215,0.015
'0:09.325',-0.215,0.020
'0:09.328',-0.220,0.030
'0:09.331',-0.215,0.040
'0:09.333',-0.225,0.045
'0:09.336',-0.230,0.065
'0:09.339',-0.230,0.080
'0:09.342',-0.240,0.075
'0:09.344',-0.255,0.085
'0:09.347',-0.270,0.075
'0:09.350',-0.275,0.090
'0:09.353',-0.295,0.085
'0:09.356',-0.300,0.090
'0:09.358',-0.320,0.100
'0:09.361',-0.325,0.110
'0:09.364',-0.330,0.125
'0:09.367',-0.340,0.150
'0:09.369',-0.350,0.165
'0:09.372',-0.355,0.175
'0:09.375',-0.370,0.170
'0:09.378',-0.395,0.185
'0:09.381',-0.430,0.175
'0:09.383',-0.440,0.180
'0:09.386',-0.470,0.160
'0:09.389',-0.480,0.180
'0:09.392',-0.490,0.195
'0:09.394',-0.495,0.215
'0:09.397',-0.510,0.220
'0:09.400',-0.500,0.240
'0:09.403',-0.500,0.240
'0:09.406',-0.505,0.230
'0:09.408',-0.500,0.225
'0:09.411',-0.500,0.215
'0:09.414',-0.495,0.195
'0:09.417',-0.500,0.200
'0:09.419',-0.495,0.190
'0:09.422',-0.490,0.200
'0:09.425',-0.470,0.195
'0:09.428',-0.460,0.185
'0:09.431',-0.430,0.170
'0:09.433',-0.400,0.175
'0:09.436',-0.360,0.160
'0:09.439',-0.335,0.130
'0:09.442',-0.310,0.120
'0:09.444',-0.285,0.090
'0:09.447',-0.255,0.065
'0:09.450',-0.220,0.045
'0:09.453',-0.200,0.020
'0:09.456',-0.160,-0.015
'0:09.458',-0.125,-0.025
'0:09.461',-0.090,-0.045
'0:09.464',-0.065,-0.055
'0:09.467',-0.030,-0.080
'0:09.469',-0.005,-0.095
'0:09.472',0.015,-0.110
'0:09.475',0.015,-0.125
'0:09.478',0.045,-0.145
'0:09.481',0.065,-0.155
'0:09.483',0.065,-0.175
'0:09.486',0.065,-0.195
'0:09.489',0.065,-0.205
'0:09.492',0.075,-0.205
'0:09.494',0.085,-0.200
'0:09.497',0.080,-0.190
'0:09.500',0.105,-0.180
'0:09.503',0.115,-0.190
'0:09.506',0.115,-0.195
'0:09.508',0.125,-0.200
'0:09.511',0.120,-0.210
'0:09.514',0.115,-0.215
'0:09.517',0.100,-0.220
'0:09.519',0.095,-0.230
'0:09.522',0.105,-0.225
'0:09.525',0.115,-0.215
'0:09.528',0.125,-0.200
'0:09.531',0.125,-0.195
'0:09.533',0.125,-0.190
'0:09.536',0.140,-0.190
'0:09.539',0.145,-0.195
'0:09.542',0.145,-0.205
'0:09.544',0.130,-0.215
'0:09.547',0.125,-0.215
'0:09.550',0.120,-0.225
'0:09.553',0.130,-0.210
'0:09.556',0.120,-0.200
'0:09.558',0.115,-0.205
'0:09.561',0.115,-0.195
'0:09.564',0.140,-0.200
'0:09.567',0.140,-0.200
'0:09.569',0.135,-0.190
'0:09.572',0.140,-0.190
'0:09.575',0.140,-0.180
'0:09.578',0.145,-0.185
'0:09.581',0.135,-0.185
'0:09.583',0.140,-0.195
'0:09.586',0.135,-0.180
'0:09.589',0.155,-0.175
'0:09.592',0.165,-0.165
'0:09.594',0.190,-0.140
'0:09.597',0.210,-0.120
'0:09.600',0.230,-0.080
'0:09.603',0.265,-0.060
'0:09.606',0.265,-0.035
'0:09.608',0.280,-0.010
'0:09.611',0.300,-0.010
'0:09.614',0.300,-0.015
'0:09.617',0.305,-0.025
'0:09.619',0.320,-0.050
'0:09.622',0.340,-0.050
'0:09.625',0.370,-0.060
'0:09.628',0.405,-0.080
'0:09.631',0.445,-0.095
'0:09.633',0.485,-0.115
'0:09.636',0.505,-0.150
'0:09.639',0.490,-0.175
'0:09.642',0.460,-0.210
'0:09.644',0.440,-0.220
'0:09.647',0.425,-0.235
'0:09.650',0.410,-0.230
'0:09.653',0.415,-0.235
'0:09.656',0.420,-0.250
'0:09.658',0.435,-0.250
'0:09.661',0.440,-0.265
'0:09.664',0.420,-0.280
'0:09.667',0.410,-0.300
'0:09.669',0.390,-0.310
'0:09.672',0.360,-0.330
'0:09.675',0.330,-0.320
'0:09.678',0.305,-0.305
'0:09.681',0.275,-0.300
'0:09.683',0.250,-0.270
'0:09.686',0.240,-0.270
'0:09.689',0.220,-0.250
'0:09.692',0.190,-0.260
'0:09.694',0.190,-0.260
'0:09.697',0.190,-0.260
'0:09.700',0.180,-0.245
'0:09.703',0.180,-0.250
'0:09.706',0.175,-0.260
'0:09.708',0.180,-0.270
'0:09.711',0.175,-0.275
'0:09.714',0.170,-0.270
'0:09.717',0.165,-0.280
'0:09.719',0.170,-0.280
'0:09.722',0.185,-0.285
'0:09.725',0.185,-0.285
'0:09.728',0.195,-0.290
'0:09.731',0.200,-0.290
'0:09.733',0.200,-0.280
'0:09.736',0.220,-0.280
'0:09.739',0.235,-0.250
'0:09.742',0.255,-0.215
'0:09.744',0.275,-0.180
'0:09.747',0.325,-0.140
'0:09.750',0.410,-0.100
'0:09.753',0.535,-0.100
'0:09.756',0.720,-0.145
'0:09.758',0.920,-0.245
'0:09.761',1.120,-0.385
'0:09.764',1.305,-0.565
'0:09.767',1.470,-0.800
'0:09.769',1.610,-1.115
'0:09.772',1.765,-1.495
'0:09.775',1.900,-1.885
'0:09.778',1.980,-2.245
'0:09.781',2.030,-2.495
'0:09.783',2.020,-2.620
'0:09.786',1.960,-2.610
'0:09.789',1.860,-2.520
'0:09.792',1.685,-2.375
'0:09.794',1.450,-2.175
'0:09.797',1.155,-1.965
'0:09.800',0.860,-1.710
'0:09.803',0.610,-1.445
'0:09.806',0.405,-1.205
'0:09.808',0.265,-0.995
'0:09.811',0.185,-0.840
'0:09.814',0.150,-0.725
'0:09.817',0.135,-0.655
'0:09.819',0.125,-0.580
'0:09.822',0.130,-0.505
'0:09.825',0.115,-0.445
'0:09.828',0.105,-0.360
'0:09.831',0.095,-0.300
'0:09.833',0.095,-0.265
'0:09.836',0.095,-0.250
'0:09.839',0.075,-0.235
'0:09.842',0.085,-0.225
'0:09.844',0.085,-0.225
'0:09.847',0.080,-0.225
'0:09.850',0.075,-0.205
'0:09.853',0.055,-0.195
'0:09.856',0.050,-0.195
'0:09.858',0.060,-0.190
'0:09.861',0.060,-0.175
'0:09.864',0.050,-0.155
'0:09.867',0.070,-0.150
'0:09.869',0.075,-0.140
'0:09.872',0.075,-0.125
'0:09.875',0.075,-0.120
'0:09.878',0.070,-0.120
'0:09.881',0.055,-0.125
'0:09.883',0.055,-0.125
'0:09.886',0.050,-0.120
'0:09.889',0.050,-0.120
'0:09.892',0.050,-0.105
'0:09.894',0.040,-0.095
'0:09.897',0.060,-0.070
'0:09.900',0.070,-0.050
'0:09.903',0.065,-0.045
'0:09.906',0.070,-0.040
'0:09.908',0.055,-0.030
'0:09.911',0.050,-0.035
'0:09.914',0.035,-0.035
'0:09.917',0.025,-0.035
'0:09.919',0.020,-0.035
'0:09.922',0.005,-0.020
'0:09.925',0.015,0.000
'0:09.928',0.015,0.020
'0:09.931',0.015,0.050
'0:09.933',0.010,0.050
'0:09.936',0.015,0.065
'0:09.939',0.000,0.065
'0:09.942',-0.005,0.065
'0:09.944',-0.015,0.080
'0:09.947',-0.035,0.065
'0:09.950',-0.055,0.090
'0:09.953',-0.070,0.095
'0:09.956',-0.090,0.110
'0:09.958',-0.095,0.135
'0:09.961',-0.100,0.145
'0:09.964',-0.100,0.165
'0:09.967',-0.100,0.175
'0:09.969',-0.100,0.175
'0:09.972',-0.110,0.195
'0:09.975',-0.115,0.190
'0:09.978',-0.140,0.200
'0:09.981',-0.150,0.205
'0:09.983',-0.160,0.210
'0:09.986',-0.170,0.210
'0:09.989',-0.170,0.215
'0:09.992',-0.160,0.220
'0:09.994',-0.155,0.225
'0:09.997',-0.140,0.240
