'Elapsed time','MLII','V2'
'seconds','mV','mV'
0.000,-0.375,0.050
0.003,-0.375,0.050
0.006,-0.375,0.050
0.008,-0.375,0.050
0.011,-0.375,0.050
0.014,-0.375,0.050
0.017,-0.375,0.050
0.019,-0.375,0.050
0.022,-0.385,0.050
0.025,-0.385,0.035
0.028,-0.385,0.035
0.031,-0.380,0.050
0.033,-0.360,0.065
0.036,-0.360,0.065
0.039,-0.370,0.040
0.042,-0.365,0.045
0.044,-0.370,0.035
0.047,-0.360,0.055
0.050,-0.355,0.070
0.053,-0.345,0.075
0.056,-0.340,0.065
0.058,-0.345,0.055
0.061,-0.345,0.070
0.064,-0.330,0.080
0.067,-0.325,0.090
0.069,-0.310,0.085
0.072,-0.305,0.090
0.075,-0.310,0.085
0.078,-0.310,0.085
0.081,-0.300,0.105
0.083,-0.280,0.120
0.086,-0.250,0.125
0.089,-0.250,0.120
0.092,-0.245,0.125
0.094,-0.235,0.135
0.097,-0.220,0.145
0.100,-0.195,0.160
0.103,-0.165,0.165
0.106,-0.160,0.175
0.108,-0.160,0.170
0.111,-0.135,0.180
0.114,-0.120,0.210
0.117,-0.090,0.230
0.119,-0.060,0.235
0.122,-0.045,0.240
0.125,-0.035,0.255
0.128,-0.015,0.255
0.131,0.000,0.275
0.133,0.030,0.300
0.136,0.060,0.295
0.139,0.070,0.315
0.142,0.075,0.315
0.144,0.075,0.335
0.147,0.100,0.350
0.150,0.110,0.350
0.153,0.135,0.355
0.156,0.130,0.355
0.158,0.145,0.350
0.161,0.135,0.355
0.164,0.160,0.370
0.167,0.165,0.390
0.169,0.175,0.395
0.172,0.185,0.385
0.175,0.175,0.370
0.178,0.165,0.365
0.181,0.170,0.380
0.183,0.160,0.385
0.186,0.150,0.375
0.189,0.140,0.370
0.192,0.120,0.345
0.194,0.085,0.345
0.197,0.080,0.335
0.200,0.070,0.330
0.203,0.055,0.310
0.206,0.020,0.280
0.208,-0.005,0.265
0.211,-0.050,0.250
0.214,-0.065,0.240
0.217,-0.085,0.225
0.219,-0.095,0.205
0.222,-0.125,0.180
0.225,-0.145,0.165
0.228,-0.165,0.145
0.231,-0.175,0.135
0.233,-0.185,0.130
0.236,-0.205,0.125
0.239,-0.215,0.105
0.242,-0.220,0.085
0.244,-0.230,0.075
0.247,-0.245,0.080
0.250,-0.240,0.080
0.253,-0.245,0.075
0.256,-0.245,0.060
0.258,-0.265,0.040
0.261,-0.265,0.040
0.264,-0.265,0.050
0.267,-0.260,0.065
0.269,-0.255,0.050
0.272,-0.270,0.040
0.275,-0.265,0.030
0.278,-0.275,0.030
0.281,-0.265,0.035
0.283,-0.275,0.045
0.286,-0.265,0.045
0.289,-0.270,0.035
0.292,-0.265,0.025
0.294,-0.280,0.015
0.297,-0.285,0.020
0.300,-0.275,0.035
0.303,-0.260,0.045
0.306,-0.250,0.045
0.308,-0.265,0.040
0.311,-0.270,0.025
0.314,-0.265,0.045
0.317,-0.240,0.060
0.319,-0.245,0.060
0.322,-0.250,0.045
0.325,-0.250,0.040
0.328,-0.255,0.050
0.331,-0.240,0.055
0.333,-0.230,0.070
0.336,-0.225,0.070
0.339,-0.230,0.070
0.342,-0.240,0.050
0.344,-0.240,0.055
0.347,-0.240,0.065
0.350,-0.220,0.065
0.353,-0.220,0.075
0.356,-0.220,0.065
0.358,-0.225,0.060
0.361,-0.240,0.065
0.364,-0.235,0.070
0.367,-0.215,0.090
0.369,-0.220,0.070
0.372,-0.230,0.060
0.375,-0.230,0.065
0.378,-0.235,0.055
0.381,-0.235,0.065
0.383,-0.220,0.065
0.386,-0.215,0.080
0.389,-0.230,0.075
0.392,-0.240,0.070
0.394,-0.250,0.060
0.397,-0.245,0.060
0.400,-0.240,0.065
0.403,-0.240,0.070
0.406,-0.235,0.050
0.408,-0.250,0.045
0.411,-0.255,0.045
0.414,-0.255,0.050
0.417,-0.250,0.060
0.419,-0.245,0.050
0.422,-0.255,0.040
0.425,-0.270,0.030
0.428,-0.270,0.020
0.431,-0.265,0.020
0.433,-0.260,0.040
0.436,-0.255,0.025
0.439,-0.270,0.025
0.442,-0.280,0.025
0.444,-0.290,0.010
0.447,-0.285,0.015
0.450,-0.285,0.030
0.453,-0.290,0.010
0.456,-0.290,0.000
0.458,-0.290,-0.010
0.461,-0.300,-0.010
0.464,-0.295,-0.005
0.467,-0.300,0.005
0.469,-0.300,0.000
0.472,-0.305,-0.005
0.475,-0.300,-0.020
0.478,-0.320,-0.020
0.481,-0.315,-0.010
0.483,-0.315,-0.010
0.486,-0.300,-0.010
0.489,-0.310,-0.025
0.492,-0.310,-0.035
0.494,-0.325,-0.030
0.497,-0.325,-0.020
0.500,-0.320,-0.015
0.503,-0.320,-0.015
0.506,-0.310,-0.030
0.508,-0.325,-0.045
0.511,-0.325,-0.040
0.514,-0.320,-0.040
0.517,-0.315,-0.020
0.519,-0.295,-0.035
0.522,-0.275,-0.030
0.525,-0.280,-0.045
0.528,-0.280,-0.040
0.531,-0.265,-0.025
0.533,-0.255,-0.015
0.536,-0.245,-0.015
0.539,-0.240,-0.025
0.542,-0.235,-0.035
0.544,-0.245,-0.030
0.547,-0.240,-0.015
0.550,-0.235,-0.005
0.553,-0.215,-0.010
0.556,-0.215,-0.020
0.558,-0.215,-0.030
0.561,-0.230,-0.025
0.564,-0.220,-0.020
0.567,-0.210,-0.010
0.569,-0.205,-0.020
0.572,-0.215,-0.015
0.575,-0.215,-0.035
0.578,-0.245,-0.040
0.581,-0.255,-0.040
0.583,-0.250,-0.040
0.586,-0.260,-0.060
0.589,-0.270,-0.070
0.592,-0.270,-0.085
0.594,-0.270,-0.100
0.597,-0.255,-0.090
0.600,-0.250,-0.055
0.603,-0.255,-0.055
0.606,-0.260,-0.035
0.608,-0.295,-0.035
0.611,-0.315,-0.045
0.614,-0.320,-0.025
0.617,-0.325,-0.030
0.619,-0.330,-0.035
0.622,-0.340,-0.045
0.625,-0.355,-0.070
0.628,-0.380,-0.070
0.631,-0.385,-0.060
0.633,-0.380,-0.050
0.636,-0.380,-0.055
0.639,-0.395,-0.065
0.642,-0.410,-0.075
0.644,-0.405,-0.085
0.647,-0.410,-0.075
0.650,-0.405,-0.065
0.653,-0.400,-0.075
0.656,-0.390,-0.080
0.658,-0.405,-0.080
0.661,-0.420,-0.080
0.664,-0.410,-0.065
0.667,-0.400,-0.060
0.669,-0.400,-0.060
0.672,-0.395,-0.065
0.675,-0.405,-0.060
0.678,-0.410,-0.065
0.681,-0.405,-0.060
0.683,-0.400,-0.050
0.686,-0.405,-0.050
0.689,-0.405,-0.060
0.692,-0.420,-0.075
0.694,-0.445,-0.070
0.697,-0.475,-0.055
0.700,-0.540,-0.055
0.703,-0.580,-0.085
0.706,-0.590,-0.105
0.708,-0.550,-0.110
0.711,-0.485,-0.075
0.714,-0.390,-0.035
0.717,-0.210,0.010
0.719,0.090,0.095
0.722,0.470,0.235
0.725,0.850,0.430
0.728,1.190,0.670
0.731,1.510,0.910
0.733,1.750,1.160
0.736,1.850,1.365
0.739,1.800,1.435
0.742,1.585,1.380
0.744,1.140,1.170
0.747,0.620,0.820
0.750,0.130,0.380
0.753,-0.235,-0.030
0.756,-0.440,-0.345
0.758,-0.520,-0.475
0.761,-0.525,-0.480
0.764,-0.485,-0.410
0.767,-0.405,-0.300
0.769,-0.330,-0.195
0.772,-0.295,-0.100
0.775,-0.320,-0.040
0.778,-0.360,-0.020
0.781,-0.375,-0.010
0.783,-0.375,-0.020
0.786,-0.380,-0.035
0.789,-0.380,-0.040
0.792,-0.395,-0.045
0.794,-0.420,-0.050
0.797,-0.430,-0.045
0.800,-0.435,-0.040
0.803,-0.430,-0.055
0.806,-0.435,-0.060
0.808,-0.450,-0.060
0.811,-0.465,-0.075
0.814,-0.460,-0.055
0.817,-0.450,-0.050
0.819,-0.445,-0.050
0.822,-0.460,-0.060
0.825,-0.465,-0.060
0.828,-0.485,-0.060
0.831,-0.470,-0.050
0.833,-0.455,-0.045
0.836,-0.465,-0.055
0.839,-0.460,-0.065
0.842,-0.470,-0.060
0.844,-0.475,-0.055
0.847,-0.465,-0.045
0.850,-0.475,-0.030
0.853,-0.475,-0.045
0.856,-0.470,-0.040
0.858,-0.465,-0.050
0.861,-0.485,-0.050
0.864,-0.470,-0.035
0.867,-0.460,-0.025
0.869,-0.455,-0.020
0.872,-0.440,-0.040
0.875,-0.460,-0.040
0.878,-0.470,-0.040
0.881,-0.450,-0.035
0.883,-0.430,-0.025
0.886,-0.435,-0.020
0.889,-0.435,-0.020
0.892,-0.435,-0.020
0.894,-0.440,-0.020
0.897,-0.425,-0.005
0.900,-0.410,0.005
0.903,-0.395,-0.005
0.906,-0.390,0.000
0.908,-0.400,-0.005
0.911,-0.400,0.000
0.914,-0.390,0.005
0.917,-0.370,0.035
0.919,-0.345,0.030
0.922,-0.340,0.035
0.925,-0.340,0.025
0.928,-0.345,0.030
0.931,-0.320,0.055
0.933,-0.290,0.080
0.936,-0.275,0.060
0.939,-0.260,0.065
0.942,-0.255,0.075
0.944,-0.240,0.080
0.947,-0.210,0.110
0.950,-0.185,0.140
0.953,-0.160,0.135
0.956,-0.135,0.150
0.958,-0.130,0.155
0.961,-0.125,0.155
0.964,-0.100,0.180
0.967,-0.070,0.200
0.969,-0.040,0.205
0.972,-0.040,0.210
0.975,-0.025,0.220
0.978,-0.005,0.225
0.981,0.015,0.240
0.983,0.035,0.265
0.986,0.060,0.275
0.989,0.055,0.260
0.992,0.060,0.270
0.994,0.070,0.275
0.997,0.085,0.280
1.000,0.105,0.300
1.003,0.115,0.300
1.006,0.110,0.300
1.008,0.110,0.300
1.011,0.095,0.295
1.014,0.100,0.305
1.017,0.095,0.320
1.019,0.090,0.295
1.022,0.085,0.285
1.025,0.055,0.275
1.028,0.045,0.260
1.031,0.030,0.260
1.033,0.015,0.260
1.036,-0.010,0.245
1.039,-0.030,0.220
1.042,-0.065,0.205
1.044,-0.090,0.190
1.047,-0.115,0.170
1.050,-0.130,0.170
1.053,-0.150,0.140
1.056,-0.180,0.115
1.058,-0.215,0.100
1.061,-0.240,0.085
1.064,-0.250,0.065
1.067,-0.260,0.070
1.069,-0.270,0.040
1.072,-0.275,0.030
1.075,-0.305,0.010
1.078,-0.315,-0.010
1.081,-0.325,0.005
1.083,-0.315,0.000
1.086,-0.310,-0.005
1.089,-0.310,-0.015
1.092,-0.350,-0.030
1.094,-0.345,-0.035
1.097,-0.350,-0.030
1.100,-0.330,-0.015
1.103,-0.325,-0.035
1.106,-0.330,-0.040
1.108,-0.345,-0.055
1.111,-0.350,-0.065
1.114,-0.345,-0.050
1.117,-0.350,-0.040
1.119,-0.340,-0.045
1.122,-0.345,-0.045
1.125,-0.350,-0.050
1.128,-0.355,-0.070
1.131,-0.350,-0.055
1.133,-0.330,-0.040
1.136,-0.330,-0.050
1.139,-0.330,-0.045
1.142,-0.330,-0.050
1.144,-0.335,-0.050
1.147,-0.325,-0.040
1.150,-0.320,-0.020
1.153,-0.315,-0.040
1.156,-0.315,-0.045
1.158,-0.320,-0.045
1.161,-0.330,-0.050
1.164,-0.315,-0.045
1.167,-0.310,-0.015
1.169,-0.300,-0.005
1.172,-0.300,-0.015
1.175,-0.310,-0.040
1.178,-0.320,-0.025
1.181,-0.310,-0.030
1.183,-0.305,-0.020
1.186,-0.295,-0.025
1.189,-0.295,-0.020
1.192,-0.295,-0.025
1.194,-0.315,-0.020
1.197,-0.310,-0.010
1.200,-0.295,-0.010
1.203,-0.295,-0.015
1.206,-0.300,-0.020
1.208,-0.310,-0.025
1.211,-0.305,-0.025
1.214,-0.310,-0.020
1.217,-0.305,-0.010
1.219,-0.295,-0.020
1.222,-0.300,-0.025
1.225,-0.315,-0.040
1.228,-0.325,-0.035
1.231,-0.330,-0.020
1.233,-0.315,-0.030
1.236,-0.310,-0.035
1.239,-0.315,-0.030
1.242,-0.325,-0.050
1.244,-0.335,-0.045
1.247,-0.330,-0.040
1.250,-0.325,-0.035
1.253,-0.320,-0.040
1.256,-0.335,-0.050
1.258,-0.330,-0.065
1.261,-0.340,-0.065
1.264,-0.350,-0.070
1.267,-0.345,-0.055
1.269,-0.340,-0.060
1.272,-0.340,-0.070
1.275,-0.350,-0.075
1.278,-0.355,-0.075
1.281,-0.350,-0.075
1.283,-0.345,-0.070
1.286,-0.345,-0.080
1.289,-0.345,-0.090
1.292,-0.350,-0.100
1.294,-0.375,-0.105
1.297,-0.365,-0.100
1.300,-0.360,-0.085
1.303,-0.370,-0.090
1.306,-0.365,-0.100
1.308,-0.365,-0.110
1.311,-0.380,-0.110
1.314,-0.385,-0.115
1.317,-0.375,-0.105
1.319,-0.370,-0.105
1.322,-0.375,-0.115
1.325,-0.385,-0.110
1.328,-0.400,-0.125
1.331,-0.380,-0.115
1.333,-0.385,-0.105
1.336,-0.375,-0.110
1.339,-0.370,-0.120
1.342,-0.390,-0.130
1.344,-0.400,-0.135
1.347,-0.395,-0.125
1.350,-0.375,-0.115
1.353,-0.380,-0.115
1.356,-0.385,-0.125
1.358,-0.385,-0.135
1.361,-0.395,-0.145
1.364,-0.400,-0.130
1.367,-0.395,-0.120
1.369,-0.385,-0.115
1.372,-0.380,-0.130
1.375,-0.385,-0.135
1.378,-0.385,-0.145
1.381,-0.375,-0.130
1.383,-0.360,-0.125
1.386,-0.355,-0.125
1.389,-0.335,-0.125
1.392,-0.335,-0.130
1.394,-0.315,-0.130
1.397,-0.310,-0.125
1.400,-0.310,-0.110
1.403,-0.310,-0.110
1.406,-0.315,-0.135
1.408,-0.305,-0.120
1.411,-0.310,-0.130
1.414,-0.285,-0.115
1.417,-0.270,-0.110
1.419,-0.265,-0.110
1.422,-0.260,-0.130
1.425,-0.270,-0.135
1.428,-0.275,-0.130
1.431,-0.265,-0.120
1.433,-0.250,-0.105
1.436,-0.250,-0.120
1.439,-0.265,-0.120
1.442,-0.275,-0.130
1.444,-0.295,-0.150
1.447,-0.315,-0.145
1.450,-0.310,-0.150
1.453,-0.315,-0.160
1.456,-0.315,-0.175
1.458,-0.310,-0.185
1.461,-0.320,-0.175
1.464,-0.310,-0.145
1.467,-0.300,-0.115
1.469,-0.320,-0.110
1.472,-0.340,-0.115
1.475,-0.355,-0.115
1.478,-0.375,-0.115
1.481,-0.380,-0.120
1.483,-0.380,-0.110
1.486,-0.390,-0.120
1.489,-0.405,-0.135
1.492,-0.405,-0.145
1.494,-0.420,-0.145
1.497,-0.430,-0.150
1.500,-0.425,-0.145
1.503,-0.430,-0.145
1.506,-0.435,-0.160
1.508,-0.450,-0.155
1.511,-0.450,-0.170
1.514,-0.450,-0.155
1.517,-0.450,-0.145
1.519,-0.435,-0.160
1.522,-0.440,-0.155
1.525,-0.440,-0.155
1.528,-0.460,-0.155
1.531,-0.455,-0.145
1.533,-0.450,-0.135
1.536,-0.450,-0.145
1.539,-0.440,-0.145
1.542,-0.450,-0.160
1.544,-0.455,-0.165
1.547,-0.450,-0.155
1.550,-0.435,-0.140
1.553,-0.435,-0.145
1.556,-0.445,-0.150
1.558,-0.460,-0.150
1.561,-0.510,-0.145
1.564,-0.570,-0.155
1.567,-0.620,-0.170
1.569,-0.635,-0.185
1.572,-0.590,-0.180
1.575,-0.535,-0.160
1.578,-0.455,-0.140
1.581,-0.275,-0.075
1.583,0.045,0.015
1.586,0.445,0.185
1.589,0.875,0.400
1.592,1.230,0.640
1.594,1.535,0.895
1.597,1.750,1.160
1.600,1.840,1.335
1.603,1.730,1.345
1.606,1.365,1.175
1.608,0.790,0.795
1.611,0.195,0.295
1.614,-0.260,-0.165
1.617,-0.485,-0.465
1.619,-0.550,-0.575
1.622,-0.540,-0.555
1.625,-0.505,-0.460
1.628,-0.420,-0.340
1.631,-0.355,-0.205
1.633,-0.340,-0.110
1.636,-0.375,-0.095
1.639,-0.395,-0.110
1.642,-0.415,-0.130
1.644,-0.415,-0.135
1.647,-0.415,-0.125
1.650,-0.405,-0.120
1.653,-0.430,-0.120
1.656,-0.455,-0.140
1.658,-0.475,-0.150
1.661,-0.495,-0.165
1.664,-0.495,-0.155
1.667,-0.485,-0.140
1.669,-0.485,-0.150
1.672,-0.485,-0.150
1.675,-0.510,-0.150
1.678,-0.515,-0.155
1.681,-0.520,-0.150
1.683,-0.500,-0.140
1.686,-0.495,-0.140
1.689,-0.500,-0.135
1.692,-0.490,-0.145
1.694,-0.510,-0.145
1.697,-0.500,-0.135
1.700,-0.495,-0.120
1.703,-0.485,-0.120
1.706,-0.495,-0.135
1.708,-0.495,-0.145
1.711,-0.510,-0.155
1.714,-0.500,-0.130
1.717,-0.490,-0.120
1.719,-0.480,-0.110
1.722,-0.490,-0.105
1.725,-0.475,-0.120
1.728,-0.495,-0.125
1.731,-0.470,-0.115
1.733,-0.470,-0.100
1.736,-0.470,-0.105
1.739,-0.460,-0.110
1.742,-0.465,-0.115
1.744,-0.455,-0.100
1.747,-0.445,-0.095
1.750,-0.435,-0.075
1.753,-0.410,-0.065
1.756,-0.405,-0.095
1.758,-0.410,-0.085
1.761,-0.410,-0.075
1.764,-0.400,-0.060
1.767,-0.380,-0.040
1.769,-0.355,-0.045
1.772,-0.340,-0.035
1.775,-0.330,-0.040
1.778,-0.330,-0.030
1.781,-0.295,-0.005
1.783,-0.275,0.025
1.786,-0.265,0.015
1.789,-0.245,0.025
1.792,-0.230,0.030
1.794,-0.215,0.035
1.797,-0.190,0.060
1.800,-0.165,0.075
1.803,-0.130,0.090
1.806,-0.100,0.115
1.808,-0.100,0.115
1.811,-0.085,0.115
1.814,-0.065,0.135
1.817,-0.050,0.155
1.819,-0.020,0.155
1.822,-0.010,0.170
1.825,-0.005,0.175
1.828,-0.005,0.180
1.831,0.025,0.200
1.833,0.030,0.215
1.836,0.070,0.215
1.839,0.070,0.220
1.842,0.060,0.230
1.844,0.055,0.220
1.847,0.070,0.235
1.850,0.075,0.240
1.853,0.075,0.235
1.856,0.060,0.225
1.858,0.045,0.210
1.861,0.015,0.195
1.864,0.015,0.200
1.867,0.010,0.200
1.869,-0.005,0.180
1.872,-0.015,0.165
1.875,-0.075,0.140
1.878,-0.095,0.120
1.881,-0.115,0.110
1.883,-0.125,0.105
1.886,-0.140,0.090
1.889,-0.165,0.060
1.892,-0.205,0.045
1.894,-0.230,0.025
1.897,-0.250,0.010
1.900,-0.260,0.000
1.903,-0.270,-0.020
1.906,-0.280,-0.035
1.908,-0.305,-0.055
1.911,-0.320,-0.060
1.914,-0.325,-0.060
1.917,-0.320,-0.065
1.919,-0.335,-0.065
1.922,-0.330,-0.090
1.925,-0.355,-0.110
1.928,-0.360,-0.115
1.931,-0.355,-0.115
1.933,-0.345,-0.115
1.936,-0.345,-0.110
1.939,-0.350,-0.110
1.942,-0.350,-0.125
1.944,-0.355,-0.135
1.947,-0.345,-0.115
1.950,-0.340,-0.105
1.953,-0.345,-0.105
1.956,-0.345,-0.125
1.958,-0.350,-0.140
1.961,-0.355,-0.150
1.964,-0.350,-0.125
1.967,-0.340,-0.120
1.969,-0.330,-0.110
1.972,-0.335,-0.115
1.975,-0.335,-0.120
1.978,-0.345,-0.130
1.981,-0.340,-0.110
1.983,-0.335,-0.105
1.986,-0.325,-0.110
1.989,-0.330,-0.115
1.992,-0.340,-0.130
1.994,-0.340,-0.125
1.997,-0.325,-0.105
2.000,-0.330,-0.080
2.003,-0.320,-0.100
2.006,-0.315,-0.100
2.008,-0.325,-0.095
2.011,-0.335,-0.105
2.014,-0.335,-0.095
2.017,-0.325,-0.090
2.019,-0.310,-0.095
2.022,-0.310,-0.110
2.025,-0.320,-0.115
2.028,-0.335,-0.120
2.031,-0.320,-0.110
2.033,-0.320,-0.085
2.036,-0.315,-0.095
2.039,-0.310,-0.095
2.042,-0.335,-0.110
2.044,-0.325,-0.095
2.047,-0.335,-0.090
2.050,-0.315,-0.075
2.053,-0.330,-0.090
2.056,-0.320,-0.105
2.058,-0.335,-0.115
2.061,-0.335,-0.115
2.064,-0.330,-0.100
2.067,-0.325,-0.110
2.069,-0.315,-0.105
2.072,-0.315,-0.115
2.075,-0.320,-0.125
2.078,-0.345,-0.135
2.081,-0.335,-0.125
2.083,-0.330,-0.135
2.086,-0.335,-0.145
2.089,-0.335,-0.145
2.092,-0.345,-0.150
2.094,-0.350,-0.160
2.097,-0.350,-0.145
2.100,-0.355,-0.140
2.103,-0.350,-0.150
2.106,-0.355,-0.170
2.108,-0.365,-0.175
2.111,-0.375,-0.185
2.114,-0.365,-0.165
2.117,-0.370,-0.145
2.119,-0.360,-0.165
2.122,-0.365,-0.175
2.125,-0.385,-0.190
2.128,-0.385,-0.185
2.131,-0.380,-0.185
2.133,-0.370,-0.185
2.136,-0.375,-0.190
2.139,-0.375,-0.185
2.142,-0.385,-0.210
2.144,-0.395,-0.195
2.147,-0.390,-0.195
2.150,-0.385,-0.185
2.153,-0.395,-0.200
2.156,-0.395,-0.195
2.158,-0.405,-0.205
2.161,-0.410,-0.215
2.164,-0.410,-0.200
2.167,-0.405,-0.190
2.169,-0.400,-0.200
2.172,-0.400,-0.205
2.175,-0.410,-0.215
2.178,-0.410,-0.215
2.181,-0.410,-0.200
2.183,-0.405,-0.190
2.186,-0.405,-0.205
2.189,-0.405,-0.205
2.192,-0.400,-0.215
2.194,-0.400,-0.220
2.197,-0.400,-0.205
2.200,-0.385,-0.200
2.203,-0.385,-0.205
2.206,-0.380,-0.200
2.208,-0.405,-0.210
2.211,-0.405,-0.220
2.214,-0.395,-0.210
2.217,-0.395,-0.195
2.219,-0.385,-0.210
2.222,-0.365,-0.205
2.225,-0.370,-0.205
2.228,-0.350,-0.220
2.231,-0.335,-0.195
2.233,-0.330,-0.190
2.236,-0.320,-0.185
2.239,-0.315,-0.190
2.242,-0.330,-0.190
2.244,-0.335,-0.195
2.247,-0.320,-0.185
2.250,-0.310,-0.180
2.253,-0.290,-0.190
2.256,-0.290,-0.200
2.258,-0.305,-0.210
2.261,-0.315,-0.205
2.264,-0.300,-0.195
2.267,-0.280,-0.190
2.269,-0.290,-0.195
2.272,-0.290,-0.195
2.275,-0.300,-0.210
2.278,-0.320,-0.210
2.281,-0.325,-0.205
2.283,-0.345,-0.215
2.286,-0.345,-0.230
2.289,-0.340,-0.255
2.292,-0.350,-0.255
2.294,-0.345,-0.250
2.297,-0.340,-0.245
2.300,-0.320,-0.220
2.303,-0.325,-0.200
2.306,-0.340,-0.210
2.308,-0.365,-0.205
2.311,-0.385,-0.200
2.314,-0.390,-0.195
2.317,-0.380,-0.180
2.319,-0.385,-0.195
2.322,-0.395,-0.210
2.325,-0.415,-0.220
2.328,-0.430,-0.225
2.331,-0.430,-0.210
2.333,-0.445,-0.205
2.336,-0.445,-0.215
2.339,-0.455,-0.225
2.342,-0.455,-0.240
2.344,-0.455,-0.235
2.347,-0.445,-0.220
2.350,-0.435,-0.215
2.353,-0.435,-0.215
2.356,-0.450,-0.225
2.358,-0.465,-0.230
2.361,-0.470,-0.225
2.364,-0.460,-0.230
2.367,-0.450,-0.220
2.369,-0.445,-0.225
2.372,-0.440,-0.225
2.375,-0.445,-0.215
2.378,-0.455,-0.220
2.381,-0.455,-0.240
2.383,-0.450,-0.220
2.386,-0.445,-0.230
2.389,-0.450,-0.220
2.392,-0.455,-0.225
2.394,-0.475,-0.235
2.397,-0.515,-0.220
2.400,-0.570,-0.225
2.403,-0.600,-0.255
2.406,-0.585,-0.245
2.408,-0.535,-0.225
2.411,-0.470,-0.190
2.414,-0.360,-0.150
2.417,-0.170,-0.075
2.419,0.170,0.050
2.422,0.535,0.230
2.425,0.900,0.445
2.428,1.215,0.675
2.431,1.505,0.900
2.433,1.685,1.100
2.436,1.700,1.180
2.439,1.505,1.125
2.442,1.060,0.885
2.444,0.490,0.485
2.447,-0.025,0.045
2.450,-0.365,-0.280
2.453,-0.525,-0.500
2.456,-0.575,-0.575
2.458,-0.570,-0.540
2.461,-0.480,-0.445
2.464,-0.380,-0.310
2.467,-0.335,-0.195
2.469,-0.345,-0.155
2.472,-0.395,-0.160
2.475,-0.410,-0.185
2.478,-0.430,-0.205
2.481,-0.415,-0.200
2.483,-0.420,-0.175
2.486,-0.425,-0.180
2.489,-0.440,-0.190
2.492,-0.470,-0.205
2.494,-0.475,-0.210
2.497,-0.480,-0.205
2.500,-0.475,-0.195
2.503,-0.475,-0.195
2.506,-0.480,-0.200
2.508,-0.485,-0.215
2.511,-0.495,-0.210
2.514,-0.485,-0.200
2.517,-0.485,-0.195
2.519,-0.490,-0.215
2.522,-0.480,-0.200
2.525,-0.490,-0.210
2.528,-0.485,-0.205
2.531,-0.480,-0.190
2.533,-0.470,-0.185
2.536,-0.475,-0.195
2.539,-0.485,-0.205
2.542,-0.490,-0.220
2.544,-0.490,-0.205
2.547,-0.490,-0.185
2.550,-0.475,-0.160
2.553,-0.480,-0.180
2.556,-0.470,-0.185
2.558,-0.480,-0.195
2.561,-0.490,-0.200
2.564,-0.485,-0.200
2.567,-0.455,-0.185
2.569,-0.450,-0.180
2.572,-0.450,-0.180
2.575,-0.455,-0.180
2.578,-0.475,-0.170
2.581,-0.445,-0.160
2.583,-0.435,-0.150
2.586,-0.425,-0.160
2.589,-0.425,-0.175
2.592,-0.435,-0.170
2.594,-0.430,-0.165
2.597,-0.410,-0.150
2.600,-0.400,-0.130
2.603,-0.380,-0.130
2.606,-0.375,-0.125
2.608,-0.365,-0.130
2.611,-0.355,-0.125
2.614,-0.335,-0.110
2.617,-0.315,-0.105
2.619,-0.295,-0.095
2.622,-0.290,-0.085
2.625,-0.270,-0.070
2.628,-0.260,-0.055
2.631,-0.240,-0.050
2.633,-0.215,-0.015
2.636,-0.205,-0.015
2.639,-0.180,-0.010
2.642,-0.170,-0.010
2.644,-0.160,-0.005
2.647,-0.130,0.030
2.650,-0.105,0.045
2.653,-0.090,0.055
2.656,-0.070,0.055
2.658,-0.060,0.075
2.661,-0.055,0.080
2.664,-0.045,0.090
2.667,-0.025,0.110
2.669,0.005,0.115
2.672,0.010,0.120
2.675,0.010,0.130
2.678,0.015,0.135
2.681,0.035,0.155
2.683,0.040,0.170
2.686,0.055,0.170
2.689,0.060,0.165
2.692,0.035,0.155
2.694,0.030,0.150
2.697,0.045,0.150
2.700,0.035,0.160
2.703,0.040,0.160
2.706,0.030,0.165
2.708,0.005,0.155
2.711,-0.010,0.125
2.714,-0.030,0.115
2.717,-0.040,0.120
2.719,-0.055,0.105
2.722,-0.095,0.065
2.725,-0.105,0.050
2.728,-0.135,0.035
2.731,-0.155,0.030
2.733,-0.170,0.030
2.736,-0.175,0.010
2.739,-0.200,-0.015
2.742,-0.225,-0.040
2.744,-0.260,-0.055
2.747,-0.265,-0.065
2.750,-0.270,-0.070
2.753,-0.265,-0.095
2.756,-0.285,-0.115
2.758,-0.300,-0.130
2.761,-0.310,-0.135
2.764,-0.315,-0.130
2.767,-0.305,-0.125
2.769,-0.300,-0.140
2.772,-0.315,-0.155
2.775,-0.335,-0.165
2.778,-0.345,-0.155
2.781,-0.325,-0.150
2.783,-0.330,-0.170
2.786,-0.325,-0.160
2.789,-0.330,-0.185
2.792,-0.345,-0.170
2.794,-0.335,-0.170
2.797,-0.335,-0.170
2.800,-0.330,-0.165
2.803,-0.335,-0.175
2.806,-0.335,-0.175
2.808,-0.350,-0.190
2.811,-0.340,-0.175
2.814,-0.335,-0.180
2.817,-0.330,-0.180
2.819,-0.335,-0.175
2.822,-0.325,-0.180
2.825,-0.330,-0.175
2.828,-0.320,-0.175
2.831,-0.320,-0.160
2.833,-0.315,-0.160
2.836,-0.320,-0.165
2.839,-0.315,-0.175
2.842,-0.310,-0.180
2.844,-0.305,-0.155
2.847,-0.300,-0.155
2.850,-0.295,-0.145
2.853,-0.305,-0.150
2.856,-0.310,-0.150
2.858,-0.295,-0.150
2.861,-0.295,-0.155
2.864,-0.300,-0.130
2.867,-0.290,-0.145
2.869,-0.285,-0.140
2.872,-0.285,-0.150
2.875,-0.295,-0.135
2.878,-0.290,-0.135
2.881,-0.285,-0.125
2.883,-0.280,-0.130
2.886,-0.280,-0.135
2.889,-0.285,-0.145
2.892,-0.295,-0.135
2.894,-0.285,-0.125
2.897,-0.285,-0.110
2.900,-0.290,-0.130
2.903,-0.280,-0.135
2.906,-0.285,-0.145
2.908,-0.290,-0.130
2.911,-0.295,-0.135
2.914,-0.275,-0.120
2.917,-0.285,-0.130
2.919,-0.295,-0.140
2.922,-0.295,-0.140
2.925,-0.300,-0.155
2.928,-0.300,-0.150
2.931,-0.295,-0.140
2.933,-0.295,-0.145
2.936,-0.305,-0.150
2.939,-0.320,-0.165
2.942,-0.320,-0.160
2.944,-0.320,-0.160
2.947,-0.310,-0.150
2.950,-0.310,-0.165
2.953,-0.320,-0.165
2.956,-0.325,-0.175
2.958,-0.340,-0.185
2.961,-0.330,-0.170
2.964,-0.330,-0.160
2.967,-0.335,-0.175
2.969,-0.345,-0.195
2.972,-0.350,-0.195
2.975,-0.355,-0.190
2.978,-0.355,-0.195
2.981,-0.345,-0.190
2.983,-0.345,-0.200
2.986,-0.350,-0.220
2.989,-0.355,-0.220
2.992,-0.375,-0.215
2.994,-0.365,-0.215
2.997,-0.360,-0.210
3.000,-0.355,-0.205
3.003,-0.360,-0.220
3.006,-0.365,-0.220
3.008,-0.375,-0.225
3.011,-0.370,-0.215
3.014,-0.360,-0.200
3.017,-0.360,-0.215
3.019,-0.370,-0.215
3.022,-0.375,-0.225
3.025,-0.380,-0.235
3.028,-0.380,-0.225
3.031,-0.370,-0.215
3.033,-0.365,-0.220
3.036,-0.365,-0.220
3.039,-0.375,-0.225
3.042,-0.380,-0.245
3.044,-0.380,-0.230
3.047,-0.370,-0.215
3.050,-0.355,-0.225
3.053,-0.355,-0.235
3.056,-0.375,-0.230
3.058,-0.380,-0.230
3.061,-0.370,-0.225
3.064,-0.370,-0.225
3.067,-0.355,-0.235
3.069,-0.355,-0.230
3.072,-0.340,-0.245
3.075,-0.345,-0.240
3.078,-0.330,-0.235
3.081,-0.300,-0.215
3.083,-0.295,-0.225
3.086,-0.290,-0.230
3.089,-0.300,-0.235
3.092,-0.300,-0.245
3.094,-0.290,-0.215
3.097,-0.285,-0.215
3.100,-0.270,-0.215
3.103,-0.255,-0.215
3.106,-0.260,-0.225
3.108,-0.270,-0.235
3.111,-0.275,-0.220
3.114,-0.250,-0.215
3.117,-0.235,-0.230
3.119,-0.235,-0.235
3.122,-0.250,-0.240
3.125,-0.265,-0.240
3.128,-0.280,-0.245
3.131,-0.280,-0.240
3.133,-0.290,-0.255
3.136,-0.310,-0.285
3.139,-0.315,-0.285
3.142,-0.315,-0.290
3.144,-0.300,-0.275
3.147,-0.285,-0.255
3.150,-0.280,-0.235
3.153,-0.305,-0.230
3.156,-0.315,-0.225
3.158,-0.340,-0.225
3.161,-0.350,-0.225
3.164,-0.345,-0.220
3.167,-0.355,-0.235
3.169,-0.380,-0.250
3.172,-0.395,-0.255
3.175,-0.400,-0.240
3.178,-0.385,-0.240
3.181,-0.395,-0.245
3.183,-0.400,-0.250
3.186,-0.405,-0.265
3.189,-0.420,-0.265
3.192,-0.435,-0.270
3.194,-0.415,-0.255
3.197,-0.420,-0.250
3.200,-0.425,-0.250
3.203,-0.425,-0.260
3.206,-0.430,-0.260
3.208,-0.430,-0.265
3.211,-0.430,-0.250
3.214,-0.430,-0.245
3.217,-0.415,-0.245
3.219,-0.425,-0.255
3.222,-0.435,-0.255
3.225,-0.435,-0.260
3.228,-0.425,-0.245
3.231,-0.420,-0.235
3.233,-0.425,-0.250
3.236,-0.420,-0.250
3.239,-0.435,-0.250
3.242,-0.465,-0.245
3.244,-0.505,-0.250
3.247,-0.555,-0.245
3.250,-0.585,-0.275
3.253,-0.555,-0.260
3.256,-0.495,-0.240
3.258,-0.410,-0.190
3.261,-0.230,-0.125
3.264,0.075,-0.015
3.267,0.485,0.150
3.269,0.900,0.370
3.272,1.270,0.600
3.275,1.565,0.850
3.278,1.770,1.060
3.281,1.820,1.180
3.283,1.655,1.145
3.286,1.245,0.930
3.289,0.660,0.525
3.292,0.085,0.045
3.294,-0.335,-0.355
3.297,-0.540,-0.565
3.300,-0.560,-0.610
3.303,-0.515,-0.555
3.306,-0.425,-0.465
3.308,-0.350,-0.330
3.311,-0.325,-0.225
3.314,-0.330,-0.175
3.317,-0.365,-0.175
3.319,-0.390,-0.190
3.322,-0.400,-0.225
3.325,-0.395,-0.235
3.328,-0.410,-0.210
3.331,-0.420,-0.200
3.333,-0.435,-0.220
3.336,-0.440,-0.230
3.339,-0.450,-0.240
3.342,-0.455,-0.250
3.344,-0.460,-0.240
3.347,-0.455,-0.230
3.350,-0.450,-0.230
3.353,-0.460,-0.240
3.356,-0.480,-0.245
3.358,-0.480,-0.235
3.361,-0.465,-0.220
3.364,-0.465,-0.210
3.367,-0.460,-0.215
3.369,-0.465,-0.220
3.372,-0.465,-0.225
3.375,-0.470,-0.225
3.378,-0.465,-0.215
3.381,-0.470,-0.215
3.383,-0.470,-0.220
3.386,-0.470,-0.220
3.389,-0.470,-0.215
3.392,-0.480,-0.215
3.394,-0.470,-0.200
3.397,-0.450,-0.185
3.400,-0.450,-0.200
3.403,-0.455,-0.200
3.406,-0.455,-0.220
3.408,-0.455,-0.205
3.411,-0.460,-0.200
3.414,-0.445,-0.185
3.417,-0.430,-0.195
3.419,-0.435,-0.195
3.422,-0.425,-0.190
3.425,-0.430,-0.195
3.428,-0.425,-0.180
3.431,-0.405,-0.165
3.433,-0.400,-0.170
3.436,-0.385,-0.165
3.439,-0.385,-0.175
3.442,-0.375,-0.160
3.444,-0.375,-0.150
3.447,-0.365,-0.155
3.450,-0.340,-0.135
3.453,-0.335,-0.135
3.456,-0.325,-0.135
3.458,-0.315,-0.125
3.461,-0.290,-0.105
3.464,-0.265,-0.080
3.467,-0.245,-0.070
3.469,-0.220,-0.080
3.472,-0.215,-0.070
3.475,-0.210,-0.060
3.478,-0.185,-0.040
3.481,-0.155,-0.025
3.483,-0.130,-0.015
3.486,-0.110,-0.015
3.489,-0.090,-0.005
3.492,-0.090,0.010
3.494,-0.060,0.025
3.497,-0.025,0.055
3.500,-0.010,0.055
3.503,-0.005,0.065
3.506,0.015,0.080
3.508,0.010,0.080
3.511,0.045,0.105
3.514,0.075,0.115
3.517,0.080,0.115
3.519,0.100,0.130
3.522,0.085,0.105
3.525,0.095,0.120
3.528,0.110,0.130
3.531,0.125,0.155
3.533,0.120,0.150
3.536,0.135,0.145
3.539,0.120,0.120
3.542,0.095,0.125
3.544,0.095,0.125
3.547,0.105,0.130
3.550,0.100,0.125
3.553,0.085,0.115
3.556,0.055,0.090
3.558,0.015,0.080
3.561,0.010,0.075
3.564,-0.005,0.060
3.567,-0.020,0.045
3.569,-0.055,0.025
3.572,-0.075,0.015
3.575,-0.115,-0.010
3.578,-0.125,-0.005
3.581,-0.140,-0.030
3.583,-0.155,-0.045
3.586,-0.180,-0.065
3.589,-0.210,-0.095
3.592,-0.235,-0.105
3.594,-0.235,-0.110
3.597,-0.250,-0.125
3.600,-0.250,-0.125
3.603,-0.270,-0.160
3.606,-0.280,-0.170
3.608,-0.290,-0.180
3.611,-0.315,-0.175
3.614,-0.300,-0.165
3.617,-0.305,-0.170
3.619,-0.305,-0.190
3.622,-0.315,-0.210
3.625,-0.330,-0.215
3.628,-0.330,-0.195
3.631,-0.320,-0.200
3.633,-0.325,-0.205
3.636,-0.315,-0.205
3.639,-0.335,-0.225
3.642,-0.345,-0.215
3.644,-0.330,-0.210
3.647,-0.320,-0.205
3.650,-0.315,-0.205
3.653,-0.325,-0.215
3.656,-0.330,-0.230
3.658,-0.340,-0.225
3.661,-0.320,-0.210
3.664,-0.315,-0.210
3.667,-0.305,-0.205
3.669,-0.310,-0.215
3.672,-0.315,-0.215
3.675,-0.320,-0.215
3.678,-0.300,-0.205
3.681,-0.295,-0.200
3.683,-0.290,-0.195
3.686,-0.300,-0.195
3.689,-0.310,-0.200
3.692,-0.310,-0.200
3.694,-0.300,-0.180
3.697,-0.290,-0.180
3.700,-0.290,-0.170
3.703,-0.285,-0.185
3.706,-0.290,-0.185
3.708,-0.295,-0.180
3.711,-0.285,-0.180
3.714,-0.270,-0.160
3.717,-0.275,-0.165
3.719,-0.275,-0.165
3.722,-0.280,-0.180
3.725,-0.290,-0.175
3.728,-0.290,-0.170
3.731,-0.280,-0.155
3.733,-0.280,-0.165
3.736,-0.270,-0.160
3.739,-0.280,-0.185
3.742,-0.295,-0.185
3.744,-0.290,-0.175
3.747,-0.270,-0.170
3.750,-0.285,-0.165
3.753,-0.285,-0.185
3.756,-0.290,-0.205
3.758,-0.300,-0.195
3.761,-0.285,-0.185
3.764,-0.290,-0.170
3.767,-0.295,-0.175
3.769,-0.305,-0.190
3.772,-0.305,-0.195
3.775,-0.315,-0.200
3.778,-0.300,-0.185
3.781,-0.300,-0.205
3.783,-0.300,-0.190
3.786,-0.310,-0.205
3.789,-0.315,-0.215
3.792,-0.335,-0.220
3.794,-0.320,-0.220
3.797,-0.310,-0.200
3.800,-0.315,-0.215
3.803,-0.325,-0.230
3.806,-0.325,-0.230
3.808,-0.340,-0.230
3.811,-0.335,-0.230
3.814,-0.335,-0.230
3.817,-0.330,-0.230
3.819,-0.340,-0.250
3.822,-0.345,-0.255
3.825,-0.350,-0.250
3.828,-0.345,-0.235
3.831,-0.335,-0.225
3.833,-0.335,-0.245
3.836,-0.345,-0.250
3.839,-0.375,-0.260
3.842,-0.370,-0.260
3.844,-0.360,-0.260
3.847,-0.345,-0.245
3.850,-0.350,-0.250
3.853,-0.355,-0.265
3.856,-0.365,-0.275
3.858,-0.380,-0.270
3.861,-0.370,-0.250
3.864,-0.365,-0.250
3.867,-0.360,-0.250
3.869,-0.370,-0.255
3.872,-0.370,-0.260
3.875,-0.375,-0.260
3.878,-0.370,-0.260
3.881,-0.370,-0.245
3.883,-0.365,-0.245
3.886,-0.370,-0.260
3.889,-0.380,-0.270
3.892,-0.380,-0.255
3.894,-0.375,-0.260
3.897,-0.365,-0.240
3.900,-0.360,-0.255
3.903,-0.365,-0.260
3.906,-0.355,-0.280
3.908,-0.355,-0.270
3.911,-0.355,-0.250
3.914,-0.335,-0.245
3.917,-0.310,-0.240
3.919,-0.310,-0.255
3.922,-0.300,-0.255
3.925,-0.295,-0.260
3.928,-0.295,-0.245
3.931,-0.280,-0.225
3.933,-0.275,-0.230
3.936,-0.270,-0.240
3.939,-0.270,-0.245
3.942,-0.265,-0.245
3.944,-0.260,-0.230
3.947,-0.255,-0.240
3.950,-0.255,-0.250
3.953,-0.245,-0.240
3.956,-0.240,-0.250
3.958,-0.255,-0.250
3.961,-0.245,-0.235
3.964,-0.250,-0.230
3.967,-0.260,-0.255
3.969,-0.275,-0.250
3.972,-0.290,-0.275
3.975,-0.310,-0.280
3.978,-0.320,-0.285
3.981,-0.305,-0.275
3.983,-0.290,-0.285
3.986,-0.285,-0.295
3.989,-0.290,-0.285
3.992,-0.305,-0.250
3.994,-0.310,-0.225
3.997,-0.325,-0.215
4.000,-0.335,-0.230
4.003,-0.335,-0.230
4.006,-0.360,-0.240
4.008,-0.380,-0.250
4.011,-0.385,-0.245
4.014,-0.380,-0.255
4.017,-0.390,-0.255
4.019,-0.405,-0.260
4.022,-0.420,-0.275
4.025,-0.430,-0.275
4.028,-0.425,-0.275
4.031,-0.420,-0.260
4.033,-0.430,-0.280
4.036,-0.425,-0.280
4.039,-0.440,-0.290
4.042,-0.435,-0.275
4.044,-0.425,-0.265
4.047,-0.430,-0.265
4.050,-0.425,-0.255
4.053,-0.425,-0.265
4.056,-0.430,-0.280
4.058,-0.440,-0.275
4.061,-0.445,-0.270
4.064,-0.420,-0.255
4.067,-0.415,-0.260
4.069,-0.425,-0.260
4.072,-0.425,-0.260
4.075,-0.445,-0.265
4.078,-0.450,-0.255
4.081,-0.480,-0.255
4.083,-0.530,-0.270
4.086,-0.580,-0.300
4.089,-0.590,-0.310
4.092,-0.565,-0.295
4.094,-0.480,-0.255
4.097,-0.360,-0.200
4.100,-0.150,-0.145
4.103,0.180,-0.040
4.106,0.590,0.150
4.108,0.985,0.395
4.111,1.370,0.665
4.114,1.665,0.925
4.117,1.820,1.160
4.119,1.825,1.275
4.122,1.655,1.245
4.125,1.215,1.005
4.128,0.640,0.605
4.131,0.090,0.120
4.133,-0.280,-0.310
4.136,-0.480,-0.585
4.139,-0.530,-0.665
4.142,-0.505,-0.605
4.144,-0.425,-0.500
4.147,-0.345,-0.370
4.150,-0.295,-0.275
4.153,-0.315,-0.210
4.156,-0.370,-0.200
4.158,-0.400,-0.210
4.161,-0.390,-0.220
4.164,-0.385,-0.220
4.167,-0.385,-0.220
4.169,-0.410,-0.240
4.172,-0.430,-0.240
4.175,-0.445,-0.250
4.178,-0.445,-0.250
4.181,-0.435,-0.250
4.183,-0.435,-0.230
4.186,-0.455,-0.255
4.189,-0.465,-0.260
4.192,-0.470,-0.255
4.194,-0.465,-0.250
4.197,-0.455,-0.235
4.200,-0.455,-0.240
4.203,-0.455,-0.240
4.206,-0.465,-0.245
4.208,-0.480,-0.250
4.211,-0.475,-0.230
4.214,-0.465,-0.220
4.217,-0.465,-0.225
4.219,-0.465,-0.245
4.222,-0.460,-0.255
4.225,-0.475,-0.240
4.228,-0.470,-0.225
4.231,-0.465,-0.210
4.233,-0.450,-0.230
4.236,-0.450,-0.215
4.239,-0.460,-0.235
4.242,-0.470,-0.225
4.244,-0.455,-0.230
4.247,-0.445,-0.210
4.250,-0.440,-0.215
4.253,-0.435,-0.210
4.256,-0.435,-0.215
4.258,-0.440,-0.215
4.261,-0.445,-0.200
4.264,-0.430,-0.190
4.267,-0.410,-0.195
4.269,-0.410,-0.200
4.272,-0.410,-0.190
4.275,-0.405,-0.190
4.278,-0.400,-0.185
4.281,-0.380,-0.155
4.283,-0.365,-0.165
4.286,-0.360,-0.165
4.289,-0.355,-0.170
4.292,-0.345,-0.155
4.294,-0.330,-0.145
4.297,-0.305,-0.130
4.300,-0.300,-0.110
4.303,-0.285,-0.115
4.306,-0.270,-0.110
4.308,-0.260,-0.100
4.311,-0.230,-0.075
4.314,-0.220,-0.065
4.317,-0.200,-0.045
4.319,-0.185,-0.050
4.322,-0.160,-0.035
4.325,-0.150,-0.030
4.328,-0.120,-0.025
4.331,-0.095,0.000
4.333,-0.075,0.025
4.336,-0.050,0.025
4.339,-0.035,0.035
4.342,-0.035,0.055
4.344,-0.005,0.070
4.347,0.025,0.085
4.350,0.035,0.095
4.353,0.050,0.085
4.356,0.045,0.095
4.358,0.060,0.105
4.361,0.070,0.105
4.364,0.090,0.135
4.367,0.105,0.135
4.369,0.115,0.140
4.372,0.120,0.130
4.375,0.110,0.135
4.378,0.120,0.150
4.381,0.120,0.155
4.383,0.130,0.155
4.386,0.130,0.135
4.389,0.105,0.140
4.392,0.085,0.130
4.394,0.090,0.145
4.397,0.080,0.120
4.400,0.060,0.115
4.403,0.035,0.095
4.406,-0.005,0.075
4.408,-0.025,0.070
4.411,-0.025,0.060
4.414,-0.045,0.035
4.417,-0.065,0.025
4.419,-0.105,-0.010
4.422,-0.145,-0.030
4.425,-0.165,-0.050
4.428,-0.180,-0.055
4.431,-0.195,-0.070
4.433,-0.220,-0.085
4.436,-0.240,-0.105
4.439,-0.250,-0.130
4.442,-0.270,-0.140
4.444,-0.280,-0.145
4.447,-0.280,-0.155
4.450,-0.275,-0.160
4.453,-0.285,-0.170
4.456,-0.305,-0.185
4.458,-0.320,-0.195
4.461,-0.320,-0.185
4.464,-0.310,-0.195
4.467,-0.315,-0.205
4.469,-0.310,-0.215
4.472,-0.325,-0.225
4.475,-0.350,-0.235
4.478,-0.350,-0.220
4.481,-0.330,-0.210
4.483,-0.325,-0.205
4.486,-0.325,-0.210
4.489,-0.340,-0.225
4.492,-0.345,-0.235
4.494,-0.330,-0.225
4.497,-0.330,-0.215
4.500,-0.330,-0.200
4.503,-0.320,-0.225
4.506,-0.340,-0.230
4.508,-0.340,-0.220
4.511,-0.325,-0.220
4.514,-0.305,-0.215
4.517,-0.315,-0.210
4.519,-0.305,-0.215
4.522,-0.310,-0.220
4.525,-0.315,-0.210
4.528,-0.305,-0.210
4.531,-0.300,-0.190
4.533,-0.295,-0.195
4.536,-0.300,-0.190
4.539,-0.300,-0.195
4.542,-0.310,-0.205
4.544,-0.300,-0.190
4.547,-0.290,-0.180
4.550,-0.275,-0.175
4.553,-0.285,-0.180
4.556,-0.295,-0.190
4.558,-0.300,-0.180
4.561,-0.295,-0.180
4.564,-0.270,-0.160
4.567,-0.275,-0.170
4.569,-0.275,-0.180
4.572,-0.295,-0.185
4.575,-0.295,-0.195
4.578,-0.290,-0.180
4.581,-0.275,-0.190
4.583,-0.285,-0.180
4.586,-0.270,-0.185
4.589,-0.290,-0.200
4.592,-0.290,-0.200
4.594,-0.285,-0.195
4.597,-0.275,-0.190
4.600,-0.270,-0.195
4.603,-0.285,-0.195
4.606,-0.290,-0.215
4.608,-0.305,-0.200
4.611,-0.295,-0.200
4.614,-0.295,-0.195
4.617,-0.290,-0.190
4.619,-0.290,-0.200
4.622,-0.305,-0.220
4.625,-0.310,-0.230
4.628,-0.310,-0.215
4.631,-0.300,-0.205
4.633,-0.315,-0.210
4.636,-0.310,-0.215
4.639,-0.320,-0.225
4.642,-0.330,-0.225
4.644,-0.320,-0.220
4.647,-0.330,-0.200
4.650,-0.310,-0.215
4.653,-0.325,-0.220
4.656,-0.335,-0.225
4.658,-0.345,-0.240
4.661,-0.335,-0.240
4.664,-0.340,-0.220
4.667,-0.330,-0.220
4.669,-0.340,-0.245
4.672,-0.350,-0.240
4.675,-0.355,-0.245
4.678,-0.355,-0.240
4.681,-0.335,-0.230
4.683,-0.335,-0.240
4.686,-0.345,-0.255
4.689,-0.350,-0.260
4.692,-0.365,-0.260
4.694,-0.365,-0.240
4.697,-0.365,-0.260
4.700,-0.345,-0.255
4.703,-0.360,-0.270
4.706,-0.360,-0.285
4.708,-0.365,-0.275
4.711,-0.370,-0.270
4.714,-0.365,-0.265
4.717,-0.350,-0.275
4.719,-0.350,-0.285
4.722,-0.370,-0.275
4.725,-0.370,-0.275
4.728,-0.360,-0.265
4.731,-0.345,-0.260
4.733,-0.350,-0.245
4.736,-0.360,-0.265
4.739,-0.370,-0.275
4.742,-0.375,-0.270
4.744,-0.360,-0.270
4.747,-0.360,-0.260
4.750,-0.350,-0.265
4.753,-0.345,-0.275
4.756,-0.355,-0.285
4.758,-0.350,-0.275
4.761,-0.330,-0.255
4.764,-0.315,-0.255
4.767,-0.290,-0.250
4.769,-0.290,-0.265
4.772,-0.295,-0.270
4.775,-0.295,-0.265
4.778,-0.290,-0.245
4.781,-0.270,-0.250
4.783,-0.260,-0.250
4.786,-0.255,-0.260
4.789,-0.265,-0.250
4.792,-0.270,-0.255
4.794,-0.255,-0.250
4.797,-0.245,-0.235
4.800,-0.245,-0.245
4.803,-0.250,-0.250
4.806,-0.245,-0.255
4.808,-0.250,-0.245
4.811,-0.240,-0.240
4.814,-0.240,-0.230
4.817,-0.250,-0.245
4.819,-0.270,-0.250
4.822,-0.275,-0.270
4.825,-0.295,-0.285
4.828,-0.310,-0.285
4.831,-0.300,-0.290
4.833,-0.280,-0.300
4.836,-0.280,-0.295
4.839,-0.280,-0.290
4.842,-0.280,-0.280
4.844,-0.290,-0.235
4.847,-0.300,-0.225
4.850,-0.310,-0.220
4.853,-0.325,-0.230
4.856,-0.350,-0.250
4.858,-0.350,-0.235
4.861,-0.365,-0.240
4.864,-0.365,-0.230
4.867,-0.370,-0.250
4.869,-0.380,-0.260
4.872,-0.380,-0.280
4.875,-0.400,-0.260
4.878,-0.405,-0.255
4.881,-0.415,-0.255
4.883,-0.415,-0.265
4.886,-0.420,-0.270
4.889,-0.425,-0.280
4.892,-0.445,-0.285
4.894,-0.440,-0.275
4.897,-0.420,-0.255
4.900,-0.425,-0.265
4.903,-0.425,-0.280
4.906,-0.430,-0.270
4.908,-0.430,-0.280
4.911,-0.420,-0.255
4.914,-0.410,-0.260
4.917,-0.415,-0.260
4.919,-0.435,-0.265
4.922,-0.415,-0.275
4.925,-0.420,-0.285
4.928,-0.415,-0.275
4.931,-0.415,-0.255
4.933,-0.410,-0.255
4.936,-0.410,-0.260
4.939,-0.420,-0.265
4.942,-0.450,-0.265
4.944,-0.470,-0.260
4.947,-0.530,-0.265
4.950,-0.580,-0.280
4.953,-0.595,-0.305
4.956,-0.560,-0.300
4.958,-0.515,-0.270
4.961,-0.430,-0.220
4.964,-0.285,-0.175
4.967,-0.055,-0.125
4.969,0.270,-0.015
4.972,0.600,0.145
4.975,0.935,0.365
4.978,1.265,0.590
4.981,1.575,0.840
4.983,1.785,1.075
4.986,1.875,1.255
4.989,1.800,1.305
4.992,1.555,1.210
4.994,1.090,0.965
4.997,0.550,0.570
5.000,0.080,0.115
5.003,-0.270,-0.295
5.006,-0.440,-0.560
5.008,-0.510,-0.675
5.011,-0.510,-0.660
5.014,-0.485,-0.585
5.017,-0.410,-0.505
5.019,-0.345,-0.395
5.022,-0.310,-0.305
5.025,-0.325,-0.255
5.028,-0.345,-0.215
5.031,-0.355,-0.190
5.033,-0.375,-0.215
5.036,-0.375,-0.230
5.039,-0.395,-0.235
5.042,-0.410,-0.230
5.044,-0.395,-0.215
5.047,-0.400,-0.215
5.050,-0.420,-0.240
5.053,-0.435,-0.245
5.056,-0.445,-0.250
5.058,-0.455,-0.250
5.061,-0.460,-0.245
5.064,-0.445,-0.225
5.067,-0.460,-0.230
5.069,-0.450,-0.245
5.072,-0.465,-0.250
5.075,-0.470,-0.255
5.078,-0.460,-0.230
5.081,-0.440,-0.220
5.083,-0.450,-0.235
5.086,-0.460,-0.235
5.089,-0.460,-0.245
5.092,-0.485,-0.255
5.094,-0.465,-0.240
5.097,-0.465,-0.235
5.100,-0.455,-0.235
5.103,-0.460,-0.225
5.106,-0.470,-0.250
5.108,-0.470,-0.245
5.111,-0.455,-0.230
5.114,-0.460,-0.215
5.117,-0.455,-0.215
5.119,-0.445,-0.220
5.122,-0.450,-0.215
5.125,-0.465,-0.220
5.128,-0.445,-0.215
5.131,-0.435,-0.205
5.133,-0.420,-0.215
5.136,-0.430,-0.200
5.139,-0.430,-0.205
5.142,-0.445,-0.205
5.144,-0.435,-0.190
5.147,-0.415,-0.180
5.150,-0.410,-0.180
5.153,-0.410,-0.185
5.156,-0.415,-0.185
5.158,-0.405,-0.190
5.161,-0.410,-0.175
5.164,-0.390,-0.165
5.167,-0.380,-0.175
5.169,-0.365,-0.185
5.172,-0.365,-0.175
5.175,-0.360,-0.165
5.178,-0.360,-0.160
5.181,-0.325,-0.140
5.183,-0.315,-0.130
5.186,-0.295,-0.145
5.189,-0.290,-0.130
5.192,-0.290,-0.120
5.194,-0.275,-0.100
5.197,-0.250,-0.075
5.200,-0.225,-0.070
5.203,-0.205,-0.075
5.206,-0.205,-0.070
5.208,-0.185,-0.050
5.211,-0.170,-0.030
5.214,-0.140,-0.015
5.217,-0.125,-0.005
5.219,-0.120,0.005
5.222,-0.100,-0.005
5.225,-0.095,0.015
5.228,-0.075,0.025
5.231,-0.040,0.050
5.233,-0.020,0.060
5.236,-0.005,0.065
5.239,-0.005,0.055
5.242,-0.005,0.060
5.244,0.020,0.080
5.247,0.045,0.105
5.250,0.070,0.100
5.253,0.080,0.105
5.256,0.075,0.115
5.258,0.085,0.125
5.261,0.105,0.150
5.264,0.120,0.165
5.267,0.130,0.155
5.269,0.125,0.155
5.272,0.115,0.145
5.275,0.115,0.140
5.278,0.125,0.145
5.281,0.125,0.170
5.283,0.135,0.175
5.286,0.115,0.160
5.289,0.095,0.155
5.292,0.080,0.145
5.294,0.070,0.145
5.297,0.065,0.140
5.300,0.045,0.125
5.303,0.015,0.110
5.306,0.000,0.090
5.308,-0.045,0.080
5.311,-0.040,0.070
5.314,-0.070,0.060
5.317,-0.080,0.050
5.319,-0.100,0.020
5.322,-0.140,-0.010
5.325,-0.160,-0.015
5.328,-0.185,-0.030
5.331,-0.185,-0.030
5.333,-0.195,-0.040
5.336,-0.210,-0.075
5.339,-0.225,-0.085
5.342,-0.255,-0.095
5.344,-0.245,-0.105
5.347,-0.260,-0.110
5.350,-0.265,-0.120
5.353,-0.275,-0.135
5.356,-0.285,-0.145
5.358,-0.305,-0.160
5.361,-0.290,-0.160
5.364,-0.295,-0.145
5.367,-0.285,-0.160
5.369,-0.305,-0.175
5.372,-0.325,-0.185
5.375,-0.325,-0.195
5.378,-0.330,-0.190
5.381,-0.310,-0.190
5.383,-0.315,-0.190
5.386,-0.310,-0.205
5.389,-0.325,-0.210
5.392,-0.325,-0.205
5.394,-0.325,-0.200
5.397,-0.320,-0.180
5.400,-0.325,-0.180
5.403,-0.325,-0.185
5.406,-0.320,-0.195
5.408,-0.320,-0.180
5.411,-0.310,-0.175
5.414,-0.300,-0.170
5.417,-0.295,-0.160
5.419,-0.315,-0.170
5.422,-0.300,-0.190
5.425,-0.310,-0.195
5.428,-0.310,-0.180
5.431,-0.300,-0.180
5.433,-0.290,-0.170
5.436,-0.290,-0.180
5.439,-0.290,-0.175
5.442,-0.305,-0.185
5.444,-0.285,-0.165
5.447,-0.280,-0.140
5.450,-0.275,-0.155
5.453,-0.275,-0.160
5.456,-0.275,-0.165
5.458,-0.280,-0.160
5.461,-0.285,-0.155
5.464,-0.270,-0.150
5.467,-0.270,-0.140
5.469,-0.270,-0.155
5.472,-0.275,-0.170
5.475,-0.280,-0.150
5.478,-0.270,-0.140
5.481,-0.270,-0.130
5.483,-0.270,-0.130
5.486,-0.270,-0.145
5.489,-0.270,-0.155
5.492,-0.280,-0.155
5.494,-0.275,-0.145
5.497,-0.265,-0.125
5.500,-0.265,-0.125
5.503,-0.270,-0.145
5.506,-0.280,-0.145
5.508,-0.285,-0.145
5.511,-0.280,-0.140
5.514,-0.285,-0.140
5.517,-0.285,-0.155
5.519,-0.280,-0.155
5.522,-0.290,-0.175
5.525,-0.300,-0.160
5.528,-0.295,-0.160
5.531,-0.280,-0.145
5.533,-0.280,-0.150
5.536,-0.275,-0.150
5.539,-0.300,-0.165
5.542,-0.310,-0.155
5.544,-0.300,-0.160
5.547,-0.295,-0.160
5.550,-0.300,-0.165
5.553,-0.300,-0.195
5.556,-0.310,-0.190
5.558,-0.320,-0.175
5.561,-0.320,-0.155
5.564,-0.310,-0.165
5.567,-0.305,-0.165
5.569,-0.320,-0.185
5.572,-0.315,-0.195
5.575,-0.340,-0.205
5.578,-0.330,-0.200
5.581,-0.320,-0.185
5.583,-0.325,-0.200
5.586,-0.330,-0.190
5.589,-0.330,-0.200
5.592,-0.340,-0.205
5.594,-0.335,-0.205
5.597,-0.340,-0.185
5.600,-0.330,-0.190
5.603,-0.340,-0.210
5.606,-0.340,-0.220
5.608,-0.365,-0.230
5.611,-0.350,-0.205
5.614,-0.355,-0.205
5.617,-0.345,-0.210
5.619,-0.355,-0.235
5.622,-0.365,-0.225
5.625,-0.360,-0.245
5.628,-0.365,-0.225
5.631,-0.360,-0.215
5.633,-0.355,-0.220
5.636,-0.355,-0.235
5.639,-0.360,-0.240
5.642,-0.375,-0.240
5.644,-0.365,-0.230
5.647,-0.370,-0.215
5.650,-0.360,-0.220
5.653,-0.355,-0.225
5.656,-0.370,-0.225
5.658,-0.375,-0.230
5.661,-0.360,-0.215
5.664,-0.360,-0.215
5.667,-0.350,-0.230
5.669,-0.350,-0.245
5.672,-0.370,-0.245
5.675,-0.375,-0.245
5.678,-0.365,-0.240
5.681,-0.360,-0.215
5.683,-0.360,-0.230
5.686,-0.360,-0.230
5.689,-0.360,-0.235
5.692,-0.365,-0.240
5.694,-0.350,-0.225
5.697,-0.325,-0.215
5.700,-0.315,-0.230
5.703,-0.305,-0.225
5.706,-0.300,-0.230
5.708,-0.305,-0.235
5.711,-0.295,-0.215
5.714,-0.285,-0.200
5.717,-0.275,-0.215
5.719,-0.285,-0.220
5.722,-0.275,-0.225
5.725,-0.275,-0.220
5.728,-0.255,-0.220
5.731,-0.240,-0.200
5.733,-0.245,-0.205
5.736,-0.240,-0.215
5.739,-0.250,-0.225
5.742,-0.245,-0.205
5.744,-0.235,-0.195
5.747,-0.235,-0.185
5.750,-0.245,-0.200
5.753,-0.255,-0.210
5.756,-0.285,-0.240
5.758,-0.310,-0.260
5.761,-0.315,-0.260
5.764,-0.310,-0.255
5.767,-0.290,-0.260
5.769,-0.290,-0.255
5.772,-0.290,-0.260
5.775,-0.305,-0.230
5.778,-0.310,-0.205
5.781,-0.320,-0.185
5.783,-0.330,-0.180
5.786,-0.350,-0.205
5.789,-0.355,-0.215
5.792,-0.370,-0.210
5.794,-0.365,-0.200
5.797,-0.370,-0.190
5.800,-0.385,-0.210
5.803,-0.395,-0.220
5.806,-0.405,-0.240
5.808,-0.410,-0.235
5.811,-0.410,-0.235
5.814,-0.400,-0.220
5.817,-0.400,-0.230
5.819,-0.410,-0.240
5.822,-0.430,-0.240
5.825,-0.440,-0.240
5.828,-0.425,-0.240
5.831,-0.430,-0.220
5.833,-0.425,-0.225
5.836,-0.415,-0.240
5.839,-0.425,-0.245
5.842,-0.420,-0.230
5.844,-0.415,-0.225
5.847,-0.400,-0.210
5.850,-0.405,-0.225
5.853,-0.410,-0.230
5.856,-0.415,-0.225
5.858,-0.415,-0.220
5.861,-0.405,-0.215
5.864,-0.400,-0.195
5.867,-0.410,-0.190
5.869,-0.420,-0.210
5.872,-0.475,-0.215
5.875,-0.530,-0.240
5.878,-0.560,-0.230
5.881,-0.560,-0.230
5.883,-0.505,-0.215
5.886,-0.440,-0.175
5.889,-0.315,-0.155
5.892,-0.105,-0.105
5.894,0.220,0.020
5.897,0.570,0.210
5.900,0.910,0.430
5.903,1.255,0.650
5.906,1.535,0.860
5.908,1.700,1.075
5.911,1.770,1.215
5.914,1.670,1.215
5.917,1.335,1.080
5.919,0.845,0.800
5.922,0.350,0.425
5.925,-0.050,0.035
5.928,-0.330,-0.290
5.931,-0.475,-0.485
5.933,-0.525,-0.545
5.936,-0.520,-0.545
5.939,-0.455,-0.465
5.942,-0.365,-0.345
5.944,-0.315,-0.220
5.947,-0.295,-0.150
5.950,-0.345,-0.140
5.953,-0.375,-0.170
5.956,-0.390,-0.200
5.958,-0.395,-0.185
5.961,-0.375,-0.170
5.964,-0.380,-0.160
5.967,-0.400,-0.160
5.969,-0.425,-0.175
5.972,-0.430,-0.200
5.975,-0.445,-0.205
5.978,-0.435,-0.190
5.981,-0.430,-0.180
5.983,-0.430,-0.195
5.986,-0.425,-0.195
5.989,-0.445,-0.190
5.992,-0.445,-0.200
5.994,-0.455,-0.185
5.997,-0.445,-0.170
6.000,-0.430,-0.165
6.003,-0.430,-0.185
6.006,-0.450,-0.180
6.008,-0.460,-0.185
6.011,-0.445,-0.180
6.014,-0.445,-0.185
6.017,-0.435,-0.180
6.019,-0.440,-0.190
6.022,-0.445,-0.200
6.025,-0.455,-0.185
6.028,-0.450,-0.180
6.031,-0.435,-0.165
6.033,-0.425,-0.165
6.036,-0.435,-0.175
6.039,-0.445,-0.170
6.042,-0.450,-0.170
6.044,-0.440,-0.160
6.047,-0.425,-0.155
6.050,-0.420,-0.155
6.053,-0.425,-0.175
6.056,-0.425,-0.170
6.058,-0.430,-0.170
6.061,-0.415,-0.155
6.064,-0.405,-0.160
6.067,-0.400,-0.155
6.069,-0.395,-0.170
6.072,-0.400,-0.155
6.075,-0.400,-0.150
6.078,-0.380,-0.140
6.081,-0.370,-0.140
6.083,-0.370,-0.130
6.086,-0.365,-0.140
6.089,-0.360,-0.135
6.092,-0.365,-0.130
6.094,-0.340,-0.115
6.097,-0.325,-0.105
6.100,-0.310,-0.100
6.103,-0.305,-0.100
6.106,-0.300,-0.085
6.108,-0.285,-0.075
6.111,-0.265,-0.065
6.114,-0.245,-0.035
6.117,-0.225,-0.030
6.119,-0.215,-0.015
6.122,-0.220,-0.025
6.125,-0.195,-0.005
6.128,-0.165,0.000
6.131,-0.145,0.035
6.133,-0.120,0.040
6.136,-0.110,0.040
6.139,-0.110,0.055
6.142,-0.090,0.055
6.144,-0.065,0.075
6.147,-0.040,0.105
6.150,-0.020,0.105
6.153,-0.010,0.110
6.156,0.005,0.125
6.158,0.015,0.135
6.161,0.040,0.150
6.164,0.045,0.165
6.167,0.070,0.170
6.169,0.070,0.170
6.172,0.065,0.175
6.175,0.075,0.175
6.178,0.075,0.185
6.181,0.100,0.190
6.183,0.115,0.205
6.186,0.120,0.195
6.189,0.105,0.185
6.192,0.090,0.190
6.194,0.100,0.185
6.197,0.105,0.200
6.200,0.095,0.190
6.203,0.075,0.165
6.206,0.060,0.165
6.208,0.025,0.160
6.211,0.010,0.165
6.214,0.015,0.150
6.217,-0.005,0.125
6.219,-0.045,0.105
6.222,-0.080,0.090
6.225,-0.100,0.060
6.228,-0.115,0.060
6.231,-0.110,0.050
6.233,-0.135,0.030
6.236,-0.165,0.010
6.239,-0.190,-0.015
6.242,-0.195,-0.040
6.244,-0.200,-0.040
6.247,-0.210,-0.050
6.250,-0.220,-0.055
6.253,-0.225,-0.070
6.256,-0.255,-0.090
6.258,-0.260,-0.085
6.261,-0.265,-0.090
6.264,-0.265,-0.085
6.267,-0.270,-0.095
6.269,-0.275,-0.115
6.272,-0.280,-0.115
6.275,-0.285,-0.135
6.278,-0.290,-0.130
6.281,-0.285,-0.105
6.283,-0.285,-0.120
6.286,-0.290,-0.140
6.289,-0.300,-0.135
6.292,-0.310,-0.145
6.294,-0.305,-0.145
6.297,-0.295,-0.130
6.300,-0.290,-0.140
6.303,-0.290,-0.145
6.306,-0.295,-0.150
6.308,-0.300,-0.155
6.311,-0.300,-0.135
6.314,-0.285,-0.135
6.317,-0.285,-0.140
6.319,-0.290,-0.140
6.322,-0.300,-0.150
6.325,-0.290,-0.145
6.328,-0.295,-0.140
6.331,-0.280,-0.125
6.333,-0.280,-0.135
6.336,-0.280,-0.145
6.339,-0.275,-0.145
6.342,-0.285,-0.145
6.344,-0.275,-0.130
6.347,-0.265,-0.115
6.350,-0.265,-0.120
6.353,-0.260,-0.130
6.356,-0.260,-0.135
6.358,-0.270,-0.125
6.361,-0.260,-0.105
6.364,-0.255,-0.110
6.367,-0.245,-0.105
6.369,-0.245,-0.115
6.372,-0.245,-0.125
6.375,-0.245,-0.120
6.378,-0.250,-0.105
6.381,-0.235,-0.110
6.383,-0.245,-0.105
6.386,-0.235,-0.105
6.389,-0.260,-0.125
6.392,-0.260,-0.110
6.394,-0.260,-0.110
6.397,-0.230,-0.090
6.400,-0.240,-0.085
6.403,-0.230,-0.105
6.406,-0.245,-0.105
6.408,-0.240,-0.115
6.411,-0.245,-0.110
6.414,-0.250,-0.105
6.417,-0.240,-0.105
6.419,-0.240,-0.125
6.422,-0.255,-0.135
6.425,-0.260,-0.120
6.428,-0.255,-0.110
6.431,-0.240,-0.100
6.433,-0.245,-0.110
6.436,-0.255,-0.125
6.439,-0.255,-0.135
6.442,-0.275,-0.150
6.444,-0.260,-0.125
6.447,-0.260,-0.115
6.450,-0.260,-0.120
6.453,-0.265,-0.120
6.456,-0.265,-0.145
6.458,-0.280,-0.135
6.461,-0.275,-0.140
6.464,-0.260,-0.135
6.467,-0.275,-0.140
6.469,-0.275,-0.155
6.472,-0.285,-0.155
6.475,-0.295,-0.165
6.478,-0.300,-0.170
6.481,-0.290,-0.165
6.483,-0.295,-0.160
6.486,-0.295,-0.170
6.489,-0.295,-0.180
6.492,-0.320,-0.185
6.494,-0.315,-0.175
6.497,-0.300,-0.175
6.500,-0.305,-0.180
6.503,-0.325,-0.185
6.506,-0.325,-0.190
6.508,-0.330,-0.190
6.511,-0.320,-0.185
6.514,-0.320,-0.170
6.517,-0.315,-0.185
6.519,-0.320,-0.190
6.522,-0.330,-0.195
6.525,-0.345,-0.200
6.528,-0.335,-0.185
6.531,-0.330,-0.180
6.533,-0.325,-0.180
6.536,-0.335,-0.185
6.539,-0.340,-0.205
6.542,-0.340,-0.200
6.544,-0.330,-0.185
6.547,-0.330,-0.185
6.550,-0.320,-0.180
6.553,-0.330,-0.195
6.556,-0.330,-0.210
6.558,-0.340,-0.210
6.561,-0.335,-0.195
6.564,-0.330,-0.190
6.567,-0.325,-0.190
6.569,-0.330,-0.195
6.572,-0.335,-0.205
6.575,-0.345,-0.195
6.578,-0.330,-0.200
6.581,-0.325,-0.190
6.583,-0.310,-0.195
6.586,-0.300,-0.205
6.589,-0.280,-0.210
6.592,-0.265,-0.205
6.594,-0.270,-0.190
6.597,-0.270,-0.180
6.600,-0.250,-0.185
6.603,-0.240,-0.190
6.606,-0.250,-0.195
6.608,-0.250,-0.195
6.611,-0.245,-0.170
6.614,-0.205,-0.190
6.617,-0.210,-0.180
6.619,-0.220,-0.190
6.622,-0.230,-0.185
6.625,-0.225,-0.200
6.628,-0.210,-0.170
6.631,-0.215,-0.160
6.633,-0.210,-0.185
6.636,-0.235,-0.180
6.639,-0.245,-0.195
6.642,-0.270,-0.205
6.644,-0.255,-0.210
6.647,-0.270,-0.210
6.650,-0.255,-0.225
6.653,-0.250,-0.235
6.656,-0.260,-0.235
6.658,-0.260,-0.220
6.661,-0.260,-0.185
6.664,-0.260,-0.170
6.667,-0.275,-0.160
6.669,-0.300,-0.170
6.672,-0.315,-0.185
6.675,-0.325,-0.180
6.678,-0.330,-0.175
6.681,-0.340,-0.170
6.683,-0.330,-0.185
6.686,-0.345,-0.210
6.689,-0.365,-0.205
6.692,-0.380,-0.205
6.694,-0.375,-0.205
6.697,-0.375,-0.195
6.700,-0.385,-0.205
6.703,-0.385,-0.210
6.706,-0.390,-0.220
6.708,-0.390,-0.210
6.711,-0.395,-0.195
6.714,-0.385,-0.195
6.717,-0.390,-0.200
6.719,-0.390,-0.205
6.722,-0.395,-0.220
6.725,-0.400,-0.205
6.728,-0.395,-0.205
6.731,-0.385,-0.190
6.733,-0.380,-0.190
6.736,-0.385,-0.195
6.739,-0.400,-0.200
6.742,-0.400,-0.205
6.744,-0.395,-0.195
6.747,-0.385,-0.175
6.750,-0.400,-0.185
6.753,-0.445,-0.205
6.756,-0.520,-0.215
6.758,-0.570,-0.230
6.761,-0.540,-0.215
6.764,-0.475,-0.195
6.767,-0.380,-0.150
6.769,-0.245,-0.110
6.772,-0.005,-0.040
6.775,0.370,0.095
6.778,0.790,0.350
6.781,1.190,0.600
6.783,1.515,0.840
6.786,1.735,1.090
6.789,1.825,1.265
6.792,1.740,1.310
6.794,1.420,1.170
6.797,0.910,0.830
6.800,0.345,0.360
6.803,-0.120,-0.105
6.806,-0.395,-0.425
6.808,-0.510,-0.570
6.811,-0.490,-0.565
6.814,-0.420,-0.460
6.817,-0.325,-0.350
6.819,-0.280,-0.235
6.822,-0.270,-0.160
6.825,-0.320,-0.135
6.828,-0.350,-0.135
6.831,-0.350,-0.150
6.833,-0.350,-0.170
6.836,-0.335,-0.175
6.839,-0.365,-0.170
6.842,-0.395,-0.175
6.844,-0.400,-0.175
6.847,-0.400,-0.175
6.850,-0.395,-0.180
6.853,-0.410,-0.180
6.856,-0.415,-0.200
6.858,-0.420,-0.185
6.861,-0.430,-0.175
6.864,-0.420,-0.175
6.867,-0.415,-0.170
6.869,-0.415,-0.180
6.872,-0.425,-0.195
6.875,-0.425,-0.190
6.878,-0.425,-0.175
6.881,-0.420,-0.170
6.883,-0.405,-0.165
6.886,-0.410,-0.180
6.889,-0.420,-0.180
6.892,-0.425,-0.175
6.894,-0.425,-0.170
6.897,-0.410,-0.160
6.900,-0.405,-0.155
6.903,-0.410,-0.155
6.906,-0.410,-0.175
6.908,-0.420,-0.165
6.911,-0.410,-0.165
6.914,-0.410,-0.145
6.917,-0.385,-0.150
6.919,-0.390,-0.155
6.922,-0.400,-0.160
6.925,-0.415,-0.155
6.928,-0.395,-0.135
6.931,-0.385,-0.145
6.933,-0.375,-0.145
6.936,-0.370,-0.140
6.939,-0.370,-0.135
6.942,-0.365,-0.130
6.944,-0.360,-0.115
6.947,-0.345,-0.110
6.950,-0.330,-0.100
6.953,-0.320,-0.105
6.956,-0.315,-0.110
6.958,-0.320,-0.100
6.961,-0.290,-0.085
6.964,-0.275,-0.065
6.967,-0.260,-0.060
6.969,-0.255,-0.060
6.972,-0.245,-0.055
6.975,-0.255,-0.050
6.978,-0.220,-0.045
6.981,-0.195,-0.020
6.983,-0.160,-0.005
6.986,-0.155,0.000
6.989,-0.145,0.010
6.992,-0.145,0.020
6.994,-0.110,0.045
6.997,-0.075,0.065
7.000,-0.060,0.060
7.003,-0.040,0.085
7.006,-0.030,0.080
7.008,-0.010,0.085
7.011,0.010,0.105
7.014,0.040,0.135
7.017,0.055,0.145
7.019,0.055,0.140
7.022,0.065,0.145
7.025,0.075,0.150
7.028,0.090,0.160
7.031,0.100,0.190
7.033,0.110,0.200
7.036,0.130,0.190
7.039,0.130,0.185
7.042,0.130,0.195
7.044,0.135,0.220
7.047,0.155,0.215
7.050,0.150,0.210
7.053,0.150,0.205
7.056,0.135,0.190
7.058,0.120,0.200
7.061,0.115,0.195
7.064,0.120,0.200
7.067,0.110,0.185
7.069,0.085,0.160
7.072,0.055,0.140
7.075,0.030,0.145
7.078,0.025,0.140
7.081,0.000,0.115
7.083,-0.020,0.100
7.086,-0.050,0.085
7.089,-0.080,0.045
7.092,-0.115,0.030
7.094,-0.130,0.025
7.097,-0.145,0.015
7.100,-0.145,-0.010
7.103,-0.175,-0.020
7.106,-0.205,-0.055
7.108,-0.230,-0.055
7.111,-0.235,-0.060
7.114,-0.235,-0.065
7.117,-0.245,-0.085
7.119,-0.255,-0.105
7.122,-0.270,-0.105
7.125,-0.285,-0.120
7.128,-0.280,-0.110
7.131,-0.280,-0.120
7.133,-0.285,-0.120
7.136,-0.290,-0.135
7.139,-0.305,-0.145
7.142,-0.305,-0.155
7.144,-0.300,-0.145
7.147,-0.290,-0.135
7.150,-0.295,-0.145
7.153,-0.300,-0.145
7.156,-0.300,-0.160
7.158,-0.315,-0.160
7.161,-0.310,-0.150
7.164,-0.290,-0.145
7.167,-0.300,-0.150
7.169,-0.310,-0.165
7.172,-0.310,-0.160
7.175,-0.315,-0.155
7.178,-0.310,-0.150
7.181,-0.290,-0.145
7.183,-0.285,-0.140
7.186,-0.290,-0.140
7.189,-0.295,-0.150
7.192,-0.295,-0.150
7.194,-0.290,-0.150
7.197,-0.275,-0.125
7.200,-0.260,-0.130
7.203,-0.280,-0.130
7.206,-0.270,-0.140
7.208,-0.275,-0.135
7.211,-0.265,-0.125
7.214,-0.265,-0.125
7.217,-0.255,-0.115
7.219,-0.260,-0.125
7.222,-0.275,-0.125
7.225,-0.275,-0.135
7.228,-0.270,-0.130
7.231,-0.255,-0.105
7.233,-0.250,-0.100
7.236,-0.255,-0.115
7.239,-0.265,-0.120
7.242,-0.265,-0.110
7.244,-0.265,-0.105
7.247,-0.260,-0.090
7.250,-0.250,-0.105
7.253,-0.260,-0.115
7.256,-0.265,-0.120
7.258,-0.265,-0.110
7.261,-0.265,-0.105
7.264,-0.255,-0.105
7.267,-0.250,-0.105
7.269,-0.255,-0.120
7.272,-0.265,-0.120
7.275,-0.275,-0.120
7.278,-0.260,-0.120
7.281,-0.265,-0.110
7.283,-0.260,-0.110
7.286,-0.265,-0.125
7.289,-0.290,-0.140
7.292,-0.310,-0.130
7.294,-0.290,-0.125
7.297,-0.280,-0.115
7.300,-0.280,-0.120
7.303,-0.290,-0.140
7.306,-0.305,-0.155
7.308,-0.315,-0.150
7.311,-0.300,-0.140
7.314,-0.295,-0.135
7.317,-0.300,-0.155
7.319,-0.300,-0.160
7.322,-0.310,-0.170
7.325,-0.315,-0.180
7.328,-0.315,-0.165
7.331,-0.315,-0.155
7.333,-0.310,-0.155
7.336,-0.320,-0.170
7.339,-0.330,-0.190
7.342,-0.330,-0.190
7.344,-0.335,-0.180
7.347,-0.325,-0.165
7.350,-0.325,-0.180
7.353,-0.330,-0.190
7.356,-0.340,-0.185
7.358,-0.355,-0.210
7.361,-0.340,-0.200
7.364,-0.335,-0.190
7.367,-0.340,-0.190
7.369,-0.335,-0.215
7.372,-0.350,-0.205
7.375,-0.345,-0.210
7.378,-0.340,-0.200
7.381,-0.350,-0.190
7.383,-0.345,-0.190
7.386,-0.340,-0.195
7.389,-0.345,-0.205
7.392,-0.365,-0.195
7.394,-0.355,-0.195
7.397,-0.345,-0.175
7.400,-0.335,-0.185
7.403,-0.335,-0.205
7.406,-0.350,-0.215
7.408,-0.350,-0.200
7.411,-0.345,-0.195
7.414,-0.320,-0.205
7.417,-0.305,-0.180
7.419,-0.300,-0.180
7.422,-0.280,-0.195
7.425,-0.290,-0.205
7.428,-0.270,-0.185
7.431,-0.260,-0.170
7.433,-0.255,-0.170
7.436,-0.255,-0.175
7.439,-0.250,-0.180
7.442,-0.260,-0.185
7.444,-0.250,-0.180
7.447,-0.235,-0.170
7.450,-0.220,-0.170
7.453,-0.240,-0.175
7.456,-0.230,-0.190
7.458,-0.225,-0.180
7.461,-0.225,-0.175
7.464,-0.220,-0.175
7.467,-0.225,-0.180
7.469,-0.245,-0.205
7.472,-0.255,-0.215
7.475,-0.275,-0.220
7.478,-0.275,-0.225
7.481,-0.270,-0.210
7.483,-0.270,-0.230
7.486,-0.260,-0.225
7.489,-0.265,-0.220
7.492,-0.270,-0.180
7.494,-0.290,-0.160
7.497,-0.295,-0.160
7.500,-0.305,-0.165
7.503,-0.330,-0.175
7.506,-0.340,-0.180
7.508,-0.360,-0.190
7.511,-0.355,-0.180
7.514,-0.360,-0.170
7.517,-0.365,-0.175
7.519,-0.375,-0.200
7.522,-0.385,-0.210
7.525,-0.405,-0.215
7.528,-0.400,-0.200
7.531,-0.395,-0.190
7.533,-0.385,-0.195
7.536,-0.405,-0.195
7.539,-0.410,-0.215
7.542,-0.415,-0.210
7.544,-0.410,-0.200
7.547,-0.405,-0.185
7.550,-0.405,-0.190
7.553,-0.405,-0.195
7.556,-0.410,-0.215
7.558,-0.405,-0.200
7.561,-0.400,-0.190
7.564,-0.390,-0.190
7.567,-0.370,-0.185
7.569,-0.395,-0.190
7.572,-0.405,-0.205
7.575,-0.405,-0.180
7.578,-0.415,-0.180
7.581,-0.410,-0.185
7.583,-0.420,-0.175
7.586,-0.455,-0.195
7.589,-0.525,-0.215
7.592,-0.600,-0.225
7.594,-0.580,-0.220
7.597,-0.525,-0.205
7.600,-0.450,-0.165
7.603,-0.350,-0.135
7.606,-0.175,-0.095
7.608,0.115,0.000
7.611,0.510,0.195
7.614,0.905,0.425
7.617,1.255,0.675
7.619,1.560,0.935
7.622,1.785,1.195
7.625,1.855,1.375
7.628,1.755,1.385
7.631,1.400,1.215
7.633,0.875,0.810
7.636,0.300,0.305
7.639,-0.155,-0.155
7.642,-0.390,-0.455
7.644,-0.480,-0.600
7.647,-0.485,-0.590
7.650,-0.455,-0.510
7.653,-0.405,-0.420
7.656,-0.330,-0.335
7.658,-0.280,-0.230
7.661,-0.295,-0.160
7.664,-0.320,-0.120
7.667,-0.340,-0.130
7.669,-0.350,-0.150
7.672,-0.375,-0.180
7.675,-0.375,-0.170
7.678,-0.370,-0.155
7.681,-0.385,-0.155
7.683,-0.390,-0.160
7.686,-0.405,-0.180
7.689,-0.425,-0.190
7.692,-0.445,-0.180
7.694,-0.430,-0.170
7.697,-0.440,-0.160
7.700,-0.440,-0.160
7.703,-0.445,-0.180
7.706,-0.440,-0.185
7.708,-0.450,-0.175
7.711,-0.440,-0.175
7.714,-0.430,-0.165
7.717,-0.435,-0.160
7.719,-0.435,-0.175
7.722,-0.440,-0.175
7.725,-0.455,-0.170
7.728,-0.440,-0.160
7.731,-0.430,-0.155
7.733,-0.425,-0.155
7.736,-0.435,-0.160
7.739,-0.430,-0.170
7.742,-0.435,-0.165
7.744,-0.430,-0.150
7.747,-0.415,-0.150
7.750,-0.410,-0.145
7.753,-0.405,-0.150
7.756,-0.410,-0.155
7.758,-0.430,-0.145
7.761,-0.420,-0.135
7.764,-0.410,-0.130
7.767,-0.390,-0.120
7.769,-0.395,-0.125
7.772,-0.385,-0.130
7.775,-0.385,-0.120
7.778,-0.375,-0.100
7.781,-0.375,-0.090
7.783,-0.355,-0.090
7.786,-0.360,-0.090
7.789,-0.355,-0.100
7.792,-0.360,-0.100
7.794,-0.345,-0.085
7.797,-0.330,-0.065
7.800,-0.315,-0.070
7.803,-0.310,-0.060
7.806,-0.305,-0.060
7.808,-0.290,-0.050
7.811,-0.275,-0.030
7.814,-0.250,-0.015
7.817,-0.235,-0.005
7.819,-0.220,-0.015
7.822,-0.215,-0.010
7.825,-0.200,0.005
7.828,-0.170,0.020
7.831,-0.140,0.050
7.833,-0.130,0.055
7.836,-0.110,0.075
7.839,-0.095,0.065
7.842,-0.075,0.075
7.844,-0.060,0.090
7.847,-0.030,0.115
7.850,-0.010,0.125
7.853,0.000,0.125
7.856,0.015,0.135
7.858,0.025,0.145
7.861,0.050,0.155
7.864,0.060,0.180
7.867,0.095,0.200
7.869,0.100,0.190
7.872,0.105,0.185
7.875,0.115,0.195
7.878,0.135,0.215
7.881,0.150,0.225
7.883,0.150,0.240
7.886,0.165,0.240
7.889,0.165,0.235
7.892,0.160,0.240
7.894,0.165,0.250
7.897,0.170,0.260
7.900,0.160,0.250
7.903,0.165,0.235
7.906,0.150,0.220
7.908,0.120,0.220
7.911,0.125,0.220
7.914,0.110,0.220
7.917,0.100,0.220
7.919,0.070,0.180
7.922,0.040,0.165
7.925,0.015,0.155
7.928,0.000,0.150
7.931,-0.020,0.135
7.933,-0.040,0.120
7.936,-0.070,0.090
7.939,-0.100,0.070
7.942,-0.130,0.050
7.944,-0.145,0.045
7.947,-0.155,0.040
7.950,-0.160,0.020
7.953,-0.180,-0.015
7.956,-0.205,-0.025
7.958,-0.230,-0.035
7.961,-0.220,-0.040
7.964,-0.230,-0.040
7.967,-0.245,-0.050
7.969,-0.255,-0.065
7.972,-0.260,-0.080
7.975,-0.265,-0.070
7.978,-0.260,-0.080
7.981,-0.265,-0.075
7.983,-0.270,-0.075
7.986,-0.275,-0.100
7.989,-0.280,-0.110
7.992,-0.280,-0.100
7.994,-0.275,-0.095
7.997,-0.270,-0.095
8.000,-0.270,-0.100
8.003,-0.285,-0.110
8.006,-0.275,-0.125
8.008,-0.280,-0.120
8.011,-0.275,-0.105
8.014,-0.275,-0.100
8.017,-0.270,-0.110
8.019,-0.275,-0.115
8.022,-0.285,-0.120
8.025,-0.280,-0.100
8.028,-0.265,-0.105
8.031,-0.245,-0.090
8.033,-0.245,-0.090
8.036,-0.245,-0.105
8.039,-0.245,-0.100
8.042,-0.255,-0.085
8.044,-0.255,-0.090
8.047,-0.250,-0.070
8.050,-0.230,-0.075
8.053,-0.240,-0.080
8.056,-0.230,-0.095
8.058,-0.250,-0.075
8.061,-0.230,-0.065
8.064,-0.230,-0.065
8.067,-0.215,-0.055
8.069,-0.220,-0.060
8.072,-0.225,-0.055
8.075,-0.250,-0.050
8.078,-0.230,-0.045
8.081,-0.210,-0.040
8.083,-0.205,-0.040
8.086,-0.220,-0.050
8.089,-0.220,-0.050
8.092,-0.230,-0.045
8.094,-0.225,-0.035
8.097,-0.195,-0.045
8.100,-0.195,-0.035
8.103,-0.205,-0.045
8.106,-0.220,-0.050
8.108,-0.235,-0.050
8.111,-0.225,-0.030
8.114,-0.220,-0.040
8.117,-0.230,-0.050
8.119,-0.235,-0.065
8.122,-0.240,-0.085
8.125,-0.245,-0.070
8.128,-0.245,-0.065
8.131,-0.235,-0.060
8.133,-0.235,-0.050
8.136,-0.240,-0.065
8.139,-0.265,-0.095
8.142,-0.255,-0.075
8.144,-0.265,-0.070
8.147,-0.255,-0.070
8.150,-0.250,-0.075
8.153,-0.270,-0.085
8.156,-0.285,-0.100
8.158,-0.275,-0.090
8.161,-0.285,-0.085
8.164,-0.265,-0.090
8.167,-0.275,-0.085
8.169,-0.295,-0.100
8.172,-0.300,-0.120
8.175,-0.310,-0.125
8.178,-0.285,-0.105
8.181,-0.285,-0.105
8.183,-0.285,-0.100
8.186,-0.290,-0.095
8.189,-0.300,-0.110
8.192,-0.315,-0.115
8.194,-0.305,-0.120
8.197,-0.305,-0.105
8.200,-0.290,-0.110
8.203,-0.305,-0.120
8.206,-0.305,-0.115
8.208,-0.320,-0.105
8.211,-0.320,-0.115
8.214,-0.315,-0.110
8.217,-0.300,-0.105
8.219,-0.310,-0.125
8.222,-0.315,-0.135
8.225,-0.325,-0.130
8.228,-0.315,-0.120
8.231,-0.305,-0.115
8.233,-0.305,-0.120
8.236,-0.300,-0.120
8.239,-0.305,-0.135
8.242,-0.305,-0.135
8.244,-0.300,-0.125
8.247,-0.280,-0.110
8.250,-0.275,-0.120
8.253,-0.250,-0.130
8.256,-0.240,-0.135
8.258,-0.250,-0.110
8.261,-0.250,-0.095
8.264,-0.230,-0.080
8.267,-0.230,-0.095
8.269,-0.230,-0.100
8.272,-0.220,-0.110
8.275,-0.215,-0.100
8.278,-0.205,-0.110
8.281,-0.195,-0.105
8.283,-0.200,-0.100
8.286,-0.200,-0.095
8.289,-0.200,-0.105
8.292,-0.195,-0.110
8.294,-0.190,-0.095
8.297,-0.190,-0.095
8.300,-0.205,-0.090
8.303,-0.215,-0.105
8.306,-0.245,-0.120
8.308,-0.260,-0.145
8.311,-0.255,-0.150
8.314,-0.240,-0.140
8.317,-0.240,-0.145
8.319,-0.235,-0.140
8.322,-0.235,-0.135
8.325,-0.255,-0.105
8.328,-0.260,-0.080
8.331,-0.270,-0.080
8.333,-0.270,-0.065
8.336,-0.290,-0.075
8.339,-0.310,-0.100
8.342,-0.310,-0.090
8.344,-0.320,-0.090
8.347,-0.320,-0.090
8.350,-0.320,-0.095
8.353,-0.330,-0.105
8.356,-0.345,-0.125
8.358,-0.350,-0.120
8.361,-0.370,-0.115
8.364,-0.345,-0.110
8.367,-0.350,-0.110
8.369,-0.355,-0.110
8.372,-0.355,-0.125
8.375,-0.365,-0.120
8.378,-0.370,-0.110
8.381,-0.350,-0.090
8.383,-0.355,-0.100
8.386,-0.365,-0.115
8.389,-0.365,-0.115
8.392,-0.380,-0.115
8.394,-0.360,-0.095
8.397,-0.345,-0.100
8.400,-0.355,-0.100
8.403,-0.370,-0.105
8.406,-0.355,-0.100
8.408,-0.370,-0.100
8.411,-0.365,-0.085
8.414,-0.365,-0.075
8.417,-0.390,-0.080
8.419,-0.460,-0.100
8.422,-0.525,-0.125
8.425,-0.555,-0.130
8.428,-0.515,-0.110
8.431,-0.445,-0.070
8.433,-0.355,-0.030
8.436,-0.215,0.000
8.439,0.050,0.065
8.442,0.400,0.220
8.444,0.810,0.455
8.447,1.170,0.700
8.450,1.490,0.930
8.453,1.730,1.170
8.456,1.840,1.345
8.458,1.810,1.410
8.461,1.550,1.320
8.464,1.070,1.045
8.467,0.510,0.590
8.469,0.020,0.105
8.472,-0.295,-0.260
8.475,-0.435,-0.470
8.478,-0.460,-0.510
8.481,-0.450,-0.460
8.483,-0.405,-0.370
8.486,-0.315,-0.265
8.489,-0.235,-0.165
8.492,-0.245,-0.090
8.494,-0.270,-0.045
8.497,-0.295,-0.045
8.500,-0.295,-0.055
8.503,-0.300,-0.075
8.506,-0.315,-0.085
8.508,-0.330,-0.070
8.511,-0.335,-0.050
8.514,-0.335,-0.055
8.517,-0.345,-0.065
8.519,-0.370,-0.070
8.522,-0.365,-0.080
8.525,-0.375,-0.070
8.528,-0.380,-0.070
8.531,-0.375,-0.055
8.533,-0.375,-0.060
8.536,-0.375,-0.065
8.539,-0.385,-0.070
8.542,-0.405,-0.070
8.544,-0.390,-0.060
8.547,-0.385,-0.050
8.550,-0.375,-0.050
8.553,-0.385,-0.060
8.556,-0.385,-0.070
8.558,-0.400,-0.065
8.561,-0.380,-0.050
8.564,-0.380,-0.045
8.567,-0.375,-0.040
8.569,-0.380,-0.050
8.572,-0.380,-0.060
8.575,-0.380,-0.045
8.578,-0.365,-0.040
8.581,-0.365,-0.015
8.583,-0.345,-0.015
8.586,-0.360,-0.030
8.589,-0.360,-0.040
8.592,-0.365,-0.035
8.594,-0.370,-0.030
8.597,-0.345,-0.025
8.600,-0.340,-0.010
8.603,-0.350,-0.030
8.606,-0.340,-0.030
8.608,-0.355,-0.025
8.611,-0.335,0.000
8.614,-0.325,0.000
8.617,-0.305,0.000
8.619,-0.310,-0.010
8.622,-0.315,-0.015
8.625,-0.310,-0.010
8.628,-0.290,0.015
8.631,-0.270,0.030
8.633,-0.260,0.030
8.636,-0.260,0.035
8.639,-0.265,0.030
8.642,-0.250,0.040
8.644,-0.220,0.060
8.647,-0.210,0.080
8.650,-0.190,0.085
8.653,-0.180,0.075
8.656,-0.175,0.080
8.658,-0.175,0.100
8.661,-0.145,0.105
8.664,-0.125,0.130
8.667,-0.105,0.150
8.669,-0.075,0.160
8.672,-0.055,0.160
8.675,-0.050,0.160
8.678,-0.040,0.190
8.681,-0.010,0.215
8.683,0.020,0.230
8.686,0.030,0.220
8.689,0.035,0.215
8.692,0.045,0.235
8.694,0.060,0.250
8.697,0.085,0.270
8.700,0.100,0.275
8.703,0.115,0.270
8.706,0.115,0.285
8.708,0.120,0.280
8.711,0.145,0.300
8.714,0.150,0.315
8.717,0.155,0.315
8.719,0.165,0.315
8.722,0.175,0.315
8.725,0.165,0.325
8.728,0.185,0.335
8.731,0.180,0.355
8.733,0.180,0.345
8.736,0.180,0.330
8.739,0.165,0.330
8.742,0.150,0.320
8.744,0.135,0.315
8.747,0.130,0.305
8.750,0.105,0.300
8.753,0.080,0.275
8.756,0.060,0.255
8.758,0.020,0.245
8.761,0.015,0.235
8.764,-0.005,0.225
8.767,-0.030,0.205
8.769,-0.050,0.170
8.772,-0.060,0.150
8.775,-0.100,0.140
8.778,-0.105,0.135
8.781,-0.130,0.125
8.783,-0.135,0.110
8.786,-0.150,0.095
8.789,-0.170,0.060
8.792,-0.185,0.055
8.794,-0.190,0.050
8.797,-0.190,0.045
8.800,-0.190,0.040
8.803,-0.200,0.020
8.806,-0.215,0.015
8.808,-0.220,0.015
8.811,-0.215,0.015
8.814,-0.225,0.015
8.817,-0.210,0.010
8.819,-0.215,0.005
8.822,-0.225,-0.005
8.825,-0.235,0.000
8.828,-0.225,-0.005
8.831,-0.225,-0.005
8.833,-0.225,-0.015
8.836,-0.245,-0.025
8.839,-0.235,-0.015
8.842,-0.235,-0.020
8.844,-0.230,0.010
8.847,-0.215,0.010
8.850,-0.210,0.010
8.853,-0.215,0.000
8.856,-0.225,-0.010
8.858,-0.220,0.000
8.861,-0.210,0.015
8.864,-0.200,0.025
8.867,-0.200,0.015
8.869,-0.200,0.010
8.872,-0.205,0.005
8.875,-0.225,0.020
8.878,-0.195,0.025
8.881,-0.200,0.040
8.883,-0.190,0.025
8.886,-0.195,0.030
8.889,-0.205,0.015
8.892,-0.200,0.025
8.894,-0.210,0.040
8.897,-0.195,0.040
8.900,-0.195,0.040
8.903,-0.185,0.030
8.906,-0.195,0.030
8.908,-0.190,0.030
8.911,-0.195,0.045
8.914,-0.180,0.055
8.917,-0.170,0.055
8.919,-0.180,0.045
8.922,-0.190,0.040
8.925,-0.195,0.035
8.928,-0.200,0.040
8.931,-0.190,0.045
8.933,-0.185,0.045
8.936,-0.190,0.040
8.939,-0.200,0.020
8.942,-0.215,0.030
8.944,-0.215,0.035
8.947,-0.200,0.030
8.950,-0.185,0.030
8.953,-0.205,0.025
8.956,-0.210,0.020
8.958,-0.220,0.020
8.961,-0.225,0.030
8.964,-0.210,0.035
8.967,-0.200,0.020
8.969,-0.205,0.005
8.972,-0.230,-0.015
8.975,-0.230,-0.005
8.978,-0.230,0.005
8.981,-0.240,0.015
8.983,-0.240,0.000
8.986,-0.240,-0.010
8.989,-0.260,-0.020
8.992,-0.270,-0.020
8.994,-0.260,-0.010
8.997,-0.250,-0.010
9.000,-0.250,-0.010
9.003,-0.250,-0.035
9.006,-0.265,-0.035
9.008,-0.275,-0.025
9.011,-0.270,-0.025
9.014,-0.265,-0.020
9.017,-0.260,-0.030
9.019,-0.275,-0.045
9.022,-0.295,-0.045
9.025,-0.295,-0.045
9.028,-0.290,-0.040
9.031,-0.290,-0.050
9.033,-0.280,-0.040
9.036,-0.285,-0.060
9.039,-0.295,-0.055
9.042,-0.300,-0.045
9.044,-0.290,-0.040
9.047,-0.285,-0.025
9.050,-0.295,-0.025
9.053,-0.290,-0.050
9.056,-0.305,-0.060
9.058,-0.310,-0.050
9.061,-0.300,-0.055
9.064,-0.295,-0.055
9.067,-0.290,-0.035
9.069,-0.295,-0.050
9.072,-0.295,-0.075
9.075,-0.300,-0.060
9.078,-0.295,-0.050
9.081,-0.290,-0.045
9.083,-0.275,-0.035
9.086,-0.280,-0.055
9.089,-0.270,-0.055
9.092,-0.260,-0.050
9.094,-0.240,-0.050
9.097,-0.220,-0.030
9.100,-0.225,-0.035
9.103,-0.225,-0.035
9.106,-0.220,-0.045
9.108,-0.215,-0.045
9.111,-0.205,-0.040
9.114,-0.190,-0.030
9.117,-0.185,-0.030
9.119,-0.175,-0.040
9.122,-0.180,-0.045
9.125,-0.195,-0.040
9.128,-0.185,-0.035
9.131,-0.180,-0.015
9.133,-0.170,-0.020
9.136,-0.160,-0.025
9.139,-0.185,-0.045
9.142,-0.200,-0.055
9.144,-0.210,-0.050
9.147,-0.220,-0.055
9.150,-0.230,-0.060
9.153,-0.230,-0.090
9.156,-0.235,-0.110
9.158,-0.225,-0.100
9.161,-0.215,-0.070
9.164,-0.200,-0.050
9.167,-0.205,-0.030
9.169,-0.225,-0.025
9.172,-0.245,-0.030
9.175,-0.270,-0.020
9.178,-0.275,-0.025
9.181,-0.285,-0.015
9.183,-0.280,-0.015
9.186,-0.300,-0.035
9.189,-0.315,-0.055
9.192,-0.330,-0.055
9.194,-0.330,-0.045
9.197,-0.325,-0.040
9.200,-0.340,-0.050
9.203,-0.355,-0.060
9.206,-0.360,-0.060
9.208,-0.365,-0.055
9.211,-0.360,-0.045
9.214,-0.350,-0.045
9.217,-0.345,-0.045
9.219,-0.355,-0.055
9.222,-0.360,-0.065
9.225,-0.365,-0.055
9.228,-0.360,-0.045
9.231,-0.350,-0.035
9.233,-0.355,-0.050
9.236,-0.345,-0.055
9.239,-0.375,-0.070
9.242,-0.370,-0.065
9.244,-0.360,-0.055
9.247,-0.350,-0.040
9.250,-0.350,-0.045
9.253,-0.350,-0.045
9.256,-0.375,-0.065
9.258,-0.410,-0.060
9.261,-0.450,-0.060
9.264,-0.500,-0.065
9.267,-0.515,-0.080
9.269,-0.470,-0.065
9.272,-0.405,-0.050
9.275,-0.310,0.015
9.278,-0.115,0.060
9.281,0.175,0.155
9.283,0.535,0.335
9.286,0.895,0.525
9.289,1.215,0.745
9.292,1.490,0.970
9.294,1.705,1.200
9.297,1.795,1.350
9.300,1.755,1.390
9.303,1.525,1.295
9.306,1.105,1.075
9.308,0.590,0.700
9.311,0.120,0.285
9.314,-0.215,-0.075
9.317,-0.410,-0.320
9.319,-0.500,-0.445
9.322,-0.505,-0.440
9.325,-0.450,-0.360
9.328,-0.340,-0.240
9.331,-0.250,-0.115
9.333,-0.235,-0.030
9.336,-0.270,0.010
9.339,-0.295,0.000
9.342,-0.325,-0.010
9.344,-0.320,-0.020
9.347,-0.320,-0.020
9.350,-0.320,0.000
9.353,-0.340,-0.005
9.356,-0.345,-0.020
9.358,-0.375,-0.020
9.361,-0.375,-0.015
9.364,-0.375,-0.020
9.367,-0.370,-0.010
9.369,-0.375,-0.020
9.372,-0.390,-0.035
9.375,-0.400,-0.010
9.378,-0.405,-0.020
9.381,-0.400,-0.015
9.383,-0.390,-0.010
9.386,-0.390,-0.025
9.389,-0.410,-0.030
9.392,-0.410,-0.015
9.394,-0.395,-0.015
9.397,-0.395,-0.010
9.400,-0.390,-0.015
9.403,-0.390,-0.015
9.406,-0.400,-0.020
9.408,-0.420,-0.015
9.411,-0.405,-0.010
9.414,-0.390,-0.005
9.417,-0.390,-0.010
9.419,-0.390,-0.005
9.422,-0.395,-0.010
9.425,-0.405,-0.010
9.428,-0.380,0.005
9.431,-0.380,0.015
9.433,-0.365,0.010
9.436,-0.380,0.010
9.439,-0.385,0.010
9.442,-0.395,0.005
9.444,-0.380,0.020
9.447,-0.360,0.025
9.450,-0.360,0.030
9.453,-0.360,0.010
9.456,-0.360,0.015
9.458,-0.355,0.025
9.461,-0.350,0.035
9.464,-0.340,0.040
9.467,-0.330,0.040
9.469,-0.330,0.040
9.472,-0.335,0.035
9.475,-0.330,0.040
9.478,-0.315,0.060
9.481,-0.295,0.070
9.483,-0.280,0.075
9.486,-0.280,0.065
9.489,-0.285,0.075
9.492,-0.275,0.080
9.494,-0.255,0.100
9.497,-0.230,0.115
9.500,-0.220,0.115
9.503,-0.200,0.115
9.506,-0.190,0.115
9.508,-0.185,0.130
9.511,-0.165,0.140
9.514,-0.135,0.160
9.517,-0.115,0.160
9.519,-0.095,0.165
9.522,-0.095,0.180
9.525,-0.090,0.190
9.528,-0.065,0.210
9.531,-0.045,0.220
9.533,-0.030,0.235
9.536,-0.015,0.230
9.539,0.005,0.235
9.542,0.015,0.250
9.544,0.035,0.275
9.547,0.055,0.305
9.550,0.070,0.310
9.553,0.090,0.300
9.556,0.090,0.280
9.558,0.095,0.305
9.561,0.110,0.315
9.564,0.120,0.335
9.567,0.125,0.335
9.569,0.130,0.335
9.572,0.125,0.320
9.575,0.125,0.335
9.578,0.130,0.335
9.581,0.135,0.345
9.583,0.140,0.325
9.586,0.120,0.315
9.589,0.100,0.315
9.592,0.085,0.295
9.594,0.070,0.290
9.597,0.065,0.295
9.600,0.045,0.270
9.603,0.015,0.265
9.606,-0.005,0.235
9.608,-0.045,0.225
9.611,-0.060,0.205
9.614,-0.080,0.190
9.617,-0.110,0.170
9.619,-0.120,0.145
9.622,-0.155,0.130
9.625,-0.175,0.115
9.628,-0.180,0.120
9.631,-0.195,0.110
9.633,-0.200,0.100
9.636,-0.215,0.070
9.639,-0.235,0.060
9.642,-0.255,0.065
9.644,-0.245,0.055
9.647,-0.240,0.055
9.650,-0.255,0.050
9.653,-0.255,0.030
9.656,-0.280,0.020
9.658,-0.275,0.020
9.661,-0.280,0.020
9.664,-0.265,0.015
9.667,-0.265,0.020
9.669,-0.265,0.010
9.672,-0.285,0.000
9.675,-0.285,0.010
9.678,-0.290,0.015
9.681,-0.275,0.025
9.683,-0.285,0.025
9.686,-0.290,0.000
9.689,-0.295,0.005
9.692,-0.300,-0.005
9.694,-0.290,0.010
9.697,-0.270,0.020
9.700,-0.270,0.030
9.703,-0.265,0.010
9.706,-0.270,0.010
9.708,-0.280,0.015
9.711,-0.255,0.040
9.714,-0.250,0.040
9.717,-0.235,0.025
9.719,-0.250,0.030
9.722,-0.255,0.020
9.725,-0.255,0.025
9.728,-0.240,0.045
9.731,-0.220,0.045
9.733,-0.220,0.065
9.736,-0.230,0.050
9.739,-0.235,0.035
9.742,-0.240,0.050
9.744,-0.235,0.040
9.747,-0.225,0.060
9.750,-0.225,0.045
9.753,-0.225,0.045
9.756,-0.235,0.045
9.758,-0.235,0.060
9.761,-0.235,0.065
9.764,-0.220,0.060
9.767,-0.235,0.065
9.769,-0.225,0.055
9.772,-0.235,0.040
9.775,-0.245,0.045
9.778,-0.240,0.050
9.781,-0.235,0.065
9.783,-0.225,0.060
9.786,-0.240,0.040
9.789,-0.245,0.030
9.792,-0.265,0.030
9.794,-0.250,0.045
9.797,-0.255,0.050
9.800,-0.250,0.030
9.803,-0.255,0.030
9.806,-0.265,0.020
9.808,-0.275,0.015
9.811,-0.270,0.030
9.814,-0.270,0.030
9.817,-0.265,0.020
9.819,-0.275,0.010
9.822,-0.285,0.000
9.825,-0.290,0.000
9.828,-0.295,0.005
9.831,-0.285,0.015
9.833,-0.285,0.000
9.836,-0.290,-0.010
9.839,-0.305,-0.015
9.842,-0.300,-0.010
9.844,-0.310,-0.020
9.847,-0.305,-0.010
9.850,-0.315,-0.025
9.853,-0.305,-0.020
9.856,-0.320,-0.035
9.858,-0.335,-0.030
9.861,-0.320,-0.025
9.864,-0.310,-0.020
9.867,-0.310,-0.025
9.869,-0.315,-0.035
9.872,-0.335,-0.040
9.875,-0.345,-0.030
9.878,-0.335,-0.035
9.881,-0.320,-0.035
9.883,-0.310,-0.035
9.886,-0.330,-0.050
9.889,-0.335,-0.055
9.892,-0.350,-0.050
9.894,-0.340,-0.035
9.897,-0.325,-0.030
9.900,-0.320,-0.040
9.903,-0.340,-0.050
9.906,-0.330,-0.065
9.908,-0.350,-0.070
9.911,-0.335,-0.055
9.914,-0.320,-0.040
9.917,-0.310,-0.030
9.919,-0.310,-0.050
9.922,-0.305,-0.050
9.925,-0.295,-0.050
9.928,-0.275,-0.045
9.931,-0.250,-0.035
9.933,-0.260,-0.040
9.936,-0.255,-0.040
9.939,-0.265,-0.040
9.942,-0.275,-0.030
9.944,-0.265,-0.035
9.947,-0.230,-0.025
9.950,-0.220,-0.040
9.953,-0.225,-0.050
9.956,-0.235,-0.060
9.958,-0.245,-0.055
9.961,-0.220,-0.040
9.964,-0.215,-0.030
9.967,-0.215,-0.035
9.969,-0.215,-0.035
9.972,-0.240,-0.050
9.975,-0.250,-0.050
9.978,-0.260,-0.050
9.981,-0.275,-0.060
9.983,-0.275,-0.070
9.986,-0.290,-0.085
9.989,-0.295,-0.110
9.992,-0.280,-0.085
9.994,-0.265,-0.065
9.997,-0.260,-0.030
10.000,-0.280,-0.015
10.003,-0.295,-0.020
10.006,-0.310,-0.030
10.008,-0.335,-0.030
10.011,-0.330,-0.025
10.014,-0.320,-0.025
10.017,-0.330,-0.025
10.019,-0.350,-0.040
10.022,-0.370,-0.050
10.025,-0.380,-0.045
10.028,-0.375,-0.045
10.031,-0.385,-0.045
10.033,-0.385,-0.050
10.036,-0.400,-0.070
10.039,-0.405,-0.080
10.042,-0.420,-0.060
10.044,-0.405,-0.065
10.047,-0.390,-0.050
10.050,-0.385,-0.045
10.053,-0.400,-0.055
10.056,-0.415,-0.065
10.058,-0.410,-0.060
10.061,-0.405,-0.055
10.064,-0.390,-0.050
10.067,-0.400,-0.040
10.069,-0.400,-0.050
10.072,-0.400,-0.060
10.075,-0.405,-0.060
10.078,-0.395,-0.050
10.081,-0.390,-0.035
10.083,-0.395,-0.045
10.086,-0.405,-0.055
10.089,-0.440,-0.065
10.092,-0.500,-0.070
10.094,-0.555,-0.060
10.097,-0.595,-0.090
10.100,-0.580,-0.085
10.103,-0.530,-0.075
10.106,-0.470,-0.060
10.108,-0.370,-0.015
10.111,-0.160,0.050
10.114,0.165,0.145
10.117,0.515,0.315
10.119,0.865,0.515
10.122,1.175,0.730
10.125,1.465,0.990
10.128,1.705,1.245
10.131,1.810,1.435
10.133,1.780,1.500
10.136,1.560,1.415
10.139,1.150,1.175
10.142,0.585,0.765
10.144,0.085,0.305
10.147,-0.275,-0.115
10.150,-0.445,-0.380
10.153,-0.510,-0.460
10.156,-0.500,-0.420
10.158,-0.435,-0.325
10.161,-0.345,-0.200
10.164,-0.275,-0.080
10.167,-0.280,-0.015
10.169,-0.320,0.015
10.172,-0.350,-0.005
10.175,-0.360,-0.010
10.178,-0.365,-0.010
10.181,-0.370,-0.020
10.183,-0.360,-0.015
10.186,-0.390,-0.025
10.189,-0.415,-0.030
10.192,-0.430,-0.045
10.194,-0.425,-0.025
10.197,-0.420,-0.020
10.200,-0.435,-0.030
10.203,-0.430,-0.040
10.206,-0.450,-0.045
10.208,-0.450,-0.040
10.211,-0.445,-0.045
10.214,-0.445,-0.025
10.217,-0.440,-0.040
10.219,-0.450,-0.030
10.222,-0.460,-0.045
10.225,-0.470,-0.040
10.228,-0.465,-0.025
10.231,-0.450,-0.025
10.233,-0.445,-0.020
10.236,-0.445,-0.030
10.239,-0.440,-0.035
10.242,-0.455,-0.025
10.244,-0.445,-0.030
10.247,-0.430,-0.005
10.250,-0.445,-0.005
10.253,-0.440,-0.010
10.256,-0.445,-0.035
10.258,-0.450,-0.020
10.261,-0.435,-0.025
10.264,-0.430,-0.005
10.267,-0.425,-0.005
10.269,-0.425,-0.010
10.272,-0.445,-0.020
10.275,-0.445,-0.005
10.278,-0.420,0.000
10.281,-0.410,0.005
10.283,-0.400,0.015
10.286,-0.410,-0.005
10.289,-0.405,0.000
10.292,-0.405,0.015
10.294,-0.395,0.025
10.297,-0.380,0.035
10.300,-0.370,0.020
10.303,-0.370,0.020
10.306,-0.365,0.035
10.308,-0.360,0.045
10.311,-0.335,0.060
10.314,-0.325,0.070
10.317,-0.325,0.070
10.319,-0.310,0.070
10.322,-0.300,0.070
10.325,-0.300,0.080
10.328,-0.280,0.100
10.331,-0.260,0.110
10.333,-0.240,0.115
10.336,-0.235,0.120
10.339,-0.230,0.130
10.342,-0.205,0.145
10.344,-0.180,0.155
10.347,-0.155,0.170
10.350,-0.135,0.180
10.353,-0.140,0.190
10.356,-0.135,0.205
10.358,-0.105,0.210
10.361,-0.080,0.240
10.364,-0.060,0.245
10.367,-0.030,0.265
10.369,-0.025,0.260
10.372,-0.005,0.270
10.375,-0.010,0.275
10.378,0.020,0.300
10.381,0.035,0.315
10.383,0.050,0.325
10.386,0.055,0.330
10.389,0.065,0.310
10.392,0.065,0.325
10.394,0.085,0.350
10.397,0.095,0.355
10.400,0.110,0.355
10.403,0.105,0.345
10.406,0.095,0.345
10.408,0.095,0.340
10.411,0.105,0.355
10.414,0.100,0.365
10.417,0.085,0.350
10.419,0.075,0.340
10.422,0.050,0.315
10.425,0.025,0.320
10.428,0.020,0.320
10.431,0.000,0.310
10.433,-0.015,0.290
10.436,-0.050,0.270
10.439,-0.065,0.235
10.442,-0.090,0.235
10.444,-0.110,0.220
10.447,-0.125,0.200
10.450,-0.150,0.185
10.453,-0.175,0.160
10.456,-0.200,0.130
10.458,-0.225,0.130
10.461,-0.235,0.115
10.464,-0.240,0.115
10.467,-0.255,0.090
10.469,-0.270,0.070
10.472,-0.285,0.050
10.475,-0.300,0.060
10.478,-0.290,0.045
10.481,-0.300,0.055
10.483,-0.300,0.045
10.486,-0.310,0.025
10.489,-0.310,0.020
10.492,-0.325,0.015
10.494,-0.310,0.015
10.497,-0.305,0.025
10.500,-0.310,0.015
10.503,-0.325,0.025
10.506,-0.320,0.005
10.508,-0.330,0.015
10.511,-0.330,0.010
10.514,-0.320,0.015
10.517,-0.310,0.015
10.519,-0.315,0.000
10.522,-0.325,-0.010
10.525,-0.325,-0.010
10.528,-0.310,0.010
10.531,-0.305,0.015
10.533,-0.295,0.025
10.536,-0.300,0.010
10.539,-0.310,0.000
10.542,-0.315,0.005
10.544,-0.300,0.025
10.547,-0.295,0.015
10.550,-0.285,0.020
10.553,-0.290,0.010
10.556,-0.295,0.020
10.558,-0.295,0.045
10.561,-0.295,0.060
10.564,-0.290,0.050
10.567,-0.280,0.055
10.569,-0.290,0.040
10.572,-0.300,0.030
10.575,-0.290,0.025
10.578,-0.280,0.045
10.581,-0.270,0.050
10.583,-0.280,0.050
10.586,-0.275,0.045
10.589,-0.275,0.030
10.592,-0.280,0.045
10.594,-0.285,0.055
10.597,-0.270,0.070
10.600,-0.270,0.065
10.603,-0.275,0.050
10.606,-0.290,0.035
10.608,-0.300,0.045
10.611,-0.295,0.055
10.614,-0.290,0.060
10.617,-0.290,0.045
10.619,-0.295,0.040
10.622,-0.310,0.030
10.625,-0.300,0.030
10.628,-0.290,0.040
10.631,-0.275,0.040
10.633,-0.270,0.050
10.636,-0.280,0.035
10.639,-0.295,0.030
10.642,-0.305,0.025
10.644,-0.305,0.035
10.647,-0.300,0.030
10.650,-0.310,0.020
10.653,-0.310,0.005
10.656,-0.330,0.005
10.658,-0.320,0.005
10.661,-0.315,0.015
10.664,-0.315,0.025
10.667,-0.320,0.010
10.669,-0.335,0.000
10.672,-0.335,-0.015
10.675,-0.340,-0.010
10.678,-0.340,-0.005
10.681,-0.330,-0.005
10.683,-0.335,0.000
10.686,-0.340,-0.015
10.689,-0.350,-0.035
10.692,-0.360,-0.025
10.694,-0.360,-0.030
10.697,-0.345,-0.025
10.700,-0.345,-0.015
10.703,-0.370,-0.025
10.706,-0.360,-0.040
10.708,-0.365,-0.025
10.711,-0.360,-0.030
10.714,-0.345,-0.025
10.717,-0.355,-0.025
10.719,-0.365,-0.045
10.722,-0.375,-0.035
10.725,-0.385,-0.035
10.728,-0.370,-0.035
10.731,-0.370,-0.030
10.733,-0.365,-0.035
10.736,-0.375,-0.035
10.739,-0.375,-0.050
10.742,-0.380,-0.040
10.744,-0.380,-0.025
10.747,-0.380,-0.025
10.750,-0.375,-0.025
10.753,-0.370,-0.035
10.756,-0.380,-0.055
10.758,-0.380,-0.040
10.761,-0.365,-0.035
10.764,-0.350,-0.025
10.767,-0.350,-0.030
10.769,-0.340,-0.045
10.772,-0.335,-0.050
10.775,-0.335,-0.050
10.778,-0.315,-0.040
10.781,-0.305,-0.035
10.783,-0.310,-0.035
10.786,-0.295,-0.035
10.789,-0.295,-0.040
10.792,-0.305,-0.030
10.794,-0.290,-0.020
10.797,-0.270,-0.010
10.800,-0.250,-0.010
10.803,-0.270,-0.030
10.806,-0.275,-0.030
10.808,-0.280,-0.035
10.811,-0.260,-0.015
10.814,-0.245,-0.015
10.817,-0.255,-0.020
10.819,-0.270,-0.040
10.822,-0.285,-0.050
10.825,-0.305,-0.055
10.828,-0.315,-0.055
10.831,-0.310,-0.055
10.833,-0.310,-0.065
10.836,-0.320,-0.085
10.839,-0.310,-0.100
10.842,-0.310,-0.085
10.844,-0.305,-0.050
10.847,-0.315,-0.025
10.850,-0.320,-0.010
10.853,-0.345,-0.020
10.856,-0.360,-0.015
10.858,-0.375,-0.035
10.861,-0.375,-0.015
10.864,-0.370,-0.020
10.867,-0.385,-0.030
10.869,-0.400,-0.030
10.872,-0.410,-0.050
10.875,-0.425,-0.050
10.878,-0.410,-0.040
10.881,-0.405,-0.030
10.883,-0.420,-0.045
10.886,-0.430,-0.055
10.889,-0.440,-0.070
10.892,-0.445,-0.070
10.894,-0.425,-0.065
10.897,-0.425,-0.055
10.900,-0.425,-0.040
10.903,-0.430,-0.050
10.906,-0.440,-0.055
10.908,-0.440,-0.045
10.911,-0.440,-0.035
10.914,-0.425,-0.035
10.917,-0.430,-0.025
10.919,-0.415,-0.040
10.922,-0.430,-0.050
10.925,-0.435,-0.045
10.928,-0.435,-0.030
10.931,-0.430,-0.025
10.933,-0.430,-0.025
10.936,-0.430,-0.045
10.939,-0.440,-0.050
10.942,-0.450,-0.030
10.944,-0.470,-0.025
10.947,-0.510,-0.025
10.950,-0.565,-0.040
10.953,-0.580,-0.065
10.956,-0.565,-0.060
10.958,-0.510,-0.025
10.961,-0.420,0.020
10.964,-0.290,0.060
10.967,-0.050,0.135
10.969,0.280,0.270
10.972,0.615,0.455
10.975,0.930,0.690
10.978,1.215,0.890
10.981,1.450,1.100
10.983,1.580,1.285
10.986,1.620,1.395
10.989,1.520,1.390
10.992,1.250,1.275
10.994,0.830,1.020
10.997,0.385,0.650
11.000,0.000,0.235
11.003,-0.300,-0.115
11.006,-0.470,-0.340
11.008,-0.545,-0.425
11.011,-0.550,-0.400
11.014,-0.505,-0.320
11.017,-0.420,-0.235
11.019,-0.350,-0.125
11.022,-0.335,-0.040
11.025,-0.360,0.020
11.028,-0.385,0.045
11.031,-0.395,0.030
11.033,-0.405,0.020
11.036,-0.405,-0.005
11.039,-0.415,-0.015
11.042,-0.410,0.000
11.044,-0.415,0.005
11.047,-0.425,0.015
11.050,-0.440,0.010
11.053,-0.450,0.000
11.056,-0.455,-0.020
11.058,-0.470,-0.020
11.061,-0.455,0.000
11.064,-0.460,0.010
11.067,-0.460,-0.005
11.069,-0.465,-0.015
11.072,-0.470,-0.015
11.075,-0.470,-0.015
11.078,-0.475,-0.005
11.081,-0.470,0.005
11.083,-0.460,0.000
11.086,-0.480,0.005
11.089,-0.485,-0.015
11.092,-0.490,-0.015
11.094,-0.485,0.005
11.097,-0.470,0.005
11.100,-0.470,0.000
11.103,-0.470,-0.005
11.106,-0.470,-0.005
11.108,-0.470,0.010
11.111,-0.475,0.000
11.114,-0.455,0.020
11.117,-0.465,0.015
11.119,-0.460,0.000
11.122,-0.470,-0.005
11.125,-0.470,0.005
11.128,-0.465,0.015
11.131,-0.455,0.030
11.133,-0.445,0.020
11.136,-0.450,0.020
11.139,-0.455,0.005
11.142,-0.455,0.010
11.144,-0.440,0.025
11.147,-0.430,0.040
11.150,-0.430,0.045
11.153,-0.425,0.045
11.156,-0.430,0.030
11.158,-0.435,0.035
11.161,-0.415,0.050
11.164,-0.405,0.070
11.167,-0.380,0.055
11.169,-0.385,0.070
11.172,-0.385,0.065
11.175,-0.375,0.080
11.178,-0.365,0.090
11.181,-0.340,0.095
11.183,-0.335,0.110
11.186,-0.345,0.105
11.189,-0.325,0.105
11.192,-0.305,0.115
11.194,-0.290,0.135
11.197,-0.270,0.150
11.200,-0.255,0.165
11.203,-0.250,0.160
11.206,-0.235,0.170
11.208,-0.215,0.190
11.211,-0.185,0.200
11.214,-0.175,0.200
11.217,-0.155,0.200
11.219,-0.145,0.215
11.222,-0.135,0.220
11.225,-0.115,0.240
11.228,-0.100,0.255
11.231,-0.070,0.265
11.233,-0.060,0.285
11.236,-0.050,0.275
11.239,-0.040,0.280
11.242,-0.030,0.290
11.244,-0.015,0.300
11.247,0.005,0.320
11.250,0.020,0.330
11.253,0.030,0.320
11.256,0.025,0.310
11.258,0.030,0.340
11.261,0.045,0.335
11.264,0.055,0.360
11.267,0.045,0.350
11.269,0.045,0.355
11.272,0.045,0.345
11.275,0.025,0.355
11.278,0.035,0.345
11.281,0.035,0.355
11.283,0.030,0.335
11.286,0.010,0.320
11.289,-0.020,0.310
11.292,-0.035,0.300
11.294,-0.050,0.300
11.297,-0.050,0.290
11.300,-0.075,0.275
11.303,-0.100,0.255
11.306,-0.125,0.220
11.308,-0.165,0.225
11.311,-0.155,0.205
11.314,-0.170,0.200
11.317,-0.190,0.190
11.319,-0.220,0.155
11.322,-0.235,0.130
11.325,-0.245,0.110
11.328,-0.235,0.125
11.331,-0.250,0.110
11.333,-0.260,0.110
11.336,-0.270,0.085
11.339,-0.285,0.060
11.342,-0.295,0.065
11.344,-0.295,0.060
11.347,-0.290,0.065
11.350,-0.295,0.065
11.353,-0.290,0.045
11.356,-0.310,0.035
11.358,-0.310,0.030
11.361,-0.310,0.045
11.364,-0.315,0.045
11.367,-0.305,0.050
11.369,-0.305,0.025
11.372,-0.325,0.015
11.375,-0.335,0.030
11.378,-0.330,0.040
11.381,-0.325,0.025
11.383,-0.310,0.030
11.386,-0.315,0.025
11.389,-0.315,0.020
11.392,-0.330,0.025
11.394,-0.320,0.035
11.397,-0.305,0.035
11.400,-0.310,0.035
11.403,-0.300,0.040
11.406,-0.310,0.025
11.408,-0.315,0.025
11.411,-0.295,0.045
11.414,-0.290,0.045
11.417,-0.285,0.060
11.419,-0.295,0.030
11.422,-0.295,0.030
11.425,-0.300,0.045
11.428,-0.295,0.045
11.431,-0.280,0.065
11.433,-0.280,0.065
11.436,-0.285,0.045
11.439,-0.285,0.045
11.442,-0.290,0.060
11.444,-0.275,0.075
11.447,-0.280,0.075
11.450,-0.270,0.065
11.453,-0.260,0.060
11.456,-0.265,0.045
11.458,-0.275,0.060
11.461,-0.270,0.080
11.464,-0.255,0.085
11.467,-0.245,0.080
11.469,-0.260,0.080
11.472,-0.275,0.065
11.475,-0.270,0.060
11.478,-0.270,0.080
11.481,-0.260,0.070
11.483,-0.265,0.080
11.486,-0.275,0.065
11.489,-0.275,0.050
11.492,-0.280,0.060
11.494,-0.275,0.075
11.497,-0.260,0.085
11.500,-0.260,0.080
11.503,-0.265,0.070
11.506,-0.285,0.060
11.508,-0.295,0.055
11.511,-0.295,0.065
11.514,-0.275,0.070
11.517,-0.280,0.065
11.519,-0.290,0.050
11.522,-0.310,0.045
11.525,-0.320,0.045
11.528,-0.320,0.055
11.531,-0.295,0.060
11.533,-0.295,0.045
11.536,-0.305,0.055
11.539,-0.315,0.030
11.542,-0.315,0.020
11.544,-0.320,0.040
11.547,-0.320,0.035
11.550,-0.310,0.025
11.553,-0.330,0.030
11.556,-0.345,0.010
11.558,-0.340,0.005
11.561,-0.345,0.020
11.564,-0.335,0.015
11.567,-0.335,0.010
11.569,-0.345,0.010
11.572,-0.370,-0.015
11.575,-0.355,0.000
11.578,-0.360,0.000
11.581,-0.355,0.010
11.583,-0.350,0.005
11.586,-0.355,-0.015
11.589,-0.370,-0.020
11.592,-0.370,-0.020
11.594,-0.370,-0.010
11.597,-0.355,-0.005
11.600,-0.360,0.000
11.603,-0.370,-0.020
11.606,-0.375,-0.035
11.608,-0.380,-0.020
11.611,-0.370,-0.020
11.614,-0.365,-0.015
11.617,-0.365,0.000
11.619,-0.370,-0.025
11.622,-0.385,-0.030
11.625,-0.400,-0.030
11.628,-0.380,-0.010
11.631,-0.375,-0.015
11.633,-0.370,-0.020
11.636,-0.375,-0.025
11.639,-0.385,-0.040
11.642,-0.400,-0.040
11.644,-0.390,-0.030
11.647,-0.380,-0.025
11.650,-0.390,-0.025
11.653,-0.385,-0.040
11.656,-0.395,-0.035
11.658,-0.400,-0.025
11.661,-0.375,-0.035
11.664,-0.370,-0.025
11.667,-0.345,-0.025
11.669,-0.350,-0.035
11.672,-0.335,-0.040
11.675,-0.325,-0.025
11.678,-0.315,-0.015
11.681,-0.310,-0.015
11.683,-0.310,-0.010
11.686,-0.310,-0.025
11.689,-0.310,-0.035
11.692,-0.315,-0.030
11.694,-0.290,-0.005
11.697,-0.280,-0.005
11.700,-0.280,0.000
11.703,-0.285,-0.020
11.706,-0.285,-0.040
11.708,-0.290,-0.035
11.711,-0.270,-0.025
11.714,-0.260,0.000
11.717,-0.260,-0.015
11.719,-0.270,-0.015
11.722,-0.290,-0.030
11.725,-0.290,-0.025
11.728,-0.300,-0.030
11.731,-0.295,-0.035
11.733,-0.315,-0.050
11.736,-0.330,-0.060
11.739,-0.330,-0.080
11.742,-0.335,-0.070
11.744,-0.310,-0.070
11.747,-0.305,-0.055
11.750,-0.315,-0.030
11.753,-0.335,-0.030
11.756,-0.360,-0.020
11.758,-0.355,-0.020
11.761,-0.365,-0.005
11.764,-0.380,-0.005
11.767,-0.380,0.005
11.769,-0.395,-0.020
11.772,-0.415,-0.025
11.775,-0.425,-0.030
11.778,-0.415,-0.035
11.781,-0.420,-0.035
11.783,-0.430,-0.035
11.786,-0.445,-0.045
11.789,-0.445,-0.055
11.792,-0.455,-0.065
11.794,-0.450,-0.045
11.797,-0.440,-0.035
11.800,-0.445,-0.040
11.803,-0.460,-0.050
11.806,-0.460,-0.060
11.808,-0.475,-0.050
11.811,-0.465,-0.045
11.814,-0.455,-0.050
11.817,-0.445,-0.035
11.819,-0.465,-0.045
11.822,-0.465,-0.055
11.825,-0.460,-0.045
11.828,-0.455,-0.045
11.831,-0.445,-0.035
11.833,-0.445,-0.035
11.836,-0.455,-0.040
11.839,-0.460,-0.055
11.842,-0.460,-0.040
11.844,-0.455,-0.045
11.847,-0.455,-0.040
11.850,-0.465,-0.035
11.853,-0.490,-0.045
11.856,-0.550,-0.060
11.858,-0.625,-0.070
11.861,-0.645,-0.070
11.864,-0.630,-0.070
11.867,-0.595,-0.055
11.869,-0.535,-0.030
11.872,-0.480,-0.010
11.875,-0.360,0.035
11.878,-0.145,0.095
11.881,0.185,0.205
11.883,0.530,0.375
11.886,0.875,0.590
11.889,1.190,0.815
11.892,1.470,1.085
11.894,1.690,1.345
11.897,1.770,1.525
11.900,1.705,1.560
11.903,1.440,1.430
11.906,0.990,1.145
11.908,0.445,0.735
11.911,-0.025,0.290
11.914,-0.330,-0.075
11.917,-0.490,-0.330
11.919,-0.535,-0.440
11.922,-0.545,-0.445
11.925,-0.520,-0.375
11.928,-0.445,-0.265
11.931,-0.355,-0.145
11.933,-0.320,-0.055
11.936,-0.340,0.000
11.939,-0.385,0.020
11.942,-0.400,0.005
11.944,-0.415,0.015
11.947,-0.405,0.010
11.950,-0.415,0.000
11.953,-0.420,-0.015
11.956,-0.440,-0.020
11.958,-0.445,-0.010
11.961,-0.465,-0.020
11.964,-0.460,-0.015
11.967,-0.480,-0.020
11.969,-0.475,-0.030
11.972,-0.490,-0.025
11.975,-0.490,-0.030
11.978,-0.485,-0.005
11.981,-0.485,-0.010
11.983,-0.500,-0.025
11.986,-0.490,-0.025
11.989,-0.500,-0.035
11.992,-0.505,-0.030
11.994,-0.505,-0.020
11.997,-0.495,-0.020
12.000,-0.495,-0.010
12.003,-0.495,-0.010
12.006,-0.505,-0.025
12.008,-0.515,-0.020
12.011,-0.495,-0.010
12.014,-0.490,-0.005
12.017,-0.500,-0.005
12.019,-0.495,-0.010
12.022,-0.500,-0.015
12.025,-0.500,-0.005
12.028,-0.490,-0.005
12.031,-0.485,0.000
12.033,-0.485,0.005
12.036,-0.485,0.005
12.039,-0.490,-0.010
12.042,-0.490,0.000
12.044,-0.475,0.010
12.047,-0.465,0.015
12.050,-0.470,0.015
12.053,-0.470,0.010
12.056,-0.470,-0.005
12.058,-0.475,0.015
12.061,-0.465,0.015
12.064,-0.450,0.030
12.067,-0.445,0.025
12.069,-0.445,0.025
12.072,-0.445,0.020
12.075,-0.440,0.025
12.078,-0.435,0.035
12.081,-0.415,0.055
12.083,-0.405,0.045
12.086,-0.400,0.040
12.089,-0.410,0.050
12.092,-0.400,0.055
12.094,-0.385,0.070
12.097,-0.365,0.090
12.100,-0.345,0.090
12.103,-0.345,0.085
12.106,-0.340,0.075
12.108,-0.325,0.085
12.111,-0.300,0.110
12.114,-0.285,0.120
12.117,-0.265,0.130
12.119,-0.260,0.130
12.122,-0.260,0.145
12.125,-0.240,0.160
12.128,-0.210,0.185
12.131,-0.195,0.195
12.133,-0.175,0.205
12.136,-0.160,0.205
12.139,-0.140,0.205
12.142,-0.145,0.215
12.144,-0.120,0.245
12.147,-0.100,0.260
12.150,-0.075,0.280
12.153,-0.065,0.270
12.156,-0.055,0.270
12.158,-0.040,0.275
12.161,-0.020,0.295
12.164,-0.010,0.310
12.167,0.010,0.315
12.169,0.015,0.320
12.172,0.025,0.300
12.175,0.025,0.330
12.178,0.035,0.345
12.181,0.045,0.350
12.183,0.040,0.350
12.186,0.055,0.340
12.189,0.040,0.330
12.192,0.045,0.335
12.194,0.045,0.345
12.197,0.050,0.340
12.200,0.035,0.325
12.203,0.025,0.300
12.206,0.005,0.295
12.208,-0.035,0.290
12.211,-0.025,0.295
12.214,-0.050,0.285
12.217,-0.060,0.265
12.219,-0.080,0.245
12.222,-0.120,0.225
12.225,-0.145,0.215
12.228,-0.170,0.210
12.231,-0.170,0.200
12.233,-0.195,0.190
12.236,-0.220,0.160
12.239,-0.235,0.130
12.242,-0.265,0.130
12.244,-0.275,0.115
12.247,-0.270,0.120
12.250,-0.290,0.100
12.253,-0.290,0.070
12.256,-0.310,0.060
12.258,-0.335,0.055
12.261,-0.325,0.055
12.264,-0.335,0.055
12.267,-0.340,0.050
12.269,-0.345,0.035
12.272,-0.355,0.020
12.275,-0.355,0.010
12.278,-0.355,0.010
12.281,-0.355,0.015
12.283,-0.370,0.010
12.286,-0.355,0.005
12.289,-0.365,-0.005
12.292,-0.365,0.015
12.294,-0.365,0.020
12.297,-0.345,0.020
12.300,-0.360,0.015
12.303,-0.350,0.005
12.306,-0.360,-0.005
12.308,-0.365,0.005
12.311,-0.355,0.020
12.314,-0.340,0.020
12.317,-0.350,0.015
12.319,-0.345,0.010
12.322,-0.355,0.010
12.325,-0.360,0.020
12.328,-0.360,0.025
12.331,-0.340,0.035
12.333,-0.335,0.030
12.336,-0.325,0.015
12.339,-0.340,0.015
12.342,-0.345,0.020
12.344,-0.335,0.035
12.347,-0.325,0.040
12.350,-0.335,0.050
12.353,-0.325,0.040
12.356,-0.335,0.035
12.358,-0.325,0.035
12.361,-0.320,0.040
12.364,-0.310,0.050
12.367,-0.325,0.055
12.369,-0.315,0.050
12.372,-0.325,0.040
12.375,-0.335,0.050
12.378,-0.315,0.055
12.381,-0.320,0.060
12.383,-0.305,0.060
12.386,-0.305,0.050
12.389,-0.325,0.035
12.392,-0.330,0.045
12.394,-0.315,0.065
12.397,-0.320,0.050
12.400,-0.315,0.060
12.403,-0.325,0.045
12.406,-0.335,0.045
12.408,-0.340,0.045
12.411,-0.330,0.050
12.414,-0.325,0.050
12.417,-0.340,0.045
12.419,-0.340,0.030
12.422,-0.350,0.015
12.425,-0.360,0.020
12.428,-0.345,0.030
12.431,-0.345,0.035
12.433,-0.335,0.040
12.436,-0.350,0.015
12.439,-0.365,0.005
12.442,-0.360,0.005
12.444,-0.375,0.015
12.447,-0.360,0.010
12.450,-0.355,0.005
12.453,-0.380,-0.015
12.456,-0.390,-0.015
12.458,-0.380,-0.010
12.461,-0.385,-0.015
12.464,-0.385,-0.015
12.467,-0.385,-0.010
12.469,-0.405,-0.020
12.472,-0.415,-0.040
12.475,-0.400,-0.030
12.478,-0.405,-0.020
12.481,-0.400,-0.025
12.483,-0.405,-0.020
12.486,-0.405,-0.040
12.489,-0.415,-0.045
12.492,-0.420,-0.040
12.494,-0.420,-0.035
12.497,-0.410,-0.030
12.500,-0.405,-0.025
12.503,-0.425,-0.045
12.506,-0.425,-0.060
12.508,-0.430,-0.045
12.511,-0.415,-0.040
12.514,-0.420,-0.035
12.517,-0.410,-0.045
12.519,-0.405,-0.035
12.522,-0.415,-0.050
12.525,-0.430,-0.055
12.528,-0.415,-0.055
12.531,-0.420,-0.050
12.533,-0.410,-0.040
12.536,-0.415,-0.060
12.539,-0.420,-0.060
12.542,-0.420,-0.055
12.544,-0.420,-0.050
12.547,-0.405,-0.040
12.550,-0.420,-0.050
12.553,-0.425,-0.060
12.556,-0.430,-0.070
12.558,-0.435,-0.060
12.561,-0.420,-0.055
12.564,-0.410,-0.055
12.567,-0.400,-0.045
12.569,-0.410,-0.055
12.572,-0.415,-0.070
12.575,-0.410,-0.050
12.578,-0.395,-0.055
12.581,-0.370,-0.055
12.583,-0.355,-0.050
12.586,-0.355,-0.060
12.589,-0.355,-0.055
12.592,-0.355,-0.055
12.594,-0.355,-0.040
12.597,-0.330,-0.035
12.600,-0.330,-0.030
12.603,-0.325,-0.040
12.606,-0.320,-0.050
12.608,-0.325,-0.040
12.611,-0.300,-0.040
12.614,-0.300,-0.040
12.617,-0.300,-0.030
12.619,-0.290,-0.040
12.622,-0.290,-0.050
12.625,-0.305,-0.040
12.628,-0.295,-0.035
12.631,-0.310,-0.035
12.633,-0.305,-0.045
12.636,-0.325,-0.050
12.639,-0.335,-0.070
12.642,-0.360,-0.085
12.644,-0.360,-0.095
12.647,-0.360,-0.100
12.650,-0.355,-0.095
12.653,-0.345,-0.105
12.656,-0.340,-0.090
12.658,-0.355,-0.065
12.661,-0.360,-0.035
12.664,-0.365,-0.020
12.667,-0.380,-0.025
12.669,-0.395,-0.045
12.672,-0.410,-0.060
12.675,-0.425,-0.055
12.678,-0.425,-0.045
12.681,-0.420,-0.050
12.683,-0.435,-0.055
12.686,-0.440,-0.060
12.689,-0.460,-0.080
12.692,-0.465,-0.060
12.694,-0.475,-0.060
12.697,-0.460,-0.070
12.700,-0.465,-0.085
12.703,-0.480,-0.085
12.706,-0.480,-0.085
12.708,-0.475,-0.085
12.711,-0.480,-0.080
12.714,-0.475,-0.060
12.717,-0.475,-0.065
12.719,-0.480,-0.070
12.722,-0.475,-0.085
12.725,-0.485,-0.075
12.728,-0.485,-0.060
12.731,-0.475,-0.055
12.733,-0.475,-0.065
12.736,-0.475,-0.065
12.739,-0.490,-0.085
12.742,-0.495,-0.080
12.744,-0.475,-0.075
12.747,-0.465,-0.060
12.750,-0.480,-0.070
12.753,-0.480,-0.075
12.756,-0.490,-0.080
12.758,-0.490,-0.070
12.761,-0.490,-0.070
12.764,-0.500,-0.055
12.767,-0.555,-0.075
12.769,-0.625,-0.095
12.772,-0.665,-0.115
12.775,-0.655,-0.115
12.778,-0.590,-0.085
12.781,-0.510,-0.035
12.783,-0.420,0.000
12.786,-0.220,0.040
12.789,0.075,0.135
12.792,0.450,0.310
12.794,0.825,0.555
12.797,1.165,0.805
12.800,1.465,1.055
12.803,1.660,1.295
12.806,1.750,1.465
12.808,1.705,1.530
12.811,1.465,1.435
12.814,1.015,1.150
12.817,0.450,0.695
12.819,-0.055,0.195
12.822,-0.390,-0.190
12.825,-0.535,-0.420
12.828,-0.565,-0.500
12.831,-0.565,-0.465
12.833,-0.545,-0.390
12.836,-0.480,-0.300
12.839,-0.410,-0.195
12.842,-0.380,-0.100
12.844,-0.390,-0.020
12.847,-0.420,0.010
12.850,-0.435,0.000
12.853,-0.450,-0.020
12.856,-0.455,-0.045
12.858,-0.475,-0.030
12.861,-0.470,-0.020
12.864,-0.465,-0.010
12.867,-0.470,-0.035
12.869,-0.500,-0.050
12.872,-0.505,-0.055
12.875,-0.515,-0.050
12.878,-0.515,-0.035
12.881,-0.515,-0.045
12.883,-0.510,-0.045
12.886,-0.520,-0.055
12.889,-0.535,-0.055
12.892,-0.530,-0.055
12.894,-0.535,-0.040
12.897,-0.520,-0.030
12.900,-0.515,-0.035
12.903,-0.525,-0.040
12.906,-0.540,-0.055
12.908,-0.535,-0.050
12.911,-0.530,-0.035
12.914,-0.515,-0.015
12.917,-0.520,-0.030
12.919,-0.535,-0.035
12.922,-0.540,-0.040
12.925,-0.535,-0.035
12.928,-0.515,-0.030
12.931,-0.515,-0.020
12.933,-0.520,-0.015
12.936,-0.520,-0.035
12.939,-0.530,-0.040
12.942,-0.520,-0.030
12.944,-0.520,-0.010
12.947,-0.495,0.000
12.950,-0.500,-0.010
12.953,-0.495,-0.020
12.956,-0.500,-0.015
12.958,-0.515,-0.015
12.961,-0.500,0.005
12.964,-0.475,0.015
12.967,-0.470,0.010
12.969,-0.455,0.005
12.972,-0.460,-0.010
12.975,-0.475,0.015
12.978,-0.455,0.035
12.981,-0.440,0.045
12.983,-0.430,0.035
12.986,-0.430,0.025
12.989,-0.420,0.035
12.992,-0.415,0.045
12.994,-0.395,0.075
12.997,-0.365,0.075
13.000,-0.355,0.090
13.003,-0.360,0.085
13.006,-0.345,0.095
13.008,-0.325,0.095
13.011,-0.300,0.130
13.014,-0.270,0.130
13.017,-0.260,0.160
13.019,-0.250,0.155
13.022,-0.235,0.150
13.025,-0.220,0.170
13.028,-0.190,0.180
13.031,-0.175,0.200
13.033,-0.155,0.215
13.036,-0.140,0.210
13.039,-0.135,0.220
13.042,-0.125,0.230
13.044,-0.100,0.255
13.047,-0.075,0.260
13.050,-0.075,0.270
13.053,-0.065,0.265
13.056,-0.045,0.270
13.058,-0.045,0.285
13.061,-0.015,0.300
13.064,0.000,0.315
13.067,0.005,0.310
13.069,0.005,0.315
13.072,0.010,0.315
13.075,0.020,0.315
13.078,0.025,0.325
13.081,0.030,0.340
13.083,0.020,0.325
13.086,0.015,0.320
13.089,0.005,0.300
13.092,-0.010,0.295
13.094,-0.015,0.300
13.097,-0.025,0.290
13.100,-0.040,0.280
13.103,-0.070,0.270
13.106,-0.100,0.225
13.108,-0.120,0.235
13.111,-0.135,0.225
13.114,-0.160,0.210
13.117,-0.180,0.200
13.119,-0.210,0.180
13.122,-0.235,0.150
13.125,-0.265,0.140
13.128,-0.270,0.125
13.131,-0.275,0.125
13.133,-0.295,0.095
13.136,-0.320,0.080
13.139,-0.340,0.060
13.142,-0.345,0.055
13.144,-0.340,0.055
13.147,-0.340,0.050
13.150,-0.355,0.030
13.153,-0.365,0.025
13.156,-0.370,0.025
13.158,-0.385,0.030
13.161,-0.380,0.030
13.164,-0.380,0.025
13.167,-0.375,0.020
13.169,-0.380,0.005
13.172,-0.385,0.005
13.175,-0.390,0.000
13.178,-0.395,0.005
13.181,-0.375,0.010
13.183,-0.370,0.020
13.186,-0.380,0.000
13.189,-0.395,-0.005
13.192,-0.400,-0.015
13.194,-0.380,0.020
13.197,-0.375,0.010
13.200,-0.365,0.015
13.203,-0.375,0.015
13.206,-0.375,-0.005
13.208,-0.380,0.010
13.211,-0.365,0.020
13.214,-0.365,0.025
13.217,-0.350,0.025
13.219,-0.350,0.030
13.222,-0.355,0.025
13.225,-0.360,0.025
13.228,-0.350,0.030
13.231,-0.335,0.050
13.233,-0.335,0.040
13.236,-0.345,0.030
13.239,-0.345,0.030
13.242,-0.345,0.045
13.244,-0.335,0.045
13.247,-0.330,0.055
13.250,-0.320,0.050
13.253,-0.330,0.055
13.256,-0.330,0.030
13.258,-0.335,0.050
13.261,-0.335,0.055
13.264,-0.320,0.070
13.267,-0.320,0.050
13.269,-0.330,0.035
13.272,-0.335,0.040
13.275,-0.350,0.045
13.278,-0.340,0.045
13.281,-0.335,0.050
13.283,-0.330,0.045
13.286,-0.335,0.050
13.289,-0.355,0.025
13.292,-0.350,0.035
13.294,-0.345,0.040
13.297,-0.360,0.035
13.300,-0.355,0.025
13.303,-0.365,0.015
13.306,-0.365,0.015
13.308,-0.375,0.020
13.311,-0.375,0.015
13.314,-0.360,0.020
13.317,-0.375,0.010
13.319,-0.385,0.000
13.322,-0.385,-0.010
13.325,-0.410,-0.005
13.328,-0.405,0.000
13.331,-0.390,0.000
13.333,-0.395,-0.005
13.336,-0.405,-0.015
13.339,-0.405,-0.035
13.342,-0.400,-0.025
13.344,-0.395,-0.010
13.347,-0.405,-0.010
13.350,-0.390,-0.025
13.353,-0.405,-0.030
13.356,-0.420,-0.045
13.358,-0.420,-0.035
13.361,-0.400,-0.035
13.364,-0.410,-0.030
13.367,-0.410,-0.030
13.369,-0.415,-0.040
13.372,-0.435,-0.055
13.375,-0.430,-0.050
13.378,-0.420,-0.045
13.381,-0.420,-0.035
13.383,-0.425,-0.050
13.386,-0.425,-0.060
13.389,-0.440,-0.070
13.392,-0.435,-0.060
13.394,-0.430,-0.045
13.397,-0.430,-0.040
13.400,-0.420,-0.050
13.403,-0.425,-0.055
13.406,-0.435,-0.065
13.408,-0.445,-0.060
13.411,-0.435,-0.050
13.414,-0.420,-0.045
13.417,-0.425,-0.045
13.419,-0.430,-0.050
13.422,-0.435,-0.065
13.425,-0.455,-0.050
13.428,-0.430,-0.035
13.431,-0.425,-0.035
13.433,-0.420,-0.055
13.436,-0.425,-0.060
13.439,-0.430,-0.070
13.442,-0.440,-0.070
13.444,-0.435,-0.050
13.447,-0.415,-0.040
13.450,-0.435,-0.055
13.453,-0.430,-0.055
13.456,-0.435,-0.055
13.458,-0.440,-0.050
13.461,-0.425,-0.060
13.464,-0.410,-0.040
13.467,-0.425,-0.045
13.469,-0.430,-0.055
13.472,-0.425,-0.055
13.475,-0.425,-0.055
13.478,-0.425,-0.045
13.481,-0.400,-0.040
13.483,-0.395,-0.040
13.486,-0.370,-0.040
13.489,-0.375,-0.050
13.492,-0.380,-0.045
13.494,-0.360,-0.040
13.497,-0.340,-0.030
13.500,-0.335,-0.020
13.503,-0.335,-0.040
13.506,-0.330,-0.035
13.508,-0.330,-0.030
13.511,-0.330,-0.030
13.514,-0.310,-0.025
13.517,-0.295,-0.035
13.519,-0.300,-0.045
13.522,-0.310,-0.055
13.525,-0.310,-0.050
13.528,-0.300,-0.030
13.531,-0.305,-0.030
13.533,-0.300,-0.035
13.536,-0.315,-0.055
13.539,-0.335,-0.070
13.542,-0.355,-0.085
13.544,-0.350,-0.075
13.547,-0.355,-0.070
13.550,-0.355,-0.090
13.553,-0.340,-0.090
13.556,-0.340,-0.095
13.558,-0.340,-0.060
13.561,-0.340,-0.040
13.564,-0.340,-0.010
13.567,-0.360,-0.020
13.569,-0.375,-0.035
13.572,-0.395,-0.045
13.575,-0.405,-0.035
13.578,-0.395,-0.025
13.581,-0.400,-0.020
13.583,-0.405,-0.030
13.586,-0.420,-0.055
13.589,-0.425,-0.060
13.592,-0.445,-0.050
13.594,-0.450,-0.045
13.597,-0.435,-0.040
13.600,-0.440,-0.050
13.603,-0.450,-0.065
13.606,-0.450,-0.055
13.608,-0.460,-0.055
13.611,-0.450,-0.055
13.614,-0.445,-0.050
13.617,-0.450,-0.045
13.619,-0.445,-0.045
13.622,-0.455,-0.060
13.625,-0.460,-0.040
13.628,-0.460,-0.030
13.631,-0.445,-0.020
13.633,-0.445,-0.020
13.636,-0.445,-0.035
13.639,-0.465,-0.050
13.642,-0.455,-0.045
13.644,-0.455,-0.030
13.647,-0.445,-0.015
13.650,-0.445,-0.020
13.653,-0.440,-0.030
13.656,-0.465,-0.040
13.658,-0.465,-0.035
13.661,-0.445,-0.020
13.664,-0.430,-0.015
13.667,-0.425,-0.010
13.669,-0.430,-0.025
13.672,-0.445,-0.025
13.675,-0.440,-0.010
13.678,-0.435,0.005
13.681,-0.445,-0.005
13.683,-0.485,-0.005
13.686,-0.560,-0.030
13.689,-0.600,-0.050
13.692,-0.585,-0.030
13.694,-0.515,0.015
13.697,-0.415,0.050
13.700,-0.295,0.095
13.703,-0.040,0.155
13.706,0.315,0.290
13.708,0.725,0.530
13.711,1.125,0.800
13.714,1.475,1.080
13.717,1.735,1.360
13.719,1.830,1.555
13.722,1.740,1.555
13.725,1.405,1.365
13.728,0.825,0.975
13.731,0.260,0.440
13.733,-0.215,-0.030
13.736,-0.455,-0.335
13.739,-0.525,-0.420
13.742,-0.535,-0.375
13.744,-0.490,-0.275
13.747,-0.390,-0.160
13.750,-0.315,-0.045
13.753,-0.305,0.015
13.756,-0.345,0.055
13.758,-0.380,0.060
13.761,-0.380,0.050
13.764,-0.380,0.045
13.767,-0.370,0.050
13.769,-0.385,0.035
13.772,-0.405,0.035
13.775,-0.430,0.040
13.778,-0.455,0.045
13.781,-0.425,0.040
13.783,-0.440,0.040
13.786,-0.445,0.025
13.789,-0.440,0.015
13.792,-0.455,0.015
13.794,-0.450,0.035
13.797,-0.430,0.050
13.800,-0.430,0.045
13.803,-0.445,0.040
13.806,-0.450,0.030
13.808,-0.455,0.035
13.811,-0.440,0.045
13.814,-0.435,0.060
13.817,-0.425,0.050
13.819,-0.430,0.045
13.822,-0.440,0.040
13.825,-0.440,0.055
13.828,-0.435,0.060
13.831,-0.420,0.070
13.833,-0.410,0.070
13.836,-0.415,0.065
13.839,-0.430,0.050
13.842,-0.430,0.065
13.844,-0.410,0.070
13.847,-0.400,0.080
13.850,-0.385,0.080
13.853,-0.400,0.070
13.856,-0.395,0.075
13.858,-0.400,0.080
13.861,-0.385,0.100
13.864,-0.370,0.110
13.867,-0.360,0.100
13.869,-0.360,0.095
13.872,-0.360,0.100
13.875,-0.365,0.110
13.878,-0.335,0.125
13.881,-0.320,0.135
13.883,-0.305,0.140
13.886,-0.305,0.130
13.889,-0.305,0.130
13.892,-0.295,0.145
13.894,-0.280,0.160
13.897,-0.250,0.175
13.900,-0.230,0.185
13.903,-0.225,0.175
13.906,-0.210,0.195
13.908,-0.205,0.210
13.911,-0.175,0.225
13.914,-0.155,0.245
13.917,-0.125,0.260
13.919,-0.115,0.250
13.922,-0.105,0.260
13.925,-0.095,0.280
13.928,-0.060,0.305
13.931,-0.030,0.330
13.933,-0.005,0.345
13.936,-0.010,0.330
13.939,0.015,0.335
13.942,0.020,0.330
13.944,0.040,0.350
13.947,0.070,0.370
13.950,0.080,0.380
13.953,0.085,0.370
13.956,0.095,0.380
13.958,0.095,0.380
13.961,0.105,0.415
13.964,0.135,0.415
13.967,0.140,0.410
13.969,0.140,0.410
13.972,0.135,0.410
13.975,0.125,0.415
13.978,0.130,0.420
13.981,0.130,0.425
13.983,0.135,0.420
13.986,0.115,0.410
13.989,0.090,0.385
13.992,0.075,0.385
13.994,0.075,0.390
13.997,0.060,0.390
14.000,0.045,0.375
14.003,0.030,0.355
14.006,-0.005,0.340
14.008,-0.040,0.325
14.011,-0.060,0.325
14.014,-0.065,0.300
14.017,-0.090,0.295
14.019,-0.115,0.260
14.022,-0.130,0.240
14.025,-0.160,0.230
14.028,-0.160,0.235
14.031,-0.170,0.215
14.033,-0.180,0.205
14.036,-0.185,0.200
14.039,-0.210,0.175
14.042,-0.220,0.175
14.044,-0.220,0.175
14.047,-0.220,0.170
14.050,-0.225,0.165
14.053,-0.240,0.145
14.056,-0.245,0.140
14.058,-0.250,0.160
14.061,-0.245,0.155
14.064,-0.230,0.145
14.067,-0.235,0.150
14.069,-0.235,0.140
14.072,-0.250,0.140
14.075,-0.250,0.130
14.078,-0.230,0.145
14.081,-0.225,0.150
14.083,-0.215,0.160
14.086,-0.225,0.145
14.089,-0.235,0.150
14.092,-0.235,0.150
14.094,-0.235,0.155
14.097,-0.220,0.175
14.100,-0.215,0.170
14.103,-0.220,0.160
14.106,-0.220,0.160
14.108,-0.225,0.155
14.111,-0.200,0.170
14.114,-0.205,0.180
14.117,-0.200,0.175
14.119,-0.195,0.175
14.122,-0.210,0.165
14.125,-0.210,0.185
14.128,-0.195,0.185
14.131,-0.185,0.190
14.133,-0.175,0.195
14.136,-0.185,0.185
14.139,-0.185,0.190
14.142,-0.185,0.200
14.144,-0.190,0.205
14.147,-0.180,0.215
14.150,-0.175,0.205
14.153,-0.170,0.205
14.156,-0.180,0.200
14.158,-0.185,0.195
14.161,-0.175,0.215
14.164,-0.190,0.215
14.167,-0.165,0.215
14.169,-0.175,0.205
14.172,-0.190,0.195
14.175,-0.185,0.210
14.178,-0.180,0.200
14.181,-0.170,0.215
14.183,-0.165,0.220
14.186,-0.180,0.210
14.189,-0.185,0.195
14.192,-0.195,0.195
14.194,-0.185,0.200
14.197,-0.185,0.200
14.200,-0.185,0.200
14.203,-0.195,0.195
14.206,-0.205,0.180
14.208,-0.215,0.185
14.211,-0.205,0.190
14.214,-0.200,0.180
14.217,-0.200,0.185
14.219,-0.210,0.160
14.222,-0.215,0.160
14.225,-0.230,0.160
14.228,-0.220,0.165
14.231,-0.220,0.175
14.233,-0.220,0.175
14.236,-0.230,0.155
14.239,-0.235,0.145
14.242,-0.245,0.155
14.244,-0.230,0.160
14.247,-0.235,0.165
14.250,-0.235,0.155
14.253,-0.230,0.140
14.256,-0.240,0.140
14.258,-0.255,0.155
14.261,-0.250,0.145
14.264,-0.245,0.145
14.267,-0.240,0.160
14.269,-0.265,0.145
14.272,-0.270,0.125
14.275,-0.265,0.125
14.278,-0.250,0.135
14.281,-0.255,0.140
14.283,-0.255,0.120
14.286,-0.260,0.130
14.289,-0.270,0.120
14.292,-0.275,0.135
14.294,-0.270,0.135
14.297,-0.265,0.125
14.300,-0.255,0.120
14.303,-0.275,0.115
14.306,-0.280,0.110
14.308,-0.285,0.110
14.311,-0.270,0.130
14.314,-0.265,0.140
14.317,-0.265,0.130
14.319,-0.275,0.120
14.322,-0.275,0.105
14.325,-0.280,0.115
14.328,-0.270,0.130
14.331,-0.280,0.130
14.333,-0.265,0.135
14.336,-0.270,0.120
14.339,-0.280,0.115
14.342,-0.280,0.120
14.344,-0.275,0.130
14.347,-0.270,0.135
14.350,-0.260,0.135
14.353,-0.270,0.115
14.356,-0.275,0.115
14.358,-0.270,0.115
14.361,-0.255,0.140
14.364,-0.235,0.140
14.367,-0.215,0.140
14.369,-0.210,0.140
14.372,-0.205,0.135
14.375,-0.200,0.125
14.378,-0.185,0.135
14.381,-0.180,0.140
14.383,-0.175,0.150
14.386,-0.180,0.140
14.389,-0.175,0.145
14.392,-0.170,0.140
14.394,-0.160,0.160
14.397,-0.145,0.150
14.400,-0.145,0.145
14.403,-0.150,0.140
14.406,-0.155,0.125
14.408,-0.155,0.140
14.411,-0.145,0.155
14.414,-0.155,0.155
14.417,-0.170,0.150
14.419,-0.180,0.120
14.422,-0.215,0.095
14.425,-0.215,0.105
14.428,-0.200,0.100
14.431,-0.185,0.120
14.433,-0.180,0.120
14.436,-0.190,0.135
14.439,-0.200,0.135
14.442,-0.210,0.165
14.444,-0.220,0.175
14.447,-0.230,0.175
14.450,-0.240,0.175
14.453,-0.255,0.160
14.456,-0.265,0.150
14.458,-0.275,0.145
14.461,-0.285,0.145
14.464,-0.290,0.155
14.467,-0.290,0.145
14.469,-0.300,0.140
14.472,-0.310,0.120
14.475,-0.315,0.130
14.478,-0.315,0.130
14.481,-0.305,0.140
14.483,-0.305,0.130
14.486,-0.305,0.120
14.489,-0.325,0.120
14.492,-0.320,0.135
14.494,-0.305,0.140
14.497,-0.300,0.145
14.500,-0.310,0.150
14.503,-0.325,0.140
14.506,-0.320,0.125
14.508,-0.330,0.130
14.511,-0.320,0.150
14.514,-0.330,0.135
14.517,-0.320,0.145
14.519,-0.325,0.135
14.522,-0.315,0.140
14.525,-0.320,0.135
14.528,-0.315,0.155
14.531,-0.300,0.145
14.533,-0.315,0.150
14.536,-0.300,0.140
14.539,-0.305,0.135
14.542,-0.315,0.140
14.544,-0.295,0.155
14.547,-0.300,0.165
14.550,-0.290,0.165
14.553,-0.300,0.165
14.556,-0.315,0.140
14.558,-0.325,0.160
14.561,-0.365,0.160
14.564,-0.420,0.150
14.567,-0.465,0.135
14.569,-0.460,0.135
14.572,-0.415,0.155
14.575,-0.335,0.210
14.578,-0.210,0.250
14.581,0.045,0.320
14.583,0.415,0.470
14.586,0.835,0.695
14.589,1.205,0.950
14.592,1.530,1.225
14.594,1.790,1.495
14.597,1.890,1.695
14.600,1.855,1.715
14.603,1.560,1.535
14.606,1.025,1.130
14.608,0.405,0.595
14.611,-0.070,0.115
14.614,-0.325,-0.195
14.617,-0.400,-0.295
14.619,-0.415,-0.250
14.622,-0.360,-0.135
14.625,-0.275,-0.010
14.628,-0.195,0.125
14.631,-0.180,0.205
14.633,-0.215,0.225
14.636,-0.240,0.210
14.639,-0.250,0.175
14.642,-0.255,0.190
14.644,-0.260,0.210
14.647,-0.260,0.220
14.650,-0.280,0.205
14.653,-0.295,0.200
14.656,-0.310,0.180
14.658,-0.310,0.185
14.661,-0.315,0.185
14.664,-0.320,0.195
14.667,-0.305,0.180
14.669,-0.310,0.185
14.672,-0.325,0.175
14.675,-0.335,0.185
14.678,-0.325,0.205
14.681,-0.315,0.205
14.683,-0.320,0.200
14.686,-0.330,0.200
14.689,-0.340,0.180
14.692,-0.335,0.190
14.694,-0.325,0.210
14.697,-0.330,0.200
14.700,-0.330,0.210
14.703,-0.335,0.190
14.706,-0.330,0.190
14.708,-0.325,0.200
14.711,-0.325,0.200
14.714,-0.310,0.210
14.717,-0.315,0.210
14.719,-0.310,0.215
14.722,-0.315,0.195
14.725,-0.320,0.215
14.728,-0.305,0.220
14.731,-0.295,0.220
14.733,-0.290,0.235
14.736,-0.290,0.225
14.739,-0.305,0.215
14.742,-0.295,0.220
14.744,-0.290,0.230
14.747,-0.275,0.245
14.750,-0.260,0.240
14.753,-0.265,0.245
14.756,-0.265,0.235
14.758,-0.260,0.235
14.761,-0.250,0.240
14.764,-0.230,0.255
14.767,-0.220,0.260
14.769,-0.215,0.255
14.772,-0.205,0.255
14.775,-0.200,0.275
14.778,-0.185,0.295
14.781,-0.155,0.305
14.783,-0.145,0.325
14.786,-0.140,0.320
14.789,-0.125,0.330
14.792,-0.110,0.335
14.794,-0.085,0.350
14.797,-0.065,0.365
14.800,-0.045,0.385
14.803,-0.035,0.380
14.806,-0.035,0.390
14.808,-0.015,0.400
14.811,0.020,0.425
14.814,0.045,0.425
14.817,0.055,0.445
14.819,0.050,0.435
14.822,0.060,0.435
14.825,0.065,0.445
14.828,0.090,0.475
14.831,0.100,0.480
14.833,0.125,0.490
14.836,0.130,0.480
14.839,0.130,0.485
14.842,0.130,0.485
14.844,0.155,0.515
14.847,0.165,0.510
14.850,0.165,0.520
14.853,0.165,0.515
14.856,0.160,0.490
14.858,0.150,0.500
14.861,0.155,0.500
14.864,0.165,0.520
14.867,0.155,0.495
14.869,0.115,0.495
14.872,0.100,0.475
14.875,0.085,0.470
14.878,0.075,0.465
14.881,0.070,0.465
14.883,0.050,0.455
14.886,0.020,0.425
14.889,-0.010,0.405
14.892,-0.035,0.400
14.894,-0.050,0.385
14.897,-0.060,0.390
14.900,-0.090,0.340
14.903,-0.110,0.330
14.906,-0.140,0.310
14.908,-0.160,0.295
14.911,-0.165,0.295
14.914,-0.160,0.285
14.917,-0.170,0.280
14.919,-0.185,0.255
14.922,-0.200,0.245
14.925,-0.220,0.235
14.928,-0.220,0.240
14.931,-0.220,0.240
14.933,-0.225,0.220
14.936,-0.220,0.215
14.939,-0.250,0.195
14.942,-0.250,0.200
14.944,-0.245,0.215
14.947,-0.230,0.210
14.950,-0.225,0.200
14.953,-0.240,0.195
14.956,-0.255,0.170
14.958,-0.260,0.180
14.961,-0.255,0.190
14.964,-0.245,0.195
14.967,-0.240,0.195
14.969,-0.250,0.190
14.972,-0.250,0.180
14.975,-0.260,0.180
14.978,-0.245,0.195
14.981,-0.240,0.200
14.983,-0.245,0.190
14.986,-0.245,0.195
14.989,-0.255,0.185
14.992,-0.255,0.200
14.994,-0.235,0.205
14.997,-0.215,0.210
15.000,-0.220,0.205
15.003,-0.215,0.200
15.006,-0.240,0.195
15.008,-0.240,0.205
15.011,-0.215,0.225
15.014,-0.215,0.225
15.017,-0.220,0.210
15.019,-0.235,0.210
15.022,-0.230,0.215
15.025,-0.230,0.205
15.028,-0.220,0.230
15.031,-0.215,0.225
15.033,-0.210,0.225
15.036,-0.220,0.205
15.039,-0.225,0.205
15.042,-0.230,0.215
15.044,-0.220,0.225
15.047,-0.215,0.235
15.050,-0.205,0.235
15.053,-0.225,0.225
15.056,-0.225,0.210
15.058,-0.210,0.215
15.061,-0.225,0.225
15.064,-0.215,0.230
15.067,-0.215,0.235
15.069,-0.225,0.220
15.072,-0.240,0.210
15.075,-0.240,0.220
15.078,-0.225,0.225
15.081,-0.225,0.230
15.083,-0.225,0.220
15.086,-0.230,0.200
15.089,-0.240,0.200
15.092,-0.245,0.180
15.094,-0.255,0.200
15.097,-0.245,0.195
15.100,-0.245,0.205
15.103,-0.245,0.185
15.106,-0.260,0.180
15.108,-0.255,0.185
15.111,-0.255,0.180
15.114,-0.250,0.185
15.117,-0.260,0.185
15.119,-0.270,0.160
15.122,-0.275,0.155
15.125,-0.290,0.150
15.128,-0.280,0.170
15.131,-0.290,0.165
15.133,-0.285,0.150
15.136,-0.285,0.145
15.139,-0.315,0.135
15.142,-0.320,0.140
15.144,-0.310,0.140
15.147,-0.295,0.160
15.150,-0.295,0.145
15.153,-0.305,0.135
15.156,-0.325,0.120
15.158,-0.330,0.120
15.161,-0.325,0.130
15.164,-0.330,0.130
15.167,-0.310,0.125
15.169,-0.320,0.100
15.172,-0.330,0.110
15.175,-0.340,0.100
15.178,-0.325,0.110
15.181,-0.320,0.125
15.183,-0.325,0.100
15.186,-0.335,0.095
15.189,-0.350,0.100
15.192,-0.350,0.095
15.194,-0.355,0.090
15.197,-0.335,0.105
15.200,-0.345,0.105
15.203,-0.345,0.095
15.206,-0.355,0.070
15.208,-0.365,0.070
15.211,-0.345,0.075
15.214,-0.340,0.085
15.217,-0.335,0.090
15.219,-0.350,0.065
15.222,-0.355,0.070
15.225,-0.365,0.065
15.228,-0.365,0.075
15.231,-0.345,0.090
15.233,-0.345,0.090
15.236,-0.360,0.080
15.239,-0.370,0.065
15.242,-0.380,0.075
15.244,-0.375,0.085
15.247,-0.355,0.080
15.250,-0.355,0.090
15.253,-0.370,0.075
15.256,-0.370,0.070
15.258,-0.370,0.080
15.261,-0.355,0.090
15.264,-0.335,0.085
15.267,-0.330,0.075
15.269,-0.330,0.085
15.272,-0.325,0.070
15.275,-0.310,0.075
15.278,-0.295,0.090
15.281,-0.275,0.100
15.283,-0.275,0.085
15.286,-0.280,0.090
15.289,-0.290,0.085
15.292,-0.280,0.080
15.294,-0.270,0.090
15.297,-0.265,0.090
15.300,-0.265,0.080
15.303,-0.260,0.080
15.306,-0.265,0.070
15.308,-0.270,0.085
15.311,-0.270,0.080
15.314,-0.275,0.070
15.317,-0.290,0.055
15.319,-0.305,0.035
15.322,-0.330,0.015
15.325,-0.340,0.020
15.328,-0.330,0.030
15.331,-0.315,0.035
15.333,-0.300,0.035
15.336,-0.300,0.045
15.339,-0.310,0.070
15.342,-0.340,0.070
15.344,-0.345,0.090
15.347,-0.345,0.080
15.350,-0.355,0.080
15.353,-0.360,0.060
15.356,-0.380,0.060
15.358,-0.395,0.055
15.361,-0.395,0.060
15.364,-0.380,0.060
15.367,-0.395,0.060
15.369,-0.405,0.040
15.372,-0.420,0.030
15.375,-0.435,0.025
15.378,-0.435,0.035
15.381,-0.415,0.040
15.383,-0.425,0.020
15.386,-0.435,0.025
15.389,-0.435,0.010
15.392,-0.445,0.025
15.394,-0.430,0.035
15.397,-0.430,0.040
15.400,-0.425,0.045
15.403,-0.425,0.030
15.406,-0.440,0.025
15.408,-0.460,0.025
15.411,-0.440,0.035
15.414,-0.445,0.045
15.417,-0.440,0.035
15.419,-0.445,0.030
15.422,-0.455,0.025
15.425,-0.465,0.015
15.428,-0.460,0.025
15.431,-0.440,0.030
15.433,-0.445,0.030
15.436,-0.440,0.020
15.439,-0.440,0.015
15.442,-0.445,0.025
15.444,-0.435,0.040
15.447,-0.430,0.040
15.450,-0.430,0.030
15.453,-0.435,0.045
15.456,-0.455,0.020
15.458,-0.465,0.030
15.461,-0.495,0.040
15.464,-0.540,0.030
15.467,-0.590,0.020
15.469,-0.605,0.005
15.472,-0.565,0.000
15.475,-0.510,0.060
15.478,-0.415,0.100
15.481,-0.265,0.140
15.483,-0.010,0.220
15.486,0.335,0.355
15.489,0.665,0.540
15.492,0.975,0.765
15.494,1.285,0.995
15.497,1.525,1.200
15.500,1.645,1.385
15.503,1.655,1.445
15.506,1.490,1.380
15.508,1.105,1.155
15.511,0.580,0.790
15.514,0.075,0.340
15.517,-0.255,-0.030
15.519,-0.445,-0.285
15.522,-0.545,-0.395
15.525,-0.590,-0.380
15.528,-0.575,-0.315
15.531,-0.480,-0.215
15.533,-0.390,-0.115
15.536,-0.355,-0.035
15.539,-0.375,0.035
15.542,-0.405,0.060
15.544,-0.405,0.065
15.547,-0.400,0.040
15.550,-0.390,0.040
15.553,-0.410,0.040
15.556,-0.440,0.035
15.558,-0.460,0.035
15.561,-0.465,0.035
15.564,-0.465,0.035
15.567,-0.475,0.025
15.569,-0.460,0.025
15.572,-0.480,0.015
15.575,-0.485,0.015
15.578,-0.485,0.015
15.581,-0.475,0.035
15.583,-0.470,0.030
15.586,-0.480,0.030
15.589,-0.500,0.020
15.592,-0.495,0.025
15.594,-0.485,0.035
15.597,-0.475,0.025
15.600,-0.475,0.020
15.603,-0.480,0.020
15.606,-0.490,0.015
15.608,-0.490,0.020
15.611,-0.495,0.030
15.614,-0.475,0.040
15.617,-0.475,0.035
15.619,-0.475,0.015
15.622,-0.485,0.015
15.625,-0.480,0.020
15.628,-0.480,0.040
15.631,-0.475,0.035
15.633,-0.470,0.045
15.636,-0.470,0.035
15.639,-0.470,0.030
15.642,-0.480,0.025
15.644,-0.470,0.035
15.647,-0.455,0.050
15.650,-0.455,0.045
15.653,-0.465,0.030
15.656,-0.460,0.025
15.658,-0.450,0.035
15.661,-0.445,0.050
15.664,-0.430,0.070
15.667,-0.430,0.070
15.669,-0.425,0.070
15.672,-0.430,0.050
15.675,-0.440,0.060
15.678,-0.405,0.075
15.681,-0.385,0.090
15.683,-0.390,0.095
15.686,-0.380,0.075
15.689,-0.385,0.085
15.692,-0.380,0.100
15.694,-0.360,0.115
15.697,-0.335,0.130
15.700,-0.340,0.120
15.703,-0.330,0.120
15.706,-0.310,0.120
15.708,-0.305,0.140
15.711,-0.275,0.155
15.714,-0.260,0.180
15.717,-0.245,0.190
15.719,-0.225,0.190
15.722,-0.215,0.200
15.725,-0.220,0.205
15.728,-0.190,0.230
15.731,-0.165,0.235
15.733,-0.155,0.240
15.736,-0.140,0.250
15.739,-0.140,0.240
15.742,-0.135,0.245
15.744,-0.110,0.285
15.747,-0.090,0.280
15.750,-0.080,0.300
15.753,-0.065,0.295
15.756,-0.070,0.280
15.758,-0.060,0.295
15.761,-0.045,0.300
15.764,-0.020,0.315
15.767,-0.020,0.330
15.769,-0.025,0.320
15.772,-0.025,0.330
15.775,-0.025,0.325
15.778,-0.005,0.335
15.781,-0.005,0.335
15.783,-0.005,0.330
15.786,-0.020,0.320
15.789,-0.030,0.305
15.792,-0.040,0.305
15.794,-0.050,0.315
15.797,-0.050,0.310
15.800,-0.060,0.290
15.803,-0.085,0.270
15.806,-0.100,0.255
15.808,-0.130,0.245
15.811,-0.140,0.240
15.814,-0.155,0.240
15.817,-0.175,0.215
15.819,-0.200,0.195
15.822,-0.235,0.170
15.825,-0.245,0.150
15.828,-0.260,0.155
15.831,-0.270,0.145
15.833,-0.275,0.130
15.836,-0.295,0.110
15.839,-0.320,0.080
15.842,-0.330,0.070
15.844,-0.325,0.070
15.847,-0.330,0.070
15.850,-0.350,0.055
15.853,-0.355,0.040
15.856,-0.360,0.025
15.858,-0.375,0.025
15.861,-0.365,0.030
15.864,-0.375,0.030
15.867,-0.380,0.030
15.869,-0.375,0.005
15.872,-0.400,-0.005
15.875,-0.405,0.000
15.878,-0.385,0.010
15.881,-0.390,0.005
15.883,-0.380,0.000
15.886,-0.390,0.000
15.889,-0.400,-0.015
15.892,-0.410,-0.015
15.894,-0.395,0.005
15.897,-0.395,0.005
15.900,-0.390,-0.010
15.903,-0.385,-0.010
15.906,-0.400,-0.020
15.908,-0.400,-0.010
15.911,-0.400,-0.005
15.914,-0.385,0.010
15.917,-0.390,0.005
15.919,-0.375,0.000
15.922,-0.385,-0.010
15.925,-0.390,-0.010
15.928,-0.385,0.010
15.931,-0.370,0.000
15.933,-0.365,0.005
15.936,-0.375,0.000
15.939,-0.370,-0.015
15.942,-0.380,0.015
15.944,-0.380,0.015
15.947,-0.365,0.030
15.950,-0.355,0.015
15.953,-0.355,0.005
15.956,-0.360,-0.005
15.958,-0.365,0.015
15.961,-0.370,0.025
15.964,-0.355,0.025
15.967,-0.340,0.015
15.969,-0.355,0.015
15.972,-0.360,0.010
15.975,-0.365,0.015
15.978,-0.350,0.015
15.981,-0.345,0.025
15.983,-0.350,0.015
15.986,-0.365,0.000
15.989,-0.365,-0.015
15.992,-0.360,-0.015
15.994,-0.370,0.000
15.997,-0.355,0.010
16.000,-0.355,0.005
16.003,-0.360,0.000
16.006,-0.380,-0.010
16.008,-0.370,-0.005
16.011,-0.370,-0.015
16.014,-0.375,0.000
16.017,-0.365,-0.015
16.019,-0.380,-0.045
16.022,-0.395,-0.035
16.025,-0.395,-0.040
16.028,-0.390,-0.030
16.031,-0.390,-0.025
16.033,-0.390,-0.030
16.036,-0.405,-0.035
16.039,-0.415,-0.060
16.042,-0.420,-0.055
16.044,-0.415,-0.055
16.047,-0.405,-0.050
16.050,-0.410,-0.065
16.053,-0.435,-0.070
16.056,-0.430,-0.070
16.058,-0.445,-0.075
16.061,-0.435,-0.070
16.064,-0.430,-0.080
16.067,-0.430,-0.090
16.069,-0.445,-0.100
16.072,-0.445,-0.110
16.075,-0.445,-0.105
16.078,-0.445,-0.100
16.081,-0.440,-0.090
16.083,-0.440,-0.100
16.086,-0.450,-0.105
16.089,-0.460,-0.130
16.092,-0.465,-0.120
16.094,-0.465,-0.120
16.097,-0.460,-0.115
16.100,-0.455,-0.130
16.103,-0.465,-0.125
16.106,-0.470,-0.135
16.108,-0.485,-0.135
16.111,-0.465,-0.125
16.114,-0.465,-0.120
16.117,-0.465,-0.120
16.119,-0.480,-0.140
16.122,-0.475,-0.155
16.125,-0.495,-0.150
16.128,-0.475,-0.145
16.131,-0.465,-0.140
16.133,-0.470,-0.140
16.136,-0.480,-0.140
16.139,-0.495,-0.165
16.142,-0.490,-0.150
16.144,-0.475,-0.145
16.147,-0.465,-0.140
16.150,-0.465,-0.145
16.153,-0.470,-0.155
16.156,-0.470,-0.160
16.158,-0.455,-0.155
16.161,-0.435,-0.140
16.164,-0.410,-0.135
16.167,-0.400,-0.140
16.169,-0.405,-0.140
16.172,-0.405,-0.160
16.175,-0.415,-0.155
16.178,-0.395,-0.125
16.181,-0.385,-0.125
16.183,-0.365,-0.135
16.186,-0.380,-0.150
16.189,-0.390,-0.160
16.192,-0.400,-0.155
16.194,-0.400,-0.160
16.197,-0.380,-0.150
16.200,-0.375,-0.170
16.203,-0.375,-0.175
16.206,-0.390,-0.190
16.208,-0.410,-0.185
16.211,-0.415,-0.200
16.214,-0.425,-0.190
16.217,-0.435,-0.210
16.219,-0.440,-0.230
16.222,-0.445,-0.230
16.225,-0.445,-0.215
16.228,-0.410,-0.200
16.231,-0.415,-0.170
16.233,-0.420,-0.165
16.236,-0.440,-0.160
16.239,-0.470,-0.165
16.242,-0.490,-0.160
16.244,-0.485,-0.155
16.247,-0.490,-0.155
16.250,-0.505,-0.170
16.253,-0.510,-0.185
16.256,-0.525,-0.185
16.258,-0.530,-0.190
16.261,-0.555,-0.190
16.264,-0.545,-0.195
16.267,-0.550,-0.190
16.269,-0.565,-0.200
16.272,-0.560,-0.210
16.275,-0.565,-0.215
16.278,-0.560,-0.195
16.281,-0.555,-0.200
16.283,-0.555,-0.200
16.286,-0.550,-0.210
16.289,-0.570,-0.220
16.292,-0.575,-0.210
16.294,-0.560,-0.205
16.297,-0.555,-0.190
16.300,-0.560,-0.195
16.303,-0.555,-0.215
16.306,-0.570,-0.225
16.308,-0.565,-0.210
16.311,-0.555,-0.195
16.314,-0.545,-0.195
16.317,-0.555,-0.190
16.319,-0.560,-0.200
16.322,-0.575,-0.215
16.325,-0.580,-0.200
16.328,-0.585,-0.190
16.331,-0.615,-0.190
16.333,-0.675,-0.210
16.336,-0.725,-0.230
16.339,-0.725,-0.235
16.342,-0.655,-0.195
16.344,-0.565,-0.145
16.347,-0.445,-0.100
16.350,-0.205,-0.035
16.353,0.135,0.085
16.356,0.515,0.290
16.358,0.890,0.535
16.361,1.240,0.795
16.364,1.495,1.050
16.367,1.620,1.255
16.369,1.600,1.340
16.372,1.410,1.270
16.375,0.990,1.030
16.378,0.450,0.630
16.381,-0.045,0.165
16.383,-0.405,-0.260
16.386,-0.615,-0.545
16.389,-0.675,-0.645
16.392,-0.665,-0.615
16.394,-0.625,-0.505
16.397,-0.535,-0.405
16.400,-0.465,-0.295
16.403,-0.450,-0.210
16.406,-0.480,-0.175
16.408,-0.515,-0.160
16.411,-0.520,-0.170
16.414,-0.520,-0.175
16.417,-0.530,-0.190
16.419,-0.540,-0.190
16.422,-0.555,-0.200
16.425,-0.570,-0.195
16.428,-0.580,-0.200
16.431,-0.575,-0.205
16.433,-0.580,-0.195
16.436,-0.595,-0.200
16.439,-0.610,-0.220
16.442,-0.635,-0.215
16.444,-0.615,-0.205
16.447,-0.600,-0.190
16.450,-0.605,-0.200
16.453,-0.610,-0.210
16.456,-0.620,-0.215
16.458,-0.620,-0.220
16.461,-0.610,-0.200
16.464,-0.600,-0.195
16.467,-0.600,-0.190
16.469,-0.610,-0.205
16.472,-0.615,-0.205
16.475,-0.610,-0.200
16.478,-0.615,-0.195
16.481,-0.600,-0.195
16.483,-0.595,-0.195
16.486,-0.605,-0.200
16.489,-0.605,-0.210
16.492,-0.605,-0.210
16.494,-0.600,-0.185
16.497,-0.590,-0.175
16.500,-0.590,-0.175
16.503,-0.590,-0.195
16.506,-0.605,-0.205
16.508,-0.595,-0.190
16.511,-0.595,-0.180
16.514,-0.575,-0.175
16.517,-0.570,-0.175
16.519,-0.565,-0.170
16.522,-0.575,-0.180
16.525,-0.570,-0.165
16.528,-0.560,-0.165
16.531,-0.540,-0.150
16.533,-0.550,-0.150
16.536,-0.545,-0.165
16.539,-0.540,-0.175
16.542,-0.545,-0.150
16.544,-0.520,-0.135
16.547,-0.520,-0.140
16.550,-0.500,-0.125
16.553,-0.500,-0.130
16.556,-0.495,-0.140
16.558,-0.490,-0.120
16.561,-0.475,-0.100
16.564,-0.450,-0.095
16.567,-0.445,-0.090
16.569,-0.420,-0.085
16.572,-0.415,-0.080
16.575,-0.415,-0.065
16.578,-0.370,-0.045
16.581,-0.350,-0.025
16.583,-0.330,-0.020
16.586,-0.330,-0.025
16.589,-0.310,-0.020
16.592,-0.300,-0.010
16.594,-0.280,0.015
16.597,-0.245,0.040
16.600,-0.225,0.030
16.603,-0.205,0.045
16.606,-0.205,0.040
16.608,-0.190,0.050
16.611,-0.170,0.065
16.614,-0.145,0.070
16.617,-0.140,0.075
16.619,-0.125,0.075
16.622,-0.120,0.070
16.625,-0.115,0.090
16.628,-0.105,0.105
16.631,-0.090,0.115
16.633,-0.065,0.115
16.636,-0.075,0.125
16.639,-0.070,0.120
16.642,-0.065,0.130
16.644,-0.060,0.145
16.647,-0.050,0.140
16.650,-0.045,0.140
16.653,-0.060,0.130
16.656,-0.080,0.135
16.658,-0.080,0.135
16.661,-0.095,0.135
16.664,-0.085,0.115
16.667,-0.095,0.115
16.669,-0.125,0.085
16.672,-0.150,0.070
16.675,-0.175,0.060
16.678,-0.180,0.050
16.681,-0.200,0.055
16.683,-0.220,0.035
16.686,-0.240,0.005
16.689,-0.270,-0.010
16.692,-0.310,-0.025
16.694,-0.330,-0.035
16.697,-0.335,-0.050
16.700,-0.360,-0.065
16.703,-0.370,-0.080
16.706,-0.385,-0.110
16.708,-0.425,-0.125
16.711,-0.430,-0.120
16.714,-0.415,-0.140
16.717,-0.425,-0.145
16.719,-0.455,-0.155
16.722,-0.465,-0.165
16.725,-0.470,-0.180
16.728,-0.475,-0.175
16.731,-0.470,-0.185
16.733,-0.465,-0.185
16.736,-0.470,-0.195
16.739,-0.485,-0.210
16.742,-0.505,-0.205
