'Elapsed time','MLII','V1'
'seconds','mV','mV'
0.000,-0.125,-0.780
0.003,-0.125,-0.780
0.006,-0.125,-0.780
0.008,-0.125,-0.780
0.011,-0.125,-0.780
0.014,-0.125,-0.780
0.017,-0.125,-0.780
0.019,-0.125,-0.800
0.022,-0.135,-0.810
0.025,-0.125,-0.840
0.028,-0.125,-0.830
0.031,-0.120,-0.820
0.033,-0.095,-0.815
0.036,-0.085,-0.810
0.039,-0.105,-0.800
0.042,-0.170,-0.815
0.044,-0.225,-0.835
0.047,-0.255,-0.840
0.050,-0.280,-0.820
0.053,-0.295,-0.810
0.056,-0.340,-0.825
0.058,-0.395,-0.850
0.061,-0.410,-0.860
0.064,-0.405,-0.845
0.067,-0.380,-0.840
0.069,-0.370,-0.845
0.072,-0.390,-0.850
0.075,-0.410,-0.865
0.078,-0.425,-0.875
0.081,-0.420,-0.855
0.083,-0.405,-0.850
0.086,-0.370,-0.855
0.089,-0.375,-0.855
0.092,-0.390,-0.850
0.094,-0.410,-0.865
0.097,-0.405,-0.865
0.100,-0.395,-0.855
0.103,-0.375,-0.850
0.106,-0.390,-0.845
0.108,-0.395,-0.845
0.111,-0.395,-0.860
0.114,-0.395,-0.850
0.117,-0.385,-0.840
0.119,-0.380,-0.830
0.122,-0.385,-0.840
0.125,-0.400,-0.855
0.128,-0.405,-0.860
0.131,-0.405,-0.855
0.133,-0.405,-0.855
0.136,-0.415,-0.855
0.139,-0.435,-0.855
0.142,-0.425,-0.870
0.144,-0.425,-0.870
0.147,-0.390,-0.855
0.150,-0.375,-0.845
0.153,-0.365,-0.830
0.156,-0.370,-0.815
0.158,-0.365,-0.825
0.161,-0.380,-0.835
0.164,-0.405,-0.855
0.167,-0.405,-0.905
0.169,-0.390,-0.950
0.172,-0.365,-1.045
0.175,-0.330,-1.140
0.178,-0.320,-1.260
0.181,-0.295,-1.435
0.183,-0.270,-1.670
0.186,-0.280,-1.920
0.189,-0.340,-2.095
0.192,-0.440,-2.170
0.194,-0.510,-2.170
0.197,-0.520,-2.125
0.200,-0.510,-2.080
0.203,-0.510,-2.055
0.206,-0.535,-2.030
0.208,-0.540,-1.995
0.211,-0.585,-1.955
0.214,-0.625,-1.930
0.217,-0.640,-1.890
0.219,-0.650,-1.860
0.222,-0.685,-1.835
0.225,-0.730,-1.810
0.228,-0.780,-1.765
0.231,-0.835,-1.710
0.233,-0.885,-1.665
0.236,-0.915,-1.625
0.239,-0.940,-1.600
0.242,-0.975,-1.585
0.244,-0.980,-1.530
0.247,-0.940,-1.445
0.250,-0.915,-1.360
0.253,-0.895,-1.270
0.256,-0.890,-1.195
0.258,-0.830,-1.140
0.261,-0.760,-1.095
0.264,-0.700,-1.025
0.267,-0.625,-0.955
0.269,-0.580,-0.885
0.272,-0.545,-0.840
0.275,-0.505,-0.820
0.278,-0.485,-0.770
0.281,-0.445,-0.725
0.283,-0.395,-0.670
0.286,-0.370,-0.655
0.289,-0.370,-0.640
0.292,-0.360,-0.645
0.294,-0.360,-0.640
0.297,-0.355,-0.615
0.300,-0.325,-0.595
0.303,-0.315,-0.585
0.306,-0.320,-0.580
0.308,-0.345,-0.595
0.311,-0.345,-0.580
0.314,-0.330,-0.580
0.317,-0.300,-0.565
0.319,-0.285,-0.555
0.322,-0.300,-0.555
0.325,-0.290,-0.545
0.328,-0.295,-0.545
0.331,-0.300,-0.540
0.333,-0.290,-0.515
0.336,-0.280,-0.510
0.339,-0.285,-0.515
0.342,-0.320,-0.530
0.344,-0.320,-0.525
0.347,-0.310,-0.510
0.350,-0.295,-0.485
0.353,-0.285,-0.485
0.356,-0.275,-0.475
0.358,-0.285,-0.485
0.361,-0.290,-0.485
0.364,-0.295,-0.475
0.367,-0.285,-0.465
0.369,-0.285,-0.475
0.372,-0.290,-0.475
0.375,-0.285,-0.485
0.378,-0.275,-0.475
0.381,-0.280,-0.465
0.383,-0.270,-0.455
0.386,-0.260,-0.450
0.389,-0.270,-0.450
0.392,-0.270,-0.470
0.394,-0.275,-0.470
0.397,-0.260,-0.455
0.400,-0.240,-0.435
0.403,-0.225,-0.425
0.406,-0.240,-0.430
0.408,-0.265,-0.435
0.411,-0.280,-0.455
0.414,-0.275,-0.435
0.417,-0.240,-0.430
0.419,-0.220,-0.425
0.422,-0.220,-0.430
0.425,-0.225,-0.440
0.428,-0.240,-0.435
0.431,-0.220,-0.430
0.433,-0.200,-0.415
0.436,-0.190,-0.415
0.439,-0.185,-0.415
0.442,-0.220,-0.435
0.444,-0.245,-0.430
0.447,-0.225,-0.420
0.450,-0.195,-0.410
0.453,-0.185,-0.405
0.456,-0.165,-0.405
0.458,-0.180,-0.420
0.461,-0.190,-0.425
0.464,-0.185,-0.415
0.467,-0.180,-0.400
0.469,-0.165,-0.395
0.472,-0.170,-0.395
0.475,-0.155,-0.415
0.478,-0.160,-0.415
0.481,-0.175,-0.425
0.483,-0.175,-0.420
0.486,-0.145,-0.425
0.489,-0.170,-0.435
0.492,-0.160,-0.440
0.494,-0.165,-0.450
0.497,-0.165,-0.455
0.500,-0.160,-0.440
0.503,-0.155,-0.445
0.506,-0.165,-0.435
0.508,-0.170,-0.455
0.511,-0.190,-0.475
0.514,-0.195,-0.475
0.517,-0.195,-0.470
0.519,-0.180,-0.480
0.522,-0.180,-0.495
0.525,-0.200,-0.500
0.528,-0.200,-0.510
0.531,-0.205,-0.490
0.533,-0.200,-0.500
0.536,-0.190,-0.515
0.539,-0.190,-0.525
0.542,-0.200,-0.550
0.544,-0.230,-0.560
0.547,-0.225,-0.570
0.550,-0.210,-0.560
0.553,-0.215,-0.565
0.556,-0.205,-0.565
0.558,-0.215,-0.565
0.561,-0.230,-0.575
0.564,-0.260,-0.570
0.567,-0.255,-0.560
0.569,-0.250,-0.570
0.572,-0.240,-0.580
0.575,-0.245,-0.580
0.578,-0.250,-0.580
0.581,-0.265,-0.580
0.583,-0.270,-0.560
0.586,-0.255,-0.555
0.589,-0.265,-0.565
0.592,-0.265,-0.575
0.594,-0.270,-0.580
0.597,-0.280,-0.565
0.600,-0.260,-0.545
0.603,-0.255,-0.545
0.606,-0.260,-0.545
0.608,-0.270,-0.565
0.611,-0.275,-0.565
0.614,-0.270,-0.560
0.617,-0.255,-0.545
0.619,-0.255,-0.540
0.622,-0.260,-0.540
0.625,-0.270,-0.540
0.628,-0.275,-0.545
0.631,-0.270,-0.535
0.633,-0.265,-0.525
0.636,-0.255,-0.515
0.639,-0.265,-0.510
0.642,-0.280,-0.520
0.644,-0.285,-0.510
0.647,-0.285,-0.500
0.650,-0.280,-0.495
0.653,-0.260,-0.480
0.656,-0.265,-0.495
0.658,-0.270,-0.500
0.661,-0.280,-0.495
0.664,-0.285,-0.480
0.667,-0.285,-0.465
0.669,-0.260,-0.460
0.672,-0.255,-0.450
0.675,-0.270,-0.465
0.678,-0.275,-0.470
0.681,-0.285,-0.450
0.683,-0.270,-0.430
0.686,-0.275,-0.425
0.689,-0.290,-0.440
0.692,-0.305,-0.440
0.694,-0.320,-0.440
0.697,-0.305,-0.435
0.700,-0.290,-0.415
0.703,-0.275,-0.415
0.706,-0.285,-0.420
0.708,-0.310,-0.425
0.711,-0.325,-0.430
0.714,-0.315,-0.410
0.717,-0.315,-0.415
0.719,-0.300,-0.410
0.722,-0.310,-0.415
0.725,-0.335,-0.430
0.728,-0.340,-0.425
0.731,-0.365,-0.410
0.733,-0.355,-0.405
0.736,-0.335,-0.400
0.739,-0.340,-0.410
0.742,-0.340,-0.425
0.744,-0.375,-0.405
0.747,-0.365,-0.410
0.750,-0.350,-0.410
0.753,-0.340,-0.410
0.756,-0.360,-0.405
0.758,-0.360,-0.410
0.761,-0.375,-0.420
0.764,-0.370,-0.415
0.767,-0.355,-0.405
0.769,-0.350,-0.400
0.772,-0.350,-0.400
0.775,-0.360,-0.415
0.778,-0.370,-0.415
0.781,-0.375,-0.420
0.783,-0.375,-0.405
0.786,-0.350,-0.410
0.789,-0.360,-0.400
0.792,-0.360,-0.415
0.794,-0.380,-0.420
0.797,-0.375,-0.410
0.800,-0.355,-0.400
0.803,-0.345,-0.400
0.806,-0.340,-0.400
0.808,-0.345,-0.415
0.811,-0.355,-0.415
0.814,-0.360,-0.405
0.817,-0.345,-0.390
0.819,-0.335,-0.380
0.822,-0.345,-0.395
0.825,-0.340,-0.405
0.828,-0.340,-0.395
0.831,-0.340,-0.395
0.833,-0.330,-0.380
0.836,-0.330,-0.385
0.839,-0.325,-0.400
0.842,-0.330,-0.395
0.844,-0.335,-0.400
0.847,-0.330,-0.375
0.850,-0.310,-0.375
0.853,-0.295,-0.380
0.856,-0.300,-0.385
0.858,-0.320,-0.395
0.861,-0.330,-0.405
0.864,-0.345,-0.390
0.867,-0.325,-0.385
0.869,-0.315,-0.380
0.872,-0.310,-0.380
0.875,-0.315,-0.385
0.878,-0.345,-0.385
0.881,-0.330,-0.385
0.883,-0.310,-0.375
0.886,-0.290,-0.370
0.889,-0.315,-0.380
0.892,-0.335,-0.395
0.894,-0.335,-0.395
0.897,-0.345,-0.370
0.900,-0.325,-0.360
0.903,-0.305,-0.365
0.906,-0.300,-0.365
0.908,-0.305,-0.370
0.911,-0.305,-0.380
0.914,-0.315,-0.360
0.917,-0.300,-0.350
0.919,-0.290,-0.345
0.922,-0.300,-0.350
0.925,-0.320,-0.345
0.928,-0.325,-0.355
0.931,-0.320,-0.350
0.933,-0.305,-0.335
0.936,-0.305,-0.325
0.939,-0.310,-0.320
0.942,-0.310,-0.350
0.944,-0.310,-0.350
0.947,-0.305,-0.355
0.950,-0.300,-0.345
0.953,-0.280,-0.325
0.956,-0.265,-0.330
0.958,-0.275,-0.320
0.961,-0.280,-0.305
0.964,-0.265,-0.315
0.967,-0.250,-0.290
0.969,-0.235,-0.275
0.972,-0.225,-0.260
0.975,-0.225,-0.255
0.978,-0.230,-0.255
0.981,-0.200,-0.240
0.983,-0.180,-0.235
0.986,-0.155,-0.235
0.989,-0.145,-0.250
0.992,-0.150,-0.285
0.994,-0.150,-0.300
0.997,-0.120,-0.285
1.000,-0.105,-0.270
1.003,-0.095,-0.280
1.006,-0.085,-0.290
1.008,-0.090,-0.290
1.011,-0.095,-0.305
1.014,-0.095,-0.300
1.017,-0.075,-0.285
1.019,-0.055,-0.280
1.022,-0.050,-0.270
1.025,-0.065,-0.285
1.028,-0.110,-0.280
1.031,-0.135,-0.275
1.033,-0.165,-0.270
1.036,-0.185,-0.275
1.039,-0.220,-0.285
1.042,-0.275,-0.295
1.044,-0.320,-0.305
1.047,-0.350,-0.300
1.050,-0.370,-0.310
1.053,-0.350,-0.305
1.056,-0.350,-0.315
1.058,-0.355,-0.325
1.061,-0.360,-0.330
1.064,-0.365,-0.320
1.067,-0.360,-0.305
1.069,-0.345,-0.300
1.072,-0.340,-0.305
1.075,-0.355,-0.310
1.078,-0.370,-0.325
1.081,-0.380,-0.320
1.083,-0.390,-0.290
1.086,-0.360,-0.295
1.089,-0.340,-0.290
1.092,-0.320,-0.295
1.094,-0.340,-0.295
1.097,-0.360,-0.290
1.100,-0.355,-0.280
1.103,-0.345,-0.285
1.106,-0.340,-0.295
1.108,-0.355,-0.300
1.111,-0.350,-0.305
1.114,-0.350,-0.285
1.117,-0.345,-0.280
1.119,-0.350,-0.280
1.122,-0.355,-0.295
1.125,-0.370,-0.305
1.128,-0.370,-0.300
1.131,-0.360,-0.295
1.133,-0.345,-0.275
1.136,-0.330,-0.275
1.139,-0.330,-0.265
1.142,-0.350,-0.280
1.144,-0.360,-0.270
1.147,-0.370,-0.270
1.150,-0.375,-0.290
1.153,-0.385,-0.360
1.156,-0.390,-0.435
1.158,-0.375,-0.525
1.161,-0.345,-0.625
1.164,-0.315,-0.750
1.167,-0.275,-0.940
1.169,-0.250,-1.195
1.172,-0.265,-1.460
1.175,-0.340,-1.660
1.178,-0.425,-1.705
1.181,-0.495,-1.665
1.183,-0.510,-1.605
1.186,-0.495,-1.570
1.189,-0.485,-1.530
1.192,-0.495,-1.510
1.194,-0.530,-1.460
1.197,-0.575,-1.410
1.200,-0.600,-1.375
1.203,-0.630,-1.355
1.206,-0.655,-1.330
1.208,-0.680,-1.295
1.211,-0.725,-1.260
1.214,-0.780,-1.200
1.217,-0.845,-1.145
1.219,-0.900,-1.095
1.222,-0.915,-1.065
1.225,-0.935,-1.025
1.228,-0.935,-0.970
1.231,-0.915,-0.875
1.233,-0.880,-0.755
1.236,-0.855,-0.685
1.239,-0.820,-0.615
1.242,-0.755,-0.560
1.244,-0.685,-0.475
1.247,-0.610,-0.410
1.250,-0.550,-0.330
1.253,-0.510,-0.265
1.256,-0.480,-0.215
1.258,-0.440,-0.180
1.261,-0.390,-0.140
1.264,-0.355,-0.080
1.267,-0.315,-0.045
1.269,-0.300,-0.025
1.272,-0.300,-0.005
1.275,-0.300,-0.010
1.278,-0.300,0.005
1.281,-0.290,0.005
1.283,-0.275,0.020
1.286,-0.265,0.040
1.289,-0.275,0.045
1.292,-0.290,0.040
1.294,-0.300,0.045
1.297,-0.275,0.065
1.300,-0.255,0.080
1.303,-0.245,0.085
1.306,-0.260,0.095
1.308,-0.280,0.095
1.311,-0.275,0.085
1.314,-0.260,0.110
1.317,-0.245,0.120
1.319,-0.240,0.120
1.322,-0.250,0.130
1.325,-0.245,0.115
1.328,-0.260,0.120
1.331,-0.265,0.130
1.333,-0.270,0.145
1.336,-0.240,0.160
1.339,-0.230,0.155
1.342,-0.220,0.140
1.344,-0.225,0.145
1.347,-0.220,0.160
1.350,-0.225,0.170
1.353,-0.225,0.175
1.356,-0.225,0.160
1.358,-0.240,0.160
1.361,-0.240,0.165
1.364,-0.240,0.175
1.367,-0.230,0.195
1.369,-0.200,0.195
1.372,-0.195,0.190
1.375,-0.200,0.195
1.378,-0.215,0.195
1.381,-0.230,0.200
1.383,-0.215,0.215
1.386,-0.180,0.220
1.389,-0.180,0.225
1.392,-0.185,0.200
1.394,-0.195,0.205
1.397,-0.200,0.210
1.400,-0.195,0.215
1.403,-0.175,0.230
1.406,-0.155,0.220
1.408,-0.155,0.205
1.411,-0.175,0.220
1.414,-0.170,0.220
1.417,-0.145,0.230
1.419,-0.140,0.230
1.422,-0.150,0.220
1.425,-0.160,0.205
1.428,-0.155,0.215
1.431,-0.140,0.225
1.433,-0.135,0.225
1.436,-0.115,0.225
1.439,-0.120,0.220
1.442,-0.110,0.210
1.444,-0.115,0.210
1.447,-0.110,0.210
1.450,-0.110,0.225
1.453,-0.095,0.215
1.456,-0.110,0.205
1.458,-0.115,0.190
1.461,-0.130,0.190
1.464,-0.120,0.190
1.467,-0.105,0.190
1.469,-0.100,0.195
1.472,-0.110,0.180
1.475,-0.115,0.170
1.478,-0.120,0.160
1.481,-0.105,0.170
1.483,-0.085,0.165
1.486,-0.090,0.155
1.489,-0.100,0.145
1.492,-0.115,0.115
1.494,-0.130,0.115
1.497,-0.125,0.115
1.500,-0.100,0.110
1.503,-0.100,0.100
1.506,-0.115,0.085
1.508,-0.130,0.065
1.511,-0.145,0.060
1.514,-0.155,0.050
1.517,-0.160,0.030
1.519,-0.140,0.035
1.522,-0.140,0.030
1.525,-0.145,0.000
1.528,-0.165,-0.005
1.531,-0.190,0.000
1.533,-0.195,0.000
1.536,-0.170,-0.010
1.539,-0.165,-0.015
1.542,-0.180,-0.025
1.544,-0.190,-0.035
1.547,-0.205,-0.020
1.550,-0.200,-0.010
1.553,-0.170,-0.020
1.556,-0.190,-0.015
1.558,-0.205,-0.015
1.561,-0.210,-0.035
1.564,-0.215,-0.025
1.567,-0.215,-0.010
1.569,-0.205,-0.015
1.572,-0.205,-0.010
1.575,-0.215,-0.025
1.578,-0.225,-0.030
1.581,-0.210,-0.015
1.583,-0.200,0.005
1.586,-0.195,-0.005
1.589,-0.210,-0.020
1.592,-0.225,-0.015
1.594,-0.240,-0.010
1.597,-0.240,-0.005
1.600,-0.240,0.005
1.603,-0.245,-0.005
1.606,-0.245,0.010
1.608,-0.230,0.000
1.611,-0.225,-0.005
1.614,-0.220,0.005
1.617,-0.225,0.025
1.619,-0.235,0.040
1.622,-0.235,0.035
1.625,-0.260,0.015
1.628,-0.265,0.020
1.631,-0.250,0.015
1.633,-0.235,0.035
1.636,-0.225,0.035
1.639,-0.235,0.035
1.642,-0.250,0.035
1.644,-0.285,0.035
1.647,-0.280,0.060
1.650,-0.260,0.055
1.653,-0.250,0.065
1.656,-0.260,0.055
1.658,-0.270,0.050
1.661,-0.275,0.045
1.664,-0.285,0.070
1.667,-0.265,0.080
1.669,-0.260,0.080
1.672,-0.270,0.080
1.675,-0.300,0.060
1.678,-0.305,0.065
1.681,-0.300,0.075
1.683,-0.310,0.075
1.686,-0.290,0.080
1.689,-0.270,0.070
1.692,-0.300,0.075
1.694,-0.320,0.060
1.697,-0.310,0.070
1.700,-0.305,0.080
1.703,-0.285,0.075
1.706,-0.285,0.075
1.708,-0.295,0.070
1.711,-0.315,0.055
1.714,-0.320,0.070
1.717,-0.320,0.080
1.719,-0.315,0.085
1.722,-0.320,0.085
1.725,-0.315,0.065
1.728,-0.340,0.060
1.731,-0.335,0.080
1.733,-0.315,0.075
1.736,-0.310,0.065
1.739,-0.320,0.070
1.742,-0.335,0.055
1.744,-0.340,0.050
1.747,-0.345,0.065
1.750,-0.330,0.060
1.753,-0.315,0.065
1.756,-0.320,0.055
1.758,-0.325,0.045
1.761,-0.340,0.045
1.764,-0.345,0.050
1.767,-0.340,0.075
1.769,-0.330,0.070
1.772,-0.330,0.070
1.775,-0.310,0.055
1.778,-0.315,0.050
1.781,-0.305,0.065
1.783,-0.310,0.065
1.786,-0.310,0.065
1.789,-0.305,0.075
1.792,-0.315,0.060
1.794,-0.320,0.055
1.797,-0.305,0.075
1.800,-0.300,0.080
1.803,-0.300,0.080
1.806,-0.305,0.065
1.808,-0.305,0.060
1.811,-0.320,0.045
1.814,-0.320,0.065
1.817,-0.310,0.075
1.819,-0.310,0.070
1.822,-0.305,0.065
1.825,-0.295,0.055
1.828,-0.295,0.065
1.831,-0.300,0.070
1.833,-0.295,0.090
1.836,-0.300,0.080
1.839,-0.295,0.075
1.842,-0.305,0.070
1.844,-0.305,0.065
1.847,-0.285,0.070
1.850,-0.275,0.085
1.853,-0.290,0.085
1.856,-0.285,0.080
1.858,-0.285,0.070
1.861,-0.315,0.055
1.864,-0.300,0.070
1.867,-0.290,0.090
1.869,-0.285,0.080
1.872,-0.295,0.090
1.875,-0.300,0.075
1.878,-0.290,0.070
1.881,-0.285,0.085
1.883,-0.265,0.095
1.886,-0.270,0.085
1.889,-0.280,0.085
1.892,-0.290,0.090
1.894,-0.295,0.075
1.897,-0.300,0.085
1.900,-0.285,0.090
1.903,-0.275,0.095
1.906,-0.270,0.085
1.908,-0.270,0.085
1.911,-0.285,0.080
1.914,-0.290,0.080
1.917,-0.280,0.090
1.919,-0.275,0.100
1.922,-0.275,0.100
1.925,-0.275,0.090
1.928,-0.275,0.105
1.931,-0.260,0.120
1.933,-0.225,0.130
1.936,-0.205,0.140
1.939,-0.200,0.150
1.942,-0.205,0.150
1.944,-0.215,0.160
1.947,-0.205,0.185
1.950,-0.200,0.190
1.953,-0.175,0.190
1.956,-0.150,0.200
1.958,-0.120,0.180
1.961,-0.115,0.170
1.964,-0.090,0.150
1.967,-0.085,0.155
1.969,-0.065,0.155
1.972,-0.065,0.145
1.975,-0.085,0.130
1.978,-0.080,0.120
1.981,-0.040,0.130
1.983,0.005,0.135
1.986,0.010,0.140
1.989,0.005,0.145
1.992,-0.010,0.155
1.994,-0.040,0.150
1.997,-0.080,0.160
2.000,-0.120,0.150
2.003,-0.135,0.140
2.006,-0.175,0.130
2.008,-0.215,0.120
2.011,-0.265,0.110
2.014,-0.305,0.105
2.017,-0.315,0.110
2.019,-0.315,0.095
2.022,-0.315,0.100
2.025,-0.305,0.095
2.028,-0.320,0.085
2.031,-0.315,0.100
2.033,-0.305,0.110
2.036,-0.290,0.110
2.039,-0.305,0.110
2.042,-0.315,0.105
2.044,-0.325,0.100
2.047,-0.315,0.105
2.050,-0.315,0.115
2.053,-0.305,0.110
2.056,-0.310,0.110
2.058,-0.310,0.090
2.061,-0.315,0.090
2.064,-0.320,0.100
2.067,-0.315,0.105
2.069,-0.305,0.110
2.072,-0.285,0.100
2.075,-0.285,0.100
2.078,-0.310,0.090
2.081,-0.320,0.110
2.083,-0.320,0.115
2.086,-0.310,0.110
2.089,-0.345,0.105
2.092,-0.340,0.085
2.094,-0.350,0.085
2.097,-0.345,0.100
2.100,-0.345,0.115
2.103,-0.320,0.110
2.106,-0.315,0.100
2.108,-0.315,0.105
2.111,-0.345,0.110
2.114,-0.340,0.120
2.117,-0.320,0.095
2.119,-0.315,0.020
2.122,-0.325,-0.060
2.125,-0.350,-0.175
2.128,-0.340,-0.295
2.131,-0.320,-0.425
2.133,-0.285,-0.605
2.136,-0.270,-0.855
2.139,-0.265,-1.140
2.142,-0.280,-1.355
2.144,-0.350,-1.440
2.147,-0.425,-1.405
2.150,-0.465,-1.340
2.153,-0.470,-1.290
2.156,-0.490,-1.240
2.158,-0.510,-1.200
2.161,-0.530,-1.155
2.164,-0.565,-1.105
2.167,-0.605,-1.075
2.169,-0.625,-1.055
2.172,-0.655,-1.020
2.175,-0.680,-0.990
2.178,-0.705,-0.940
2.181,-0.760,-0.895
2.183,-0.820,-0.840
2.186,-0.860,-0.770
2.189,-0.900,-0.720
2.192,-0.915,-0.685
2.194,-0.925,-0.620
2.197,-0.895,-0.535
2.200,-0.840,-0.430
2.203,-0.815,-0.350
2.206,-0.790,-0.275
2.208,-0.745,-0.210
2.211,-0.670,-0.155
2.214,-0.580,-0.065
2.217,-0.515,0.000
2.219,-0.475,0.055
2.222,-0.460,0.110
2.225,-0.425,0.145
2.228,-0.395,0.195
2.231,-0.345,0.240
2.233,-0.315,0.280
2.236,-0.295,0.290
2.239,-0.290,0.305
2.242,-0.280,0.310
2.244,-0.280,0.315
2.247,-0.285,0.325
2.250,-0.270,0.345
2.253,-0.260,0.340
2.256,-0.255,0.355
2.258,-0.265,0.350
2.261,-0.265,0.345
2.264,-0.265,0.360
2.267,-0.265,0.385
2.269,-0.265,0.380
2.272,-0.260,0.395
2.275,-0.270,0.385
2.278,-0.285,0.395
2.281,-0.260,0.405
2.283,-0.215,0.415
2.286,-0.190,0.405
2.289,-0.210,0.400
2.292,-0.230,0.410
2.294,-0.255,0.400
2.297,-0.255,0.415
2.300,-0.230,0.410
2.303,-0.235,0.430
2.306,-0.235,0.420
2.308,-0.245,0.420
2.311,-0.230,0.410
2.314,-0.215,0.430
2.317,-0.220,0.435
2.319,-0.220,0.440
2.322,-0.220,0.435
2.325,-0.225,0.435
2.328,-0.230,0.440
2.331,-0.225,0.440
2.333,-0.205,0.455
2.336,-0.190,0.455
2.339,-0.200,0.460
2.342,-0.215,0.435
2.344,-0.230,0.445
2.347,-0.220,0.445
2.350,-0.185,0.455
2.353,-0.170,0.460
2.356,-0.160,0.460
2.358,-0.180,0.440
2.361,-0.200,0.430
2.364,-0.205,0.445
2.367,-0.175,0.460
2.369,-0.135,0.450
2.372,-0.110,0.445
2.375,-0.145,0.445
2.378,-0.175,0.435
2.381,-0.180,0.440
2.383,-0.155,0.460
2.386,-0.135,0.465
2.389,-0.125,0.445
2.392,-0.145,0.440
2.394,-0.150,0.440
2.397,-0.140,0.450
2.400,-0.145,0.450
2.403,-0.120,0.440
2.406,-0.095,0.435
2.408,-0.100,0.420
2.411,-0.120,0.410
2.414,-0.105,0.415
2.417,-0.110,0.415
2.419,-0.110,0.410
2.422,-0.115,0.395
2.425,-0.115,0.370
2.428,-0.125,0.370
2.431,-0.105,0.395
2.433,-0.095,0.395
2.436,-0.090,0.395
2.439,-0.085,0.380
2.442,-0.100,0.370
2.444,-0.130,0.350
2.447,-0.150,0.360
2.450,-0.140,0.345
2.453,-0.110,0.345
2.456,-0.070,0.335
2.458,-0.065,0.315
2.461,-0.105,0.315
2.464,-0.135,0.300
2.467,-0.140,0.315
2.469,-0.110,0.300
2.472,-0.090,0.285
2.475,-0.105,0.260
2.478,-0.125,0.255
2.481,-0.130,0.250
2.483,-0.145,0.250
2.486,-0.130,0.230
2.489,-0.150,0.235
2.492,-0.180,0.210
2.494,-0.185,0.220
2.497,-0.190,0.215
2.500,-0.185,0.230
2.503,-0.170,0.215
2.506,-0.175,0.210
2.508,-0.200,0.190
2.511,-0.210,0.185
2.514,-0.215,0.200
2.517,-0.210,0.205
2.519,-0.210,0.210
2.522,-0.225,0.205
2.525,-0.235,0.185
2.528,-0.245,0.185
2.531,-0.250,0.195
2.533,-0.230,0.210
2.536,-0.220,0.195
2.539,-0.225,0.200
2.542,-0.235,0.190
2.544,-0.265,0.195
2.547,-0.255,0.200
2.550,-0.250,0.215
2.553,-0.240,0.215
2.556,-0.240,0.225
2.558,-0.255,0.205
2.561,-0.270,0.205
2.564,-0.275,0.210
2.567,-0.265,0.225
2.569,-0.250,0.220
2.572,-0.265,0.225
2.575,-0.270,0.210
2.578,-0.300,0.205
2.581,-0.275,0.215
2.583,-0.265,0.230
2.586,-0.265,0.230
2.589,-0.260,0.220
2.592,-0.270,0.215
2.594,-0.295,0.205
2.597,-0.295,0.225
2.600,-0.285,0.240
2.603,-0.275,0.235
2.606,-0.275,0.230
2.608,-0.295,0.225
2.611,-0.310,0.230
2.614,-0.325,0.235
2.617,-0.310,0.245
2.619,-0.290,0.245
2.622,-0.290,0.240
2.625,-0.295,0.235
2.628,-0.305,0.235
2.631,-0.315,0.230
2.633,-0.310,0.250
2.636,-0.305,0.245
2.639,-0.290,0.240
2.642,-0.310,0.230
2.644,-0.335,0.235
2.647,-0.345,0.235
2.650,-0.345,0.245
2.653,-0.335,0.235
2.656,-0.330,0.240
2.658,-0.330,0.225
2.661,-0.340,0.225
2.664,-0.350,0.235
2.667,-0.345,0.240
2.669,-0.330,0.240
2.672,-0.330,0.235
2.675,-0.345,0.225
2.678,-0.375,0.220
2.681,-0.360,0.215
2.683,-0.350,0.245
2.686,-0.340,0.235
2.689,-0.345,0.220
2.692,-0.370,0.210
2.694,-0.370,0.195
2.697,-0.360,0.205
2.700,-0.365,0.220
2.703,-0.345,0.210
2.706,-0.355,0.210
2.708,-0.370,0.190
2.711,-0.370,0.200
2.714,-0.375,0.195
2.717,-0.355,0.210
2.719,-0.345,0.215
2.722,-0.340,0.205
2.725,-0.350,0.200
2.728,-0.365,0.205
2.731,-0.370,0.210
2.733,-0.365,0.210
2.736,-0.355,0.205
2.739,-0.365,0.195
2.742,-0.375,0.210
2.744,-0.370,0.200
2.747,-0.365,0.205
2.750,-0.340,0.215
2.753,-0.315,0.205
2.756,-0.335,0.210
2.758,-0.350,0.200
2.761,-0.365,0.200
2.764,-0.350,0.200
2.767,-0.350,0.210
2.769,-0.335,0.220
2.772,-0.340,0.200
2.775,-0.355,0.190
2.778,-0.350,0.205
2.781,-0.335,0.215
2.783,-0.340,0.200
2.786,-0.330,0.205
2.789,-0.350,0.195
2.792,-0.355,0.200
2.794,-0.350,0.210
2.797,-0.325,0.220
2.800,-0.315,0.215
2.803,-0.325,0.200
2.806,-0.340,0.195
2.808,-0.365,0.180
2.811,-0.360,0.185
2.814,-0.340,0.205
2.817,-0.325,0.205
2.819,-0.320,0.215
2.822,-0.330,0.190
2.825,-0.340,0.195
2.828,-0.355,0.195
2.831,-0.330,0.200
2.833,-0.320,0.205
2.836,-0.325,0.200
2.839,-0.335,0.190
2.842,-0.325,0.200
2.844,-0.330,0.200
2.847,-0.325,0.215
2.850,-0.320,0.205
2.853,-0.330,0.210
2.856,-0.340,0.200
2.858,-0.345,0.190
2.861,-0.325,0.195
2.864,-0.310,0.200
2.867,-0.310,0.200
2.869,-0.310,0.195
2.872,-0.310,0.200
2.875,-0.325,0.190
2.878,-0.320,0.200
2.881,-0.305,0.205
2.883,-0.300,0.210
2.886,-0.305,0.205
2.889,-0.335,0.195
2.892,-0.335,0.190
2.894,-0.335,0.200
2.897,-0.305,0.210
2.900,-0.290,0.215
2.903,-0.300,0.230
2.906,-0.315,0.200
2.908,-0.335,0.205
2.911,-0.320,0.205
2.914,-0.305,0.230
2.917,-0.290,0.230
2.919,-0.295,0.225
2.922,-0.300,0.205
2.925,-0.320,0.210
2.928,-0.305,0.215
2.931,-0.285,0.250
2.933,-0.280,0.240
2.936,-0.275,0.245
2.939,-0.265,0.245
2.942,-0.250,0.240
2.944,-0.230,0.280
2.947,-0.220,0.300
2.950,-0.210,0.295
2.953,-0.195,0.300
2.956,-0.190,0.295
2.958,-0.180,0.300
2.961,-0.165,0.300
2.964,-0.135,0.300
2.967,-0.110,0.295
2.969,-0.090,0.275
2.972,-0.095,0.265
2.975,-0.100,0.265
2.978,-0.110,0.250
2.981,-0.115,0.250
2.983,-0.090,0.255
2.986,-0.075,0.245
2.989,-0.075,0.240
2.992,-0.070,0.230
2.994,-0.055,0.250
2.997,-0.040,0.260
3.000,-0.065,0.240
3.003,-0.115,0.245
3.006,-0.165,0.235
3.008,-0.225,0.220
3.011,-0.245,0.240
3.014,-0.285,0.245
3.017,-0.305,0.230
3.019,-0.350,0.220
3.022,-0.365,0.215
3.025,-0.370,0.190
3.028,-0.355,0.200
3.031,-0.350,0.210
3.033,-0.345,0.200
3.036,-0.345,0.190
3.039,-0.360,0.190
3.042,-0.360,0.190
3.044,-0.350,0.195
3.047,-0.340,0.210
3.050,-0.335,0.210
3.053,-0.355,0.195
3.056,-0.365,0.180
3.058,-0.380,0.180
3.061,-0.370,0.185
3.064,-0.355,0.210
3.067,-0.330,0.205
3.069,-0.340,0.200
3.072,-0.350,0.175
3.075,-0.355,0.185
3.078,-0.355,0.190
3.081,-0.350,0.210
3.083,-0.340,0.200
3.086,-0.345,0.205
3.089,-0.355,0.190
3.092,-0.360,0.190
3.094,-0.350,0.200
3.097,-0.350,0.195
3.100,-0.330,0.195
3.103,-0.335,0.195
3.106,-0.355,0.185
3.108,-0.365,0.175
3.111,-0.355,0.190
3.114,-0.355,0.195
3.117,-0.350,0.195
3.119,-0.345,0.195
3.122,-0.340,0.200
3.125,-0.340,0.200
3.128,-0.350,0.185
3.131,-0.360,0.160
3.133,-0.370,0.095
3.136,-0.380,0.025
3.139,-0.345,-0.070
3.142,-0.325,-0.180
3.144,-0.280,-0.310
3.147,-0.240,-0.515
3.150,-0.220,-0.760
3.153,-0.245,-1.025
3.156,-0.320,-1.200
3.158,-0.440,-1.255
3.161,-0.515,-1.225
3.164,-0.515,-1.170
3.167,-0.510,-1.135
3.169,-0.500,-1.105
3.172,-0.505,-1.080
3.175,-0.555,-1.040
3.178,-0.600,-0.995
3.181,-0.635,-0.950
3.183,-0.650,-0.945
3.186,-0.675,-0.905
3.189,-0.705,-0.865
3.192,-0.745,-0.830
3.194,-0.785,-0.775
3.197,-0.845,-0.720
3.200,-0.870,-0.670
3.203,-0.900,-0.635
3.206,-0.935,-0.605
3.208,-0.945,-0.545
3.211,-0.910,-0.440
3.214,-0.870,-0.345
3.217,-0.845,-0.260
3.219,-0.820,-0.200
3.222,-0.765,-0.130
3.225,-0.690,-0.055
3.228,-0.610,0.020
3.231,-0.550,0.095
3.233,-0.515,0.160
3.236,-0.475,0.195
3.239,-0.440,0.230
3.242,-0.385,0.270
3.244,-0.370,0.320
3.247,-0.330,0.350
3.250,-0.305,0.390
3.253,-0.280,0.400
3.256,-0.280,0.405
3.258,-0.295,0.405
3.261,-0.305,0.420
3.264,-0.290,0.435
3.267,-0.280,0.455
3.269,-0.290,0.440
3.272,-0.290,0.455
3.275,-0.290,0.445
3.278,-0.285,0.465
3.281,-0.275,0.490
3.283,-0.270,0.490
3.286,-0.285,0.475
3.289,-0.280,0.480
3.292,-0.300,0.475
3.294,-0.300,0.495
3.297,-0.270,0.510
3.300,-0.255,0.520
3.303,-0.260,0.525
3.306,-0.260,0.505
3.308,-0.280,0.525
3.311,-0.270,0.530
3.314,-0.270,0.545
3.317,-0.255,0.540
3.319,-0.270,0.530
3.322,-0.260,0.530
3.325,-0.280,0.525
3.328,-0.275,0.535
3.331,-0.270,0.535
3.333,-0.250,0.540
3.336,-0.240,0.545
3.339,-0.235,0.540
3.342,-0.265,0.540
3.344,-0.265,0.545
3.347,-0.245,0.565
3.350,-0.245,0.565
3.353,-0.240,0.550
3.356,-0.240,0.560
3.358,-0.245,0.550
3.361,-0.235,0.560
3.364,-0.205,0.575
3.367,-0.185,0.575
3.369,-0.200,0.580
3.372,-0.205,0.570
3.375,-0.220,0.575
3.378,-0.215,0.585
3.381,-0.205,0.585
3.383,-0.200,0.585
3.386,-0.200,0.585
3.389,-0.195,0.570
3.392,-0.195,0.565
3.394,-0.185,0.565
3.397,-0.180,0.580
3.400,-0.180,0.575
3.403,-0.170,0.570
3.406,-0.170,0.555
3.408,-0.190,0.550
3.411,-0.195,0.555
3.414,-0.160,0.570
3.417,-0.150,0.565
3.419,-0.135,0.560
3.422,-0.160,0.545
3.425,-0.170,0.550
3.428,-0.160,0.530
3.431,-0.150,0.545
3.433,-0.130,0.545
3.436,-0.130,0.525
3.439,-0.150,0.520
3.442,-0.155,0.505
3.444,-0.160,0.500
3.447,-0.150,0.505
3.450,-0.160,0.505
3.453,-0.160,0.485
3.456,-0.150,0.465
3.458,-0.145,0.445
3.461,-0.150,0.455
3.464,-0.150,0.455
3.467,-0.140,0.440
3.469,-0.155,0.425
3.472,-0.150,0.410
3.475,-0.175,0.405
3.478,-0.180,0.390
3.481,-0.170,0.380
3.483,-0.175,0.370
3.486,-0.180,0.350
3.489,-0.200,0.325
3.492,-0.215,0.315
3.494,-0.215,0.320
3.497,-0.210,0.315
3.500,-0.200,0.310
3.503,-0.210,0.290
3.506,-0.215,0.280
3.508,-0.235,0.265
3.511,-0.245,0.270
3.514,-0.240,0.270
3.517,-0.250,0.280
3.519,-0.255,0.275
3.522,-0.250,0.255
3.525,-0.265,0.245
3.528,-0.260,0.265
3.531,-0.250,0.260
3.533,-0.255,0.260
3.536,-0.240,0.260
3.539,-0.240,0.245
3.542,-0.255,0.240
3.544,-0.265,0.245
3.547,-0.270,0.265
3.550,-0.255,0.255
3.553,-0.255,0.255
3.556,-0.250,0.260
3.558,-0.250,0.250
3.561,-0.255,0.265
3.564,-0.260,0.270
3.567,-0.245,0.270
3.569,-0.250,0.280
3.572,-0.250,0.270
3.575,-0.275,0.265
3.578,-0.265,0.280
3.581,-0.265,0.295
3.583,-0.250,0.305
3.586,-0.255,0.300
3.589,-0.270,0.295
3.592,-0.275,0.285
3.594,-0.270,0.300
3.597,-0.280,0.315
3.600,-0.265,0.300
3.603,-0.265,0.300
3.606,-0.280,0.285
3.608,-0.285,0.295
3.611,-0.290,0.305
3.614,-0.270,0.320
3.617,-0.260,0.315
3.619,-0.275,0.325
3.622,-0.300,0.325
3.625,-0.295,0.315
3.628,-0.275,0.330
3.631,-0.275,0.345
3.633,-0.275,0.345
3.636,-0.275,0.350
3.639,-0.290,0.335
3.642,-0.315,0.320
3.644,-0.305,0.340
3.647,-0.315,0.345
3.650,-0.290,0.340
3.653,-0.285,0.350
3.656,-0.305,0.335
3.658,-0.310,0.315
3.661,-0.320,0.335
3.664,-0.305,0.325
3.667,-0.315,0.330
3.669,-0.310,0.320
3.672,-0.345,0.315
3.675,-0.355,0.315
3.678,-0.350,0.330
3.681,-0.335,0.340
3.683,-0.315,0.350
3.686,-0.315,0.340
3.689,-0.350,0.335
3.692,-0.350,0.325
3.694,-0.335,0.330
3.697,-0.335,0.335
3.700,-0.325,0.330
3.703,-0.325,0.315
3.706,-0.340,0.310
3.708,-0.350,0.315
3.711,-0.355,0.315
3.714,-0.350,0.320
3.717,-0.335,0.310
3.719,-0.335,0.310
3.722,-0.340,0.300
3.725,-0.375,0.295
3.728,-0.370,0.295
3.731,-0.345,0.320
3.733,-0.310,0.320
3.736,-0.305,0.320
3.739,-0.320,0.305
3.742,-0.335,0.300
3.744,-0.330,0.315
3.747,-0.315,0.315
3.750,-0.300,0.315
3.753,-0.290,0.310
3.756,-0.305,0.305
3.758,-0.320,0.305
3.761,-0.310,0.305
3.764,-0.320,0.320
3.767,-0.310,0.325
3.769,-0.315,0.305
3.772,-0.330,0.300
3.775,-0.320,0.290
3.778,-0.320,0.310
3.781,-0.310,0.320
3.783,-0.290,0.320
3.786,-0.305,0.315
3.789,-0.300,0.310
3.792,-0.315,0.305
3.794,-0.315,0.300
3.797,-0.320,0.315
3.800,-0.310,0.305
3.803,-0.305,0.300
3.806,-0.305,0.310
3.808,-0.310,0.290
3.811,-0.295,0.300
3.814,-0.280,0.310
3.817,-0.280,0.320
3.819,-0.290,0.295
3.822,-0.315,0.280
3.825,-0.340,0.280
3.828,-0.340,0.300
3.831,-0.315,0.315
3.833,-0.270,0.310
3.836,-0.260,0.300
3.839,-0.270,0.300
3.842,-0.290,0.300
3.844,-0.285,0.310
3.847,-0.290,0.315
3.850,-0.280,0.315
3.853,-0.280,0.310
3.856,-0.300,0.290
3.858,-0.300,0.295
3.861,-0.310,0.295
3.864,-0.290,0.305
3.867,-0.280,0.305
3.869,-0.285,0.285
3.872,-0.290,0.295
3.875,-0.305,0.290
3.878,-0.310,0.300
3.881,-0.280,0.315
3.883,-0.260,0.305
3.886,-0.255,0.315
3.889,-0.240,0.320
3.892,-0.245,0.330
3.894,-0.235,0.350
3.897,-0.220,0.370
3.900,-0.215,0.375
3.903,-0.210,0.395
3.906,-0.200,0.380
3.908,-0.185,0.385
3.911,-0.170,0.400
3.914,-0.140,0.400
3.917,-0.125,0.380
3.919,-0.115,0.355
3.922,-0.105,0.325
3.925,-0.100,0.325
3.928,-0.080,0.330
3.931,-0.065,0.340
3.933,-0.055,0.335
3.936,-0.060,0.330
3.939,-0.060,0.310
3.942,-0.060,0.320
3.944,-0.065,0.330
3.947,-0.060,0.355
3.950,-0.055,0.360
3.953,-0.070,0.340
3.956,-0.090,0.330
3.958,-0.145,0.315
3.961,-0.190,0.320
3.964,-0.225,0.320
3.967,-0.270,0.315
3.969,-0.310,0.295
3.972,-0.345,0.265
3.975,-0.360,0.265
3.978,-0.360,0.270
3.981,-0.345,0.285
3.983,-0.320,0.285
3.986,-0.315,0.275
3.989,-0.325,0.255
3.992,-0.340,0.270
3.994,-0.345,0.265
3.997,-0.345,0.285
4.000,-0.340,0.275
4.003,-0.345,0.280
4.006,-0.370,0.265
4.008,-0.365,0.260
4.011,-0.345,0.265
4.014,-0.335,0.275
4.017,-0.315,0.280
4.019,-0.325,0.270
4.022,-0.345,0.255
4.025,-0.370,0.265
4.028,-0.360,0.270
4.031,-0.335,0.270
4.033,-0.340,0.270
4.036,-0.340,0.265
4.039,-0.335,0.260
4.042,-0.360,0.255
4.044,-0.360,0.265
4.047,-0.350,0.275
4.050,-0.330,0.265
4.053,-0.335,0.275
4.056,-0.325,0.260
4.058,-0.335,0.260
4.061,-0.340,0.280
4.064,-0.345,0.290
4.067,-0.325,0.290
4.069,-0.325,0.285
4.072,-0.340,0.230
4.075,-0.375,0.160
4.078,-0.390,0.095
4.081,-0.370,0.000
4.083,-0.330,-0.125
4.086,-0.310,-0.305
4.089,-0.300,-0.560
4.092,-0.290,-0.845
4.094,-0.295,-1.110
4.097,-0.345,-1.245
4.100,-0.445,-1.255
4.103,-0.495,-1.205
4.106,-0.525,-1.170
4.108,-0.530,-1.130
4.111,-0.515,-1.080
4.114,-0.525,-1.025
4.117,-0.540,-0.965
4.119,-0.595,-0.945
4.122,-0.640,-0.925
4.125,-0.690,-0.925
4.128,-0.710,-0.870
4.131,-0.730,-0.805
4.133,-0.760,-0.755
4.136,-0.825,-0.715
4.139,-0.875,-0.660
4.142,-0.915,-0.600
4.144,-0.920,-0.560
4.147,-0.915,-0.480
4.150,-0.880,-0.400
4.153,-0.865,-0.300
4.156,-0.850,-0.210
4.158,-0.835,-0.125
4.161,-0.770,-0.030
4.164,-0.665,0.070
4.167,-0.585,0.145
4.169,-0.530,0.215
4.172,-0.485,0.265
4.175,-0.455,0.325
4.178,-0.405,0.410
4.181,-0.355,0.450
4.183,-0.325,0.490
4.186,-0.300,0.485
4.189,-0.295,0.500
4.192,-0.300,0.520
4.194,-0.300,0.530
4.197,-0.290,0.560
4.200,-0.275,0.565
4.203,-0.280,0.580
4.206,-0.285,0.570
4.208,-0.285,0.585
4.211,-0.265,0.610
4.214,-0.245,0.625
4.217,-0.245,0.640
4.219,-0.250,0.630
4.222,-0.280,0.630
4.225,-0.300,0.640
4.228,-0.275,0.655
4.231,-0.230,0.670
4.233,-0.215,0.660
4.236,-0.210,0.675
4.239,-0.220,0.655
4.242,-0.240,0.650
4.244,-0.250,0.670
4.247,-0.255,0.680
4.250,-0.245,0.675
4.253,-0.240,0.675
4.256,-0.250,0.675
4.258,-0.245,0.670
4.261,-0.245,0.695
4.264,-0.235,0.705
4.267,-0.230,0.700
4.269,-0.220,0.690
4.272,-0.225,0.690
4.275,-0.230,0.700
4.278,-0.205,0.715
4.281,-0.200,0.720
4.283,-0.190,0.705
4.286,-0.185,0.710
4.289,-0.180,0.705
4.292,-0.195,0.715
4.294,-0.210,0.715
4.297,-0.215,0.730
4.300,-0.190,0.730
4.303,-0.180,0.715
4.306,-0.175,0.720
4.308,-0.185,0.715
4.311,-0.195,0.730
4.314,-0.180,0.740
4.317,-0.160,0.735
4.319,-0.145,0.740
4.322,-0.160,0.740
4.325,-0.165,0.720
4.328,-0.145,0.715
4.331,-0.145,0.745
4.333,-0.130,0.735
4.336,-0.160,0.735
4.339,-0.170,0.715
4.342,-0.185,0.730
4.344,-0.160,0.720
4.347,-0.115,0.725
4.350,-0.100,0.715
4.353,-0.105,0.705
4.356,-0.125,0.690
4.358,-0.135,0.690
4.361,-0.105,0.695
4.364,-0.070,0.705
4.367,-0.045,0.705
4.369,-0.045,0.680
4.372,-0.100,0.655
4.375,-0.115,0.655
4.378,-0.105,0.660
4.381,-0.095,0.655
4.383,-0.070,0.655
4.386,-0.075,0.630
4.389,-0.090,0.600
4.392,-0.115,0.590
4.394,-0.130,0.580
4.397,-0.125,0.570
4.400,-0.095,0.555
4.403,-0.105,0.545
4.406,-0.145,0.515
4.408,-0.125,0.505
4.411,-0.100,0.510
4.414,-0.100,0.505
4.417,-0.120,0.505
4.419,-0.155,0.470
4.422,-0.165,0.440
4.425,-0.175,0.450
4.428,-0.185,0.460
4.431,-0.170,0.475
4.433,-0.170,0.465
4.436,-0.195,0.445
4.439,-0.235,0.425
4.442,-0.240,0.425
4.444,-0.200,0.435
4.447,-0.165,0.450
4.450,-0.150,0.440
4.453,-0.180,0.440
4.456,-0.205,0.435
4.458,-0.220,0.435
4.461,-0.185,0.445
4.464,-0.170,0.460
4.467,-0.160,0.450
4.469,-0.160,0.440
4.472,-0.190,0.435
4.475,-0.225,0.430
4.478,-0.220,0.455
4.481,-0.200,0.475
4.483,-0.195,0.470
4.486,-0.215,0.470
4.489,-0.190,0.465
4.492,-0.200,0.455
4.494,-0.210,0.460
4.497,-0.215,0.470
4.500,-0.210,0.475
4.503,-0.215,0.480
4.506,-0.220,0.455
4.508,-0.205,0.465
4.511,-0.195,0.480
4.514,-0.175,0.490
4.517,-0.150,0.485
4.519,-0.170,0.490
4.522,-0.200,0.475
4.525,-0.230,0.475
4.528,-0.235,0.500
4.531,-0.225,0.510
4.533,-0.210,0.510
4.536,-0.210,0.505
4.539,-0.215,0.485
4.542,-0.230,0.490
4.544,-0.225,0.510
4.547,-0.220,0.515
4.550,-0.225,0.510
4.553,-0.235,0.505
4.556,-0.240,0.500
4.558,-0.245,0.490
4.561,-0.240,0.495
4.564,-0.245,0.525
4.567,-0.250,0.515
4.569,-0.260,0.505
4.572,-0.275,0.505
4.575,-0.290,0.510
4.578,-0.270,0.510
4.581,-0.230,0.515
4.583,-0.250,0.510
4.586,-0.280,0.505
4.589,-0.305,0.490
4.592,-0.295,0.490
4.594,-0.310,0.480
4.597,-0.330,0.495
4.600,-0.350,0.490
4.603,-0.340,0.490
4.606,-0.345,0.480
4.608,-0.375,0.470
4.611,-0.410,0.475
4.614,-0.345,0.490
4.617,-0.260,0.490
4.619,-0.250,0.470
4.622,-0.300,0.465
4.625,-0.300,0.475
4.628,-0.275,0.490
4.631,-0.245,0.490
4.633,-0.230,0.475
4.636,-0.245,0.470
4.639,-0.280,0.450
4.642,-0.285,0.440
4.644,-0.235,0.440
4.647,-0.195,0.465
4.650,-0.200,0.460
4.653,-0.225,0.460
4.656,-0.240,0.450
4.658,-0.240,0.430
4.661,-0.230,0.430
4.664,-0.225,0.455
4.667,-0.230,0.445
4.669,-0.235,0.445
4.672,-0.245,0.430
4.675,-0.265,0.425
4.678,-0.250,0.440
4.681,-0.220,0.450
4.683,-0.225,0.450
4.686,-0.220,0.440
4.689,-0.240,0.435
4.692,-0.255,0.420
4.694,-0.260,0.435
4.697,-0.235,0.440
4.700,-0.225,0.435
4.703,-0.230,0.430
4.706,-0.245,0.435
4.708,-0.245,0.425
4.711,-0.245,0.430
4.714,-0.230,0.445
4.717,-0.230,0.425
4.719,-0.225,0.430
4.722,-0.245,0.425
4.725,-0.255,0.425
4.728,-0.250,0.440
4.731,-0.235,0.455
4.733,-0.210,0.455
4.736,-0.220,0.450
4.739,-0.255,0.440
4.742,-0.265,0.430
4.744,-0.265,0.425
4.747,-0.260,0.435
4.750,-0.230,0.440
4.753,-0.225,0.440
4.756,-0.225,0.430
4.758,-0.270,0.425
4.761,-0.255,0.425
4.764,-0.265,0.445
4.767,-0.260,0.425
4.769,-0.270,0.435
4.772,-0.250,0.420
4.775,-0.235,0.430
4.778,-0.225,0.440
4.781,-0.250,0.445
4.783,-0.285,0.440
4.786,-0.300,0.440
4.789,-0.270,0.435
4.792,-0.205,0.440
4.794,-0.120,0.445
4.797,-0.105,0.465
4.800,-0.145,0.475
4.803,-0.145,0.480
4.806,-0.140,0.475
4.808,-0.145,0.490
4.811,-0.150,0.505
4.814,-0.160,0.520
4.817,-0.145,0.535
4.819,-0.110,0.535
4.822,-0.090,0.525
4.825,-0.095,0.520
4.828,-0.080,0.545
4.831,-0.065,0.530
4.833,-0.045,0.510
4.836,-0.035,0.500
4.839,-0.045,0.490
4.842,-0.035,0.485
4.844,-0.015,0.490
4.847,-0.005,0.490
4.850,0.000,0.485
4.853,-0.015,0.480
4.856,0.000,0.470
4.858,0.005,0.455
4.861,0.010,0.485
4.864,0.010,0.500
4.867,0.005,0.475
4.869,-0.030,0.470
4.872,-0.080,0.455
4.875,-0.130,0.450
4.878,-0.165,0.455
4.881,-0.205,0.450
4.883,-0.250,0.440
4.886,-0.280,0.435
4.889,-0.285,0.415
4.892,-0.275,0.420
4.894,-0.240,0.415
4.897,-0.220,0.440
4.900,-0.245,0.435
4.903,-0.280,0.415
4.906,-0.315,0.405
4.908,-0.330,0.400
4.911,-0.300,0.405
4.914,-0.265,0.415
4.917,-0.250,0.415
4.919,-0.265,0.410
4.922,-0.310,0.395
4.925,-0.365,0.395
4.928,-0.390,0.405
4.931,-0.390,0.420
4.933,-0.360,0.420
4.936,-0.300,0.420
4.939,-0.255,0.410
4.942,-0.270,0.415
4.944,-0.295,0.425
4.947,-0.285,0.445
4.950,-0.305,0.425
4.953,-0.325,0.410
4.956,-0.280,0.405
4.958,-0.230,0.405
4.961,-0.205,0.425
4.964,-0.230,0.415
4.967,-0.255,0.415
4.969,-0.255,0.410
4.972,-0.270,0.390
4.975,-0.300,0.400
4.978,-0.310,0.395
4.981,-0.280,0.410
4.983,-0.265,0.430
4.986,-0.260,0.420
4.989,-0.300,0.355
4.992,-0.385,0.255
4.994,-0.430,0.110
4.997,-0.400,-0.060
5.000,-0.360,-0.300
5.003,-0.380,-0.555
5.006,-0.400,-0.875
5.008,-0.425,-1.165
5.011,-0.465,-1.385
5.014,-0.510,-1.460
5.017,-0.560,-1.430
5.019,-0.590,-1.360
5.022,-0.575,-1.315
5.025,-0.590,-1.265
5.028,-0.610,-1.200
5.031,-0.630,-1.130
5.033,-0.675,-1.100
5.036,-0.705,-1.075
5.039,-0.730,-1.060
5.042,-0.735,-0.990
5.044,-0.750,-0.920
5.047,-0.780,-0.820
5.050,-0.840,-0.755
5.053,-0.905,-0.690
5.056,-0.945,-0.630
5.058,-0.955,-0.565
5.061,-0.900,-0.470
5.064,-0.825,-0.335
5.067,-0.760,-0.220
5.069,-0.730,-0.095
5.072,-0.700,-0.010
5.075,-0.635,0.090
5.078,-0.565,0.190
5.081,-0.500,0.285
5.083,-0.450,0.360
5.086,-0.405,0.440
5.089,-0.315,0.510
5.092,-0.235,0.585
5.094,-0.215,0.630
5.097,-0.210,0.675
5.100,-0.195,0.695
5.103,-0.195,0.720
5.106,-0.195,0.720
5.108,-0.225,0.735
5.111,-0.215,0.755
5.114,-0.205,0.780
5.117,-0.175,0.775
5.119,-0.190,0.790
5.122,-0.215,0.790
5.125,-0.235,0.805
5.128,-0.230,0.805
5.131,-0.205,0.830
5.133,-0.190,0.830
5.136,-0.180,0.835
5.139,-0.165,0.830
5.142,-0.150,0.840
5.144,-0.150,0.855
5.147,-0.175,0.865
5.150,-0.215,0.870
5.153,-0.260,0.860
5.156,-0.235,0.870
5.158,-0.185,0.880
5.161,-0.115,0.895
5.164,-0.075,0.915
5.167,-0.065,0.920
5.169,-0.100,0.900
5.172,-0.125,0.880
5.175,-0.140,0.885
5.178,-0.165,0.900
5.181,-0.140,0.915
5.183,-0.145,0.915
5.186,-0.135,0.910
5.189,-0.130,0.905
5.192,-0.130,0.905
5.194,-0.125,0.920
5.197,-0.120,0.935
5.200,-0.110,0.935
5.203,-0.110,0.935
5.206,-0.110,0.935
5.208,-0.130,0.935
5.211,-0.120,0.945
5.214,-0.095,0.965
5.217,-0.070,0.965
5.219,-0.060,0.970
5.222,-0.060,0.950
5.225,-0.060,0.950
5.228,-0.075,0.955
5.231,-0.080,0.955
5.233,-0.075,0.970
5.236,-0.070,0.955
5.239,-0.065,0.960
5.242,-0.065,0.940
5.244,-0.065,0.955
5.247,-0.070,0.960
5.250,-0.070,0.955
5.253,-0.075,0.945
5.256,-0.035,0.945
5.258,-0.015,0.945
5.261,-0.030,0.950
5.264,-0.055,0.950
5.267,-0.045,0.955
5.269,-0.025,0.940
5.272,-0.015,0.930
5.275,-0.020,0.920
5.278,-0.005,0.925
5.281,0.005,0.915
5.283,-0.010,0.900
5.286,-0.010,0.885
5.289,-0.010,0.875
5.292,-0.010,0.855
5.294,-0.015,0.845
5.297,-0.010,0.850
5.300,-0.010,0.835
5.303,-0.040,0.815
5.306,-0.065,0.775
5.308,-0.080,0.760
5.311,-0.090,0.760
5.314,-0.090,0.760
5.317,-0.055,0.750
5.319,-0.035,0.715
5.322,-0.040,0.700
5.325,-0.075,0.680
5.328,-0.100,0.675
5.331,-0.090,0.675
5.333,-0.075,0.655
5.336,-0.070,0.655
5.339,-0.085,0.640
5.342,-0.115,0.640
5.344,-0.130,0.635
5.347,-0.125,0.630
5.350,-0.125,0.610
5.353,-0.135,0.605
5.356,-0.160,0.590
5.358,-0.170,0.595
5.361,-0.160,0.605
5.364,-0.160,0.600
5.367,-0.165,0.600
5.369,-0.155,0.615
5.372,-0.170,0.595
5.375,-0.180,0.585
5.378,-0.180,0.595
5.381,-0.175,0.615
5.383,-0.180,0.620
5.386,-0.185,0.615
5.389,-0.195,0.605
5.392,-0.205,0.610
5.394,-0.210,0.605
5.397,-0.215,0.615
5.400,-0.205,0.620
5.403,-0.200,0.610
5.406,-0.210,0.610
5.408,-0.210,0.605
5.411,-0.215,0.625
5.414,-0.225,0.640
5.417,-0.225,0.635
5.419,-0.255,0.640
5.422,-0.250,0.630
5.425,-0.255,0.645
5.428,-0.245,0.655
5.431,-0.250,0.670
5.433,-0.250,0.660
5.436,-0.240,0.670
5.439,-0.215,0.660
5.442,-0.210,0.660
5.444,-0.220,0.660
5.447,-0.230,0.675
5.450,-0.225,0.685
5.453,-0.225,0.685
5.456,-0.245,0.665
5.458,-0.270,0.675
5.461,-0.260,0.690
5.464,-0.255,0.690
5.467,-0.245,0.690
5.469,-0.245,0.685
5.472,-0.265,0.670
5.475,-0.285,0.675
5.478,-0.285,0.690
5.481,-0.290,0.710
5.483,-0.285,0.715
5.486,-0.300,0.700
5.489,-0.310,0.705
5.492,-0.315,0.680
5.494,-0.315,0.695
5.497,-0.305,0.705
5.500,-0.305,0.710
5.503,-0.315,0.700
5.506,-0.340,0.695
5.508,-0.350,0.675
5.511,-0.350,0.690
5.514,-0.330,0.710
5.517,-0.325,0.710
5.519,-0.325,0.705
5.522,-0.335,0.690
5.525,-0.370,0.695
5.528,-0.370,0.700
5.531,-0.370,0.700
5.533,-0.345,0.700
5.536,-0.345,0.695
5.539,-0.350,0.685
5.542,-0.365,0.670
5.544,-0.375,0.690
5.547,-0.365,0.690
5.550,-0.355,0.680
5.553,-0.360,0.670
5.556,-0.360,0.670
5.558,-0.355,0.675
5.561,-0.345,0.685
5.564,-0.365,0.685
5.567,-0.405,0.670
5.569,-0.410,0.675
5.572,-0.365,0.660
5.575,-0.330,0.655
5.578,-0.320,0.670
5.581,-0.330,0.675
5.583,-0.360,0.680
5.586,-0.370,0.680
5.589,-0.370,0.660
5.592,-0.370,0.655
5.594,-0.370,0.660
5.597,-0.370,0.670
5.600,-0.365,0.680
5.603,-0.375,0.675
5.606,-0.370,0.675
5.608,-0.380,0.650
5.611,-0.360,0.665
5.614,-0.345,0.655
5.617,-0.340,0.665
5.619,-0.330,0.650
5.622,-0.335,0.645
5.625,-0.360,0.640
5.628,-0.370,0.650
5.631,-0.350,0.655
5.633,-0.340,0.655
5.636,-0.350,0.655
5.639,-0.370,0.640
5.642,-0.390,0.630
5.644,-0.385,0.630
5.647,-0.360,0.645
5.650,-0.350,0.635
5.653,-0.350,0.635
5.656,-0.350,0.625
5.658,-0.360,0.620
5.661,-0.355,0.615
5.664,-0.340,0.630
5.667,-0.355,0.615
5.669,-0.360,0.615
5.672,-0.375,0.600
5.675,-0.360,0.610
5.678,-0.355,0.600
5.681,-0.365,0.610
5.683,-0.375,0.600
5.686,-0.380,0.590
5.689,-0.370,0.580
5.692,-0.355,0.575
5.694,-0.350,0.580
5.697,-0.350,0.595
5.700,-0.360,0.600
5.703,-0.365,0.580
5.706,-0.375,0.580
5.708,-0.375,0.585
5.711,-0.355,0.590
5.714,-0.350,0.610
5.717,-0.345,0.590
5.719,-0.345,0.580
5.722,-0.365,0.570
5.725,-0.370,0.565
5.728,-0.340,0.560
5.731,-0.305,0.580
5.733,-0.300,0.585
5.736,-0.320,0.585
5.739,-0.340,0.575
5.742,-0.330,0.585
5.744,-0.290,0.605
5.747,-0.260,0.615
5.750,-0.260,0.610
5.753,-0.275,0.615
5.756,-0.285,0.615
5.758,-0.290,0.630
5.761,-0.295,0.640
5.764,-0.270,0.650
5.767,-0.240,0.665
5.769,-0.175,0.665
5.772,-0.150,0.645
5.775,-0.155,0.625
5.778,-0.155,0.600
5.781,-0.140,0.610
5.783,-0.120,0.590
5.786,-0.125,0.575
5.789,-0.135,0.560
5.792,-0.125,0.565
5.794,-0.125,0.570
5.797,-0.115,0.575
5.800,-0.100,0.575
5.803,-0.105,0.565
5.806,-0.135,0.560
5.808,-0.175,0.545
5.811,-0.200,0.555
5.814,-0.210,0.570
5.817,-0.235,0.560
5.819,-0.280,0.545
5.822,-0.340,0.530
5.825,-0.390,0.520
5.828,-0.410,0.515
5.831,-0.405,0.520
5.833,-0.385,0.505
5.836,-0.380,0.505
5.839,-0.385,0.490
5.842,-0.395,0.475
5.844,-0.380,0.495
5.847,-0.370,0.495
5.850,-0.365,0.505
5.853,-0.385,0.505
5.856,-0.395,0.475
5.858,-0.400,0.475
5.861,-0.370,0.495
5.864,-0.370,0.500
5.867,-0.370,0.490
5.869,-0.370,0.485
5.872,-0.375,0.480
5.875,-0.385,0.460
5.878,-0.400,0.475
5.881,-0.390,0.480
5.883,-0.360,0.485
5.886,-0.365,0.470
5.889,-0.380,0.460
5.892,-0.395,0.460
5.894,-0.405,0.480
5.897,-0.390,0.465
5.900,-0.365,0.465
5.903,-0.355,0.460
5.906,-0.360,0.435
5.908,-0.380,0.450
5.911,-0.390,0.465
5.914,-0.365,0.475
5.917,-0.345,0.480
5.919,-0.355,0.450
5.922,-0.390,0.390
5.925,-0.445,0.290
5.928,-0.445,0.190
5.931,-0.415,0.060
5.933,-0.385,-0.110
5.936,-0.390,-0.330
5.939,-0.395,-0.655
5.942,-0.425,-0.980
5.944,-0.465,-1.180
5.947,-0.545,-1.235
5.950,-0.610,-1.195
5.953,-0.640,-1.145
5.956,-0.640,-1.110
5.958,-0.650,-1.055
5.961,-0.655,-1.000
5.964,-0.680,-0.940
5.967,-0.720,-0.910
5.969,-0.760,-0.885
5.972,-0.820,-0.860
5.975,-0.860,-0.830
5.978,-0.840,-0.755
5.981,-0.850,-0.675
5.983,-0.900,-0.625
5.986,-0.945,-0.560
5.989,-0.985,-0.520
5.992,-1.000,-0.480
5.994,-0.960,-0.370
5.997,-0.895,-0.250
6.000,-0.855,-0.140
6.003,-0.840,-0.035
6.006,-0.805,0.035
6.008,-0.745,0.125
6.011,-0.665,0.210
6.014,-0.620,0.300
6.017,-0.565,0.380
6.019,-0.520,0.445
6.022,-0.445,0.480
6.025,-0.400,0.535
6.028,-0.355,0.585
6.031,-0.345,0.625
6.033,-0.335,0.650
6.036,-0.330,0.650
6.039,-0.335,0.640
6.042,-0.340,0.660
6.044,-0.315,0.665
6.047,-0.295,0.690
6.050,-0.285,0.695
6.053,-0.285,0.695
6.056,-0.310,0.700
6.058,-0.325,0.700
6.061,-0.315,0.715
6.064,-0.285,0.725
6.067,-0.275,0.740
6.069,-0.280,0.725
6.072,-0.300,0.725
6.075,-0.315,0.735
6.078,-0.300,0.750
6.081,-0.305,0.750
6.083,-0.285,0.760
6.086,-0.265,0.745
6.089,-0.275,0.745
6.092,-0.280,0.755
6.094,-0.280,0.745
6.097,-0.275,0.760
6.100,-0.280,0.750
6.103,-0.290,0.765
6.106,-0.300,0.750
6.108,-0.310,0.750
6.111,-0.285,0.755
6.114,-0.250,0.770
6.117,-0.220,0.770
6.119,-0.225,0.770
6.122,-0.245,0.760
6.125,-0.265,0.760
6.128,-0.250,0.775
6.131,-0.240,0.795
6.133,-0.225,0.785
6.136,-0.225,0.790
6.139,-0.215,0.795
6.142,-0.225,0.780
6.144,-0.220,0.785
6.147,-0.215,0.785
6.150,-0.200,0.790
6.153,-0.200,0.790
6.156,-0.200,0.770
6.158,-0.205,0.775
6.161,-0.205,0.790
6.164,-0.205,0.785
6.167,-0.190,0.790
6.169,-0.195,0.770
6.172,-0.190,0.765
6.175,-0.205,0.760
6.178,-0.190,0.760
6.181,-0.160,0.780
6.183,-0.135,0.775
6.186,-0.125,0.775
6.189,-0.145,0.755
6.192,-0.155,0.750
6.194,-0.140,0.760
6.197,-0.140,0.765
6.200,-0.130,0.755
6.203,-0.135,0.755
6.206,-0.150,0.740
6.208,-0.155,0.740
6.211,-0.150,0.730
6.214,-0.125,0.730
6.217,-0.100,0.730
6.219,-0.110,0.715
6.222,-0.110,0.705
6.225,-0.140,0.685
6.228,-0.130,0.680
6.231,-0.130,0.670
6.233,-0.110,0.675
6.236,-0.130,0.660
6.239,-0.120,0.645
6.242,-0.150,0.630
6.244,-0.145,0.620
6.247,-0.135,0.615
6.250,-0.135,0.600
6.253,-0.155,0.580
6.256,-0.175,0.555
6.258,-0.165,0.530
6.261,-0.140,0.530
6.264,-0.135,0.535
6.267,-0.150,0.530
6.269,-0.175,0.495
6.272,-0.200,0.475
6.275,-0.205,0.460
6.278,-0.200,0.460
6.281,-0.190,0.465
6.283,-0.190,0.450
6.286,-0.215,0.435
6.289,-0.215,0.425
6.292,-0.245,0.410
6.294,-0.235,0.410
6.297,-0.245,0.420
6.300,-0.245,0.410
6.303,-0.250,0.405
6.306,-0.255,0.395
6.308,-0.265,0.390
6.311,-0.250,0.405
6.314,-0.230,0.415
6.317,-0.230,0.395
6.319,-0.250,0.385
6.322,-0.260,0.365
6.325,-0.280,0.370
6.328,-0.260,0.380
6.331,-0.265,0.390
6.333,-0.265,0.390
6.336,-0.295,0.395
6.339,-0.315,0.385
6.342,-0.300,0.375
6.344,-0.255,0.385
6.347,-0.225,0.405
6.350,-0.230,0.400
6.353,-0.260,0.400
6.356,-0.285,0.400
6.358,-0.310,0.400
6.361,-0.305,0.400
6.364,-0.280,0.420
6.367,-0.260,0.415
6.369,-0.245,0.405
6.372,-0.250,0.410
6.375,-0.280,0.400
6.378,-0.280,0.410
6.381,-0.285,0.420
6.383,-0.275,0.425
6.386,-0.280,0.420
6.389,-0.280,0.405
6.392,-0.295,0.410
6.394,-0.305,0.430
6.397,-0.285,0.445
6.400,-0.275,0.450
6.403,-0.275,0.445
6.406,-0.295,0.420
6.408,-0.315,0.430
6.411,-0.310,0.445
6.414,-0.290,0.450
6.417,-0.275,0.445
6.419,-0.295,0.450
6.422,-0.310,0.445
6.425,-0.325,0.435
6.428,-0.305,0.460
6.431,-0.300,0.450
6.433,-0.280,0.450
6.436,-0.310,0.440
6.439,-0.320,0.425
6.442,-0.330,0.435
6.444,-0.305,0.440
6.447,-0.310,0.455
6.450,-0.305,0.455
6.453,-0.315,0.430
6.456,-0.345,0.425
6.458,-0.345,0.425
6.461,-0.340,0.420
6.464,-0.330,0.440
6.467,-0.320,0.430
6.469,-0.330,0.430
6.472,-0.345,0.425
6.475,-0.350,0.430
6.478,-0.350,0.430
6.481,-0.345,0.430
6.483,-0.345,0.415
6.486,-0.345,0.415
6.489,-0.370,0.405
6.492,-0.385,0.390
6.494,-0.375,0.395
6.497,-0.350,0.400
6.500,-0.335,0.400
6.503,-0.325,0.400
6.506,-0.345,0.380
6.508,-0.365,0.385
6.511,-0.380,0.390
6.514,-0.385,0.395
6.517,-0.375,0.390
6.519,-0.370,0.375
6.522,-0.365,0.365
6.525,-0.355,0.360
6.528,-0.350,0.380
6.531,-0.345,0.395
6.533,-0.330,0.390
6.536,-0.345,0.385
6.539,-0.360,0.380
6.542,-0.365,0.365
6.544,-0.350,0.370
6.547,-0.350,0.390
6.550,-0.350,0.390
6.553,-0.365,0.380
6.556,-0.375,0.350
6.558,-0.385,0.340
6.561,-0.375,0.355
6.564,-0.350,0.365
6.567,-0.325,0.365
6.569,-0.320,0.360
6.572,-0.325,0.355
6.575,-0.340,0.355
6.578,-0.340,0.360
6.581,-0.335,0.355
6.583,-0.330,0.365
6.586,-0.330,0.365
6.589,-0.315,0.355
6.592,-0.330,0.365
6.594,-0.330,0.370
6.597,-0.325,0.375
6.600,-0.320,0.370
6.603,-0.320,0.360
6.606,-0.330,0.340
6.608,-0.335,0.345
6.611,-0.320,0.350
6.614,-0.325,0.360
6.617,-0.300,0.355
6.619,-0.310,0.360
6.622,-0.315,0.345
6.625,-0.325,0.340
6.628,-0.320,0.355
6.631,-0.310,0.355
6.633,-0.305,0.345
6.636,-0.300,0.335
6.639,-0.310,0.335
6.642,-0.315,0.340
6.644,-0.305,0.350
6.647,-0.300,0.365
6.650,-0.290,0.355
6.653,-0.280,0.355
6.656,-0.300,0.330
6.658,-0.315,0.350
6.661,-0.315,0.350
6.664,-0.305,0.345
6.667,-0.290,0.340
6.669,-0.305,0.335
6.672,-0.305,0.320
6.675,-0.315,0.330
6.678,-0.315,0.340
6.681,-0.310,0.345
6.683,-0.290,0.335
6.686,-0.295,0.330
6.689,-0.310,0.320
6.692,-0.315,0.315
6.694,-0.305,0.330
6.697,-0.295,0.335
6.700,-0.300,0.335
6.703,-0.305,0.330
6.706,-0.290,0.325
6.708,-0.315,0.320
6.711,-0.320,0.340
6.714,-0.300,0.345
6.717,-0.245,0.365
6.719,-0.220,0.355
6.722,-0.210,0.355
6.725,-0.220,0.360
6.728,-0.220,0.380
6.731,-0.210,0.410
6.733,-0.190,0.410
6.736,-0.200,0.400
6.739,-0.170,0.400
6.742,-0.165,0.400
6.744,-0.130,0.405
6.747,-0.120,0.390
6.750,-0.110,0.375
6.753,-0.085,0.355
6.756,-0.095,0.350
6.758,-0.095,0.340
6.761,-0.100,0.345
6.764,-0.095,0.335
6.767,-0.085,0.345
6.769,-0.075,0.330
6.772,-0.070,0.325
6.775,-0.060,0.330
6.778,-0.060,0.330
6.781,-0.045,0.330
6.783,-0.070,0.330
6.786,-0.105,0.300
6.789,-0.160,0.290
6.792,-0.200,0.300
6.794,-0.215,0.305
6.797,-0.250,0.310
6.800,-0.280,0.295
6.803,-0.320,0.295
6.806,-0.335,0.270
6.808,-0.350,0.260
6.811,-0.345,0.260
6.814,-0.330,0.265
6.817,-0.340,0.270
6.819,-0.340,0.265
6.822,-0.360,0.260
6.825,-0.360,0.255
6.828,-0.380,0.260
6.831,-0.360,0.250
6.833,-0.320,0.265
6.836,-0.300,0.240
6.839,-0.315,0.250
6.842,-0.330,0.240
6.844,-0.345,0.250
6.847,-0.350,0.275
6.850,-0.330,0.245
6.853,-0.340,0.245
6.856,-0.360,0.230
6.858,-0.350,0.240
6.861,-0.350,0.245
6.864,-0.345,0.250
6.867,-0.345,0.250
6.869,-0.350,0.245
6.872,-0.360,0.230
6.875,-0.365,0.220
6.878,-0.355,0.235
6.881,-0.340,0.235
6.883,-0.335,0.225
6.886,-0.340,0.225
6.889,-0.340,0.210
6.892,-0.335,0.220
6.894,-0.350,0.220
6.897,-0.350,0.215
6.900,-0.355,0.215
6.903,-0.350,0.220
6.906,-0.350,0.230
6.908,-0.375,0.225
6.911,-0.390,0.215
6.914,-0.375,0.165
6.917,-0.380,0.095
6.919,-0.400,-0.010
6.922,-0.420,-0.155
6.925,-0.425,-0.310
6.928,-0.415,-0.490
6.931,-0.415,-0.695
6.933,-0.390,-0.995
6.936,-0.385,-1.260
6.939,-0.435,-1.475
6.942,-0.530,-1.550
6.944,-0.585,-1.505
6.947,-0.610,-1.445
6.950,-0.585,-1.390
6.953,-0.575,-1.350
6.956,-0.605,-1.305
6.958,-0.635,-1.260
6.961,-0.665,-1.200
6.964,-0.700,-1.160
6.967,-0.725,-1.145
6.969,-0.760,-1.130
6.972,-0.790,-1.090
6.975,-0.795,-1.055
6.978,-0.800,-0.995
6.981,-0.850,-0.915
6.983,-0.910,-0.875
6.986,-0.955,-0.815
6.989,-0.965,-0.780
6.992,-0.975,-0.720
6.994,-0.950,-0.635
6.997,-0.910,-0.535
7.000,-0.870,-0.425
7.003,-0.840,-0.330
7.006,-0.810,-0.250
7.008,-0.775,-0.165
7.011,-0.695,-0.075
7.014,-0.615,0.020
7.017,-0.555,0.085
7.019,-0.510,0.135
7.022,-0.485,0.190
7.025,-0.440,0.275
7.028,-0.360,0.345
7.031,-0.335,0.400
7.033,-0.315,0.425
7.036,-0.295,0.445
7.039,-0.285,0.445
7.042,-0.285,0.445
7.044,-0.285,0.460
7.047,-0.275,0.485
7.050,-0.265,0.495
7.053,-0.245,0.510
7.056,-0.255,0.500
7.058,-0.260,0.500
7.061,-0.260,0.510
7.064,-0.240,0.530
7.067,-0.225,0.545
7.069,-0.245,0.560
7.072,-0.250,0.535
7.075,-0.270,0.525
7.078,-0.270,0.530
7.081,-0.250,0.545
7.083,-0.240,0.555
7.086,-0.220,0.550
7.089,-0.245,0.540
7.092,-0.250,0.535
7.094,-0.240,0.540
7.097,-0.230,0.550
7.100,-0.220,0.575
7.103,-0.220,0.570
7.106,-0.220,0.555
7.108,-0.235,0.545
7.111,-0.215,0.560
7.114,-0.215,0.580
7.117,-0.215,0.585
7.119,-0.200,0.575
7.122,-0.215,0.560
7.125,-0.220,0.565
7.128,-0.215,0.565
7.131,-0.225,0.565
7.133,-0.215,0.550
7.136,-0.215,0.550
7.139,-0.220,0.555
7.142,-0.230,0.565
7.144,-0.210,0.570
7.147,-0.195,0.570
7.150,-0.200,0.565
7.153,-0.200,0.560
7.156,-0.185,0.545
7.158,-0.180,0.545
7.161,-0.170,0.565
7.164,-0.180,0.570
7.167,-0.190,0.575
7.169,-0.185,0.570
7.172,-0.175,0.565
7.175,-0.195,0.560
7.178,-0.170,0.575
7.181,-0.165,0.595
7.183,-0.140,0.580
7.186,-0.130,0.570
7.189,-0.130,0.550
7.192,-0.130,0.545
7.194,-0.135,0.535
7.197,-0.130,0.530
7.200,-0.135,0.525
7.203,-0.125,0.530
7.206,-0.120,0.535
7.208,-0.115,0.555
7.211,-0.115,0.525
7.214,-0.130,0.505
7.217,-0.115,0.485
7.219,-0.115,0.480
7.222,-0.110,0.480
7.225,-0.115,0.485
7.228,-0.085,0.500
7.231,-0.070,0.500
7.233,-0.080,0.485
7.236,-0.080,0.485
7.239,-0.105,0.465
7.242,-0.115,0.470
7.244,-0.115,0.460
7.247,-0.115,0.445
7.250,-0.120,0.420
7.253,-0.120,0.405
7.256,-0.120,0.400
7.258,-0.125,0.385
7.261,-0.130,0.380
7.264,-0.130,0.375
7.267,-0.135,0.370
7.269,-0.140,0.345
7.272,-0.155,0.330
7.275,-0.155,0.300
7.278,-0.145,0.290
7.281,-0.145,0.295
7.283,-0.155,0.290
7.286,-0.190,0.270
7.289,-0.205,0.245
7.292,-0.220,0.235
7.294,-0.210,0.240
7.297,-0.215,0.245
7.300,-0.230,0.215
7.303,-0.240,0.190
7.306,-0.245,0.170
7.308,-0.240,0.165
7.311,-0.250,0.180
7.314,-0.255,0.185
7.317,-0.230,0.170
7.319,-0.235,0.170
7.322,-0.250,0.150
7.325,-0.280,0.145
7.328,-0.270,0.145
7.331,-0.265,0.145
7.333,-0.265,0.155
7.336,-0.285,0.135
7.339,-0.275,0.115
7.342,-0.280,0.125
7.344,-0.255,0.145
7.347,-0.260,0.160
7.350,-0.270,0.145
7.353,-0.275,0.140
7.356,-0.290,0.140
7.358,-0.290,0.140
7.361,-0.305,0.145
7.364,-0.315,0.135
7.367,-0.305,0.140
7.369,-0.300,0.130
7.372,-0.300,0.125
7.375,-0.300,0.130
7.378,-0.300,0.120
7.381,-0.280,0.140
7.383,-0.280,0.150
7.386,-0.280,0.150
7.389,-0.300,0.150
7.392,-0.310,0.145
7.394,-0.305,0.155
7.397,-0.300,0.170
7.400,-0.290,0.150
7.403,-0.310,0.130
7.406,-0.345,0.135
7.408,-0.355,0.145
7.411,-0.335,0.160
7.414,-0.315,0.170
7.417,-0.320,0.160
7.419,-0.325,0.145
7.422,-0.340,0.140
7.425,-0.345,0.150
7.428,-0.365,0.175
7.431,-0.355,0.175
7.433,-0.320,0.175
7.436,-0.320,0.150
7.439,-0.340,0.135
7.442,-0.355,0.130
7.444,-0.350,0.155
7.447,-0.330,0.165
7.450,-0.310,0.180
7.453,-0.315,0.175
7.456,-0.335,0.160
7.458,-0.365,0.155
7.461,-0.370,0.150
7.464,-0.355,0.160
7.467,-0.345,0.155
7.469,-0.345,0.155
7.472,-0.380,0.140
7.475,-0.405,0.145
7.478,-0.395,0.150
7.481,-0.390,0.150
7.483,-0.380,0.130
7.486,-0.385,0.130
7.489,-0.390,0.120
7.492,-0.410,0.130
7.494,-0.400,0.140
7.497,-0.400,0.150
7.500,-0.410,0.140
7.503,-0.405,0.130
7.506,-0.395,0.110
7.508,-0.400,0.120
7.511,-0.385,0.135
7.514,-0.390,0.130
7.517,-0.390,0.120
7.519,-0.395,0.105
7.522,-0.410,0.095
7.525,-0.410,0.105
7.528,-0.405,0.130
7.531,-0.380,0.140
7.533,-0.385,0.135
7.536,-0.405,0.115
7.539,-0.410,0.080
7.542,-0.415,0.075
7.544,-0.400,0.095
7.547,-0.395,0.095
7.550,-0.400,0.095
7.553,-0.395,0.095
7.556,-0.395,0.085
7.558,-0.410,0.080
7.561,-0.410,0.065
7.564,-0.400,0.080
7.567,-0.385,0.080
7.569,-0.375,0.085
7.572,-0.375,0.065
7.575,-0.390,0.075
7.578,-0.400,0.075
7.581,-0.385,0.090
7.583,-0.380,0.085
7.586,-0.375,0.085
7.589,-0.390,0.070
7.592,-0.400,0.070
7.594,-0.375,0.080
7.597,-0.370,0.085
7.600,-0.380,0.075
7.603,-0.400,0.065
7.606,-0.400,0.055
7.608,-0.375,0.060
7.611,-0.345,0.070
7.614,-0.330,0.075
7.617,-0.330,0.080
7.619,-0.360,0.060
7.622,-0.390,0.050
7.625,-0.405,0.055
7.628,-0.375,0.065
7.631,-0.350,0.075
7.633,-0.345,0.085
7.636,-0.360,0.065
7.639,-0.355,0.060
7.642,-0.365,0.075
7.644,-0.350,0.075
7.647,-0.335,0.090
7.650,-0.350,0.075
7.653,-0.360,0.060
7.656,-0.360,0.045
7.658,-0.370,0.050
7.661,-0.355,0.065
7.664,-0.340,0.075
7.667,-0.345,0.070
7.669,-0.340,0.055
7.672,-0.350,0.045
7.675,-0.365,0.045
7.678,-0.380,0.065
7.681,-0.370,0.070
7.683,-0.350,0.065
7.686,-0.325,0.040
7.689,-0.330,0.050
7.692,-0.350,0.055
7.694,-0.360,0.070
7.697,-0.350,0.070
7.700,-0.350,0.065
7.703,-0.325,0.050
7.706,-0.310,0.055
7.708,-0.335,0.070
7.711,-0.345,0.065
7.714,-0.350,0.040
7.717,-0.345,0.050
7.719,-0.355,0.040
7.722,-0.350,0.040
7.725,-0.360,0.035
7.728,-0.355,0.055
7.731,-0.345,0.055
7.733,-0.340,0.060
7.736,-0.335,0.055
7.739,-0.345,0.065
7.742,-0.365,0.070
7.744,-0.390,0.060
7.747,-0.380,0.060
7.750,-0.340,0.080
7.753,-0.280,0.070
7.756,-0.260,0.060
7.758,-0.280,0.065
7.761,-0.280,0.075
7.764,-0.275,0.085
7.767,-0.260,0.105
7.769,-0.260,0.100
7.772,-0.270,0.105
7.775,-0.285,0.120
7.778,-0.245,0.135
7.781,-0.230,0.155
7.783,-0.205,0.145
7.786,-0.195,0.135
7.789,-0.185,0.120
7.792,-0.180,0.110
7.794,-0.140,0.125
7.797,-0.130,0.135
7.800,-0.105,0.110
7.803,-0.130,0.080
7.806,-0.150,0.055
7.808,-0.145,0.045
7.811,-0.120,0.065
7.814,-0.105,0.085
7.817,-0.070,0.075
7.819,-0.080,0.070
7.822,-0.085,0.065
7.825,-0.135,0.060
7.828,-0.210,0.060
7.831,-0.250,0.050
7.833,-0.260,0.050
7.836,-0.285,0.040
7.839,-0.315,0.030
7.842,-0.360,0.010
7.844,-0.375,0.010
7.847,-0.385,0.025
7.850,-0.365,0.025
7.853,-0.370,0.010
7.856,-0.370,0.000
7.858,-0.395,0.000
7.861,-0.385,0.015
7.864,-0.370,0.025
7.867,-0.375,0.030
7.869,-0.390,0.010
7.872,-0.395,-0.020
7.875,-0.400,-0.010
7.878,-0.390,-0.015
7.881,-0.385,0.005
7.883,-0.385,-0.005
7.886,-0.380,-0.005
7.889,-0.400,-0.020
7.892,-0.400,-0.015
7.894,-0.385,0.000
7.897,-0.375,0.000
7.900,-0.360,0.000
7.903,-0.375,0.005
7.906,-0.390,-0.005
7.908,-0.390,0.000
7.911,-0.405,0.005
7.914,-0.400,0.000
7.917,-0.390,0.005
7.919,-0.365,-0.005
7.922,-0.385,-0.010
7.925,-0.395,-0.015
7.928,-0.400,-0.005
7.931,-0.395,0.005
7.933,-0.390,0.000
7.936,-0.385,-0.020
7.939,-0.385,-0.030
7.942,-0.400,-0.020
7.944,-0.385,0.000
7.947,-0.375,0.010
7.950,-0.385,-0.010
7.953,-0.405,-0.075
7.956,-0.450,-0.165
7.958,-0.440,-0.255
7.961,-0.415,-0.360
7.964,-0.395,-0.480
7.967,-0.375,-0.665
7.969,-0.380,-0.910
7.972,-0.395,-1.200
7.975,-0.465,-1.460
7.978,-0.540,-1.580
7.981,-0.600,-1.575
7.983,-0.620,-1.520
7.986,-0.640,-1.490
7.989,-0.655,-1.455
7.992,-0.650,-1.425
7.994,-0.650,-1.350
7.997,-0.680,-1.285
8.000,-0.735,-1.260
8.003,-0.780,-1.250
8.006,-0.820,-1.250
8.008,-0.855,-1.215
8.011,-0.855,-1.140
8.014,-0.890,-1.065
8.017,-0.935,-1.015
8.019,-0.985,-0.985
8.022,-1.015,-0.945
8.025,-1.020,-0.890
8.028,-1.015,-0.830
8.031,-0.985,-0.745
8.033,-0.930,-0.645
8.036,-0.885,-0.540
8.039,-0.880,-0.470
8.042,-0.835,-0.390
8.044,-0.740,-0.300
8.047,-0.655,-0.200
8.050,-0.585,-0.140
8.053,-0.545,-0.070
8.056,-0.525,-0.025
8.058,-0.505,0.030
8.061,-0.450,0.100
8.064,-0.390,0.150
8.067,-0.335,0.185
8.069,-0.315,0.200
8.072,-0.310,0.215
8.075,-0.320,0.215
8.078,-0.310,0.250
8.081,-0.300,0.265
8.083,-0.285,0.275
8.086,-0.285,0.275
8.089,-0.285,0.290
8.092,-0.305,0.295
8.094,-0.290,0.310
8.097,-0.280,0.305
8.100,-0.280,0.300
8.103,-0.275,0.310
8.106,-0.280,0.300
8.108,-0.300,0.310
8.111,-0.290,0.330
8.114,-0.275,0.350
8.117,-0.260,0.350
8.119,-0.265,0.340
8.122,-0.270,0.320
8.125,-0.280,0.325
8.128,-0.285,0.350
8.131,-0.285,0.355
8.133,-0.275,0.360
8.136,-0.250,0.345
8.139,-0.250,0.360
8.142,-0.260,0.350
8.144,-0.280,0.365
8.147,-0.265,0.375
8.150,-0.250,0.370
8.153,-0.260,0.380
8.156,-0.255,0.360
8.158,-0.255,0.355
8.161,-0.260,0.365
8.164,-0.245,0.375
8.167,-0.245,0.375
8.169,-0.240,0.370
8.172,-0.230,0.370
8.175,-0.235,0.370
8.178,-0.225,0.370
8.181,-0.225,0.380
8.183,-0.200,0.375
8.186,-0.210,0.380
8.189,-0.225,0.365
8.192,-0.235,0.380
8.194,-0.230,0.405
8.197,-0.225,0.410
8.200,-0.200,0.405
8.203,-0.180,0.395
8.206,-0.185,0.380
8.208,-0.185,0.390
8.211,-0.190,0.390
8.214,-0.200,0.400
8.217,-0.185,0.390
8.219,-0.170,0.375
8.222,-0.160,0.380
8.225,-0.170,0.370
8.228,-0.170,0.390
8.231,-0.155,0.395
8.233,-0.155,0.375
8.236,-0.150,0.365
8.239,-0.150,0.360
8.242,-0.165,0.365
8.244,-0.160,0.385
8.247,-0.150,0.380
8.250,-0.150,0.370
8.253,-0.150,0.355
8.256,-0.150,0.340
8.258,-0.145,0.335
8.261,-0.135,0.360
8.264,-0.145,0.355
8.267,-0.150,0.335
8.269,-0.145,0.320
8.272,-0.150,0.310
8.275,-0.165,0.285
8.278,-0.150,0.290
8.281,-0.130,0.285
8.283,-0.120,0.275
8.286,-0.130,0.270
8.289,-0.135,0.255
8.292,-0.145,0.245
8.294,-0.145,0.240
8.297,-0.150,0.240
8.300,-0.155,0.230
8.303,-0.165,0.220
8.306,-0.175,0.200
8.308,-0.200,0.175
8.311,-0.215,0.160
8.314,-0.220,0.175
8.317,-0.205,0.160
8.319,-0.210,0.155
8.322,-0.220,0.130
8.325,-0.230,0.115
8.328,-0.235,0.105
8.331,-0.245,0.100
8.333,-0.235,0.100
8.336,-0.250,0.095
8.339,-0.270,0.075
8.342,-0.270,0.070
8.344,-0.280,0.090
8.347,-0.265,0.090
8.350,-0.255,0.075
8.353,-0.255,0.060
8.356,-0.285,0.040
8.358,-0.290,0.060
8.361,-0.280,0.070
8.364,-0.275,0.070
8.367,-0.270,0.060
8.369,-0.275,0.070
8.372,-0.265,0.060
8.375,-0.275,0.065
8.378,-0.285,0.075
8.381,-0.275,0.075
8.383,-0.265,0.070
8.386,-0.280,0.075
8.389,-0.290,0.065
8.392,-0.295,0.060
8.394,-0.285,0.075
8.397,-0.265,0.080
8.400,-0.270,0.080
8.403,-0.280,0.070
8.406,-0.295,0.070
8.408,-0.305,0.075
8.411,-0.300,0.080
8.414,-0.280,0.115
8.417,-0.285,0.125
8.419,-0.285,0.115
8.422,-0.305,0.095
8.425,-0.315,0.095
8.428,-0.315,0.105
8.431,-0.295,0.125
8.433,-0.295,0.120
8.436,-0.295,0.115
8.439,-0.300,0.100
8.442,-0.310,0.110
8.444,-0.320,0.130
8.447,-0.305,0.130
8.450,-0.300,0.145
8.453,-0.305,0.135
8.456,-0.305,0.115
8.458,-0.330,0.105
8.461,-0.335,0.115
8.464,-0.335,0.130
8.467,-0.315,0.145
8.469,-0.315,0.140
8.472,-0.330,0.130
8.475,-0.355,0.135
8.478,-0.335,0.140
8.481,-0.325,0.145
8.483,-0.325,0.135
8.486,-0.325,0.125
8.489,-0.330,0.135
8.492,-0.355,0.120
8.494,-0.360,0.130
8.497,-0.350,0.125
8.500,-0.350,0.145
8.503,-0.345,0.130
8.506,-0.355,0.115
8.508,-0.380,0.110
8.511,-0.375,0.115
8.514,-0.370,0.120
8.517,-0.365,0.105
8.519,-0.370,0.105
8.522,-0.385,0.100
8.525,-0.405,0.100
8.528,-0.400,0.110
8.531,-0.395,0.115
8.533,-0.370,0.110
8.536,-0.370,0.110
8.539,-0.390,0.100
8.542,-0.410,0.090
8.544,-0.400,0.110
8.547,-0.405,0.110
8.550,-0.385,0.100
8.553,-0.365,0.100
8.556,-0.375,0.080
8.558,-0.395,0.065
8.561,-0.405,0.085
8.564,-0.400,0.100
8.567,-0.380,0.110
8.569,-0.365,0.105
8.572,-0.365,0.100
8.575,-0.385,0.090
8.578,-0.395,0.075
8.581,-0.400,0.085
8.583,-0.385,0.090
8.586,-0.375,0.090
8.589,-0.390,0.080
8.592,-0.380,0.070
8.594,-0.355,0.085
8.597,-0.340,0.090
8.600,-0.360,0.080
8.603,-0.380,0.065
8.606,-0.390,0.050
8.608,-0.380,0.060
8.611,-0.365,0.075
8.614,-0.365,0.085
8.617,-0.355,0.075
8.619,-0.355,0.065
8.622,-0.370,0.050
8.625,-0.375,0.045
8.628,-0.385,0.055
8.631,-0.375,0.080
8.633,-0.375,0.070
8.636,-0.375,0.065
8.639,-0.345,0.070
8.642,-0.345,0.065
8.644,-0.350,0.070
8.647,-0.350,0.075
8.650,-0.350,0.055
8.653,-0.355,0.045
8.656,-0.345,0.050
8.658,-0.355,0.055
8.661,-0.350,0.050
8.664,-0.355,0.060
8.667,-0.355,0.045
8.669,-0.370,0.055
8.672,-0.360,0.050
8.675,-0.365,0.045
8.678,-0.360,0.040
8.681,-0.350,0.070
8.683,-0.345,0.060
8.686,-0.360,0.065
8.689,-0.355,0.050
8.692,-0.375,0.045
8.694,-0.360,0.075
8.697,-0.355,0.090
8.700,-0.360,0.065
8.703,-0.365,0.040
8.706,-0.360,0.035
8.708,-0.365,0.045
8.711,-0.360,0.050
8.714,-0.350,0.060
8.717,-0.340,0.050
8.719,-0.335,0.055
8.722,-0.335,0.050
8.725,-0.350,0.040
8.728,-0.330,0.055
8.731,-0.310,0.080
8.733,-0.320,0.095
8.736,-0.310,0.095
8.739,-0.305,0.095
8.742,-0.320,0.095
8.744,-0.310,0.115
8.747,-0.285,0.145
8.750,-0.275,0.145
8.753,-0.265,0.155
8.756,-0.220,0.150
8.758,-0.190,0.135
8.761,-0.170,0.125
8.764,-0.185,0.105
8.767,-0.175,0.100
8.769,-0.155,0.095
8.772,-0.150,0.085
8.775,-0.155,0.075
8.778,-0.155,0.070
8.781,-0.145,0.080
8.783,-0.120,0.070
8.786,-0.100,0.080
8.789,-0.110,0.075
8.792,-0.140,0.080
8.794,-0.150,0.090
8.797,-0.185,0.080
8.800,-0.210,0.075
8.803,-0.245,0.065
8.806,-0.285,0.050
8.808,-0.325,0.045
8.811,-0.370,0.050
8.814,-0.395,0.030
8.817,-0.400,0.015
8.819,-0.420,0.015
8.822,-0.410,-0.015
8.825,-0.415,0.000
8.828,-0.425,0.015
8.831,-0.405,0.025
8.833,-0.405,0.020
8.836,-0.405,0.015
8.839,-0.415,0.015
8.842,-0.425,0.005
8.844,-0.440,0.010
8.847,-0.440,0.015
8.850,-0.410,0.005
8.853,-0.395,0.015
8.856,-0.405,-0.010
8.858,-0.430,-0.015
8.861,-0.430,0.000
8.864,-0.425,0.010
8.867,-0.405,0.000
8.869,-0.420,-0.005
8.872,-0.410,-0.010
8.875,-0.405,-0.005
8.878,-0.400,0.015
8.881,-0.400,0.010
8.883,-0.400,-0.010
8.886,-0.420,-0.030
8.889,-0.430,-0.030
8.892,-0.440,-0.030
8.894,-0.430,-0.020
8.897,-0.420,-0.010
8.900,-0.425,-0.005
8.903,-0.410,0.005
8.906,-0.400,-0.005
8.908,-0.420,-0.010
8.911,-0.415,-0.025
8.914,-0.415,0.000
8.917,-0.410,-0.005
8.919,-0.425,-0.060
8.922,-0.445,-0.110
8.925,-0.475,-0.185
8.928,-0.460,-0.275
8.931,-0.420,-0.380
8.933,-0.380,-0.505
8.936,-0.390,-0.675
8.939,-0.410,-0.920
8.942,-0.405,-1.215
8.944,-0.435,-1.460
8.947,-0.505,-1.575
8.950,-0.605,-1.600
8.953,-0.650,-1.560
8.956,-0.665,-1.510
8.958,-0.665,-1.470
8.961,-0.680,-1.415
8.964,-0.690,-1.350
8.967,-0.695,-1.300
8.969,-0.740,-1.275
8.972,-0.795,-1.250
8.975,-0.845,-1.235
8.978,-0.885,-1.185
8.981,-0.900,-1.120
8.983,-0.915,-1.065
8.986,-0.965,-1.005
8.989,-1.020,-0.960
8.992,-1.070,-0.915
8.994,-1.065,-0.855
8.997,-1.045,-0.790
9.000,-1.005,-0.705
9.003,-0.955,-0.610
9.006,-0.925,-0.525
9.008,-0.915,-0.445
9.011,-0.875,-0.365
9.014,-0.790,-0.270
9.017,-0.695,-0.190
9.019,-0.630,-0.125
9.022,-0.600,-0.080
9.025,-0.575,-0.020
9.028,-0.515,0.055
9.031,-0.440,0.130
9.033,-0.395,0.175
9.036,-0.380,0.185
9.039,-0.385,0.195
9.042,-0.385,0.205
9.044,-0.375,0.230
9.047,-0.360,0.245
9.050,-0.340,0.255
9.053,-0.330,0.275
9.056,-0.340,0.255
9.058,-0.350,0.250
9.061,-0.350,0.265
9.064,-0.330,0.300
9.067,-0.325,0.300
9.069,-0.330,0.300
9.072,-0.335,0.285
9.075,-0.335,0.290
9.078,-0.325,0.315
9.081,-0.305,0.330
9.083,-0.295,0.325
9.086,-0.295,0.315
9.089,-0.305,0.320
9.092,-0.320,0.325
9.094,-0.320,0.340
9.097,-0.330,0.325
9.100,-0.310,0.305
9.103,-0.305,0.320
9.106,-0.295,0.320
9.108,-0.310,0.335
9.111,-0.300,0.340
9.114,-0.300,0.355
9.117,-0.290,0.350
9.119,-0.280,0.345
9.122,-0.285,0.345
9.125,-0.290,0.350
9.128,-0.280,0.355
9.131,-0.265,0.345
9.133,-0.250,0.360
9.136,-0.260,0.360
9.139,-0.270,0.360
9.142,-0.280,0.350
9.144,-0.260,0.355
9.147,-0.255,0.375
9.150,-0.270,0.355
9.153,-0.265,0.345
9.156,-0.255,0.345
9.158,-0.245,0.350
9.161,-0.235,0.360
9.164,-0.240,0.360
9.167,-0.230,0.355
9.169,-0.210,0.360
9.172,-0.210,0.365
9.175,-0.220,0.360
9.178,-0.225,0.375
9.181,-0.215,0.380
9.183,-0.205,0.360
9.186,-0.205,0.355
9.189,-0.205,0.355
9.192,-0.210,0.360
9.194,-0.200,0.365
9.197,-0.210,0.355
9.200,-0.190,0.340
9.203,-0.190,0.335
9.206,-0.190,0.330
9.208,-0.200,0.330
9.211,-0.210,0.320
9.214,-0.215,0.325
9.217,-0.175,0.325
9.219,-0.155,0.315
9.222,-0.165,0.305
9.225,-0.185,0.285
9.228,-0.180,0.300
9.231,-0.165,0.315
9.233,-0.150,0.300
9.236,-0.150,0.290
9.239,-0.165,0.270
9.242,-0.180,0.255
9.244,-0.190,0.250
9.247,-0.180,0.255
9.250,-0.185,0.245
9.253,-0.210,0.210
9.256,-0.220,0.190
9.258,-0.235,0.175
9.261,-0.235,0.185
9.264,-0.230,0.185
9.267,-0.225,0.165
9.269,-0.240,0.155
9.272,-0.255,0.130
9.275,-0.265,0.120
9.278,-0.275,0.120
9.281,-0.265,0.115
9.283,-0.270,0.100
9.286,-0.285,0.100
9.289,-0.295,0.085
9.292,-0.310,0.085
9.294,-0.305,0.085
9.297,-0.300,0.090
9.300,-0.305,0.085
9.303,-0.305,0.070
9.306,-0.325,0.060
9.308,-0.365,0.040
9.311,-0.345,0.045
9.314,-0.330,0.065
9.317,-0.315,0.070
9.319,-0.335,0.065
9.322,-0.320,0.040
9.325,-0.350,0.045
9.328,-0.335,0.065
9.331,-0.340,0.075
9.333,-0.330,0.070
9.336,-0.340,0.060
9.339,-0.350,0.045
9.342,-0.355,0.050
9.344,-0.375,0.065
9.347,-0.360,0.070
9.350,-0.335,0.080
9.353,-0.335,0.065
9.356,-0.340,0.045
9.358,-0.360,0.045
9.361,-0.355,0.065
9.364,-0.360,0.085
9.367,-0.345,0.085
9.369,-0.350,0.085
9.372,-0.350,0.070
9.375,-0.365,0.080
9.378,-0.355,0.085
9.381,-0.360,0.095
9.383,-0.345,0.085
9.386,-0.355,0.090
9.389,-0.355,0.090
9.392,-0.365,0.090
9.394,-0.375,0.100
9.397,-0.365,0.100
9.400,-0.350,0.100
9.403,-0.360,0.100
9.406,-0.345,0.095
9.408,-0.370,0.100
9.411,-0.365,0.115
9.414,-0.350,0.130
9.417,-0.340,0.120
9.419,-0.350,0.125
9.422,-0.370,0.115
9.425,-0.385,0.125
9.428,-0.390,0.120
9.431,-0.375,0.125
9.433,-0.365,0.125
9.436,-0.375,0.105
9.439,-0.395,0.085
9.442,-0.405,0.090
9.444,-0.410,0.110
9.447,-0.405,0.125
9.450,-0.400,0.120
9.453,-0.400,0.115
9.456,-0.405,0.105
9.458,-0.425,0.095
9.461,-0.410,0.115
9.464,-0.405,0.120
9.467,-0.385,0.115
9.469,-0.395,0.115
9.472,-0.405,0.105
9.475,-0.410,0.100
9.478,-0.420,0.100
9.481,-0.410,0.110
9.483,-0.410,0.105
9.486,-0.405,0.085
9.489,-0.400,0.080
9.492,-0.410,0.080
9.494,-0.420,0.085
9.497,-0.415,0.105
9.500,-0.415,0.080
9.503,-0.430,0.070
9.506,-0.425,0.070
9.508,-0.430,0.070
9.511,-0.435,0.070
9.514,-0.425,0.095
9.517,-0.415,0.075
9.519,-0.410,0.085
9.522,-0.395,0.085
9.525,-0.410,0.070
9.528,-0.430,0.060
9.531,-0.450,0.050
9.533,-0.420,0.055
9.536,-0.425,0.055
9.539,-0.420,0.045
9.542,-0.435,0.040
9.544,-0.420,0.050
9.547,-0.425,0.055
9.550,-0.420,0.055
9.553,-0.430,0.050
9.556,-0.425,0.050
9.558,-0.425,0.050
9.561,-0.400,0.075
9.564,-0.395,0.075
9.567,-0.405,0.065
9.569,-0.410,0.035
9.572,-0.400,0.050
9.575,-0.395,0.055
9.578,-0.380,0.060
9.581,-0.370,0.075
9.583,-0.375,0.070
9.586,-0.385,0.070
9.589,-0.405,0.060
9.592,-0.410,0.045
9.594,-0.410,0.055
9.597,-0.405,0.060
9.600,-0.390,0.035
9.603,-0.395,0.035
9.606,-0.410,0.040
9.608,-0.420,0.035
9.611,-0.390,0.050
9.614,-0.385,0.050
9.617,-0.380,0.045
9.619,-0.375,0.045
9.622,-0.380,0.035
9.625,-0.395,0.035
9.628,-0.390,0.060
9.631,-0.385,0.075
9.633,-0.390,0.070
9.636,-0.400,0.055
9.639,-0.415,0.035
9.642,-0.400,0.030
9.644,-0.410,0.040
9.647,-0.395,0.045
9.650,-0.400,0.040
9.653,-0.395,0.040
9.656,-0.405,0.030
9.658,-0.395,0.030
9.661,-0.370,0.040
9.664,-0.365,0.055
9.667,-0.360,0.050
9.669,-0.370,0.040
9.672,-0.385,0.025
9.675,-0.395,0.025
9.678,-0.390,0.040
9.681,-0.375,0.060
9.683,-0.365,0.055
9.686,-0.375,0.040
9.689,-0.395,0.025
9.692,-0.390,0.020
9.694,-0.385,0.040
9.697,-0.375,0.045
9.700,-0.365,0.050
9.703,-0.360,0.035
9.706,-0.370,0.040
9.708,-0.380,0.055
9.711,-0.360,0.060
9.714,-0.320,0.080
9.717,-0.290,0.095
9.719,-0.285,0.085
9.722,-0.310,0.095
9.725,-0.310,0.105
9.728,-0.285,0.125
9.731,-0.260,0.145
9.733,-0.240,0.155
9.736,-0.220,0.150
9.739,-0.210,0.125
9.742,-0.205,0.115
9.744,-0.210,0.100
9.747,-0.185,0.105
9.750,-0.150,0.095
9.753,-0.135,0.090
9.756,-0.140,0.075
9.758,-0.160,0.065
9.761,-0.170,0.065
9.764,-0.145,0.065
9.767,-0.130,0.070
9.769,-0.125,0.060
9.772,-0.120,0.065
9.775,-0.130,0.060
9.778,-0.140,0.065
9.781,-0.180,0.070
9.783,-0.230,0.060
9.786,-0.270,0.055
9.789,-0.310,0.040
9.792,-0.355,0.050
9.794,-0.410,0.035
9.797,-0.425,0.040
9.800,-0.420,0.015
9.803,-0.410,0.025
9.806,-0.410,0.005
9.808,-0.410,0.005
9.811,-0.405,0.030
9.814,-0.395,0.030
9.817,-0.400,0.025
9.819,-0.400,-0.010
9.822,-0.420,-0.010
9.825,-0.415,-0.005
9.828,-0.415,0.015
9.831,-0.420,0.010
9.833,-0.430,-0.005
9.836,-0.440,-0.015
9.839,-0.430,-0.020
9.842,-0.420,-0.010
9.844,-0.415,0.005
9.847,-0.400,0.015
9.850,-0.405,0.015
9.853,-0.410,0.015
9.856,-0.415,0.000
9.858,-0.415,-0.010
9.861,-0.410,-0.005
9.864,-0.400,0.005
9.867,-0.395,0.010
9.869,-0.405,-0.005
9.872,-0.410,-0.005
9.875,-0.420,-0.010
9.878,-0.415,-0.005
9.881,-0.410,0.005
9.883,-0.410,-0.010
9.886,-0.400,-0.010
9.889,-0.405,-0.025
9.892,-0.425,-0.010
9.894,-0.405,0.020
9.897,-0.390,0.030
9.900,-0.385,0.015
9.903,-0.390,-0.015
9.906,-0.415,-0.080
9.908,-0.435,-0.165
9.911,-0.430,-0.255
9.914,-0.385,-0.340
9.917,-0.360,-0.475
9.919,-0.365,-0.685
9.922,-0.375,-0.930
9.925,-0.385,-1.190
9.928,-0.420,-1.390
9.931,-0.505,-1.470
9.933,-0.570,-1.490
9.936,-0.620,-1.455
9.939,-0.620,-1.420
9.942,-0.635,-1.380
9.944,-0.635,-1.335
9.947,-0.645,-1.270
9.950,-0.680,-1.240
9.953,-0.725,-1.220
9.956,-0.765,-1.190
9.958,-0.785,-1.165
9.961,-0.820,-1.120
9.964,-0.825,-1.050
9.967,-0.860,-1.000
9.969,-0.895,-0.955
9.972,-0.930,-0.915
9.975,-0.960,-0.865
9.978,-0.980,-0.820
9.981,-0.985,-0.770
9.983,-0.985,-0.725
9.986,-0.940,-0.630
9.989,-0.895,-0.530
9.992,-0.880,-0.425
9.994,-0.850,-0.355
9.997,-0.780,-0.280
10.000,-0.690,-0.220
10.003,-0.625,-0.150
10.006,-0.600,-0.100
10.008,-0.575,-0.030
10.011,-0.540,0.025
10.014,-0.485,0.095
10.017,-0.435,0.130
10.019,-0.370,0.180
10.022,-0.335,0.195
10.025,-0.335,0.200
10.028,-0.320,0.230
10.031,-0.305,0.255
10.033,-0.305,0.250
10.036,-0.305,0.265
10.039,-0.320,0.260
10.042,-0.330,0.275
10.044,-0.340,0.285
10.047,-0.315,0.290
10.050,-0.290,0.300
10.053,-0.275,0.310
10.056,-0.280,0.300
10.058,-0.295,0.320
10.061,-0.295,0.320
10.064,-0.285,0.315
10.067,-0.270,0.325
10.069,-0.265,0.325
10.072,-0.260,0.330
10.075,-0.275,0.340
10.078,-0.265,0.340
10.081,-0.270,0.355
10.083,-0.275,0.335
10.086,-0.275,0.340
10.089,-0.270,0.355
10.092,-0.270,0.345
10.094,-0.260,0.365
10.097,-0.265,0.375
10.100,-0.255,0.370
10.103,-0.250,0.375
10.106,-0.265,0.370
10.108,-0.270,0.350
10.111,-0.260,0.385
10.114,-0.245,0.390
10.117,-0.255,0.380
10.119,-0.260,0.380
10.122,-0.250,0.375
10.125,-0.250,0.375
10.128,-0.225,0.390
10.131,-0.215,0.405
10.133,-0.215,0.410
10.136,-0.220,0.410
10.139,-0.225,0.395
10.142,-0.220,0.405
10.144,-0.195,0.415
10.147,-0.210,0.410
10.150,-0.210,0.390
10.153,-0.210,0.380
10.156,-0.205,0.375
10.158,-0.210,0.400
10.161,-0.205,0.390
10.164,-0.185,0.415
10.167,-0.180,0.400
10.169,-0.170,0.390
10.172,-0.175,0.375
10.175,-0.180,0.380
10.178,-0.175,0.390
10.181,-0.160,0.395
10.183,-0.155,0.390
10.186,-0.155,0.390
10.189,-0.160,0.370
10.192,-0.155,0.375
10.194,-0.155,0.380
10.197,-0.150,0.390
10.200,-0.145,0.370
10.203,-0.145,0.355
10.206,-0.155,0.345
10.208,-0.165,0.320
10.211,-0.170,0.335
10.214,-0.140,0.330
10.217,-0.130,0.320
10.219,-0.135,0.310
10.222,-0.150,0.295
10.225,-0.165,0.285
10.228,-0.155,0.285
10.231,-0.160,0.275
10.233,-0.170,0.255
10.236,-0.175,0.240
10.239,-0.185,0.215
10.242,-0.200,0.210
10.244,-0.190,0.210
10.247,-0.200,0.205
10.250,-0.200,0.195
10.253,-0.205,0.175
10.256,-0.210,0.160
10.258,-0.225,0.135
10.261,-0.225,0.140
10.264,-0.225,0.135
10.267,-0.215,0.135
10.269,-0.230,0.115
10.272,-0.235,0.095
10.275,-0.250,0.100
10.278,-0.250,0.090
10.281,-0.245,0.110
10.283,-0.245,0.085
10.286,-0.255,0.095
10.289,-0.265,0.085
10.292,-0.280,0.080
10.294,-0.270,0.085
10.297,-0.265,0.085
10.300,-0.250,0.090
10.303,-0.250,0.075
10.306,-0.265,0.065
10.308,-0.280,0.065
10.311,-0.275,0.080
10.314,-0.265,0.100
10.317,-0.260,0.100
10.319,-0.275,0.090
10.322,-0.285,0.070
10.325,-0.290,0.075
10.328,-0.280,0.095
10.331,-0.260,0.100
10.333,-0.255,0.100
10.336,-0.265,0.095
10.339,-0.265,0.085
10.342,-0.270,0.100
10.344,-0.280,0.115
10.347,-0.270,0.120
10.350,-0.255,0.125
10.353,-0.265,0.120
10.356,-0.280,0.120
10.358,-0.285,0.115
10.361,-0.290,0.120
10.364,-0.285,0.130
10.367,-0.275,0.130
10.369,-0.275,0.110
10.372,-0.275,0.115
10.375,-0.280,0.115
10.378,-0.270,0.135
10.381,-0.270,0.140
10.383,-0.270,0.140
10.386,-0.275,0.120
10.389,-0.300,0.140
10.392,-0.290,0.150
10.394,-0.295,0.165
10.397,-0.280,0.180
10.400,-0.280,0.165
10.403,-0.300,0.150
10.406,-0.320,0.135
10.408,-0.320,0.135
10.411,-0.310,0.145
10.414,-0.295,0.150
10.417,-0.300,0.130
10.419,-0.310,0.135
10.422,-0.305,0.125
10.425,-0.320,0.125
10.428,-0.320,0.145
10.431,-0.330,0.145
10.433,-0.325,0.135
10.436,-0.325,0.120
10.439,-0.320,0.130
10.442,-0.345,0.135
10.444,-0.325,0.135
10.447,-0.315,0.135
10.450,-0.310,0.135
10.453,-0.315,0.125
10.456,-0.340,0.115
10.458,-0.335,0.110
10.461,-0.335,0.115
10.464,-0.325,0.125
10.467,-0.325,0.120
10.469,-0.340,0.100
10.472,-0.340,0.100
10.475,-0.350,0.085
10.478,-0.350,0.090
10.481,-0.330,0.115
10.483,-0.320,0.100
10.486,-0.305,0.095
10.489,-0.330,0.085
10.492,-0.340,0.085
10.494,-0.320,0.100
10.497,-0.305,0.115
10.500,-0.300,0.120
10.503,-0.310,0.100
10.506,-0.325,0.110
10.508,-0.325,0.080
10.511,-0.330,0.080
10.514,-0.310,0.090
10.517,-0.295,0.090
10.519,-0.305,0.090
10.522,-0.320,0.080
10.525,-0.345,0.075
10.528,-0.310,0.080
10.531,-0.315,0.095
10.533,-0.315,0.085
10.536,-0.310,0.090
10.539,-0.305,0.080
10.542,-0.315,0.075
10.544,-0.310,0.100
10.547,-0.300,0.105
10.550,-0.295,0.095
10.553,-0.305,0.090
10.556,-0.300,0.080
10.558,-0.320,0.080
10.561,-0.315,0.095
10.564,-0.310,0.095
10.567,-0.295,0.095
10.569,-0.300,0.080
10.572,-0.320,0.070
10.575,-0.320,0.055
10.578,-0.325,0.080
10.581,-0.305,0.095
10.583,-0.290,0.090
10.586,-0.280,0.075
10.589,-0.295,0.060
10.592,-0.310,0.065
10.594,-0.305,0.065
10.597,-0.285,0.085
10.600,-0.280,0.080
10.603,-0.280,0.080
10.606,-0.295,0.075
10.608,-0.310,0.060
10.611,-0.285,0.075
10.614,-0.285,0.090
10.617,-0.265,0.080
10.619,-0.275,0.075
10.622,-0.280,0.065
10.625,-0.285,0.065
10.628,-0.285,0.070
10.631,-0.270,0.090
10.633,-0.260,0.085
10.636,-0.265,0.075
10.639,-0.260,0.080
10.642,-0.255,0.080
10.644,-0.255,0.100
10.647,-0.215,0.120
10.650,-0.210,0.130
10.653,-0.215,0.135
10.656,-0.220,0.130
10.658,-0.220,0.135
10.661,-0.205,0.170
10.664,-0.190,0.175
10.667,-0.170,0.175
10.669,-0.140,0.170
10.672,-0.130,0.165
10.675,-0.120,0.145
10.678,-0.100,0.130
10.681,-0.080,0.130
10.683,-0.065,0.120
10.686,-0.060,0.110
10.689,-0.060,0.100
10.692,-0.070,0.090
10.694,-0.060,0.100
10.697,-0.035,0.115
10.700,-0.010,0.110
10.703,-0.035,0.105
10.706,-0.035,0.105
10.708,-0.065,0.100
10.711,-0.110,0.090
10.714,-0.140,0.100
10.717,-0.180,0.090
10.719,-0.200,0.085
10.722,-0.255,0.080
10.725,-0.300,0.065
10.728,-0.315,0.050
10.731,-0.315,0.055
10.733,-0.300,0.045
10.736,-0.305,0.035
10.739,-0.315,0.025
10.742,-0.310,0.035
10.744,-0.305,0.040
10.747,-0.290,0.060
10.750,-0.300,0.050
10.753,-0.315,0.045
10.756,-0.320,0.020
10.758,-0.320,0.025
10.761,-0.320,0.040
10.764,-0.305,0.055
10.767,-0.315,0.045
10.769,-0.320,0.035
10.772,-0.320,0.035
10.775,-0.315,0.020
10.778,-0.305,0.040
10.781,-0.290,0.035
10.783,-0.280,0.040
10.786,-0.300,0.025
10.789,-0.320,0.015
10.792,-0.310,0.030
10.794,-0.295,0.020
10.797,-0.295,0.040
10.800,-0.290,0.030
10.803,-0.300,0.015
10.806,-0.310,0.005
10.808,-0.320,0.015
10.811,-0.305,0.020
10.814,-0.295,0.035
10.817,-0.295,0.025
10.819,-0.310,0.025
10.822,-0.310,0.030
10.825,-0.320,0.045
10.828,-0.295,0.045
10.831,-0.285,0.025
10.833,-0.295,-0.060
10.836,-0.320,-0.160
10.839,-0.330,-0.265
10.842,-0.315,-0.425
10.844,-0.280,-0.580
10.847,-0.270,-0.775
10.850,-0.255,-1.070
10.853,-0.270,-1.365
10.856,-0.350,-1.555
10.858,-0.430,-1.595
10.861,-0.495,-1.545
10.864,-0.510,-1.470
10.867,-0.515,-1.415
10.869,-0.515,-1.375
10.872,-0.530,-1.335
10.875,-0.580,-1.280
10.878,-0.620,-1.225
10.881,-0.655,-1.190
10.883,-0.675,-1.165
10.886,-0.720,-1.150
10.889,-0.765,-1.120
10.892,-0.830,-1.045
10.894,-0.850,-0.960
10.897,-0.880,-0.890
10.900,-0.875,-0.845
10.903,-0.885,-0.790
10.906,-0.865,-0.710
10.908,-0.840,-0.600
10.911,-0.785,-0.485
10.914,-0.760,-0.395
10.917,-0.705,-0.310
10.919,-0.630,-0.230
10.922,-0.535,-0.160
10.925,-0.500,-0.090
10.928,-0.445,0.010
10.931,-0.400,0.075
10.933,-0.350,0.130
10.936,-0.300,0.185
10.939,-0.255,0.215
10.942,-0.255,0.240
10.944,-0.225,0.270
10.947,-0.215,0.305
10.950,-0.215,0.295
10.953,-0.205,0.295
10.956,-0.220,0.305
10.958,-0.230,0.305
10.961,-0.210,0.330
10.964,-0.200,0.350
10.967,-0.180,0.360
10.969,-0.180,0.355
10.972,-0.200,0.365
10.975,-0.205,0.365
10.978,-0.195,0.375
10.981,-0.190,0.380
10.983,-0.175,0.370
10.986,-0.175,0.390
10.989,-0.170,0.400
10.992,-0.180,0.405
10.994,-0.170,0.420
10.997,-0.160,0.410
11.000,-0.170,0.400
11.003,-0.165,0.405
11.006,-0.165,0.395
11.008,-0.180,0.405
11.011,-0.180,0.420
11.014,-0.185,0.425
11.017,-0.160,0.430
11.019,-0.160,0.425
11.022,-0.155,0.420
11.025,-0.170,0.440
11.028,-0.165,0.450
11.031,-0.160,0.460
11.033,-0.140,0.455
11.036,-0.140,0.455
11.039,-0.140,0.450
11.042,-0.145,0.455
11.044,-0.125,0.465
11.047,-0.110,0.480
11.050,-0.115,0.460
11.053,-0.105,0.450
11.056,-0.125,0.450
11.058,-0.125,0.450
11.061,-0.115,0.460
11.064,-0.095,0.475
11.067,-0.080,0.480
11.069,-0.085,0.465
11.072,-0.095,0.450
11.075,-0.085,0.460
11.078,-0.075,0.470
11.081,-0.055,0.475
11.083,-0.050,0.470
11.086,-0.050,0.460
11.089,-0.070,0.445
11.092,-0.075,0.455
11.094,-0.045,0.450
11.097,-0.040,0.455
11.100,-0.045,0.440
11.103,-0.050,0.430
11.106,-0.045,0.415
11.108,-0.035,0.410
11.111,-0.030,0.415
11.114,-0.010,0.415
11.117,-0.010,0.410
11.119,-0.015,0.400
11.122,-0.030,0.370
11.125,-0.055,0.360
11.128,-0.055,0.360
11.131,-0.040,0.360
11.133,-0.035,0.345
11.136,-0.050,0.330
11.139,-0.060,0.305
11.142,-0.085,0.300
11.144,-0.085,0.280
11.147,-0.065,0.260
11.150,-0.075,0.255
11.153,-0.080,0.245
11.156,-0.095,0.230
11.158,-0.115,0.220
11.161,-0.130,0.210
11.164,-0.130,0.205
11.167,-0.130,0.190
11.169,-0.150,0.165
11.172,-0.155,0.155
11.175,-0.195,0.160
11.178,-0.170,0.165
11.181,-0.165,0.165
11.183,-0.155,0.170
11.186,-0.160,0.135
11.189,-0.175,0.115
11.192,-0.180,0.120
11.194,-0.180,0.130
11.197,-0.185,0.130
11.200,-0.180,0.125
11.203,-0.190,0.120
11.206,-0.190,0.120
11.208,-0.170,0.125
11.211,-0.190,0.135
11.214,-0.190,0.140
11.217,-0.190,0.140
11.219,-0.190,0.130
11.222,-0.205,0.125
11.225,-0.205,0.135
11.228,-0.205,0.135
11.231,-0.195,0.160
11.233,-0.185,0.160
11.236,-0.180,0.165
11.239,-0.190,0.145
11.242,-0.210,0.150
11.244,-0.215,0.145
11.247,-0.200,0.160
11.250,-0.195,0.165
11.253,-0.210,0.170
11.256,-0.210,0.160
11.258,-0.240,0.155
11.261,-0.220,0.160
11.264,-0.210,0.175
11.267,-0.215,0.180
11.269,-0.210,0.170
11.272,-0.225,0.175
11.275,-0.250,0.165
11.278,-0.230,0.185
11.281,-0.225,0.210
11.283,-0.220,0.215
11.286,-0.225,0.210
11.289,-0.230,0.185
11.292,-0.250,0.175
11.294,-0.245,0.175
11.297,-0.240,0.195
11.300,-0.240,0.185
11.303,-0.245,0.195
11.306,-0.250,0.180
11.308,-0.250,0.175
11.311,-0.235,0.175
11.314,-0.220,0.185
11.317,-0.245,0.195
11.319,-0.270,0.185
11.322,-0.270,0.190
11.325,-0.265,0.185
11.328,-0.255,0.175
11.331,-0.245,0.195
11.333,-0.250,0.190
11.336,-0.270,0.185
11.339,-0.305,0.170
11.342,-0.355,0.165
11.344,-0.390,0.155
11.347,-0.415,0.125
11.350,-0.425,0.080
11.353,-0.450,0.040
11.356,-0.460,-0.005
11.358,-0.455,-0.035
11.361,-0.425,-0.065
11.364,-0.390,-0.080
11.367,-0.355,-0.085
11.369,-0.290,-0.115
11.372,-0.225,-0.130
11.375,-0.185,-0.120
11.378,-0.125,-0.100
11.381,-0.065,-0.065
11.383,-0.010,-0.040
11.386,0.035,-0.010
11.389,0.065,0.035
11.392,0.130,0.080
11.394,0.220,0.145
11.397,0.255,0.165
11.400,0.190,0.195
11.403,0.130,0.220
11.406,0.145,0.265
11.408,0.210,0.340
11.411,0.245,0.450
11.414,0.205,0.540
11.417,0.120,0.620
11.419,0.035,0.680
11.422,-0.030,0.710
11.425,-0.145,0.745
11.428,-0.310,0.815
11.431,-0.480,0.845
11.433,-0.580,0.850
11.436,-0.590,0.815
11.439,-0.525,0.745
11.442,-0.420,0.665
11.444,-0.325,0.625
11.447,-0.285,0.555
11.450,-0.290,0.485
11.453,-0.295,0.395
11.456,-0.315,0.285
11.458,-0.335,0.180
11.461,-0.345,0.155
11.464,-0.325,0.150
11.467,-0.320,0.145
11.469,-0.315,0.120
11.472,-0.330,0.100
11.475,-0.345,0.095
11.478,-0.325,0.095
11.481,-0.330,0.115
11.483,-0.330,0.090
11.486,-0.345,0.080
11.489,-0.335,0.060
11.492,-0.345,0.045
11.494,-0.340,0.050
11.497,-0.330,0.070
11.500,-0.325,0.065
11.503,-0.325,0.045
11.506,-0.345,0.040
11.508,-0.360,0.025
11.511,-0.350,0.025
11.514,-0.340,0.035
11.517,-0.340,0.030
11.519,-0.345,0.010
11.522,-0.365,-0.005
11.525,-0.365,-0.010
11.528,-0.380,0.000
11.531,-0.365,0.000
11.533,-0.355,-0.010
11.536,-0.360,-0.015
11.539,-0.370,-0.020
11.542,-0.365,-0.020
11.544,-0.370,-0.020
11.547,-0.345,-0.020
11.550,-0.360,-0.035
11.553,-0.360,-0.045
11.556,-0.360,-0.055
11.558,-0.350,-0.040
11.561,-0.350,-0.030
11.564,-0.335,-0.045
11.567,-0.315,-0.040
11.569,-0.300,-0.030
11.572,-0.305,-0.040
11.575,-0.315,-0.050
11.578,-0.305,-0.040
11.581,-0.285,-0.030
11.583,-0.280,-0.030
11.586,-0.275,-0.040
11.589,-0.275,-0.060
11.592,-0.240,-0.045
11.594,-0.215,-0.045
11.597,-0.185,-0.065
11.600,-0.190,-0.085
11.603,-0.185,-0.110
11.606,-0.180,-0.130
11.608,-0.170,-0.145
11.611,-0.170,-0.165
11.614,-0.175,-0.170
11.617,-0.165,-0.195
11.619,-0.160,-0.220
11.622,-0.155,-0.240
11.625,-0.135,-0.230
11.628,-0.120,-0.235
11.631,-0.120,-0.225
11.633,-0.160,-0.250
11.636,-0.210,-0.270
11.639,-0.260,-0.300
11.642,-0.300,-0.310
11.644,-0.310,-0.295
11.647,-0.345,-0.305
11.650,-0.375,-0.315
11.653,-0.420,-0.340
11.656,-0.445,-0.350
11.658,-0.455,-0.355
11.661,-0.425,-0.345
11.664,-0.420,-0.330
11.667,-0.405,-0.345
11.669,-0.415,-0.330
11.672,-0.420,-0.350
11.675,-0.420,-0.330
11.678,-0.425,-0.330
11.681,-0.410,-0.335
11.683,-0.395,-0.305
11.686,-0.395,-0.300
11.689,-0.400,-0.305
11.692,-0.405,-0.270
11.694,-0.395,-0.260
11.697,-0.385,-0.240
11.700,-0.380,-0.225
11.703,-0.380,-0.215
11.706,-0.375,-0.205
11.708,-0.365,-0.165
11.711,-0.365,-0.135
11.714,-0.340,-0.105
11.717,-0.335,-0.095
11.719,-0.335,-0.080
11.722,-0.345,-0.070
11.725,-0.350,-0.050
11.728,-0.345,-0.030
11.731,-0.335,-0.015
11.733,-0.315,0.005
11.736,-0.325,0.000
11.739,-0.320,0.010
11.742,-0.315,0.040
11.744,-0.320,0.060
11.747,-0.325,0.070
11.750,-0.325,0.090
11.753,-0.310,0.100
11.756,-0.305,0.090
11.758,-0.320,0.100
11.761,-0.315,0.110
11.764,-0.315,0.120
11.767,-0.315,0.130
11.769,-0.315,0.135
11.772,-0.315,0.135
11.775,-0.330,0.145
11.778,-0.325,0.145
11.781,-0.325,0.130
11.783,-0.315,0.140
11.786,-0.320,0.115
11.789,-0.335,0.125
11.792,-0.335,0.125
11.794,-0.320,0.155
11.797,-0.305,0.150
11.800,-0.300,0.165
11.803,-0.295,0.140
11.806,-0.310,0.145
11.808,-0.320,0.160
11.811,-0.310,0.155
11.814,-0.305,0.170
11.817,-0.310,0.175
11.819,-0.310,0.170
11.822,-0.315,0.160
11.825,-0.315,0.150
11.828,-0.305,0.165
11.831,-0.285,0.160
11.833,-0.275,0.170
11.836,-0.280,0.165
11.839,-0.295,0.150
11.842,-0.295,0.150
11.844,-0.300,0.165
11.847,-0.280,0.175
11.850,-0.275,0.180
11.853,-0.280,0.175
11.856,-0.295,0.145
11.858,-0.290,0.165
11.861,-0.285,0.170
11.864,-0.280,0.180
11.867,-0.285,0.180
11.869,-0.265,0.180
11.872,-0.250,0.175
11.875,-0.270,0.165
11.878,-0.280,0.170
11.881,-0.265,0.175
11.883,-0.245,0.180
11.886,-0.265,0.165
11.889,-0.270,0.140
11.892,-0.265,0.145
11.894,-0.255,0.145
11.897,-0.235,0.160
11.900,-0.225,0.165
11.903,-0.245,0.165
11.906,-0.255,0.160
11.908,-0.260,0.155
11.911,-0.245,0.150
11.914,-0.240,0.175
11.917,-0.225,0.170
11.919,-0.240,0.170
11.922,-0.230,0.160
11.925,-0.230,0.165
11.928,-0.225,0.185
11.931,-0.230,0.180
11.933,-0.250,0.165
11.936,-0.265,0.175
11.939,-0.260,0.155
11.942,-0.255,0.165
11.944,-0.235,0.175
11.947,-0.215,0.165
11.950,-0.210,0.165
11.953,-0.225,0.160
11.956,-0.240,0.155
11.958,-0.260,0.155
11.961,-0.240,0.160
11.964,-0.240,0.160
11.967,-0.235,0.170
11.969,-0.230,0.155
11.972,-0.220,0.150
11.975,-0.220,0.150
11.978,-0.230,0.145
11.981,-0.235,0.155
11.983,-0.230,0.170
11.986,-0.230,0.170
11.989,-0.240,0.160
11.992,-0.250,0.160
11.994,-0.245,0.160
11.997,-0.230,0.175
12.000,-0.230,0.165
12.003,-0.230,0.155
12.006,-0.235,0.130
12.008,-0.255,0.140
12.011,-0.225,0.145
12.014,-0.230,0.150
12.017,-0.210,0.155
12.019,-0.205,0.150
12.022,-0.210,0.140
12.025,-0.220,0.140
12.028,-0.220,0.155
12.031,-0.195,0.150
12.033,-0.190,0.165
12.036,-0.200,0.155
12.039,-0.200,0.155
12.042,-0.205,0.155
12.044,-0.205,0.150
12.047,-0.205,0.155
12.050,-0.190,0.145
12.053,-0.195,0.135
12.056,-0.190,0.140
12.058,-0.200,0.140
12.061,-0.215,0.155
12.064,-0.210,0.150
12.067,-0.195,0.160
12.069,-0.195,0.160
12.072,-0.200,0.150
12.075,-0.205,0.145
12.078,-0.200,0.165
12.081,-0.190,0.170
12.083,-0.185,0.160
12.086,-0.190,0.150
12.089,-0.185,0.150
12.092,-0.195,0.160
12.094,-0.200,0.175
12.097,-0.205,0.180
12.100,-0.195,0.175
12.103,-0.190,0.175
12.106,-0.180,0.155
12.108,-0.205,0.165
12.111,-0.200,0.180
12.114,-0.200,0.185
12.117,-0.195,0.170
12.119,-0.200,0.150
12.122,-0.205,0.145
12.125,-0.220,0.150
12.128,-0.215,0.155
12.131,-0.195,0.170
12.133,-0.180,0.170
12.136,-0.155,0.165
12.139,-0.155,0.165
12.142,-0.175,0.160
12.144,-0.185,0.160
12.147,-0.180,0.165
12.150,-0.165,0.175
12.153,-0.180,0.165
12.156,-0.200,0.160
12.158,-0.200,0.150
12.161,-0.195,0.170
12.164,-0.190,0.175
12.167,-0.190,0.170
12.169,-0.185,0.165
12.172,-0.180,0.155
12.175,-0.190,0.165
12.178,-0.190,0.170
12.181,-0.195,0.170
12.183,-0.195,0.165
12.186,-0.195,0.160
12.189,-0.195,0.150
12.192,-0.195,0.170
12.194,-0.175,0.165
12.197,-0.170,0.190
12.200,-0.175,0.175
12.203,-0.190,0.145
12.206,-0.190,0.155
12.208,-0.195,0.165
12.211,-0.190,0.180
12.214,-0.190,0.180
12.217,-0.180,0.175
12.219,-0.185,0.170
12.222,-0.195,0.165
12.225,-0.195,0.160
12.228,-0.185,0.175
12.231,-0.180,0.180
12.233,-0.180,0.180
12.236,-0.170,0.165
12.239,-0.185,0.160
12.242,-0.185,0.155
12.244,-0.175,0.165
12.247,-0.170,0.180
12.250,-0.160,0.180
12.253,-0.185,0.180
12.256,-0.180,0.155
12.258,-0.210,0.170
12.261,-0.205,0.165
12.264,-0.180,0.180
12.267,-0.185,0.180
12.269,-0.180,0.175
12.272,-0.190,0.170
12.275,-0.185,0.175
12.278,-0.180,0.175
12.281,-0.170,0.180
12.283,-0.175,0.180
12.286,-0.175,0.170
12.289,-0.180,0.150
12.292,-0.180,0.165
12.294,-0.175,0.165
12.297,-0.180,0.150
12.300,-0.205,0.155
12.303,-0.180,0.140
12.306,-0.200,0.135
12.308,-0.195,0.140
12.311,-0.185,0.160
12.314,-0.180,0.160
12.317,-0.170,0.150
12.319,-0.170,0.150
12.322,-0.180,0.135
12.325,-0.180,0.150
12.328,-0.165,0.160
12.331,-0.160,0.165
12.333,-0.175,0.160
12.336,-0.190,0.145
12.339,-0.190,0.130
12.342,-0.190,0.135
12.344,-0.190,0.145
12.347,-0.175,0.145
12.350,-0.170,0.135
12.353,-0.175,0.140
12.356,-0.185,0.135
12.358,-0.200,0.145
12.361,-0.190,0.145
12.364,-0.170,0.130
12.367,-0.170,0.145
12.369,-0.160,0.135
12.372,-0.170,0.135
12.375,-0.195,0.135
12.378,-0.185,0.145
12.381,-0.175,0.155
12.383,-0.175,0.170
12.386,-0.170,0.140
12.389,-0.170,0.150
12.392,-0.195,0.145
12.394,-0.205,0.150
12.397,-0.190,0.140
12.400,-0.175,0.125
12.403,-0.190,0.130
12.406,-0.190,0.115
12.408,-0.190,0.125
12.411,-0.185,0.130
12.414,-0.185,0.135
12.417,-0.160,0.130
12.419,-0.175,0.125
12.422,-0.185,0.130
12.425,-0.185,0.135
12.428,-0.175,0.145
12.431,-0.170,0.150
12.433,-0.160,0.145
12.436,-0.165,0.145
12.439,-0.170,0.115
12.442,-0.180,0.120
12.444,-0.180,0.155
12.447,-0.185,0.140
12.450,-0.165,0.140
12.453,-0.175,0.125
12.456,-0.190,0.105
12.458,-0.180,0.120
12.461,-0.185,0.120
12.464,-0.170,0.135
12.467,-0.170,0.135
12.469,-0.170,0.125
12.472,-0.170,0.125
12.475,-0.175,0.125
12.478,-0.160,0.150
12.481,-0.165,0.145
12.483,-0.170,0.125
12.486,-0.185,0.105
12.489,-0.195,0.105
12.492,-0.185,0.115
12.494,-0.185,0.140
12.497,-0.175,0.135
12.500,-0.175,0.115
12.503,-0.165,0.120
12.506,-0.185,0.110
12.508,-0.175,0.110
12.511,-0.165,0.125
12.514,-0.170,0.130
12.517,-0.155,0.130
12.519,-0.175,0.130
12.522,-0.190,0.100
12.525,-0.195,0.105
12.528,-0.170,0.110
12.531,-0.140,0.140
12.533,-0.105,0.150
12.536,-0.115,0.155
12.539,-0.120,0.140
12.542,-0.110,0.155
12.544,-0.100,0.180
12.547,-0.085,0.205
12.550,-0.075,0.215
12.553,-0.065,0.210
12.556,-0.050,0.205
12.558,-0.040,0.200
12.561,-0.020,0.195
12.564,0.010,0.190
12.567,0.020,0.185
12.569,0.025,0.155
12.572,0.025,0.115
12.575,0.025,0.115
12.578,0.035,0.110
12.581,0.045,0.130
12.583,0.065,0.130
12.586,0.065,0.120
12.589,0.070,0.125
12.592,0.065,0.140
12.594,0.075,0.155
12.597,0.040,0.145
12.600,-0.005,0.145
12.603,-0.055,0.130
12.606,-0.115,0.115
12.608,-0.145,0.115
12.611,-0.180,0.130
12.614,-0.205,0.105
12.617,-0.215,0.090
12.619,-0.225,0.075
12.622,-0.230,0.065
12.625,-0.220,0.055
12.628,-0.215,0.065
12.631,-0.205,0.065
12.633,-0.205,0.055
12.636,-0.225,0.045
12.639,-0.225,0.045
12.642,-0.240,0.040
12.644,-0.230,0.040
12.647,-0.220,0.060
12.650,-0.205,0.060
12.653,-0.215,0.070
12.656,-0.235,0.060
12.658,-0.245,0.050
12.661,-0.240,0.035
12.664,-0.215,0.035
12.667,-0.220,0.025
12.669,-0.230,0.020
12.672,-0.245,0.020
12.675,-0.240,0.030
12.678,-0.230,0.035
12.681,-0.210,0.040
12.683,-0.215,0.035
12.686,-0.220,0.030
12.689,-0.225,0.005
12.692,-0.235,0.015
12.694,-0.225,0.030
12.697,-0.225,0.050
12.700,-0.205,0.060
12.703,-0.210,0.045
12.706,-0.215,0.015
12.708,-0.235,-0.025
12.711,-0.240,-0.085
12.714,-0.225,-0.160
12.717,-0.200,-0.270
12.719,-0.180,-0.390
12.722,-0.175,-0.575
12.725,-0.190,-0.805
12.728,-0.175,-1.080
12.731,-0.190,-1.315
12.733,-0.265,-1.465
12.736,-0.355,-1.485
12.739,-0.410,-1.465
12.742,-0.420,-1.400
12.744,-0.420,-1.350
12.747,-0.430,-1.295
12.750,-0.445,-1.245
12.753,-0.480,-1.215
12.756,-0.540,-1.200
12.758,-0.570,-1.180
12.761,-0.590,-1.145
12.764,-0.630,-1.090
12.767,-0.660,-1.040
12.769,-0.685,-1.005
12.772,-0.710,-0.965
12.775,-0.745,-0.925
12.778,-0.755,-0.855
12.781,-0.765,-0.815
12.783,-0.780,-0.760
12.786,-0.785,-0.715
12.789,-0.760,-0.665
12.792,-0.740,-0.565
12.794,-0.725,-0.465
12.797,-0.725,-0.385
12.800,-0.685,-0.325
12.803,-0.595,-0.250
12.806,-0.495,-0.195
12.808,-0.430,-0.115
12.811,-0.385,-0.050
12.814,-0.360,0.025
12.817,-0.350,0.070
12.819,-0.305,0.110
12.822,-0.265,0.165
12.825,-0.215,0.215
12.828,-0.190,0.255
12.831,-0.175,0.285
12.833,-0.155,0.300
12.836,-0.125,0.305
12.839,-0.145,0.310
12.842,-0.165,0.320
12.844,-0.165,0.335
12.847,-0.155,0.350
12.850,-0.140,0.350
12.853,-0.130,0.345
12.856,-0.125,0.345
12.858,-0.135,0.365
12.861,-0.135,0.370
12.864,-0.125,0.395
12.867,-0.125,0.385
12.869,-0.130,0.400
12.872,-0.125,0.390
12.875,-0.130,0.405
12.878,-0.125,0.405
12.881,-0.120,0.410
12.883,-0.120,0.420
12.886,-0.135,0.395
12.889,-0.130,0.405
12.892,-0.145,0.415
12.894,-0.135,0.425
12.897,-0.130,0.420
12.900,-0.130,0.420
12.903,-0.125,0.415
12.906,-0.130,0.410
12.908,-0.145,0.420
12.911,-0.140,0.425
12.914,-0.125,0.430
12.917,-0.115,0.425
12.919,-0.125,0.415
12.922,-0.145,0.410
12.925,-0.140,0.405
12.928,-0.130,0.440
12.931,-0.130,0.445
12.933,-0.130,0.430
12.936,-0.125,0.420
12.939,-0.125,0.420
12.942,-0.115,0.435
12.944,-0.100,0.445
12.947,-0.080,0.455
12.950,-0.070,0.445
12.953,-0.070,0.415
12.956,-0.075,0.400
12.958,-0.085,0.430
12.961,-0.095,0.425
12.964,-0.080,0.440
12.967,-0.060,0.440
12.969,-0.060,0.425
12.972,-0.070,0.425
12.975,-0.075,0.420
12.978,-0.080,0.440
12.981,-0.090,0.430
12.983,-0.085,0.425
12.986,-0.070,0.405
12.989,-0.055,0.405
12.992,-0.045,0.410
12.994,-0.050,0.425
12.997,-0.050,0.425
13.000,-0.045,0.420
13.003,-0.045,0.415
13.006,-0.040,0.395
13.008,-0.040,0.405
13.011,-0.030,0.415
13.014,-0.020,0.415
13.017,-0.020,0.405
13.019,-0.040,0.395
13.022,-0.045,0.380
13.025,-0.055,0.380
13.028,-0.040,0.370
13.031,-0.025,0.385
13.033,-0.020,0.370
13.036,-0.020,0.375
13.039,-0.040,0.350
13.042,-0.045,0.355
13.044,-0.060,0.360
13.047,-0.045,0.345
13.050,-0.040,0.345
13.053,-0.055,0.320
13.056,-0.050,0.315
13.058,-0.055,0.320
13.061,-0.045,0.325
13.064,-0.030,0.310
13.067,-0.045,0.295
13.069,-0.055,0.295
13.072,-0.060,0.265
13.075,-0.070,0.265
13.078,-0.055,0.265
13.081,-0.055,0.255
13.083,-0.055,0.250
13.086,-0.060,0.215
13.089,-0.070,0.205
13.092,-0.065,0.205
13.094,-0.070,0.195
13.097,-0.070,0.205
13.100,-0.075,0.190
13.103,-0.090,0.170
13.106,-0.095,0.155
13.108,-0.110,0.165
13.111,-0.105,0.165
13.114,-0.085,0.180
13.117,-0.090,0.160
13.119,-0.100,0.140
13.122,-0.115,0.135
13.125,-0.130,0.120
13.128,-0.110,0.130
13.131,-0.125,0.135
13.133,-0.100,0.130
13.136,-0.110,0.115
13.139,-0.115,0.110
13.142,-0.115,0.115
13.144,-0.115,0.120
13.147,-0.105,0.125
13.150,-0.110,0.120
13.153,-0.120,0.115
13.156,-0.125,0.115
13.158,-0.140,0.135
13.161,-0.130,0.135
13.164,-0.115,0.145
13.167,-0.115,0.135
13.169,-0.120,0.140
13.172,-0.130,0.135
13.175,-0.120,0.155
13.178,-0.125,0.155
13.181,-0.115,0.160
13.183,-0.125,0.155
13.186,-0.130,0.155
13.189,-0.145,0.155
13.192,-0.150,0.160
13.194,-0.145,0.170
13.197,-0.135,0.195
13.200,-0.120,0.190
13.203,-0.120,0.180
13.206,-0.130,0.165
13.208,-0.140,0.180
13.211,-0.140,0.190
13.214,-0.120,0.210
13.217,-0.110,0.210
13.219,-0.130,0.210
13.222,-0.140,0.200
13.225,-0.145,0.205
13.228,-0.130,0.220
13.231,-0.120,0.235
13.233,-0.130,0.225
13.236,-0.150,0.225
13.239,-0.150,0.220
13.242,-0.155,0.220
13.244,-0.135,0.220
13.247,-0.135,0.235
13.250,-0.145,0.235
13.253,-0.155,0.215
13.256,-0.165,0.205
13.258,-0.165,0.225
13.261,-0.180,0.235
13.264,-0.170,0.235
13.267,-0.175,0.240
13.269,-0.185,0.225
13.272,-0.190,0.215
13.275,-0.205,0.225
13.278,-0.210,0.225
13.281,-0.220,0.240
13.283,-0.220,0.225
13.286,-0.225,0.220
13.289,-0.225,0.215
13.292,-0.215,0.210
13.294,-0.210,0.220
13.297,-0.210,0.225
13.300,-0.225,0.215
13.303,-0.235,0.210
13.306,-0.240,0.175
13.308,-0.255,0.185
13.311,-0.235,0.195
13.314,-0.220,0.200
13.317,-0.220,0.195
13.319,-0.215,0.180
13.322,-0.235,0.175
13.325,-0.260,0.170
13.328,-0.255,0.180
13.331,-0.240,0.175
13.333,-0.245,0.165
13.336,-0.245,0.165
13.339,-0.255,0.170
13.342,-0.240,0.170
13.344,-0.210,0.170
13.347,-0.210,0.170
13.350,-0.210,0.160
13.353,-0.210,0.160
13.356,-0.220,0.140
13.358,-0.230,0.155
13.361,-0.225,0.170
13.364,-0.215,0.160
13.367,-0.195,0.160
13.369,-0.185,0.150
13.372,-0.180,0.145
13.375,-0.180,0.150
13.378,-0.175,0.155
13.381,-0.175,0.160
13.383,-0.185,0.160
13.386,-0.195,0.140
13.389,-0.200,0.125
13.392,-0.200,0.135
13.394,-0.200,0.145
13.397,-0.190,0.160
13.400,-0.200,0.160
13.403,-0.195,0.145
13.406,-0.185,0.160
13.408,-0.185,0.155
13.411,-0.190,0.165
13.414,-0.180,0.145
13.417,-0.180,0.150
13.419,-0.180,0.130
13.422,-0.180,0.135
13.425,-0.170,0.140
13.428,-0.160,0.145
13.431,-0.165,0.150
13.433,-0.180,0.165
13.436,-0.175,0.140
13.439,-0.180,0.125
13.442,-0.190,0.130
13.444,-0.175,0.140
13.447,-0.165,0.140
13.450,-0.150,0.140
13.453,-0.165,0.125
13.456,-0.180,0.110
13.458,-0.190,0.120
13.461,-0.175,0.135
13.464,-0.170,0.150
13.467,-0.165,0.145
13.469,-0.175,0.115
13.472,-0.175,0.115
13.475,-0.180,0.105
13.478,-0.170,0.120
13.481,-0.165,0.120
13.483,-0.175,0.125
13.486,-0.170,0.115
13.489,-0.175,0.105
13.492,-0.185,0.100
13.494,-0.185,0.120
13.497,-0.180,0.115
13.500,-0.170,0.115
13.503,-0.160,0.115
13.506,-0.145,0.115
13.508,-0.145,0.110
13.511,-0.140,0.125
13.514,-0.140,0.130
13.517,-0.145,0.120
13.519,-0.155,0.110
13.522,-0.160,0.105
13.525,-0.155,0.115
13.528,-0.140,0.135
13.531,-0.105,0.130
13.533,-0.125,0.140
13.536,-0.110,0.140
13.539,-0.105,0.140
13.542,-0.105,0.160
13.544,-0.085,0.180
13.547,-0.080,0.200
13.550,-0.070,0.210
13.553,-0.065,0.200
13.556,-0.055,0.185
13.558,-0.050,0.195
13.561,-0.035,0.190
13.564,-0.015,0.180
13.567,0.010,0.175
13.569,0.055,0.155
13.572,0.055,0.145
13.575,0.055,0.140
13.578,0.060,0.135
13.581,0.055,0.130
13.583,0.045,0.115
13.586,0.055,0.110
13.589,0.045,0.105
13.592,0.040,0.130
13.594,0.035,0.130
13.597,0.035,0.135
13.600,0.050,0.135
13.603,0.020,0.120
13.606,-0.025,0.110
13.608,-0.065,0.115
13.611,-0.100,0.120
13.614,-0.140,0.125
13.617,-0.175,0.110
13.619,-0.220,0.095
13.622,-0.245,0.075
13.625,-0.230,0.070
13.628,-0.205,0.080
13.631,-0.180,0.090
13.633,-0.180,0.080
13.636,-0.195,0.070
13.639,-0.205,0.065
13.642,-0.210,0.070
13.644,-0.205,0.085
13.647,-0.195,0.080
13.650,-0.190,0.065
13.653,-0.205,0.065
13.656,-0.215,0.050
13.658,-0.215,0.060
13.661,-0.190,0.065
13.664,-0.195,0.085
13.667,-0.200,0.070
13.669,-0.205,0.055
13.672,-0.220,0.050
13.675,-0.215,0.065
13.678,-0.215,0.060
13.681,-0.210,0.075
13.683,-0.200,0.075
13.686,-0.220,0.065
13.689,-0.220,0.040
13.692,-0.220,0.055
13.694,-0.210,0.065
13.697,-0.215,0.070
13.700,-0.215,0.060
13.703,-0.210,0.040
13.706,-0.200,0.035
13.708,-0.185,0.035
13.711,-0.195,0.050
13.714,-0.195,0.060
13.717,-0.205,0.055
13.719,-0.205,0.055
13.722,-0.215,0.045
13.725,-0.200,0.040
13.728,-0.210,0.035
13.731,-0.230,-0.025
13.733,-0.250,-0.105
13.736,-0.250,-0.205
13.739,-0.225,-0.325
13.742,-0.195,-0.445
13.744,-0.165,-0.615
13.747,-0.160,-0.835
13.750,-0.175,-1.125
13.753,-0.210,-1.405
13.756,-0.290,-1.560
13.758,-0.375,-1.585
13.761,-0.405,-1.535
13.764,-0.430,-1.485
13.767,-0.425,-1.450
13.769,-0.425,-1.410
13.772,-0.440,-1.370
13.775,-0.475,-1.320
13.778,-0.510,-1.270
13.781,-0.550,-1.250
13.783,-0.570,-1.230
13.786,-0.620,-1.215
13.789,-0.640,-1.185
13.792,-0.680,-1.125
13.794,-0.685,-1.075
13.797,-0.710,-1.005
13.800,-0.750,-0.960
13.803,-0.790,-0.920
13.806,-0.825,-0.880
13.808,-0.835,-0.815
13.811,-0.805,-0.740
13.814,-0.755,-0.645
13.817,-0.725,-0.540
13.819,-0.710,-0.455
13.822,-0.685,-0.380
13.825,-0.610,-0.295
13.828,-0.520,-0.215
13.831,-0.445,-0.120
13.833,-0.395,-0.060
13.836,-0.370,-0.005
13.839,-0.335,0.045
13.842,-0.300,0.100
13.844,-0.245,0.180
13.847,-0.195,0.225
13.850,-0.175,0.270
13.853,-0.155,0.265
13.856,-0.140,0.280
13.858,-0.145,0.295
13.861,-0.130,0.325
13.864,-0.125,0.335
13.867,-0.105,0.345
13.869,-0.115,0.345
13.872,-0.120,0.345
13.875,-0.130,0.350
13.878,-0.130,0.365
13.881,-0.120,0.375
13.883,-0.125,0.370
13.886,-0.120,0.365
13.889,-0.115,0.370
13.892,-0.110,0.375
13.894,-0.095,0.395
13.897,-0.080,0.400
13.900,-0.080,0.410
13.903,-0.090,0.390
13.906,-0.100,0.400
13.908,-0.110,0.410
13.911,-0.100,0.425
13.914,-0.075,0.425
13.917,-0.080,0.435
13.919,-0.090,0.420
13.922,-0.105,0.425
13.925,-0.105,0.435
13.928,-0.095,0.440
13.931,-0.090,0.440
13.933,-0.095,0.430
13.936,-0.095,0.425
13.939,-0.090,0.420
13.942,-0.095,0.425
13.944,-0.075,0.440
13.947,-0.070,0.450
13.950,-0.080,0.450
13.953,-0.090,0.430
13.956,-0.110,0.425
13.958,-0.110,0.440
13.961,-0.085,0.450
13.964,-0.055,0.450
13.967,-0.040,0.465
13.969,-0.050,0.460
13.972,-0.055,0.440
13.975,-0.055,0.460
13.978,-0.060,0.460
13.981,-0.040,0.480
13.983,-0.035,0.475
13.986,-0.030,0.465
13.989,-0.035,0.455
13.992,-0.040,0.465
13.994,-0.025,0.470
13.997,-0.005,0.470
14.000,0.000,0.465
14.003,-0.005,0.465
14.006,-0.020,0.455
14.008,-0.015,0.470
14.011,0.005,0.460
14.014,0.015,0.465
14.017,0.010,0.465
14.019,0.010,0.460
14.022,-0.005,0.445
14.025,-0.005,0.450
14.028,0.010,0.450
14.031,0.020,0.460
14.033,0.030,0.455
14.036,0.020,0.455
14.039,0.020,0.440
14.042,0.005,0.450
14.044,0.015,0.450
14.047,0.040,0.460
14.050,0.050,0.450
14.053,0.040,0.430
14.056,0.035,0.405
14.058,0.030,0.405
14.061,0.025,0.410
14.064,0.045,0.410
14.067,0.035,0.395
14.069,0.035,0.375
14.072,0.005,0.360
14.075,0.010,0.360
14.078,0.025,0.375
14.081,0.035,0.375
14.083,0.035,0.345
14.086,0.025,0.330
14.089,0.000,0.315
14.092,-0.010,0.310
14.094,-0.005,0.310
14.097,0.010,0.310
14.100,-0.005,0.300
14.103,-0.020,0.270
14.106,-0.030,0.250
14.108,-0.040,0.245
14.111,-0.040,0.235
14.114,-0.030,0.240
14.117,-0.045,0.220
14.119,-0.055,0.195
14.122,-0.070,0.165
14.125,-0.095,0.170
14.128,-0.085,0.185
14.131,-0.080,0.175
14.133,-0.100,0.170
14.136,-0.110,0.150
14.139,-0.110,0.140
14.142,-0.100,0.150
14.144,-0.095,0.165
14.147,-0.090,0.160
14.150,-0.100,0.155
14.153,-0.115,0.145
14.156,-0.125,0.135
14.158,-0.135,0.135
14.161,-0.135,0.165
14.164,-0.120,0.150
14.167,-0.125,0.160
14.169,-0.135,0.140
14.172,-0.130,0.135
14.175,-0.150,0.145
14.178,-0.150,0.140
14.181,-0.140,0.150
14.183,-0.140,0.155
14.186,-0.160,0.140
14.189,-0.155,0.145
14.192,-0.165,0.150
14.194,-0.140,0.160
14.197,-0.120,0.180
14.200,-0.135,0.165
14.203,-0.145,0.170
14.206,-0.155,0.165
14.208,-0.165,0.175
14.211,-0.155,0.180
14.214,-0.145,0.195
14.217,-0.145,0.185
14.219,-0.145,0.180
14.222,-0.170,0.185
14.225,-0.185,0.190
14.228,-0.165,0.200
14.231,-0.160,0.205
14.233,-0.160,0.200
14.236,-0.185,0.195
14.239,-0.185,0.190
14.242,-0.185,0.195
14.244,-0.170,0.215
14.247,-0.160,0.225
14.250,-0.170,0.220
14.253,-0.185,0.200
14.256,-0.190,0.195
14.258,-0.190,0.215
14.261,-0.185,0.225
14.264,-0.185,0.230
14.267,-0.200,0.220
14.269,-0.195,0.210
14.272,-0.195,0.205
14.275,-0.185,0.220
14.278,-0.190,0.225
14.281,-0.190,0.230
14.283,-0.200,0.220
14.286,-0.210,0.205
14.289,-0.210,0.205
14.292,-0.210,0.200
14.294,-0.215,0.200
14.297,-0.225,0.220
14.300,-0.235,0.210
14.303,-0.220,0.210
14.306,-0.235,0.195
14.308,-0.240,0.205
14.311,-0.230,0.205
14.314,-0.215,0.200
14.317,-0.230,0.210
14.319,-0.225,0.195
14.322,-0.225,0.195
14.325,-0.250,0.190
14.328,-0.240,0.200
14.331,-0.220,0.200
14.333,-0.220,0.185
14.336,-0.220,0.180
14.339,-0.235,0.170
14.342,-0.250,0.170
14.344,-0.235,0.175
14.347,-0.235,0.185
14.350,-0.225,0.175
14.353,-0.230,0.160
14.356,-0.250,0.150
14.358,-0.255,0.155
14.361,-0.235,0.165
14.364,-0.205,0.165
14.367,-0.205,0.175
14.369,-0.200,0.165
14.372,-0.205,0.150
14.375,-0.215,0.165
14.378,-0.215,0.180
14.381,-0.220,0.170
14.383,-0.210,0.175
14.386,-0.215,0.155
14.389,-0.230,0.145
14.392,-0.225,0.140
14.394,-0.210,0.145
14.397,-0.195,0.145
14.400,-0.205,0.140
14.403,-0.220,0.145
14.406,-0.230,0.135
14.408,-0.230,0.145
14.411,-0.205,0.155
14.414,-0.195,0.175
14.417,-0.205,0.160
14.419,-0.210,0.145
14.422,-0.215,0.150
14.425,-0.235,0.150
14.428,-0.225,0.165
14.431,-0.215,0.160
14.433,-0.200,0.165
14.436,-0.200,0.145
14.439,-0.195,0.140
14.442,-0.200,0.135
14.444,-0.185,0.150
14.447,-0.185,0.165
14.450,-0.180,0.155
14.453,-0.195,0.135
14.456,-0.205,0.130
14.458,-0.200,0.135
14.461,-0.195,0.155
14.464,-0.185,0.150
14.467,-0.185,0.135
14.469,-0.185,0.135
14.472,-0.205,0.125
14.475,-0.205,0.130
14.478,-0.195,0.145
14.481,-0.190,0.140
14.483,-0.190,0.145
14.486,-0.195,0.135
14.489,-0.200,0.135
14.492,-0.195,0.135
14.494,-0.200,0.155
14.497,-0.185,0.150
14.500,-0.195,0.135
14.503,-0.185,0.125
14.506,-0.200,0.120
14.508,-0.185,0.140
14.511,-0.190,0.145
14.514,-0.180,0.150
14.517,-0.175,0.145
14.519,-0.185,0.130
14.522,-0.190,0.115
14.525,-0.215,0.135
14.528,-0.200,0.130
14.531,-0.180,0.145
14.533,-0.180,0.135
14.536,-0.190,0.140
14.539,-0.205,0.125
14.542,-0.215,0.140
14.544,-0.200,0.145
14.547,-0.195,0.155
14.550,-0.170,0.145
14.553,-0.190,0.125
14.556,-0.195,0.130
14.558,-0.205,0.145
14.561,-0.210,0.140
14.564,-0.175,0.145
14.567,-0.170,0.145
14.569,-0.175,0.130
14.572,-0.195,0.120
14.575,-0.200,0.125
14.578,-0.205,0.140
14.581,-0.195,0.150
14.583,-0.180,0.140
14.586,-0.175,0.135
14.589,-0.180,0.160
14.592,-0.155,0.175
14.594,-0.130,0.190
14.597,-0.115,0.205
14.600,-0.100,0.220
14.603,-0.110,0.215
14.606,-0.120,0.210
14.608,-0.120,0.220
14.611,-0.105,0.225
14.614,-0.070,0.230
14.617,-0.060,0.220
14.619,-0.050,0.195
14.622,-0.035,0.170
14.625,-0.025,0.175
14.628,-0.005,0.170
14.631,0.010,0.145
14.633,0.025,0.155
14.636,0.020,0.140
14.639,0.015,0.130
14.642,-0.005,0.140
14.644,0.010,0.155
14.647,0.040,0.160
14.650,0.040,0.165
14.653,0.035,0.150
14.656,-0.010,0.130
14.658,-0.050,0.130
14.661,-0.085,0.140
14.664,-0.110,0.125
14.667,-0.150,0.130
14.669,-0.185,0.125
14.672,-0.250,0.090
14.675,-0.290,0.085
14.678,-0.290,0.095
14.681,-0.260,0.095
14.683,-0.235,0.090
14.686,-0.240,0.070
14.689,-0.250,0.060
14.692,-0.260,0.070
14.694,-0.250,0.085
14.697,-0.245,0.080
14.700,-0.255,0.075
14.703,-0.265,0.070
14.706,-0.280,0.070
14.708,-0.270,0.085
14.711,-0.240,0.090
14.714,-0.225,0.105
14.717,-0.250,0.095
14.719,-0.270,0.070
14.722,-0.280,0.055
14.725,-0.265,0.070
14.728,-0.250,0.070
14.731,-0.250,0.075
14.733,-0.235,0.075
14.736,-0.255,0.055
14.739,-0.275,0.055
14.742,-0.270,0.065
14.744,-0.255,0.070
14.747,-0.260,0.070
14.750,-0.255,0.060
14.753,-0.265,0.050
14.756,-0.275,0.045
14.758,-0.265,0.055
14.761,-0.255,0.060
14.764,-0.240,0.055
14.767,-0.245,0.065
14.769,-0.250,0.045
14.772,-0.265,0.055
14.775,-0.270,0.065
14.778,-0.280,0.070
14.781,-0.270,0.050
14.783,-0.285,0.010
14.786,-0.320,-0.055
14.789,-0.335,-0.160
14.792,-0.350,-0.265
14.794,-0.335,-0.395
14.797,-0.310,-0.550
14.800,-0.310,-0.765
14.803,-0.310,-1.030
14.806,-0.320,-1.325
14.808,-0.365,-1.550
14.811,-0.450,-1.645
14.814,-0.520,-1.625
14.817,-0.545,-1.560
14.819,-0.540,-1.515
14.822,-0.525,-1.485
14.825,-0.540,-1.435
14.828,-0.540,-1.375
14.831,-0.565,-1.310
14.833,-0.625,-1.290
14.836,-0.680,-1.275
14.839,-0.720,-1.260
14.842,-0.735,-1.220
14.844,-0.745,-1.160
14.847,-0.750,-1.105
14.850,-0.790,-1.045
14.853,-0.855,-1.000
14.856,-0.885,-0.940
14.858,-0.885,-0.875
14.861,-0.890,-0.810
14.864,-0.860,-0.750
14.867,-0.825,-0.650
14.869,-0.765,-0.565
14.872,-0.745,-0.470
14.875,-0.725,-0.370
14.878,-0.665,-0.260
14.881,-0.565,-0.165
14.883,-0.495,-0.105
14.886,-0.445,-0.045
14.889,-0.415,-0.005
14.892,-0.375,0.080
14.894,-0.325,0.145
14.897,-0.255,0.200
14.900,-0.230,0.225
14.903,-0.210,0.250
14.906,-0.205,0.275
14.908,-0.200,0.300
14.911,-0.185,0.315
14.914,-0.180,0.330
14.917,-0.170,0.330
14.919,-0.185,0.345
14.922,-0.185,0.345
14.925,-0.185,0.365
14.928,-0.165,0.375
14.931,-0.155,0.385
14.933,-0.155,0.380
14.936,-0.160,0.400
14.939,-0.155,0.390
14.942,-0.145,0.405
14.944,-0.155,0.410
14.947,-0.140,0.420
14.950,-0.150,0.425
14.953,-0.150,0.410
14.956,-0.140,0.410
14.958,-0.150,0.420
14.961,-0.140,0.425
14.964,-0.125,0.435
14.967,-0.150,0.435
14.969,-0.150,0.425
14.972,-0.160,0.425
14.975,-0.150,0.450
14.978,-0.130,0.455
14.981,-0.105,0.460
14.983,-0.105,0.465
14.986,-0.125,0.455
14.989,-0.120,0.450
14.992,-0.135,0.455
14.994,-0.125,0.455
14.997,-0.105,0.475
15.000,-0.100,0.475
15.003,-0.100,0.465
15.006,-0.115,0.455
15.008,-0.110,0.460
15.011,-0.105,0.475
15.014,-0.085,0.475
15.017,-0.075,0.480
15.019,-0.095,0.460
15.022,-0.080,0.470
15.025,-0.065,0.475
15.028,-0.055,0.480
15.031,-0.045,0.485
15.033,-0.055,0.475
15.036,-0.060,0.475
15.039,-0.060,0.465
15.042,-0.060,0.475
15.044,-0.035,0.485
15.047,-0.035,0.485
15.050,-0.030,0.490
15.053,-0.020,0.475
15.056,-0.030,0.465
15.058,-0.020,0.470
15.061,-0.010,0.470
15.064,0.010,0.465
15.067,0.005,0.465
15.069,0.000,0.455
15.072,-0.005,0.455
15.075,-0.010,0.455
15.078,0.005,0.455
15.081,0.020,0.450
15.083,0.025,0.445
15.086,0.015,0.440
15.089,0.010,0.425
15.092,0.005,0.430
15.094,0.015,0.435
15.097,0.020,0.430
15.100,0.015,0.420
15.103,0.010,0.400
15.106,-0.005,0.375
15.108,-0.005,0.355
15.111,-0.005,0.360
15.114,-0.010,0.355
15.117,-0.015,0.325
15.119,-0.030,0.305
15.122,-0.035,0.305
15.125,-0.050,0.285
15.128,-0.050,0.285
15.131,-0.055,0.275
15.133,-0.055,0.255
15.136,-0.070,0.230
15.139,-0.085,0.215
15.142,-0.100,0.225
15.144,-0.105,0.235
15.147,-0.100,0.215
15.150,-0.110,0.215
15.153,-0.100,0.190
15.156,-0.115,0.180
15.158,-0.125,0.180
15.161,-0.130,0.190
15.164,-0.130,0.175
15.167,-0.130,0.165
15.169,-0.140,0.165
15.172,-0.140,0.150
15.175,-0.150,0.160
15.178,-0.145,0.160
15.181,-0.145,0.160
15.183,-0.135,0.155
15.186,-0.140,0.160
15.189,-0.155,0.140
15.192,-0.170,0.165
15.194,-0.160,0.175
15.197,-0.165,0.185
15.200,-0.155,0.175
15.203,-0.155,0.175
15.206,-0.170,0.155
15.208,-0.175,0.160
15.211,-0.170,0.185
15.214,-0.160,0.175
15.217,-0.175,0.170
15.219,-0.170,0.170
15.222,-0.175,0.155
15.225,-0.175,0.170
15.228,-0.170,0.185
15.231,-0.185,0.200
15.233,-0.185,0.190
15.236,-0.185,0.185
15.239,-0.200,0.180
15.242,-0.210,0.200
15.244,-0.195,0.200
15.247,-0.185,0.210
15.250,-0.190,0.210
15.253,-0.200,0.195
15.256,-0.215,0.195
15.258,-0.220,0.210
15.261,-0.215,0.225
15.264,-0.225,0.230
15.267,-0.220,0.215
15.269,-0.225,0.220
15.272,-0.200,0.205
15.275,-0.200,0.215
15.278,-0.210,0.225
15.281,-0.215,0.220
15.283,-0.210,0.220
15.286,-0.230,0.215
15.289,-0.245,0.205
15.292,-0.245,0.205
15.294,-0.245,0.215
15.297,-0.245,0.220
15.300,-0.250,0.225
15.303,-0.240,0.210
15.306,-0.240,0.215
15.308,-0.255,0.205
15.311,-0.250,0.225
15.314,-0.250,0.230
15.317,-0.255,0.215
15.319,-0.270,0.190
15.322,-0.285,0.185
15.325,-0.300,0.190
15.328,-0.280,0.205
15.331,-0.285,0.195
15.333,-0.285,0.190
15.336,-0.290,0.175
15.339,-0.295,0.180
15.342,-0.295,0.180
15.344,-0.290,0.185
15.347,-0.275,0.195
15.350,-0.275,0.190
15.353,-0.275,0.180
15.356,-0.285,0.170
15.358,-0.280,0.175
15.361,-0.285,0.185
15.364,-0.275,0.185
15.367,-0.290,0.185
15.369,-0.290,0.170
15.372,-0.285,0.160
15.375,-0.280,0.165
15.378,-0.275,0.180
15.381,-0.265,0.185
15.383,-0.285,0.170
15.386,-0.285,0.165
15.389,-0.285,0.145
15.392,-0.275,0.160
15.394,-0.270,0.175
15.397,-0.260,0.175
15.400,-0.260,0.165
15.403,-0.265,0.165
15.406,-0.280,0.165
15.408,-0.270,0.165
15.411,-0.265,0.175
15.414,-0.255,0.175
15.417,-0.235,0.160
15.419,-0.260,0.160
15.422,-0.270,0.145
15.425,-0.275,0.155
15.428,-0.275,0.160
15.431,-0.275,0.165
15.433,-0.255,0.155
15.436,-0.245,0.160
15.439,-0.250,0.140
15.442,-0.260,0.145
15.444,-0.250,0.160
15.447,-0.245,0.165
15.450,-0.255,0.165
15.453,-0.265,0.160
15.456,-0.265,0.145
15.458,-0.260,0.160
15.461,-0.275,0.175
15.464,-0.255,0.185
15.467,-0.250,0.170
15.469,-0.265,0.160
15.472,-0.265,0.165
15.475,-0.275,0.160
15.478,-0.255,0.155
15.481,-0.245,0.170
15.483,-0.240,0.165
15.486,-0.250,0.170
15.489,-0.265,0.150
15.492,-0.265,0.155
15.494,-0.245,0.165
15.497,-0.245,0.155
15.500,-0.255,0.160
15.503,-0.270,0.145
15.506,-0.260,0.145
15.508,-0.245,0.150
15.511,-0.230,0.170
15.514,-0.220,0.170
15.517,-0.230,0.170
15.519,-0.245,0.165
15.522,-0.260,0.160
15.525,-0.260,0.165
15.528,-0.265,0.170
15.531,-0.245,0.165
15.533,-0.245,0.165
15.536,-0.250,0.155
15.539,-0.265,0.145
15.542,-0.265,0.150
15.544,-0.255,0.155
15.547,-0.260,0.160
15.550,-0.260,0.150
15.553,-0.260,0.140
15.556,-0.260,0.145
15.558,-0.255,0.140
15.561,-0.240,0.150
15.564,-0.220,0.150
15.567,-0.230,0.150
15.569,-0.245,0.145
15.572,-0.265,0.140
15.575,-0.250,0.145
15.578,-0.240,0.155
15.581,-0.245,0.150
15.583,-0.240,0.145
15.586,-0.250,0.135
15.589,-0.265,0.125
15.592,-0.270,0.135
15.594,-0.245,0.140
15.597,-0.240,0.140
15.600,-0.240,0.145
15.603,-0.235,0.150
15.606,-0.260,0.135
15.608,-0.260,0.135
15.611,-0.245,0.135
15.614,-0.225,0.145
15.617,-0.230,0.145
15.619,-0.230,0.140
15.622,-0.225,0.155
15.625,-0.220,0.160
15.628,-0.190,0.190
15.631,-0.190,0.200
15.633,-0.185,0.205
15.636,-0.185,0.210
15.639,-0.195,0.200
15.642,-0.195,0.205
15.644,-0.145,0.230
15.647,-0.110,0.235
15.650,-0.085,0.230
15.653,-0.075,0.220
15.656,-0.070,0.185
15.658,-0.075,0.165
15.661,-0.060,0.175
15.664,-0.065,0.175
15.667,-0.045,0.165
15.669,-0.030,0.160
15.672,-0.030,0.155
15.675,-0.025,0.155
15.678,-0.010,0.165
15.681,0.010,0.170
15.683,0.010,0.170
15.686,-0.030,0.160
15.689,-0.075,0.135
15.692,-0.135,0.140
15.694,-0.170,0.135
15.697,-0.200,0.145
15.700,-0.225,0.140
15.703,-0.270,0.115
15.706,-0.295,0.090
15.708,-0.305,0.095
15.711,-0.300,0.105
15.714,-0.280,0.105
15.717,-0.290,0.100
15.719,-0.300,0.085
15.722,-0.305,0.095
15.725,-0.300,0.085
15.728,-0.285,0.100
15.731,-0.270,0.105
15.733,-0.290,0.110
15.736,-0.290,0.090
15.739,-0.310,0.080
15.742,-0.315,0.085
15.744,-0.310,0.075
15.747,-0.285,0.095
15.750,-0.290,0.075
15.753,-0.295,0.085
15.756,-0.315,0.075
15.758,-0.315,0.085
15.761,-0.305,0.085
15.764,-0.300,0.085
15.767,-0.300,0.085
15.769,-0.300,0.060
15.772,-0.300,0.075
15.775,-0.295,0.085
15.778,-0.315,0.090
15.781,-0.305,0.090
15.783,-0.295,0.075
15.786,-0.290,0.075
15.789,-0.305,0.065
15.792,-0.320,0.075
15.794,-0.310,0.080
15.797,-0.290,0.095
15.800,-0.275,0.090
15.803,-0.280,0.070
15.806,-0.315,0.015
15.808,-0.350,-0.055
15.811,-0.365,-0.135
15.814,-0.340,-0.255
15.817,-0.320,-0.405
15.819,-0.315,-0.605
15.822,-0.325,-0.870
15.825,-0.335,-1.165
15.828,-0.345,-1.395
15.831,-0.415,-1.505
15.833,-0.490,-1.500
15.836,-0.530,-1.460
15.839,-0.560,-1.415
15.842,-0.565,-1.365
15.844,-0.560,-1.320
15.847,-0.570,-1.245
15.850,-0.620,-1.200
15.853,-0.690,-1.185
15.856,-0.735,-1.160
15.858,-0.770,-1.125
15.861,-0.770,-1.055
15.864,-0.785,-1.010
15.867,-0.830,-0.955
15.869,-0.890,-0.895
15.872,-0.930,-0.845
15.875,-0.950,-0.780
15.878,-0.940,-0.710
15.881,-0.885,-0.610
15.883,-0.830,-0.510
15.886,-0.800,-0.415
15.889,-0.780,-0.330
15.892,-0.720,-0.245
15.894,-0.615,-0.165
15.897,-0.525,-0.075
15.900,-0.495,-0.015
15.903,-0.475,0.040
15.906,-0.420,0.075
15.908,-0.390,0.155
15.911,-0.320,0.215
15.914,-0.270,0.265
15.917,-0.235,0.280
15.919,-0.235,0.300
15.922,-0.225,0.310
15.925,-0.220,0.330
15.928,-0.205,0.340
15.931,-0.200,0.350
15.933,-0.195,0.355
15.936,-0.200,0.355
15.939,-0.190,0.355
15.942,-0.205,0.375
15.944,-0.195,0.380
15.947,-0.190,0.410
15.950,-0.195,0.410
15.953,-0.200,0.405
15.956,-0.210,0.395
15.958,-0.200,0.400
15.961,-0.180,0.420
15.964,-0.160,0.420
15.967,-0.170,0.420
15.969,-0.180,0.420
15.972,-0.195,0.405
15.975,-0.180,0.420
15.978,-0.165,0.435
15.981,-0.170,0.435
15.983,-0.180,0.430
15.986,-0.170,0.420
15.989,-0.175,0.425
15.992,-0.160,0.430
15.994,-0.175,0.455
15.997,-0.155,0.450
16.000,-0.175,0.445
16.003,-0.160,0.430
16.006,-0.150,0.430
16.008,-0.150,0.455
16.011,-0.145,0.450
16.014,-0.135,0.455
16.017,-0.140,0.445
16.019,-0.150,0.445
16.022,-0.160,0.440
16.025,-0.145,0.445
16.028,-0.130,0.450
16.031,-0.110,0.445
16.033,-0.095,0.455
16.036,-0.100,0.450
16.039,-0.105,0.445
16.042,-0.115,0.445
16.044,-0.110,0.455
16.047,-0.095,0.460
16.050,-0.095,0.465
16.053,-0.095,0.455
16.056,-0.080,0.440
16.058,-0.100,0.455
16.061,-0.095,0.470
16.064,-0.070,0.470
16.067,-0.080,0.455
16.069,-0.075,0.440
16.072,-0.080,0.440
16.075,-0.075,0.455
16.078,-0.070,0.445
16.081,-0.055,0.445
16.083,-0.030,0.430
16.086,-0.020,0.420
16.089,-0.030,0.410
16.092,-0.035,0.415
16.094,-0.015,0.425
16.097,0.005,0.425
16.100,-0.005,0.425
16.103,-0.015,0.410
16.106,-0.020,0.395
16.108,-0.020,0.400
16.111,-0.015,0.410
16.114,-0.010,0.395
16.117,-0.020,0.385
16.119,-0.030,0.375
16.122,-0.050,0.370
16.125,-0.050,0.355
16.128,-0.035,0.360
16.131,-0.020,0.350
16.133,-0.025,0.335
16.136,-0.045,0.320
16.139,-0.055,0.300
16.142,-0.060,0.295
16.144,-0.060,0.295
16.147,-0.045,0.295
16.150,-0.040,0.270
16.153,-0.055,0.260
16.156,-0.065,0.230
16.158,-0.085,0.235
16.161,-0.085,0.230
16.164,-0.095,0.245
16.167,-0.105,0.225
16.169,-0.120,0.210
16.172,-0.135,0.195
16.175,-0.150,0.180
16.178,-0.125,0.200
16.181,-0.095,0.200
16.183,-0.100,0.170
16.186,-0.130,0.155
16.189,-0.170,0.160
16.192,-0.180,0.160
16.194,-0.165,0.180
16.197,-0.145,0.175
16.200,-0.160,0.165
16.203,-0.185,0.140
16.206,-0.195,0.130
16.208,-0.195,0.145
16.211,-0.190,0.160
16.214,-0.180,0.160
16.217,-0.200,0.160
16.219,-0.205,0.155
16.222,-0.205,0.150
16.225,-0.210,0.150
16.228,-0.210,0.155
16.231,-0.175,0.165
16.233,-0.185,0.175
16.236,-0.190,0.155
16.239,-0.195,0.150
16.242,-0.210,0.155
16.244,-0.205,0.185
16.247,-0.195,0.170
16.250,-0.200,0.165
16.253,-0.210,0.155
16.256,-0.240,0.160
16.258,-0.230,0.170
16.261,-0.200,0.190
16.264,-0.175,0.185
16.267,-0.190,0.185
16.269,-0.205,0.180
16.272,-0.215,0.180
16.275,-0.215,0.200
16.278,-0.225,0.215
16.281,-0.220,0.210
16.283,-0.230,0.195
16.286,-0.230,0.185
16.289,-0.230,0.185
16.292,-0.240,0.190
16.294,-0.265,0.200
16.297,-0.255,0.200
16.300,-0.235,0.190
16.303,-0.205,0.190
16.306,-0.195,0.195
16.308,-0.195,0.190
16.311,-0.225,0.210
16.314,-0.255,0.195
16.317,-0.270,0.195
16.319,-0.285,0.200
16.322,-0.290,0.190
16.325,-0.255,0.190
16.328,-0.235,0.200
16.331,-0.255,0.225
16.333,-0.285,0.205
16.336,-0.285,0.205
16.339,-0.285,0.185
16.342,-0.290,0.185
16.344,-0.260,0.200
16.347,-0.190,0.190
16.350,-0.160,0.190
16.353,-0.190,0.180
16.356,-0.240,0.175
16.358,-0.265,0.190
16.361,-0.260,0.185
16.364,-0.255,0.180
16.367,-0.245,0.180
16.369,-0.275,0.170
16.372,-0.315,0.160
16.375,-0.365,0.165
16.378,-0.345,0.190
16.381,-0.275,0.185
16.383,-0.225,0.185
16.386,-0.215,0.170
16.389,-0.275,0.175
16.392,-0.335,0.180
16.394,-0.335,0.175
16.397,-0.300,0.180
16.400,-0.245,0.160
16.403,-0.205,0.155
16.406,-0.195,0.160
16.408,-0.220,0.170
16.411,-0.240,0.180
16.414,-0.270,0.165
16.417,-0.310,0.175
16.419,-0.300,0.160
16.422,-0.280,0.160
16.425,-0.285,0.160
16.428,-0.285,0.185
16.431,-0.285,0.175
16.433,-0.275,0.175
16.436,-0.270,0.170
16.439,-0.280,0.175
16.442,-0.275,0.175
16.444,-0.205,0.195
16.447,-0.115,0.195
16.450,-0.100,0.190
16.453,-0.160,0.165
16.456,-0.230,0.165
16.458,-0.265,0.170
16.461,-0.235,0.195
16.464,-0.195,0.200
16.467,-0.165,0.200
16.469,-0.185,0.195
16.472,-0.215,0.175
16.475,-0.245,0.180
16.478,-0.220,0.185
16.481,-0.185,0.185
16.483,-0.185,0.185
16.486,-0.200,0.185
16.489,-0.210,0.180
16.492,-0.215,0.185
16.494,-0.235,0.190
16.497,-0.250,0.205
16.500,-0.255,0.205
16.503,-0.245,0.200
16.506,-0.255,0.190
16.508,-0.260,0.200
16.511,-0.245,0.205
16.514,-0.195,0.200
16.517,-0.120,0.200
16.519,-0.095,0.195
16.522,-0.125,0.205
16.525,-0.175,0.200
16.528,-0.210,0.215
16.531,-0.200,0.220
16.533,-0.205,0.240
16.536,-0.205,0.240
16.539,-0.220,0.240
16.542,-0.235,0.250
16.544,-0.225,0.265
16.547,-0.205,0.290
16.550,-0.205,0.295
16.553,-0.210,0.235
16.556,-0.220,0.175
16.558,-0.210,0.160
16.561,-0.190,0.175
16.564,-0.190,0.190
16.567,-0.190,0.200
16.569,-0.190,0.210
16.572,-0.190,0.200
16.575,-0.210,0.200
16.578,-0.220,0.215
16.581,-0.210,0.210
16.583,-0.210,0.225
16.586,-0.210,0.220
16.589,-0.215,0.210
16.592,-0.230,0.220
16.594,-0.220,0.240
16.597,-0.195,0.240
16.600,-0.175,0.240
16.603,-0.180,0.225
16.606,-0.195,0.225
16.608,-0.205,0.240
16.611,-0.185,0.250
16.614,-0.180,0.250
16.617,-0.200,0.250
16.619,-0.210,0.235
16.622,-0.205,0.230
16.625,-0.195,0.225
16.628,-0.200,0.240
16.631,-0.210,0.255
16.633,-0.220,0.245
16.636,-0.200,0.225
16.639,-0.220,0.220
16.642,-0.225,0.240
16.644,-0.225,0.240
16.647,-0.230,0.255
16.650,-0.230,0.240
16.653,-0.200,0.230
16.656,-0.165,0.245
16.658,-0.145,0.230
16.661,-0.155,0.255
16.664,-0.195,0.265
16.667,-0.245,0.255
16.669,-0.270,0.255
16.672,-0.235,0.255
16.675,-0.155,0.265
16.678,-0.120,0.265
16.681,-0.145,0.280
16.683,-0.190,0.260
16.686,-0.205,0.265
16.689,-0.195,0.250
16.692,-0.195,0.255
16.694,-0.220,0.265
16.697,-0.215,0.265
16.700,-0.210,0.270
16.703,-0.200,0.260
16.706,-0.180,0.270
16.708,-0.180,0.285
16.711,-0.205,0.315
16.714,-0.210,0.320
16.717,-0.200,0.295
16.719,-0.145,0.305
16.722,-0.155,0.320
16.725,-0.185,0.355
16.728,-0.195,0.355
16.731,-0.145,0.325
16.733,-0.085,0.290
16.736,-0.045,0.280
16.739,-0.055,0.295
16.742,-0.070,0.315
16.744,-0.090,0.340
16.747,-0.100,0.350
16.750,-0.085,0.365
16.753,-0.075,0.370
16.756,-0.055,0.370
16.758,-0.035,0.365
16.761,-0.010,0.350
16.764,0.015,0.325
16.767,0.020,0.315
16.769,0.015,0.310
16.772,-0.015,0.295
16.775,-0.020,0.295
16.778,-0.005,0.300
16.781,0.035,0.320
16.783,0.040,0.325
16.786,0.035,0.330
16.789,0.045,0.325
16.792,0.015,0.335
16.794,-0.015,0.370
16.797,-0.065,0.380
16.800,-0.090,0.335
16.803,-0.130,0.265
16.806,-0.170,0.240
16.808,-0.225,0.240
16.811,-0.240,0.265
16.814,-0.240,0.265
16.817,-0.240,0.260
16.819,-0.235,0.250
16.822,-0.240,0.230
16.825,-0.260,0.245
16.828,-0.270,0.270
16.831,-0.250,0.270
16.833,-0.235,0.270
16.836,-0.235,0.260
16.839,-0.265,0.230
16.842,-0.265,0.225
16.844,-0.265,0.255
16.847,-0.245,0.280
16.850,-0.225,0.275
16.853,-0.220,0.285
16.856,-0.250,0.275
16.858,-0.275,0.245
16.861,-0.255,0.230
16.864,-0.215,0.220
16.867,-0.205,0.235
16.869,-0.220,0.205
16.872,-0.260,0.195
16.875,-0.270,0.220
16.878,-0.265,0.265
16.881,-0.235,0.265
16.883,-0.245,0.265
16.886,-0.285,0.245
16.889,-0.315,0.245
16.892,-0.310,0.220
16.894,-0.280,0.215
16.897,-0.230,0.205
16.900,-0.230,0.215
16.903,-0.260,0.195
16.906,-0.275,0.205
16.908,-0.270,0.215
16.911,-0.230,0.215
16.914,-0.210,0.170
16.917,-0.250,0.085
16.919,-0.310,-0.020
16.922,-0.325,-0.120
16.925,-0.250,-0.235
16.928,-0.155,-0.420
16.931,-0.100,-0.715
16.933,-0.110,-1.075
16.936,-0.160,-1.325
16.939,-0.240,-1.415
16.942,-0.295,-1.375
16.944,-0.325,-1.305
16.947,-0.340,-1.260
16.950,-0.355,-1.230
16.953,-0.325,-1.190
16.956,-0.340,-1.120
16.958,-0.405,-1.050
16.961,-0.465,-1.005
16.964,-0.500,-0.980
16.967,-0.520,-0.940
16.969,-0.575,-0.890
16.972,-0.635,-0.830
16.975,-0.715,-0.755
16.978,-0.750,-0.680
16.981,-0.780,-0.625
16.983,-0.805,-0.550
16.986,-0.780,-0.445
16.989,-0.770,-0.305
16.992,-0.770,-0.225
16.994,-0.730,-0.175
16.997,-0.665,-0.105
17.000,-0.610,-0.020
17.003,-0.570,0.065
17.006,-0.525,0.135
17.008,-0.480,0.220
17.011,-0.435,0.280
17.014,-0.360,0.335
