'Elapsed time','MLII','V1'
'seconds','mV','mV'
0.000,-0.035,0.035
0.003,-0.035,0.035
0.006,-0.035,0.035
0.008,-0.035,0.035
0.011,-0.035,0.035
0.014,-0.035,0.035
0.017,-0.035,0.035
0.019,-0.035,0.035
0.022,-0.035,0.035
0.025,-0.035,0.060
0.028,-0.020,0.085
0.031,-0.040,0.070
0.033,-0.065,0.045
0.036,-0.080,0.010
0.039,-0.100,0.010
0.042,-0.090,0.015
0.044,-0.080,0.005
0.047,-0.105,0.000
0.050,-0.095,-0.025
0.053,-0.125,-0.055
0.056,-0.135,-0.045
0.058,-0.125,-0.040
0.061,-0.115,-0.025
0.064,-0.105,-0.025
0.067,-0.120,-0.025
0.069,-0.130,-0.030
0.072,-0.125,-0.010
0.075,-0.120,-0.010
0.078,-0.105,0.005
0.081,-0.100,0.000
0.083,-0.115,-0.005
0.086,-0.125,-0.025
0.089,-0.130,-0.005
0.092,-0.130,0.005
0.094,-0.115,0.015
0.097,-0.115,0.020
0.100,-0.110,0.000
0.103,-0.125,0.005
0.106,-0.130,0.015
0.108,-0.120,0.035
0.111,-0.105,0.035
0.114,-0.105,0.040
0.117,-0.090,0.015
0.119,-0.125,0.015
0.122,-0.135,0.025
0.125,-0.120,0.030
0.128,-0.100,0.050
0.131,-0.110,0.035
0.133,-0.115,0.035
0.136,-0.120,0.025
0.139,-0.115,0.040
0.142,-0.110,0.050
0.144,-0.090,0.055
0.147,-0.085,0.050
0.150,-0.095,0.040
0.153,-0.120,0.045
0.156,-0.125,0.040
0.158,-0.120,0.040
0.161,-0.110,0.060
0.164,-0.100,0.045
0.167,-0.115,0.030
0.169,-0.135,0.020
0.172,-0.135,0.025
0.175,-0.140,0.050
0.178,-0.110,0.055
0.181,-0.130,0.050
0.183,-0.135,0.030
0.186,-0.150,0.000
0.189,-0.140,0.010
0.192,-0.135,0.020
0.194,-0.130,0.035
0.197,-0.140,0.025
0.200,-0.135,0.025
0.203,-0.145,0.010
0.206,-0.145,0.015
0.208,-0.135,0.035
0.211,-0.120,0.035
0.214,-0.125,0.035
0.217,-0.130,0.015
0.219,-0.145,0.015
0.222,-0.145,0.025
0.225,-0.125,0.050
0.228,-0.125,0.060
0.231,-0.135,0.035
0.233,-0.130,0.025
0.236,-0.145,0.020
0.239,-0.155,0.030
0.242,-0.150,0.050
0.244,-0.135,0.045
0.247,-0.135,0.030
0.250,-0.140,0.000
0.253,-0.160,-0.005
0.256,-0.165,0.015
0.258,-0.150,0.045
0.261,-0.145,0.070
0.264,-0.135,0.060
0.267,-0.150,0.050
0.269,-0.145,0.055
0.272,-0.150,0.055
0.275,-0.140,0.075
0.278,-0.125,0.085
0.281,-0.120,0.075
0.283,-0.120,0.070
0.286,-0.120,0.065
0.289,-0.115,0.075
0.292,-0.115,0.080
0.294,-0.090,0.080
0.297,-0.070,0.055
0.300,-0.075,0.020
0.303,-0.090,0.000
0.306,-0.090,0.025
0.308,-0.075,0.020
0.311,-0.065,0.045
0.314,-0.075,0.040
0.317,-0.070,0.020
0.319,-0.110,-0.005
0.322,-0.095,-0.005
0.325,-0.100,0.005
0.328,-0.085,-0.005
0.331,-0.080,-0.005
0.333,-0.095,-0.025
0.336,-0.125,-0.030
0.339,-0.140,-0.055
0.342,-0.125,-0.055
0.344,-0.130,-0.050
0.347,-0.125,-0.045
0.350,-0.150,-0.040
0.353,-0.155,-0.040
0.356,-0.165,-0.030
0.358,-0.145,-0.025
0.361,-0.150,-0.005
0.364,-0.145,0.000
0.367,-0.175,0.005
0.369,-0.195,0.000
0.372,-0.205,0.015
0.375,-0.190,0.040
0.378,-0.185,0.050
0.381,-0.185,0.035
0.383,-0.200,0.010
0.386,-0.205,0.000
0.389,-0.220,0.010
0.392,-0.205,0.040
0.394,-0.185,0.050
0.397,-0.195,0.045
0.400,-0.225,0.025
0.403,-0.215,0.035
0.406,-0.230,0.030
0.408,-0.220,0.050
0.411,-0.220,0.055
0.414,-0.220,0.055
0.417,-0.230,0.030
0.419,-0.235,0.025
0.422,-0.245,0.035
0.425,-0.235,0.045
0.428,-0.215,0.055
0.431,-0.225,0.050
0.433,-0.230,0.045
0.436,-0.245,0.025
0.439,-0.250,0.020
0.442,-0.240,0.040
0.444,-0.235,0.045
0.447,-0.215,0.050
0.450,-0.230,0.040
0.453,-0.250,0.030
0.456,-0.240,0.035
0.458,-0.230,0.025
0.461,-0.220,0.020
0.464,-0.215,0.025
0.467,-0.225,0.015
0.469,-0.240,0.010
0.472,-0.245,0.015
0.475,-0.230,0.035
0.478,-0.220,0.055
0.481,-0.205,0.030
0.483,-0.195,-0.020
0.486,-0.185,-0.130
0.489,-0.175,-0.230
0.492,-0.135,-0.360
0.494,-0.090,-0.490
0.497,-0.035,-0.640
0.500,0.030,-0.780
0.503,0.110,-0.880
0.506,0.180,-0.930
0.508,0.220,-0.925
0.511,0.220,-0.905
0.514,0.185,-0.925
0.517,0.085,-0.940
0.519,-0.035,-0.925
0.522,-0.095,-0.900
0.525,-0.095,-0.845
0.528,-0.025,-0.795
0.531,0.085,-0.770
0.533,0.205,-0.750
0.536,0.340,-0.730
0.539,0.480,-0.695
0.542,0.595,-0.665
0.544,0.670,-0.640
0.547,0.680,-0.615
0.550,0.590,-0.570
0.553,0.455,-0.525
0.556,0.335,-0.430
0.558,0.230,-0.340
0.561,0.140,-0.275
0.564,0.035,-0.225
0.567,-0.090,-0.175
0.569,-0.200,-0.125
0.572,-0.300,-0.050
0.575,-0.390,0.050
0.578,-0.445,0.115
0.581,-0.485,0.145
0.583,-0.510,0.150
0.586,-0.495,0.155
0.589,-0.455,0.175
0.592,-0.425,0.195
0.594,-0.380,0.205
0.597,-0.335,0.210
0.600,-0.330,0.220
0.603,-0.320,0.215
0.606,-0.330,0.220
0.608,-0.310,0.250
0.611,-0.315,0.260
0.614,-0.300,0.250
0.617,-0.310,0.235
0.619,-0.315,0.230
0.622,-0.320,0.240
0.625,-0.290,0.265
0.628,-0.285,0.270
0.631,-0.270,0.265
0.633,-0.275,0.260
0.636,-0.295,0.260
0.639,-0.295,0.265
0.642,-0.285,0.285
0.644,-0.285,0.300
0.647,-0.280,0.290
0.650,-0.275,0.280
0.653,-0.295,0.275
0.656,-0.290,0.290
0.658,-0.275,0.315
0.661,-0.255,0.340
0.664,-0.245,0.345
0.667,-0.230,0.355
0.669,-0.260,0.335
0.672,-0.260,0.330
0.675,-0.250,0.335
0.678,-0.235,0.330
0.681,-0.235,0.325
0.683,-0.235,0.325
0.686,-0.245,0.330
0.689,-0.245,0.340
0.692,-0.220,0.370
0.694,-0.195,0.385
0.697,-0.175,0.365
0.700,-0.180,0.370
0.703,-0.180,0.365
0.706,-0.170,0.380
0.708,-0.155,0.385
0.711,-0.140,0.395
0.714,-0.120,0.385
0.717,-0.125,0.385
0.719,-0.120,0.385
0.722,-0.115,0.385
0.725,-0.100,0.400
0.728,-0.070,0.400
0.731,-0.075,0.390
0.733,-0.045,0.375
0.736,-0.050,0.345
0.739,-0.045,0.365
0.742,-0.005,0.355
0.744,0.015,0.345
0.747,0.025,0.320
0.750,0.030,0.285
0.753,0.030,0.245
0.756,0.040,0.225
0.758,0.060,0.230
0.761,0.085,0.225
0.764,0.090,0.200
0.767,0.080,0.165
0.769,0.080,0.135
0.772,0.080,0.125
0.775,0.110,0.110
0.778,0.125,0.105
0.781,0.140,0.085
0.783,0.130,0.050
0.786,0.115,0.040
0.789,0.090,0.040
0.792,0.090,0.055
0.794,0.085,0.055
0.797,0.060,0.060
0.800,0.030,0.050
0.803,-0.015,0.055
0.806,-0.040,0.035
0.808,-0.060,0.055
0.811,-0.080,0.070
0.814,-0.095,0.065
0.817,-0.115,0.050
0.819,-0.150,0.035
0.822,-0.175,0.025
0.825,-0.175,0.025
0.828,-0.165,0.050
0.831,-0.170,0.050
0.833,-0.185,0.030
0.836,-0.205,0.025
0.839,-0.235,0.020
0.842,-0.220,0.040
0.844,-0.215,0.065
0.847,-0.205,0.060
0.850,-0.220,0.050
0.853,-0.245,0.035
0.856,-0.240,0.040
0.858,-0.230,0.060
0.861,-0.230,0.045
0.864,-0.225,0.060
0.867,-0.245,0.045
0.869,-0.275,0.030
0.872,-0.255,0.035
0.875,-0.245,0.045
0.878,-0.240,0.070
0.881,-0.235,0.065
0.883,-0.235,0.045
0.886,-0.245,0.045
0.889,-0.265,0.035
0.892,-0.250,0.055
0.894,-0.245,0.065
0.897,-0.235,0.065
0.900,-0.245,0.055
0.903,-0.260,0.050
0.906,-0.255,0.065
0.908,-0.240,0.075
0.911,-0.225,0.090
0.914,-0.245,0.070
0.917,-0.240,0.065
0.919,-0.250,0.065
0.922,-0.250,0.065
0.925,-0.260,0.085
0.928,-0.235,0.100
0.931,-0.235,0.095
0.933,-0.235,0.080
0.936,-0.240,0.080
0.939,-0.245,0.065
0.942,-0.255,0.080
0.944,-0.240,0.090
0.947,-0.240,0.090
0.950,-0.240,0.070
0.953,-0.245,0.055
0.956,-0.260,0.050
0.958,-0.235,0.055
0.961,-0.220,0.070
0.964,-0.225,0.080
0.967,-0.245,0.085
0.969,-0.260,0.075
0.972,-0.255,0.080
0.975,-0.230,0.090
0.978,-0.230,0.075
0.981,-0.210,0.070
0.983,-0.230,0.070
0.986,-0.250,0.055
0.989,-0.260,0.065
0.992,-0.255,0.095
0.994,-0.245,0.090
0.997,-0.230,0.075
1.000,-0.235,0.060
1.003,-0.240,0.055
1.006,-0.250,0.060
1.008,-0.245,0.075
1.011,-0.240,0.085
1.014,-0.255,0.080
1.017,-0.255,0.065
1.019,-0.255,0.065
1.022,-0.275,0.060
1.025,-0.260,0.095
1.028,-0.245,0.095
1.031,-0.240,0.075
1.033,-0.260,0.065
1.036,-0.270,0.050
1.039,-0.265,0.050
1.042,-0.265,0.070
1.044,-0.250,0.085
1.047,-0.245,0.090
1.050,-0.260,0.085
1.053,-0.285,0.080
1.056,-0.270,0.100
1.058,-0.255,0.120
1.061,-0.235,0.135
1.064,-0.225,0.120
1.067,-0.225,0.100
1.069,-0.240,0.095
1.072,-0.235,0.110
1.075,-0.220,0.120
1.078,-0.215,0.130
1.081,-0.215,0.120
1.083,-0.230,0.120
1.086,-0.245,0.100
1.089,-0.240,0.085
1.092,-0.220,0.095
1.094,-0.190,0.100
1.097,-0.175,0.090
1.100,-0.195,0.075
1.103,-0.180,0.045
1.106,-0.180,0.045
1.108,-0.170,0.055
1.111,-0.170,0.060
1.114,-0.175,0.045
1.117,-0.200,0.030
1.119,-0.210,0.005
1.122,-0.220,-0.005
1.125,-0.215,0.010
1.128,-0.215,0.015
1.131,-0.210,0.025
1.133,-0.210,0.020
1.136,-0.230,0.015
1.139,-0.230,0.025
1.142,-0.230,0.030
1.144,-0.220,0.025
1.147,-0.225,0.005
1.150,-0.250,-0.005
1.153,-0.270,0.000
1.156,-0.280,0.005
1.158,-0.275,0.035
1.161,-0.270,0.065
1.164,-0.265,0.065
1.167,-0.275,0.070
1.169,-0.290,0.050
1.172,-0.310,0.055
1.175,-0.315,0.060
1.178,-0.305,0.055
1.181,-0.285,0.055
1.183,-0.295,0.055
1.186,-0.290,0.040
1.189,-0.290,0.050
1.192,-0.295,0.065
1.194,-0.280,0.095
1.197,-0.285,0.080
1.200,-0.300,0.060
1.203,-0.300,0.040
1.206,-0.315,0.065
1.208,-0.310,0.075
1.211,-0.315,0.075
1.214,-0.325,0.075
1.217,-0.320,0.050
1.219,-0.325,0.045
1.222,-0.335,0.055
1.225,-0.325,0.070
1.228,-0.300,0.090
1.231,-0.300,0.070
1.233,-0.305,0.065
1.236,-0.310,0.055
1.239,-0.330,0.085
1.242,-0.305,0.110
1.244,-0.305,0.110
1.247,-0.290,0.090
1.250,-0.305,0.065
1.253,-0.315,0.050
1.256,-0.310,0.045
1.258,-0.310,0.065
1.261,-0.300,0.065
1.264,-0.285,0.060
1.267,-0.295,0.040
1.269,-0.295,0.025
1.272,-0.300,0.025
1.275,-0.315,0.045
1.278,-0.280,0.070
1.281,-0.255,0.060
1.283,-0.260,0.035
1.286,-0.255,-0.030
1.289,-0.250,-0.110
1.292,-0.200,-0.200
1.294,-0.145,-0.285
1.297,-0.100,-0.420
1.300,-0.050,-0.535
1.303,0.015,-0.650
1.306,0.080,-0.730
1.308,0.145,-0.775
1.311,0.210,-0.805
1.314,0.230,-0.805
1.317,0.200,-0.815
1.319,0.135,-0.830
1.322,0.080,-0.825
1.325,-0.020,-0.820
1.328,-0.075,-0.785
1.331,-0.095,-0.740
1.333,-0.075,-0.725
1.336,-0.040,-0.710
1.339,0.045,-0.665
1.342,0.155,-0.630
1.344,0.285,-0.590
1.347,0.380,-0.570
1.350,0.460,-0.560
1.353,0.500,-0.550
1.356,0.500,-0.530
1.358,0.485,-0.480
1.361,0.425,-0.415
1.364,0.335,-0.380
1.367,0.245,-0.320
1.369,0.160,-0.300
1.372,0.085,-0.220
1.375,0.025,-0.160
1.378,-0.040,-0.095
1.381,-0.125,-0.045
1.383,-0.205,0.010
1.386,-0.290,0.040
1.389,-0.360,0.090
1.392,-0.420,0.135
1.394,-0.435,0.160
1.397,-0.455,0.170
1.400,-0.470,0.175
1.403,-0.470,0.180
1.406,-0.440,0.195
1.408,-0.405,0.225
1.411,-0.370,0.235
1.414,-0.355,0.235
1.417,-0.350,0.230
1.419,-0.355,0.220
1.422,-0.360,0.240
1.425,-0.350,0.255
1.428,-0.320,0.265
1.431,-0.335,0.280
1.433,-0.335,0.265
1.436,-0.360,0.275
1.439,-0.345,0.280
1.442,-0.330,0.280
1.444,-0.325,0.295
1.447,-0.330,0.285
1.450,-0.335,0.260
1.453,-0.335,0.260
1.456,-0.340,0.255
1.458,-0.335,0.285
1.461,-0.330,0.295
1.464,-0.320,0.295
1.467,-0.310,0.285
1.469,-0.340,0.285
1.472,-0.335,0.290
1.475,-0.320,0.310
1.478,-0.305,0.320
1.481,-0.295,0.325
1.483,-0.310,0.325
1.486,-0.325,0.320
1.489,-0.310,0.320
1.492,-0.310,0.345
1.494,-0.290,0.355
1.497,-0.280,0.360
1.500,-0.280,0.340
1.503,-0.285,0.345
1.506,-0.290,0.360
1.508,-0.275,0.375
1.511,-0.265,0.400
1.514,-0.250,0.380
1.517,-0.250,0.375
1.519,-0.250,0.360
1.522,-0.255,0.385
1.525,-0.220,0.405
1.528,-0.200,0.420
1.531,-0.180,0.425
1.533,-0.195,0.410
1.536,-0.190,0.400
1.539,-0.210,0.405
1.542,-0.180,0.430
1.544,-0.155,0.440
1.547,-0.125,0.445
1.550,-0.140,0.430
1.553,-0.125,0.410
1.556,-0.120,0.420
1.558,-0.105,0.435
1.561,-0.085,0.430
1.564,-0.075,0.410
1.567,-0.075,0.380
1.569,-0.075,0.345
1.572,-0.070,0.330
1.575,-0.045,0.335
1.578,-0.040,0.335
1.581,-0.030,0.315
1.583,-0.010,0.300
1.586,-0.015,0.275
1.589,0.005,0.255
1.592,0.030,0.265
1.594,0.060,0.230
1.597,0.060,0.210
1.600,0.065,0.185
1.603,0.060,0.150
1.606,0.065,0.145
1.608,0.095,0.145
1.611,0.125,0.145
1.614,0.115,0.130
1.617,0.130,0.105
1.619,0.130,0.095
1.622,0.110,0.085
1.625,0.120,0.100
1.628,0.115,0.090
1.631,0.105,0.100
1.633,0.085,0.075
1.636,0.045,0.070
1.639,0.030,0.080
1.642,0.010,0.080
1.644,0.010,0.085
1.647,-0.005,0.075
1.650,-0.025,0.065
1.653,-0.075,0.055
1.656,-0.090,0.075
1.658,-0.105,0.075
1.661,-0.115,0.075
1.664,-0.115,0.075
1.667,-0.150,0.070
1.669,-0.150,0.055
1.672,-0.175,0.060
1.675,-0.180,0.075
1.678,-0.175,0.095
1.681,-0.180,0.085
1.683,-0.190,0.070
1.686,-0.210,0.070
1.689,-0.215,0.070
1.692,-0.195,0.075
1.694,-0.185,0.080
1.697,-0.180,0.075
1.700,-0.195,0.060
1.703,-0.215,0.070
1.706,-0.230,0.070
1.708,-0.220,0.090
1.711,-0.210,0.085
1.714,-0.210,0.060
1.717,-0.225,0.045
1.719,-0.215,0.035
1.722,-0.230,0.065
1.725,-0.220,0.070
1.728,-0.205,0.090
1.731,-0.190,0.075
1.733,-0.200,0.065
1.736,-0.195,0.060
1.739,-0.200,0.075
1.742,-0.205,0.080
1.744,-0.185,0.085
1.747,-0.195,0.085
1.750,-0.195,0.070
1.753,-0.205,0.050
1.756,-0.210,0.070
1.758,-0.205,0.085
1.761,-0.185,0.105
1.764,-0.170,0.100
1.767,-0.190,0.095
1.769,-0.205,0.075
1.772,-0.195,0.080
1.775,-0.180,0.095
1.778,-0.175,0.105
1.781,-0.170,0.100
1.783,-0.190,0.090
1.786,-0.195,0.080
1.789,-0.215,0.070
1.792,-0.190,0.090
1.794,-0.185,0.090
1.797,-0.190,0.090
1.800,-0.195,0.080
1.803,-0.195,0.080
1.806,-0.195,0.075
1.808,-0.200,0.095
1.811,-0.180,0.100
1.814,-0.170,0.100
1.817,-0.185,0.085
1.819,-0.210,0.075
1.822,-0.200,0.080
1.825,-0.200,0.115
1.828,-0.170,0.120
1.831,-0.165,0.120
1.833,-0.200,0.095
1.836,-0.210,0.075
1.839,-0.210,0.080
1.842,-0.195,0.090
1.844,-0.170,0.100
1.847,-0.180,0.105
1.850,-0.190,0.070
1.853,-0.200,0.065
1.856,-0.215,0.070
1.858,-0.205,0.090
1.861,-0.195,0.090
1.864,-0.185,0.090
1.867,-0.200,0.070
1.869,-0.210,0.060
1.872,-0.210,0.065
1.875,-0.205,0.080
1.878,-0.200,0.095
1.881,-0.195,0.090
1.883,-0.205,0.065
1.886,-0.220,0.080
1.889,-0.215,0.075
1.892,-0.205,0.090
1.894,-0.210,0.100
1.897,-0.185,0.095
1.900,-0.195,0.080
1.903,-0.210,0.070
1.906,-0.215,0.065
1.908,-0.210,0.090
1.911,-0.195,0.105
1.914,-0.190,0.105
1.917,-0.215,0.105
1.919,-0.210,0.110
1.922,-0.215,0.105
1.925,-0.190,0.130
1.928,-0.180,0.140
1.931,-0.165,0.125
1.933,-0.170,0.125
1.936,-0.190,0.110
1.939,-0.180,0.115
1.942,-0.170,0.135
1.944,-0.160,0.140
1.947,-0.145,0.130
1.950,-0.150,0.115
1.953,-0.150,0.095
1.956,-0.145,0.090
1.958,-0.155,0.095
1.961,-0.120,0.105
1.964,-0.115,0.095
1.967,-0.105,0.065
1.969,-0.105,0.045
1.972,-0.115,0.050
1.975,-0.105,0.045
1.978,-0.110,0.070
1.981,-0.095,0.055
1.983,-0.110,0.045
1.986,-0.125,0.030
1.989,-0.130,0.030
1.992,-0.145,0.035
1.994,-0.135,0.040
1.997,-0.130,0.030
2.000,-0.145,0.005
2.003,-0.160,0.000
2.006,-0.165,0.005
2.008,-0.165,0.035
2.011,-0.150,0.035
2.014,-0.155,0.035
2.017,-0.165,0.035
2.019,-0.175,0.015
2.022,-0.195,0.030
2.025,-0.195,0.025
2.028,-0.180,0.045
2.031,-0.185,0.045
2.033,-0.200,0.050
2.036,-0.195,0.050
2.039,-0.210,0.070
2.042,-0.205,0.090
2.044,-0.205,0.095
2.047,-0.220,0.095
2.050,-0.225,0.085
2.053,-0.215,0.065
2.056,-0.240,0.050
2.058,-0.225,0.050
2.061,-0.210,0.075
2.064,-0.220,0.080
2.067,-0.240,0.070
2.069,-0.250,0.060
2.072,-0.245,0.060
2.075,-0.225,0.080
2.078,-0.225,0.090
2.081,-0.220,0.080
2.083,-0.230,0.070
2.086,-0.250,0.065
2.089,-0.250,0.065
2.092,-0.245,0.075
2.094,-0.235,0.090
2.097,-0.215,0.080
2.100,-0.220,0.070
2.103,-0.240,0.065
2.106,-0.245,0.065
2.108,-0.230,0.080
2.111,-0.230,0.105
2.114,-0.215,0.085
2.117,-0.225,0.070
2.119,-0.225,0.065
2.122,-0.240,0.065
2.125,-0.225,0.070
2.128,-0.205,0.085
2.131,-0.220,0.080
2.133,-0.220,0.055
2.136,-0.220,0.065
2.139,-0.230,0.060
2.142,-0.215,0.070
2.144,-0.200,0.080
2.147,-0.190,0.080
2.150,-0.205,0.070
2.153,-0.210,0.065
2.156,-0.205,0.065
2.158,-0.185,0.050
2.161,-0.150,-0.010
2.164,-0.140,-0.135
2.167,-0.125,-0.270
2.169,-0.125,-0.390
2.172,-0.070,-0.495
2.175,-0.005,-0.595
2.178,0.050,-0.685
2.181,0.130,-0.785
2.183,0.175,-0.840
2.186,0.220,-0.870
2.189,0.230,-0.855
2.192,0.220,-0.845
2.194,0.185,-0.845
2.197,0.120,-0.870
2.200,0.015,-0.865
2.203,-0.050,-0.825
2.206,-0.050,-0.775
2.208,0.015,-0.735
2.211,0.120,-0.705
2.214,0.240,-0.675
2.217,0.380,-0.675
2.219,0.490,-0.655
2.222,0.590,-0.640
2.225,0.685,-0.600
2.228,0.745,-0.560
2.231,0.750,-0.540
2.233,0.680,-0.515
2.236,0.565,-0.470
2.239,0.455,-0.425
2.242,0.375,-0.340
2.244,0.290,-0.295
2.247,0.210,-0.250
2.250,0.120,-0.220
2.253,0.005,-0.180
2.256,-0.110,-0.100
2.258,-0.200,-0.030
2.261,-0.275,0.040
2.264,-0.350,0.070
2.267,-0.420,0.110
2.269,-0.455,0.130
2.272,-0.480,0.170
2.275,-0.475,0.210
2.278,-0.435,0.225
2.281,-0.400,0.225
2.283,-0.370,0.220
2.286,-0.340,0.205
2.289,-0.325,0.205
2.292,-0.305,0.240
2.294,-0.270,0.265
2.297,-0.260,0.260
2.300,-0.255,0.260
2.303,-0.260,0.245
2.306,-0.280,0.245
2.308,-0.255,0.255
2.311,-0.250,0.275
2.314,-0.245,0.270
2.317,-0.240,0.260
2.319,-0.250,0.260
2.322,-0.250,0.275
2.325,-0.240,0.285
2.328,-0.225,0.300
2.331,-0.215,0.305
2.333,-0.235,0.295
2.336,-0.240,0.290
2.339,-0.245,0.305
2.342,-0.235,0.305
2.344,-0.215,0.335
2.347,-0.210,0.340
2.350,-0.220,0.315
2.353,-0.235,0.325
2.356,-0.230,0.330
2.358,-0.225,0.335
2.361,-0.215,0.355
2.364,-0.195,0.355
2.367,-0.185,0.355
2.369,-0.200,0.345
2.372,-0.190,0.365
2.375,-0.190,0.365
2.378,-0.170,0.375
2.381,-0.165,0.365
2.383,-0.165,0.375
2.386,-0.175,0.355
2.389,-0.180,0.380
2.392,-0.165,0.390
2.394,-0.140,0.410
2.397,-0.125,0.395
2.400,-0.130,0.380
2.403,-0.135,0.370
2.406,-0.120,0.385
2.408,-0.110,0.400
2.411,-0.095,0.430
2.414,-0.080,0.430
2.417,-0.075,0.415
2.419,-0.085,0.410
2.422,-0.070,0.415
2.425,-0.055,0.425
2.428,-0.040,0.445
2.431,-0.030,0.435
2.433,-0.015,0.415
2.436,-0.025,0.400
2.439,-0.025,0.410
2.442,0.000,0.410
2.444,0.020,0.425
2.447,0.045,0.400
2.450,0.045,0.390
2.453,0.035,0.370
2.456,0.035,0.355
2.458,0.070,0.355
2.461,0.085,0.360
2.464,0.100,0.335
2.467,0.115,0.300
2.469,0.110,0.275
2.472,0.110,0.255
2.475,0.120,0.245
2.478,0.150,0.235
2.481,0.160,0.205
2.483,0.170,0.185
2.486,0.170,0.160
2.489,0.175,0.155
2.492,0.190,0.135
2.494,0.190,0.135
2.497,0.210,0.105
2.500,0.225,0.080
2.503,0.200,0.065
2.506,0.195,0.060
2.508,0.195,0.075
2.511,0.205,0.090
2.514,0.190,0.085
2.517,0.170,0.075
2.519,0.125,0.070
2.522,0.110,0.070
2.525,0.095,0.085
2.528,0.080,0.100
2.531,0.080,0.080
2.533,0.045,0.065
2.536,0.015,0.065
2.539,-0.015,0.065
2.542,-0.035,0.075
2.544,-0.035,0.085
2.547,-0.040,0.075
2.550,-0.080,0.070
2.553,-0.095,0.070
2.556,-0.095,0.070
2.558,-0.090,0.095
2.561,-0.100,0.090
2.564,-0.095,0.080
2.567,-0.100,0.065
2.569,-0.130,0.045
2.572,-0.130,0.050
2.575,-0.125,0.065
2.578,-0.125,0.075
2.581,-0.125,0.070
2.583,-0.135,0.055
2.586,-0.145,0.055
2.589,-0.155,0.060
2.592,-0.150,0.085
2.594,-0.140,0.090
2.597,-0.130,0.080
2.600,-0.145,0.075
2.603,-0.150,0.070
2.606,-0.145,0.085
2.608,-0.155,0.085
2.611,-0.145,0.095
2.614,-0.120,0.100
2.617,-0.145,0.075
2.619,-0.155,0.080
2.622,-0.165,0.080
2.625,-0.150,0.085
2.628,-0.130,0.105
2.631,-0.130,0.100
2.633,-0.140,0.085
2.636,-0.150,0.085
2.639,-0.145,0.080
2.642,-0.145,0.090
2.644,-0.145,0.110
2.647,-0.125,0.090
2.650,-0.140,0.085
2.653,-0.150,0.085
2.656,-0.165,0.070
2.658,-0.155,0.100
2.661,-0.145,0.110
2.664,-0.155,0.105
2.667,-0.150,0.095
2.669,-0.165,0.095
2.672,-0.170,0.100
2.675,-0.160,0.120
2.678,-0.150,0.125
2.681,-0.150,0.115
2.683,-0.155,0.120
2.686,-0.170,0.115
2.689,-0.195,0.105
2.692,-0.180,0.095
2.694,-0.155,0.095
2.697,-0.150,0.110
2.700,-0.160,0.115
2.703,-0.175,0.100
2.706,-0.175,0.090
2.708,-0.165,0.085
2.711,-0.140,0.080
2.714,-0.140,0.070
2.717,-0.145,0.060
2.719,-0.170,0.055
2.722,-0.180,0.070
2.725,-0.170,0.095
2.728,-0.150,0.105
2.731,-0.150,0.100
2.733,-0.155,0.085
2.736,-0.165,0.060
2.739,-0.175,0.065
2.742,-0.175,0.070
2.744,-0.155,0.075
2.747,-0.145,0.065
2.750,-0.155,0.050
2.753,-0.170,0.050
2.756,-0.180,0.065
2.758,-0.160,0.070
2.761,-0.150,0.080
2.764,-0.155,0.080
2.767,-0.165,0.075
2.769,-0.170,0.075
2.772,-0.185,0.080
2.775,-0.180,0.090
2.778,-0.170,0.075
2.781,-0.170,0.065
2.783,-0.175,0.045
2.786,-0.180,0.065
2.789,-0.185,0.080
2.792,-0.160,0.095
2.794,-0.170,0.100
2.797,-0.180,0.090
2.800,-0.180,0.085
2.803,-0.205,0.095
2.806,-0.175,0.110
2.808,-0.160,0.115
2.811,-0.160,0.105
2.814,-0.160,0.075
2.817,-0.165,0.070
2.819,-0.170,0.075
2.822,-0.150,0.080
2.825,-0.120,0.110
2.828,-0.115,0.110
2.831,-0.120,0.100
2.833,-0.140,0.080
2.836,-0.145,0.080
2.839,-0.135,0.090
2.842,-0.110,0.085
2.844,-0.100,0.075
2.847,-0.105,0.055
2.850,-0.120,0.045
2.853,-0.115,0.040
2.856,-0.105,0.060
2.858,-0.090,0.060
2.861,-0.085,0.045
2.864,-0.100,0.020
2.867,-0.120,0.005
2.869,-0.130,0.005
2.872,-0.125,0.015
2.875,-0.115,0.030
2.878,-0.120,0.020
2.881,-0.130,0.010
2.883,-0.150,-0.005
2.886,-0.155,0.000
2.889,-0.160,0.010
2.892,-0.150,0.020
2.894,-0.155,0.005
2.897,-0.155,0.000
2.900,-0.175,-0.005
2.903,-0.200,-0.010
2.906,-0.205,0.005
2.908,-0.180,0.015
2.911,-0.175,0.005
2.914,-0.200,0.015
2.917,-0.210,0.020
2.919,-0.225,0.030
2.922,-0.200,0.055
2.925,-0.190,0.060
2.928,-0.190,0.065
2.931,-0.220,0.045
2.933,-0.245,0.045
2.936,-0.265,0.050
2.939,-0.255,0.060
2.942,-0.230,0.065
2.944,-0.225,0.060
2.947,-0.220,0.055
2.950,-0.245,0.040
2.953,-0.255,0.050
2.956,-0.245,0.070
2.958,-0.240,0.075
2.961,-0.230,0.070
2.964,-0.245,0.055
2.967,-0.265,0.050
2.969,-0.275,0.060
2.972,-0.265,0.065
2.975,-0.250,0.080
2.978,-0.250,0.070
2.981,-0.250,0.060
2.983,-0.270,0.055
2.986,-0.275,0.065
2.989,-0.255,0.075
2.992,-0.255,0.085
2.994,-0.260,0.075
2.997,-0.255,0.060
3.000,-0.275,0.055
3.003,-0.285,0.055
3.006,-0.260,0.055
3.008,-0.275,0.070
3.011,-0.275,0.065
3.014,-0.265,0.045
3.017,-0.280,0.030
3.019,-0.285,0.040
3.022,-0.275,0.065
3.025,-0.260,0.070
3.028,-0.260,0.055
3.031,-0.255,0.050
3.033,-0.265,0.035
3.036,-0.270,0.045
3.039,-0.260,0.040
3.042,-0.250,0.060
3.044,-0.240,0.055
3.047,-0.255,0.065
3.050,-0.265,0.045
3.053,-0.260,0.025
3.056,-0.235,-0.010
3.058,-0.210,-0.065
3.061,-0.180,-0.160
3.064,-0.165,-0.280
3.067,-0.150,-0.400
3.069,-0.115,-0.510
3.072,-0.060,-0.610
3.075,0.015,-0.705
3.078,0.090,-0.810
3.081,0.135,-0.865
3.083,0.145,-0.905
3.086,0.150,-0.920
3.089,0.145,-0.900
3.092,0.115,-0.890
3.094,0.050,-0.910
3.097,-0.050,-0.920
3.100,-0.125,-0.895
3.103,-0.165,-0.870
3.106,-0.120,-0.810
3.108,-0.030,-0.765
3.111,0.080,-0.740
3.114,0.210,-0.720
3.117,0.300,-0.695
3.119,0.410,-0.680
3.122,0.525,-0.655
3.125,0.630,-0.610
3.128,0.690,-0.605
3.131,0.670,-0.580
3.133,0.600,-0.555
3.136,0.485,-0.495
3.139,0.390,-0.425
3.142,0.310,-0.365
3.144,0.215,-0.320
3.147,0.120,-0.275
3.150,0.005,-0.240
3.153,-0.100,-0.180
3.156,-0.200,-0.115
3.158,-0.290,-0.060
3.161,-0.375,-0.005
3.164,-0.460,0.040
3.167,-0.505,0.075
3.169,-0.545,0.110
3.172,-0.555,0.165
3.175,-0.520,0.185
3.178,-0.505,0.190
3.181,-0.470,0.185
3.183,-0.455,0.185
3.186,-0.440,0.190
3.189,-0.410,0.225
3.192,-0.365,0.225
3.194,-0.345,0.230
3.197,-0.340,0.220
3.200,-0.345,0.215
3.203,-0.355,0.235
3.206,-0.355,0.250
3.208,-0.340,0.275
3.211,-0.320,0.265
3.214,-0.325,0.245
3.217,-0.350,0.245
3.219,-0.340,0.250
3.222,-0.335,0.265
3.225,-0.325,0.280
3.228,-0.320,0.265
3.231,-0.320,0.270
3.233,-0.325,0.260
3.236,-0.335,0.270
3.239,-0.330,0.285
3.242,-0.315,0.305
3.244,-0.305,0.285
3.247,-0.305,0.285
3.250,-0.330,0.275
3.253,-0.320,0.290
3.256,-0.310,0.305
3.258,-0.310,0.315
3.261,-0.305,0.325
3.264,-0.295,0.305
3.267,-0.300,0.300
3.269,-0.310,0.315
3.272,-0.305,0.320
3.275,-0.290,0.345
3.278,-0.280,0.345
3.281,-0.270,0.330
3.283,-0.280,0.325
3.286,-0.280,0.345
3.289,-0.275,0.350
3.292,-0.255,0.365
3.294,-0.235,0.365
3.297,-0.250,0.370
3.300,-0.265,0.360
3.303,-0.260,0.365
3.306,-0.235,0.380
3.308,-0.220,0.405
3.311,-0.215,0.400
3.314,-0.200,0.380
3.317,-0.200,0.365
3.319,-0.195,0.385
3.322,-0.185,0.385
3.325,-0.170,0.400
3.328,-0.150,0.395
3.331,-0.145,0.395
3.333,-0.140,0.380
3.336,-0.130,0.375
3.339,-0.130,0.390
3.342,-0.100,0.395
3.344,-0.080,0.385
3.347,-0.075,0.370
3.350,-0.080,0.350
3.353,-0.065,0.340
3.356,-0.040,0.340
3.358,-0.030,0.340
3.361,-0.015,0.315
3.364,-0.015,0.285
3.367,-0.015,0.265
3.369,0.000,0.250
3.372,0.025,0.240
3.375,0.035,0.225
3.378,0.035,0.195
3.381,0.040,0.175
3.383,0.035,0.135
3.386,0.045,0.130
3.389,0.055,0.135
3.392,0.080,0.125
3.394,0.100,0.105
3.397,0.095,0.080
3.400,0.085,0.060
3.403,0.080,0.060
3.406,0.070,0.065
3.408,0.075,0.080
3.411,0.075,0.080
3.414,0.045,0.050
3.417,0.015,0.045
3.419,-0.025,0.050
3.422,-0.030,0.070
3.425,-0.040,0.080
3.428,-0.050,0.060
3.431,-0.085,0.050
3.433,-0.110,0.055
3.436,-0.135,0.045
3.439,-0.150,0.045
3.442,-0.160,0.055
3.444,-0.165,0.050
3.447,-0.180,0.040
3.450,-0.210,0.040
3.453,-0.215,0.045
3.456,-0.210,0.045
3.458,-0.210,0.065
3.461,-0.210,0.055
3.464,-0.220,0.040
3.467,-0.250,0.040
3.469,-0.275,0.040
3.472,-0.265,0.055
3.475,-0.260,0.050
3.478,-0.260,0.060
3.481,-0.260,0.050
3.483,-0.290,0.040
3.486,-0.305,0.040
3.489,-0.290,0.065
3.492,-0.285,0.065
3.494,-0.265,0.050
3.497,-0.280,0.045
3.500,-0.295,0.045
3.503,-0.310,0.045
3.506,-0.295,0.065
3.508,-0.280,0.080
3.511,-0.285,0.070
3.514,-0.280,0.050
3.517,-0.305,0.040
3.519,-0.305,0.050
3.522,-0.290,0.075
3.525,-0.290,0.090
3.528,-0.290,0.080
3.531,-0.295,0.070
3.533,-0.300,0.050
3.536,-0.305,0.070
3.539,-0.285,0.080
3.542,-0.270,0.090
3.544,-0.270,0.095
3.547,-0.280,0.080
3.550,-0.305,0.065
3.553,-0.300,0.080
3.556,-0.295,0.090
3.558,-0.280,0.100
3.561,-0.280,0.105
3.564,-0.300,0.085
3.567,-0.295,0.080
3.569,-0.305,0.090
3.572,-0.295,0.100
3.575,-0.295,0.110
3.578,-0.290,0.090
3.581,-0.290,0.085
3.583,-0.305,0.085
3.586,-0.310,0.090
3.589,-0.295,0.095
3.592,-0.300,0.105
3.594,-0.275,0.095
3.597,-0.295,0.080
3.600,-0.305,0.080
3.603,-0.315,0.100
3.606,-0.300,0.100
3.608,-0.290,0.110
3.611,-0.295,0.085
3.614,-0.290,0.075
3.617,-0.315,0.060
3.619,-0.330,0.065
3.622,-0.330,0.085
3.625,-0.290,0.100
3.628,-0.285,0.080
3.631,-0.285,0.085
3.633,-0.290,0.070
3.636,-0.305,0.075
3.639,-0.305,0.090
3.642,-0.285,0.105
3.644,-0.285,0.090
3.647,-0.295,0.075
3.650,-0.290,0.075
3.653,-0.305,0.075
3.656,-0.285,0.095
3.658,-0.305,0.110
3.661,-0.290,0.090
3.664,-0.285,0.095
3.667,-0.310,0.070
3.669,-0.330,0.080
3.672,-0.330,0.095
3.675,-0.320,0.105
3.678,-0.305,0.115
3.681,-0.310,0.100
3.683,-0.330,0.095
3.686,-0.335,0.105
3.689,-0.305,0.130
3.692,-0.285,0.145
3.694,-0.270,0.140
3.697,-0.265,0.130
3.700,-0.280,0.120
3.703,-0.285,0.120
3.706,-0.280,0.130
3.708,-0.280,0.155
3.711,-0.250,0.140
3.714,-0.255,0.125
3.717,-0.270,0.095
3.719,-0.260,0.085
3.722,-0.245,0.070
3.725,-0.235,0.080
3.728,-0.200,0.070
3.731,-0.195,0.070
3.733,-0.210,0.040
3.736,-0.230,0.045
3.739,-0.235,0.040
3.742,-0.230,0.055
3.744,-0.225,0.050
3.747,-0.230,0.035
3.750,-0.255,0.025
3.753,-0.255,0.035
3.756,-0.270,0.020
3.758,-0.260,0.030
3.761,-0.270,0.015
3.764,-0.285,-0.005
3.767,-0.280,0.000
3.769,-0.285,0.010
3.772,-0.270,0.030
3.775,-0.275,0.035
3.778,-0.255,0.055
3.781,-0.280,0.050
3.783,-0.310,0.045
3.786,-0.335,0.065
3.789,-0.325,0.090
3.792,-0.315,0.110
3.794,-0.320,0.110
3.797,-0.335,0.095
3.800,-0.350,0.095
3.803,-0.360,0.125
3.806,-0.335,0.140
3.808,-0.320,0.120
3.811,-0.305,0.080
3.814,-0.315,0.040
3.817,-0.340,0.035
3.819,-0.340,0.035
3.822,-0.340,0.050
3.825,-0.330,0.060
3.828,-0.325,0.070
3.831,-0.330,0.045
3.833,-0.365,0.060
3.836,-0.365,0.065
3.839,-0.355,0.090
3.842,-0.340,0.095
3.844,-0.335,0.085
3.847,-0.345,0.090
3.850,-0.350,0.075
3.853,-0.350,0.070
3.856,-0.345,0.095
3.858,-0.330,0.115
3.861,-0.320,0.100
3.864,-0.340,0.085
3.867,-0.330,0.065
3.869,-0.335,0.070
3.872,-0.330,0.080
3.875,-0.310,0.095
3.878,-0.305,0.080
3.881,-0.305,0.075
3.883,-0.325,0.055
3.886,-0.325,0.075
3.889,-0.300,0.080
3.892,-0.280,0.090
3.894,-0.260,0.065
3.897,-0.260,0.010
3.900,-0.250,-0.075
3.903,-0.255,-0.150
3.906,-0.215,-0.245
3.908,-0.135,-0.350
3.911,-0.065,-0.465
3.914,0.025,-0.585
3.917,0.085,-0.695
3.919,0.155,-0.765
3.922,0.250,-0.795
3.925,0.310,-0.785
3.928,0.330,-0.780
3.931,0.305,-0.760
3.933,0.255,-0.805
3.936,0.185,-0.815
3.939,0.120,-0.800
3.942,0.095,-0.760
3.944,0.070,-0.730
3.947,0.080,-0.695
3.950,0.130,-0.680
3.953,0.235,-0.655
3.956,0.360,-0.625
3.958,0.505,-0.600
3.961,0.630,-0.570
3.964,0.705,-0.560
3.967,0.755,-0.525
3.969,0.755,-0.485
3.972,0.705,-0.410
3.975,0.660,-0.365
3.978,0.590,-0.315
3.981,0.515,-0.275
3.983,0.430,-0.235
3.986,0.340,-0.195
3.989,0.260,-0.125
3.992,0.185,-0.060
3.994,0.070,-0.005
3.997,-0.040,0.040
4.000,-0.175,0.080
4.003,-0.290,0.140
4.006,-0.365,0.190
4.008,-0.420,0.225
4.011,-0.455,0.230
4.014,-0.485,0.220
4.017,-0.465,0.215
4.019,-0.450,0.230
4.022,-0.425,0.245
4.025,-0.405,0.285
4.028,-0.385,0.280
4.031,-0.370,0.265
4.033,-0.370,0.255
4.036,-0.385,0.265
4.039,-0.390,0.280
4.042,-0.380,0.280
4.044,-0.380,0.265
4.047,-0.390,0.280
4.050,-0.400,0.275
4.053,-0.395,0.280
4.056,-0.400,0.295
4.058,-0.375,0.325
4.061,-0.355,0.320
4.064,-0.375,0.305
4.067,-0.390,0.310
4.069,-0.395,0.325
4.072,-0.385,0.350
4.075,-0.375,0.385
4.078,-0.375,0.385
4.081,-0.365,0.375
4.083,-0.370,0.350
4.086,-0.385,0.315
4.089,-0.385,0.305
4.092,-0.365,0.305
4.094,-0.370,0.305
4.097,-0.355,0.320
4.100,-0.370,0.325
4.103,-0.375,0.340
4.106,-0.355,0.375
4.108,-0.345,0.380
4.111,-0.315,0.390
4.114,-0.325,0.355
4.117,-0.335,0.360
4.119,-0.345,0.365
4.122,-0.340,0.380
4.125,-0.335,0.405
4.128,-0.315,0.400
4.131,-0.305,0.405
4.133,-0.315,0.405
4.136,-0.310,0.410
4.139,-0.295,0.425
4.142,-0.285,0.455
4.144,-0.270,0.450
4.147,-0.265,0.445
4.150,-0.265,0.435
4.153,-0.270,0.440
4.156,-0.255,0.450
4.158,-0.225,0.455
4.161,-0.215,0.450
4.164,-0.205,0.450
4.167,-0.220,0.435
4.169,-0.200,0.450
4.172,-0.190,0.450
4.175,-0.170,0.470
4.178,-0.155,0.465
4.181,-0.145,0.450
4.183,-0.145,0.425
4.186,-0.140,0.390
4.189,-0.130,0.390
4.192,-0.090,0.395
4.194,-0.070,0.370
4.197,-0.050,0.330
4.200,-0.075,0.295
4.203,-0.070,0.290
4.206,-0.045,0.285
4.208,-0.025,0.260
4.211,0.005,0.225
4.214,0.020,0.195
4.217,0.030,0.170
4.219,0.040,0.165
4.222,0.065,0.170
4.225,0.090,0.165
4.228,0.120,0.155
4.231,0.130,0.140
4.233,0.115,0.130
4.236,0.105,0.120
4.239,0.110,0.120
4.242,0.125,0.130
4.244,0.115,0.120
4.247,0.105,0.095
4.250,0.070,0.095
4.253,0.050,0.090
4.256,0.040,0.090
4.258,0.025,0.100
4.261,0.010,0.095
4.264,-0.015,0.090
4.267,-0.055,0.095
4.269,-0.090,0.100
4.272,-0.090,0.125
4.275,-0.095,0.130
4.278,-0.100,0.115
4.281,-0.120,0.105
4.283,-0.145,0.080
4.286,-0.155,0.095
4.289,-0.150,0.090
4.292,-0.145,0.095
4.294,-0.155,0.095
4.297,-0.140,0.080
4.300,-0.175,0.100
4.303,-0.170,0.095
4.306,-0.170,0.095
4.308,-0.165,0.090
4.311,-0.150,0.065
4.314,-0.165,0.050
4.317,-0.175,0.035
4.319,-0.185,0.055
4.322,-0.165,0.075
4.325,-0.160,0.095
4.328,-0.160,0.070
4.331,-0.165,0.080
4.333,-0.175,0.050
4.336,-0.185,0.065
4.339,-0.180,0.075
4.342,-0.165,0.095
4.344,-0.150,0.095
4.347,-0.165,0.080
4.350,-0.175,0.075
4.353,-0.175,0.085
4.356,-0.175,0.100
4.358,-0.155,0.115
4.361,-0.155,0.105
4.364,-0.160,0.090
4.367,-0.160,0.080
4.369,-0.170,0.080
4.372,-0.150,0.095
4.375,-0.150,0.115
4.378,-0.155,0.110
4.381,-0.150,0.095
4.383,-0.160,0.080
4.386,-0.170,0.080
4.389,-0.150,0.095
4.392,-0.135,0.115
4.394,-0.130,0.120
4.397,-0.145,0.110
4.400,-0.150,0.095
4.403,-0.160,0.105
4.406,-0.155,0.105
4.408,-0.130,0.115
4.411,-0.130,0.100
4.414,-0.135,0.090
4.417,-0.145,0.090
4.419,-0.145,0.090
4.422,-0.145,0.110
4.425,-0.125,0.110
4.428,-0.105,0.095
4.431,-0.120,0.095
4.433,-0.135,0.090
4.436,-0.150,0.095
4.439,-0.140,0.105
4.442,-0.130,0.105
4.444,-0.125,0.100
4.447,-0.135,0.085
4.450,-0.145,0.070
4.453,-0.165,0.075
4.456,-0.160,0.090
4.458,-0.125,0.110
4.461,-0.125,0.095
4.464,-0.125,0.085
4.467,-0.130,0.075
4.469,-0.145,0.085
4.472,-0.135,0.100
4.475,-0.135,0.100
4.478,-0.120,0.100
4.481,-0.125,0.090
4.483,-0.140,0.075
4.486,-0.150,0.075
4.489,-0.140,0.090
4.492,-0.130,0.090
4.494,-0.135,0.105
4.497,-0.130,0.090
4.500,-0.150,0.075
4.503,-0.155,0.080
4.506,-0.160,0.095
4.508,-0.145,0.120
4.511,-0.135,0.115
4.514,-0.145,0.090
4.517,-0.150,0.080
4.519,-0.150,0.090
4.522,-0.155,0.105
4.525,-0.140,0.130
4.528,-0.125,0.135
4.531,-0.135,0.115
4.533,-0.155,0.110
4.536,-0.160,0.130
4.539,-0.145,0.135
4.542,-0.125,0.145
4.544,-0.105,0.140
4.547,-0.105,0.130
4.550,-0.120,0.135
4.553,-0.130,0.140
4.556,-0.130,0.155
4.558,-0.110,0.150
4.561,-0.100,0.155
4.564,-0.100,0.130
4.567,-0.110,0.120
4.569,-0.100,0.095
4.572,-0.095,0.100
4.575,-0.080,0.115
4.578,-0.050,0.105
4.581,-0.065,0.100
4.583,-0.070,0.080
4.586,-0.080,0.085
4.589,-0.075,0.085
4.592,-0.075,0.075
4.594,-0.080,0.085
4.597,-0.080,0.065
4.600,-0.100,0.055
4.603,-0.105,0.055
4.606,-0.095,0.035
4.608,-0.085,0.030
4.611,-0.090,0.010
4.614,-0.115,0.015
4.617,-0.130,0.015
4.619,-0.150,0.020
4.622,-0.140,0.035
4.625,-0.125,0.045
4.628,-0.120,0.035
4.631,-0.120,0.050
4.633,-0.145,0.045
4.636,-0.150,0.040
4.639,-0.150,0.070
4.642,-0.145,0.070
4.644,-0.135,0.090
4.647,-0.140,0.090
4.650,-0.155,0.085
4.653,-0.175,0.080
4.656,-0.180,0.100
4.658,-0.175,0.105
4.661,-0.170,0.095
4.664,-0.175,0.090
4.667,-0.190,0.090
4.669,-0.205,0.090
4.672,-0.180,0.110
4.675,-0.190,0.120
4.678,-0.170,0.110
4.681,-0.190,0.110
4.683,-0.195,0.090
4.686,-0.200,0.100
4.689,-0.190,0.105
4.692,-0.180,0.110
4.694,-0.185,0.105
4.697,-0.190,0.100
4.700,-0.205,0.095
4.703,-0.220,0.100
4.706,-0.215,0.100
4.708,-0.210,0.125
4.711,-0.195,0.110
4.714,-0.210,0.105
4.717,-0.200,0.090
4.719,-0.220,0.105
4.722,-0.205,0.100
4.725,-0.200,0.105
4.728,-0.185,0.100
4.731,-0.205,0.080
4.733,-0.205,0.085
4.736,-0.200,0.095
4.739,-0.210,0.105
4.742,-0.175,0.120
4.744,-0.180,0.100
4.747,-0.175,0.095
4.750,-0.180,0.070
4.753,-0.200,0.075
4.756,-0.180,0.080
4.758,-0.160,0.080
4.761,-0.145,0.025
4.764,-0.135,-0.070
4.767,-0.130,-0.185
4.769,-0.115,-0.315
4.772,-0.080,-0.445
4.775,-0.005,-0.575
4.778,0.075,-0.710
4.781,0.150,-0.810
4.783,0.235,-0.875
4.786,0.305,-0.880
4.789,0.335,-0.850
4.792,0.365,-0.835
4.794,0.340,-0.845
4.797,0.280,-0.860
4.800,0.205,-0.865
4.803,0.160,-0.830
4.806,0.155,-0.775
4.808,0.225,-0.720
4.811,0.345,-0.690
4.814,0.490,-0.665
4.817,0.600,-0.650
4.819,0.720,-0.630
4.822,0.835,-0.590
4.825,0.925,-0.555
4.828,0.955,-0.530
4.831,0.885,-0.490
4.833,0.765,-0.435
4.836,0.660,-0.360
4.839,0.580,-0.285
4.842,0.520,-0.220
4.844,0.435,-0.180
4.847,0.305,-0.130
4.850,0.170,-0.085
4.853,0.025,-0.005
4.856,-0.135,0.070
4.858,-0.235,0.140
4.861,-0.315,0.180
4.864,-0.365,0.205
4.867,-0.405,0.230
4.869,-0.425,0.240
4.872,-0.400,0.265
4.875,-0.340,0.285
4.878,-0.310,0.295
4.881,-0.290,0.280
4.883,-0.265,0.285
4.886,-0.270,0.290
4.889,-0.270,0.305
4.892,-0.250,0.325
4.894,-0.245,0.320
4.897,-0.260,0.310
4.900,-0.260,0.305
4.903,-0.275,0.305
4.906,-0.260,0.320
4.908,-0.260,0.335
4.911,-0.250,0.330
4.914,-0.255,0.340
4.917,-0.270,0.310
4.919,-0.270,0.330
4.922,-0.260,0.340
4.925,-0.245,0.350
4.928,-0.240,0.345
4.931,-0.240,0.345
4.933,-0.270,0.345
4.936,-0.270,0.345
4.939,-0.260,0.370
4.942,-0.250,0.375
4.944,-0.245,0.390
4.947,-0.245,0.385
4.950,-0.245,0.375
4.953,-0.275,0.385
4.956,-0.265,0.405
4.958,-0.245,0.415
4.961,-0.240,0.420
4.964,-0.240,0.420
4.967,-0.255,0.410
4.969,-0.250,0.415
4.972,-0.240,0.445
4.975,-0.230,0.455
4.978,-0.220,0.460
4.981,-0.210,0.450
4.983,-0.225,0.440
4.986,-0.220,0.460
4.989,-0.235,0.470
4.992,-0.195,0.500
4.994,-0.175,0.495
4.997,-0.175,0.485
5.000,-0.180,0.470
5.003,-0.180,0.485
5.006,-0.160,0.490
5.008,-0.145,0.525
5.011,-0.130,0.500
5.014,-0.125,0.480
5.017,-0.115,0.475
5.019,-0.115,0.475
5.022,-0.095,0.480
5.025,-0.080,0.485
5.028,-0.060,0.480
5.031,-0.065,0.445
5.033,-0.065,0.430
5.036,-0.060,0.405
5.039,-0.035,0.415
5.042,-0.020,0.415
5.044,0.010,0.375
5.047,0.020,0.340
5.050,0.015,0.320
5.053,0.025,0.300
5.056,0.035,0.280
5.058,0.065,0.270
5.061,0.085,0.240
5.064,0.105,0.215
5.067,0.120,0.180
5.069,0.115,0.180
5.072,0.150,0.175
5.075,0.185,0.180
5.078,0.190,0.170
5.081,0.190,0.155
5.083,0.175,0.135
5.086,0.160,0.135
5.089,0.160,0.140
5.092,0.155,0.150
5.094,0.135,0.140
5.097,0.115,0.120
5.100,0.080,0.105
5.103,0.050,0.110
5.106,0.040,0.120
5.108,0.035,0.135
5.111,0.035,0.125
5.114,0.005,0.115
5.117,-0.030,0.100
5.119,-0.045,0.110
5.122,-0.080,0.115
5.125,-0.060,0.135
5.128,-0.055,0.125
5.131,-0.070,0.100
5.133,-0.095,0.110
5.136,-0.110,0.105
5.139,-0.105,0.110
5.142,-0.095,0.125
5.144,-0.090,0.120
5.147,-0.110,0.105
5.150,-0.125,0.115
5.153,-0.145,0.110
5.156,-0.150,0.130
5.158,-0.140,0.135
5.161,-0.130,0.130
5.164,-0.135,0.110
5.167,-0.130,0.115
5.169,-0.140,0.120
5.172,-0.150,0.130
5.175,-0.140,0.135
5.178,-0.125,0.130
5.181,-0.130,0.125
5.183,-0.140,0.105
5.186,-0.155,0.115
5.189,-0.140,0.130
5.192,-0.130,0.145
5.194,-0.110,0.140
5.197,-0.125,0.125
5.200,-0.140,0.120
5.203,-0.160,0.135
5.206,-0.140,0.145
5.208,-0.135,0.150
5.211,-0.115,0.145
5.214,-0.130,0.125
5.217,-0.150,0.110
5.219,-0.155,0.150
5.222,-0.150,0.155
5.225,-0.135,0.170
5.228,-0.130,0.160
5.231,-0.140,0.150
5.233,-0.145,0.140
5.236,-0.160,0.140
5.239,-0.145,0.150
5.242,-0.135,0.165
5.244,-0.135,0.155
5.247,-0.140,0.140
5.250,-0.165,0.150
5.253,-0.165,0.140
5.256,-0.165,0.170
5.258,-0.155,0.180
5.261,-0.140,0.180
5.264,-0.140,0.155
5.267,-0.170,0.130
5.269,-0.180,0.140
5.272,-0.170,0.145
5.275,-0.160,0.170
5.278,-0.150,0.155
5.281,-0.170,0.135
5.283,-0.175,0.135
5.286,-0.175,0.135
5.289,-0.175,0.150
5.292,-0.170,0.150
5.294,-0.155,0.165
5.297,-0.170,0.155
5.300,-0.180,0.135
5.303,-0.185,0.130
5.306,-0.180,0.140
5.308,-0.180,0.150
5.311,-0.160,0.150
5.314,-0.170,0.130
5.317,-0.175,0.125
5.319,-0.200,0.130
5.322,-0.190,0.145
5.325,-0.170,0.160
5.328,-0.160,0.150
5.331,-0.175,0.140
5.333,-0.180,0.120
5.336,-0.190,0.130
5.339,-0.195,0.145
5.342,-0.180,0.145
5.344,-0.175,0.150
5.347,-0.170,0.135
5.350,-0.190,0.120
5.353,-0.205,0.130
5.356,-0.200,0.135
5.358,-0.170,0.150
5.361,-0.155,0.145
5.364,-0.180,0.135
5.367,-0.185,0.140
5.369,-0.190,0.160
5.372,-0.185,0.170
5.375,-0.170,0.185
5.378,-0.160,0.190
5.381,-0.165,0.180
5.383,-0.185,0.170
5.386,-0.175,0.170
5.389,-0.175,0.180
5.392,-0.140,0.190
5.394,-0.125,0.195
5.397,-0.130,0.195
5.400,-0.140,0.180
5.403,-0.150,0.165
5.406,-0.140,0.175
5.408,-0.120,0.165
5.411,-0.120,0.155
5.414,-0.110,0.130
5.417,-0.115,0.120
5.419,-0.110,0.105
5.422,-0.110,0.115
5.425,-0.080,0.130
5.428,-0.070,0.110
5.431,-0.085,0.095
5.433,-0.105,0.090
5.436,-0.130,0.070
5.439,-0.115,0.075
5.442,-0.110,0.085
5.444,-0.100,0.095
5.447,-0.125,0.080
5.450,-0.150,0.075
5.453,-0.155,0.070
5.456,-0.145,0.075
5.458,-0.145,0.090
5.461,-0.140,0.085
5.464,-0.150,0.075
5.467,-0.165,0.070
5.469,-0.175,0.070
5.472,-0.175,0.085
5.475,-0.175,0.095
5.478,-0.165,0.085
5.481,-0.165,0.100
5.483,-0.180,0.095
5.486,-0.190,0.100
5.489,-0.195,0.110
5.492,-0.195,0.130
5.494,-0.190,0.125
5.497,-0.215,0.120
5.500,-0.225,0.105
5.503,-0.220,0.110
5.506,-0.205,0.130
5.508,-0.190,0.140
5.511,-0.190,0.130
5.514,-0.205,0.125
5.517,-0.225,0.105
5.519,-0.250,0.125
5.522,-0.240,0.135
5.525,-0.210,0.135
5.528,-0.220,0.140
5.531,-0.225,0.125
5.533,-0.240,0.120
5.536,-0.240,0.125
5.539,-0.235,0.140
5.542,-0.220,0.155
5.544,-0.210,0.145
5.547,-0.220,0.120
5.550,-0.220,0.120
5.553,-0.240,0.120
5.556,-0.250,0.125
5.558,-0.220,0.140
5.561,-0.210,0.130
5.564,-0.220,0.115
5.567,-0.225,0.110
5.569,-0.230,0.120
5.572,-0.235,0.120
5.575,-0.220,0.145
5.578,-0.210,0.130
5.581,-0.220,0.120
5.583,-0.225,0.105
5.586,-0.250,0.095
5.589,-0.230,0.105
5.592,-0.210,0.125
5.594,-0.195,0.130
5.597,-0.210,0.090
5.600,-0.195,0.030
5.603,-0.185,-0.035
5.606,-0.165,-0.125
5.608,-0.125,-0.245
5.611,-0.100,-0.385
5.614,-0.060,-0.535
5.617,-0.005,-0.680
5.619,0.070,-0.765
5.622,0.160,-0.835
5.625,0.215,-0.830
5.628,0.250,-0.830
5.631,0.250,-0.845
5.633,0.190,-0.860
5.636,0.115,-0.860
5.639,0.070,-0.825
5.642,0.060,-0.780
5.644,0.100,-0.735
5.647,0.175,-0.720
5.650,0.300,-0.690
5.653,0.430,-0.670
5.656,0.585,-0.625
5.658,0.730,-0.585
5.661,0.830,-0.575
5.664,0.865,-0.545
5.667,0.835,-0.535
5.669,0.715,-0.465
5.672,0.620,-0.390
5.675,0.525,-0.315
5.678,0.430,-0.260
5.681,0.315,-0.220
5.683,0.180,-0.165
5.686,0.025,-0.095
5.689,-0.130,-0.030
5.692,-0.245,0.055
5.694,-0.335,0.120
5.697,-0.420,0.170
5.700,-0.480,0.195
5.703,-0.510,0.235
5.706,-0.500,0.255
5.708,-0.450,0.280
5.711,-0.390,0.285
5.714,-0.355,0.275
5.717,-0.340,0.275
5.719,-0.340,0.295
5.722,-0.300,0.315
5.725,-0.300,0.330
5.728,-0.280,0.325
5.731,-0.295,0.320
5.733,-0.310,0.310
5.736,-0.330,0.320
5.739,-0.295,0.340
5.742,-0.305,0.365
5.744,-0.290,0.360
5.747,-0.290,0.355
5.750,-0.290,0.345
5.753,-0.305,0.345
5.756,-0.285,0.360
5.758,-0.275,0.365
5.761,-0.255,0.380
5.764,-0.265,0.365
5.767,-0.280,0.365
5.769,-0.285,0.375
5.772,-0.275,0.385
5.775,-0.270,0.405
5.778,-0.255,0.390
5.781,-0.260,0.390
5.783,-0.270,0.390
5.786,-0.275,0.410
5.789,-0.270,0.425
5.792,-0.255,0.455
5.794,-0.235,0.445
5.797,-0.245,0.440
5.800,-0.260,0.445
5.803,-0.245,0.445
5.806,-0.240,0.475
5.808,-0.215,0.490
5.811,-0.200,0.485
5.814,-0.215,0.490
5.817,-0.210,0.475
5.819,-0.215,0.490
5.822,-0.210,0.515
5.825,-0.185,0.520
5.828,-0.165,0.515
5.831,-0.170,0.505
5.833,-0.175,0.495
5.836,-0.170,0.505
5.839,-0.165,0.530
5.842,-0.140,0.530
5.844,-0.105,0.525
5.847,-0.115,0.495
5.850,-0.110,0.485
5.853,-0.110,0.485
5.856,-0.085,0.500
5.858,-0.050,0.505
5.861,-0.030,0.480
5.864,-0.035,0.455
5.867,-0.035,0.435
5.869,-0.015,0.425
5.872,-0.005,0.400
5.875,0.015,0.400
5.878,0.035,0.380
5.881,0.045,0.330
5.883,0.025,0.300
5.886,0.025,0.290
5.889,0.065,0.295
5.892,0.090,0.265
5.894,0.110,0.255
5.897,0.105,0.215
5.900,0.115,0.200
5.903,0.115,0.180
5.906,0.135,0.180
5.908,0.160,0.190
5.911,0.175,0.175
5.914,0.175,0.155
5.917,0.155,0.135
5.919,0.130,0.145
5.922,0.105,0.150
5.925,0.105,0.165
5.928,0.110,0.160
5.931,0.085,0.145
5.933,0.040,0.135
5.936,0.010,0.140
5.939,-0.015,0.155
5.942,-0.020,0.165
5.944,-0.025,0.155
5.947,-0.045,0.130
5.950,-0.080,0.110
5.953,-0.105,0.110
5.956,-0.120,0.135
5.958,-0.115,0.145
5.961,-0.120,0.135
5.964,-0.135,0.135
5.967,-0.165,0.125
5.969,-0.160,0.145
5.972,-0.170,0.125
5.975,-0.155,0.145
5.978,-0.145,0.145
5.981,-0.145,0.130
5.983,-0.180,0.120
5.986,-0.185,0.115
5.989,-0.175,0.140
5.992,-0.170,0.155
5.994,-0.155,0.155
5.997,-0.175,0.145
6.000,-0.190,0.125
6.003,-0.205,0.135
6.006,-0.180,0.145
6.008,-0.170,0.160
6.011,-0.160,0.160
6.014,-0.170,0.155
6.017,-0.195,0.140
6.019,-0.210,0.135
6.022,-0.200,0.155
6.025,-0.185,0.175
6.028,-0.175,0.165
6.031,-0.190,0.145
6.033,-0.215,0.135
6.036,-0.205,0.150
6.039,-0.205,0.170
6.042,-0.185,0.180
6.044,-0.185,0.175
6.047,-0.185,0.155
6.050,-0.210,0.155
6.053,-0.230,0.150
6.056,-0.210,0.175
6.058,-0.200,0.195
6.061,-0.190,0.175
6.064,-0.200,0.165
6.067,-0.205,0.160
6.069,-0.215,0.165
6.072,-0.220,0.180
6.075,-0.210,0.175
6.078,-0.205,0.180
6.081,-0.210,0.165
6.083,-0.210,0.150
6.086,-0.230,0.160
6.089,-0.225,0.180
6.092,-0.205,0.175
6.094,-0.200,0.185
6.097,-0.205,0.175
6.100,-0.215,0.165
6.103,-0.225,0.165
6.106,-0.215,0.165
6.108,-0.210,0.175
6.111,-0.205,0.180
6.114,-0.210,0.155
6.117,-0.230,0.150
6.119,-0.230,0.145
6.122,-0.220,0.150
6.125,-0.220,0.180
6.128,-0.200,0.175
6.131,-0.215,0.160
6.133,-0.230,0.155
6.136,-0.235,0.150
6.139,-0.230,0.150
6.142,-0.235,0.165
6.144,-0.220,0.155
6.147,-0.225,0.145
6.150,-0.240,0.130
6.153,-0.250,0.150
6.156,-0.245,0.150
6.158,-0.230,0.170
6.161,-0.225,0.160
6.164,-0.240,0.145
6.167,-0.250,0.140
6.169,-0.240,0.150
6.172,-0.240,0.170
6.175,-0.230,0.170
6.178,-0.225,0.175
6.181,-0.235,0.160
6.183,-0.265,0.150
6.186,-0.270,0.140
6.189,-0.260,0.135
6.192,-0.245,0.150
6.194,-0.240,0.160
6.197,-0.235,0.150
6.200,-0.260,0.135
6.203,-0.250,0.145
6.206,-0.260,0.175
6.208,-0.235,0.180
6.211,-0.230,0.180
6.214,-0.240,0.180
6.217,-0.245,0.180
6.219,-0.255,0.180
6.222,-0.255,0.195
6.225,-0.225,0.205
6.228,-0.210,0.210
6.231,-0.210,0.200
6.233,-0.215,0.195
6.236,-0.220,0.195
6.239,-0.210,0.205
6.242,-0.200,0.215
6.244,-0.190,0.195
6.247,-0.200,0.170
6.250,-0.205,0.135
6.253,-0.220,0.145
6.256,-0.195,0.145
6.258,-0.175,0.160
6.261,-0.170,0.145
6.264,-0.170,0.140
6.267,-0.205,0.110
6.269,-0.200,0.110
6.272,-0.185,0.110
6.275,-0.185,0.115
6.278,-0.175,0.105
6.281,-0.190,0.095
6.283,-0.205,0.085
6.286,-0.220,0.100
6.289,-0.230,0.105
6.292,-0.225,0.110
6.294,-0.205,0.105
6.297,-0.230,0.085
6.300,-0.250,0.075
6.303,-0.270,0.075
6.306,-0.255,0.080
6.308,-0.255,0.095
6.311,-0.250,0.090
6.314,-0.265,0.105
6.317,-0.275,0.095
6.319,-0.310,0.115
6.322,-0.310,0.135
6.325,-0.280,0.150
6.328,-0.290,0.155
6.331,-0.285,0.140
6.333,-0.315,0.130
6.336,-0.325,0.145
6.339,-0.325,0.155
6.342,-0.300,0.165
6.344,-0.285,0.165
6.347,-0.300,0.150
6.350,-0.320,0.140
6.353,-0.335,0.145
6.356,-0.320,0.150
6.358,-0.310,0.150
6.361,-0.310,0.150
6.364,-0.325,0.150
6.367,-0.330,0.145
6.369,-0.340,0.150
6.372,-0.340,0.160
6.375,-0.320,0.160
6.378,-0.315,0.155
6.381,-0.330,0.150
6.383,-0.340,0.135
6.386,-0.350,0.145
6.389,-0.345,0.150
6.392,-0.335,0.175
6.394,-0.325,0.165
6.397,-0.315,0.160
6.400,-0.340,0.145
6.403,-0.335,0.140
6.406,-0.340,0.150
6.408,-0.330,0.170
6.411,-0.315,0.155
6.414,-0.320,0.150
6.417,-0.320,0.135
6.419,-0.340,0.135
6.422,-0.315,0.150
6.425,-0.315,0.165
6.428,-0.315,0.140
6.431,-0.315,0.140
6.433,-0.315,0.135
6.436,-0.320,0.135
6.439,-0.310,0.145
6.442,-0.290,0.130
6.444,-0.260,0.065
6.447,-0.265,-0.030
6.450,-0.260,-0.150
6.453,-0.230,-0.290
6.456,-0.165,-0.410
6.458,-0.070,-0.540
6.461,0.010,-0.655
6.464,0.095,-0.765
6.467,0.150,-0.830
6.469,0.170,-0.850
6.472,0.185,-0.810
6.475,0.165,-0.820
6.478,0.090,-0.830
6.481,-0.020,-0.825
6.483,-0.090,-0.795
6.486,-0.100,-0.750
6.489,-0.040,-0.695
6.492,0.085,-0.655
6.494,0.255,-0.620
6.497,0.410,-0.610
6.500,0.525,-0.590
6.503,0.620,-0.570
6.506,0.700,-0.535
6.508,0.740,-0.500
6.511,0.700,-0.470
6.514,0.590,-0.425
6.517,0.470,-0.370
6.519,0.355,-0.310
6.522,0.240,-0.225
6.525,0.130,-0.150
6.528,0.025,-0.110
6.531,-0.105,-0.050
6.533,-0.235,-0.005
6.536,-0.360,0.065
6.539,-0.450,0.150
6.542,-0.495,0.225
6.544,-0.540,0.255
6.547,-0.565,0.265
6.550,-0.560,0.270
6.553,-0.535,0.295
6.556,-0.495,0.315
6.558,-0.445,0.335
6.561,-0.420,0.340
6.564,-0.390,0.330
6.567,-0.410,0.325
6.569,-0.410,0.340
6.572,-0.415,0.345
6.575,-0.395,0.380
6.578,-0.385,0.365
6.581,-0.390,0.365
6.583,-0.415,0.345
6.586,-0.410,0.370
6.589,-0.420,0.375
6.592,-0.415,0.385
6.594,-0.390,0.390
6.597,-0.385,0.380
6.600,-0.395,0.380
6.603,-0.400,0.390
6.606,-0.380,0.410
6.608,-0.370,0.415
6.611,-0.355,0.420
6.614,-0.355,0.415
6.617,-0.365,0.405
6.619,-0.385,0.405
6.622,-0.370,0.425
6.625,-0.365,0.445
6.628,-0.345,0.435
6.631,-0.350,0.435
6.633,-0.355,0.445
6.636,-0.350,0.455
6.639,-0.345,0.465
6.642,-0.325,0.480
6.644,-0.315,0.485
6.647,-0.305,0.490
6.650,-0.315,0.480
6.653,-0.325,0.495
6.656,-0.305,0.510
6.658,-0.280,0.525
6.661,-0.275,0.520
6.664,-0.270,0.515
6.667,-0.265,0.505
6.669,-0.290,0.520
6.672,-0.260,0.535
6.675,-0.215,0.530
6.678,-0.205,0.535
6.681,-0.190,0.520
6.683,-0.200,0.515
6.686,-0.190,0.510
6.689,-0.170,0.520
6.692,-0.155,0.515
6.694,-0.130,0.510
6.697,-0.115,0.495
6.700,-0.110,0.460
6.703,-0.100,0.460
6.706,-0.090,0.450
6.708,-0.070,0.450
6.711,-0.035,0.420
6.714,-0.045,0.375
6.717,-0.035,0.355
6.719,-0.035,0.335
6.722,-0.015,0.320
6.725,0.010,0.310
6.728,0.055,0.275
6.731,0.050,0.240
6.733,0.070,0.220
6.736,0.070,0.220
6.739,0.085,0.210
6.742,0.090,0.225
6.744,0.110,0.215
6.747,0.100,0.170
6.750,0.065,0.170
6.753,0.010,0.160
6.756,0.010,0.170
6.758,-0.005,0.200
6.761,-0.020,0.185
6.764,-0.050,0.170
6.767,-0.090,0.160
6.769,-0.135,0.150
6.772,-0.155,0.165
6.775,-0.170,0.185
6.778,-0.165,0.185
6.781,-0.170,0.155
6.783,-0.195,0.155
6.786,-0.225,0.165
6.789,-0.225,0.160
6.792,-0.220,0.175
6.794,-0.235,0.160
6.797,-0.235,0.160
6.800,-0.250,0.150
6.803,-0.255,0.140
6.806,-0.250,0.165
6.808,-0.240,0.170
6.811,-0.230,0.165
6.814,-0.245,0.160
6.817,-0.265,0.150
6.819,-0.260,0.155
6.822,-0.260,0.160
6.825,-0.245,0.165
6.828,-0.235,0.175
6.831,-0.240,0.170
6.833,-0.255,0.155
6.836,-0.270,0.160
6.839,-0.265,0.175
6.842,-0.240,0.185
6.844,-0.235,0.170
6.847,-0.235,0.170
6.850,-0.260,0.160
6.853,-0.260,0.165
6.856,-0.255,0.180
6.858,-0.245,0.190
6.861,-0.235,0.185
6.864,-0.235,0.180
6.867,-0.245,0.155
6.869,-0.260,0.175
6.872,-0.250,0.190
6.875,-0.240,0.190
6.878,-0.230,0.190
6.881,-0.235,0.180
6.883,-0.260,0.175
6.886,-0.275,0.180
6.889,-0.275,0.190
6.892,-0.240,0.195
6.894,-0.240,0.185
6.897,-0.240,0.175
6.900,-0.250,0.180
6.903,-0.265,0.190
6.906,-0.250,0.195
6.908,-0.230,0.200
6.911,-0.220,0.190
6.914,-0.225,0.185
6.917,-0.240,0.170
6.919,-0.250,0.175
6.922,-0.250,0.180
6.925,-0.240,0.195
6.928,-0.220,0.180
6.931,-0.235,0.185
6.933,-0.245,0.160
6.936,-0.255,0.175
6.939,-0.250,0.175
6.942,-0.240,0.190
6.944,-0.230,0.185
6.947,-0.230,0.170
6.950,-0.250,0.160
6.953,-0.255,0.160
6.956,-0.255,0.190
6.958,-0.230,0.185
6.961,-0.220,0.175
6.964,-0.220,0.175
6.967,-0.235,0.165
6.969,-0.235,0.160
6.972,-0.250,0.175
6.975,-0.230,0.185
6.978,-0.210,0.185
6.981,-0.240,0.170
6.983,-0.240,0.150
6.986,-0.245,0.160
6.989,-0.250,0.155
6.992,-0.230,0.175
6.994,-0.220,0.175
6.997,-0.225,0.155
7.000,-0.235,0.145
7.003,-0.250,0.160
7.006,-0.240,0.170
7.008,-0.225,0.190
7.011,-0.220,0.190
7.014,-0.225,0.180
7.017,-0.240,0.180
7.019,-0.250,0.190
7.022,-0.240,0.205
7.025,-0.235,0.235
7.028,-0.205,0.215
7.031,-0.205,0.215
7.033,-0.205,0.205
7.036,-0.210,0.195
7.039,-0.195,0.220
7.042,-0.190,0.220
7.044,-0.180,0.210
7.047,-0.180,0.195
7.050,-0.185,0.190
7.053,-0.195,0.175
7.056,-0.185,0.180
7.058,-0.155,0.165
7.061,-0.130,0.170
7.064,-0.140,0.155
7.067,-0.140,0.140
7.069,-0.135,0.140
7.072,-0.140,0.135
7.075,-0.120,0.135
7.078,-0.120,0.125
7.081,-0.130,0.115
7.083,-0.150,0.090
7.086,-0.165,0.095
7.089,-0.150,0.105
7.092,-0.160,0.115
7.094,-0.160,0.100
7.097,-0.160,0.095
7.100,-0.175,0.070
7.103,-0.190,0.080
7.106,-0.175,0.085
7.108,-0.175,0.095
7.111,-0.170,0.095
7.114,-0.175,0.075
7.117,-0.190,0.080
7.119,-0.210,0.075
7.122,-0.220,0.090
7.125,-0.215,0.105
7.128,-0.185,0.110
7.131,-0.195,0.110
7.133,-0.205,0.105
7.136,-0.230,0.115
7.139,-0.225,0.135
7.142,-0.225,0.140
7.144,-0.210,0.140
7.147,-0.225,0.125
7.150,-0.245,0.120
7.153,-0.240,0.125
7.156,-0.235,0.130
7.158,-0.215,0.150
7.161,-0.205,0.135
7.164,-0.210,0.135
7.167,-0.225,0.125
7.169,-0.250,0.115
7.172,-0.240,0.130
7.175,-0.230,0.145
7.178,-0.230,0.140
7.181,-0.235,0.140
7.183,-0.240,0.115
7.186,-0.260,0.125
7.189,-0.245,0.140
7.192,-0.240,0.155
7.194,-0.220,0.150
7.197,-0.225,0.145
7.200,-0.235,0.125
7.203,-0.255,0.125
7.206,-0.245,0.140
7.208,-0.240,0.150
7.211,-0.220,0.135
7.214,-0.220,0.125
7.217,-0.240,0.130
7.219,-0.245,0.130
7.222,-0.245,0.140
7.225,-0.235,0.155
7.228,-0.210,0.140
7.231,-0.225,0.140
7.233,-0.240,0.125
7.236,-0.240,0.115
7.239,-0.245,0.125
7.242,-0.230,0.145
7.244,-0.200,0.130
7.247,-0.215,0.120
7.250,-0.225,0.105
7.253,-0.240,0.105
7.256,-0.215,0.125
7.258,-0.190,0.120
7.261,-0.175,0.090
7.264,-0.155,-0.005
7.267,-0.150,-0.085
7.269,-0.135,-0.185
7.272,-0.100,-0.285
7.275,-0.045,-0.390
7.278,0.015,-0.530
7.281,0.080,-0.635
7.283,0.125,-0.740
7.286,0.175,-0.785
7.289,0.240,-0.785
7.292,0.270,-0.775
7.294,0.280,-0.780
7.297,0.225,-0.790
7.300,0.155,-0.805
7.303,0.070,-0.790
7.306,0.025,-0.745
7.308,0.050,-0.710
7.311,0.105,-0.675
7.314,0.185,-0.655
7.317,0.275,-0.640
7.319,0.390,-0.615
7.322,0.540,-0.595
7.325,0.660,-0.555
7.328,0.745,-0.535
7.331,0.790,-0.520
7.333,0.760,-0.505
7.336,0.690,-0.465
7.339,0.600,-0.415
7.342,0.535,-0.340
7.344,0.455,-0.295
7.347,0.370,-0.235
7.350,0.275,-0.200
7.353,0.175,-0.145
7.356,0.070,-0.085
7.358,-0.035,-0.020
7.361,-0.130,0.025
7.364,-0.240,0.085
7.367,-0.325,0.125
7.369,-0.410,0.180
7.372,-0.435,0.225
7.375,-0.435,0.265
7.378,-0.430,0.275
7.381,-0.410,0.265
7.383,-0.400,0.265
7.386,-0.385,0.285
7.389,-0.350,0.305
7.392,-0.295,0.310
7.394,-0.260,0.320
7.397,-0.265,0.320
7.400,-0.275,0.305
7.403,-0.275,0.325
7.406,-0.275,0.340
7.408,-0.275,0.345
7.411,-0.265,0.350
7.414,-0.270,0.345
7.417,-0.265,0.340
7.419,-0.280,0.330
7.422,-0.270,0.360
7.425,-0.265,0.365
7.428,-0.245,0.365
7.431,-0.245,0.360
7.433,-0.270,0.350
7.436,-0.270,0.360
7.439,-0.265,0.375
7.442,-0.260,0.385
7.444,-0.240,0.390
7.447,-0.250,0.390
7.450,-0.245,0.370
7.453,-0.250,0.385
7.456,-0.245,0.395
7.458,-0.240,0.405
7.461,-0.215,0.405
7.464,-0.230,0.405
7.467,-0.245,0.400
7.469,-0.250,0.400
7.472,-0.235,0.430
7.475,-0.210,0.435
7.478,-0.195,0.445
7.481,-0.195,0.440
7.483,-0.220,0.425
7.486,-0.210,0.455
7.489,-0.210,0.475
7.492,-0.185,0.480
7.494,-0.170,0.475
7.497,-0.180,0.475
7.500,-0.170,0.475
7.503,-0.170,0.485
7.506,-0.170,0.500
7.508,-0.160,0.515
7.511,-0.140,0.515
7.514,-0.130,0.500
7.517,-0.130,0.495
7.519,-0.125,0.510
7.522,-0.120,0.515
7.525,-0.105,0.530
7.528,-0.080,0.525
7.531,-0.080,0.520
7.533,-0.075,0.510
7.536,-0.075,0.510
7.539,-0.055,0.515
7.542,-0.030,0.525
7.544,-0.010,0.505
7.547,-0.015,0.485
7.550,-0.015,0.465
7.553,-0.005,0.450
7.556,0.010,0.450
7.558,0.020,0.455
7.561,0.045,0.430
7.564,0.055,0.395
7.567,0.045,0.360
7.569,0.050,0.350
7.572,0.065,0.350
7.575,0.085,0.325
7.578,0.110,0.295
7.581,0.125,0.270
7.583,0.125,0.240
7.586,0.130,0.230
7.589,0.145,0.205
7.592,0.170,0.210
7.594,0.180,0.200
7.597,0.210,0.190
7.600,0.205,0.175
7.603,0.200,0.150
7.606,0.190,0.165
7.608,0.200,0.170
7.611,0.210,0.155
7.614,0.175,0.140
7.617,0.140,0.130
7.619,0.115,0.130
7.622,0.095,0.150
7.625,0.090,0.160
7.628,0.085,0.145
7.631,0.055,0.130
7.633,0.015,0.125
7.636,-0.010,0.125
7.639,-0.025,0.125
7.642,-0.020,0.140
7.644,-0.025,0.125
7.647,-0.050,0.125
7.650,-0.080,0.120
7.653,-0.090,0.115
7.656,-0.100,0.135
7.658,-0.090,0.150
7.661,-0.085,0.135
7.664,-0.095,0.125
7.667,-0.115,0.115
7.669,-0.140,0.120
7.672,-0.130,0.140
7.675,-0.125,0.150
7.678,-0.100,0.150
7.681,-0.115,0.140
7.683,-0.130,0.120
7.686,-0.140,0.130
7.689,-0.145,0.135
7.692,-0.145,0.145
7.694,-0.115,0.135
7.697,-0.115,0.130
7.700,-0.130,0.125
7.703,-0.155,0.125
7.706,-0.145,0.145
7.708,-0.140,0.160
7.711,-0.125,0.160
7.714,-0.125,0.140
7.717,-0.140,0.140
7.719,-0.145,0.130
7.722,-0.140,0.155
7.725,-0.140,0.155
7.728,-0.120,0.150
7.731,-0.120,0.145
7.733,-0.140,0.145
7.736,-0.135,0.155
7.739,-0.130,0.160
7.742,-0.115,0.175
7.744,-0.105,0.155
7.747,-0.125,0.155
7.750,-0.130,0.140
7.753,-0.140,0.150
7.756,-0.135,0.165
7.758,-0.125,0.170
7.761,-0.105,0.170
7.764,-0.115,0.155
7.767,-0.135,0.160
7.769,-0.135,0.150
7.772,-0.150,0.170
7.775,-0.125,0.170
7.778,-0.110,0.165
7.781,-0.120,0.170
7.783,-0.135,0.140
7.786,-0.155,0.150
7.789,-0.155,0.160
7.792,-0.130,0.170
7.794,-0.120,0.170
7.797,-0.125,0.160
7.800,-0.150,0.140
7.803,-0.160,0.155
7.806,-0.155,0.165
7.808,-0.140,0.175
7.811,-0.130,0.170
7.814,-0.140,0.155
7.817,-0.145,0.150
7.819,-0.170,0.145
7.822,-0.165,0.155
7.825,-0.150,0.170
7.828,-0.125,0.170
7.831,-0.135,0.165
7.833,-0.150,0.140
7.836,-0.160,0.145
7.839,-0.155,0.155
7.842,-0.140,0.170
7.844,-0.125,0.160
7.847,-0.150,0.145
7.850,-0.165,0.140
7.853,-0.180,0.140
7.856,-0.170,0.155
7.858,-0.155,0.150
7.861,-0.150,0.155
7.864,-0.150,0.140
7.867,-0.165,0.135
7.869,-0.180,0.140
7.872,-0.160,0.140
7.875,-0.155,0.170
7.878,-0.150,0.150
7.881,-0.160,0.145
7.883,-0.165,0.130
7.886,-0.170,0.135
7.889,-0.175,0.155
7.892,-0.170,0.165
7.894,-0.155,0.170
7.897,-0.145,0.165
7.900,-0.170,0.155
7.903,-0.190,0.175
7.906,-0.185,0.190
7.908,-0.160,0.200
7.911,-0.155,0.180
7.914,-0.160,0.185
7.917,-0.160,0.170
7.919,-0.155,0.175
7.922,-0.140,0.190
7.925,-0.125,0.195
7.928,-0.105,0.195
7.931,-0.110,0.200
7.933,-0.135,0.180
7.936,-0.150,0.185
7.939,-0.140,0.200
7.942,-0.115,0.185
7.944,-0.100,0.170
7.947,-0.090,0.150
7.950,-0.100,0.135
7.953,-0.100,0.125
7.956,-0.090,0.125
7.958,-0.075,0.150
7.961,-0.065,0.130
7.964,-0.060,0.115
7.967,-0.090,0.105
7.969,-0.110,0.110
7.972,-0.105,0.115
7.975,-0.095,0.125
7.978,-0.085,0.105
7.981,-0.100,0.090
7.983,-0.115,0.080
7.986,-0.115,0.090
7.989,-0.135,0.095
7.992,-0.130,0.105
7.994,-0.115,0.100
7.997,-0.140,0.090
8.000,-0.160,0.070
8.003,-0.160,0.080
8.006,-0.170,0.105
8.008,-0.145,0.115
8.011,-0.140,0.105
8.014,-0.145,0.105
8.017,-0.165,0.100
8.019,-0.190,0.115
8.022,-0.185,0.140
8.025,-0.160,0.150
8.028,-0.155,0.155
8.031,-0.170,0.135
8.033,-0.215,0.140
8.036,-0.220,0.140
8.039,-0.205,0.155
8.042,-0.205,0.160
8.044,-0.180,0.160
8.047,-0.185,0.150
8.050,-0.200,0.135
8.053,-0.210,0.140
8.056,-0.215,0.160
8.058,-0.200,0.170
8.061,-0.205,0.160
8.064,-0.220,0.150
8.067,-0.220,0.150
8.069,-0.225,0.155
8.072,-0.225,0.160
8.075,-0.205,0.170
8.078,-0.200,0.160
8.081,-0.200,0.145
8.083,-0.225,0.140
8.086,-0.235,0.150
8.089,-0.230,0.155
8.092,-0.210,0.155
8.094,-0.205,0.170
8.097,-0.210,0.165
8.100,-0.235,0.145
8.103,-0.220,0.150
8.106,-0.225,0.155
8.108,-0.205,0.170
8.111,-0.195,0.170
8.114,-0.205,0.150
8.117,-0.215,0.145
8.119,-0.220,0.145
8.122,-0.220,0.165
8.125,-0.205,0.165
8.128,-0.190,0.170
8.131,-0.210,0.160
8.133,-0.215,0.140
8.136,-0.220,0.150
8.139,-0.210,0.150
8.142,-0.200,0.160
8.144,-0.195,0.165
8.147,-0.200,0.145
8.150,-0.195,0.120
8.153,-0.180,0.070
8.156,-0.155,0.010
8.158,-0.115,-0.065
8.161,-0.090,-0.200
8.164,-0.065,-0.330
8.167,-0.030,-0.475
8.169,0.010,-0.575
8.172,0.090,-0.680
8.175,0.170,-0.740
8.178,0.220,-0.780
8.181,0.265,-0.805
8.183,0.275,-0.805
8.186,0.235,-0.800
8.189,0.195,-0.800
8.192,0.135,-0.795
8.194,0.080,-0.775
8.197,0.065,-0.760
8.200,0.080,-0.720
8.203,0.135,-0.680
8.206,0.245,-0.635
8.208,0.385,-0.600
8.211,0.520,-0.585
8.214,0.645,-0.580
8.217,0.740,-0.565
8.219,0.815,-0.545
8.222,0.850,-0.505
8.225,0.835,-0.460
8.228,0.770,-0.425
8.231,0.645,-0.390
8.233,0.560,-0.345
8.236,0.480,-0.280
8.239,0.385,-0.225
8.242,0.310,-0.160
8.244,0.235,-0.130
8.247,0.120,-0.080
8.250,-0.015,-0.040
8.253,-0.130,0.025
8.256,-0.250,0.110
8.258,-0.330,0.165
8.261,-0.390,0.220
8.264,-0.430,0.245
8.267,-0.470,0.265
8.269,-0.485,0.285
8.272,-0.465,0.310
8.275,-0.405,0.330
8.278,-0.370,0.330
8.281,-0.345,0.320
8.283,-0.305,0.325
8.286,-0.300,0.325
8.289,-0.295,0.355
8.292,-0.285,0.375
8.294,-0.280,0.375
8.297,-0.275,0.360
8.300,-0.285,0.360
8.303,-0.290,0.355
8.306,-0.285,0.380
8.308,-0.270,0.390
8.311,-0.260,0.400
8.314,-0.260,0.380
8.317,-0.260,0.375
8.319,-0.285,0.385
8.322,-0.280,0.395
8.325,-0.265,0.415
8.328,-0.250,0.410
8.331,-0.250,0.400
8.333,-0.260,0.400
8.336,-0.265,0.410
8.339,-0.260,0.415
8.342,-0.245,0.430
8.344,-0.240,0.435
8.347,-0.230,0.425
8.350,-0.250,0.410
8.353,-0.250,0.430
8.356,-0.245,0.435
8.358,-0.235,0.450
8.361,-0.225,0.470
8.364,-0.230,0.455
8.367,-0.245,0.445
8.369,-0.235,0.465
8.372,-0.225,0.470
8.375,-0.210,0.490
8.378,-0.195,0.485
8.381,-0.200,0.490
8.383,-0.205,0.470
8.386,-0.205,0.485
8.389,-0.215,0.505
8.392,-0.195,0.530
8.394,-0.160,0.525
8.397,-0.160,0.515
8.400,-0.175,0.515
8.403,-0.175,0.515
8.406,-0.175,0.535
8.408,-0.150,0.545
8.411,-0.135,0.545
8.414,-0.145,0.535
8.417,-0.135,0.525
8.419,-0.135,0.530
8.422,-0.110,0.540
8.425,-0.095,0.545
8.428,-0.095,0.545
8.431,-0.085,0.535
8.433,-0.095,0.525
8.436,-0.090,0.530
8.439,-0.070,0.520
8.442,-0.030,0.530
8.444,-0.005,0.520
8.447,-0.010,0.495
8.450,-0.005,0.475
8.453,-0.005,0.460
8.456,0.000,0.455
8.458,0.035,0.440
8.461,0.055,0.425
8.464,0.055,0.385
8.467,0.055,0.360
8.469,0.050,0.345
8.472,0.070,0.330
8.475,0.105,0.325
8.478,0.105,0.300
8.481,0.120,0.275
8.483,0.130,0.240
8.486,0.125,0.235
8.489,0.145,0.230
8.492,0.165,0.230
8.494,0.185,0.215
8.497,0.185,0.195
8.500,0.175,0.185
8.503,0.160,0.175
8.506,0.145,0.175
8.508,0.150,0.190
8.511,0.135,0.195
8.514,0.110,0.170
8.517,0.080,0.165
8.519,0.035,0.175
8.522,0.025,0.165
8.525,0.010,0.175
8.528,0.015,0.165
8.531,-0.010,0.165
8.533,-0.040,0.155
8.536,-0.065,0.165
8.539,-0.095,0.160
8.542,-0.095,0.170
8.544,-0.080,0.185
8.547,-0.105,0.165
8.550,-0.115,0.155
8.553,-0.135,0.155
8.556,-0.150,0.170
8.558,-0.140,0.170
8.561,-0.140,0.165
8.564,-0.145,0.165
8.567,-0.155,0.140
8.569,-0.170,0.150
8.572,-0.170,0.155
8.575,-0.150,0.180
8.578,-0.155,0.175
8.581,-0.170,0.175
8.583,-0.185,0.160
8.586,-0.185,0.160
8.589,-0.185,0.165
8.592,-0.170,0.195
8.594,-0.160,0.180
8.597,-0.165,0.175
8.600,-0.175,0.150
8.603,-0.185,0.170
8.606,-0.185,0.175
8.608,-0.175,0.180
8.611,-0.165,0.190
8.614,-0.175,0.175
8.617,-0.195,0.170
8.619,-0.195,0.170
8.622,-0.210,0.185
8.625,-0.185,0.190
8.628,-0.180,0.190
8.631,-0.190,0.195
8.633,-0.190,0.185
8.636,-0.195,0.175
8.639,-0.205,0.195
8.642,-0.185,0.215
8.644,-0.175,0.195
8.647,-0.180,0.190
8.650,-0.190,0.190
8.653,-0.215,0.180
8.656,-0.200,0.195
8.658,-0.190,0.205
8.661,-0.180,0.215
8.664,-0.185,0.200
8.667,-0.185,0.200
8.669,-0.200,0.195
8.672,-0.200,0.215
8.675,-0.180,0.215
8.678,-0.175,0.210
8.681,-0.185,0.200
8.683,-0.190,0.180
8.686,-0.210,0.180
8.689,-0.200,0.200
8.692,-0.190,0.210
8.694,-0.175,0.215
8.697,-0.190,0.185
8.700,-0.195,0.175
8.703,-0.210,0.185
8.706,-0.200,0.190
8.708,-0.190,0.190
8.711,-0.180,0.190
8.714,-0.190,0.185
8.717,-0.220,0.165
8.719,-0.235,0.175
8.722,-0.210,0.190
8.725,-0.205,0.190
8.728,-0.195,0.200
8.731,-0.205,0.185
8.733,-0.205,0.170
8.736,-0.220,0.175
8.739,-0.210,0.185
8.742,-0.200,0.195
8.744,-0.195,0.195
8.747,-0.200,0.185
8.750,-0.205,0.165
8.753,-0.220,0.170
8.756,-0.215,0.185
8.758,-0.200,0.195
8.761,-0.195,0.180
8.764,-0.205,0.180
8.767,-0.210,0.170
8.769,-0.215,0.175
8.772,-0.230,0.180
8.775,-0.200,0.190
8.778,-0.205,0.200
8.781,-0.210,0.175
8.783,-0.220,0.165
8.786,-0.240,0.170
8.789,-0.220,0.190
8.792,-0.215,0.200
8.794,-0.195,0.205
8.797,-0.200,0.205
8.800,-0.220,0.200
8.803,-0.210,0.215
8.806,-0.215,0.225
8.808,-0.205,0.235
8.811,-0.190,0.230
8.814,-0.195,0.230
8.817,-0.190,0.215
8.819,-0.200,0.220
8.822,-0.180,0.230
8.825,-0.170,0.240
8.828,-0.145,0.230
8.831,-0.155,0.220
8.833,-0.155,0.195
8.836,-0.160,0.185
8.839,-0.155,0.195
8.842,-0.125,0.185
8.844,-0.120,0.180
8.847,-0.115,0.165
8.850,-0.130,0.140
8.853,-0.140,0.140
8.856,-0.130,0.155
8.858,-0.125,0.145
8.861,-0.120,0.145
8.864,-0.115,0.130
8.867,-0.150,0.120
8.869,-0.170,0.120
8.872,-0.160,0.125
8.875,-0.150,0.140
8.878,-0.150,0.130
8.881,-0.160,0.115
8.883,-0.180,0.100
8.886,-0.195,0.100
8.889,-0.200,0.120
8.892,-0.190,0.140
8.894,-0.190,0.145
8.897,-0.190,0.135
8.900,-0.200,0.120
8.903,-0.220,0.120
8.906,-0.220,0.145
8.908,-0.210,0.165
8.911,-0.195,0.180
8.914,-0.200,0.170
8.917,-0.225,0.165
8.919,-0.245,0.155
8.922,-0.250,0.165
8.925,-0.235,0.175
8.928,-0.230,0.170
8.931,-0.225,0.170
8.933,-0.245,0.160
8.936,-0.260,0.160
8.939,-0.250,0.180
8.942,-0.250,0.180
8.944,-0.240,0.180
8.947,-0.250,0.175
8.950,-0.270,0.160
8.953,-0.275,0.165
8.956,-0.285,0.185
8.958,-0.270,0.190
8.961,-0.250,0.190
8.964,-0.255,0.190
8.967,-0.270,0.170
8.969,-0.280,0.180
8.972,-0.295,0.175
8.975,-0.270,0.195
8.978,-0.265,0.195
8.981,-0.270,0.175
8.983,-0.285,0.165
8.986,-0.290,0.170
8.989,-0.280,0.190
8.992,-0.270,0.185
8.994,-0.255,0.185
8.997,-0.260,0.185
9.000,-0.280,0.170
9.003,-0.290,0.160
9.006,-0.295,0.175
9.008,-0.280,0.175
9.011,-0.265,0.175
9.014,-0.260,0.175
9.017,-0.275,0.155
9.019,-0.285,0.150
9.022,-0.285,0.165
9.025,-0.270,0.175
9.028,-0.245,0.180
9.031,-0.245,0.160
9.033,-0.250,0.120
9.036,-0.240,0.055
9.039,-0.220,-0.010
9.042,-0.190,-0.090
9.044,-0.145,-0.210
9.047,-0.115,-0.345
9.050,-0.085,-0.465
9.053,-0.030,-0.565
9.056,0.030,-0.650
9.058,0.100,-0.705
9.061,0.155,-0.745
9.064,0.190,-0.775
9.067,0.190,-0.780
9.069,0.145,-0.790
9.072,0.085,-0.785
9.075,0.030,-0.765
9.078,-0.025,-0.740
9.081,-0.040,-0.720
9.083,-0.035,-0.700
9.086,0.040,-0.665
9.089,0.170,-0.625
9.092,0.335,-0.580
9.094,0.470,-0.555
9.097,0.595,-0.555
9.100,0.665,-0.535
9.103,0.705,-0.500
9.106,0.690,-0.465
9.108,0.625,-0.400
9.111,0.535,-0.360
9.114,0.420,-0.320
9.117,0.290,-0.270
9.119,0.180,-0.225
9.122,0.085,-0.150
9.125,-0.035,-0.095
9.128,-0.140,-0.035
9.131,-0.255,0.020
9.133,-0.365,0.080
9.136,-0.455,0.135
9.139,-0.510,0.200
9.142,-0.545,0.250
9.144,-0.565,0.290
9.147,-0.575,0.295
9.150,-0.580,0.300
9.153,-0.555,0.305
9.156,-0.505,0.340
9.158,-0.450,0.350
9.161,-0.410,0.350
9.164,-0.385,0.345
9.167,-0.385,0.350
9.169,-0.380,0.345
9.172,-0.385,0.370
9.175,-0.370,0.390
9.178,-0.360,0.400
9.181,-0.360,0.390
9.183,-0.365,0.380
9.186,-0.375,0.385
9.189,-0.380,0.410
9.192,-0.355,0.420
9.194,-0.345,0.410
9.197,-0.365,0.405
9.200,-0.365,0.405
9.203,-0.375,0.415
9.206,-0.375,0.425
9.208,-0.340,0.445
9.211,-0.335,0.430
9.214,-0.345,0.440
9.217,-0.360,0.425
9.219,-0.375,0.435
9.222,-0.360,0.445
9.225,-0.340,0.450
9.228,-0.320,0.450
9.231,-0.330,0.450
9.233,-0.340,0.455
9.236,-0.350,0.455
9.239,-0.345,0.465
9.242,-0.330,0.480
9.244,-0.320,0.480
9.247,-0.315,0.485
9.250,-0.320,0.480
9.253,-0.330,0.480
9.256,-0.320,0.495
9.258,-0.295,0.510
9.261,-0.280,0.510
9.264,-0.290,0.510
9.267,-0.290,0.495
9.269,-0.290,0.515
9.272,-0.300,0.535
9.275,-0.280,0.550
9.278,-0.265,0.545
9.281,-0.260,0.535
9.283,-0.255,0.540
9.286,-0.255,0.545
9.289,-0.255,0.560
9.292,-0.235,0.585
9.294,-0.210,0.570
9.297,-0.200,0.560
9.300,-0.200,0.550
9.303,-0.205,0.570
9.306,-0.185,0.565
9.308,-0.165,0.570
9.311,-0.150,0.570
9.314,-0.140,0.565
9.317,-0.155,0.550
9.319,-0.135,0.540
9.322,-0.115,0.540
9.325,-0.090,0.545
9.328,-0.060,0.540
9.331,-0.065,0.515
9.333,-0.065,0.485
9.336,-0.080,0.480
9.339,-0.075,0.465
9.342,-0.045,0.455
9.344,-0.005,0.440
9.347,-0.005,0.410
9.350,0.000,0.380
9.353,0.000,0.355
9.356,0.015,0.330
9.358,0.035,0.320
9.361,0.055,0.310
9.364,0.075,0.275
9.367,0.065,0.270
9.369,0.065,0.255
9.372,0.060,0.250
9.375,0.080,0.245
9.378,0.090,0.235
9.381,0.070,0.225
9.383,0.055,0.220
9.386,0.030,0.215
9.389,0.010,0.215
9.392,0.010,0.210
9.394,-0.025,0.220
9.397,-0.025,0.205
9.400,-0.075,0.205
9.403,-0.105,0.195
9.406,-0.120,0.210
9.408,-0.135,0.205
9.411,-0.140,0.210
9.414,-0.165,0.190
9.417,-0.200,0.185
9.419,-0.235,0.190
9.422,-0.230,0.215
9.425,-0.225,0.220
9.428,-0.225,0.215
9.431,-0.250,0.195
9.433,-0.270,0.185
9.436,-0.295,0.180
9.439,-0.295,0.195
9.442,-0.290,0.220
9.444,-0.270,0.220
9.447,-0.275,0.200
9.450,-0.295,0.180
9.453,-0.300,0.195
9.456,-0.305,0.195
9.458,-0.310,0.195
9.461,-0.295,0.215
9.464,-0.305,0.205
9.467,-0.315,0.200
9.469,-0.335,0.185
9.472,-0.320,0.205
9.475,-0.315,0.215
9.478,-0.295,0.205
9.481,-0.295,0.205
9.483,-0.325,0.195
9.486,-0.330,0.215
9.489,-0.325,0.215
9.492,-0.300,0.225
9.494,-0.290,0.225
9.497,-0.300,0.225
9.500,-0.325,0.215
9.503,-0.330,0.225
9.506,-0.320,0.230
9.508,-0.300,0.240
9.511,-0.300,0.240
9.514,-0.300,0.235
9.517,-0.320,0.210
9.519,-0.330,0.210
9.522,-0.330,0.230
9.525,-0.320,0.230
9.528,-0.305,0.240
9.531,-0.310,0.230
9.533,-0.320,0.225
9.536,-0.320,0.230
9.539,-0.330,0.230
9.542,-0.325,0.255
9.544,-0.320,0.245
9.547,-0.315,0.240
9.550,-0.330,0.240
9.553,-0.325,0.235
9.556,-0.335,0.245
9.558,-0.315,0.270
9.561,-0.290,0.250
9.564,-0.305,0.245
9.567,-0.310,0.225
9.569,-0.325,0.210
9.572,-0.320,0.235
9.575,-0.310,0.235
9.578,-0.305,0.235
9.581,-0.290,0.230
9.583,-0.305,0.215
9.586,-0.315,0.220
9.589,-0.320,0.235
9.592,-0.310,0.250
9.594,-0.300,0.240
9.597,-0.305,0.230
9.600,-0.320,0.210
9.603,-0.340,0.215
9.606,-0.330,0.230
9.608,-0.320,0.255
9.611,-0.315,0.255
9.614,-0.330,0.230
9.617,-0.330,0.215
9.619,-0.335,0.200
9.622,-0.345,0.210
9.625,-0.315,0.230
9.628,-0.310,0.235
9.631,-0.315,0.220
9.633,-0.330,0.205
9.636,-0.335,0.215
9.639,-0.330,0.235
9.642,-0.330,0.240
9.644,-0.310,0.240
9.647,-0.315,0.220
9.650,-0.335,0.215
9.653,-0.335,0.215
9.656,-0.335,0.230
9.658,-0.325,0.240
9.661,-0.325,0.240
9.664,-0.320,0.245
9.667,-0.325,0.245
9.669,-0.350,0.255
9.672,-0.325,0.270
9.675,-0.305,0.290
9.678,-0.290,0.280
9.681,-0.290,0.265
9.683,-0.300,0.250
9.686,-0.305,0.255
9.689,-0.295,0.270
9.692,-0.280,0.280
9.694,-0.255,0.270
9.697,-0.270,0.275
9.700,-0.280,0.235
9.703,-0.275,0.225
9.706,-0.260,0.225
9.708,-0.245,0.230
9.711,-0.240,0.230
9.714,-0.250,0.220
9.717,-0.240,0.185
9.719,-0.230,0.180
9.722,-0.235,0.175
9.725,-0.230,0.195
9.728,-0.220,0.180
9.731,-0.225,0.150
9.733,-0.240,0.145
9.736,-0.255,0.145
9.739,-0.275,0.160
9.742,-0.255,0.170
9.744,-0.250,0.180
9.747,-0.260,0.155
9.750,-0.280,0.145
9.753,-0.310,0.145
9.756,-0.295,0.165
9.758,-0.285,0.175
9.761,-0.290,0.155
9.764,-0.290,0.155
9.767,-0.305,0.145
9.769,-0.325,0.150
9.772,-0.335,0.175
9.775,-0.315,0.190
9.778,-0.300,0.205
9.781,-0.345,0.185
9.783,-0.335,0.180
9.786,-0.350,0.195
9.789,-0.355,0.195
9.792,-0.335,0.210
9.794,-0.315,0.215
9.797,-0.315,0.195
9.800,-0.330,0.190
9.803,-0.335,0.185
9.806,-0.345,0.205
9.808,-0.325,0.220
9.811,-0.330,0.215
9.814,-0.335,0.200
9.817,-0.340,0.190
9.819,-0.345,0.180
9.822,-0.335,0.200
9.825,-0.340,0.210
9.828,-0.320,0.210
9.831,-0.330,0.200
9.833,-0.335,0.195
9.836,-0.345,0.195
9.839,-0.350,0.205
9.842,-0.320,0.215
9.844,-0.310,0.205
9.847,-0.315,0.205
9.850,-0.330,0.180
9.853,-0.335,0.180
9.856,-0.330,0.185
9.858,-0.315,0.200
9.861,-0.305,0.195
9.864,-0.305,0.190
9.867,-0.295,0.170
9.869,-0.310,0.155
9.872,-0.290,0.120
9.875,-0.265,0.065
9.878,-0.225,-0.030
9.881,-0.195,-0.145
9.883,-0.170,-0.310
9.886,-0.110,-0.425
9.889,-0.030,-0.540
9.892,0.045,-0.625
9.894,0.125,-0.670
9.897,0.160,-0.720
9.900,0.185,-0.710
9.903,0.155,-0.710
9.906,0.105,-0.705
9.908,0.030,-0.700
9.911,-0.035,-0.690
9.914,-0.100,-0.655
9.917,-0.085,-0.640
9.919,-0.020,-0.605
9.922,0.085,-0.560
9.925,0.210,-0.520
9.928,0.350,-0.500
9.931,0.445,-0.490
9.933,0.520,-0.480
9.936,0.570,-0.450
9.939,0.615,-0.420
9.942,0.580,-0.355
9.944,0.535,-0.305
9.947,0.425,-0.265
9.950,0.320,-0.230
9.953,0.240,-0.175
9.956,0.125,-0.115
9.958,0.050,-0.060
9.961,-0.005,0.000
9.964,-0.120,0.050
9.967,-0.230,0.080
9.969,-0.325,0.155
9.972,-0.405,0.220
9.975,-0.470,0.270
9.978,-0.485,0.305
9.981,-0.520,0.315
9.983,-0.525,0.320
9.986,-0.505,0.330
9.989,-0.465,0.350
9.992,-0.420,0.370
9.994,-0.390,0.390
9.997,-0.365,0.375
10.000,-0.360,0.370
10.003,-0.360,0.380
10.006,-0.360,0.400
10.008,-0.335,0.405
10.011,-0.330,0.405
10.014,-0.345,0.410
10.017,-0.360,0.405
10.019,-0.340,0.400
10.022,-0.345,0.415
10.025,-0.330,0.435
10.028,-0.315,0.435
10.031,-0.320,0.420
10.033,-0.320,0.420
10.036,-0.335,0.425
10.039,-0.315,0.435
10.042,-0.305,0.445
10.044,-0.295,0.445
10.047,-0.320,0.435
10.050,-0.315,0.425
10.053,-0.330,0.435
10.056,-0.325,0.455
10.058,-0.310,0.460
10.061,-0.295,0.460
10.064,-0.290,0.465
10.067,-0.300,0.460
10.069,-0.305,0.450
10.072,-0.300,0.480
10.075,-0.290,0.495
10.078,-0.265,0.510
10.081,-0.270,0.495
10.083,-0.285,0.490
10.086,-0.275,0.490
10.089,-0.265,0.505
10.092,-0.255,0.520
10.094,-0.240,0.525
10.097,-0.230,0.530
10.100,-0.235,0.520
10.103,-0.250,0.520
10.106,-0.235,0.540
10.108,-0.215,0.565
10.111,-0.180,0.565
10.114,-0.195,0.555
10.117,-0.195,0.545
10.119,-0.195,0.560
10.122,-0.175,0.565
10.125,-0.165,0.590
10.128,-0.130,0.590
10.131,-0.125,0.565
10.133,-0.135,0.555
10.136,-0.125,0.560
10.139,-0.120,0.560
10.142,-0.105,0.585
10.144,-0.085,0.570
10.147,-0.070,0.570
10.150,-0.060,0.545
10.153,-0.060,0.540
10.156,-0.040,0.535
10.158,-0.015,0.525
10.161,0.005,0.510
10.164,0.015,0.485
10.167,0.015,0.455
10.169,0.020,0.445
10.172,0.020,0.430
10.175,0.045,0.415
10.178,0.075,0.405
10.181,0.085,0.360
10.183,0.090,0.335
10.186,0.085,0.320
10.189,0.110,0.320
10.192,0.130,0.310
10.194,0.160,0.290
10.197,0.155,0.270
10.200,0.140,0.260
10.203,0.140,0.250
10.206,0.140,0.260
10.208,0.150,0.270
10.211,0.125,0.270
10.214,0.110,0.245
10.217,0.085,0.235
10.219,0.055,0.225
10.222,0.035,0.225
10.225,0.020,0.230
10.228,0.015,0.230
10.231,-0.005,0.220
10.233,-0.030,0.210
10.236,-0.065,0.220
10.239,-0.075,0.225
10.242,-0.095,0.235
10.244,-0.085,0.230
10.247,-0.105,0.225
10.250,-0.130,0.215
10.253,-0.155,0.210
10.256,-0.160,0.245
10.258,-0.145,0.240
10.261,-0.155,0.240
10.264,-0.150,0.220
10.267,-0.180,0.205
10.269,-0.200,0.215
10.272,-0.200,0.225
10.275,-0.190,0.220
10.278,-0.195,0.220
10.281,-0.175,0.210
10.283,-0.190,0.195
10.286,-0.200,0.205
10.289,-0.190,0.210
10.292,-0.200,0.235
10.294,-0.175,0.235
10.297,-0.170,0.210
10.300,-0.190,0.200
10.303,-0.200,0.200
10.306,-0.200,0.215
10.308,-0.195,0.225
10.311,-0.190,0.230
10.314,-0.200,0.225
10.317,-0.200,0.210
10.319,-0.205,0.215
10.322,-0.200,0.225
10.325,-0.190,0.225
10.328,-0.165,0.235
10.331,-0.185,0.230
10.333,-0.195,0.220
10.336,-0.200,0.215
10.339,-0.215,0.230
10.342,-0.190,0.245
10.344,-0.165,0.240
10.347,-0.175,0.240
10.350,-0.185,0.225
10.353,-0.195,0.220
10.356,-0.190,0.225
10.358,-0.180,0.240
10.361,-0.165,0.235
10.364,-0.180,0.220
10.367,-0.185,0.230
10.369,-0.185,0.205
10.372,-0.195,0.220
10.375,-0.175,0.230
10.378,-0.165,0.230
10.381,-0.180,0.220
10.383,-0.185,0.195
10.386,-0.190,0.215
10.389,-0.205,0.220
10.392,-0.190,0.230
10.394,-0.175,0.235
10.397,-0.180,0.215
10.400,-0.195,0.205
10.403,-0.205,0.205
10.406,-0.215,0.220
10.408,-0.200,0.230
10.411,-0.180,0.225
10.414,-0.195,0.195
10.417,-0.200,0.195
10.419,-0.200,0.195
10.422,-0.220,0.210
10.425,-0.200,0.210
10.428,-0.180,0.220
10.431,-0.200,0.215
10.433,-0.195,0.195
10.436,-0.215,0.195
10.439,-0.225,0.200
10.442,-0.195,0.225
10.444,-0.185,0.210
10.447,-0.190,0.210
10.450,-0.205,0.195
10.453,-0.210,0.195
10.456,-0.225,0.205
10.458,-0.215,0.215
10.461,-0.200,0.215
10.464,-0.195,0.200
10.467,-0.195,0.190
10.469,-0.215,0.185
10.472,-0.215,0.205
10.475,-0.200,0.220
10.478,-0.195,0.215
10.481,-0.215,0.210
10.483,-0.235,0.200
10.486,-0.235,0.210
10.489,-0.225,0.220
10.492,-0.215,0.235
10.494,-0.200,0.245
10.497,-0.200,0.230
10.500,-0.205,0.225
10.503,-0.220,0.235
10.506,-0.215,0.240
10.508,-0.205,0.250
10.511,-0.185,0.245
10.514,-0.185,0.240
10.517,-0.185,0.235
10.519,-0.180,0.225
10.522,-0.185,0.230
10.525,-0.170,0.255
10.528,-0.150,0.235
10.531,-0.150,0.215
10.533,-0.160,0.195
10.536,-0.155,0.190
10.539,-0.155,0.195
10.542,-0.135,0.190
10.544,-0.110,0.175
10.547,-0.105,0.160
10.550,-0.115,0.135
10.553,-0.150,0.135
10.556,-0.135,0.145
10.558,-0.140,0.160
10.561,-0.140,0.145
10.564,-0.135,0.145
10.567,-0.150,0.125
10.569,-0.165,0.120
10.572,-0.175,0.135
10.575,-0.175,0.145
10.578,-0.165,0.135
10.581,-0.175,0.140
10.583,-0.180,0.120
10.586,-0.195,0.110
10.589,-0.200,0.135
10.592,-0.190,0.135
10.594,-0.190,0.150
10.597,-0.200,0.135
10.600,-0.200,0.130
10.603,-0.215,0.140
10.606,-0.205,0.165
10.608,-0.195,0.185
10.611,-0.200,0.175
10.614,-0.200,0.165
10.617,-0.235,0.150
10.619,-0.265,0.150
10.622,-0.270,0.165
10.625,-0.250,0.175
10.628,-0.230,0.165
10.631,-0.240,0.165
10.633,-0.235,0.150
10.636,-0.260,0.160
10.639,-0.250,0.180
10.642,-0.255,0.195
10.644,-0.245,0.190
10.647,-0.265,0.165
10.650,-0.270,0.170
10.653,-0.300,0.165
10.656,-0.295,0.175
10.658,-0.265,0.190
10.661,-0.245,0.210
10.664,-0.250,0.180
10.667,-0.265,0.175
10.669,-0.285,0.175
10.672,-0.280,0.195
10.675,-0.270,0.190
10.678,-0.260,0.190
10.681,-0.255,0.175
10.683,-0.280,0.165
10.686,-0.275,0.165
10.689,-0.275,0.185
10.692,-0.260,0.190
10.694,-0.250,0.200
10.697,-0.245,0.190
10.700,-0.260,0.175
10.703,-0.270,0.170
10.706,-0.265,0.185
10.708,-0.255,0.185
10.711,-0.250,0.195
10.714,-0.250,0.185
10.717,-0.270,0.180
10.719,-0.260,0.190
10.722,-0.250,0.185
10.725,-0.225,0.170
10.728,-0.200,0.110
10.731,-0.175,0.015
10.733,-0.160,-0.105
10.736,-0.150,-0.215
10.739,-0.100,-0.325
10.742,-0.040,-0.430
10.744,0.045,-0.535
10.747,0.090,-0.625
10.750,0.155,-0.680
10.753,0.185,-0.705
10.756,0.180,-0.685
10.758,0.170,-0.675
10.761,0.130,-0.690
10.764,0.040,-0.715
10.767,-0.020,-0.695
10.769,-0.055,-0.675
10.772,-0.030,-0.620
10.775,0.045,-0.590
10.778,0.180,-0.555
10.781,0.290,-0.535
10.783,0.420,-0.525
10.786,0.530,-0.510
10.789,0.655,-0.470
10.792,0.735,-0.445
10.794,0.775,-0.415
10.797,0.700,-0.385
10.800,0.585,-0.355
10.803,0.460,-0.295
10.806,0.365,-0.230
10.808,0.285,-0.165
10.811,0.210,-0.105
10.814,0.090,-0.065
10.817,-0.050,-0.010
10.819,-0.180,0.035
10.822,-0.310,0.130
10.825,-0.395,0.195
10.828,-0.455,0.250
10.831,-0.490,0.260
10.833,-0.535,0.270
10.836,-0.515,0.285
10.839,-0.500,0.300
10.842,-0.435,0.330
10.844,-0.395,0.340
10.847,-0.355,0.340
10.850,-0.350,0.340
10.853,-0.345,0.360
10.856,-0.310,0.375
10.858,-0.305,0.385
10.861,-0.300,0.400
10.864,-0.305,0.395
10.867,-0.315,0.375
10.869,-0.310,0.360
10.872,-0.305,0.375
10.875,-0.300,0.395
10.878,-0.270,0.405
10.881,-0.265,0.390
10.883,-0.290,0.390
10.886,-0.305,0.390
10.889,-0.295,0.410
10.892,-0.275,0.410
10.894,-0.255,0.420
10.897,-0.265,0.425
10.900,-0.270,0.400
10.903,-0.295,0.415
10.906,-0.290,0.430
10.908,-0.290,0.435
10.911,-0.275,0.445
10.914,-0.280,0.445
10.917,-0.305,0.425
10.919,-0.295,0.435
10.922,-0.290,0.445
10.925,-0.270,0.460
10.928,-0.240,0.470
10.931,-0.230,0.455
10.933,-0.230,0.455
10.936,-0.255,0.465
10.939,-0.240,0.465
10.942,-0.230,0.485
10.944,-0.200,0.485
10.947,-0.195,0.495
10.950,-0.210,0.490
10.953,-0.225,0.485
10.956,-0.220,0.500
10.958,-0.200,0.515
10.961,-0.165,0.525
10.964,-0.160,0.520
10.967,-0.175,0.505
10.969,-0.175,0.505
10.972,-0.160,0.525
10.975,-0.140,0.540
10.978,-0.120,0.545
10.981,-0.125,0.535
10.983,-0.130,0.525
10.986,-0.140,0.515
10.989,-0.135,0.525
10.992,-0.110,0.530
10.994,-0.075,0.530
10.997,-0.070,0.520
11.000,-0.065,0.505
11.003,-0.070,0.495
11.006,-0.055,0.495
11.008,-0.035,0.510
11.011,-0.015,0.480
11.014,-0.005,0.465
11.017,-0.005,0.435
11.019,-0.005,0.410
11.022,0.015,0.405
11.025,0.030,0.400
11.028,0.065,0.360
11.031,0.075,0.335
11.033,0.070,0.295
11.036,0.055,0.275
11.039,0.085,0.265
11.042,0.110,0.275
11.044,0.135,0.255
11.047,0.130,0.245
11.050,0.145,0.220
11.053,0.130,0.215
11.056,0.135,0.225
11.058,0.165,0.230
11.061,0.155,0.225
11.064,0.125,0.200
11.067,0.095,0.200
11.069,0.065,0.200
11.072,0.020,0.210
11.075,0.020,0.215
11.078,0.000,0.215
11.081,-0.010,0.200
11.083,-0.040,0.175
11.086,-0.080,0.185
11.089,-0.085,0.190
11.092,-0.090,0.205
11.094,-0.090,0.200
11.097,-0.100,0.175
11.100,-0.125,0.165
11.103,-0.160,0.175
11.106,-0.165,0.180
11.108,-0.170,0.190
11.111,-0.160,0.195
11.114,-0.165,0.190
11.117,-0.190,0.160
11.119,-0.220,0.170
11.122,-0.210,0.195
11.125,-0.205,0.200
11.128,-0.185,0.200
11.131,-0.200,0.185
11.133,-0.210,0.170
11.136,-0.225,0.190
11.139,-0.205,0.180
11.142,-0.200,0.190
11.144,-0.200,0.200
11.147,-0.210,0.190
11.150,-0.210,0.175
11.153,-0.220,0.185
11.156,-0.215,0.195
11.158,-0.210,0.205
11.161,-0.190,0.210
11.164,-0.205,0.190
11.167,-0.225,0.180
11.169,-0.240,0.185
11.172,-0.230,0.195
11.175,-0.210,0.205
11.178,-0.185,0.210
11.181,-0.200,0.210
11.183,-0.200,0.195
11.186,-0.200,0.190
11.189,-0.205,0.200
11.192,-0.195,0.215
11.194,-0.200,0.215
11.197,-0.205,0.205
11.200,-0.235,0.195
11.203,-0.240,0.200
11.206,-0.230,0.200
11.208,-0.205,0.215
11.211,-0.190,0.215
11.214,-0.195,0.195
11.217,-0.210,0.195
11.219,-0.220,0.195
11.222,-0.215,0.210
11.225,-0.215,0.220
11.228,-0.210,0.225
11.231,-0.220,0.215
11.233,-0.240,0.195
11.236,-0.235,0.205
11.239,-0.230,0.200
11.242,-0.225,0.220
11.244,-0.210,0.220
11.247,-0.225,0.205
11.250,-0.220,0.195
11.253,-0.240,0.190
11.256,-0.245,0.200
11.258,-0.235,0.200
11.261,-0.225,0.195
11.264,-0.230,0.185
11.267,-0.235,0.190
11.269,-0.250,0.175
11.272,-0.235,0.195
11.275,-0.230,0.200
11.278,-0.215,0.195
11.281,-0.215,0.185
11.283,-0.245,0.165
11.286,-0.255,0.180
11.289,-0.255,0.185
11.292,-0.245,0.190
11.294,-0.230,0.195
11.297,-0.215,0.180
11.300,-0.255,0.170
11.303,-0.260,0.175
11.306,-0.245,0.170
11.308,-0.255,0.185
11.311,-0.235,0.175
11.314,-0.235,0.175
11.317,-0.235,0.155
11.319,-0.255,0.160
11.322,-0.260,0.170
11.325,-0.265,0.175
11.328,-0.250,0.175
11.331,-0.250,0.170
11.333,-0.270,0.165
11.336,-0.275,0.170
11.339,-0.255,0.175
11.342,-0.265,0.200
11.344,-0.235,0.190
11.347,-0.225,0.195
11.350,-0.235,0.185
11.353,-0.250,0.195
11.356,-0.255,0.205
11.358,-0.230,0.225
11.361,-0.200,0.220
11.364,-0.205,0.205
11.367,-0.215,0.190
11.369,-0.225,0.200
11.372,-0.220,0.200
11.375,-0.215,0.220
11.378,-0.190,0.235
11.381,-0.185,0.205
11.383,-0.195,0.185
11.386,-0.195,0.170
11.389,-0.195,0.170
11.392,-0.170,0.175
11.394,-0.140,0.175
11.397,-0.155,0.160
11.400,-0.150,0.130
11.403,-0.175,0.125
11.406,-0.165,0.135
11.408,-0.155,0.140
11.411,-0.145,0.120
11.414,-0.160,0.115
11.417,-0.190,0.095
11.419,-0.205,0.095
11.422,-0.215,0.110
11.425,-0.200,0.115
11.428,-0.185,0.110
11.431,-0.195,0.110
11.433,-0.210,0.095
11.436,-0.225,0.080
11.439,-0.220,0.100
11.442,-0.215,0.105
11.444,-0.215,0.110
11.447,-0.230,0.095
11.450,-0.255,0.085
11.453,-0.265,0.095
11.456,-0.270,0.115
11.458,-0.265,0.130
11.461,-0.235,0.140
11.464,-0.240,0.140
11.467,-0.260,0.130
11.469,-0.280,0.125
11.472,-0.305,0.140
11.475,-0.285,0.155
11.478,-0.270,0.150
11.481,-0.270,0.145
11.483,-0.275,0.135
11.486,-0.290,0.135
11.489,-0.285,0.155
11.492,-0.285,0.165
11.494,-0.275,0.160
11.497,-0.285,0.160
11.500,-0.295,0.135
11.503,-0.295,0.145
11.506,-0.300,0.165
11.508,-0.275,0.165
11.511,-0.270,0.160
11.514,-0.285,0.155
11.517,-0.300,0.135
11.519,-0.310,0.140
11.522,-0.320,0.145
11.525,-0.290,0.155
11.528,-0.290,0.170
11.531,-0.295,0.150
11.533,-0.305,0.130
11.536,-0.320,0.140
11.539,-0.305,0.145
11.542,-0.310,0.155
11.544,-0.285,0.145
11.547,-0.290,0.145
11.550,-0.310,0.125
11.553,-0.310,0.125
11.556,-0.320,0.135
11.558,-0.305,0.145
11.561,-0.280,0.140
11.564,-0.290,0.130
11.567,-0.295,0.105
11.569,-0.295,0.115
11.572,-0.290,0.130
11.575,-0.285,0.135
11.578,-0.255,0.135
11.581,-0.255,0.105
11.583,-0.245,0.045
11.586,-0.240,-0.035
11.589,-0.220,-0.115
11.592,-0.200,-0.235
11.594,-0.140,-0.335
11.597,-0.090,-0.475
11.600,-0.050,-0.580
11.603,0.020,-0.655
11.606,0.075,-0.705
11.608,0.105,-0.720
11.611,0.135,-0.720
11.614,0.100,-0.740
11.617,0.030,-0.765
11.619,-0.055,-0.785
11.622,-0.110,-0.765
11.625,-0.135,-0.715
11.628,-0.080,-0.665
11.631,-0.005,-0.660
11.633,0.095,-0.625
11.636,0.230,-0.595
11.639,0.360,-0.565
11.642,0.500,-0.555
11.644,0.625,-0.520
11.647,0.695,-0.525
11.650,0.690,-0.510
11.653,0.630,-0.490
11.656,0.530,-0.420
11.658,0.435,-0.350
11.661,0.345,-0.295
11.664,0.260,-0.245
11.667,0.135,-0.210
11.669,-0.010,-0.150
11.672,-0.135,-0.080
11.675,-0.255,-0.005
11.678,-0.365,0.060
11.681,-0.455,0.115
11.683,-0.530,0.150
11.686,-0.570,0.190
11.689,-0.585,0.235
11.692,-0.565,0.250
11.694,-0.530,0.275
11.697,-0.490,0.275
11.700,-0.465,0.275
11.703,-0.430,0.280
11.706,-0.395,0.280
11.708,-0.365,0.305
11.711,-0.340,0.305
11.714,-0.335,0.310
11.717,-0.350,0.315
11.719,-0.370,0.310
11.722,-0.370,0.320
11.725,-0.350,0.335
11.728,-0.320,0.335
11.731,-0.335,0.330
11.733,-0.340,0.330
11.736,-0.345,0.330
11.739,-0.345,0.340
11.742,-0.330,0.350
11.744,-0.330,0.345
11.747,-0.310,0.340
11.750,-0.325,0.330
11.753,-0.330,0.340
11.756,-0.325,0.360
11.758,-0.310,0.370
11.761,-0.300,0.375
11.764,-0.315,0.365
11.767,-0.320,0.365
11.769,-0.340,0.375
11.772,-0.310,0.365
11.775,-0.320,0.390
11.778,-0.295,0.400
11.781,-0.285,0.380
11.783,-0.300,0.380
11.786,-0.305,0.385
11.789,-0.295,0.410
11.792,-0.280,0.425
11.794,-0.265,0.425
11.797,-0.265,0.420
11.800,-0.275,0.415
11.803,-0.275,0.425
11.806,-0.265,0.440
11.808,-0.250,0.450
11.811,-0.220,0.450
11.814,-0.225,0.445
11.817,-0.240,0.445
11.819,-0.225,0.445
11.822,-0.215,0.460
11.825,-0.195,0.480
11.828,-0.175,0.475
11.831,-0.165,0.460
11.833,-0.170,0.455
11.836,-0.170,0.465
11.839,-0.150,0.465
11.842,-0.140,0.470
11.844,-0.095,0.480
11.847,-0.100,0.445
11.850,-0.100,0.430
11.853,-0.095,0.430
11.856,-0.070,0.435
11.858,-0.050,0.435
11.861,-0.025,0.405
11.864,-0.020,0.380
11.867,-0.025,0.355
11.869,-0.025,0.330
11.872,-0.020,0.315
11.875,-0.010,0.320
11.878,0.020,0.300
11.881,0.030,0.265
11.883,0.035,0.235
11.886,0.045,0.225
11.889,0.060,0.210
11.892,0.080,0.215
11.894,0.100,0.195
11.897,0.100,0.170
11.900,0.100,0.165
11.903,0.080,0.145
11.906,0.085,0.160
11.908,0.080,0.165
11.911,0.070,0.175
11.914,0.045,0.140
11.917,0.025,0.120
11.919,-0.010,0.120
11.922,-0.040,0.115
11.925,-0.045,0.140
11.928,-0.050,0.135
11.931,-0.075,0.125
11.933,-0.115,0.125
11.936,-0.150,0.105
11.939,-0.160,0.120
11.942,-0.175,0.140
11.944,-0.180,0.140
11.947,-0.180,0.130
11.950,-0.200,0.120
11.953,-0.220,0.120
11.956,-0.220,0.115
11.958,-0.215,0.130
11.961,-0.205,0.135
11.964,-0.220,0.125
11.967,-0.245,0.110
11.969,-0.270,0.100
11.972,-0.265,0.120
11.975,-0.260,0.130
11.978,-0.250,0.135
11.981,-0.260,0.130
11.983,-0.270,0.125
11.986,-0.280,0.110
11.989,-0.295,0.125
11.992,-0.275,0.135
11.994,-0.260,0.145
11.997,-0.270,0.130
12.000,-0.260,0.125
12.003,-0.295,0.115
12.006,-0.280,0.125
12.008,-0.275,0.145
12.011,-0.250,0.145
12.014,-0.255,0.135
12.017,-0.275,0.110
12.019,-0.285,0.120
12.022,-0.285,0.135
12.025,-0.280,0.150
12.028,-0.255,0.150
12.031,-0.255,0.140
12.033,-0.265,0.130
12.036,-0.285,0.130
12.039,-0.305,0.140
12.042,-0.295,0.160
12.044,-0.255,0.155
12.047,-0.270,0.145
12.050,-0.295,0.130
12.053,-0.290,0.135
12.056,-0.295,0.150
12.058,-0.280,0.165
12.061,-0.285,0.165
12.064,-0.290,0.140
12.067,-0.295,0.135
12.069,-0.320,0.140
12.072,-0.320,0.150
12.075,-0.305,0.145
12.078,-0.310,0.145
12.081,-0.310,0.145
12.083,-0.315,0.135
12.086,-0.325,0.130
12.089,-0.320,0.135
12.092,-0.300,0.135
12.094,-0.285,0.135
12.097,-0.300,0.140
12.100,-0.310,0.125
12.103,-0.330,0.115
12.106,-0.335,0.135
12.108,-0.315,0.135
12.111,-0.300,0.145
12.114,-0.305,0.135
12.117,-0.320,0.120
12.119,-0.345,0.120
12.122,-0.345,0.120
12.125,-0.320,0.130
12.128,-0.325,0.140
12.131,-0.330,0.130
12.133,-0.345,0.115
12.136,-0.355,0.105
12.139,-0.360,0.125
12.142,-0.345,0.125
12.144,-0.325,0.125
12.147,-0.315,0.115
12.150,-0.325,0.100
12.153,-0.350,0.100
12.156,-0.345,0.110
12.158,-0.330,0.130
12.161,-0.320,0.115
12.164,-0.340,0.125
12.167,-0.340,0.100
12.169,-0.350,0.105
12.172,-0.335,0.115
12.175,-0.335,0.115
12.178,-0.335,0.125
12.181,-0.335,0.125
12.183,-0.340,0.115
12.186,-0.350,0.110
12.189,-0.355,0.145
12.192,-0.345,0.150
12.194,-0.335,0.150
12.197,-0.345,0.145
12.200,-0.350,0.145
12.203,-0.335,0.135
12.206,-0.345,0.155
12.208,-0.320,0.175
12.211,-0.310,0.170
12.214,-0.310,0.155
12.217,-0.315,0.135
12.219,-0.330,0.110
12.222,-0.320,0.120
12.225,-0.295,0.130
12.228,-0.275,0.115
12.231,-0.270,0.110
12.233,-0.270,0.080
12.236,-0.290,0.065
12.239,-0.285,0.080
12.242,-0.270,0.075
12.244,-0.270,0.080
12.247,-0.275,0.055
12.250,-0.320,0.045
12.253,-0.330,0.035
12.256,-0.305,0.050
12.258,-0.305,0.055
12.261,-0.300,0.050
12.264,-0.310,0.035
12.267,-0.335,0.035
12.269,-0.340,0.025
12.272,-0.345,0.040
12.275,-0.340,0.055
12.278,-0.325,0.050
12.281,-0.335,0.045
12.283,-0.355,0.025
12.286,-0.380,0.035
12.289,-0.380,0.055
12.292,-0.380,0.075
12.294,-0.365,0.090
12.297,-0.370,0.085
12.300,-0.390,0.085
12.303,-0.405,0.065
12.306,-0.415,0.085
12.308,-0.425,0.090
12.311,-0.410,0.090
12.314,-0.405,0.095
12.317,-0.420,0.090
12.319,-0.435,0.080
12.322,-0.435,0.085
12.325,-0.435,0.080
12.328,-0.415,0.095
12.331,-0.415,0.085
12.333,-0.425,0.080
12.336,-0.435,0.075
12.339,-0.440,0.100
12.342,-0.435,0.110
12.344,-0.435,0.105
12.347,-0.440,0.085
12.350,-0.445,0.085
12.353,-0.455,0.070
12.356,-0.445,0.085
12.358,-0.430,0.105
12.361,-0.425,0.095
12.364,-0.425,0.090
12.367,-0.430,0.080
12.369,-0.435,0.080
12.372,-0.450,0.080
12.375,-0.445,0.095
12.378,-0.415,0.095
12.381,-0.420,0.095
12.383,-0.430,0.085
12.386,-0.435,0.080
12.389,-0.455,0.085
12.392,-0.435,0.095
12.394,-0.415,0.095
12.397,-0.420,0.090
12.400,-0.430,0.070
12.403,-0.430,0.080
12.406,-0.425,0.080
12.408,-0.400,0.095
12.411,-0.380,0.070
12.414,-0.355,0.020
12.417,-0.345,-0.065
12.419,-0.335,-0.170
12.422,-0.310,-0.270
12.425,-0.255,-0.375
12.428,-0.185,-0.485
12.431,-0.110,-0.615
12.433,-0.065,-0.710
12.436,-0.030,-0.785
12.439,-0.010,-0.815
12.442,-0.005,-0.815
12.444,-0.020,-0.800
12.447,-0.105,-0.825
12.450,-0.225,-0.865
12.453,-0.325,-0.850
12.456,-0.370,-0.805
12.458,-0.340,-0.750
12.461,-0.245,-0.710
12.464,-0.130,-0.690
12.467,-0.005,-0.675
12.469,0.130,-0.655
12.472,0.255,-0.615
12.475,0.360,-0.590
12.478,0.430,-0.560
12.481,0.450,-0.550
12.483,0.385,-0.540
12.486,0.270,-0.485
12.489,0.170,-0.415
12.492,0.090,-0.345
12.494,0.005,-0.290
12.497,-0.095,-0.225
12.500,-0.195,-0.200
12.503,-0.295,-0.140
12.506,-0.395,-0.080
12.508,-0.470,-0.015
12.511,-0.530,0.045
12.514,-0.595,0.080
12.517,-0.650,0.120
12.519,-0.690,0.140
12.522,-0.695,0.175
12.525,-0.675,0.215
12.528,-0.630,0.225
12.531,-0.600,0.220
12.533,-0.560,0.210
12.536,-0.540,0.235
12.539,-0.525,0.245
12.542,-0.500,0.265
12.544,-0.495,0.265
12.547,-0.505,0.270
12.550,-0.510,0.260
12.553,-0.515,0.255
12.556,-0.505,0.280
12.558,-0.485,0.295
12.561,-0.470,0.290
12.564,-0.470,0.285
12.567,-0.505,0.280
12.569,-0.520,0.275
12.572,-0.525,0.295
12.575,-0.500,0.305
12.578,-0.485,0.310
12.581,-0.480,0.300
12.583,-0.480,0.295
12.586,-0.485,0.300
12.589,-0.480,0.320
12.592,-0.475,0.330
12.594,-0.465,0.345
12.597,-0.460,0.330
12.600,-0.480,0.330
12.603,-0.480,0.320
12.606,-0.485,0.340
12.608,-0.460,0.360
12.611,-0.445,0.365
12.614,-0.450,0.355
12.617,-0.445,0.360
12.619,-0.445,0.365
12.622,-0.425,0.375
12.625,-0.410,0.380
12.628,-0.390,0.395
12.631,-0.390,0.395
12.633,-0.395,0.385
12.636,-0.405,0.390
12.639,-0.385,0.395
12.642,-0.375,0.405
12.644,-0.340,0.410
12.647,-0.330,0.415
12.650,-0.345,0.405
12.653,-0.335,0.395
12.656,-0.320,0.415
12.658,-0.315,0.430
12.661,-0.285,0.430
12.664,-0.270,0.430
12.667,-0.270,0.405
12.669,-0.270,0.400
12.672,-0.250,0.405
12.675,-0.235,0.415
12.678,-0.220,0.400
12.681,-0.200,0.385
12.683,-0.195,0.360
12.686,-0.195,0.345
12.689,-0.185,0.345
12.692,-0.165,0.335
12.694,-0.140,0.330
12.697,-0.130,0.290
12.700,-0.130,0.250
12.703,-0.115,0.230
12.706,-0.125,0.210
12.708,-0.095,0.205
12.711,-0.065,0.195
12.714,-0.055,0.170
12.717,-0.055,0.130
12.719,-0.050,0.125
12.722,-0.050,0.125
12.725,-0.030,0.125
12.728,-0.045,0.120
12.731,-0.045,0.105
12.733,-0.055,0.085
12.736,-0.085,0.080
12.739,-0.110,0.090
12.742,-0.120,0.095
12.744,-0.145,0.085
12.747,-0.165,0.085
12.750,-0.210,0.065
12.753,-0.245,0.055
12.756,-0.265,0.065
12.758,-0.270,0.075
12.761,-0.285,0.070
12.764,-0.300,0.060
12.767,-0.315,0.050
12.769,-0.345,0.040
12.772,-0.360,0.055
12.775,-0.360,0.065
12.778,-0.355,0.065
12.781,-0.350,0.060
12.783,-0.375,0.045
12.786,-0.395,0.045
12.789,-0.400,0.065
12.792,-0.385,0.060
12.794,-0.385,0.070
12.797,-0.380,0.070
12.800,-0.405,0.055
12.803,-0.420,0.045
12.806,-0.420,0.060
12.808,-0.405,0.070
12.811,-0.405,0.080
12.814,-0.400,0.075
12.817,-0.405,0.050
12.819,-0.395,0.040
12.822,-0.400,0.055
12.825,-0.400,0.080
12.828,-0.380,0.075
12.831,-0.370,0.075
12.833,-0.390,0.060
12.836,-0.405,0.045
12.839,-0.410,0.050
12.842,-0.390,0.065
12.844,-0.365,0.070
12.847,-0.375,0.075
12.850,-0.370,0.075
12.853,-0.390,0.070
12.856,-0.390,0.080
12.858,-0.380,0.095
12.861,-0.350,0.090
12.864,-0.355,0.075
12.867,-0.365,0.060
12.869,-0.380,0.065
12.872,-0.385,0.070
12.875,-0.370,0.080
12.878,-0.365,0.080
12.881,-0.360,0.085
12.883,-0.370,0.075
12.886,-0.375,0.065
12.889,-0.390,0.085
12.892,-0.375,0.090
12.894,-0.355,0.100
12.897,-0.365,0.080
12.900,-0.365,0.070
12.903,-0.375,0.070
12.906,-0.375,0.075
12.908,-0.360,0.080
12.911,-0.350,0.085
12.914,-0.355,0.085
12.917,-0.370,0.060
12.919,-0.370,0.050
12.922,-0.375,0.055
12.925,-0.355,0.065
12.928,-0.345,0.065
12.931,-0.345,0.060
12.933,-0.375,0.050
12.936,-0.375,0.060
12.939,-0.390,0.055
12.942,-0.360,0.070
12.944,-0.350,0.070
12.947,-0.355,0.050
12.950,-0.370,0.035
12.953,-0.370,0.045
12.956,-0.385,0.050
12.958,-0.360,0.065
12.961,-0.350,0.070
12.964,-0.340,0.060
12.967,-0.355,0.045
12.969,-0.370,0.055
12.972,-0.370,0.060
12.975,-0.355,0.070
12.978,-0.345,0.065
12.981,-0.345,0.055
12.983,-0.355,0.045
12.986,-0.365,0.045
12.989,-0.360,0.070
12.992,-0.355,0.085
12.994,-0.345,0.100
12.997,-0.345,0.090
13.000,-0.345,0.075
13.003,-0.345,0.080
13.006,-0.350,0.090
13.008,-0.325,0.100
13.011,-0.295,0.120
13.014,-0.290,0.110
13.017,-0.300,0.100
13.019,-0.320,0.100
13.022,-0.320,0.105
13.025,-0.295,0.125
13.028,-0.280,0.120
13.031,-0.270,0.095
13.033,-0.270,0.065
13.036,-0.295,0.055
13.039,-0.280,0.045
13.042,-0.250,0.055
13.044,-0.235,0.050
13.047,-0.235,0.035
13.050,-0.240,0.020
13.053,-0.255,-0.005
13.056,-0.270,0.010
13.058,-0.255,0.020
13.061,-0.255,0.015
13.064,-0.270,0.005
13.067,-0.280,-0.025
13.069,-0.300,-0.015
13.072,-0.305,-0.005
13.075,-0.295,0.000
13.078,-0.280,0.010
13.081,-0.290,0.000
13.083,-0.290,-0.010
13.086,-0.330,-0.020
13.089,-0.320,0.005
13.092,-0.320,0.010
13.094,-0.300,0.015
13.097,-0.300,0.000
13.100,-0.320,-0.005
13.103,-0.340,0.000
13.106,-0.340,0.030
13.108,-0.335,0.045
13.111,-0.320,0.060
13.114,-0.330,0.040
13.117,-0.350,0.025
13.119,-0.360,0.015
13.122,-0.365,0.025
13.125,-0.350,0.050
13.128,-0.330,0.045
13.131,-0.325,0.045
13.133,-0.350,0.040
13.136,-0.370,0.020
13.139,-0.375,0.035
13.142,-0.355,0.040
13.144,-0.330,0.045
13.147,-0.340,0.045
13.150,-0.355,0.035
13.153,-0.375,0.020
13.156,-0.390,0.030
13.158,-0.375,0.040
13.161,-0.360,0.045
13.164,-0.340,0.045
13.167,-0.355,0.030
13.169,-0.365,0.030
13.172,-0.375,0.035
13.175,-0.375,0.045
13.178,-0.340,0.055
13.181,-0.340,0.045
13.183,-0.350,0.040
13.186,-0.370,0.025
13.189,-0.370,0.030
13.192,-0.355,0.050
13.194,-0.345,0.055
13.197,-0.355,0.050
13.200,-0.355,0.025
13.203,-0.365,0.030
13.206,-0.370,0.030
13.208,-0.340,0.035
13.211,-0.330,0.045
13.214,-0.330,0.040
13.217,-0.340,0.015
13.219,-0.360,0.020
13.222,-0.345,0.005
13.225,-0.315,-0.020
13.228,-0.275,-0.090
13.231,-0.250,-0.195
13.233,-0.245,-0.315
13.236,-0.220,-0.445
13.239,-0.160,-0.575
13.242,-0.080,-0.665
13.244,-0.005,-0.760
13.247,0.065,-0.840
13.250,0.110,-0.880
13.253,0.135,-0.900
13.256,0.130,-0.875
13.258,0.115,-0.870
13.261,0.075,-0.885
13.264,0.005,-0.890
13.267,-0.060,-0.865
13.269,-0.075,-0.835
13.272,-0.025,-0.790
13.275,0.085,-0.745
13.278,0.220,-0.695
13.281,0.345,-0.700
13.283,0.475,-0.690
13.286,0.555,-0.660
13.289,0.635,-0.645
13.292,0.680,-0.610
13.294,0.655,-0.580
13.297,0.565,-0.535
13.300,0.435,-0.495
13.303,0.330,-0.430
13.306,0.255,-0.360
13.308,0.175,-0.300
13.311,0.095,-0.240
13.314,-0.010,-0.195
13.317,-0.145,-0.145
13.319,-0.270,-0.090
13.322,-0.365,-0.035
13.325,-0.435,0.035
13.328,-0.485,0.090
13.331,-0.525,0.130
13.333,-0.565,0.135
13.336,-0.585,0.160
13.339,-0.575,0.190
13.342,-0.540,0.200
13.344,-0.475,0.215
13.347,-0.465,0.205
13.350,-0.430,0.210
13.353,-0.430,0.215
13.356,-0.425,0.225
13.358,-0.405,0.245
13.361,-0.395,0.265
13.364,-0.390,0.255
13.367,-0.400,0.245
13.369,-0.405,0.260
13.372,-0.405,0.260
13.375,-0.415,0.265
13.378,-0.380,0.265
13.381,-0.375,0.270
13.383,-0.390,0.260
13.386,-0.415,0.260
13.389,-0.415,0.265
13.392,-0.380,0.285
13.394,-0.375,0.285
13.397,-0.380,0.285
13.400,-0.390,0.280
13.403,-0.405,0.275
13.406,-0.395,0.285
13.408,-0.390,0.300
13.411,-0.365,0.310
13.414,-0.370,0.305
13.417,-0.380,0.295
13.419,-0.395,0.305
13.422,-0.385,0.310
13.425,-0.365,0.315
13.428,-0.355,0.340
13.431,-0.355,0.320
13.433,-0.355,0.325
13.436,-0.365,0.320
13.439,-0.360,0.350
13.442,-0.350,0.360
13.444,-0.330,0.365
13.447,-0.320,0.375
13.450,-0.315,0.360
13.453,-0.340,0.365
13.456,-0.335,0.375
13.458,-0.315,0.385
13.461,-0.310,0.400
13.464,-0.290,0.415
13.467,-0.300,0.390
13.469,-0.305,0.395
13.472,-0.300,0.400
13.475,-0.280,0.415
13.478,-0.250,0.425
13.481,-0.245,0.415
13.483,-0.250,0.415
13.486,-0.260,0.415
13.489,-0.245,0.415
13.492,-0.225,0.435
13.494,-0.215,0.430
13.497,-0.205,0.415
13.500,-0.215,0.400
13.503,-0.190,0.390
13.506,-0.185,0.405
13.508,-0.165,0.395
13.511,-0.140,0.390
13.514,-0.125,0.370
13.517,-0.130,0.330
13.519,-0.130,0.325
13.522,-0.125,0.310
13.525,-0.105,0.305
13.528,-0.085,0.300
13.531,-0.075,0.260
13.533,-0.065,0.240
13.536,-0.065,0.210
13.539,-0.045,0.195
13.542,-0.030,0.195
13.544,0.000,0.180
13.547,0.015,0.150
13.550,0.010,0.130
13.553,0.020,0.105
13.556,0.015,0.105
13.558,0.040,0.105
13.561,0.070,0.105
13.564,0.055,0.090
13.567,0.045,0.075
13.569,0.020,0.070
13.572,0.000,0.080
13.575,-0.005,0.075
13.578,-0.005,0.095
13.581,-0.030,0.065
13.583,-0.060,0.060
13.586,-0.095,0.060
13.589,-0.105,0.060
13.592,-0.125,0.075
13.594,-0.120,0.080
13.597,-0.145,0.070
13.600,-0.170,0.045
13.603,-0.190,0.045
13.606,-0.200,0.055
13.608,-0.210,0.070
13.611,-0.210,0.070
13.614,-0.235,0.070
13.617,-0.240,0.055
13.619,-0.250,0.035
13.622,-0.260,0.050
13.625,-0.255,0.065
13.628,-0.245,0.075
13.631,-0.245,0.055
13.633,-0.270,0.050
13.636,-0.275,0.035
13.639,-0.275,0.055
13.642,-0.280,0.070
13.644,-0.255,0.060
13.647,-0.260,0.050
13.650,-0.270,0.045
13.653,-0.290,0.040
13.656,-0.285,0.050
13.658,-0.280,0.075
13.661,-0.285,0.075
13.664,-0.275,0.060
13.667,-0.265,0.055
13.669,-0.285,0.050
13.672,-0.270,0.055
13.675,-0.265,0.075
13.678,-0.250,0.090
13.681,-0.255,0.070
13.683,-0.270,0.060
13.686,-0.280,0.060
13.689,-0.280,0.065
13.692,-0.275,0.085
13.694,-0.245,0.095
13.697,-0.250,0.090
13.700,-0.265,0.070
13.703,-0.280,0.080
13.706,-0.270,0.085
13.708,-0.255,0.095
13.711,-0.255,0.090
13.714,-0.245,0.075
13.717,-0.260,0.085
13.719,-0.280,0.080
13.722,-0.270,0.085
13.725,-0.260,0.090
13.728,-0.240,0.105
13.731,-0.255,0.085
13.733,-0.260,0.080
13.736,-0.280,0.080
13.739,-0.280,0.080
13.742,-0.280,0.095
13.744,-0.250,0.095
13.747,-0.250,0.080
13.750,-0.275,0.070
13.753,-0.290,0.080
13.756,-0.270,0.085
13.758,-0.265,0.090
13.761,-0.250,0.085
13.764,-0.260,0.080
13.767,-0.270,0.080
13.769,-0.285,0.065
13.772,-0.290,0.075
13.775,-0.265,0.085
13.778,-0.265,0.100
13.781,-0.265,0.085
13.783,-0.270,0.065
13.786,-0.280,0.070
13.789,-0.285,0.070
13.792,-0.290,0.070
13.794,-0.265,0.090
13.797,-0.255,0.075
13.800,-0.270,0.060
13.803,-0.280,0.055
13.806,-0.290,0.065
13.808,-0.285,0.075
13.811,-0.270,0.085
13.814,-0.275,0.065
13.817,-0.275,0.055
13.819,-0.285,0.045
13.822,-0.285,0.060
13.825,-0.285,0.065
13.828,-0.260,0.075
13.831,-0.265,0.075
13.833,-0.270,0.045
13.836,-0.285,0.050
13.839,-0.290,0.050
13.842,-0.280,0.065
13.844,-0.275,0.075
13.847,-0.280,0.065
13.850,-0.290,0.055
13.853,-0.290,0.045
13.856,-0.290,0.070
13.858,-0.295,0.100
13.861,-0.260,0.100
13.864,-0.270,0.095
13.867,-0.280,0.095
13.869,-0.295,0.090
13.872,-0.285,0.100
13.875,-0.265,0.110
13.878,-0.230,0.110
13.881,-0.240,0.110
13.883,-0.260,0.095
13.886,-0.260,0.100
13.889,-0.230,0.120
13.892,-0.235,0.120
13.894,-0.205,0.110
13.897,-0.205,0.090
13.900,-0.210,0.060
13.903,-0.230,0.040
13.906,-0.225,0.055
13.908,-0.195,0.060
13.911,-0.175,0.060
13.914,-0.170,0.050
13.917,-0.190,0.035
13.919,-0.205,0.015
13.922,-0.215,0.030
13.925,-0.195,0.035
13.928,-0.190,0.030
13.931,-0.200,0.015
13.933,-0.215,-0.005
13.936,-0.215,-0.005
13.939,-0.245,0.005
13.942,-0.235,0.020
13.944,-0.220,0.020
13.947,-0.225,0.010
13.950,-0.250,-0.005
13.953,-0.255,-0.005
13.956,-0.250,0.000
13.958,-0.250,0.010
13.961,-0.255,0.005
13.964,-0.235,-0.005
13.967,-0.260,-0.005
13.969,-0.280,-0.005
13.972,-0.285,0.010
13.975,-0.275,0.025
13.978,-0.250,0.055
13.981,-0.250,0.045
13.983,-0.275,0.025
13.986,-0.295,0.035
13.989,-0.310,0.045
13.992,-0.300,0.045
13.994,-0.295,0.060
13.997,-0.290,0.050
14.000,-0.295,0.035
14.003,-0.305,0.040
14.006,-0.310,0.045
14.008,-0.305,0.050
14.011,-0.300,0.065
14.014,-0.315,0.055
14.017,-0.330,0.050
14.019,-0.340,0.050
14.022,-0.320,0.050
14.025,-0.320,0.055
14.028,-0.300,0.065
14.031,-0.310,0.050
14.033,-0.315,0.040
14.036,-0.325,0.045
14.039,-0.340,0.050
14.042,-0.330,0.070
14.044,-0.305,0.065
14.047,-0.300,0.065
14.050,-0.320,0.050
14.053,-0.335,0.035
14.056,-0.335,0.055
14.058,-0.315,0.065
14.061,-0.315,0.065
14.064,-0.305,0.055
14.067,-0.310,0.035
14.069,-0.315,0.030
14.072,-0.320,0.045
14.075,-0.315,0.055
14.078,-0.300,0.060
14.081,-0.295,0.045
14.083,-0.310,0.030
14.086,-0.325,0.030
14.089,-0.310,0.040
14.092,-0.295,0.050
14.094,-0.275,0.050
14.097,-0.270,0.030
14.100,-0.265,-0.025
14.103,-0.265,-0.105
14.106,-0.250,-0.190
14.108,-0.230,-0.305
14.111,-0.160,-0.410
14.114,-0.120,-0.565
14.117,-0.065,-0.690
14.119,-0.030,-0.805
14.122,0.055,-0.880
14.125,0.120,-0.900
14.128,0.175,-0.915
14.131,0.195,-0.915
14.133,0.165,-0.925
14.136,0.105,-0.950
14.139,0.040,-0.940
14.142,-0.005,-0.920
14.144,-0.025,-0.865
14.147,0.005,-0.820
14.150,0.065,-0.795
14.153,0.165,-0.775
14.156,0.300,-0.730
14.158,0.455,-0.690
14.161,0.575,-0.665
14.164,0.660,-0.665
14.167,0.705,-0.640
14.169,0.690,-0.605
14.172,0.620,-0.565
14.175,0.510,-0.485
14.178,0.425,-0.420
14.181,0.340,-0.370
14.183,0.250,-0.335
14.186,0.125,-0.280
14.189,0.030,-0.210
14.192,-0.080,-0.140
14.194,-0.195,-0.085
14.197,-0.300,-0.020
14.200,-0.395,0.020
14.203,-0.485,0.075
14.206,-0.530,0.125
14.208,-0.540,0.165
14.211,-0.535,0.195
14.214,-0.515,0.200
14.217,-0.485,0.190
14.219,-0.455,0.195
14.222,-0.440,0.220
14.225,-0.400,0.225
14.228,-0.380,0.240
14.231,-0.370,0.245
14.233,-0.370,0.235
14.236,-0.385,0.230
14.239,-0.385,0.250
14.242,-0.365,0.270
14.244,-0.350,0.280
14.247,-0.360,0.275
14.250,-0.370,0.270
14.253,-0.370,0.255
14.256,-0.375,0.275
14.258,-0.355,0.285
14.261,-0.335,0.300
14.264,-0.340,0.290
14.267,-0.335,0.280
14.269,-0.350,0.280
14.272,-0.350,0.295
14.275,-0.350,0.300
14.278,-0.325,0.320
14.281,-0.335,0.320
14.283,-0.340,0.300
14.286,-0.350,0.305
14.289,-0.355,0.320
14.292,-0.320,0.330
14.294,-0.320,0.340
14.297,-0.300,0.335
14.300,-0.320,0.335
14.303,-0.335,0.330
14.306,-0.335,0.345
14.308,-0.320,0.365
14.311,-0.310,0.375
14.314,-0.295,0.375
14.317,-0.290,0.365
14.319,-0.295,0.360
14.322,-0.305,0.385
14.325,-0.280,0.395
14.328,-0.250,0.405
14.331,-0.255,0.400
14.333,-0.250,0.395
14.336,-0.255,0.400
14.339,-0.250,0.410
14.342,-0.240,0.400
14.344,-0.225,0.420
14.347,-0.220,0.420
14.350,-0.215,0.420
14.353,-0.230,0.420
14.356,-0.210,0.435
14.358,-0.165,0.460
14.361,-0.140,0.470
14.364,-0.120,0.460
14.367,-0.120,0.440
14.369,-0.130,0.445
14.372,-0.140,0.450
14.375,-0.120,0.445
14.378,-0.120,0.445
14.381,-0.115,0.430
14.383,-0.120,0.410
14.386,-0.125,0.400
14.389,-0.125,0.390
14.392,-0.080,0.380
14.394,-0.050,0.370
14.397,-0.050,0.355
14.400,-0.030,0.320
14.403,-0.035,0.300
14.406,-0.025,0.280
14.408,-0.015,0.275
14.411,0.005,0.255
14.414,0.025,0.225
14.417,0.050,0.195
14.419,0.045,0.155
14.422,0.040,0.150
14.425,0.080,0.165
14.428,0.095,0.140
14.431,0.100,0.115
14.433,0.090,0.105
14.436,0.085,0.090
14.439,0.085,0.090
14.442,0.090,0.100
14.444,0.095,0.095
14.447,0.085,0.090
14.450,0.055,0.065
14.453,0.030,0.060
14.456,0.000,0.070
14.458,-0.010,0.075
14.461,-0.015,0.075
14.464,-0.025,0.075
14.467,-0.075,0.050
14.469,-0.095,0.045
14.472,-0.115,0.065
14.475,-0.120,0.065
14.478,-0.115,0.070
14.481,-0.135,0.055
14.483,-0.155,0.030
14.486,-0.170,0.040
14.489,-0.180,0.050
14.492,-0.185,0.050
14.494,-0.200,0.060
14.497,-0.195,0.035
14.500,-0.200,0.045
14.503,-0.220,0.045
14.506,-0.230,0.045
14.508,-0.235,0.050
14.511,-0.210,0.060
14.514,-0.220,0.055
14.517,-0.230,0.040
14.519,-0.245,0.050
14.522,-0.270,0.045
14.525,-0.240,0.065
14.528,-0.225,0.065
14.531,-0.240,0.055
14.533,-0.245,0.055
14.536,-0.255,0.040
14.539,-0.260,0.060
14.542,-0.265,0.065
14.544,-0.230,0.075
14.547,-0.230,0.065
14.550,-0.245,0.060
14.553,-0.255,0.045
14.556,-0.245,0.055
14.558,-0.245,0.060
14.561,-0.220,0.070
14.564,-0.235,0.065
14.567,-0.250,0.060
14.569,-0.260,0.050
14.572,-0.280,0.055
14.575,-0.240,0.075
14.578,-0.230,0.085
14.581,-0.235,0.075
14.583,-0.255,0.065
14.586,-0.260,0.065
14.589,-0.265,0.070
14.592,-0.260,0.075
14.594,-0.240,0.105
14.597,-0.240,0.075
14.600,-0.245,0.080
14.603,-0.260,0.075
14.606,-0.265,0.075
14.608,-0.260,0.100
14.611,-0.250,0.090
14.614,-0.240,0.085
14.617,-0.240,0.075
14.619,-0.265,0.065
14.622,-0.265,0.070
14.625,-0.265,0.095
14.628,-0.245,0.090
14.631,-0.260,0.090
14.633,-0.260,0.075
14.636,-0.260,0.055
14.639,-0.280,0.075
14.642,-0.275,0.085
14.644,-0.250,0.080
14.647,-0.250,0.075
14.650,-0.250,0.070
14.653,-0.270,0.060
14.656,-0.270,0.070
14.658,-0.250,0.075
14.661,-0.245,0.090
14.664,-0.250,0.075
14.667,-0.260,0.065
14.669,-0.255,0.055
14.672,-0.270,0.065
14.675,-0.255,0.080
14.678,-0.240,0.085
14.681,-0.245,0.070
14.683,-0.265,0.060
14.686,-0.270,0.050
14.689,-0.280,0.065
14.692,-0.270,0.075
14.694,-0.255,0.080
14.697,-0.250,0.080
14.700,-0.255,0.060
14.703,-0.265,0.050
14.706,-0.275,0.060
14.708,-0.265,0.075
14.711,-0.260,0.080
14.714,-0.265,0.075
14.717,-0.265,0.055
14.719,-0.270,0.045
14.722,-0.275,0.050
14.725,-0.260,0.070
14.728,-0.250,0.085
14.731,-0.250,0.075
14.733,-0.270,0.070
14.736,-0.285,0.060
14.739,-0.290,0.065
14.742,-0.275,0.100
14.744,-0.265,0.105
14.747,-0.255,0.105
14.750,-0.275,0.105
14.753,-0.295,0.090
14.756,-0.295,0.105
14.758,-0.265,0.110
14.761,-0.245,0.115
14.764,-0.225,0.110
14.767,-0.230,0.110
14.769,-0.240,0.110
14.772,-0.245,0.115
14.775,-0.235,0.130
14.778,-0.210,0.125
14.781,-0.210,0.110
14.783,-0.225,0.090
14.786,-0.235,0.065
14.789,-0.225,0.070
14.792,-0.200,0.075
14.794,-0.190,0.080
14.797,-0.185,0.060
14.800,-0.185,0.045
14.803,-0.195,0.040
14.806,-0.195,0.035
14.808,-0.200,0.040
14.811,-0.195,0.025
14.814,-0.200,0.040
14.817,-0.210,0.005
14.819,-0.230,0.000
14.822,-0.225,0.010
14.825,-0.215,0.020
14.828,-0.230,0.035
14.831,-0.225,0.020
14.833,-0.245,0.005
14.836,-0.260,0.000
14.839,-0.275,0.010
14.842,-0.260,0.020
14.844,-0.255,0.020
14.847,-0.270,0.025
14.850,-0.275,0.000
14.853,-0.295,0.010
14.856,-0.295,0.015
14.858,-0.285,0.045
14.861,-0.280,0.060
14.864,-0.280,0.060
14.867,-0.285,0.050
14.869,-0.305,0.050
14.872,-0.325,0.050
14.875,-0.305,0.080
14.878,-0.290,0.065
14.881,-0.300,0.065
14.883,-0.300,0.045
14.886,-0.325,0.045
14.889,-0.335,0.050
14.892,-0.320,0.085
14.894,-0.305,0.080
14.897,-0.290,0.075
14.900,-0.310,0.065
14.903,-0.325,0.065
14.906,-0.335,0.075
14.908,-0.300,0.080
14.911,-0.305,0.085
14.914,-0.310,0.075
14.917,-0.320,0.060
14.919,-0.325,0.065
14.922,-0.325,0.060
14.925,-0.325,0.075
14.928,-0.310,0.080
14.931,-0.315,0.075
14.933,-0.310,0.055
14.936,-0.335,0.045
14.939,-0.335,0.065
14.942,-0.310,0.075
14.944,-0.300,0.080
14.947,-0.310,0.070
14.950,-0.320,0.060
14.953,-0.330,0.060
14.956,-0.345,0.065
14.958,-0.315,0.080
14.961,-0.295,0.075
14.964,-0.300,0.060
14.967,-0.310,0.055
14.969,-0.315,0.045
14.972,-0.315,0.065
14.975,-0.305,0.080
14.978,-0.270,0.060
14.981,-0.250,0.015
14.983,-0.245,-0.065
14.986,-0.250,-0.170
14.989,-0.215,-0.270
14.992,-0.185,-0.405
14.994,-0.120,-0.525
14.997,-0.065,-0.645
15.000,0.000,-0.770
15.003,0.040,-0.840
15.006,0.070,-0.905
15.008,0.105,-0.880
15.011,0.120,-0.870
15.014,0.115,-0.895
15.017,0.030,-0.925
15.019,-0.045,-0.935
15.022,-0.090,-0.880
15.025,-0.090,-0.825
15.028,-0.015,-0.795
15.031,0.070,-0.760
15.033,0.180,-0.740
15.036,0.285,-0.715
15.039,0.410,-0.700
15.042,0.515,-0.675
15.044,0.605,-0.650
15.047,0.660,-0.630
15.050,0.640,-0.610
15.053,0.590,-0.580
15.056,0.470,-0.525
15.058,0.380,-0.470
15.061,0.305,-0.390
15.064,0.230,-0.350
15.067,0.125,-0.305
15.069,0.015,-0.270
15.072,-0.095,-0.205
15.075,-0.200,-0.125
15.078,-0.305,-0.060
15.081,-0.405,-0.005
15.083,-0.490,0.045
15.086,-0.555,0.100
15.089,-0.605,0.150
15.092,-0.605,0.185
15.094,-0.570,0.205
15.097,-0.525,0.215
15.100,-0.505,0.210
15.103,-0.465,0.215
15.106,-0.445,0.215
15.108,-0.405,0.250
15.111,-0.380,0.260
15.114,-0.355,0.265
15.117,-0.365,0.255
15.119,-0.380,0.245
15.122,-0.395,0.265
15.125,-0.390,0.265
15.128,-0.365,0.295
15.131,-0.355,0.290
15.133,-0.370,0.270
15.136,-0.370,0.270
15.139,-0.365,0.285
15.142,-0.355,0.300
15.144,-0.345,0.325
15.147,-0.345,0.310
15.150,-0.345,0.300
15.153,-0.360,0.285
15.156,-0.365,0.295
15.158,-0.355,0.315
15.161,-0.335,0.325
15.164,-0.325,0.320
15.167,-0.345,0.315
15.169,-0.350,0.315
15.172,-0.335,0.325
15.175,-0.325,0.340
15.178,-0.300,0.360
15.181,-0.305,0.345
15.183,-0.310,0.335
15.186,-0.330,0.345
15.189,-0.330,0.345
15.192,-0.305,0.380
15.194,-0.290,0.390
15.197,-0.275,0.375
15.200,-0.280,0.375
15.203,-0.300,0.380
15.206,-0.300,0.385
15.208,-0.280,0.410
15.211,-0.265,0.420
15.214,-0.240,0.415
15.217,-0.250,0.415
15.219,-0.250,0.405
15.222,-0.250,0.425
15.225,-0.225,0.430
15.228,-0.210,0.455
15.231,-0.205,0.435
15.233,-0.200,0.440
15.236,-0.215,0.430
15.239,-0.205,0.425
15.242,-0.190,0.450
15.244,-0.180,0.470
15.247,-0.165,0.460
15.250,-0.155,0.440
15.253,-0.170,0.440
15.256,-0.165,0.440
15.258,-0.125,0.435
15.261,-0.115,0.440
15.264,-0.090,0.415
15.267,-0.080,0.395
15.269,-0.085,0.385
15.272,-0.070,0.380
15.275,-0.060,0.375
15.278,-0.035,0.365
15.281,-0.025,0.345
15.283,-0.035,0.310
15.286,-0.025,0.285
15.289,-0.020,0.280
15.292,0.000,0.245
15.294,0.025,0.250
15.297,0.045,0.205
15.300,0.050,0.175
15.303,0.055,0.140
15.306,0.050,0.140
15.308,0.060,0.145
15.311,0.105,0.140
15.314,0.115,0.135
15.317,0.095,0.105
15.319,0.080,0.090
15.322,0.075,0.095
15.325,0.070,0.100
15.328,0.065,0.110
15.331,0.050,0.090
15.333,0.030,0.080
15.336,0.000,0.070
15.339,-0.035,0.080
15.342,-0.035,0.090
15.344,-0.040,0.095
15.347,-0.070,0.075
15.350,-0.090,0.060
15.353,-0.125,0.055
15.356,-0.135,0.070
15.358,-0.145,0.080
15.361,-0.145,0.090
15.364,-0.165,0.075
15.367,-0.200,0.050
15.369,-0.220,0.040
15.372,-0.215,0.055
15.375,-0.220,0.075
15.378,-0.210,0.085
15.381,-0.210,0.070
15.383,-0.230,0.060
15.386,-0.235,0.050
15.389,-0.250,0.055
15.392,-0.240,0.070
15.394,-0.235,0.075
15.397,-0.240,0.085
15.400,-0.245,0.065
15.403,-0.255,0.065
15.406,-0.265,0.070
15.408,-0.265,0.080
15.411,-0.245,0.090
15.414,-0.235,0.075
15.417,-0.260,0.075
15.419,-0.260,0.045
15.422,-0.265,0.060
15.425,-0.280,0.075
15.428,-0.255,0.090
15.431,-0.245,0.080
15.433,-0.255,0.085
15.436,-0.260,0.060
15.439,-0.265,0.080
15.442,-0.260,0.090
15.444,-0.260,0.090
15.447,-0.255,0.085
15.450,-0.250,0.080
15.453,-0.270,0.075
15.456,-0.280,0.090
15.458,-0.260,0.100
15.461,-0.260,0.115
15.464,-0.245,0.095
15.467,-0.255,0.080
15.469,-0.270,0.085
15.472,-0.270,0.090
15.475,-0.265,0.110
15.478,-0.250,0.110
15.481,-0.240,0.105
15.483,-0.255,0.090
15.486,-0.265,0.085
15.489,-0.270,0.085
15.492,-0.270,0.095
15.494,-0.260,0.105
15.497,-0.255,0.090
15.500,-0.265,0.085
15.503,-0.265,0.080
15.506,-0.275,0.080
15.508,-0.260,0.110
15.511,-0.255,0.110
15.514,-0.255,0.100
15.517,-0.260,0.090
15.519,-0.290,0.080
15.522,-0.280,0.090
15.525,-0.265,0.095
15.528,-0.255,0.100
15.531,-0.270,0.100
15.533,-0.285,0.075
15.536,-0.285,0.065
15.539,-0.285,0.080
15.542,-0.285,0.075
15.544,-0.260,0.090
15.547,-0.265,0.080
15.550,-0.275,0.065
15.553,-0.295,0.060
15.556,-0.300,0.065
15.558,-0.290,0.075
15.561,-0.280,0.095
15.564,-0.280,0.075
15.567,-0.285,0.060
15.569,-0.300,0.060
15.572,-0.300,0.065
15.575,-0.285,0.080
15.578,-0.275,0.095
15.581,-0.275,0.080
15.583,-0.280,0.070
15.586,-0.290,0.060
15.589,-0.300,0.060
15.592,-0.285,0.075
15.594,-0.260,0.080
15.597,-0.265,0.085
15.600,-0.280,0.065
15.603,-0.300,0.075
15.606,-0.310,0.060
15.608,-0.305,0.080
15.611,-0.285,0.100
15.614,-0.265,0.100
15.617,-0.280,0.090
15.619,-0.305,0.085
15.622,-0.295,0.105
15.625,-0.295,0.115
15.628,-0.270,0.115
15.631,-0.255,0.110
15.633,-0.255,0.095
15.636,-0.265,0.100
15.639,-0.245,0.105
15.642,-0.245,0.120
15.644,-0.240,0.120
15.647,-0.235,0.105
15.650,-0.240,0.065
15.653,-0.235,0.050
15.656,-0.230,0.055
15.658,-0.210,0.050
15.661,-0.190,0.075
15.664,-0.190,0.065
15.667,-0.185,0.040
15.669,-0.190,0.035
15.672,-0.195,0.035
15.675,-0.185,0.045
15.678,-0.195,0.045
15.681,-0.200,0.025
15.683,-0.220,0.005
15.686,-0.230,-0.005
15.689,-0.240,0.000
15.692,-0.240,0.015
15.694,-0.230,0.015
15.697,-0.235,0.000
15.700,-0.245,-0.005
15.703,-0.255,-0.020
15.706,-0.270,-0.005
15.708,-0.270,0.015
15.711,-0.260,0.015
15.714,-0.250,0.005
15.717,-0.265,-0.005
15.719,-0.275,-0.010
15.722,-0.280,0.000
15.725,-0.285,0.025
15.728,-0.265,0.045
15.731,-0.265,0.060
15.733,-0.290,0.040
15.736,-0.310,0.025
15.739,-0.325,0.030
15.742,-0.315,0.035
15.744,-0.315,0.060
15.747,-0.295,0.055
15.750,-0.300,0.040
15.753,-0.300,0.030
15.756,-0.315,0.040
15.758,-0.310,0.050
15.761,-0.320,0.065
15.764,-0.325,0.045
15.767,-0.315,0.040
15.769,-0.320,0.045
15.772,-0.330,0.055
15.775,-0.330,0.065
15.778,-0.315,0.075
15.781,-0.310,0.060
15.783,-0.320,0.050
15.786,-0.330,0.035
15.789,-0.325,0.040
15.792,-0.320,0.050
15.794,-0.305,0.075
15.797,-0.305,0.060
15.800,-0.320,0.065
15.803,-0.340,0.045
15.806,-0.330,0.055
15.808,-0.325,0.050
15.811,-0.315,0.070
15.814,-0.310,0.055
15.817,-0.325,0.040
15.819,-0.325,0.030
15.822,-0.325,0.040
15.825,-0.325,0.045
15.828,-0.295,0.050
15.831,-0.285,0.050
15.833,-0.290,0.040
15.836,-0.305,0.010
15.839,-0.300,-0.055
15.842,-0.255,-0.140
15.844,-0.190,-0.270
15.847,-0.150,-0.430
15.850,-0.105,-0.585
15.853,-0.050,-0.735
15.856,0.015,-0.830
15.858,0.075,-0.885
15.861,0.125,-0.885
15.864,0.140,-0.900
15.867,0.105,-0.905
15.869,0.025,-0.930
15.872,-0.050,-0.935
15.875,-0.105,-0.900
15.878,-0.100,-0.850
15.881,-0.050,-0.810
15.883,0.025,-0.785
15.886,0.125,-0.760
15.889,0.255,-0.735
15.892,0.410,-0.695
15.894,0.515,-0.675
15.897,0.600,-0.660
15.900,0.645,-0.640
15.903,0.630,-0.610
15.906,0.540,-0.570
15.908,0.455,-0.510
15.911,0.365,-0.425
15.914,0.255,-0.390
15.917,0.165,-0.360
15.919,0.040,-0.295
15.922,-0.080,-0.240
15.925,-0.170,-0.170
15.928,-0.275,-0.100
15.931,-0.370,-0.035
15.933,-0.470,0.010
15.936,-0.545,0.065
15.939,-0.585,0.110
15.942,-0.600,0.145
15.944,-0.575,0.185
15.947,-0.535,0.185
15.950,-0.505,0.190
15.953,-0.485,0.185
15.956,-0.455,0.205
15.958,-0.425,0.220
15.961,-0.385,0.235
15.964,-0.375,0.240
15.967,-0.380,0.245
15.969,-0.385,0.215
15.972,-0.385,0.225
15.975,-0.375,0.250
15.978,-0.355,0.265
15.981,-0.355,0.275
15.983,-0.360,0.255
15.986,-0.365,0.260
15.989,-0.370,0.265
15.992,-0.355,0.270
15.994,-0.340,0.285
15.997,-0.350,0.275
16.000,-0.355,0.275
16.003,-0.370,0.275
16.006,-0.365,0.280
16.008,-0.345,0.290
16.011,-0.330,0.295
16.014,-0.325,0.290
16.017,-0.335,0.300
16.019,-0.345,0.295
16.022,-0.355,0.290
16.025,-0.335,0.300
16.028,-0.320,0.330
16.031,-0.300,0.330
16.033,-0.315,0.315
16.036,-0.320,0.310
16.039,-0.315,0.335
16.042,-0.300,0.345
16.044,-0.285,0.355
16.047,-0.275,0.350
16.050,-0.290,0.350
16.053,-0.290,0.340
16.056,-0.295,0.360
16.058,-0.265,0.370
16.061,-0.240,0.385
16.064,-0.235,0.380
16.067,-0.235,0.375
16.069,-0.245,0.365
16.072,-0.240,0.385
16.075,-0.225,0.405
16.078,-0.220,0.410
16.081,-0.205,0.395
16.083,-0.205,0.405
16.086,-0.210,0.390
16.089,-0.200,0.395
16.092,-0.180,0.420
16.094,-0.155,0.430
16.097,-0.145,0.430
16.100,-0.145,0.410
16.103,-0.140,0.400
16.106,-0.140,0.415
16.108,-0.125,0.420
16.111,-0.090,0.420
16.114,-0.075,0.410
16.117,-0.070,0.380
16.119,-0.085,0.375
16.122,-0.075,0.360
16.125,-0.055,0.360
16.128,-0.020,0.365
16.131,-0.005,0.330
16.133,-0.005,0.295
16.136,-0.005,0.265
16.139,0.005,0.250
16.142,0.015,0.235
16.144,0.035,0.225
16.147,0.065,0.190
16.150,0.065,0.170
16.153,0.045,0.145
16.156,0.055,0.125
16.158,0.085,0.125
16.161,0.120,0.120
16.164,0.115,0.120
16.167,0.100,0.085
16.169,0.095,0.070
16.172,0.095,0.070
16.175,0.080,0.070
16.178,0.090,0.065
16.181,0.075,0.060
16.183,0.035,0.040
16.186,0.015,0.030
16.189,-0.010,0.040
16.192,-0.030,0.050
16.194,-0.050,0.065
16.197,-0.070,0.050
16.200,-0.100,0.040
16.203,-0.125,0.035
16.206,-0.140,0.025
16.208,-0.155,0.055
16.211,-0.155,0.065
16.214,-0.180,0.055
16.217,-0.200,0.040
16.219,-0.215,0.030
16.222,-0.215,0.035
16.225,-0.215,0.055
16.228,-0.210,0.065
16.231,-0.225,0.065
16.233,-0.235,0.045
16.236,-0.245,0.045
16.239,-0.245,0.045
16.242,-0.245,0.045
16.244,-0.225,0.055
16.247,-0.250,0.045
16.250,-0.255,0.030
16.253,-0.265,0.025
16.256,-0.275,0.035
16.258,-0.265,0.050
16.261,-0.255,0.050
16.264,-0.245,0.065
16.267,-0.255,0.050
16.269,-0.270,0.035
16.272,-0.260,0.050
16.275,-0.275,0.060
16.278,-0.245,0.065
16.281,-0.230,0.060
16.283,-0.245,0.040
16.286,-0.255,0.030
16.289,-0.270,0.045
16.292,-0.255,0.060
16.294,-0.245,0.060
16.297,-0.240,0.065
16.300,-0.245,0.055
16.303,-0.255,0.040
16.306,-0.265,0.055
16.308,-0.250,0.075
16.311,-0.245,0.085
16.314,-0.250,0.070
16.317,-0.245,0.055
16.319,-0.255,0.070
16.322,-0.260,0.070
16.325,-0.255,0.080
16.328,-0.250,0.090
16.331,-0.240,0.080
16.333,-0.250,0.070
16.336,-0.250,0.050
16.339,-0.265,0.060
16.342,-0.260,0.075
16.344,-0.245,0.085
16.347,-0.245,0.070
16.350,-0.255,0.055
16.353,-0.265,0.055
16.356,-0.265,0.055
16.358,-0.270,0.065
16.361,-0.260,0.070
16.364,-0.260,0.075
16.367,-0.255,0.065
16.369,-0.280,0.055
16.372,-0.275,0.060
16.375,-0.265,0.070
16.378,-0.250,0.080
16.381,-0.250,0.060
16.383,-0.260,0.055
16.386,-0.270,0.040
16.389,-0.275,0.055
16.392,-0.265,0.065
16.394,-0.255,0.060
16.397,-0.250,0.060
16.400,-0.255,0.045
16.403,-0.275,0.040
16.406,-0.280,0.055
16.408,-0.270,0.065
16.411,-0.265,0.060
16.414,-0.250,0.050
16.417,-0.265,0.045
16.419,-0.275,0.040
16.422,-0.285,0.040
16.425,-0.285,0.055
16.428,-0.265,0.065
16.431,-0.255,0.050
16.433,-0.270,0.025
16.436,-0.285,0.030
16.439,-0.290,0.035
16.442,-0.295,0.040
16.444,-0.270,0.055
16.447,-0.270,0.055
16.450,-0.270,0.035
16.453,-0.285,0.025
16.456,-0.290,0.035
16.458,-0.290,0.055
16.461,-0.260,0.065
16.464,-0.265,0.065
16.467,-0.270,0.060
16.469,-0.290,0.050
16.472,-0.280,0.065
16.475,-0.260,0.090
16.478,-0.255,0.105
16.481,-0.245,0.095
16.483,-0.255,0.075
16.486,-0.275,0.065
16.489,-0.250,0.060
16.492,-0.235,0.090
16.494,-0.215,0.105
16.497,-0.215,0.100
16.500,-0.225,0.090
16.503,-0.230,0.065
16.506,-0.240,0.080
16.508,-0.240,0.070
16.511,-0.210,0.070
16.514,-0.190,0.050
16.517,-0.195,0.020
16.519,-0.195,0.015
16.522,-0.200,0.020
16.525,-0.185,0.015
16.528,-0.170,0.035
16.531,-0.170,0.010
16.533,-0.170,-0.010
16.536,-0.200,-0.030
16.539,-0.205,-0.015
16.542,-0.195,-0.010
16.544,-0.190,0.000
16.547,-0.185,-0.030
16.550,-0.200,-0.030
16.553,-0.215,-0.040
16.556,-0.240,-0.030
16.558,-0.230,-0.025
16.561,-0.215,-0.005
16.564,-0.215,-0.005
16.567,-0.240,-0.020
16.569,-0.255,-0.040
16.572,-0.270,-0.035
16.575,-0.260,-0.030
16.578,-0.255,-0.020
16.581,-0.245,-0.010
16.583,-0.245,-0.020
16.586,-0.275,-0.020
16.589,-0.280,-0.010
16.592,-0.285,0.020
16.594,-0.265,0.025
16.597,-0.265,0.020
16.600,-0.280,0.020
16.603,-0.315,0.010
16.606,-0.310,0.015
16.608,-0.305,0.020
16.611,-0.285,0.040
16.614,-0.270,0.030
16.617,-0.290,0.020
16.619,-0.315,0.005
16.622,-0.330,0.010
16.625,-0.315,0.030
16.628,-0.315,0.030
16.631,-0.310,0.030
16.633,-0.305,0.025
16.636,-0.345,0.010
16.639,-0.335,0.015
16.642,-0.335,0.050
16.644,-0.305,0.035
16.647,-0.305,0.035
16.650,-0.320,0.025
16.653,-0.325,0.010
16.656,-0.335,0.025
16.658,-0.330,0.035
16.661,-0.310,0.040
16.664,-0.310,0.035
16.667,-0.320,0.015
16.669,-0.335,0.005
16.672,-0.335,0.015
16.675,-0.325,0.035
16.678,-0.330,0.050
16.681,-0.305,0.020
16.683,-0.315,0.010
16.686,-0.325,0.015
16.689,-0.320,0.010
16.692,-0.315,0.025
16.694,-0.310,0.045
16.697,-0.310,0.025
16.700,-0.320,0.015
16.703,-0.320,0.000
16.706,-0.340,0.015
16.708,-0.320,0.020
16.711,-0.305,0.035
16.714,-0.285,0.015
16.717,-0.285,-0.010
16.719,-0.285,-0.075
16.722,-0.280,-0.140
16.725,-0.235,-0.230
16.728,-0.205,-0.330
16.731,-0.160,-0.465
16.733,-0.115,-0.610
16.736,-0.065,-0.725
16.739,-0.010,-0.805
16.742,0.055,-0.880
16.744,0.095,-0.890
16.747,0.095,-0.915
16.750,0.080,-0.920
16.753,0.030,-0.950
16.756,-0.050,-0.965
16.758,-0.115,-0.955
16.761,-0.150,-0.910
16.764,-0.150,-0.890
16.767,-0.100,-0.850
16.769,-0.010,-0.835
16.772,0.105,-0.795
16.775,0.245,-0.760
16.778,0.380,-0.735
16.781,0.485,-0.705
16.783,0.555,-0.715
16.786,0.605,-0.695
16.789,0.605,-0.665
16.792,0.550,-0.615
16.794,0.460,-0.545
16.797,0.365,-0.495
16.800,0.250,-0.455
16.803,0.130,-0.405
16.806,0.010,-0.335
16.808,-0.070,-0.270
16.811,-0.185,-0.195
16.814,-0.320,-0.140
16.817,-0.435,-0.080
16.819,-0.545,-0.030
16.822,-0.600,0.030
16.825,-0.625,0.095
16.828,-0.610,0.140
16.831,-0.600,0.155
16.833,-0.565,0.165
16.836,-0.525,0.165
16.839,-0.500,0.180
16.842,-0.460,0.190
16.844,-0.410,0.200
16.847,-0.380,0.200
16.850,-0.385,0.195
16.853,-0.395,0.190
16.856,-0.400,0.205
16.858,-0.400,0.230
16.861,-0.380,0.240
16.864,-0.370,0.245
16.867,-0.380,0.235
16.869,-0.385,0.225
16.872,-0.395,0.240
16.875,-0.385,0.245
16.878,-0.375,0.260
16.881,-0.355,0.245
16.883,-0.375,0.230
16.886,-0.380,0.240
16.889,-0.385,0.245
16.892,-0.370,0.265
16.894,-0.355,0.280
16.897,-0.350,0.270
16.900,-0.345,0.270
16.903,-0.355,0.270
16.906,-0.355,0.275
16.908,-0.345,0.285
16.911,-0.325,0.300
16.914,-0.320,0.300
16.917,-0.320,0.300
16.919,-0.325,0.290
16.922,-0.340,0.305
16.925,-0.320,0.315
16.928,-0.300,0.345
16.931,-0.290,0.335
16.933,-0.290,0.330
16.936,-0.305,0.330
16.939,-0.305,0.330
16.942,-0.280,0.355
16.944,-0.260,0.365
16.947,-0.255,0.370
16.950,-0.255,0.365
16.953,-0.250,0.355
16.956,-0.260,0.375
16.958,-0.240,0.390
16.961,-0.220,0.405
16.964,-0.195,0.405
16.967,-0.200,0.385
16.969,-0.200,0.375
16.972,-0.200,0.375
16.975,-0.180,0.385
16.978,-0.160,0.400
16.981,-0.145,0.400
16.983,-0.135,0.390
16.986,-0.135,0.380
16.989,-0.120,0.375
16.992,-0.105,0.370
16.994,-0.075,0.365
16.997,-0.060,0.345
17.000,-0.055,0.350
17.003,-0.055,0.315
17.006,-0.050,0.310
17.008,-0.020,0.300
17.011,0.000,0.285
17.014,0.025,0.260
17.017,0.025,0.225
17.019,0.025,0.180
17.022,0.035,0.165
17.025,0.040,0.170
17.028,0.080,0.150
17.031,0.095,0.125
17.033,0.085,0.110
17.036,0.085,0.080
17.039,0.080,0.070
17.042,0.085,0.070
17.044,0.100,0.085
17.047,0.090,0.070
17.050,0.075,0.045
17.053,0.045,0.025
17.056,0.020,0.025
17.058,0.005,0.040
17.061,-0.005,0.050
17.064,-0.030,0.040
17.067,-0.050,0.035
17.069,-0.085,0.030
17.072,-0.110,0.020
17.075,-0.110,0.050
17.078,-0.145,0.035
17.081,-0.155,0.035
17.083,-0.175,0.025
17.086,-0.205,0.010
17.089,-0.225,0.020
17.092,-0.225,0.035
17.094,-0.225,0.030
17.097,-0.225,0.040
17.100,-0.230,0.030
17.103,-0.260,0.025
17.106,-0.280,0.030
17.108,-0.260,0.030
17.111,-0.245,0.040
17.114,-0.250,0.030
17.117,-0.265,0.020
17.119,-0.275,0.025
17.122,-0.290,0.025
17.125,-0.295,0.035
17.128,-0.280,0.045
17.131,-0.270,0.040
17.133,-0.285,0.030
17.136,-0.285,0.020
17.139,-0.285,0.040
17.142,-0.280,0.050
17.144,-0.270,0.060
17.147,-0.265,0.060
17.150,-0.290,0.035
17.153,-0.290,0.015
17.156,-0.290,0.030
17.158,-0.295,0.050
17.161,-0.290,0.065
17.164,-0.280,0.060
17.167,-0.285,0.055
