'Elapsed time','MLII','V1'
'seconds','mV','mV'
0.000,-0.580,-0.335
0.003,-0.580,-0.335
0.006,-0.580,-0.335
0.008,-0.580,-0.335
0.011,-0.580,-0.335
0.014,-0.580,-0.335
0.017,-0.580,-0.335
0.019,-0.580,-0.335
0.022,-0.585,-0.330
0.025,-0.590,-0.320
0.028,-0.580,-0.320
0.031,-0.580,-0.315
0.033,-0.575,-0.300
0.036,-0.555,-0.315
0.039,-0.570,-0.310
0.042,-0.575,-0.320
0.044,-0.585,-0.330
0.047,-0.585,-0.330
0.050,-0.595,-0.340
0.053,-0.595,-0.340
0.056,-0.610,-0.335
0.058,-0.605,-0.320
0.061,-0.590,-0.330
0.064,-0.585,-0.320
0.067,-0.580,-0.305
0.069,-0.580,-0.310
0.072,-0.585,-0.320
0.075,-0.590,-0.330
0.078,-0.595,-0.335
0.081,-0.605,-0.345
0.083,-0.600,-0.350
0.086,-0.600,-0.345
0.089,-0.605,-0.335
0.092,-0.605,-0.325
0.094,-0.590,-0.330
0.097,-0.585,-0.320
0.100,-0.590,-0.310
0.103,-0.575,-0.330
0.106,-0.580,-0.325
0.108,-0.585,-0.320
0.111,-0.585,-0.330
0.114,-0.575,-0.340
0.117,-0.595,-0.340
0.119,-0.600,-0.335
0.122,-0.605,-0.345
0.125,-0.595,-0.330
0.128,-0.590,-0.315
0.131,-0.600,-0.320
0.133,-0.590,-0.315
0.136,-0.585,-0.320
0.139,-0.580,-0.320
0.142,-0.580,-0.330
0.144,-0.585,-0.345
0.147,-0.600,-0.340
0.150,-0.605,-0.345
0.153,-0.605,-0.340
0.156,-0.620,-0.345
0.158,-0.610,-0.335
0.161,-0.610,-0.325
0.164,-0.600,-0.315
0.167,-0.600,-0.310
0.169,-0.585,-0.310
0.172,-0.595,-0.330
0.175,-0.590,-0.330
0.178,-0.610,-0.330
0.181,-0.610,-0.345
0.183,-0.610,-0.350
0.186,-0.605,-0.345
0.189,-0.605,-0.340
0.192,-0.595,-0.335
0.194,-0.595,-0.320
0.197,-0.590,-0.310
0.200,-0.565,-0.300
0.203,-0.585,-0.315
0.206,-0.570,-0.315
0.208,-0.575,-0.315
0.211,-0.580,-0.315
0.214,-0.585,-0.310
0.217,-0.590,-0.325
0.219,-0.595,-0.310
0.222,-0.590,-0.295
0.225,-0.575,-0.275
0.228,-0.560,-0.275
0.231,-0.550,-0.250
0.233,-0.535,-0.240
0.236,-0.525,-0.255
0.239,-0.515,-0.260
0.242,-0.510,-0.265
0.244,-0.490,-0.290
0.247,-0.495,-0.310
0.250,-0.490,-0.320
0.253,-0.495,-0.325
0.256,-0.480,-0.340
0.258,-0.465,-0.340
0.261,-0.455,-0.335
0.264,-0.445,-0.315
0.267,-0.430,-0.300
0.269,-0.435,-0.320
0.272,-0.440,-0.305
0.275,-0.445,-0.330
0.278,-0.475,-0.315
0.281,-0.480,-0.330
0.283,-0.485,-0.340
0.286,-0.490,-0.325
0.289,-0.495,-0.330
0.292,-0.485,-0.320
0.294,-0.480,-0.310
0.297,-0.480,-0.320
0.300,-0.470,-0.315
0.303,-0.470,-0.325
0.306,-0.485,-0.335
0.308,-0.500,-0.345
0.311,-0.535,-0.350
0.314,-0.545,-0.365
0.317,-0.565,-0.370
0.319,-0.575,-0.365
0.322,-0.585,-0.360
0.325,-0.585,-0.345
0.328,-0.580,-0.345
0.331,-0.565,-0.340
0.333,-0.570,-0.335
0.336,-0.565,-0.345
0.339,-0.560,-0.345
0.342,-0.575,-0.355
0.344,-0.580,-0.355
0.347,-0.585,-0.355
0.350,-0.605,-0.360
0.353,-0.610,-0.365
0.356,-0.600,-0.365
0.358,-0.590,-0.340
0.361,-0.600,-0.345
0.364,-0.595,-0.345
0.367,-0.575,-0.335
0.369,-0.555,-0.345
0.372,-0.565,-0.350
0.375,-0.575,-0.350
0.378,-0.575,-0.350
0.381,-0.590,-0.345
0.383,-0.590,-0.365
0.386,-0.590,-0.350
0.389,-0.575,-0.350
0.392,-0.585,-0.345
0.394,-0.575,-0.345
0.397,-0.565,-0.335
0.400,-0.540,-0.315
0.403,-0.530,-0.310
0.406,-0.525,-0.300
0.408,-0.525,-0.300
0.411,-0.520,-0.295
0.414,-0.515,-0.315
0.417,-0.515,-0.350
0.419,-0.510,-0.390
0.422,-0.495,-0.440
0.425,-0.450,-0.505
0.428,-0.375,-0.585
0.431,-0.260,-0.660
0.433,-0.100,-0.740
0.436,0.125,-0.795
0.439,0.425,-0.835
0.442,0.775,-0.815
0.444,1.155,-0.775
0.447,1.470,-0.700
0.450,1.665,-0.605
0.453,1.670,-0.525
0.456,1.455,-0.450
0.458,0.995,-0.395
0.461,0.360,-0.375
0.464,-0.280,-0.385
0.467,-0.905,-0.395
0.469,-1.260,-0.425
0.472,-1.360,-0.430
0.475,-1.255,-0.430
0.478,-1.035,-0.390
0.481,-0.800,-0.360
0.483,-0.605,-0.325
0.486,-0.490,-0.295
0.489,-0.430,-0.275
0.492,-0.415,-0.280
0.494,-0.430,-0.265
0.497,-0.470,-0.275
0.500,-0.490,-0.265
0.503,-0.505,-0.275
0.506,-0.520,-0.285
0.508,-0.510,-0.280
0.511,-0.515,-0.285
0.514,-0.500,-0.295
0.517,-0.500,-0.300
0.519,-0.500,-0.295
0.522,-0.500,-0.290
0.525,-0.490,-0.285
0.528,-0.490,-0.285
0.531,-0.490,-0.270
0.533,-0.485,-0.255
0.536,-0.480,-0.270
0.539,-0.475,-0.265
0.542,-0.485,-0.285
0.544,-0.475,-0.285
0.547,-0.480,-0.295
0.550,-0.495,-0.300
0.553,-0.490,-0.295
0.556,-0.510,-0.310
0.558,-0.505,-0.285
0.561,-0.480,-0.270
0.564,-0.470,-0.280
0.567,-0.480,-0.270
0.569,-0.465,-0.275
0.572,-0.470,-0.285
0.575,-0.465,-0.290
0.578,-0.470,-0.285
0.581,-0.485,-0.300
0.583,-0.495,-0.305
0.586,-0.490,-0.305
0.589,-0.475,-0.300
0.592,-0.475,-0.295
0.594,-0.475,-0.285
0.597,-0.470,-0.280
0.600,-0.470,-0.285
0.603,-0.460,-0.285
0.606,-0.465,-0.280
0.608,-0.465,-0.290
0.611,-0.470,-0.295
0.614,-0.485,-0.305
0.617,-0.490,-0.310
0.619,-0.485,-0.310
0.622,-0.485,-0.310
0.625,-0.495,-0.305
0.628,-0.490,-0.300
0.631,-0.490,-0.295
0.633,-0.470,-0.285
0.636,-0.465,-0.290
0.639,-0.465,-0.275
0.642,-0.455,-0.305
0.644,-0.475,-0.315
0.647,-0.465,-0.310
0.650,-0.480,-0.320
0.653,-0.485,-0.320
0.656,-0.480,-0.310
0.658,-0.470,-0.310
0.661,-0.465,-0.300
0.664,-0.470,-0.295
0.667,-0.465,-0.285
0.669,-0.445,-0.290
0.672,-0.440,-0.300
0.675,-0.440,-0.305
0.678,-0.440,-0.310
0.681,-0.445,-0.320
0.683,-0.440,-0.315
0.686,-0.460,-0.325
0.689,-0.455,-0.320
0.692,-0.455,-0.325
0.694,-0.440,-0.305
0.697,-0.430,-0.300
0.700,-0.435,-0.305
0.703,-0.425,-0.310
0.706,-0.415,-0.305
0.708,-0.415,-0.310
0.711,-0.420,-0.330
0.714,-0.420,-0.330
0.717,-0.430,-0.325
0.719,-0.425,-0.335
0.722,-0.415,-0.320
0.725,-0.430,-0.310
0.728,-0.410,-0.305
0.731,-0.410,-0.295
0.733,-0.400,-0.290
0.736,-0.385,-0.295
0.739,-0.370,-0.295
0.742,-0.375,-0.310
0.744,-0.380,-0.330
0.747,-0.390,-0.330
0.750,-0.395,-0.340
0.753,-0.395,-0.330
0.756,-0.390,-0.335
0.758,-0.395,-0.325
0.761,-0.385,-0.315
0.764,-0.370,-0.315
0.767,-0.360,-0.310
0.769,-0.365,-0.315
0.772,-0.365,-0.315
0.775,-0.365,-0.325
0.778,-0.375,-0.320
0.781,-0.380,-0.335
0.783,-0.385,-0.340
0.786,-0.385,-0.335
0.789,-0.385,-0.335
0.792,-0.380,-0.335
0.794,-0.375,-0.325
0.797,-0.375,-0.310
0.800,-0.365,-0.305
0.803,-0.345,-0.315
0.806,-0.355,-0.325
0.808,-0.360,-0.320
0.811,-0.365,-0.335
0.814,-0.355,-0.345
0.817,-0.365,-0.340
0.819,-0.370,-0.335
0.822,-0.365,-0.340
0.825,-0.380,-0.325
0.828,-0.365,-0.320
0.831,-0.380,-0.305
0.833,-0.380,-0.305
0.836,-0.365,-0.315
0.839,-0.390,-0.295
0.842,-0.395,-0.315
0.844,-0.395,-0.305
0.847,-0.425,-0.315
0.850,-0.445,-0.320
0.853,-0.465,-0.320
0.856,-0.475,-0.320
0.858,-0.490,-0.305
0.861,-0.495,-0.300
0.864,-0.495,-0.290
0.867,-0.505,-0.290
0.869,-0.500,-0.285
0.872,-0.530,-0.295
0.875,-0.535,-0.295
0.878,-0.545,-0.310
0.881,-0.550,-0.310
0.883,-0.565,-0.320
0.886,-0.570,-0.310
0.889,-0.570,-0.295
0.892,-0.580,-0.300
0.894,-0.565,-0.285
0.897,-0.575,-0.280
0.900,-0.560,-0.270
0.903,-0.555,-0.275
0.906,-0.560,-0.280
0.908,-0.585,-0.280
0.911,-0.575,-0.290
0.914,-0.585,-0.295
0.917,-0.585,-0.300
0.919,-0.595,-0.295
0.922,-0.590,-0.295
0.925,-0.590,-0.285
0.928,-0.580,-0.280
0.931,-0.580,-0.280
0.933,-0.565,-0.275
0.936,-0.555,-0.265
0.939,-0.550,-0.265
0.942,-0.555,-0.275
0.944,-0.565,-0.290
0.947,-0.580,-0.290
0.950,-0.580,-0.300
0.953,-0.585,-0.290
0.956,-0.575,-0.285
0.958,-0.570,-0.275
0.961,-0.565,-0.275
0.964,-0.550,-0.270
0.967,-0.545,-0.265
0.969,-0.540,-0.260
0.972,-0.540,-0.270
0.975,-0.540,-0.280
0.978,-0.550,-0.295
0.981,-0.550,-0.295
0.983,-0.565,-0.300
0.986,-0.565,-0.290
0.989,-0.550,-0.280
0.992,-0.550,-0.280
0.994,-0.545,-0.270
0.997,-0.530,-0.270
1.000,-0.525,-0.245
1.003,-0.525,-0.260
1.006,-0.525,-0.270
1.008,-0.525,-0.280
1.011,-0.525,-0.290
1.014,-0.540,-0.295
1.017,-0.560,-0.295
1.019,-0.555,-0.290
1.022,-0.555,-0.300
1.025,-0.550,-0.295
1.028,-0.555,-0.290
1.031,-0.550,-0.285
1.033,-0.550,-0.255
1.036,-0.540,-0.275
1.039,-0.540,-0.285
1.042,-0.545,-0.290
1.044,-0.565,-0.295
1.047,-0.565,-0.300
1.050,-0.570,-0.315
1.053,-0.575,-0.315
1.056,-0.580,-0.305
1.058,-0.575,-0.295
1.061,-0.580,-0.290
1.064,-0.570,-0.290
1.067,-0.565,-0.270
1.069,-0.555,-0.285
1.072,-0.565,-0.290
1.075,-0.570,-0.285
1.078,-0.570,-0.295
1.081,-0.580,-0.310
1.083,-0.575,-0.305
1.086,-0.600,-0.310
1.089,-0.590,-0.305
1.092,-0.585,-0.290
1.094,-0.595,-0.290
1.097,-0.595,-0.275
1.100,-0.580,-0.275
1.103,-0.575,-0.280
1.106,-0.580,-0.290
1.108,-0.590,-0.295
1.111,-0.590,-0.300
1.114,-0.610,-0.310
1.117,-0.610,-0.305
1.119,-0.610,-0.310
1.122,-0.615,-0.310
1.125,-0.610,-0.305
1.128,-0.615,-0.285
1.131,-0.610,-0.290
1.133,-0.595,-0.270
1.136,-0.595,-0.280
1.139,-0.590,-0.280
1.142,-0.585,-0.300
1.144,-0.590,-0.290
1.147,-0.600,-0.300
1.150,-0.605,-0.305
1.153,-0.610,-0.300
1.156,-0.625,-0.300
1.158,-0.615,-0.305
1.161,-0.610,-0.290
1.164,-0.595,-0.280
1.167,-0.590,-0.275
1.169,-0.590,-0.285
1.172,-0.590,-0.285
1.175,-0.585,-0.285
1.178,-0.595,-0.295
1.181,-0.605,-0.305
1.183,-0.610,-0.305
1.186,-0.615,-0.305
1.189,-0.610,-0.310
1.192,-0.615,-0.290
1.194,-0.605,-0.290
1.197,-0.605,-0.285
1.200,-0.595,-0.270
1.203,-0.590,-0.270
1.206,-0.595,-0.280
1.208,-0.595,-0.280
1.211,-0.605,-0.280
1.214,-0.600,-0.275
1.217,-0.605,-0.275
1.219,-0.590,-0.265
1.222,-0.605,-0.260
1.225,-0.590,-0.240
1.228,-0.575,-0.225
1.231,-0.565,-0.225
1.233,-0.550,-0.200
1.236,-0.530,-0.205
1.239,-0.520,-0.220
1.242,-0.515,-0.240
1.244,-0.515,-0.240
1.247,-0.515,-0.270
1.250,-0.500,-0.280
1.253,-0.495,-0.305
1.256,-0.490,-0.305
1.258,-0.490,-0.295
1.261,-0.475,-0.280
1.264,-0.470,-0.270
1.267,-0.455,-0.260
1.269,-0.435,-0.270
1.272,-0.460,-0.275
1.275,-0.470,-0.280
1.278,-0.485,-0.270
1.281,-0.485,-0.290
1.283,-0.480,-0.290
1.286,-0.480,-0.290
1.289,-0.490,-0.285
1.292,-0.480,-0.290
1.294,-0.480,-0.280
1.297,-0.490,-0.285
1.300,-0.480,-0.270
1.303,-0.500,-0.280
1.306,-0.525,-0.295
1.308,-0.545,-0.300
1.311,-0.560,-0.300
1.314,-0.585,-0.305
1.317,-0.600,-0.310
1.319,-0.610,-0.310
1.322,-0.615,-0.305
1.325,-0.620,-0.300
1.328,-0.605,-0.290
1.331,-0.600,-0.300
1.333,-0.595,-0.275
1.336,-0.595,-0.285
1.339,-0.605,-0.295
1.342,-0.605,-0.300
1.344,-0.610,-0.295
1.347,-0.615,-0.300
1.350,-0.630,-0.305
1.353,-0.630,-0.315
1.356,-0.625,-0.310
1.358,-0.625,-0.305
1.361,-0.620,-0.305
1.364,-0.615,-0.285
1.367,-0.605,-0.275
1.369,-0.615,-0.275
1.372,-0.615,-0.295
1.375,-0.610,-0.290
1.378,-0.595,-0.295
1.381,-0.605,-0.300
1.383,-0.605,-0.305
1.386,-0.605,-0.305
1.389,-0.595,-0.280
1.392,-0.600,-0.270
1.394,-0.585,-0.250
1.397,-0.575,-0.230
1.400,-0.550,-0.230
1.403,-0.545,-0.240
1.406,-0.540,-0.265
1.408,-0.520,-0.310
1.411,-0.525,-0.360
1.414,-0.505,-0.435
1.417,-0.465,-0.515
1.419,-0.400,-0.595
1.422,-0.270,-0.660
1.425,-0.085,-0.705
1.428,0.155,-0.730
1.431,0.460,-0.705
1.433,0.825,-0.650
1.436,1.200,-0.580
1.439,1.485,-0.490
1.442,1.610,-0.400
1.444,1.490,-0.330
1.447,1.095,-0.285
1.450,0.455,-0.285
1.453,-0.185,-0.295
1.456,-0.825,-0.315
1.458,-1.280,-0.335
1.461,-1.370,-0.350
1.464,-1.230,-0.330
1.467,-0.995,-0.305
1.469,-0.745,-0.265
1.472,-0.535,-0.240
1.475,-0.425,-0.210
1.478,-0.400,-0.230
1.481,-0.425,-0.225
1.483,-0.470,-0.245
1.486,-0.515,-0.250
1.489,-0.545,-0.245
1.492,-0.555,-0.255
1.494,-0.575,-0.240
1.497,-0.565,-0.240
1.500,-0.530,-0.230
1.503,-0.520,-0.225
1.506,-0.515,-0.235
1.508,-0.515,-0.235
1.511,-0.530,-0.245
1.514,-0.535,-0.255
1.517,-0.530,-0.265
1.519,-0.530,-0.260
1.522,-0.530,-0.255
1.525,-0.520,-0.245
1.528,-0.525,-0.245
1.531,-0.525,-0.245
1.533,-0.505,-0.220
1.536,-0.500,-0.225
1.539,-0.505,-0.225
1.542,-0.505,-0.240
1.544,-0.510,-0.255
1.547,-0.520,-0.255
1.550,-0.515,-0.265
1.553,-0.525,-0.270
1.556,-0.525,-0.260
1.558,-0.520,-0.250
1.561,-0.505,-0.250
1.564,-0.495,-0.235
1.567,-0.495,-0.235
1.569,-0.485,-0.245
1.572,-0.485,-0.250
1.575,-0.490,-0.255
1.578,-0.495,-0.255
1.581,-0.505,-0.265
1.583,-0.510,-0.270
1.586,-0.515,-0.265
1.589,-0.510,-0.260
1.592,-0.520,-0.260
1.594,-0.500,-0.245
1.597,-0.505,-0.250
1.600,-0.485,-0.240
1.603,-0.485,-0.245
1.606,-0.475,-0.255
1.608,-0.485,-0.245
1.611,-0.485,-0.250
1.614,-0.490,-0.265
1.617,-0.510,-0.270
1.619,-0.510,-0.265
1.622,-0.510,-0.270
1.625,-0.510,-0.260
1.628,-0.505,-0.260
1.631,-0.495,-0.245
1.633,-0.475,-0.255
1.636,-0.470,-0.250
1.639,-0.465,-0.250
1.642,-0.465,-0.260
1.644,-0.475,-0.270
1.647,-0.475,-0.275
1.650,-0.490,-0.275
1.653,-0.505,-0.280
1.656,-0.495,-0.270
1.658,-0.490,-0.270
1.661,-0.490,-0.260
1.664,-0.495,-0.260
1.667,-0.475,-0.255
1.669,-0.450,-0.250
1.672,-0.480,-0.265
1.675,-0.465,-0.270
1.678,-0.465,-0.270
1.681,-0.470,-0.275
1.683,-0.485,-0.285
1.686,-0.480,-0.295
1.689,-0.480,-0.290
1.692,-0.490,-0.285
1.694,-0.465,-0.275
1.697,-0.475,-0.270
1.700,-0.460,-0.260
1.703,-0.445,-0.260
1.706,-0.445,-0.275
1.708,-0.435,-0.275
1.711,-0.440,-0.280
1.714,-0.445,-0.295
1.717,-0.430,-0.285
1.719,-0.435,-0.295
1.722,-0.435,-0.290
1.725,-0.435,-0.290
1.728,-0.430,-0.280
1.731,-0.415,-0.275
1.733,-0.415,-0.270
1.736,-0.410,-0.270
1.739,-0.410,-0.290
1.742,-0.405,-0.280
1.744,-0.415,-0.300
1.747,-0.415,-0.305
1.750,-0.405,-0.310
1.753,-0.415,-0.310
1.756,-0.415,-0.310
1.758,-0.425,-0.305
1.761,-0.420,-0.295
1.764,-0.415,-0.290
1.767,-0.400,-0.280
1.769,-0.390,-0.285
1.772,-0.385,-0.295
1.775,-0.385,-0.290
1.778,-0.390,-0.300
1.781,-0.400,-0.290
1.783,-0.415,-0.315
1.786,-0.415,-0.310
1.789,-0.425,-0.305
1.792,-0.410,-0.290
1.794,-0.415,-0.290
1.797,-0.410,-0.285
1.800,-0.400,-0.280
1.803,-0.390,-0.270
1.806,-0.380,-0.285
1.808,-0.400,-0.280
1.811,-0.390,-0.295
1.814,-0.400,-0.285
1.817,-0.410,-0.300
1.819,-0.425,-0.280
1.822,-0.440,-0.275
1.825,-0.440,-0.275
1.828,-0.445,-0.260
1.831,-0.450,-0.265
1.833,-0.455,-0.255
1.836,-0.460,-0.245
1.839,-0.475,-0.245
1.842,-0.495,-0.250
1.844,-0.505,-0.245
1.847,-0.515,-0.265
1.850,-0.530,-0.265
1.853,-0.555,-0.265
1.856,-0.565,-0.255
1.858,-0.570,-0.250
1.861,-0.580,-0.235
1.864,-0.590,-0.245
1.867,-0.605,-0.240
1.869,-0.595,-0.225
1.872,-0.590,-0.240
1.875,-0.600,-0.245
1.878,-0.605,-0.245
1.881,-0.610,-0.255
1.883,-0.620,-0.260
1.886,-0.630,-0.260
1.889,-0.635,-0.255
1.892,-0.645,-0.245
1.894,-0.640,-0.240
1.897,-0.640,-0.240
1.900,-0.630,-0.225
1.903,-0.625,-0.225
1.906,-0.615,-0.240
1.908,-0.610,-0.245
1.911,-0.620,-0.255
1.914,-0.615,-0.250
1.917,-0.625,-0.260
1.919,-0.635,-0.260
1.922,-0.630,-0.255
1.925,-0.630,-0.245
1.928,-0.625,-0.250
1.931,-0.605,-0.240
1.933,-0.600,-0.245
1.936,-0.580,-0.235
1.939,-0.585,-0.255
1.942,-0.585,-0.250
1.944,-0.580,-0.255
1.947,-0.590,-0.270
1.950,-0.605,-0.270
1.953,-0.605,-0.270
1.956,-0.605,-0.270
1.958,-0.605,-0.250
1.961,-0.600,-0.255
1.964,-0.600,-0.240
1.967,-0.575,-0.240
1.969,-0.575,-0.240
1.972,-0.580,-0.250
1.975,-0.580,-0.260
1.978,-0.585,-0.265
1.981,-0.580,-0.265
1.983,-0.595,-0.270
1.986,-0.600,-0.280
1.989,-0.605,-0.280
1.992,-0.600,-0.260
1.994,-0.600,-0.265
1.997,-0.600,-0.260
2.000,-0.595,-0.260
2.003,-0.595,-0.250
2.006,-0.605,-0.255
2.008,-0.595,-0.260
2.011,-0.600,-0.265
2.014,-0.620,-0.275
2.017,-0.625,-0.275
2.019,-0.610,-0.285
2.022,-0.615,-0.275
2.025,-0.620,-0.275
2.028,-0.615,-0.260
2.031,-0.615,-0.260
2.033,-0.620,-0.260
2.036,-0.600,-0.260
2.039,-0.600,-0.250
2.042,-0.605,-0.255
2.044,-0.610,-0.270
2.047,-0.625,-0.270
2.050,-0.645,-0.280
2.053,-0.660,-0.285
2.056,-0.645,-0.285
2.058,-0.640,-0.275
2.061,-0.640,-0.275
2.064,-0.640,-0.260
2.067,-0.630,-0.255
2.069,-0.625,-0.255
2.072,-0.625,-0.260
2.075,-0.630,-0.260
2.078,-0.640,-0.265
2.081,-0.645,-0.285
2.083,-0.660,-0.285
2.086,-0.655,-0.280
2.089,-0.650,-0.280
2.092,-0.650,-0.280
2.094,-0.650,-0.275
2.097,-0.645,-0.255
2.100,-0.635,-0.265
2.103,-0.645,-0.260
2.106,-0.645,-0.275
2.108,-0.645,-0.280
2.111,-0.645,-0.275
2.114,-0.645,-0.285
2.117,-0.660,-0.280
2.119,-0.660,-0.265
2.122,-0.660,-0.250
2.125,-0.655,-0.250
2.128,-0.660,-0.235
2.131,-0.650,-0.225
2.133,-0.635,-0.210
2.136,-0.615,-0.200
2.139,-0.615,-0.200
2.142,-0.610,-0.215
2.144,-0.600,-0.225
2.147,-0.605,-0.240
2.150,-0.590,-0.255
2.153,-0.595,-0.260
2.156,-0.580,-0.275
2.158,-0.560,-0.285
2.161,-0.540,-0.275
2.164,-0.525,-0.265
2.167,-0.500,-0.270
2.169,-0.480,-0.245
2.172,-0.480,-0.250
2.175,-0.500,-0.255
2.178,-0.500,-0.250
2.181,-0.515,-0.270
2.183,-0.520,-0.280
2.186,-0.530,-0.275
2.189,-0.525,-0.270
2.192,-0.520,-0.265
2.194,-0.520,-0.260
2.197,-0.510,-0.250
2.200,-0.520,-0.260
2.203,-0.510,-0.260
2.206,-0.520,-0.275
2.208,-0.535,-0.280
2.211,-0.540,-0.300
2.214,-0.565,-0.310
2.217,-0.600,-0.310
2.219,-0.610,-0.310
2.222,-0.640,-0.310
2.225,-0.635,-0.305
2.228,-0.650,-0.290
2.231,-0.645,-0.300
2.233,-0.635,-0.290
2.236,-0.635,-0.295
2.239,-0.635,-0.295
2.242,-0.645,-0.305
2.244,-0.640,-0.305
2.247,-0.670,-0.320
2.250,-0.665,-0.325
2.253,-0.670,-0.325
2.256,-0.665,-0.325
2.258,-0.675,-0.310
2.261,-0.665,-0.305
2.264,-0.665,-0.295
2.267,-0.655,-0.295
2.269,-0.645,-0.280
2.272,-0.645,-0.290
2.275,-0.650,-0.300
2.278,-0.660,-0.305
2.281,-0.660,-0.310
2.283,-0.670,-0.320
2.286,-0.670,-0.315
2.289,-0.680,-0.320
2.292,-0.680,-0.310
2.294,-0.665,-0.295
2.297,-0.660,-0.300
2.300,-0.645,-0.290
2.303,-0.635,-0.295
2.306,-0.625,-0.295
2.308,-0.630,-0.295
2.311,-0.630,-0.305
2.314,-0.630,-0.295
2.317,-0.630,-0.290
2.319,-0.620,-0.280
2.322,-0.600,-0.270
2.325,-0.600,-0.280
2.328,-0.600,-0.305
2.331,-0.580,-0.335
2.333,-0.545,-0.390
2.336,-0.500,-0.465
2.339,-0.435,-0.550
2.342,-0.300,-0.645
2.344,-0.145,-0.715
2.347,0.085,-0.760
2.350,0.375,-0.775
2.353,0.715,-0.755
2.356,1.070,-0.685
2.358,1.405,-0.610
2.361,1.635,-0.515
2.364,1.710,-0.440
2.367,1.590,-0.370
2.369,1.255,-0.315
2.372,0.745,-0.295
2.375,0.115,-0.315
2.378,-0.510,-0.325
2.381,-1.025,-0.355
2.383,-1.320,-0.385
2.386,-1.370,-0.385
2.389,-1.225,-0.385
2.392,-0.990,-0.350
2.394,-0.770,-0.315
2.397,-0.600,-0.275
2.400,-0.500,-0.230
2.403,-0.460,-0.225
2.406,-0.455,-0.240
2.408,-0.490,-0.255
2.411,-0.520,-0.260
2.414,-0.565,-0.265
2.417,-0.575,-0.265
2.419,-0.580,-0.275
2.422,-0.590,-0.270
2.425,-0.580,-0.265
2.428,-0.560,-0.260
2.431,-0.560,-0.255
2.433,-0.555,-0.260
2.436,-0.535,-0.235
2.439,-0.535,-0.255
2.442,-0.535,-0.260
2.444,-0.545,-0.255
2.447,-0.550,-0.275
2.450,-0.565,-0.285
2.453,-0.550,-0.275
2.456,-0.565,-0.275
2.458,-0.565,-0.265
2.461,-0.560,-0.250
2.464,-0.540,-0.255
2.467,-0.540,-0.250
2.469,-0.520,-0.250
2.472,-0.525,-0.255
2.475,-0.540,-0.265
2.478,-0.530,-0.275
2.481,-0.555,-0.285
2.483,-0.550,-0.285
2.486,-0.545,-0.290
2.489,-0.545,-0.285
2.492,-0.550,-0.270
2.494,-0.540,-0.280
2.497,-0.530,-0.275
2.500,-0.530,-0.265
2.503,-0.530,-0.260
2.506,-0.520,-0.265
2.508,-0.520,-0.275
2.511,-0.530,-0.285
2.514,-0.530,-0.280
2.517,-0.530,-0.295
2.519,-0.525,-0.300
2.522,-0.530,-0.290
2.525,-0.540,-0.290
2.528,-0.545,-0.275
2.531,-0.525,-0.280
2.533,-0.510,-0.270
2.536,-0.510,-0.275
2.539,-0.530,-0.285
2.542,-0.515,-0.290
2.544,-0.515,-0.285
2.547,-0.515,-0.285
2.550,-0.515,-0.290
2.553,-0.525,-0.305
2.556,-0.515,-0.305
2.558,-0.525,-0.295
2.561,-0.505,-0.280
2.564,-0.500,-0.290
2.567,-0.495,-0.285
2.569,-0.480,-0.265
2.572,-0.480,-0.265
2.575,-0.490,-0.275
2.578,-0.495,-0.290
2.581,-0.495,-0.290
2.583,-0.495,-0.300
2.586,-0.505,-0.300
2.589,-0.500,-0.295
2.592,-0.510,-0.300
2.594,-0.495,-0.280
2.597,-0.485,-0.275
2.600,-0.480,-0.275
2.603,-0.470,-0.265
2.606,-0.470,-0.270
2.608,-0.465,-0.285
2.611,-0.465,-0.300
2.614,-0.470,-0.300
2.617,-0.475,-0.300
2.619,-0.465,-0.320
2.622,-0.470,-0.310
2.625,-0.460,-0.295
2.628,-0.450,-0.295
2.631,-0.445,-0.280
2.633,-0.445,-0.285
2.636,-0.425,-0.280
2.639,-0.425,-0.280
2.642,-0.425,-0.290
2.644,-0.435,-0.300
2.647,-0.430,-0.305
2.650,-0.445,-0.305
2.653,-0.425,-0.300
2.656,-0.425,-0.305
2.658,-0.415,-0.315
2.661,-0.415,-0.300
2.664,-0.410,-0.305
2.667,-0.395,-0.295
2.669,-0.375,-0.285
2.672,-0.380,-0.295
2.675,-0.375,-0.300
2.678,-0.380,-0.315
2.681,-0.370,-0.320
2.683,-0.385,-0.315
2.686,-0.380,-0.325
2.689,-0.395,-0.315
2.692,-0.390,-0.310
2.694,-0.385,-0.315
2.697,-0.380,-0.300
2.700,-0.380,-0.300
2.703,-0.365,-0.300
2.706,-0.360,-0.305
2.708,-0.360,-0.305
2.711,-0.375,-0.325
2.714,-0.370,-0.320
2.717,-0.380,-0.330
2.719,-0.395,-0.330
2.722,-0.385,-0.330
2.725,-0.390,-0.325
2.728,-0.395,-0.320
2.731,-0.400,-0.300
2.733,-0.410,-0.300
2.736,-0.410,-0.290
2.739,-0.415,-0.305
2.742,-0.455,-0.290
2.744,-0.475,-0.305
2.747,-0.485,-0.300
2.750,-0.500,-0.305
2.753,-0.510,-0.315
2.756,-0.530,-0.305
2.758,-0.550,-0.290
2.761,-0.555,-0.280
2.764,-0.555,-0.285
2.767,-0.580,-0.265
2.769,-0.570,-0.260
2.772,-0.580,-0.270
2.775,-0.600,-0.275
2.778,-0.605,-0.285
2.781,-0.635,-0.295
2.783,-0.645,-0.295
2.786,-0.645,-0.290
2.789,-0.660,-0.295
2.792,-0.650,-0.275
2.794,-0.650,-0.270
2.797,-0.655,-0.265
2.800,-0.635,-0.270
2.803,-0.635,-0.270
2.806,-0.645,-0.270
2.808,-0.655,-0.285
2.811,-0.660,-0.285
2.814,-0.650,-0.300
2.817,-0.670,-0.305
2.819,-0.660,-0.310
2.822,-0.655,-0.290
2.825,-0.660,-0.285
2.828,-0.650,-0.280
2.831,-0.655,-0.270
2.833,-0.645,-0.265
2.836,-0.635,-0.270
2.839,-0.630,-0.275
2.842,-0.625,-0.285
2.844,-0.630,-0.285
2.847,-0.635,-0.290
2.850,-0.635,-0.305
2.853,-0.630,-0.290
2.856,-0.630,-0.290
2.858,-0.630,-0.285
2.861,-0.610,-0.280
2.864,-0.615,-0.285
2.867,-0.610,-0.265
2.869,-0.595,-0.280
2.872,-0.590,-0.290
2.875,-0.590,-0.285
2.878,-0.600,-0.290
2.881,-0.595,-0.310
2.883,-0.600,-0.310
2.886,-0.605,-0.310
2.889,-0.605,-0.300
2.892,-0.605,-0.295
2.894,-0.595,-0.300
2.897,-0.590,-0.290
2.900,-0.580,-0.285
2.903,-0.585,-0.285
2.906,-0.580,-0.290
2.908,-0.590,-0.305
2.911,-0.600,-0.315
2.914,-0.595,-0.305
2.917,-0.605,-0.320
2.919,-0.610,-0.325
2.922,-0.605,-0.305
2.925,-0.610,-0.310
2.928,-0.610,-0.295
2.931,-0.595,-0.295
2.933,-0.590,-0.280
2.936,-0.600,-0.295
2.939,-0.605,-0.310
2.942,-0.610,-0.310
2.944,-0.625,-0.315
2.947,-0.615,-0.330
2.950,-0.630,-0.330
2.953,-0.635,-0.315
2.956,-0.635,-0.315
2.958,-0.630,-0.305
2.961,-0.620,-0.300
2.964,-0.630,-0.300
2.967,-0.615,-0.285
2.969,-0.620,-0.300
2.972,-0.610,-0.305
2.975,-0.615,-0.315
2.978,-0.625,-0.320
2.981,-0.625,-0.325
2.983,-0.645,-0.315
2.986,-0.665,-0.330
2.989,-0.645,-0.315
2.992,-0.640,-0.325
2.994,-0.640,-0.325
2.997,-0.630,-0.305
3.000,-0.625,-0.290
3.003,-0.620,-0.300
3.006,-0.615,-0.310
3.008,-0.635,-0.315
3.011,-0.630,-0.320
3.014,-0.640,-0.330
3.017,-0.640,-0.335
3.019,-0.650,-0.325
3.022,-0.650,-0.330
3.025,-0.635,-0.310
3.028,-0.640,-0.315
3.031,-0.635,-0.305
3.033,-0.640,-0.290
3.036,-0.630,-0.310
3.039,-0.630,-0.305
3.042,-0.630,-0.315
3.044,-0.640,-0.325
3.047,-0.645,-0.340
3.050,-0.650,-0.330
3.053,-0.650,-0.330
3.056,-0.660,-0.325
3.058,-0.655,-0.315
3.061,-0.655,-0.315
3.064,-0.640,-0.300
3.067,-0.645,-0.305
3.069,-0.635,-0.315
3.072,-0.635,-0.320
3.075,-0.640,-0.320
3.078,-0.650,-0.330
3.081,-0.655,-0.330
3.083,-0.650,-0.335
3.086,-0.655,-0.330
3.089,-0.640,-0.335
3.092,-0.660,-0.335
3.094,-0.660,-0.315
3.097,-0.640,-0.315
3.100,-0.625,-0.300
3.103,-0.630,-0.320
3.106,-0.630,-0.315
3.108,-0.635,-0.320
3.111,-0.660,-0.325
3.114,-0.640,-0.330
3.117,-0.655,-0.335
3.119,-0.645,-0.320
3.122,-0.635,-0.305
3.125,-0.630,-0.285
3.128,-0.640,-0.280
3.131,-0.610,-0.275
3.133,-0.610,-0.255
3.136,-0.605,-0.255
3.139,-0.590,-0.255
3.142,-0.570,-0.265
3.144,-0.565,-0.265
3.147,-0.580,-0.280
3.150,-0.580,-0.300
3.153,-0.565,-0.300
3.156,-0.550,-0.295
3.158,-0.550,-0.305
3.161,-0.535,-0.295
3.164,-0.510,-0.310
3.167,-0.505,-0.310
3.169,-0.495,-0.310
3.172,-0.490,-0.310
3.175,-0.485,-0.315
3.178,-0.490,-0.315
3.181,-0.505,-0.320
3.183,-0.505,-0.335
3.186,-0.530,-0.325
3.189,-0.530,-0.315
3.192,-0.530,-0.310
3.194,-0.530,-0.310
3.197,-0.515,-0.290
3.200,-0.500,-0.295
3.203,-0.500,-0.300
3.206,-0.500,-0.305
3.208,-0.510,-0.315
3.211,-0.530,-0.330
3.214,-0.540,-0.340
3.217,-0.565,-0.350
3.219,-0.580,-0.345
3.222,-0.590,-0.340
3.225,-0.600,-0.325
3.228,-0.620,-0.335
3.231,-0.610,-0.325
3.233,-0.610,-0.320
3.236,-0.605,-0.330
3.239,-0.615,-0.325
3.242,-0.610,-0.345
3.244,-0.625,-0.350
3.247,-0.630,-0.345
3.250,-0.640,-0.360
3.253,-0.640,-0.355
3.256,-0.640,-0.350
3.258,-0.630,-0.340
3.261,-0.630,-0.330
3.264,-0.640,-0.325
3.267,-0.625,-0.320
3.269,-0.620,-0.325
3.272,-0.625,-0.340
3.275,-0.630,-0.340
3.278,-0.635,-0.340
3.281,-0.635,-0.340
3.283,-0.650,-0.350
3.286,-0.635,-0.350
3.289,-0.645,-0.345
3.292,-0.635,-0.330
3.294,-0.635,-0.330
3.297,-0.615,-0.315
3.300,-0.610,-0.310
3.303,-0.610,-0.315
3.306,-0.600,-0.320
3.308,-0.595,-0.330
3.311,-0.605,-0.340
3.314,-0.595,-0.340
3.317,-0.605,-0.320
3.319,-0.595,-0.315
3.322,-0.590,-0.300
3.325,-0.585,-0.275
3.328,-0.575,-0.270
3.331,-0.545,-0.265
3.333,-0.530,-0.290
3.336,-0.520,-0.365
3.339,-0.495,-0.420
3.342,-0.445,-0.510
3.344,-0.365,-0.610
3.347,-0.235,-0.710
3.350,-0.035,-0.770
3.353,0.225,-0.815
3.356,0.575,-0.810
3.358,0.950,-0.765
3.361,1.305,-0.705
3.364,1.595,-0.615
3.367,1.745,-0.530
3.369,1.695,-0.460
3.372,1.430,-0.415
3.375,0.960,-0.375
3.378,0.340,-0.380
3.381,-0.280,-0.380
3.383,-0.830,-0.400
3.386,-1.220,-0.415
3.389,-1.375,-0.425
3.392,-1.320,-0.415
3.394,-1.120,-0.385
3.397,-0.900,-0.350
3.400,-0.700,-0.305
3.403,-0.550,-0.275
3.406,-0.475,-0.255
3.408,-0.445,-0.245
3.411,-0.445,-0.265
3.414,-0.480,-0.280
3.417,-0.510,-0.285
3.419,-0.545,-0.285
3.422,-0.550,-0.280
3.425,-0.550,-0.265
3.428,-0.545,-0.255
3.431,-0.535,-0.255
3.433,-0.525,-0.260
3.436,-0.510,-0.260
3.439,-0.505,-0.255
3.442,-0.515,-0.265
3.444,-0.520,-0.270
3.447,-0.525,-0.290
3.450,-0.530,-0.280
3.453,-0.535,-0.275
3.456,-0.530,-0.265
3.458,-0.530,-0.270
3.461,-0.515,-0.265
3.464,-0.515,-0.260
3.467,-0.505,-0.250
3.469,-0.505,-0.260
3.472,-0.500,-0.265
3.475,-0.500,-0.280
3.478,-0.520,-0.280
3.481,-0.515,-0.285
3.483,-0.520,-0.280
3.486,-0.535,-0.295
3.489,-0.530,-0.280
3.492,-0.515,-0.280
3.494,-0.505,-0.250
3.497,-0.500,-0.255
3.500,-0.500,-0.245
3.503,-0.495,-0.265
3.506,-0.495,-0.270
3.508,-0.495,-0.275
3.511,-0.510,-0.280
3.514,-0.505,-0.285
3.517,-0.515,-0.300
3.519,-0.515,-0.290
3.522,-0.515,-0.280
3.525,-0.515,-0.270
3.528,-0.500,-0.270
3.531,-0.495,-0.265
3.533,-0.490,-0.255
3.536,-0.485,-0.260
3.539,-0.485,-0.265
3.542,-0.495,-0.280
3.544,-0.495,-0.275
3.547,-0.505,-0.295
3.550,-0.520,-0.290
3.553,-0.510,-0.285
3.556,-0.520,-0.285
3.558,-0.510,-0.295
3.561,-0.500,-0.280
3.564,-0.490,-0.270
3.567,-0.490,-0.260
3.569,-0.500,-0.265
3.572,-0.480,-0.285
3.575,-0.480,-0.275
3.578,-0.480,-0.290
3.581,-0.480,-0.295
3.583,-0.490,-0.305
3.586,-0.500,-0.300
3.589,-0.495,-0.285
3.592,-0.490,-0.275
3.594,-0.480,-0.270
3.597,-0.470,-0.270
3.600,-0.460,-0.265
3.603,-0.450,-0.275
3.606,-0.455,-0.280
3.608,-0.450,-0.290
3.611,-0.450,-0.295
3.614,-0.470,-0.295
3.617,-0.475,-0.305
3.619,-0.475,-0.305
3.622,-0.465,-0.305
3.625,-0.460,-0.280
3.628,-0.455,-0.280
3.631,-0.430,-0.260
3.633,-0.425,-0.270
3.636,-0.415,-0.270
3.639,-0.415,-0.270
3.642,-0.425,-0.280
3.644,-0.425,-0.285
3.647,-0.425,-0.305
3.650,-0.430,-0.300
3.653,-0.425,-0.300
3.656,-0.430,-0.295
3.658,-0.415,-0.285
3.661,-0.415,-0.275
3.664,-0.405,-0.275
3.667,-0.405,-0.270
3.669,-0.395,-0.270
3.672,-0.390,-0.270
3.675,-0.395,-0.290
3.678,-0.400,-0.300
3.681,-0.395,-0.300
3.683,-0.405,-0.305
3.686,-0.405,-0.305
3.689,-0.405,-0.295
3.692,-0.415,-0.285
3.694,-0.400,-0.300
3.697,-0.380,-0.285
3.700,-0.370,-0.280
3.703,-0.370,-0.280
3.706,-0.380,-0.300
3.708,-0.380,-0.295
3.711,-0.380,-0.300
3.714,-0.370,-0.315
3.717,-0.380,-0.325
3.719,-0.380,-0.320
3.722,-0.370,-0.310
3.725,-0.385,-0.315
3.728,-0.380,-0.295
3.731,-0.370,-0.285
3.733,-0.360,-0.275
3.736,-0.370,-0.295
3.739,-0.365,-0.290
3.742,-0.385,-0.295
3.744,-0.400,-0.300
3.747,-0.435,-0.315
3.750,-0.445,-0.305
3.753,-0.460,-0.300
3.756,-0.475,-0.285
3.758,-0.490,-0.290
3.761,-0.490,-0.280
3.764,-0.505,-0.275
3.767,-0.510,-0.255
3.769,-0.510,-0.265
3.772,-0.525,-0.260
3.775,-0.535,-0.265
3.778,-0.555,-0.275
3.781,-0.570,-0.285
3.783,-0.575,-0.285
3.786,-0.595,-0.280
3.789,-0.590,-0.270
3.792,-0.605,-0.270
3.794,-0.600,-0.255
3.797,-0.600,-0.260
3.800,-0.615,-0.245
3.803,-0.590,-0.250
3.806,-0.600,-0.265
3.808,-0.595,-0.275
3.811,-0.600,-0.265
3.814,-0.620,-0.265
3.817,-0.620,-0.270
3.819,-0.620,-0.270
3.822,-0.610,-0.265
3.825,-0.610,-0.255
3.828,-0.600,-0.260
3.831,-0.605,-0.250
3.833,-0.595,-0.245
3.836,-0.590,-0.255
3.839,-0.585,-0.250
3.842,-0.585,-0.265
3.844,-0.590,-0.265
3.847,-0.590,-0.265
3.850,-0.595,-0.260
3.853,-0.610,-0.275
3.856,-0.600,-0.270
3.858,-0.595,-0.255
3.861,-0.585,-0.255
3.864,-0.580,-0.245
3.867,-0.570,-0.255
3.869,-0.575,-0.245
3.872,-0.575,-0.250
3.875,-0.565,-0.260
3.878,-0.580,-0.265
3.881,-0.575,-0.275
3.883,-0.575,-0.275
3.886,-0.575,-0.280
3.889,-0.570,-0.260
3.892,-0.585,-0.260
3.894,-0.555,-0.265
3.897,-0.560,-0.245
3.900,-0.555,-0.245
3.903,-0.550,-0.250
3.906,-0.560,-0.260
3.908,-0.555,-0.270
3.911,-0.555,-0.275
3.914,-0.565,-0.280
3.917,-0.575,-0.280
3.919,-0.560,-0.285
3.922,-0.565,-0.285
3.925,-0.560,-0.275
3.928,-0.565,-0.265
3.931,-0.555,-0.265
3.933,-0.555,-0.260
3.936,-0.550,-0.265
3.939,-0.550,-0.270
3.942,-0.555,-0.270
3.944,-0.565,-0.280
3.947,-0.570,-0.285
3.950,-0.580,-0.295
3.953,-0.585,-0.295
3.956,-0.585,-0.280
3.958,-0.600,-0.285
3.961,-0.605,-0.285
3.964,-0.590,-0.280
3.967,-0.585,-0.270
3.969,-0.590,-0.270
3.972,-0.585,-0.285
3.975,-0.590,-0.280
3.978,-0.590,-0.285
3.981,-0.595,-0.290
3.983,-0.605,-0.290
3.986,-0.620,-0.300
3.989,-0.605,-0.290
3.992,-0.615,-0.280
3.994,-0.605,-0.280
3.997,-0.600,-0.270
4.000,-0.585,-0.260
4.003,-0.595,-0.265
4.006,-0.600,-0.285
4.008,-0.595,-0.280
4.011,-0.605,-0.285
4.014,-0.620,-0.300
4.017,-0.620,-0.300
4.019,-0.625,-0.300
4.022,-0.620,-0.295
4.025,-0.620,-0.290
4.028,-0.615,-0.285
4.031,-0.605,-0.280
4.033,-0.605,-0.270
4.036,-0.605,-0.280
4.039,-0.605,-0.295
4.042,-0.610,-0.295
4.044,-0.610,-0.290
4.047,-0.615,-0.300
4.050,-0.615,-0.305
4.053,-0.630,-0.305
4.056,-0.635,-0.295
4.058,-0.635,-0.300
4.061,-0.620,-0.290
4.064,-0.610,-0.275
4.067,-0.605,-0.265
4.069,-0.600,-0.275
4.072,-0.610,-0.285
4.075,-0.605,-0.295
4.078,-0.620,-0.290
4.081,-0.625,-0.300
4.083,-0.625,-0.300
4.086,-0.630,-0.295
4.089,-0.625,-0.305
4.092,-0.630,-0.290
4.094,-0.625,-0.275
4.097,-0.605,-0.280
4.100,-0.610,-0.270
4.103,-0.600,-0.270
4.106,-0.610,-0.270
4.108,-0.600,-0.285
4.111,-0.620,-0.290
4.114,-0.610,-0.295
4.117,-0.625,-0.295
4.119,-0.620,-0.300
4.122,-0.615,-0.295
4.125,-0.620,-0.290
4.128,-0.620,-0.280
4.131,-0.610,-0.280
4.133,-0.600,-0.270
4.136,-0.610,-0.275
4.139,-0.595,-0.270
4.142,-0.600,-0.290
4.144,-0.610,-0.305
4.147,-0.610,-0.290
4.150,-0.620,-0.305
4.153,-0.630,-0.305
4.156,-0.615,-0.305
4.158,-0.630,-0.295
4.161,-0.625,-0.285
4.164,-0.620,-0.290
4.167,-0.615,-0.270
4.169,-0.605,-0.285
4.172,-0.600,-0.285
4.175,-0.595,-0.290
4.178,-0.615,-0.290
4.181,-0.615,-0.295
4.183,-0.620,-0.305
4.186,-0.615,-0.305
4.189,-0.620,-0.280
4.192,-0.620,-0.285
4.194,-0.615,-0.275
4.197,-0.605,-0.275
4.200,-0.600,-0.265
4.203,-0.595,-0.275
4.206,-0.610,-0.285
4.208,-0.615,-0.290
4.211,-0.610,-0.295
4.214,-0.620,-0.290
4.217,-0.625,-0.300
4.219,-0.635,-0.305
4.222,-0.620,-0.290
4.225,-0.605,-0.285
4.228,-0.600,-0.275
4.231,-0.610,-0.265
4.233,-0.600,-0.260
4.236,-0.600,-0.270
4.239,-0.605,-0.270
4.242,-0.595,-0.280
4.244,-0.615,-0.285
4.247,-0.620,-0.290
4.250,-0.625,-0.290
4.253,-0.625,-0.285
4.256,-0.610,-0.295
4.258,-0.610,-0.275
4.261,-0.600,-0.265
4.264,-0.600,-0.265
4.267,-0.590,-0.255
4.269,-0.590,-0.265
4.272,-0.595,-0.270
4.275,-0.595,-0.265
4.278,-0.605,-0.275
4.281,-0.615,-0.280
4.283,-0.625,-0.295
4.286,-0.625,-0.280
4.289,-0.635,-0.265
4.292,-0.620,-0.255
4.294,-0.615,-0.245
4.297,-0.600,-0.235
4.300,-0.590,-0.220
4.303,-0.580,-0.215
4.306,-0.585,-0.205
4.308,-0.570,-0.205
4.311,-0.565,-0.210
4.314,-0.580,-0.215
4.317,-0.565,-0.220
4.319,-0.550,-0.225
4.322,-0.540,-0.230
4.325,-0.530,-0.235
4.328,-0.500,-0.235
4.331,-0.485,-0.255
4.333,-0.480,-0.255
4.336,-0.460,-0.260
4.339,-0.465,-0.255
4.342,-0.460,-0.260
4.344,-0.460,-0.265
4.347,-0.470,-0.255
4.350,-0.490,-0.265
4.353,-0.500,-0.270
4.356,-0.490,-0.270
4.358,-0.495,-0.260
4.361,-0.485,-0.255
4.364,-0.485,-0.250
4.367,-0.470,-0.235
4.369,-0.460,-0.230
4.372,-0.470,-0.260
4.375,-0.470,-0.255
4.378,-0.500,-0.265
4.381,-0.515,-0.285
4.383,-0.545,-0.290
4.386,-0.560,-0.290
4.389,-0.575,-0.280
4.392,-0.580,-0.285
4.394,-0.590,-0.275
4.397,-0.585,-0.270
4.400,-0.575,-0.265
4.403,-0.570,-0.260
4.406,-0.580,-0.270
4.408,-0.590,-0.275
4.411,-0.585,-0.280
4.414,-0.595,-0.280
4.417,-0.610,-0.295
4.419,-0.620,-0.295
4.422,-0.630,-0.285
4.425,-0.620,-0.285
4.428,-0.615,-0.270
4.431,-0.620,-0.260
4.433,-0.615,-0.260
4.436,-0.590,-0.255
4.439,-0.590,-0.280
4.442,-0.590,-0.285
4.444,-0.600,-0.290
4.447,-0.610,-0.285
4.450,-0.625,-0.300
4.453,-0.620,-0.290
4.456,-0.630,-0.285
4.458,-0.600,-0.270
4.461,-0.600,-0.270
4.464,-0.605,-0.265
4.467,-0.590,-0.255
4.469,-0.580,-0.260
4.472,-0.595,-0.260
4.475,-0.585,-0.265
4.478,-0.580,-0.270
4.481,-0.575,-0.260
4.483,-0.580,-0.245
4.486,-0.570,-0.235
4.489,-0.555,-0.230
4.492,-0.550,-0.240
4.494,-0.535,-0.250
4.497,-0.520,-0.285
4.500,-0.505,-0.335
4.503,-0.465,-0.405
4.506,-0.415,-0.495
4.508,-0.330,-0.585
4.511,-0.200,-0.675
4.514,-0.015,-0.735
4.517,0.225,-0.760
4.519,0.565,-0.735
4.522,0.940,-0.660
4.525,1.295,-0.565
4.528,1.545,-0.465
4.531,1.580,-0.355
4.533,1.320,-0.290
4.536,0.785,-0.250
4.539,0.145,-0.270
4.542,-0.495,-0.295
4.544,-1.135,-0.345
4.547,-1.350,-0.355
4.550,-1.310,-0.340
4.553,-1.100,-0.305
4.556,-0.840,-0.260
4.558,-0.595,-0.215
4.561,-0.445,-0.190
4.564,-0.380,-0.180
4.567,-0.380,-0.190
4.569,-0.430,-0.205
4.572,-0.470,-0.190
4.575,-0.515,-0.200
4.578,-0.545,-0.220
4.581,-0.545,-0.215
4.583,-0.545,-0.220
4.586,-0.540,-0.215
4.589,-0.525,-0.210
4.592,-0.525,-0.210
4.594,-0.510,-0.195
4.597,-0.520,-0.195
4.600,-0.515,-0.185
4.603,-0.505,-0.195
4.606,-0.505,-0.200
4.608,-0.515,-0.200
4.611,-0.515,-0.200
4.614,-0.510,-0.215
4.617,-0.520,-0.220
4.619,-0.525,-0.225
4.622,-0.520,-0.215
4.625,-0.515,-0.210
4.628,-0.510,-0.195
4.631,-0.505,-0.190
4.633,-0.500,-0.190
4.636,-0.485,-0.190
4.639,-0.490,-0.200
4.642,-0.490,-0.200
4.644,-0.490,-0.210
4.647,-0.500,-0.225
4.650,-0.510,-0.205
4.653,-0.515,-0.215
4.656,-0.510,-0.210
4.658,-0.505,-0.205
4.661,-0.500,-0.205
4.664,-0.505,-0.200
4.667,-0.500,-0.195
4.669,-0.500,-0.200
4.672,-0.495,-0.205
4.675,-0.510,-0.210
4.678,-0.505,-0.220
4.681,-0.520,-0.230
4.683,-0.520,-0.225
4.686,-0.505,-0.230
4.689,-0.500,-0.230
4.692,-0.500,-0.220
4.694,-0.485,-0.215
4.697,-0.490,-0.200
4.700,-0.475,-0.210
4.703,-0.490,-0.215
4.706,-0.465,-0.215
4.708,-0.480,-0.225
4.711,-0.485,-0.220
4.714,-0.495,-0.235
4.717,-0.500,-0.230
4.719,-0.500,-0.245
4.722,-0.510,-0.230
4.725,-0.500,-0.230
4.728,-0.495,-0.220
4.731,-0.495,-0.215
4.733,-0.480,-0.200
4.736,-0.470,-0.210
4.739,-0.455,-0.220
4.742,-0.470,-0.230
4.744,-0.470,-0.225
4.747,-0.475,-0.250
4.750,-0.470,-0.240
4.753,-0.480,-0.240
4.756,-0.485,-0.235
4.758,-0.465,-0.230
4.761,-0.470,-0.235
4.764,-0.455,-0.225
4.767,-0.450,-0.210
4.769,-0.435,-0.220
4.772,-0.450,-0.230
4.775,-0.450,-0.225
4.778,-0.445,-0.240
4.781,-0.460,-0.240
4.783,-0.450,-0.250
4.786,-0.455,-0.245
4.789,-0.450,-0.245
4.792,-0.445,-0.240
4.794,-0.440,-0.225
4.797,-0.445,-0.225
4.800,-0.425,-0.220
4.803,-0.425,-0.215
4.806,-0.410,-0.230
4.808,-0.430,-0.240
4.811,-0.430,-0.240
4.814,-0.430,-0.255
4.817,-0.420,-0.260
4.819,-0.425,-0.265
4.822,-0.430,-0.250
4.825,-0.425,-0.250
4.828,-0.425,-0.245
4.831,-0.430,-0.240
4.833,-0.420,-0.235
4.836,-0.405,-0.240
4.839,-0.410,-0.240
4.842,-0.420,-0.245
4.844,-0.420,-0.250
4.847,-0.430,-0.260
4.850,-0.435,-0.260
4.853,-0.445,-0.270
4.856,-0.445,-0.260
4.858,-0.445,-0.255
4.861,-0.445,-0.240
4.864,-0.445,-0.240
4.867,-0.430,-0.230
4.869,-0.430,-0.240
4.872,-0.425,-0.255
4.875,-0.425,-0.240
4.878,-0.420,-0.260
4.881,-0.430,-0.260
4.883,-0.420,-0.265
4.886,-0.430,-0.265
4.889,-0.430,-0.255
4.892,-0.435,-0.245
4.894,-0.430,-0.245
4.897,-0.425,-0.230
4.900,-0.425,-0.220
4.903,-0.430,-0.220
4.906,-0.450,-0.225
4.908,-0.460,-0.225
4.911,-0.470,-0.230
4.914,-0.495,-0.235
4.917,-0.500,-0.235
4.919,-0.520,-0.230
4.922,-0.535,-0.215
4.925,-0.535,-0.220
4.928,-0.555,-0.210
4.931,-0.570,-0.195
4.933,-0.565,-0.180
4.936,-0.560,-0.190
4.939,-0.565,-0.200
4.942,-0.575,-0.200
4.944,-0.585,-0.200
4.947,-0.590,-0.205
4.950,-0.605,-0.210
4.953,-0.615,-0.210
4.956,-0.605,-0.220
4.958,-0.620,-0.205
4.961,-0.620,-0.195
4.964,-0.615,-0.190
4.967,-0.595,-0.185
4.969,-0.595,-0.180
4.972,-0.600,-0.190
4.975,-0.600,-0.190
4.978,-0.605,-0.210
4.981,-0.625,-0.210
4.983,-0.630,-0.220
4.986,-0.630,-0.210
4.989,-0.615,-0.200
4.992,-0.615,-0.205
4.994,-0.615,-0.195
4.997,-0.610,-0.185
5.000,-0.605,-0.195
5.003,-0.580,-0.180
5.006,-0.580,-0.190
5.008,-0.590,-0.200
5.011,-0.600,-0.200
5.014,-0.600,-0.210
5.017,-0.595,-0.220
5.019,-0.595,-0.215
5.022,-0.590,-0.200
5.025,-0.600,-0.210
5.028,-0.590,-0.190
5.031,-0.585,-0.195
5.033,-0.585,-0.185
5.036,-0.560,-0.195
5.039,-0.580,-0.200
5.042,-0.570,-0.195
5.044,-0.580,-0.195
5.047,-0.590,-0.205
5.050,-0.600,-0.220
5.053,-0.595,-0.215
5.056,-0.595,-0.225
5.058,-0.595,-0.205
5.061,-0.585,-0.205
5.064,-0.570,-0.200
5.067,-0.565,-0.185
5.069,-0.565,-0.190
5.072,-0.565,-0.195
5.075,-0.575,-0.200
5.078,-0.565,-0.215
5.081,-0.570,-0.220
5.083,-0.585,-0.225
5.086,-0.595,-0.225
5.089,-0.605,-0.220
5.092,-0.605,-0.225
5.094,-0.585,-0.210
5.097,-0.595,-0.205
5.100,-0.585,-0.200
5.103,-0.585,-0.190
5.106,-0.585,-0.210
5.108,-0.600,-0.205
5.111,-0.590,-0.210
5.114,-0.595,-0.220
5.117,-0.605,-0.220
5.119,-0.620,-0.230
5.122,-0.620,-0.225
5.125,-0.625,-0.220
5.128,-0.630,-0.210
5.131,-0.620,-0.215
5.133,-0.600,-0.200
5.136,-0.600,-0.215
5.139,-0.605,-0.190
5.142,-0.610,-0.200
5.144,-0.620,-0.220
5.147,-0.630,-0.220
5.150,-0.635,-0.235
5.153,-0.655,-0.240
5.156,-0.635,-0.220
5.158,-0.645,-0.220
5.161,-0.635,-0.210
5.164,-0.645,-0.195
5.167,-0.645,-0.200
5.169,-0.640,-0.205
5.172,-0.620,-0.210
5.175,-0.630,-0.215
5.178,-0.635,-0.225
5.181,-0.640,-0.225
5.183,-0.645,-0.225
5.186,-0.645,-0.240
5.189,-0.655,-0.230
5.192,-0.650,-0.220
5.194,-0.645,-0.205
5.197,-0.650,-0.210
5.200,-0.640,-0.210
5.203,-0.635,-0.195
5.206,-0.630,-0.200
5.208,-0.635,-0.215
5.211,-0.640,-0.220
5.214,-0.645,-0.230
5.217,-0.660,-0.235
5.219,-0.660,-0.230
5.222,-0.655,-0.225
5.225,-0.655,-0.220
5.228,-0.650,-0.215
5.231,-0.645,-0.210
5.233,-0.635,-0.195
5.236,-0.630,-0.200
5.239,-0.630,-0.200
5.242,-0.645,-0.210
5.244,-0.635,-0.215
5.247,-0.655,-0.225
5.250,-0.670,-0.215
5.253,-0.670,-0.220
5.256,-0.680,-0.215
5.258,-0.655,-0.200
5.261,-0.665,-0.185
5.264,-0.655,-0.170
5.267,-0.645,-0.155
5.269,-0.630,-0.155
5.272,-0.630,-0.170
5.275,-0.620,-0.165
5.278,-0.620,-0.165
5.281,-0.630,-0.155
5.283,-0.625,-0.170
5.286,-0.615,-0.175
5.289,-0.610,-0.160
5.292,-0.600,-0.175
5.294,-0.580,-0.185
5.297,-0.565,-0.185
5.300,-0.560,-0.200
5.303,-0.545,-0.185
5.306,-0.535,-0.205
5.308,-0.525,-0.205
5.311,-0.515,-0.210
5.314,-0.520,-0.210
5.317,-0.525,-0.210
5.319,-0.525,-0.215
5.322,-0.540,-0.215
5.325,-0.550,-0.210
5.328,-0.550,-0.210
5.331,-0.540,-0.195
5.333,-0.555,-0.195
5.336,-0.530,-0.180
5.339,-0.530,-0.200
5.342,-0.540,-0.215
5.344,-0.535,-0.220
5.347,-0.555,-0.225
5.350,-0.580,-0.235
5.353,-0.605,-0.235
5.356,-0.625,-0.250
5.358,-0.630,-0.250
5.361,-0.640,-0.235
5.364,-0.650,-0.220
5.367,-0.635,-0.230
5.369,-0.635,-0.225
5.372,-0.645,-0.225
5.375,-0.625,-0.225
5.378,-0.635,-0.235
5.381,-0.650,-0.240
5.383,-0.665,-0.245
5.386,-0.665,-0.255
5.389,-0.670,-0.240
5.392,-0.670,-0.240
5.394,-0.670,-0.225
5.397,-0.670,-0.215
5.400,-0.655,-0.215
5.403,-0.665,-0.210
5.406,-0.650,-0.220
5.408,-0.645,-0.225
5.411,-0.665,-0.220
5.414,-0.675,-0.245
5.417,-0.660,-0.245
5.419,-0.675,-0.235
5.422,-0.680,-0.225
5.425,-0.680,-0.230
5.428,-0.665,-0.230
5.431,-0.665,-0.220
5.433,-0.650,-0.215
5.436,-0.635,-0.215
5.439,-0.635,-0.220
5.442,-0.625,-0.210
5.444,-0.630,-0.220
5.447,-0.630,-0.210
5.450,-0.625,-0.205
5.453,-0.630,-0.200
5.456,-0.610,-0.200
5.458,-0.610,-0.220
5.461,-0.610,-0.255
5.464,-0.575,-0.295
5.467,-0.540,-0.360
5.469,-0.470,-0.425
5.472,-0.385,-0.525
5.475,-0.235,-0.595
5.478,-0.030,-0.635
5.481,0.280,-0.650
5.483,0.620,-0.615
5.486,0.990,-0.555
5.489,1.335,-0.475
5.492,1.585,-0.390
5.494,1.670,-0.310
5.497,1.555,-0.245
5.500,1.210,-0.190
5.503,0.665,-0.170
5.506,0.025,-0.185
5.508,-0.615,-0.210
5.511,-1.170,-0.245
5.514,-1.400,-0.260
5.517,-1.365,-0.275
5.519,-1.170,-0.270
5.522,-0.920,-0.235
5.525,-0.700,-0.220
5.528,-0.540,-0.180
5.531,-0.455,-0.155
5.533,-0.445,-0.155
5.536,-0.470,-0.155
5.539,-0.515,-0.165
5.542,-0.555,-0.170
5.544,-0.585,-0.180
5.547,-0.595,-0.185
5.550,-0.595,-0.200
5.553,-0.585,-0.200
5.556,-0.595,-0.190
5.558,-0.565,-0.185
5.561,-0.555,-0.180
5.564,-0.550,-0.180
5.567,-0.545,-0.170
5.569,-0.540,-0.175
5.572,-0.550,-0.180
5.575,-0.550,-0.180
5.578,-0.550,-0.190
5.581,-0.565,-0.195
5.583,-0.560,-0.195
5.586,-0.575,-0.210
5.589,-0.570,-0.195
5.592,-0.575,-0.190
5.594,-0.565,-0.195
5.597,-0.555,-0.195
5.600,-0.550,-0.180
5.603,-0.540,-0.175
5.606,-0.525,-0.185
5.608,-0.535,-0.185
5.611,-0.550,-0.200
5.614,-0.540,-0.200
5.617,-0.540,-0.200
5.619,-0.550,-0.210
5.622,-0.550,-0.210
5.625,-0.545,-0.200
5.628,-0.545,-0.195
5.631,-0.540,-0.190
5.633,-0.530,-0.190
5.636,-0.520,-0.185
5.639,-0.520,-0.195
5.642,-0.525,-0.195
5.644,-0.540,-0.200
5.647,-0.540,-0.220
5.650,-0.550,-0.220
5.653,-0.555,-0.215
5.656,-0.560,-0.210
5.658,-0.550,-0.215
5.661,-0.560,-0.210
5.664,-0.550,-0.205
5.667,-0.535,-0.195
5.669,-0.525,-0.200
5.672,-0.520,-0.210
5.675,-0.530,-0.205
5.678,-0.530,-0.215
5.681,-0.535,-0.220
5.683,-0.530,-0.225
5.686,-0.545,-0.220
5.689,-0.535,-0.220
5.692,-0.540,-0.220
5.694,-0.530,-0.225
5.697,-0.520,-0.205
5.700,-0.510,-0.200
5.703,-0.510,-0.195
5.706,-0.505,-0.210
5.708,-0.505,-0.210
5.711,-0.510,-0.215
5.714,-0.520,-0.225
5.717,-0.520,-0.235
5.719,-0.525,-0.230
5.722,-0.530,-0.230
5.725,-0.520,-0.225
5.728,-0.505,-0.220
5.731,-0.515,-0.215
5.733,-0.510,-0.210
5.736,-0.500,-0.210
5.739,-0.495,-0.220
5.742,-0.495,-0.230
5.744,-0.500,-0.225
5.747,-0.495,-0.240
5.750,-0.500,-0.245
5.753,-0.500,-0.235
5.756,-0.500,-0.230
5.758,-0.500,-0.235
5.761,-0.485,-0.225
5.764,-0.480,-0.220
5.767,-0.470,-0.220
5.769,-0.460,-0.215
5.772,-0.455,-0.230
5.775,-0.460,-0.230
5.778,-0.465,-0.235
5.781,-0.465,-0.250
5.783,-0.465,-0.250
5.786,-0.475,-0.250
5.789,-0.465,-0.250
5.792,-0.470,-0.235
5.794,-0.460,-0.240
5.797,-0.445,-0.235
5.800,-0.440,-0.230
5.803,-0.435,-0.230
5.806,-0.445,-0.240
5.808,-0.430,-0.240
5.811,-0.440,-0.240
5.814,-0.465,-0.260
5.817,-0.460,-0.255
5.819,-0.455,-0.265
5.822,-0.465,-0.250
5.825,-0.455,-0.250
5.828,-0.455,-0.245
5.831,-0.455,-0.240
5.833,-0.440,-0.240
5.836,-0.440,-0.230
5.839,-0.440,-0.245
5.842,-0.455,-0.240
5.844,-0.470,-0.235
5.847,-0.460,-0.245
5.850,-0.465,-0.250
5.853,-0.470,-0.260
5.856,-0.490,-0.240
5.858,-0.495,-0.235
5.861,-0.500,-0.230
5.864,-0.505,-0.215
5.867,-0.505,-0.210
5.869,-0.495,-0.220
5.872,-0.515,-0.210
5.875,-0.535,-0.220
5.878,-0.540,-0.215
5.881,-0.555,-0.220
5.883,-0.580,-0.225
5.886,-0.595,-0.230
5.889,-0.595,-0.205
5.892,-0.620,-0.215
5.894,-0.625,-0.205
5.897,-0.625,-0.195
5.900,-0.635,-0.205
5.903,-0.625,-0.195
5.906,-0.635,-0.190
5.908,-0.640,-0.200
5.911,-0.650,-0.210
5.914,-0.650,-0.210
5.917,-0.675,-0.210
5.919,-0.685,-0.225
5.922,-0.695,-0.205
5.925,-0.700,-0.215
5.928,-0.690,-0.205
5.931,-0.680,-0.200
5.933,-0.675,-0.185
5.936,-0.670,-0.175
5.939,-0.685,-0.185
5.942,-0.685,-0.200
5.944,-0.685,-0.210
5.947,-0.695,-0.215
5.950,-0.705,-0.220
5.953,-0.700,-0.215
5.956,-0.695,-0.210
5.958,-0.680,-0.205
5.961,-0.680,-0.205
5.964,-0.680,-0.195
5.967,-0.670,-0.200
5.969,-0.650,-0.190
5.972,-0.660,-0.205
5.975,-0.645,-0.205
5.978,-0.645,-0.205
5.981,-0.665,-0.215
5.983,-0.650,-0.220
5.986,-0.660,-0.225
5.989,-0.665,-0.220
5.992,-0.660,-0.215
5.994,-0.645,-0.210
5.997,-0.640,-0.210
6.000,-0.625,-0.210
6.003,-0.620,-0.210
6.006,-0.610,-0.210
6.008,-0.615,-0.210
6.011,-0.620,-0.215
6.014,-0.625,-0.225
6.017,-0.635,-0.235
6.019,-0.645,-0.235
6.022,-0.640,-0.220
6.025,-0.635,-0.210
6.028,-0.640,-0.220
6.031,-0.635,-0.220
6.033,-0.615,-0.205
6.036,-0.615,-0.200
6.039,-0.625,-0.220
6.042,-0.615,-0.210
6.044,-0.615,-0.225
6.047,-0.630,-0.225
6.050,-0.635,-0.240
6.053,-0.645,-0.235
6.056,-0.645,-0.245
6.058,-0.645,-0.240
6.061,-0.645,-0.230
6.064,-0.645,-0.225
6.067,-0.640,-0.220
6.069,-0.625,-0.195
6.072,-0.640,-0.215
6.075,-0.640,-0.220
6.078,-0.640,-0.225
6.081,-0.655,-0.240
6.083,-0.660,-0.235
6.086,-0.655,-0.245
6.089,-0.660,-0.245
6.092,-0.680,-0.235
6.094,-0.675,-0.235
6.097,-0.665,-0.230
6.100,-0.670,-0.230
6.103,-0.655,-0.215
6.106,-0.655,-0.230
6.108,-0.660,-0.230
6.111,-0.665,-0.235
6.114,-0.670,-0.245
6.117,-0.675,-0.245
6.119,-0.680,-0.255
6.122,-0.685,-0.255
6.125,-0.685,-0.250
6.128,-0.685,-0.235
6.131,-0.675,-0.245
6.133,-0.675,-0.230
6.136,-0.665,-0.215
6.139,-0.665,-0.235
6.142,-0.665,-0.235
6.144,-0.680,-0.240
6.147,-0.690,-0.250
6.150,-0.680,-0.255
6.153,-0.690,-0.255
6.156,-0.685,-0.265
6.158,-0.695,-0.260
6.161,-0.685,-0.240
6.164,-0.675,-0.245
6.167,-0.670,-0.230
6.169,-0.670,-0.225
6.172,-0.660,-0.230
6.175,-0.670,-0.245
6.178,-0.680,-0.250
6.181,-0.680,-0.255
6.183,-0.690,-0.255
6.186,-0.700,-0.265
6.189,-0.695,-0.265
6.192,-0.695,-0.255
6.194,-0.690,-0.255
6.197,-0.685,-0.245
6.200,-0.675,-0.235
6.203,-0.675,-0.240
6.206,-0.670,-0.245
6.208,-0.665,-0.240
6.211,-0.665,-0.240
6.214,-0.680,-0.255
6.217,-0.695,-0.255
6.219,-0.685,-0.265
6.222,-0.700,-0.245
6.225,-0.690,-0.230
6.228,-0.685,-0.220
6.231,-0.675,-0.215
6.233,-0.660,-0.200
6.236,-0.655,-0.195
6.239,-0.640,-0.180
6.242,-0.645,-0.180
6.244,-0.620,-0.180
6.247,-0.615,-0.195
6.250,-0.620,-0.200
6.253,-0.615,-0.220
6.256,-0.605,-0.225
6.258,-0.590,-0.235
6.261,-0.580,-0.240
6.264,-0.575,-0.235
6.267,-0.565,-0.240
6.269,-0.555,-0.230
6.272,-0.545,-0.240
6.275,-0.545,-0.235
6.278,-0.530,-0.220
6.281,-0.535,-0.245
6.283,-0.535,-0.240
6.286,-0.540,-0.260
6.289,-0.565,-0.245
6.292,-0.570,-0.245
6.294,-0.550,-0.245
6.297,-0.545,-0.230
6.300,-0.560,-0.225
6.303,-0.550,-0.225
6.306,-0.520,-0.220
6.308,-0.535,-0.240
6.311,-0.535,-0.235
6.314,-0.560,-0.245
6.317,-0.575,-0.275
6.319,-0.590,-0.275
6.322,-0.615,-0.265
6.325,-0.640,-0.275
6.328,-0.650,-0.270
6.331,-0.660,-0.255
6.333,-0.660,-0.255
6.336,-0.655,-0.250
6.339,-0.645,-0.260
6.342,-0.655,-0.265
6.344,-0.670,-0.265
6.347,-0.665,-0.275
6.350,-0.685,-0.275
6.353,-0.670,-0.290
6.356,-0.680,-0.275
6.358,-0.680,-0.285
6.361,-0.675,-0.260
6.364,-0.680,-0.260
6.367,-0.680,-0.260
6.369,-0.670,-0.240
6.372,-0.660,-0.255
6.375,-0.665,-0.260
6.378,-0.670,-0.260
6.381,-0.670,-0.280
6.383,-0.675,-0.275
6.386,-0.680,-0.280
6.389,-0.675,-0.275
6.392,-0.680,-0.270
6.394,-0.675,-0.265
6.397,-0.660,-0.260
6.400,-0.660,-0.255
6.403,-0.645,-0.245
6.406,-0.635,-0.245
6.408,-0.645,-0.245
6.411,-0.645,-0.265
6.414,-0.640,-0.260
6.417,-0.645,-0.265
6.419,-0.640,-0.250
6.422,-0.635,-0.235
6.425,-0.630,-0.225
6.428,-0.625,-0.210
6.431,-0.605,-0.220
6.433,-0.600,-0.255
6.436,-0.585,-0.285
6.439,-0.555,-0.350
6.442,-0.515,-0.435
6.444,-0.430,-0.515
6.447,-0.300,-0.620
6.450,-0.110,-0.695
6.453,0.140,-0.730
6.456,0.480,-0.740
6.458,0.870,-0.690
6.461,1.245,-0.625
6.464,1.560,-0.530
6.467,1.700,-0.445
6.469,1.620,-0.350
6.472,1.275,-0.320
6.475,0.715,-0.285
6.478,0.075,-0.300
6.481,-0.565,-0.320
6.483,-1.130,-0.355
6.486,-1.395,-0.365
6.489,-1.420,-0.360
6.492,-1.265,-0.330
6.494,-1.030,-0.285
6.497,-0.800,-0.240
6.500,-0.620,-0.205
6.503,-0.525,-0.180
6.506,-0.480,-0.175
6.508,-0.485,-0.185
6.511,-0.520,-0.195
6.514,-0.550,-0.210
6.517,-0.570,-0.220
6.519,-0.600,-0.225
6.522,-0.615,-0.210
6.525,-0.605,-0.220
6.528,-0.595,-0.195
6.531,-0.580,-0.195
6.533,-0.570,-0.195
6.536,-0.575,-0.185
6.539,-0.555,-0.190
6.542,-0.565,-0.190
6.544,-0.570,-0.200
6.547,-0.570,-0.200
6.550,-0.570,-0.215
6.553,-0.580,-0.220
6.556,-0.580,-0.220
6.558,-0.585,-0.195
6.561,-0.580,-0.195
6.564,-0.565,-0.195
6.567,-0.560,-0.190
6.569,-0.555,-0.175
6.572,-0.555,-0.185
6.575,-0.550,-0.200
6.578,-0.550,-0.200
6.581,-0.550,-0.210
6.583,-0.555,-0.215
6.586,-0.575,-0.220
6.589,-0.580,-0.205
6.592,-0.570,-0.215
6.594,-0.560,-0.210
6.597,-0.565,-0.200
6.600,-0.555,-0.195
6.603,-0.545,-0.185
6.606,-0.545,-0.205
6.608,-0.550,-0.200
6.611,-0.550,-0.200
6.614,-0.570,-0.210
6.617,-0.565,-0.215
6.619,-0.565,-0.220
6.622,-0.575,-0.240
6.625,-0.580,-0.210
6.628,-0.565,-0.210
6.631,-0.560,-0.195
6.633,-0.560,-0.195
6.636,-0.550,-0.195
6.639,-0.555,-0.195
6.642,-0.550,-0.205
6.644,-0.550,-0.200
6.647,-0.540,-0.225
6.650,-0.545,-0.225
6.653,-0.555,-0.225
6.656,-0.555,-0.220
6.658,-0.565,-0.225
6.661,-0.545,-0.215
6.664,-0.535,-0.200
6.667,-0.540,-0.200
6.669,-0.540,-0.195
6.672,-0.525,-0.205
6.675,-0.525,-0.200
6.678,-0.530,-0.215
6.681,-0.530,-0.215
6.683,-0.530,-0.225
6.686,-0.540,-0.230
6.689,-0.545,-0.225
6.692,-0.535,-0.215
6.694,-0.535,-0.215
6.697,-0.515,-0.205
6.700,-0.510,-0.200
6.703,-0.500,-0.190
6.706,-0.515,-0.195
6.708,-0.495,-0.205
6.711,-0.490,-0.215
6.714,-0.500,-0.220
6.717,-0.510,-0.225
6.719,-0.510,-0.235
6.722,-0.515,-0.225
6.725,-0.510,-0.225
6.728,-0.505,-0.225
6.731,-0.485,-0.215
6.733,-0.485,-0.210
6.736,-0.475,-0.205
6.739,-0.465,-0.205
6.742,-0.480,-0.205
6.744,-0.465,-0.210
6.747,-0.470,-0.220
6.750,-0.475,-0.235
6.753,-0.480,-0.220
6.756,-0.480,-0.230
6.758,-0.465,-0.225
6.761,-0.465,-0.215
6.764,-0.455,-0.210
6.767,-0.450,-0.220
6.769,-0.450,-0.190
6.772,-0.420,-0.210
6.775,-0.425,-0.210
6.778,-0.420,-0.225
6.781,-0.435,-0.235
6.783,-0.435,-0.230
6.786,-0.440,-0.235
6.789,-0.450,-0.230
6.792,-0.420,-0.235
6.794,-0.425,-0.230
6.797,-0.410,-0.210
6.800,-0.415,-0.205
6.803,-0.405,-0.205
6.806,-0.400,-0.210
6.808,-0.395,-0.210
6.811,-0.395,-0.230
6.814,-0.415,-0.230
6.817,-0.410,-0.235
6.819,-0.420,-0.235
6.822,-0.410,-0.230
6.825,-0.420,-0.230
6.828,-0.415,-0.230
6.831,-0.400,-0.225
6.833,-0.390,-0.220
6.836,-0.375,-0.200
6.839,-0.385,-0.220
6.842,-0.385,-0.220
6.844,-0.405,-0.230
6.847,-0.420,-0.235
6.850,-0.430,-0.235
6.853,-0.450,-0.245
6.856,-0.455,-0.230
6.858,-0.475,-0.220
6.861,-0.485,-0.210
6.864,-0.490,-0.205
6.867,-0.510,-0.200
6.869,-0.515,-0.185
6.872,-0.515,-0.205
6.875,-0.535,-0.200
6.878,-0.550,-0.200
6.881,-0.570,-0.205
6.883,-0.590,-0.215
6.886,-0.595,-0.215
6.889,-0.615,-0.210
6.892,-0.620,-0.210
6.894,-0.625,-0.195
6.897,-0.610,-0.190
6.900,-0.620,-0.185
6.903,-0.620,-0.185
6.906,-0.615,-0.190
6.908,-0.625,-0.175
6.911,-0.645,-0.195
6.914,-0.655,-0.205
6.917,-0.655,-0.205
6.919,-0.665,-0.225
6.922,-0.665,-0.200
6.925,-0.665,-0.205
6.928,-0.650,-0.195
6.931,-0.655,-0.185
6.933,-0.650,-0.185
6.936,-0.635,-0.175
6.939,-0.645,-0.185
6.942,-0.640,-0.190
6.944,-0.650,-0.195
6.947,-0.650,-0.190
6.950,-0.650,-0.200
6.953,-0.660,-0.205
6.956,-0.655,-0.190
6.958,-0.640,-0.190
6.961,-0.635,-0.190
6.964,-0.630,-0.180
6.967,-0.620,-0.180
6.969,-0.605,-0.180
6.972,-0.605,-0.185
6.975,-0.600,-0.185
6.978,-0.595,-0.190
6.981,-0.600,-0.195
6.983,-0.610,-0.200
6.986,-0.610,-0.210
6.989,-0.605,-0.200
6.992,-0.600,-0.210
6.994,-0.595,-0.195
6.997,-0.585,-0.195
7.000,-0.575,-0.195
7.003,-0.570,-0.170
7.006,-0.570,-0.180
7.008,-0.560,-0.195
7.011,-0.560,-0.190
7.014,-0.570,-0.205
7.017,-0.570,-0.200
7.019,-0.580,-0.205
7.022,-0.570,-0.205
7.025,-0.575,-0.195
7.028,-0.565,-0.195
7.031,-0.575,-0.195
7.033,-0.560,-0.185
7.036,-0.550,-0.180
7.039,-0.540,-0.180
7.042,-0.550,-0.185
7.044,-0.555,-0.200
7.047,-0.575,-0.220
7.050,-0.565,-0.220
7.053,-0.580,-0.220
7.056,-0.580,-0.205
7.058,-0.570,-0.220
7.061,-0.575,-0.205
7.064,-0.575,-0.190
7.067,-0.575,-0.190
7.069,-0.565,-0.190
7.072,-0.565,-0.195
7.075,-0.570,-0.195
7.078,-0.570,-0.200
7.081,-0.580,-0.215
7.083,-0.585,-0.215
7.086,-0.590,-0.225
7.089,-0.600,-0.225
7.092,-0.610,-0.225
7.094,-0.595,-0.215
7.097,-0.595,-0.205
7.100,-0.585,-0.200
7.103,-0.585,-0.195
7.106,-0.570,-0.205
7.108,-0.580,-0.200
7.111,-0.585,-0.205
7.114,-0.600,-0.215
7.117,-0.600,-0.220
7.119,-0.595,-0.230
7.122,-0.600,-0.225
7.125,-0.605,-0.220
7.128,-0.600,-0.215
7.131,-0.595,-0.215
7.133,-0.590,-0.195
7.136,-0.590,-0.200
7.139,-0.580,-0.200
7.142,-0.595,-0.195
7.144,-0.590,-0.205
7.147,-0.600,-0.215
7.150,-0.610,-0.215
7.153,-0.610,-0.230
7.156,-0.600,-0.225
7.158,-0.610,-0.210
7.161,-0.605,-0.205
7.164,-0.595,-0.205
7.167,-0.585,-0.205
7.169,-0.570,-0.205
7.172,-0.580,-0.200
7.175,-0.590,-0.205
7.178,-0.595,-0.220
7.181,-0.600,-0.225
7.183,-0.590,-0.230
7.186,-0.610,-0.235
7.189,-0.610,-0.225
7.192,-0.605,-0.235
7.194,-0.600,-0.215
7.197,-0.600,-0.205
7.200,-0.595,-0.195
7.203,-0.590,-0.190
7.206,-0.580,-0.205
7.208,-0.575,-0.210
7.211,-0.585,-0.200
7.214,-0.585,-0.215
7.217,-0.580,-0.225
7.219,-0.580,-0.220
7.222,-0.590,-0.220
7.225,-0.590,-0.225
7.228,-0.575,-0.210
7.231,-0.580,-0.215
7.233,-0.565,-0.215
7.236,-0.560,-0.205
7.239,-0.560,-0.205
7.242,-0.565,-0.200
7.244,-0.550,-0.210
7.247,-0.565,-0.220
7.250,-0.560,-0.220
7.253,-0.575,-0.230
7.256,-0.565,-0.215
7.258,-0.570,-0.225
7.261,-0.570,-0.210
7.264,-0.565,-0.190
7.267,-0.560,-0.180
7.269,-0.555,-0.170
7.272,-0.555,-0.170
7.275,-0.545,-0.170
7.278,-0.540,-0.165
7.281,-0.535,-0.160
7.283,-0.530,-0.165
7.286,-0.535,-0.160
7.289,-0.525,-0.155
7.292,-0.520,-0.155
7.294,-0.510,-0.145
7.297,-0.500,-0.155
7.300,-0.475,-0.160
7.303,-0.455,-0.165
7.306,-0.440,-0.185
7.308,-0.425,-0.195
7.311,-0.425,-0.215
7.314,-0.415,-0.210
7.317,-0.415,-0.220
7.319,-0.410,-0.220
7.322,-0.420,-0.205
7.325,-0.410,-0.210
7.328,-0.420,-0.200
7.331,-0.425,-0.185
7.333,-0.415,-0.180
7.336,-0.415,-0.185
7.339,-0.415,-0.185
7.342,-0.415,-0.185
7.344,-0.415,-0.205
7.347,-0.415,-0.200
7.350,-0.410,-0.215
7.353,-0.430,-0.225
7.356,-0.435,-0.230
7.358,-0.460,-0.210
7.361,-0.445,-0.220
7.364,-0.455,-0.225
7.367,-0.460,-0.205
7.369,-0.475,-0.210
7.372,-0.480,-0.215
7.375,-0.485,-0.220
7.378,-0.510,-0.235
7.381,-0.510,-0.230
7.383,-0.505,-0.225
7.386,-0.545,-0.240
7.389,-0.535,-0.235
7.392,-0.515,-0.235
7.394,-0.525,-0.230
7.397,-0.515,-0.225
7.400,-0.515,-0.225
7.403,-0.505,-0.225
7.406,-0.505,-0.220
7.408,-0.510,-0.215
7.411,-0.515,-0.230
7.414,-0.530,-0.225
7.417,-0.530,-0.240
7.419,-0.535,-0.240
7.422,-0.535,-0.235
7.425,-0.535,-0.230
7.428,-0.535,-0.235
7.431,-0.535,-0.220
7.433,-0.520,-0.200
7.436,-0.510,-0.210
7.439,-0.515,-0.210
7.442,-0.510,-0.215
7.444,-0.495,-0.225
7.447,-0.500,-0.220
7.450,-0.515,-0.220
7.453,-0.495,-0.225
7.456,-0.495,-0.200
7.458,-0.480,-0.200
7.461,-0.470,-0.185
7.464,-0.450,-0.165
7.467,-0.440,-0.185
7.469,-0.425,-0.215
7.472,-0.410,-0.275
7.475,-0.370,-0.350
7.478,-0.310,-0.450
7.481,-0.210,-0.560
7.483,-0.055,-0.660
7.486,0.175,-0.710
7.489,0.470,-0.715
7.492,0.850,-0.680
7.494,1.240,-0.610
7.497,1.580,-0.510
7.500,1.765,-0.410
7.503,1.735,-0.315
7.506,1.415,-0.260
7.508,0.860,-0.225
7.511,0.220,-0.230
7.514,-0.420,-0.260
7.517,-1.025,-0.295
7.519,-1.270,-0.325
7.522,-1.235,-0.315
7.525,-1.045,-0.285
7.528,-0.785,-0.245
7.531,-0.560,-0.205
7.533,-0.410,-0.160
7.536,-0.325,-0.130
7.539,-0.300,-0.130
7.542,-0.310,-0.145
7.544,-0.325,-0.145
7.547,-0.370,-0.160
7.550,-0.400,-0.180
7.553,-0.415,-0.185
7.556,-0.415,-0.175
7.558,-0.415,-0.160
7.561,-0.395,-0.160
7.564,-0.390,-0.150
7.567,-0.370,-0.140
7.569,-0.370,-0.150
7.572,-0.365,-0.145
7.575,-0.375,-0.145
7.578,-0.380,-0.160
7.581,-0.385,-0.170
7.583,-0.370,-0.170
7.586,-0.390,-0.175
7.589,-0.400,-0.185
7.592,-0.390,-0.175
7.594,-0.395,-0.155
7.597,-0.385,-0.160
7.600,-0.370,-0.145
7.603,-0.360,-0.150
7.606,-0.365,-0.155
7.608,-0.360,-0.160
7.611,-0.365,-0.160
7.614,-0.370,-0.165
7.617,-0.360,-0.175
7.619,-0.370,-0.185
7.622,-0.370,-0.185
7.625,-0.380,-0.175
7.628,-0.365,-0.175
7.631,-0.355,-0.165
7.633,-0.360,-0.165
7.636,-0.350,-0.140
7.639,-0.335,-0.160
7.642,-0.340,-0.160
7.644,-0.330,-0.165
7.647,-0.345,-0.175
7.650,-0.340,-0.185
7.653,-0.345,-0.175
7.656,-0.345,-0.185
7.658,-0.360,-0.185
7.661,-0.370,-0.180
7.664,-0.340,-0.165
7.667,-0.355,-0.160
7.669,-0.340,-0.160
7.672,-0.325,-0.170
7.675,-0.330,-0.170
7.678,-0.335,-0.175
7.681,-0.330,-0.185
7.683,-0.335,-0.190
7.686,-0.350,-0.195
7.689,-0.365,-0.185
7.692,-0.340,-0.185
7.694,-0.345,-0.185
7.697,-0.325,-0.175
7.700,-0.325,-0.170
7.703,-0.320,-0.165
7.706,-0.300,-0.170
7.708,-0.300,-0.175
7.711,-0.295,-0.180
7.714,-0.295,-0.190
7.717,-0.310,-0.190
7.719,-0.320,-0.200
7.722,-0.325,-0.190
7.725,-0.335,-0.185
7.728,-0.315,-0.185
7.731,-0.305,-0.185
7.733,-0.290,-0.180
7.736,-0.280,-0.165
7.739,-0.280,-0.170
7.742,-0.270,-0.180
7.744,-0.270,-0.180
7.747,-0.280,-0.180
7.750,-0.280,-0.195
7.753,-0.280,-0.200
7.756,-0.290,-0.205
7.758,-0.280,-0.195
7.761,-0.285,-0.185
7.764,-0.280,-0.185
7.767,-0.265,-0.180
7.769,-0.255,-0.165
7.772,-0.230,-0.170
7.775,-0.230,-0.180
7.778,-0.230,-0.190
7.781,-0.230,-0.195
7.783,-0.235,-0.200
7.786,-0.235,-0.200
7.789,-0.245,-0.205
7.792,-0.230,-0.195
7.794,-0.235,-0.195
7.797,-0.215,-0.195
7.800,-0.210,-0.185
7.803,-0.205,-0.190
7.806,-0.200,-0.180
7.808,-0.215,-0.195
7.811,-0.200,-0.190
7.814,-0.200,-0.205
7.817,-0.210,-0.190
7.819,-0.215,-0.205
7.822,-0.220,-0.210
7.825,-0.230,-0.205
7.828,-0.225,-0.210
7.831,-0.225,-0.195
7.833,-0.215,-0.200
7.836,-0.215,-0.195
7.839,-0.200,-0.200
7.842,-0.190,-0.200
7.844,-0.190,-0.195
7.847,-0.200,-0.215
7.850,-0.210,-0.225
7.853,-0.220,-0.220
7.856,-0.210,-0.220
7.858,-0.200,-0.215
7.861,-0.215,-0.210
7.864,-0.220,-0.200
7.867,-0.215,-0.195
7.869,-0.210,-0.185
7.872,-0.220,-0.195
7.875,-0.225,-0.190
7.878,-0.240,-0.205
7.881,-0.260,-0.210
7.883,-0.275,-0.210
7.886,-0.305,-0.205
7.889,-0.295,-0.195
7.892,-0.320,-0.185
7.894,-0.330,-0.185
7.897,-0.340,-0.165
7.900,-0.340,-0.155
7.903,-0.345,-0.160
7.906,-0.345,-0.160
7.908,-0.360,-0.180
7.911,-0.380,-0.170
7.914,-0.405,-0.170
7.917,-0.395,-0.185
7.919,-0.420,-0.175
7.922,-0.420,-0.190
7.925,-0.430,-0.175
7.928,-0.425,-0.180
7.931,-0.430,-0.180
7.933,-0.430,-0.170
7.936,-0.425,-0.165
7.939,-0.420,-0.165
7.942,-0.425,-0.170
7.944,-0.430,-0.170
7.947,-0.430,-0.180
7.950,-0.435,-0.190
7.953,-0.455,-0.185
7.956,-0.455,-0.185
7.958,-0.455,-0.185
7.961,-0.450,-0.170
7.964,-0.440,-0.165
7.967,-0.435,-0.160
7.969,-0.430,-0.150
7.972,-0.410,-0.150
7.975,-0.420,-0.170
7.978,-0.420,-0.170
7.981,-0.430,-0.180
7.983,-0.425,-0.190
7.986,-0.440,-0.185
7.989,-0.445,-0.190
7.992,-0.435,-0.185
7.994,-0.430,-0.170
7.997,-0.425,-0.160
8.000,-0.420,-0.155
8.003,-0.410,-0.155
8.006,-0.400,-0.160
8.008,-0.400,-0.165
8.011,-0.395,-0.170
8.014,-0.405,-0.180
8.017,-0.405,-0.185
8.019,-0.410,-0.195
8.022,-0.395,-0.185
8.025,-0.400,-0.200
8.028,-0.395,-0.175
8.031,-0.400,-0.170
8.033,-0.395,-0.170
8.036,-0.390,-0.160
8.039,-0.375,-0.170
8.042,-0.380,-0.170
8.044,-0.380,-0.170
8.047,-0.390,-0.175
8.050,-0.395,-0.190
8.053,-0.390,-0.205
8.056,-0.405,-0.195
8.058,-0.390,-0.200
8.061,-0.390,-0.180
8.064,-0.395,-0.185
8.067,-0.390,-0.180
8.069,-0.390,-0.185
8.072,-0.395,-0.180
8.075,-0.380,-0.175
8.078,-0.400,-0.190
8.081,-0.400,-0.200
8.083,-0.400,-0.195
8.086,-0.415,-0.205
8.089,-0.420,-0.205
8.092,-0.430,-0.200
8.094,-0.415,-0.195
8.097,-0.415,-0.195
8.100,-0.410,-0.195
8.103,-0.405,-0.185
8.106,-0.395,-0.185
8.108,-0.400,-0.185
8.111,-0.405,-0.195
8.114,-0.410,-0.200
8.117,-0.415,-0.215
8.119,-0.425,-0.215
8.122,-0.435,-0.215
8.125,-0.435,-0.205
8.128,-0.425,-0.205
8.131,-0.415,-0.190
8.133,-0.415,-0.185
8.136,-0.410,-0.185
8.139,-0.410,-0.180
8.142,-0.420,-0.195
8.144,-0.405,-0.200
8.147,-0.415,-0.205
8.150,-0.425,-0.215
8.153,-0.435,-0.215
8.156,-0.445,-0.215
8.158,-0.440,-0.200
8.161,-0.435,-0.205
8.164,-0.435,-0.195
8.167,-0.425,-0.185
8.169,-0.450,-0.185
8.172,-0.430,-0.180
8.175,-0.415,-0.200
8.178,-0.415,-0.200
8.181,-0.420,-0.210
8.183,-0.435,-0.210
8.186,-0.440,-0.210
8.189,-0.450,-0.215
8.192,-0.460,-0.200
8.194,-0.445,-0.200
8.197,-0.440,-0.195
8.200,-0.430,-0.210
8.203,-0.430,-0.185
8.206,-0.415,-0.200
8.208,-0.425,-0.190
8.211,-0.420,-0.190
8.214,-0.435,-0.205
8.217,-0.430,-0.215
8.219,-0.450,-0.220
8.222,-0.455,-0.215
8.225,-0.450,-0.205
8.228,-0.445,-0.205
8.231,-0.440,-0.205
8.233,-0.435,-0.205
8.236,-0.430,-0.195
8.239,-0.425,-0.200
8.242,-0.430,-0.200
8.244,-0.440,-0.195
8.247,-0.435,-0.205
8.250,-0.445,-0.220
8.253,-0.435,-0.215
8.256,-0.460,-0.225
8.258,-0.450,-0.210
8.261,-0.455,-0.210
8.264,-0.455,-0.205
8.267,-0.450,-0.200
8.269,-0.435,-0.180
8.272,-0.430,-0.195
8.275,-0.440,-0.195
8.278,-0.445,-0.200
8.281,-0.440,-0.215
8.283,-0.440,-0.215
8.286,-0.455,-0.210
8.289,-0.455,-0.205
8.292,-0.460,-0.195
8.294,-0.445,-0.185
8.297,-0.435,-0.155
8.300,-0.425,-0.145
8.303,-0.410,-0.135
8.306,-0.405,-0.130
8.308,-0.400,-0.130
8.311,-0.380,-0.140
8.314,-0.380,-0.135
8.317,-0.380,-0.145
8.319,-0.380,-0.155
8.322,-0.360,-0.180
8.325,-0.345,-0.185
8.328,-0.345,-0.195
8.331,-0.325,-0.195
8.333,-0.305,-0.200
8.336,-0.305,-0.205
8.339,-0.295,-0.200
8.342,-0.280,-0.195
8.344,-0.280,-0.190
8.347,-0.285,-0.190
8.350,-0.290,-0.190
8.353,-0.320,-0.200
8.356,-0.320,-0.195
8.358,-0.330,-0.205
8.361,-0.330,-0.185
8.364,-0.320,-0.185
8.367,-0.315,-0.185
8.369,-0.300,-0.185
8.372,-0.305,-0.190
8.375,-0.320,-0.195
8.378,-0.335,-0.210
8.381,-0.345,-0.215
8.383,-0.370,-0.215
8.386,-0.390,-0.230
8.389,-0.410,-0.235
8.392,-0.430,-0.230
8.394,-0.440,-0.220
8.397,-0.440,-0.225
8.400,-0.440,-0.225
8.403,-0.425,-0.210
8.406,-0.420,-0.215
8.408,-0.425,-0.215
8.411,-0.425,-0.220
8.414,-0.425,-0.225
8.417,-0.435,-0.235
8.419,-0.445,-0.245
8.422,-0.455,-0.240
8.425,-0.465,-0.225
8.428,-0.465,-0.230
8.431,-0.455,-0.220
8.433,-0.455,-0.210
8.436,-0.440,-0.200
8.439,-0.435,-0.200
8.442,-0.430,-0.220
8.444,-0.430,-0.215
8.447,-0.440,-0.225
8.450,-0.440,-0.230
8.453,-0.455,-0.230
8.456,-0.450,-0.230
8.458,-0.460,-0.230
8.461,-0.445,-0.215
8.464,-0.435,-0.210
8.467,-0.420,-0.195
8.469,-0.405,-0.195
8.472,-0.400,-0.170
8.475,-0.400,-0.175
8.478,-0.390,-0.155
8.481,-0.385,-0.170
8.483,-0.380,-0.180
8.486,-0.380,-0.210
8.489,-0.370,-0.265
8.492,-0.340,-0.335
8.494,-0.290,-0.430
8.497,-0.185,-0.530
8.500,-0.030,-0.615
8.503,0.200,-0.665
8.506,0.510,-0.675
8.508,0.875,-0.665
8.511,1.270,-0.610
8.514,1.600,-0.520
8.517,1.790,-0.430
8.519,1.800,-0.335
8.522,1.590,-0.270
8.525,1.145,-0.235
8.528,0.545,-0.200
8.531,-0.095,-0.220
8.533,-0.715,-0.235
8.536,-1.090,-0.255
8.539,-1.210,-0.270
8.542,-1.130,-0.275
8.544,-0.920,-0.245
8.547,-0.680,-0.215
8.550,-0.475,-0.175
8.553,-0.340,-0.160
8.556,-0.280,-0.155
8.558,-0.280,-0.135
8.561,-0.295,-0.145
8.564,-0.325,-0.150
8.567,-0.360,-0.140
8.569,-0.375,-0.150
8.572,-0.375,-0.140
8.575,-0.385,-0.145
8.578,-0.375,-0.140
8.581,-0.375,-0.150
8.583,-0.360,-0.150
8.586,-0.375,-0.160
8.589,-0.370,-0.155
8.592,-0.370,-0.150
8.594,-0.360,-0.155
8.597,-0.350,-0.145
8.600,-0.350,-0.140
8.603,-0.345,-0.135
8.606,-0.345,-0.135
8.608,-0.345,-0.140
8.611,-0.340,-0.135
8.614,-0.355,-0.150
8.617,-0.355,-0.155
8.619,-0.360,-0.160
8.622,-0.375,-0.160
8.625,-0.360,-0.155
8.628,-0.355,-0.150
8.631,-0.355,-0.145
8.633,-0.340,-0.140
8.636,-0.335,-0.135
8.639,-0.330,-0.130
8.642,-0.335,-0.145
8.644,-0.345,-0.160
8.647,-0.340,-0.160
8.650,-0.345,-0.155
8.653,-0.350,-0.170
8.656,-0.350,-0.160
8.658,-0.350,-0.165
8.661,-0.350,-0.155
8.664,-0.350,-0.155
8.667,-0.345,-0.150
8.669,-0.340,-0.130
8.672,-0.335,-0.140
8.675,-0.350,-0.135
8.678,-0.335,-0.145
8.681,-0.355,-0.155
8.683,-0.340,-0.155
8.686,-0.370,-0.170
8.689,-0.360,-0.175
8.692,-0.360,-0.165
8.694,-0.350,-0.155
8.697,-0.335,-0.160
8.700,-0.345,-0.150
8.703,-0.350,-0.145
8.706,-0.335,-0.135
8.708,-0.325,-0.150
8.711,-0.330,-0.155
8.714,-0.335,-0.170
8.717,-0.335,-0.170
8.719,-0.340,-0.175
8.722,-0.350,-0.180
8.725,-0.345,-0.170
8.728,-0.340,-0.165
8.731,-0.340,-0.160
8.733,-0.335,-0.150
8.736,-0.330,-0.155
8.739,-0.310,-0.140
8.742,-0.310,-0.165
8.744,-0.335,-0.165
8.747,-0.335,-0.170
8.750,-0.330,-0.175
8.753,-0.325,-0.175
8.756,-0.335,-0.180
8.758,-0.335,-0.180
8.761,-0.340,-0.170
8.764,-0.330,-0.160
8.767,-0.320,-0.155
8.769,-0.315,-0.155
8.772,-0.295,-0.145
8.775,-0.290,-0.155
8.778,-0.285,-0.165
8.781,-0.295,-0.170
8.783,-0.295,-0.180
8.786,-0.285,-0.180
8.789,-0.295,-0.165
8.792,-0.305,-0.170
8.794,-0.295,-0.165
8.797,-0.280,-0.160
8.800,-0.275,-0.150
8.803,-0.270,-0.160
8.806,-0.275,-0.170
8.808,-0.280,-0.170
8.811,-0.270,-0.165
8.814,-0.265,-0.185
8.817,-0.265,-0.175
8.819,-0.275,-0.190
8.822,-0.280,-0.185
8.825,-0.275,-0.190
8.828,-0.275,-0.190
8.831,-0.260,-0.180
8.833,-0.255,-0.175
8.836,-0.245,-0.170
8.839,-0.245,-0.175
8.842,-0.230,-0.180
8.844,-0.250,-0.180
8.847,-0.245,-0.190
8.850,-0.260,-0.185
8.853,-0.255,-0.200
8.856,-0.275,-0.195
8.858,-0.270,-0.190
8.861,-0.265,-0.190
8.864,-0.270,-0.190
8.867,-0.255,-0.185
8.869,-0.250,-0.170
8.872,-0.245,-0.175
8.875,-0.255,-0.180
8.878,-0.260,-0.190
8.881,-0.265,-0.195
8.883,-0.260,-0.205
8.886,-0.255,-0.200
8.889,-0.265,-0.210
8.892,-0.275,-0.195
8.894,-0.280,-0.195
8.897,-0.280,-0.175
8.900,-0.290,-0.150
8.903,-0.295,-0.150
8.906,-0.310,-0.150
8.908,-0.330,-0.155
8.911,-0.335,-0.155
8.914,-0.360,-0.165
8.917,-0.390,-0.165
8.919,-0.405,-0.165
8.922,-0.415,-0.170
8.925,-0.430,-0.165
8.928,-0.435,-0.155
8.931,-0.450,-0.145
8.933,-0.460,-0.140
8.936,-0.460,-0.130
8.939,-0.465,-0.140
8.942,-0.465,-0.140
8.944,-0.465,-0.135
8.947,-0.490,-0.140
8.950,-0.505,-0.155
8.953,-0.505,-0.165
8.956,-0.520,-0.155
8.958,-0.515,-0.150
8.961,-0.515,-0.160
8.964,-0.515,-0.130
8.967,-0.505,-0.140
8.969,-0.500,-0.130
8.972,-0.495,-0.125
8.975,-0.505,-0.135
8.978,-0.505,-0.125
8.981,-0.510,-0.145
8.983,-0.525,-0.145
8.986,-0.520,-0.155
8.989,-0.525,-0.155
8.992,-0.530,-0.145
8.994,-0.530,-0.140
8.997,-0.520,-0.125
9.000,-0.515,-0.135
9.003,-0.510,-0.130
9.006,-0.500,-0.125
9.008,-0.495,-0.125
9.011,-0.495,-0.130
9.014,-0.500,-0.150
9.017,-0.505,-0.160
9.019,-0.515,-0.150
9.022,-0.510,-0.160
9.025,-0.505,-0.145
9.028,-0.505,-0.150
9.031,-0.490,-0.140
9.033,-0.505,-0.140
9.036,-0.495,-0.145
9.039,-0.470,-0.120
9.042,-0.475,-0.135
9.044,-0.470,-0.150
9.047,-0.485,-0.150
9.050,-0.490,-0.160
9.053,-0.490,-0.150
9.056,-0.495,-0.160
9.058,-0.490,-0.165
9.061,-0.495,-0.150
9.064,-0.490,-0.145
9.067,-0.480,-0.145
9.069,-0.470,-0.135
9.072,-0.470,-0.140
9.075,-0.475,-0.150
9.078,-0.460,-0.145
9.081,-0.465,-0.160
9.083,-0.470,-0.165
9.086,-0.495,-0.175
9.089,-0.500,-0.180
9.092,-0.495,-0.165
9.094,-0.500,-0.160
9.097,-0.500,-0.160
9.100,-0.495,-0.145
9.103,-0.500,-0.150
9.106,-0.480,-0.140
9.108,-0.490,-0.160
9.111,-0.495,-0.150
9.114,-0.515,-0.155
9.117,-0.530,-0.175
9.119,-0.540,-0.180
9.122,-0.535,-0.175
9.125,-0.535,-0.170
9.128,-0.530,-0.170
9.131,-0.530,-0.165
9.133,-0.520,-0.155
9.136,-0.525,-0.145
9.139,-0.505,-0.155
9.142,-0.505,-0.155
9.144,-0.520,-0.155
9.147,-0.530,-0.165
9.150,-0.530,-0.185
9.153,-0.530,-0.190
9.156,-0.540,-0.190
9.158,-0.545,-0.185
9.161,-0.545,-0.180
9.164,-0.540,-0.170
9.167,-0.535,-0.170
9.169,-0.540,-0.150
9.172,-0.530,-0.155
9.175,-0.535,-0.165
9.178,-0.540,-0.180
9.181,-0.540,-0.175
9.183,-0.540,-0.185
9.186,-0.545,-0.185
9.189,-0.555,-0.185
9.192,-0.555,-0.170
9.194,-0.555,-0.180
9.197,-0.550,-0.165
9.200,-0.540,-0.165
9.203,-0.555,-0.165
9.206,-0.545,-0.150
9.208,-0.555,-0.155
9.211,-0.555,-0.155
9.214,-0.565,-0.170
9.217,-0.565,-0.175
9.219,-0.570,-0.175
9.222,-0.590,-0.170
9.225,-0.570,-0.155
9.228,-0.565,-0.145
9.231,-0.555,-0.125
9.233,-0.540,-0.110
9.236,-0.525,-0.110
9.239,-0.505,-0.100
9.242,-0.500,-0.100
9.244,-0.490,-0.105
9.247,-0.490,-0.110
9.250,-0.490,-0.120
9.253,-0.495,-0.150
9.256,-0.495,-0.160
9.258,-0.490,-0.170
9.261,-0.480,-0.170
9.264,-0.460,-0.175
9.267,-0.445,-0.180
9.269,-0.420,-0.165
9.272,-0.415,-0.135
9.275,-0.400,-0.140
9.278,-0.405,-0.150
9.281,-0.420,-0.145
9.283,-0.440,-0.155
9.286,-0.450,-0.170
9.289,-0.435,-0.170
9.292,-0.455,-0.165
9.294,-0.430,-0.175
9.297,-0.425,-0.160
9.300,-0.425,-0.155
9.303,-0.415,-0.155
9.306,-0.410,-0.160
9.308,-0.415,-0.165
9.311,-0.420,-0.165
9.314,-0.455,-0.185
9.317,-0.480,-0.185
9.319,-0.520,-0.200
9.322,-0.535,-0.190
9.325,-0.550,-0.190
9.328,-0.565,-0.190
9.331,-0.570,-0.190
9.333,-0.570,-0.175
9.336,-0.560,-0.185
9.339,-0.550,-0.170
9.342,-0.540,-0.185
9.344,-0.540,-0.175
9.347,-0.560,-0.195
9.350,-0.565,-0.200
9.353,-0.575,-0.200
9.356,-0.580,-0.205
9.358,-0.595,-0.195
9.361,-0.590,-0.185
9.364,-0.590,-0.180
9.367,-0.590,-0.180
9.369,-0.575,-0.180
9.372,-0.580,-0.160
9.375,-0.575,-0.185
9.378,-0.585,-0.175
9.381,-0.595,-0.180
9.383,-0.600,-0.190
9.386,-0.605,-0.195
9.389,-0.595,-0.195
9.392,-0.600,-0.195
9.394,-0.585,-0.180
9.397,-0.590,-0.180
9.400,-0.580,-0.180
9.403,-0.570,-0.170
9.406,-0.555,-0.175
9.408,-0.560,-0.180
9.411,-0.545,-0.165
9.414,-0.545,-0.175
9.417,-0.545,-0.170
9.419,-0.555,-0.170
9.422,-0.540,-0.155
9.425,-0.550,-0.150
9.428,-0.535,-0.165
9.431,-0.525,-0.180
9.433,-0.505,-0.225
9.436,-0.480,-0.270
9.439,-0.445,-0.345
9.442,-0.365,-0.435
9.444,-0.255,-0.530
9.447,-0.085,-0.605
9.450,0.165,-0.635
9.453,0.495,-0.620
9.456,0.875,-0.570
9.458,1.240,-0.485
9.461,1.540,-0.400
9.464,1.710,-0.300
9.467,1.655,-0.215
9.469,1.365,-0.175
9.472,0.855,-0.140
9.475,0.215,-0.140
9.478,-0.425,-0.150
9.481,-1.015,-0.185
9.483,-1.325,-0.205
9.486,-1.370,-0.225
9.489,-1.210,-0.245
9.492,-0.975,-0.235
9.494,-0.745,-0.225
9.497,-0.570,-0.175
9.500,-0.465,-0.155
9.503,-0.415,-0.120
9.506,-0.415,-0.110
9.508,-0.445,-0.125
9.511,-0.475,-0.125
9.514,-0.495,-0.145
9.517,-0.500,-0.155
9.519,-0.510,-0.155
9.522,-0.520,-0.160
9.525,-0.520,-0.155
9.528,-0.520,-0.155
9.531,-0.515,-0.145
9.533,-0.495,-0.135
9.536,-0.490,-0.140
9.539,-0.480,-0.130
9.542,-0.475,-0.140
9.544,-0.480,-0.145
9.547,-0.485,-0.145
9.550,-0.490,-0.160
9.553,-0.500,-0.160
9.556,-0.495,-0.170
9.558,-0.500,-0.170
9.561,-0.495,-0.155
9.564,-0.490,-0.155
9.567,-0.485,-0.150
9.569,-0.470,-0.150
9.572,-0.460,-0.135
9.575,-0.470,-0.140
9.578,-0.470,-0.150
9.581,-0.470,-0.155
9.583,-0.475,-0.160
9.586,-0.475,-0.155
9.589,-0.490,-0.175
9.592,-0.485,-0.160
9.594,-0.490,-0.165
9.597,-0.475,-0.160
9.600,-0.475,-0.150
9.603,-0.465,-0.150
9.606,-0.455,-0.150
9.608,-0.460,-0.150
9.611,-0.470,-0.160
9.614,-0.475,-0.160
9.617,-0.485,-0.165
9.619,-0.480,-0.180
9.622,-0.495,-0.180
9.625,-0.505,-0.175
9.628,-0.490,-0.180
9.631,-0.495,-0.165
9.633,-0.480,-0.160
9.636,-0.475,-0.155
9.639,-0.485,-0.165
9.642,-0.475,-0.155
9.644,-0.455,-0.165
9.647,-0.460,-0.170
9.650,-0.470,-0.170
9.653,-0.480,-0.180
9.656,-0.480,-0.190
9.658,-0.480,-0.180
9.661,-0.490,-0.185
9.664,-0.475,-0.170
9.667,-0.470,-0.170
9.669,-0.460,-0.145
9.672,-0.450,-0.150
9.675,-0.455,-0.165
9.678,-0.450,-0.170
9.681,-0.460,-0.175
9.683,-0.460,-0.180
9.686,-0.460,-0.185
9.689,-0.470,-0.190
9.692,-0.470,-0.175
9.694,-0.475,-0.175
9.697,-0.460,-0.165
9.700,-0.455,-0.170
9.703,-0.450,-0.165
9.706,-0.445,-0.160
9.708,-0.425,-0.165
9.711,-0.430,-0.165
9.714,-0.440,-0.175
9.717,-0.435,-0.185
9.719,-0.435,-0.190
9.722,-0.435,-0.195
9.725,-0.445,-0.185
9.728,-0.435,-0.190
9.731,-0.420,-0.175
9.733,-0.420,-0.175
9.736,-0.400,-0.160
9.739,-0.390,-0.165
9.742,-0.390,-0.170
9.744,-0.390,-0.175
9.747,-0.400,-0.180
9.750,-0.405,-0.190
9.753,-0.410,-0.205
9.756,-0.410,-0.205
9.758,-0.405,-0.200
9.761,-0.405,-0.195
9.764,-0.395,-0.185
9.767,-0.380,-0.180
9.769,-0.380,-0.185
9.772,-0.365,-0.175
9.775,-0.355,-0.185
9.778,-0.365,-0.195
9.781,-0.370,-0.205
9.783,-0.365,-0.195
9.786,-0.375,-0.210
9.789,-0.370,-0.220
9.792,-0.375,-0.210
9.794,-0.365,-0.210
9.797,-0.360,-0.200
9.800,-0.345,-0.200
9.803,-0.340,-0.195
9.806,-0.345,-0.200
9.808,-0.340,-0.195
9.811,-0.345,-0.205
9.814,-0.350,-0.220
9.817,-0.360,-0.215
9.819,-0.360,-0.215
9.822,-0.370,-0.220
9.825,-0.385,-0.220
9.828,-0.365,-0.205
9.831,-0.370,-0.200
9.833,-0.355,-0.200
9.836,-0.355,-0.180
9.839,-0.360,-0.175
9.842,-0.365,-0.185
9.844,-0.375,-0.195
9.847,-0.385,-0.180
9.850,-0.410,-0.175
9.853,-0.440,-0.190
9.856,-0.465,-0.180
9.858,-0.470,-0.180
9.861,-0.480,-0.170
9.864,-0.485,-0.160
9.867,-0.500,-0.150
9.869,-0.515,-0.150
9.872,-0.525,-0.135
9.875,-0.550,-0.150
9.878,-0.560,-0.145
9.881,-0.575,-0.155
9.883,-0.590,-0.155
9.886,-0.595,-0.160
9.889,-0.605,-0.175
9.892,-0.625,-0.165
9.894,-0.625,-0.155
9.897,-0.615,-0.150
9.900,-0.620,-0.140
9.903,-0.635,-0.145
9.906,-0.630,-0.145
9.908,-0.625,-0.135
9.911,-0.625,-0.140
9.914,-0.635,-0.145
9.917,-0.640,-0.155
9.919,-0.660,-0.165
9.922,-0.650,-0.165
9.925,-0.655,-0.145
9.928,-0.640,-0.150
9.931,-0.630,-0.150
9.933,-0.630,-0.145
9.936,-0.625,-0.135
9.939,-0.615,-0.130
9.942,-0.620,-0.145
9.944,-0.610,-0.135
9.947,-0.625,-0.150
9.950,-0.625,-0.150
9.953,-0.630,-0.165
9.956,-0.630,-0.165
9.958,-0.630,-0.170
9.961,-0.630,-0.155
9.964,-0.620,-0.155
9.967,-0.615,-0.150
9.969,-0.615,-0.135
9.972,-0.600,-0.140
9.975,-0.585,-0.145
9.978,-0.585,-0.145
9.981,-0.580,-0.160
9.983,-0.605,-0.170
9.986,-0.600,-0.170
9.989,-0.605,-0.175
9.992,-0.605,-0.170
9.994,-0.610,-0.170
9.997,-0.595,-0.165
10.000,-0.580,-0.160
10.003,-0.570,-0.165
10.006,-0.565,-0.160
10.008,-0.565,-0.155
10.011,-0.580,-0.170
10.014,-0.575,-0.165
10.017,-0.585,-0.165
10.019,-0.590,-0.185
10.022,-0.600,-0.195
10.025,-0.600,-0.190
10.028,-0.600,-0.180
10.031,-0.605,-0.175
10.033,-0.600,-0.170
10.036,-0.595,-0.160
10.039,-0.585,-0.155
10.042,-0.590,-0.170
10.044,-0.590,-0.180
10.047,-0.590,-0.180
10.050,-0.605,-0.190
10.053,-0.605,-0.210
10.056,-0.630,-0.195
10.058,-0.640,-0.195
10.061,-0.635,-0.200
10.064,-0.620,-0.175
10.067,-0.620,-0.180
10.069,-0.605,-0.160
10.072,-0.615,-0.165
10.075,-0.610,-0.170
10.078,-0.610,-0.180
10.081,-0.610,-0.190
10.083,-0.630,-0.185
10.086,-0.630,-0.200
10.089,-0.650,-0.195
10.092,-0.640,-0.185
10.094,-0.655,-0.185
10.097,-0.635,-0.190
10.100,-0.640,-0.190
10.103,-0.650,-0.170
10.106,-0.630,-0.170
10.108,-0.620,-0.185
10.111,-0.625,-0.170
10.114,-0.630,-0.185
10.117,-0.630,-0.200
10.119,-0.645,-0.200
10.122,-0.655,-0.200
10.125,-0.660,-0.185
10.128,-0.665,-0.180
10.131,-0.640,-0.170
10.133,-0.630,-0.165
10.136,-0.625,-0.160
10.139,-0.630,-0.145
10.142,-0.615,-0.145
10.144,-0.610,-0.140
10.147,-0.610,-0.155
10.150,-0.620,-0.155
10.153,-0.615,-0.140
10.156,-0.615,-0.145
10.158,-0.605,-0.140
10.161,-0.605,-0.130
10.164,-0.585,-0.130
10.167,-0.565,-0.135
10.169,-0.540,-0.140
10.172,-0.520,-0.145
10.175,-0.510,-0.170
10.178,-0.505,-0.180
10.181,-0.510,-0.190
10.183,-0.490,-0.195
10.186,-0.495,-0.195
10.189,-0.505,-0.195
10.192,-0.510,-0.195
10.194,-0.530,-0.175
10.197,-0.530,-0.185
10.200,-0.520,-0.170
10.203,-0.495,-0.165
10.206,-0.495,-0.160
10.208,-0.480,-0.165
10.211,-0.485,-0.165
10.214,-0.490,-0.190
10.217,-0.510,-0.200
10.219,-0.515,-0.205
10.222,-0.525,-0.215
10.225,-0.545,-0.215
10.228,-0.565,-0.205
10.231,-0.570,-0.215
10.233,-0.585,-0.205
10.236,-0.595,-0.200
10.239,-0.620,-0.185
10.242,-0.625,-0.200
10.244,-0.630,-0.225
10.247,-0.655,-0.225
10.250,-0.650,-0.215
10.253,-0.645,-0.225
10.256,-0.660,-0.230
10.258,-0.655,-0.235
10.261,-0.640,-0.225
10.264,-0.650,-0.215
10.267,-0.665,-0.225
10.269,-0.655,-0.210
10.272,-0.645,-0.195
10.275,-0.645,-0.215
10.278,-0.650,-0.210
10.281,-0.655,-0.215
10.283,-0.660,-0.225
10.286,-0.690,-0.225
10.289,-0.675,-0.230
10.292,-0.685,-0.225
10.294,-0.665,-0.210
10.297,-0.675,-0.210
10.300,-0.675,-0.215
10.303,-0.665,-0.200
10.306,-0.640,-0.205
10.308,-0.645,-0.210
10.311,-0.645,-0.190
10.314,-0.650,-0.210
10.317,-0.645,-0.220
10.319,-0.650,-0.220
10.322,-0.650,-0.220
10.325,-0.650,-0.215
10.328,-0.645,-0.220
10.331,-0.645,-0.200
10.333,-0.625,-0.190
10.336,-0.620,-0.175
10.339,-0.590,-0.150
10.342,-0.585,-0.155
10.344,-0.580,-0.165
10.347,-0.570,-0.180
10.350,-0.580,-0.225
10.353,-0.565,-0.280
10.356,-0.535,-0.330
10.358,-0.485,-0.400
10.361,-0.430,-0.465
10.364,-0.300,-0.540
10.367,-0.130,-0.600
10.369,0.105,-0.655
10.372,0.410,-0.670
10.375,0.760,-0.655
10.378,1.140,-0.615
10.381,1.470,-0.545
10.383,1.685,-0.470
10.386,1.715,-0.390
10.389,1.500,-0.330
10.392,1.075,-0.275
10.394,0.455,-0.255
10.397,-0.185,-0.240
10.400,-0.825,-0.250
10.403,-1.320,-0.260
10.406,-1.455,-0.280
10.408,-1.350,-0.295
10.411,-1.125,-0.270
10.414,-0.875,-0.250
10.417,-0.685,-0.210
10.419,-0.550,-0.185
10.422,-0.495,-0.165
10.425,-0.475,-0.170
10.428,-0.495,-0.165
10.431,-0.520,-0.155
10.433,-0.565,-0.155
10.436,-0.585,-0.160
10.439,-0.585,-0.150
10.442,-0.565,-0.170
10.444,-0.555,-0.150
10.447,-0.560,-0.160
10.450,-0.565,-0.165
10.453,-0.555,-0.180
10.456,-0.570,-0.190
10.458,-0.565,-0.185
10.461,-0.570,-0.175
10.464,-0.565,-0.160
10.467,-0.555,-0.160
10.469,-0.550,-0.160
10.472,-0.545,-0.145
10.475,-0.540,-0.165
10.478,-0.535,-0.165
10.481,-0.530,-0.175
10.483,-0.540,-0.170
10.486,-0.535,-0.180
10.489,-0.555,-0.180
10.492,-0.555,-0.180
10.494,-0.545,-0.185
10.497,-0.540,-0.180
10.500,-0.535,-0.160
10.503,-0.525,-0.160
10.506,-0.525,-0.155
10.508,-0.525,-0.170
10.511,-0.535,-0.165
10.514,-0.525,-0.170
10.517,-0.540,-0.170
10.519,-0.540,-0.190
10.522,-0.550,-0.200
10.525,-0.550,-0.200
10.528,-0.545,-0.195
10.531,-0.540,-0.185
10.533,-0.535,-0.170
10.536,-0.530,-0.170
10.539,-0.515,-0.165
10.542,-0.505,-0.165
10.544,-0.520,-0.180
10.547,-0.520,-0.180
10.550,-0.515,-0.180
10.553,-0.520,-0.185
10.556,-0.515,-0.190
10.558,-0.530,-0.190
10.561,-0.525,-0.195
10.564,-0.515,-0.190
10.567,-0.515,-0.175
10.569,-0.510,-0.170
10.572,-0.485,-0.160
10.575,-0.495,-0.170
10.578,-0.500,-0.180
10.581,-0.500,-0.185
10.583,-0.515,-0.180
10.586,-0.505,-0.195
10.589,-0.510,-0.195
10.592,-0.510,-0.205
10.594,-0.500,-0.180
10.597,-0.505,-0.195
10.600,-0.490,-0.180
10.603,-0.485,-0.180
10.606,-0.480,-0.175
10.608,-0.480,-0.175
10.611,-0.475,-0.185
10.614,-0.475,-0.185
10.617,-0.480,-0.200
10.619,-0.475,-0.190
10.622,-0.485,-0.205
10.625,-0.495,-0.200
10.628,-0.505,-0.210
10.631,-0.475,-0.200
10.633,-0.470,-0.180
10.636,-0.460,-0.185
10.639,-0.455,-0.175
10.642,-0.450,-0.190
10.644,-0.455,-0.180
10.647,-0.445,-0.195
10.650,-0.445,-0.190
10.653,-0.455,-0.200
10.656,-0.460,-0.205
10.658,-0.455,-0.205
10.661,-0.440,-0.210
10.664,-0.440,-0.190
10.667,-0.425,-0.185
10.669,-0.410,-0.180
10.672,-0.395,-0.170
10.675,-0.395,-0.170
10.678,-0.385,-0.185
10.681,-0.385,-0.195
10.683,-0.390,-0.205
10.686,-0.390,-0.205
10.689,-0.385,-0.200
10.692,-0.400,-0.210
10.694,-0.395,-0.205
10.697,-0.380,-0.210
10.700,-0.370,-0.200
10.703,-0.355,-0.195
10.706,-0.350,-0.180
10.708,-0.340,-0.190
10.711,-0.360,-0.190
10.714,-0.355,-0.205
10.717,-0.350,-0.215
10.719,-0.365,-0.210
10.722,-0.370,-0.225
10.725,-0.365,-0.220
10.728,-0.360,-0.215
10.731,-0.345,-0.210
10.733,-0.340,-0.200
10.736,-0.345,-0.200
10.739,-0.325,-0.190
10.742,-0.330,-0.205
10.744,-0.325,-0.195
10.747,-0.335,-0.205
10.750,-0.340,-0.210
10.753,-0.340,-0.225
10.756,-0.360,-0.230
10.758,-0.370,-0.215
10.761,-0.375,-0.200
10.764,-0.380,-0.195
10.767,-0.380,-0.195
10.769,-0.400,-0.190
10.772,-0.395,-0.185
10.775,-0.405,-0.185
10.778,-0.430,-0.190
10.781,-0.460,-0.185
10.783,-0.480,-0.200
10.786,-0.495,-0.195
10.789,-0.520,-0.200
10.792,-0.530,-0.200
10.794,-0.555,-0.190
10.797,-0.570,-0.185
10.800,-0.580,-0.165
10.803,-0.585,-0.160
10.806,-0.590,-0.165
10.808,-0.590,-0.165
10.811,-0.610,-0.175
10.814,-0.615,-0.185
10.817,-0.625,-0.185
10.819,-0.630,-0.195
10.822,-0.655,-0.190
10.825,-0.660,-0.190
10.828,-0.665,-0.175
10.831,-0.650,-0.185
10.833,-0.650,-0.170
10.836,-0.650,-0.170
10.839,-0.640,-0.145
10.842,-0.650,-0.160
10.844,-0.650,-0.165
10.847,-0.650,-0.175
10.850,-0.660,-0.180
10.853,-0.665,-0.195
10.856,-0.660,-0.190
10.858,-0.665,-0.190
10.861,-0.650,-0.180
10.864,-0.660,-0.175
10.867,-0.650,-0.180
10.869,-0.645,-0.160
10.872,-0.640,-0.155
10.875,-0.630,-0.170
10.878,-0.630,-0.160
10.881,-0.625,-0.165
10.883,-0.635,-0.185
10.886,-0.635,-0.190
10.889,-0.645,-0.200
10.892,-0.640,-0.200
10.894,-0.620,-0.180
10.897,-0.620,-0.180
10.900,-0.610,-0.180
10.903,-0.610,-0.170
10.906,-0.595,-0.175
10.908,-0.580,-0.170
10.911,-0.585,-0.175
10.914,-0.580,-0.185
10.917,-0.590,-0.185
10.919,-0.595,-0.190
10.922,-0.605,-0.195
10.925,-0.610,-0.200
10.928,-0.620,-0.195
10.931,-0.595,-0.185
10.933,-0.590,-0.170
10.936,-0.585,-0.170
10.939,-0.575,-0.175
10.942,-0.570,-0.180
10.944,-0.570,-0.180
10.947,-0.580,-0.180
10.950,-0.590,-0.190
10.953,-0.610,-0.190
10.956,-0.620,-0.195
10.958,-0.630,-0.200
10.961,-0.630,-0.200
10.964,-0.630,-0.195
10.967,-0.625,-0.190
10.969,-0.620,-0.175
10.972,-0.610,-0.175
10.975,-0.600,-0.190
10.978,-0.600,-0.190
10.981,-0.600,-0.190
10.983,-0.605,-0.200
10.986,-0.615,-0.210
10.989,-0.625,-0.210
10.992,-0.635,-0.205
10.994,-0.630,-0.205
10.997,-0.620,-0.200
11.000,-0.620,-0.180
11.003,-0.605,-0.185
11.006,-0.610,-0.175
11.008,-0.615,-0.190
11.011,-0.620,-0.185
11.014,-0.630,-0.200
11.017,-0.630,-0.205
11.019,-0.640,-0.210
11.022,-0.650,-0.220
11.025,-0.650,-0.215
11.028,-0.650,-0.210
11.031,-0.645,-0.205
11.033,-0.650,-0.200
11.036,-0.645,-0.190
11.039,-0.630,-0.180
11.042,-0.610,-0.205
11.044,-0.630,-0.190
11.047,-0.625,-0.210
11.050,-0.645,-0.195
11.053,-0.655,-0.205
11.056,-0.660,-0.215
11.058,-0.650,-0.220
11.061,-0.635,-0.210
11.064,-0.635,-0.195
11.067,-0.640,-0.200
11.069,-0.625,-0.195
11.072,-0.625,-0.195
11.075,-0.620,-0.195
11.078,-0.625,-0.205
11.081,-0.615,-0.200
11.083,-0.635,-0.205
11.086,-0.620,-0.220
11.089,-0.645,-0.220
11.092,-0.640,-0.215
11.094,-0.630,-0.225
11.097,-0.625,-0.200
11.100,-0.610,-0.195
11.103,-0.615,-0.200
11.106,-0.615,-0.190
11.108,-0.610,-0.195
11.111,-0.615,-0.195
11.114,-0.615,-0.200
11.117,-0.620,-0.200
11.119,-0.630,-0.220
11.122,-0.640,-0.220
11.125,-0.615,-0.215
11.128,-0.620,-0.210
11.131,-0.630,-0.200
11.133,-0.620,-0.200
11.136,-0.620,-0.185
11.139,-0.610,-0.185
11.142,-0.600,-0.185
11.144,-0.605,-0.190
11.147,-0.610,-0.190
11.150,-0.605,-0.205
11.153,-0.610,-0.215
11.156,-0.620,-0.225
11.158,-0.630,-0.210
11.161,-0.620,-0.200
11.164,-0.625,-0.195
11.167,-0.600,-0.190
11.169,-0.605,-0.175
11.172,-0.600,-0.175
11.175,-0.585,-0.180
11.178,-0.595,-0.165
11.181,-0.600,-0.160
11.183,-0.600,-0.170
11.186,-0.600,-0.175
11.189,-0.610,-0.155
11.192,-0.605,-0.160
11.194,-0.600,-0.150
11.197,-0.575,-0.130
11.200,-0.540,-0.120
11.203,-0.530,-0.120
11.206,-0.510,-0.105
11.208,-0.485,-0.125
11.211,-0.490,-0.135
11.214,-0.485,-0.155
11.217,-0.470,-0.180
11.219,-0.475,-0.205
11.222,-0.465,-0.205
11.225,-0.465,-0.205
11.228,-0.440,-0.200
11.231,-0.430,-0.180
11.233,-0.430,-0.175
11.236,-0.430,-0.160
11.239,-0.435,-0.165
11.242,-0.420,-0.160
11.244,-0.430,-0.170
11.247,-0.430,-0.180
11.250,-0.440,-0.190
11.253,-0.440,-0.190
11.256,-0.450,-0.180
11.258,-0.450,-0.195
11.261,-0.460,-0.195
11.264,-0.450,-0.190
11.267,-0.455,-0.175
11.269,-0.455,-0.180
11.272,-0.465,-0.180
11.275,-0.475,-0.185
11.278,-0.495,-0.195
11.281,-0.510,-0.205
11.283,-0.515,-0.205
11.286,-0.545,-0.215
11.289,-0.550,-0.225
11.292,-0.550,-0.215
11.294,-0.555,-0.215
11.297,-0.555,-0.205
11.300,-0.565,-0.190
11.303,-0.550,-0.185
11.306,-0.545,-0.195
11.308,-0.535,-0.185
11.311,-0.535,-0.185
11.314,-0.535,-0.200
11.317,-0.545,-0.195
11.319,-0.550,-0.205
11.322,-0.555,-0.220
11.325,-0.560,-0.210
11.328,-0.565,-0.205
11.331,-0.565,-0.195
11.333,-0.565,-0.200
11.336,-0.565,-0.200
11.339,-0.545,-0.180
11.342,-0.530,-0.175
11.344,-0.545,-0.190
11.347,-0.530,-0.200
11.350,-0.530,-0.205
11.353,-0.535,-0.205
11.356,-0.540,-0.215
11.358,-0.545,-0.205
11.361,-0.550,-0.200
11.364,-0.530,-0.190
11.367,-0.515,-0.175
11.369,-0.500,-0.185
11.372,-0.490,-0.175
11.375,-0.475,-0.175
11.378,-0.480,-0.175
11.381,-0.470,-0.155
11.383,-0.460,-0.150
11.386,-0.460,-0.145
11.389,-0.465,-0.145
11.392,-0.470,-0.155
11.394,-0.460,-0.165
11.397,-0.445,-0.190
11.400,-0.425,-0.240
11.403,-0.395,-0.290
11.406,-0.345,-0.350
11.408,-0.255,-0.445
11.411,-0.145,-0.525
11.414,0.025,-0.615
11.417,0.260,-0.665
11.419,0.555,-0.680
11.422,0.905,-0.670
11.425,1.275,-0.595
11.428,1.600,-0.515
11.431,1.775,-0.405
11.433,1.740,-0.320
11.436,1.445,-0.250
11.439,0.900,-0.200
11.442,0.260,-0.210
11.444,-0.380,-0.215
11.447,-1.015,-0.250
11.450,-1.260,-0.275
11.453,-1.235,-0.285
11.456,-1.050,-0.260
11.458,-0.805,-0.225
11.461,-0.560,-0.170
11.464,-0.390,-0.140
11.467,-0.295,-0.110
11.469,-0.270,-0.100
11.472,-0.275,-0.100
11.475,-0.310,-0.100
11.478,-0.350,-0.120
11.481,-0.375,-0.130
11.483,-0.395,-0.135
11.486,-0.405,-0.130
11.489,-0.395,-0.135
11.492,-0.385,-0.130
11.494,-0.380,-0.130
11.497,-0.365,-0.115
11.500,-0.360,-0.120
11.503,-0.355,-0.115
11.506,-0.345,-0.100
11.508,-0.345,-0.110
11.511,-0.330,-0.120
11.514,-0.345,-0.115
11.517,-0.340,-0.130
11.519,-0.345,-0.125
11.522,-0.345,-0.140
11.525,-0.360,-0.125
11.528,-0.350,-0.125
11.531,-0.350,-0.125
11.533,-0.340,-0.110
11.536,-0.340,-0.115
11.539,-0.320,-0.110
11.542,-0.315,-0.115
11.544,-0.320,-0.125
11.547,-0.305,-0.120
11.550,-0.325,-0.130
11.553,-0.330,-0.130
11.556,-0.340,-0.140
11.558,-0.335,-0.135
11.561,-0.340,-0.125
11.564,-0.325,-0.130
11.567,-0.315,-0.110
11.569,-0.300,-0.115
11.572,-0.305,-0.110
11.575,-0.295,-0.105
11.578,-0.290,-0.120
11.581,-0.310,-0.120
11.583,-0.320,-0.130
11.586,-0.310,-0.135
11.589,-0.310,-0.130
11.592,-0.310,-0.130
11.594,-0.315,-0.135
11.597,-0.320,-0.125
11.600,-0.310,-0.125
11.603,-0.290,-0.105
11.606,-0.290,-0.115
11.608,-0.285,-0.100
11.611,-0.285,-0.110
11.614,-0.285,-0.120
11.617,-0.280,-0.130
11.619,-0.285,-0.135
11.622,-0.290,-0.145
11.625,-0.295,-0.130
11.628,-0.295,-0.130
11.631,-0.290,-0.130
11.633,-0.290,-0.125
11.636,-0.275,-0.120
11.639,-0.265,-0.125
11.642,-0.255,-0.105
11.644,-0.275,-0.110
11.647,-0.260,-0.115
11.650,-0.265,-0.135
11.653,-0.265,-0.130
11.656,-0.265,-0.155
11.658,-0.265,-0.145
11.661,-0.260,-0.150
11.664,-0.280,-0.125
11.667,-0.260,-0.130
11.669,-0.240,-0.110
11.672,-0.250,-0.110
11.675,-0.225,-0.130
11.678,-0.215,-0.130
11.681,-0.215,-0.130
11.683,-0.225,-0.140
11.686,-0.220,-0.140
11.689,-0.215,-0.145
11.692,-0.215,-0.145
11.694,-0.200,-0.145
11.697,-0.200,-0.135
11.700,-0.185,-0.120
11.703,-0.185,-0.130
11.706,-0.170,-0.110
11.708,-0.170,-0.115
11.711,-0.165,-0.115
11.714,-0.170,-0.125
11.717,-0.170,-0.135
11.719,-0.180,-0.140
11.722,-0.165,-0.140
11.725,-0.170,-0.150
11.728,-0.175,-0.145
11.731,-0.145,-0.145
11.733,-0.140,-0.135
11.736,-0.140,-0.125
11.739,-0.125,-0.115
11.742,-0.115,-0.110
11.744,-0.110,-0.125
11.747,-0.120,-0.135
11.750,-0.125,-0.140
11.753,-0.130,-0.145
11.756,-0.145,-0.150
11.758,-0.145,-0.155
11.761,-0.140,-0.150
11.764,-0.140,-0.145
11.767,-0.135,-0.135
11.769,-0.130,-0.135
11.772,-0.115,-0.130
11.775,-0.105,-0.145
11.778,-0.100,-0.140
11.781,-0.105,-0.140
11.783,-0.105,-0.155
11.786,-0.105,-0.155
11.789,-0.110,-0.160
11.792,-0.115,-0.160
11.794,-0.115,-0.150
11.797,-0.120,-0.140
11.800,-0.120,-0.140
11.803,-0.125,-0.130
11.806,-0.120,-0.115
11.808,-0.130,-0.115
11.811,-0.135,-0.125
11.814,-0.150,-0.135
11.817,-0.160,-0.125
11.819,-0.180,-0.135
11.822,-0.210,-0.140
11.825,-0.220,-0.130
11.828,-0.235,-0.130
11.831,-0.255,-0.125
11.833,-0.260,-0.125
11.836,-0.265,-0.120
11.839,-0.275,-0.100
11.842,-0.280,-0.105
11.844,-0.280,-0.110
11.847,-0.295,-0.115
11.850,-0.290,-0.110
11.853,-0.300,-0.125
11.856,-0.310,-0.120
11.858,-0.320,-0.125
11.861,-0.325,-0.120
11.864,-0.350,-0.100
11.867,-0.340,-0.110
11.869,-0.325,-0.100
11.872,-0.320,-0.095
11.875,-0.315,-0.100
11.878,-0.315,-0.090
11.881,-0.320,-0.100
11.883,-0.325,-0.125
11.886,-0.345,-0.120
11.889,-0.340,-0.110
11.892,-0.350,-0.125
11.894,-0.345,-0.115
11.897,-0.330,-0.105
11.900,-0.330,-0.095
11.903,-0.325,-0.100
11.906,-0.300,-0.090
11.908,-0.295,-0.090
11.911,-0.295,-0.100
11.914,-0.285,-0.090
11.917,-0.285,-0.100
11.919,-0.280,-0.120
11.922,-0.290,-0.115
11.925,-0.305,-0.120
11.928,-0.315,-0.105
11.931,-0.285,-0.110
11.933,-0.285,-0.100
11.936,-0.275,-0.110
11.939,-0.250,-0.090
11.942,-0.265,-0.105
11.944,-0.255,-0.100
11.947,-0.250,-0.105
11.950,-0.255,-0.100
11.953,-0.270,-0.130
11.956,-0.275,-0.115
11.958,-0.265,-0.120
11.961,-0.270,-0.115
11.964,-0.270,-0.115
11.967,-0.265,-0.100
11.969,-0.255,-0.095
11.972,-0.240,-0.090
11.975,-0.235,-0.100
11.978,-0.240,-0.110
11.981,-0.230,-0.100
11.983,-0.250,-0.115
11.986,-0.250,-0.135
11.989,-0.255,-0.125
11.992,-0.265,-0.130
11.994,-0.265,-0.120
11.997,-0.265,-0.120
12.000,-0.245,-0.115
12.003,-0.260,-0.115
12.006,-0.250,-0.110
12.008,-0.240,-0.115
12.011,-0.255,-0.120
12.014,-0.245,-0.120
12.017,-0.250,-0.125
12.019,-0.255,-0.135
12.022,-0.270,-0.135
12.025,-0.275,-0.150
12.028,-0.285,-0.130
12.031,-0.280,-0.135
12.033,-0.270,-0.135
12.036,-0.275,-0.115
12.039,-0.255,-0.115
12.042,-0.255,-0.115
12.044,-0.260,-0.120
12.047,-0.250,-0.120
12.050,-0.265,-0.140
12.053,-0.265,-0.140
12.056,-0.270,-0.140
12.058,-0.290,-0.155
12.061,-0.290,-0.145
12.064,-0.300,-0.130
12.067,-0.285,-0.125
12.069,-0.280,-0.120
12.072,-0.275,-0.110
12.075,-0.265,-0.120
12.078,-0.270,-0.115
12.081,-0.280,-0.125
12.083,-0.285,-0.125
12.086,-0.290,-0.130
12.089,-0.290,-0.145
12.092,-0.295,-0.135
12.094,-0.280,-0.140
12.097,-0.280,-0.130
12.100,-0.290,-0.135
12.103,-0.295,-0.125
12.106,-0.295,-0.120
12.108,-0.275,-0.110
12.111,-0.270,-0.125
12.114,-0.270,-0.125
12.117,-0.270,-0.140
12.119,-0.280,-0.150
12.122,-0.285,-0.135
12.125,-0.275,-0.150
12.128,-0.280,-0.130
12.131,-0.290,-0.125
12.133,-0.275,-0.120
12.136,-0.290,-0.130
12.139,-0.290,-0.120
12.142,-0.275,-0.125
12.144,-0.260,-0.130
12.147,-0.270,-0.120
12.150,-0.275,-0.140
12.153,-0.290,-0.135
12.156,-0.300,-0.145
12.158,-0.305,-0.140
12.161,-0.295,-0.140
12.164,-0.295,-0.135
12.167,-0.290,-0.125
12.169,-0.280,-0.125
12.172,-0.265,-0.115
12.175,-0.265,-0.120
12.178,-0.270,-0.110
12.181,-0.270,-0.130
12.183,-0.270,-0.135
12.186,-0.290,-0.145
12.189,-0.285,-0.145
12.192,-0.285,-0.130
12.194,-0.290,-0.135
12.197,-0.280,-0.140
12.200,-0.280,-0.125
12.203,-0.275,-0.115
12.206,-0.280,-0.110
12.208,-0.280,-0.105
12.211,-0.275,-0.125
12.214,-0.265,-0.125
12.217,-0.275,-0.120
12.219,-0.290,-0.145
12.222,-0.290,-0.125
12.225,-0.295,-0.125
12.228,-0.295,-0.120
12.231,-0.295,-0.105
12.233,-0.290,-0.100
12.236,-0.280,-0.070
12.239,-0.280,-0.075
12.242,-0.250,-0.055
12.244,-0.240,-0.055
12.247,-0.230,-0.060
12.250,-0.240,-0.065
12.253,-0.225,-0.075
12.256,-0.215,-0.070
12.258,-0.210,-0.090
12.261,-0.205,-0.090
12.264,-0.190,-0.100
12.267,-0.175,-0.105
12.269,-0.170,-0.110
12.272,-0.150,-0.115
12.275,-0.140,-0.115
12.278,-0.125,-0.115
12.281,-0.120,-0.115
12.283,-0.130,-0.125
12.286,-0.135,-0.120
12.289,-0.160,-0.120
12.292,-0.155,-0.120
12.294,-0.175,-0.125
12.297,-0.155,-0.110
12.300,-0.165,-0.105
12.303,-0.150,-0.105
12.306,-0.145,-0.095
12.308,-0.145,-0.100
12.311,-0.145,-0.115
12.314,-0.150,-0.115
12.317,-0.160,-0.125
12.319,-0.175,-0.135
12.322,-0.195,-0.155
12.325,-0.210,-0.160
12.328,-0.230,-0.155
12.331,-0.245,-0.150
12.333,-0.250,-0.135
12.336,-0.255,-0.140
12.339,-0.265,-0.130
12.342,-0.265,-0.130
12.344,-0.265,-0.130
12.347,-0.270,-0.135
12.350,-0.260,-0.155
12.353,-0.290,-0.155
12.356,-0.285,-0.150
12.358,-0.295,-0.155
12.361,-0.295,-0.145
12.364,-0.295,-0.140
12.367,-0.285,-0.140
12.369,-0.280,-0.130
12.372,-0.280,-0.115
12.375,-0.270,-0.120
12.378,-0.275,-0.125
12.381,-0.275,-0.125
12.383,-0.285,-0.140
12.386,-0.300,-0.145
12.389,-0.300,-0.150
12.392,-0.300,-0.150
12.394,-0.300,-0.135
12.397,-0.300,-0.135
12.400,-0.285,-0.140
12.403,-0.275,-0.120
12.406,-0.285,-0.120
12.408,-0.265,-0.120
12.411,-0.270,-0.130
12.414,-0.260,-0.130
12.417,-0.275,-0.130
12.419,-0.285,-0.140
12.422,-0.280,-0.140
12.425,-0.280,-0.135
12.428,-0.270,-0.120
12.431,-0.245,-0.095
12.433,-0.235,-0.090
12.436,-0.225,-0.085
12.439,-0.200,-0.095
12.442,-0.200,-0.135
12.444,-0.170,-0.210
12.447,-0.135,-0.305
12.450,-0.050,-0.410
12.453,0.080,-0.515
12.456,0.295,-0.585
12.458,0.585,-0.620
12.461,0.940,-0.590
12.464,1.320,-0.535
12.467,1.645,-0.430
12.469,1.850,-0.320
12.472,1.870,-0.230
12.475,1.640,-0.170
12.478,1.160,-0.135
12.481,0.520,-0.120
12.483,-0.120,-0.135
12.486,-0.745,-0.160
12.489,-1.040,-0.200
12.492,-1.065,-0.220
12.494,-0.890,-0.200
12.497,-0.645,-0.175
12.500,-0.400,-0.130
12.503,-0.210,-0.090
12.506,-0.120,-0.055
12.508,-0.070,-0.050
12.511,-0.075,-0.050
12.514,-0.130,-0.065
12.517,-0.165,-0.075
12.519,-0.215,-0.085
12.522,-0.225,-0.090
12.525,-0.240,-0.095
12.528,-0.230,-0.095
12.531,-0.210,-0.090
12.533,-0.195,-0.080
12.536,-0.180,-0.065
12.539,-0.175,-0.065
12.542,-0.165,-0.060
12.544,-0.165,-0.065
12.547,-0.170,-0.075
12.550,-0.175,-0.075
12.553,-0.185,-0.085
12.556,-0.195,-0.095
12.558,-0.190,-0.090
12.561,-0.200,-0.090
12.564,-0.195,-0.095
12.567,-0.175,-0.070
12.569,-0.175,-0.075
12.572,-0.185,-0.070
12.575,-0.175,-0.080
12.578,-0.170,-0.075
12.581,-0.170,-0.075
12.583,-0.165,-0.090
12.586,-0.175,-0.080
12.589,-0.160,-0.100
12.592,-0.180,-0.100
12.594,-0.180,-0.095
12.597,-0.185,-0.085
12.600,-0.185,-0.075
12.603,-0.175,-0.080
12.606,-0.155,-0.070
12.608,-0.160,-0.080
12.611,-0.150,-0.080
12.614,-0.165,-0.080
12.617,-0.160,-0.080
12.619,-0.165,-0.100
12.622,-0.180,-0.105
12.625,-0.195,-0.105
12.628,-0.190,-0.105
12.631,-0.190,-0.095
12.633,-0.180,-0.090
12.636,-0.180,-0.090
12.639,-0.175,-0.085
12.642,-0.160,-0.080
12.644,-0.180,-0.095
12.647,-0.165,-0.095
12.650,-0.175,-0.090
12.653,-0.190,-0.100
12.656,-0.190,-0.110
12.658,-0.195,-0.110
12.661,-0.190,-0.105
12.664,-0.180,-0.110
12.667,-0.180,-0.095
12.669,-0.185,-0.105
12.672,-0.180,-0.080
12.675,-0.175,-0.085
12.678,-0.165,-0.095
12.681,-0.175,-0.100
12.683,-0.175,-0.095
12.686,-0.180,-0.115
12.689,-0.180,-0.110
12.692,-0.180,-0.110
12.694,-0.175,-0.115
12.697,-0.175,-0.105
12.700,-0.170,-0.110
12.703,-0.170,-0.105
12.706,-0.160,-0.095
12.708,-0.155,-0.090
12.711,-0.150,-0.110
12.714,-0.135,-0.105
12.717,-0.145,-0.115
12.719,-0.140,-0.125
12.722,-0.145,-0.130
12.725,-0.155,-0.120
12.728,-0.150,-0.120
12.731,-0.150,-0.115
12.733,-0.145,-0.115
12.736,-0.130,-0.115
12.739,-0.125,-0.110
12.742,-0.125,-0.090
12.744,-0.115,-0.110
12.747,-0.125,-0.105
12.750,-0.130,-0.125
12.753,-0.125,-0.120
12.756,-0.130,-0.135
12.758,-0.125,-0.135
12.761,-0.125,-0.130
12.764,-0.115,-0.120
12.767,-0.115,-0.130
12.769,-0.115,-0.125
12.772,-0.095,-0.125
12.775,-0.095,-0.115
12.778,-0.095,-0.125
12.781,-0.105,-0.120
12.783,-0.110,-0.130
12.786,-0.105,-0.135
12.789,-0.115,-0.150
12.792,-0.125,-0.145
12.794,-0.130,-0.135
12.797,-0.125,-0.135
12.800,-0.115,-0.140
12.803,-0.120,-0.135
12.806,-0.110,-0.130
12.808,-0.100,-0.120
12.811,-0.095,-0.120
12.814,-0.110,-0.125
12.817,-0.110,-0.140
12.819,-0.110,-0.150
12.822,-0.100,-0.150
12.825,-0.125,-0.150
12.828,-0.120,-0.145
12.831,-0.120,-0.135
12.833,-0.115,-0.135
12.836,-0.120,-0.125
12.839,-0.115,-0.115
12.842,-0.130,-0.110
12.844,-0.145,-0.115
12.847,-0.160,-0.110
12.850,-0.180,-0.115
12.853,-0.200,-0.120
12.856,-0.235,-0.120
12.858,-0.250,-0.125
12.861,-0.260,-0.110
12.864,-0.280,-0.110
12.867,-0.290,-0.100
12.869,-0.295,-0.100
12.872,-0.290,-0.100
12.875,-0.295,-0.075
12.878,-0.305,-0.085
12.881,-0.320,-0.085
12.883,-0.325,-0.095
12.886,-0.335,-0.100
12.889,-0.350,-0.110
12.892,-0.370,-0.110
12.894,-0.375,-0.105
12.897,-0.370,-0.110
12.900,-0.370,-0.095
12.903,-0.360,-0.095
12.906,-0.350,-0.080
12.908,-0.350,-0.085
12.911,-0.345,-0.080
12.914,-0.350,-0.085
12.917,-0.370,-0.095
12.919,-0.370,-0.095
12.922,-0.395,-0.105
12.925,-0.400,-0.105
12.928,-0.390,-0.110
12.931,-0.395,-0.100
12.933,-0.395,-0.085
12.936,-0.360,-0.085
12.939,-0.360,-0.085
12.942,-0.360,-0.080
12.944,-0.350,-0.085
12.947,-0.360,-0.095
12.950,-0.355,-0.105
12.953,-0.365,-0.120
12.956,-0.370,-0.120
12.958,-0.375,-0.115
12.961,-0.355,-0.105
12.964,-0.350,-0.105
12.967,-0.350,-0.110
12.969,-0.345,-0.095
12.972,-0.360,-0.090
12.975,-0.340,-0.085
12.978,-0.345,-0.095
12.981,-0.340,-0.095
12.983,-0.350,-0.110
12.986,-0.350,-0.110
12.989,-0.355,-0.110
12.992,-0.360,-0.115
12.994,-0.345,-0.115
12.997,-0.350,-0.110
13.000,-0.340,-0.100
13.003,-0.340,-0.105
13.006,-0.340,-0.090
13.008,-0.345,-0.090
13.011,-0.335,-0.105
13.014,-0.335,-0.105
13.017,-0.345,-0.115
13.019,-0.345,-0.115
13.022,-0.360,-0.125
13.025,-0.375,-0.125
13.028,-0.380,-0.120
13.031,-0.370,-0.125
13.033,-0.380,-0.110
13.036,-0.370,-0.095
13.039,-0.365,-0.100
13.042,-0.375,-0.100
13.044,-0.375,-0.105
13.047,-0.380,-0.105
13.050,-0.380,-0.120
13.053,-0.380,-0.125
13.056,-0.395,-0.135
13.058,-0.395,-0.140
13.061,-0.410,-0.120
13.064,-0.410,-0.120
13.067,-0.400,-0.125
13.069,-0.415,-0.115
13.072,-0.405,-0.105
13.075,-0.385,-0.100
13.078,-0.400,-0.120
13.081,-0.390,-0.110
13.083,-0.400,-0.130
13.086,-0.410,-0.130
13.089,-0.425,-0.135
13.092,-0.430,-0.150
13.094,-0.440,-0.135
13.097,-0.435,-0.135
13.100,-0.430,-0.120
13.103,-0.440,-0.125
13.106,-0.430,-0.125
13.108,-0.420,-0.090
13.111,-0.430,-0.120
13.114,-0.415,-0.120
13.117,-0.435,-0.135
13.119,-0.435,-0.135
13.122,-0.435,-0.135
13.125,-0.450,-0.135
13.128,-0.450,-0.135
13.131,-0.450,-0.130
13.133,-0.440,-0.125
13.136,-0.440,-0.120
13.139,-0.440,-0.115
13.142,-0.435,-0.120
13.144,-0.440,-0.120
13.147,-0.430,-0.125
13.150,-0.435,-0.120
13.153,-0.445,-0.140
13.156,-0.445,-0.130
13.158,-0.450,-0.135
13.161,-0.460,-0.125
13.164,-0.465,-0.110
13.167,-0.470,-0.095
13.169,-0.450,-0.090
13.172,-0.435,-0.070
13.175,-0.410,-0.065
13.178,-0.410,-0.070
13.181,-0.395,-0.070
13.183,-0.375,-0.080
13.186,-0.380,-0.095
13.189,-0.375,-0.115
13.192,-0.370,-0.115
13.194,-0.360,-0.120
13.197,-0.345,-0.140
13.200,-0.350,-0.140
13.203,-0.325,-0.115
13.206,-0.305,-0.125
13.208,-0.295,-0.105
13.211,-0.285,-0.115
13.214,-0.295,-0.115
13.217,-0.305,-0.115
13.219,-0.315,-0.120
13.222,-0.325,-0.140
13.225,-0.335,-0.130
13.228,-0.335,-0.120
13.231,-0.345,-0.120
13.233,-0.335,-0.105
13.236,-0.330,-0.110
13.239,-0.335,-0.110
13.242,-0.335,-0.115
13.244,-0.345,-0.120
13.247,-0.355,-0.135
13.250,-0.370,-0.145
13.253,-0.400,-0.160
13.256,-0.420,-0.160
13.258,-0.445,-0.175
13.261,-0.465,-0.165
13.264,-0.485,-0.160
13.267,-0.480,-0.145
13.269,-0.475,-0.140
13.272,-0.455,-0.145
13.275,-0.455,-0.130
13.278,-0.460,-0.145
13.281,-0.465,-0.145
13.283,-0.465,-0.150
13.286,-0.475,-0.150
13.289,-0.490,-0.165
13.292,-0.505,-0.170
13.294,-0.505,-0.160
13.297,-0.515,-0.160
13.300,-0.515,-0.150
13.303,-0.495,-0.145
13.306,-0.500,-0.150
13.308,-0.495,-0.140
13.311,-0.490,-0.145
13.314,-0.490,-0.145
13.317,-0.500,-0.165
13.319,-0.500,-0.170
13.322,-0.510,-0.165
13.325,-0.510,-0.165
13.328,-0.515,-0.155
13.331,-0.520,-0.170
13.333,-0.510,-0.145
13.336,-0.500,-0.150
13.339,-0.490,-0.135
13.342,-0.490,-0.125
13.344,-0.480,-0.140
13.347,-0.475,-0.135
13.350,-0.470,-0.140
13.353,-0.475,-0.135
13.356,-0.480,-0.140
13.358,-0.480,-0.125
13.361,-0.475,-0.110
13.364,-0.455,-0.135
13.367,-0.455,-0.165
13.369,-0.430,-0.205
13.372,-0.400,-0.275
13.375,-0.340,-0.340
13.378,-0.270,-0.440
13.381,-0.125,-0.525
13.383,0.065,-0.575
13.386,0.315,-0.610
13.389,0.640,-0.605
13.392,0.990,-0.555
13.394,1.330,-0.470
13.397,1.595,-0.365
13.400,1.710,-0.285
13.403,1.645,-0.205
13.406,1.370,-0.160
13.408,0.910,-0.115
13.411,0.295,-0.130
13.414,-0.345,-0.140
13.417,-0.900,-0.170
13.419,-1.210,-0.195
13.422,-1.270,-0.225
13.425,-1.145,-0.230
13.428,-0.910,-0.200
13.431,-0.680,-0.180
13.433,-0.485,-0.145
13.436,-0.380,-0.100
13.439,-0.325,-0.100
13.442,-0.330,-0.090
13.444,-0.350,-0.100
13.447,-0.395,-0.110
13.450,-0.425,-0.120
13.453,-0.450,-0.125
13.456,-0.455,-0.130
13.458,-0.465,-0.145
13.461,-0.445,-0.135
13.464,-0.440,-0.130
13.467,-0.435,-0.130
13.469,-0.420,-0.120
13.472,-0.415,-0.120
13.475,-0.420,-0.110
13.478,-0.420,-0.120
13.481,-0.430,-0.125
13.483,-0.420,-0.125
13.486,-0.420,-0.140
13.489,-0.435,-0.140
13.492,-0.440,-0.155
13.494,-0.435,-0.130
13.497,-0.440,-0.130
13.500,-0.425,-0.125
13.503,-0.425,-0.120
13.506,-0.420,-0.125
13.508,-0.410,-0.115
13.511,-0.415,-0.125
13.514,-0.410,-0.130
13.517,-0.410,-0.140
13.519,-0.410,-0.145
13.522,-0.415,-0.155
13.525,-0.430,-0.150
13.528,-0.430,-0.155
13.531,-0.430,-0.145
13.533,-0.425,-0.140
13.536,-0.420,-0.135
13.539,-0.415,-0.130
13.542,-0.410,-0.135
13.544,-0.405,-0.150
13.547,-0.415,-0.140
13.550,-0.415,-0.155
13.553,-0.425,-0.160
13.556,-0.425,-0.160
13.558,-0.430,-0.170
13.561,-0.430,-0.170
13.564,-0.430,-0.160
13.567,-0.420,-0.145
13.569,-0.420,-0.155
13.572,-0.415,-0.140
13.575,-0.405,-0.145
13.578,-0.410,-0.140
13.581,-0.410,-0.155
13.583,-0.410,-0.155
13.586,-0.420,-0.155
13.589,-0.425,-0.170
13.592,-0.425,-0.175
13.594,-0.430,-0.170
13.597,-0.435,-0.160
13.600,-0.425,-0.165
13.603,-0.415,-0.155
13.606,-0.410,-0.145
13.608,-0.390,-0.150
13.611,-0.400,-0.160
13.614,-0.395,-0.160
13.617,-0.400,-0.165
13.619,-0.395,-0.180
13.622,-0.400,-0.165
13.625,-0.410,-0.180
13.628,-0.415,-0.175
13.631,-0.410,-0.175
13.633,-0.405,-0.160
13.636,-0.395,-0.160
13.639,-0.390,-0.160
13.642,-0.380,-0.150
13.644,-0.375,-0.160
13.647,-0.365,-0.165
13.650,-0.375,-0.165
13.653,-0.375,-0.175
13.656,-0.385,-0.185
13.658,-0.390,-0.185
13.661,-0.405,-0.180
13.664,-0.385,-0.175
13.667,-0.385,-0.180
13.669,-0.395,-0.175
13.672,-0.375,-0.170
13.675,-0.355,-0.155
13.678,-0.350,-0.180
13.681,-0.340,-0.175
13.683,-0.345,-0.180
13.686,-0.350,-0.195
13.689,-0.350,-0.195
13.692,-0.350,-0.200
13.694,-0.365,-0.195
13.697,-0.360,-0.190
13.700,-0.335,-0.195
13.703,-0.345,-0.190
13.706,-0.335,-0.175
13.708,-0.325,-0.170
13.711,-0.315,-0.185
13.714,-0.320,-0.180
13.717,-0.320,-0.195
13.719,-0.330,-0.205
13.722,-0.335,-0.210
13.725,-0.355,-0.210
13.728,-0.350,-0.215
13.731,-0.340,-0.215
13.733,-0.335,-0.210
13.736,-0.340,-0.200
13.739,-0.325,-0.190
13.742,-0.315,-0.180
13.744,-0.315,-0.190
13.747,-0.320,-0.205
13.750,-0.330,-0.205
13.753,-0.330,-0.220
13.756,-0.350,-0.235
13.758,-0.345,-0.230
13.761,-0.350,-0.225
13.764,-0.345,-0.215
13.767,-0.345,-0.215
13.769,-0.335,-0.195
13.772,-0.325,-0.195
13.775,-0.345,-0.195
13.778,-0.345,-0.185
13.781,-0.350,-0.205
13.783,-0.365,-0.185
13.786,-0.380,-0.210
13.789,-0.405,-0.205
13.792,-0.420,-0.215
13.794,-0.445,-0.210
13.797,-0.450,-0.200
13.800,-0.450,-0.180
13.803,-0.465,-0.190
13.806,-0.480,-0.170
13.808,-0.485,-0.175
13.811,-0.495,-0.180
13.814,-0.500,-0.175
13.817,-0.515,-0.185
13.819,-0.535,-0.185
13.822,-0.545,-0.185
13.825,-0.575,-0.185
13.828,-0.580,-0.195
13.831,-0.575,-0.185
13.833,-0.590,-0.190
13.836,-0.590,-0.185
13.839,-0.590,-0.180
13.842,-0.590,-0.170
13.844,-0.590,-0.170
13.847,-0.605,-0.175
13.850,-0.600,-0.185
13.853,-0.610,-0.195
13.856,-0.625,-0.190
13.858,-0.635,-0.200
13.861,-0.635,-0.185
13.864,-0.635,-0.185
13.867,-0.635,-0.175
13.869,-0.635,-0.170
13.872,-0.625,-0.180
13.875,-0.615,-0.170
13.878,-0.610,-0.180
13.881,-0.605,-0.170
13.883,-0.620,-0.190
13.886,-0.635,-0.195
13.889,-0.620,-0.195
13.892,-0.635,-0.200
13.894,-0.635,-0.195
13.897,-0.625,-0.200
13.900,-0.615,-0.190
13.903,-0.610,-0.180
13.906,-0.595,-0.175
13.908,-0.590,-0.160
13.911,-0.590,-0.180
13.914,-0.585,-0.180
13.917,-0.575,-0.185
13.919,-0.585,-0.195
13.922,-0.590,-0.200
13.925,-0.600,-0.210
13.928,-0.600,-0.200
13.931,-0.595,-0.200
13.933,-0.595,-0.200
13.936,-0.590,-0.195
13.939,-0.590,-0.195
13.942,-0.570,-0.185
13.944,-0.560,-0.180
13.947,-0.555,-0.195
13.950,-0.550,-0.200
13.953,-0.555,-0.210
13.956,-0.565,-0.215
13.958,-0.580,-0.225
13.961,-0.590,-0.210
13.964,-0.575,-0.215
13.967,-0.575,-0.205
13.969,-0.575,-0.215
13.972,-0.570,-0.190
13.975,-0.560,-0.195
13.978,-0.565,-0.200
13.981,-0.575,-0.200
13.983,-0.580,-0.220
13.986,-0.575,-0.220
13.989,-0.590,-0.230
13.992,-0.595,-0.230
13.994,-0.605,-0.220
13.997,-0.605,-0.225
14.000,-0.600,-0.215
14.003,-0.600,-0.205
14.006,-0.575,-0.205
14.008,-0.580,-0.205
14.011,-0.585,-0.210
14.014,-0.585,-0.205
14.017,-0.595,-0.215
14.019,-0.605,-0.225
14.022,-0.620,-0.240
14.025,-0.610,-0.235
14.028,-0.620,-0.240
14.031,-0.610,-0.235
14.033,-0.610,-0.230
14.036,-0.600,-0.220
14.039,-0.605,-0.215
14.042,-0.605,-0.215
14.044,-0.590,-0.220
14.047,-0.595,-0.225
14.050,-0.595,-0.240
14.053,-0.610,-0.240
14.056,-0.615,-0.240
14.058,-0.625,-0.250
14.061,-0.635,-0.240
14.064,-0.630,-0.240
14.067,-0.635,-0.235
14.069,-0.625,-0.220
14.072,-0.630,-0.215
14.075,-0.620,-0.210
14.078,-0.625,-0.215
14.081,-0.630,-0.215
14.083,-0.625,-0.230
14.086,-0.635,-0.235
14.089,-0.640,-0.260
14.092,-0.645,-0.250
14.094,-0.665,-0.250
14.097,-0.650,-0.245
14.100,-0.650,-0.240
14.103,-0.635,-0.225
14.106,-0.630,-0.230
14.108,-0.620,-0.225
14.111,-0.620,-0.235
14.114,-0.610,-0.225
14.117,-0.615,-0.230
14.119,-0.620,-0.245
14.122,-0.645,-0.255
14.125,-0.650,-0.265
14.128,-0.645,-0.250
14.131,-0.645,-0.255
14.133,-0.640,-0.240
14.136,-0.645,-0.225
14.139,-0.635,-0.210
14.142,-0.625,-0.210
14.144,-0.625,-0.220
14.147,-0.615,-0.210
14.150,-0.625,-0.205
14.153,-0.625,-0.200
14.156,-0.625,-0.205
14.158,-0.625,-0.200
14.161,-0.620,-0.185
14.164,-0.615,-0.200
14.167,-0.590,-0.180
14.169,-0.580,-0.170
14.172,-0.560,-0.180
14.175,-0.545,-0.180
14.178,-0.525,-0.200
14.181,-0.525,-0.225
14.183,-0.515,-0.240
14.186,-0.510,-0.250
14.189,-0.500,-0.265
14.192,-0.500,-0.255
14.194,-0.490,-0.250
14.197,-0.485,-0.235
14.200,-0.495,-0.225
14.203,-0.480,-0.225
14.206,-0.495,-0.230
14.208,-0.495,-0.215
14.211,-0.480,-0.230
14.214,-0.480,-0.225
14.217,-0.485,-0.235
14.219,-0.495,-0.230
14.222,-0.500,-0.245
14.225,-0.505,-0.250
14.228,-0.525,-0.245
14.231,-0.535,-0.255
14.233,-0.535,-0.260
14.236,-0.530,-0.240
14.239,-0.555,-0.245
14.242,-0.565,-0.260
14.244,-0.580,-0.255
14.247,-0.585,-0.265
14.250,-0.605,-0.270
14.253,-0.620,-0.270
14.256,-0.650,-0.285
14.258,-0.655,-0.290
14.261,-0.655,-0.280
14.264,-0.645,-0.285
14.267,-0.650,-0.270
14.269,-0.635,-0.270
14.272,-0.635,-0.260
14.275,-0.620,-0.260
14.278,-0.625,-0.265
14.281,-0.635,-0.265
14.283,-0.650,-0.275
14.286,-0.655,-0.270
14.289,-0.660,-0.285
14.292,-0.670,-0.300
14.294,-0.675,-0.290
14.297,-0.675,-0.285
14.300,-0.680,-0.275
14.303,-0.665,-0.260
14.306,-0.660,-0.270
14.308,-0.660,-0.250
14.311,-0.660,-0.260
14.314,-0.645,-0.260
14.317,-0.645,-0.265
14.319,-0.655,-0.280
14.322,-0.655,-0.280
14.325,-0.665,-0.280
14.328,-0.665,-0.275
14.331,-0.650,-0.270
14.333,-0.635,-0.265
14.336,-0.625,-0.260
14.339,-0.610,-0.240
14.342,-0.605,-0.215
14.344,-0.595,-0.205
14.347,-0.585,-0.220
14.350,-0.590,-0.220
14.353,-0.575,-0.250
14.356,-0.580,-0.275
14.358,-0.575,-0.315
14.361,-0.560,-0.355
14.364,-0.515,-0.430
14.367,-0.445,-0.495
14.369,-0.320,-0.565
14.372,-0.155,-0.650
14.375,0.070,-0.715
14.378,0.360,-0.755
14.381,0.695,-0.735
14.383,1.065,-0.685
14.386,1.400,-0.640
14.389,1.605,-0.545
14.392,1.635,-0.470
14.394,1.425,-0.400
14.397,0.975,-0.340
14.400,0.355,-0.305
14.403,-0.285,-0.310
14.406,-0.925,-0.310
14.408,-1.330,-0.320
14.411,-1.455,-0.340
14.414,-1.345,-0.340
14.417,-1.115,-0.320
14.419,-0.880,-0.290
14.422,-0.665,-0.265
14.425,-0.540,-0.235
14.428,-0.475,-0.210
14.431,-0.460,-0.215
14.433,-0.480,-0.205
14.436,-0.515,-0.200
14.439,-0.555,-0.210
14.442,-0.555,-0.205
14.444,-0.560,-0.200
14.447,-0.570,-0.210
14.450,-0.570,-0.205
14.453,-0.565,-0.210
14.456,-0.565,-0.230
14.458,-0.575,-0.230
14.461,-0.575,-0.235
14.464,-0.585,-0.220
14.467,-0.585,-0.210
14.469,-0.580,-0.210
14.472,-0.575,-0.200
14.475,-0.560,-0.205
14.478,-0.565,-0.205
14.481,-0.565,-0.210
14.483,-0.565,-0.210
14.486,-0.570,-0.210
14.489,-0.585,-0.235
14.492,-0.585,-0.245
14.494,-0.580,-0.235
14.497,-0.590,-0.225
14.500,-0.575,-0.220
14.503,-0.570,-0.220
14.506,-0.565,-0.200
14.508,-0.565,-0.200
14.511,-0.570,-0.210
14.514,-0.560,-0.210
14.517,-0.560,-0.225
14.519,-0.565,-0.225
14.522,-0.565,-0.240
14.525,-0.585,-0.240
14.528,-0.580,-0.250
14.531,-0.575,-0.225
14.533,-0.575,-0.220
14.536,-0.570,-0.220
14.539,-0.565,-0.205
14.542,-0.555,-0.210
14.544,-0.555,-0.205
14.547,-0.550,-0.230
14.550,-0.560,-0.225
14.553,-0.555,-0.240
14.556,-0.565,-0.240
14.558,-0.565,-0.245
14.561,-0.565,-0.250
14.564,-0.570,-0.245
14.567,-0.570,-0.220
14.569,-0.565,-0.225
14.572,-0.560,-0.220
14.575,-0.550,-0.215
14.578,-0.550,-0.205
14.581,-0.540,-0.225
14.583,-0.545,-0.235
14.586,-0.555,-0.230
14.589,-0.560,-0.245
14.592,-0.550,-0.240
14.594,-0.560,-0.250
14.597,-0.570,-0.245
14.600,-0.565,-0.240
14.603,-0.560,-0.225
14.606,-0.565,-0.220
14.608,-0.545,-0.215
14.611,-0.525,-0.225
14.614,-0.525,-0.215
14.617,-0.525,-0.225
14.619,-0.530,-0.240
14.622,-0.530,-0.250
14.625,-0.540,-0.250
14.628,-0.540,-0.245
14.631,-0.530,-0.240
14.633,-0.530,-0.235
14.636,-0.520,-0.230
14.639,-0.530,-0.220
14.642,-0.510,-0.210
14.644,-0.490,-0.225
14.647,-0.490,-0.230
14.650,-0.500,-0.225
14.653,-0.505,-0.230
14.656,-0.515,-0.250
14.658,-0.510,-0.245
14.661,-0.510,-0.245
14.664,-0.500,-0.240
14.667,-0.500,-0.235
14.669,-0.490,-0.230
14.672,-0.480,-0.235
14.675,-0.470,-0.220
14.678,-0.455,-0.230
14.681,-0.460,-0.235
14.683,-0.455,-0.245
14.686,-0.455,-0.255
14.689,-0.460,-0.255
14.692,-0.465,-0.265
14.694,-0.470,-0.255
14.697,-0.460,-0.250
14.700,-0.465,-0.245
14.703,-0.440,-0.245
14.706,-0.435,-0.235
14.708,-0.425,-0.235
14.711,-0.425,-0.230
14.714,-0.430,-0.235
14.717,-0.410,-0.255
14.719,-0.415,-0.255
14.722,-0.420,-0.260
14.725,-0.415,-0.265
14.728,-0.425,-0.265
14.731,-0.425,-0.270
14.733,-0.415,-0.260
14.736,-0.410,-0.250
14.739,-0.410,-0.250
14.742,-0.400,-0.240
14.744,-0.415,-0.250
14.747,-0.400,-0.250
14.750,-0.400,-0.260
14.753,-0.420,-0.265
14.756,-0.425,-0.275
14.758,-0.440,-0.270
14.761,-0.460,-0.270
14.764,-0.475,-0.270
14.767,-0.500,-0.260
14.769,-0.505,-0.255
14.772,-0.515,-0.250
14.775,-0.525,-0.230
14.778,-0.525,-0.225
14.781,-0.530,-0.230
14.783,-0.565,-0.245
14.786,-0.565,-0.255
14.789,-0.590,-0.250
14.792,-0.620,-0.255
14.794,-0.630,-0.255
14.797,-0.635,-0.250
14.800,-0.645,-0.245
14.803,-0.650,-0.230
14.806,-0.655,-0.215
14.808,-0.650,-0.230
14.811,-0.650,-0.215
14.814,-0.660,-0.225
14.817,-0.675,-0.230
14.819,-0.680,-0.240
14.822,-0.700,-0.240
14.825,-0.700,-0.255
14.828,-0.700,-0.245
14.831,-0.715,-0.235
14.833,-0.710,-0.225
14.836,-0.705,-0.225
14.839,-0.705,-0.225
14.842,-0.695,-0.210
14.844,-0.690,-0.220
14.847,-0.705,-0.215
14.850,-0.705,-0.235
14.853,-0.705,-0.235
14.856,-0.715,-0.230
14.858,-0.730,-0.240
14.861,-0.720,-0.245
14.864,-0.720,-0.240
14.867,-0.720,-0.225
14.869,-0.715,-0.220
14.872,-0.700,-0.215
14.875,-0.680,-0.220
14.878,-0.680,-0.215
14.881,-0.680,-0.220
14.883,-0.680,-0.220
14.886,-0.680,-0.240
14.889,-0.685,-0.230
14.892,-0.690,-0.235
14.894,-0.680,-0.240
14.897,-0.685,-0.240
14.900,-0.680,-0.240
14.903,-0.665,-0.230
14.906,-0.675,-0.225
14.908,-0.665,-0.225
14.911,-0.650,-0.220
14.914,-0.650,-0.230
14.917,-0.640,-0.240
14.919,-0.650,-0.250
14.922,-0.660,-0.245
14.925,-0.675,-0.265
14.928,-0.665,-0.260
14.931,-0.665,-0.255
14.933,-0.660,-0.255
14.936,-0.660,-0.245
14.939,-0.655,-0.240
14.942,-0.655,-0.240
14.944,-0.645,-0.240
14.947,-0.655,-0.250
14.950,-0.655,-0.255
14.953,-0.675,-0.265
14.956,-0.680,-0.270
14.958,-0.685,-0.265
14.961,-0.675,-0.275
14.964,-0.680,-0.265
14.967,-0.680,-0.265
14.969,-0.680,-0.265
14.972,-0.680,-0.240
14.975,-0.670,-0.235
14.978,-0.675,-0.245
14.981,-0.690,-0.255
14.983,-0.700,-0.245
14.986,-0.700,-0.265
14.989,-0.685,-0.275
14.992,-0.695,-0.280
14.994,-0.700,-0.280
14.997,-0.705,-0.270
15.000,-0.690,-0.260
15.003,-0.690,-0.260
15.006,-0.695,-0.255
15.008,-0.695,-0.250
15.011,-0.685,-0.255
15.014,-0.695,-0.265
15.017,-0.700,-0.265
15.019,-0.710,-0.270
15.022,-0.710,-0.285
15.025,-0.715,-0.285
15.028,-0.720,-0.285
15.031,-0.720,-0.265
15.033,-0.720,-0.265
15.036,-0.705,-0.265
15.039,-0.715,-0.265
15.042,-0.700,-0.250
15.044,-0.695,-0.260
15.047,-0.695,-0.260
15.050,-0.700,-0.265
15.053,-0.715,-0.275
15.056,-0.710,-0.280
15.058,-0.725,-0.285
15.061,-0.725,-0.275
15.064,-0.725,-0.265
15.067,-0.725,-0.270
15.069,-0.715,-0.265
15.072,-0.715,-0.260
15.075,-0.715,-0.255
15.078,-0.710,-0.245
15.081,-0.700,-0.255
15.083,-0.710,-0.260
15.086,-0.715,-0.270
15.089,-0.715,-0.260
15.092,-0.725,-0.255
15.094,-0.730,-0.260
15.097,-0.715,-0.225
15.100,-0.720,-0.215
15.103,-0.695,-0.190
15.106,-0.680,-0.195
15.108,-0.670,-0.180
15.111,-0.650,-0.190
15.114,-0.640,-0.190
15.117,-0.635,-0.200
15.119,-0.640,-0.215
15.122,-0.625,-0.235
15.125,-0.625,-0.260
15.128,-0.610,-0.265
15.131,-0.605,-0.270
15.133,-0.590,-0.275
15.136,-0.560,-0.255
15.139,-0.555,-0.245
15.142,-0.560,-0.240
15.144,-0.550,-0.225
15.147,-0.570,-0.245
15.150,-0.570,-0.250
15.153,-0.575,-0.255
15.156,-0.590,-0.265
15.158,-0.580,-0.260
15.161,-0.585,-0.265
15.164,-0.575,-0.245
15.167,-0.580,-0.245
15.169,-0.575,-0.245
15.172,-0.575,-0.250
15.175,-0.580,-0.245
15.178,-0.580,-0.235
15.181,-0.595,-0.255
15.183,-0.605,-0.265
15.186,-0.630,-0.265
15.189,-0.660,-0.290
15.192,-0.690,-0.285
15.194,-0.695,-0.300
15.197,-0.715,-0.280
15.200,-0.725,-0.290
15.203,-0.735,-0.280
15.206,-0.730,-0.270
15.208,-0.710,-0.260
15.211,-0.695,-0.275
15.214,-0.705,-0.275
15.217,-0.720,-0.280
15.219,-0.720,-0.295
15.222,-0.725,-0.290
15.225,-0.745,-0.295
15.228,-0.750,-0.285
15.231,-0.750,-0.285
15.233,-0.755,-0.280
15.236,-0.750,-0.275
15.239,-0.750,-0.270
15.242,-0.730,-0.255
15.244,-0.715,-0.265
15.247,-0.730,-0.270
15.250,-0.720,-0.265
15.253,-0.725,-0.285
15.256,-0.735,-0.290
15.258,-0.740,-0.300
15.261,-0.750,-0.295
15.264,-0.740,-0.280
15.267,-0.735,-0.275
15.269,-0.730,-0.270
15.272,-0.730,-0.275
15.275,-0.710,-0.270
15.278,-0.715,-0.265
15.281,-0.720,-0.270
15.283,-0.710,-0.280
15.286,-0.710,-0.270
15.289,-0.705,-0.270
15.292,-0.705,-0.270
15.294,-0.700,-0.255
15.297,-0.680,-0.230
15.300,-0.675,-0.235
15.303,-0.665,-0.245
15.306,-0.640,-0.290
15.308,-0.610,-0.345
15.311,-0.565,-0.435
15.314,-0.475,-0.540
15.317,-0.330,-0.640
15.319,-0.135,-0.730
15.322,0.140,-0.785
15.325,0.490,-0.785
15.328,0.900,-0.755
15.331,1.255,-0.670
15.333,1.495,-0.570
15.336,1.530,-0.470
15.339,1.330,-0.380
15.342,0.855,-0.325
15.344,0.215,-0.295
15.347,-0.425,-0.305
15.350,-1.065,-0.325
15.353,-1.480,-0.345
15.356,-1.585,-0.375
15.358,-1.455,-0.375
15.361,-1.230,-0.355
15.364,-0.970,-0.310
15.367,-0.765,-0.270
15.369,-0.645,-0.230
15.372,-0.585,-0.200
15.375,-0.570,-0.190
15.378,-0.580,-0.180
15.381,-0.605,-0.205
15.383,-0.630,-0.215
15.386,-0.660,-0.210
15.389,-0.670,-0.230
15.392,-0.680,-0.230
15.394,-0.685,-0.225
15.397,-0.675,-0.215
15.400,-0.670,-0.215
15.403,-0.665,-0.225
15.406,-0.650,-0.205
15.408,-0.645,-0.210
15.411,-0.645,-0.215
15.414,-0.650,-0.210
15.417,-0.640,-0.220
15.419,-0.650,-0.225
15.422,-0.660,-0.230
15.425,-0.675,-0.235
15.428,-0.675,-0.240
15.431,-0.670,-0.220
15.433,-0.670,-0.215
15.436,-0.660,-0.230
15.439,-0.635,-0.210
15.442,-0.635,-0.210
15.444,-0.640,-0.200
15.447,-0.635,-0.210
15.450,-0.635,-0.225
15.453,-0.645,-0.225
15.456,-0.655,-0.240
15.458,-0.655,-0.225
15.461,-0.665,-0.245
15.464,-0.650,-0.225
15.467,-0.645,-0.225
15.469,-0.640,-0.215
15.472,-0.630,-0.220
15.475,-0.635,-0.215
15.478,-0.625,-0.210
15.481,-0.630,-0.220
15.483,-0.630,-0.220
15.486,-0.625,-0.225
15.489,-0.645,-0.235
15.492,-0.630,-0.240
15.494,-0.645,-0.245
15.497,-0.650,-0.230
15.500,-0.645,-0.230
15.503,-0.630,-0.235
15.506,-0.625,-0.225
15.508,-0.620,-0.220
15.511,-0.605,-0.225
15.514,-0.610,-0.225
15.517,-0.610,-0.230
15.519,-0.615,-0.240
15.522,-0.620,-0.250
15.525,-0.625,-0.255
15.528,-0.625,-0.240
15.531,-0.625,-0.235
15.533,-0.615,-0.245
15.536,-0.605,-0.235
15.539,-0.605,-0.235
15.542,-0.590,-0.220
15.544,-0.585,-0.215
15.547,-0.600,-0.220
15.550,-0.595,-0.240
15.553,-0.600,-0.240
15.556,-0.610,-0.240
15.558,-0.610,-0.255
15.561,-0.605,-0.255
15.564,-0.615,-0.245
15.567,-0.610,-0.240
15.569,-0.605,-0.235
15.572,-0.600,-0.225
15.575,-0.580,-0.220
15.578,-0.565,-0.220
15.581,-0.565,-0.230
15.583,-0.570,-0.225
15.586,-0.575,-0.240
15.589,-0.580,-0.245
15.592,-0.585,-0.245
15.594,-0.590,-0.245
15.597,-0.580,-0.235
15.600,-0.575,-0.230
15.603,-0.560,-0.230
15.606,-0.565,-0.220
15.608,-0.545,-0.225
15.611,-0.525,-0.225
15.614,-0.530,-0.240
15.617,-0.530,-0.235
15.619,-0.535,-0.240
15.622,-0.525,-0.250
15.625,-0.550,-0.250
15.628,-0.545,-0.255
15.631,-0.530,-0.260
15.633,-0.535,-0.245
15.636,-0.510,-0.240
15.639,-0.515,-0.235
15.642,-0.505,-0.225
15.644,-0.505,-0.230
15.647,-0.500,-0.240
15.650,-0.505,-0.250
15.653,-0.480,-0.245
15.656,-0.485,-0.245
15.658,-0.495,-0.255
15.661,-0.495,-0.255
15.664,-0.495,-0.250
15.667,-0.495,-0.250
15.669,-0.490,-0.245
15.672,-0.485,-0.235
15.675,-0.485,-0.235
15.678,-0.470,-0.245
15.681,-0.470,-0.245
15.683,-0.465,-0.245
15.686,-0.480,-0.255
15.689,-0.480,-0.260
15.692,-0.500,-0.270
15.694,-0.510,-0.250
15.697,-0.520,-0.255
15.700,-0.530,-0.250
15.703,-0.545,-0.245
15.706,-0.555,-0.230
15.708,-0.575,-0.215
15.711,-0.590,-0.215
15.714,-0.600,-0.225
15.717,-0.610,-0.220
15.719,-0.630,-0.235
15.722,-0.660,-0.225
15.725,-0.680,-0.245
15.728,-0.710,-0.245
15.731,-0.715,-0.225
15.733,-0.715,-0.220
15.736,-0.730,-0.215
15.739,-0.735,-0.210
15.742,-0.740,-0.205
15.744,-0.740,-0.195
15.747,-0.740,-0.210
15.750,-0.750,-0.200
15.753,-0.745,-0.215
15.756,-0.775,-0.220
15.758,-0.770,-0.230
15.761,-0.775,-0.220
15.764,-0.790,-0.210
15.767,-0.780,-0.210
15.769,-0.780,-0.210
15.772,-0.775,-0.200
15.775,-0.765,-0.205
15.778,-0.765,-0.185
15.781,-0.755,-0.190
15.783,-0.765,-0.200
15.786,-0.765,-0.200
15.789,-0.775,-0.210
15.792,-0.795,-0.225
15.794,-0.795,-0.205
15.797,-0.785,-0.210
15.800,-0.780,-0.210
15.803,-0.765,-0.195
15.806,-0.750,-0.190
15.808,-0.755,-0.185
15.811,-0.730,-0.175
15.814,-0.735,-0.195
15.817,-0.740,-0.205
15.819,-0.745,-0.200
15.822,-0.760,-0.205
15.825,-0.760,-0.210
15.828,-0.765,-0.215
15.831,-0.755,-0.210
15.833,-0.755,-0.205
15.836,-0.750,-0.195
15.839,-0.745,-0.200
15.842,-0.730,-0.185
15.844,-0.730,-0.185
15.847,-0.720,-0.190
15.850,-0.725,-0.195
15.853,-0.730,-0.215
15.856,-0.735,-0.220
15.858,-0.735,-0.215
15.861,-0.740,-0.220
15.864,-0.735,-0.210
15.867,-0.745,-0.210
15.869,-0.730,-0.205
15.872,-0.725,-0.205
15.875,-0.725,-0.195
15.878,-0.700,-0.200
15.881,-0.730,-0.215
15.883,-0.730,-0.210
15.886,-0.745,-0.200
15.889,-0.740,-0.220
15.892,-0.750,-0.230
15.894,-0.750,-0.235
15.897,-0.760,-0.230
15.900,-0.765,-0.225
15.903,-0.760,-0.220
15.906,-0.765,-0.215
15.908,-0.745,-0.215
15.911,-0.745,-0.205
15.914,-0.755,-0.210
15.917,-0.755,-0.220
15.919,-0.770,-0.215
15.922,-0.760,-0.225
15.925,-0.765,-0.240
15.928,-0.775,-0.240
15.931,-0.785,-0.230
15.933,-0.785,-0.220
15.936,-0.780,-0.205
15.939,-0.765,-0.200
15.942,-0.770,-0.200
15.944,-0.760,-0.200
15.947,-0.755,-0.215
15.950,-0.765,-0.220
15.953,-0.775,-0.225
15.956,-0.780,-0.230
15.958,-0.795,-0.235
15.961,-0.815,-0.235
15.964,-0.825,-0.225
15.967,-0.810,-0.225
15.969,-0.800,-0.215
15.972,-0.805,-0.210
15.975,-0.795,-0.200
15.978,-0.775,-0.200
15.981,-0.775,-0.195
15.983,-0.775,-0.195
15.986,-0.780,-0.210
15.989,-0.780,-0.210
15.992,-0.790,-0.205
15.994,-0.790,-0.210
15.997,-0.800,-0.195
16.000,-0.780,-0.175
16.003,-0.780,-0.160
16.006,-0.770,-0.155
16.008,-0.745,-0.155
16.011,-0.730,-0.140
16.014,-0.725,-0.145
16.017,-0.710,-0.150
16.019,-0.715,-0.160
16.022,-0.715,-0.165
16.025,-0.710,-0.175
16.028,-0.700,-0.190
16.031,-0.700,-0.200
16.033,-0.695,-0.210
16.036,-0.670,-0.205
16.039,-0.655,-0.200
16.042,-0.640,-0.180
16.044,-0.620,-0.185
16.047,-0.615,-0.180
16.050,-0.615,-0.190
16.053,-0.630,-0.195
16.056,-0.635,-0.200
16.058,-0.660,-0.210
16.061,-0.680,-0.210
16.064,-0.675,-0.205
16.067,-0.670,-0.210
16.069,-0.655,-0.190
16.072,-0.650,-0.190
16.075,-0.640,-0.170
16.078,-0.650,-0.195
16.081,-0.660,-0.195
16.083,-0.660,-0.200
16.086,-0.675,-0.210
16.089,-0.695,-0.220
16.092,-0.715,-0.235
16.094,-0.730,-0.250
16.097,-0.770,-0.240
16.100,-0.780,-0.235
16.103,-0.800,-0.225
16.106,-0.800,-0.225
16.108,-0.795,-0.225
16.111,-0.790,-0.225
16.114,-0.800,-0.225
16.117,-0.785,-0.225
16.119,-0.790,-0.235
16.122,-0.795,-0.235
16.125,-0.815,-0.250
16.128,-0.840,-0.250
16.131,-0.830,-0.240
16.133,-0.835,-0.235
16.136,-0.835,-0.230
16.139,-0.835,-0.215
16.142,-0.820,-0.215
16.144,-0.810,-0.210
16.147,-0.825,-0.220
16.150,-0.825,-0.215
16.153,-0.835,-0.230
16.156,-0.835,-0.235
16.158,-0.825,-0.235
16.161,-0.825,-0.245
16.164,-0.825,-0.225
16.167,-0.825,-0.230
16.169,-0.815,-0.220
16.172,-0.815,-0.215
16.175,-0.810,-0.215
16.178,-0.800,-0.205
16.181,-0.805,-0.210
16.183,-0.795,-0.205
16.186,-0.790,-0.220
16.189,-0.790,-0.220
16.192,-0.785,-0.210
16.194,-0.775,-0.200
16.197,-0.770,-0.190
16.200,-0.770,-0.175
16.203,-0.745,-0.175
16.206,-0.745,-0.190
16.208,-0.730,-0.225
16.211,-0.700,-0.275
16.214,-0.665,-0.360
16.217,-0.580,-0.460
16.219,-0.485,-0.565
16.222,-0.300,-0.640
16.225,-0.050,-0.675
16.228,0.280,-0.680
16.231,0.660,-0.635
16.233,1.050,-0.555
16.236,1.335,-0.440
16.239,1.460,-0.350
16.242,1.380,-0.255
16.244,1.035,-0.215
16.247,0.460,-0.185
16.250,-0.180,-0.185
16.253,-0.820,-0.205
16.256,-1.360,-0.240
16.258,-1.605,-0.265
16.261,-1.595,-0.280
16.264,-1.415,-0.275
16.267,-1.175,-0.275
16.269,-0.945,-0.235
16.272,-0.785,-0.200
16.275,-0.690,-0.170
16.278,-0.665,-0.150
16.281,-0.665,-0.140
16.283,-0.695,-0.155
16.286,-0.705,-0.160
16.289,-0.735,-0.170
16.292,-0.750,-0.185
16.294,-0.755,-0.190
16.297,-0.760,-0.180
16.300,-0.755,-0.170
16.303,-0.750,-0.175
16.306,-0.735,-0.165
16.308,-0.735,-0.165
16.311,-0.725,-0.160
16.314,-0.725,-0.165
16.317,-0.715,-0.170
16.319,-0.715,-0.170
16.322,-0.720,-0.185
16.325,-0.725,-0.185
16.328,-0.735,-0.195
16.331,-0.730,-0.180
16.333,-0.740,-0.190
16.336,-0.725,-0.180
16.339,-0.715,-0.170
16.342,-0.710,-0.160
16.344,-0.695,-0.180
16.347,-0.710,-0.185
16.350,-0.710,-0.180
16.353,-0.725,-0.180
16.356,-0.725,-0.190
16.358,-0.720,-0.195
16.361,-0.740,-0.200
