'Elapsed time','MLII','V1'
'seconds','mV','mV'
0.000,-0.320,-1.240
0.003,-0.320,-1.240
0.006,-0.320,-1.240
0.008,-0.320,-1.240
0.011,-0.320,-1.240
0.014,-0.320,-1.240
0.017,-0.320,-1.240
0.019,-0.320,-1.310
0.022,-0.025,-1.375
0.025,0.265,-1.445
0.028,0.580,-1.515
0.031,0.925,-1.565
0.033,1.310,-1.575
0.036,1.670,-1.575
0.039,2.010,-1.540
0.042,2.240,-1.465
0.044,2.315,-1.365
0.047,2.185,-1.245
0.050,1.770,-1.145
0.053,1.130,-1.055
0.056,0.490,-1.020
0.058,-0.150,-0.975
0.061,-0.790,-0.945
0.064,-1.430,-0.910
0.067,-1.640,-0.870
0.069,-1.385,-0.850
0.072,-1.105,-0.850
0.075,-0.920,-0.865
0.078,-0.855,-0.880
0.081,-0.900,-0.885
0.083,-0.995,-0.875
0.086,-1.090,-0.850
0.089,-1.170,-0.835
0.092,-1.200,-0.820
0.094,-1.180,-0.800
0.097,-1.185,-0.805
0.100,-1.155,-0.765
0.103,-1.145,-0.765
0.106,-1.125,-0.775
0.108,-1.135,-0.785
0.111,-1.155,-0.795
0.114,-1.165,-0.790
0.117,-1.175,-0.790
0.119,-1.185,-0.775
0.122,-1.185,-0.780
0.125,-1.185,-0.755
0.128,-1.145,-0.755
0.131,-1.135,-0.735
0.133,-1.120,-0.755
0.136,-1.100,-0.760
0.139,-1.075,-0.760
0.142,-1.090,-0.770
0.144,-1.100,-0.790
0.147,-1.105,-0.795
0.150,-1.110,-0.780
0.153,-1.110,-0.775
0.156,-1.115,-0.760
0.158,-1.110,-0.740
0.161,-1.075,-0.725
0.164,-1.080,-0.735
0.167,-1.050,-0.730
0.169,-1.035,-0.730
0.172,-1.035,-0.740
0.175,-1.025,-0.750
0.178,-1.020,-0.730
0.181,-1.010,-0.760
0.183,-1.000,-0.755
0.186,-1.000,-0.755
0.189,-0.980,-0.730
0.192,-0.960,-0.720
0.194,-0.935,-0.690
0.197,-0.920,-0.680
0.200,-0.895,-0.680
0.203,-0.885,-0.690
0.206,-0.895,-0.705
0.208,-0.865,-0.710
0.211,-0.840,-0.710
0.214,-0.830,-0.700
0.217,-0.820,-0.695
0.219,-0.810,-0.670
0.222,-0.775,-0.655
0.225,-0.735,-0.640
0.228,-0.695,-0.635
0.231,-0.655,-0.625
0.233,-0.610,-0.620
0.236,-0.575,-0.625
0.239,-0.555,-0.630
0.242,-0.515,-0.640
0.244,-0.515,-0.640
0.247,-0.490,-0.650
0.250,-0.485,-0.645
0.253,-0.470,-0.640
0.256,-0.470,-0.625
0.258,-0.445,-0.615
0.261,-0.425,-0.600
0.264,-0.395,-0.575
0.267,-0.355,-0.575
0.269,-0.340,-0.590
0.272,-0.335,-0.595
0.275,-0.340,-0.625
0.278,-0.350,-0.640
0.281,-0.375,-0.650
0.283,-0.390,-0.640
0.286,-0.415,-0.625
0.289,-0.440,-0.625
0.292,-0.480,-0.625
0.294,-0.495,-0.630
0.297,-0.530,-0.645
0.300,-0.565,-0.645
0.303,-0.605,-0.660
0.306,-0.660,-0.680
0.308,-0.700,-0.700
0.311,-0.740,-0.710
0.314,-0.800,-0.740
0.317,-0.835,-0.735
0.319,-0.895,-0.710
0.322,-0.945,-0.725
0.325,-0.990,-0.725
0.328,-1.020,-0.725
0.331,-1.050,-0.730
0.333,-1.060,-0.700
0.336,-1.090,-0.695
0.339,-1.120,-0.680
0.342,-1.120,-0.710
0.344,-1.145,-0.740
0.347,-1.170,-0.790
0.350,-1.205,-0.810
0.353,-1.255,-0.820
0.356,-1.260,-0.790
0.358,-1.260,-0.775
0.361,-1.245,-0.725
0.364,-1.225,-0.720
0.367,-1.215,-0.735
0.369,-1.215,-0.750
0.372,-1.230,-0.760
0.375,-1.240,-0.765
0.378,-1.245,-0.780
0.381,-1.260,-0.775
0.383,-1.265,-0.775
0.386,-1.275,-0.735
0.389,-1.270,-0.745
0.392,-1.280,-0.745
0.394,-1.260,-0.745
0.397,-1.260,-0.740
0.400,-1.235,-0.750
0.403,-1.240,-0.735
0.406,-1.240,-0.730
0.408,-1.235,-0.735
0.411,-1.245,-0.750
0.414,-1.245,-0.745
0.417,-1.250,-0.750
0.419,-1.270,-0.755
0.422,-1.265,-0.740
0.425,-1.245,-0.730
0.428,-1.230,-0.720
0.431,-1.210,-0.715
0.433,-1.205,-0.710
0.436,-1.215,-0.700
0.439,-1.230,-0.720
0.442,-1.235,-0.730
0.444,-1.250,-0.725
0.447,-1.265,-0.740
0.450,-1.265,-0.720
0.453,-1.270,-0.705
0.456,-1.270,-0.720
0.458,-1.265,-0.705
0.461,-1.250,-0.710
0.464,-1.240,-0.725
0.467,-1.225,-0.735
0.469,-1.235,-0.760
0.472,-1.245,-0.760
0.475,-1.260,-0.740
0.478,-1.280,-0.760
0.481,-1.300,-0.750
0.483,-1.300,-0.755
0.486,-1.305,-0.775
0.489,-1.305,-0.785
0.492,-1.285,-0.775
0.494,-1.290,-0.755
0.497,-1.295,-0.745
0.500,-1.295,-0.725
0.503,-1.300,-0.715
0.506,-1.305,-0.715
0.508,-1.310,-0.760
0.511,-1.325,-0.770
0.514,-1.315,-0.790
0.517,-1.340,-0.790
0.519,-1.340,-0.775
0.522,-1.345,-0.780
0.525,-1.325,-0.750
0.528,-1.330,-0.735
0.531,-1.315,-0.720
0.533,-1.305,-0.700
0.536,-1.295,-0.710
0.539,-1.305,-0.725
0.542,-1.300,-0.740
0.544,-1.305,-0.760
0.547,-1.320,-0.765
0.550,-1.335,-0.765
0.553,-1.335,-0.755
0.556,-1.360,-0.775
0.558,-1.355,-0.760
0.561,-1.350,-0.730
0.564,-1.355,-0.730
0.567,-1.340,-0.715
0.569,-1.345,-0.705
0.572,-1.350,-0.705
0.575,-1.375,-0.725
0.578,-1.385,-0.735
0.581,-1.385,-0.780
0.583,-1.365,-0.755
0.586,-1.365,-0.760
0.589,-1.370,-0.750
0.592,-1.360,-0.725
0.594,-1.345,-0.700
0.597,-1.325,-0.670
0.600,-1.305,-0.665
0.603,-1.270,-0.650
0.606,-1.270,-0.665
0.608,-1.265,-0.650
0.611,-1.275,-0.670
0.614,-1.305,-0.690
0.617,-1.325,-0.695
0.619,-1.330,-0.700
0.622,-1.325,-0.720
0.625,-1.300,-0.715
0.628,-1.270,-0.705
0.631,-1.255,-0.705
0.633,-1.240,-0.695
0.636,-1.235,-0.685
0.639,-1.210,-0.700
0.642,-1.195,-0.680
0.644,-1.195,-0.690
0.647,-1.200,-0.700
0.650,-1.205,-0.720
0.653,-1.200,-0.740
0.656,-1.200,-0.775
0.658,-1.205,-0.760
0.661,-1.215,-0.740
0.664,-1.210,-0.700
0.667,-1.215,-0.690
0.669,-1.230,-0.690
0.672,-1.245,-0.695
0.675,-1.260,-0.725
0.678,-1.280,-0.735
0.681,-1.300,-0.755
0.683,-1.310,-0.770
0.686,-1.350,-0.765
0.689,-1.375,-0.770
0.692,-1.385,-0.745
0.694,-1.400,-0.750
0.697,-1.400,-0.740
0.700,-1.400,-0.755
0.703,-1.400,-0.750
0.706,-1.390,-0.760
0.708,-1.375,-0.760
0.711,-1.385,-0.775
0.714,-1.380,-0.780
0.717,-1.390,-0.775
0.719,-1.410,-0.775
0.722,-1.425,-0.760
0.725,-1.430,-0.740
0.728,-1.420,-0.740
0.731,-1.420,-0.715
0.733,-1.400,-0.695
0.736,-1.385,-0.700
0.739,-1.395,-0.710
0.742,-1.395,-0.740
0.744,-1.395,-0.775
0.747,-1.375,-0.825
0.750,-1.340,-0.860
0.753,-1.290,-0.905
0.756,-1.205,-0.945
0.758,-1.045,-0.970
0.761,-0.870,-1.005
0.764,-0.625,-1.035
0.767,-0.380,-1.080
0.769,-0.105,-1.135
0.772,0.135,-1.195
0.775,0.395,-1.280
0.778,0.665,-1.350
0.781,0.975,-1.360
0.783,1.255,-1.310
0.786,1.430,-1.205
0.789,1.450,-1.080
0.792,1.205,-0.970
0.794,0.665,-0.920
0.797,0.025,-0.885
0.800,-0.615,-0.890
0.803,-1.255,-0.875
0.806,-1.895,-0.870
0.808,-2.070,-0.855
0.811,-1.900,-0.825
0.814,-1.640,-0.785
0.817,-1.390,-0.745
0.819,-1.235,-0.725
0.822,-1.185,-0.720
0.825,-1.200,-0.720
0.828,-1.240,-0.720
0.831,-1.285,-0.740
0.833,-1.320,-0.715
0.836,-1.350,-0.720
0.839,-1.360,-0.710
0.842,-1.360,-0.710
0.844,-1.365,-0.710
0.847,-1.365,-0.695
0.850,-1.365,-0.720
0.853,-1.395,-0.710
0.856,-1.395,-0.715
0.858,-1.380,-0.695
0.861,-1.380,-0.690
0.864,-1.365,-0.695
0.867,-1.335,-0.675
0.869,-1.305,-0.685
0.872,-1.290,-0.685
0.875,-1.285,-0.695
0.878,-1.295,-0.695
0.881,-1.300,-0.715
0.883,-1.290,-0.710
0.886,-1.290,-0.715
0.889,-1.295,-0.695
0.892,-1.275,-0.685
0.894,-1.260,-0.660
0.897,-1.235,-0.675
0.900,-1.225,-0.630
0.903,-1.225,-0.635
0.906,-1.215,-0.650
0.908,-1.210,-0.665
0.911,-1.230,-0.690
0.914,-1.215,-0.695
0.917,-1.195,-0.705
0.919,-1.190,-0.705
0.922,-1.180,-0.695
0.925,-1.155,-0.680
0.928,-1.135,-0.665
0.931,-1.100,-0.665
0.933,-1.075,-0.665
0.936,-1.065,-0.655
0.939,-1.045,-0.680
0.942,-1.035,-0.670
0.944,-1.040,-0.685
0.947,-1.045,-0.675
0.950,-1.025,-0.665
0.953,-1.025,-0.675
0.956,-1.015,-0.650
0.958,-0.980,-0.640
0.961,-0.945,-0.625
0.964,-0.925,-0.615
0.967,-0.875,-0.595
0.969,-0.855,-0.605
0.972,-0.830,-0.615
0.975,-0.810,-0.600
0.978,-0.770,-0.610
0.981,-0.750,-0.625
0.983,-0.730,-0.630
0.986,-0.755,-0.620
0.989,-0.700,-0.620
0.992,-0.705,-0.590
0.994,-0.685,-0.575
0.997,-0.660,-0.565
1.000,-0.635,-0.575
1.003,-0.610,-0.595
1.006,-0.600,-0.600
1.008,-0.600,-0.620
1.011,-0.600,-0.615
1.014,-0.600,-0.620
1.017,-0.605,-0.605
1.019,-0.620,-0.595
1.022,-0.615,-0.585
1.025,-0.640,-0.585
1.028,-0.640,-0.600
1.031,-0.650,-0.625
1.033,-0.665,-0.610
1.036,-0.700,-0.620
1.039,-0.750,-0.625
1.042,-0.770,-0.630
1.044,-0.830,-0.655
1.047,-0.885,-0.675
1.050,-0.925,-0.690
1.053,-0.975,-0.680
1.056,-0.995,-0.675
1.058,-1.010,-0.675
1.061,-1.055,-0.675
1.064,-1.065,-0.680
1.067,-1.070,-0.690
1.069,-1.080,-0.690
1.072,-1.115,-0.695
1.075,-1.130,-0.705
1.078,-1.155,-0.715
1.081,-1.180,-0.725
1.083,-1.210,-0.715
1.086,-1.235,-0.750
1.089,-1.240,-0.735
1.092,-1.230,-0.745
1.094,-1.225,-0.765
1.097,-1.220,-0.745
1.100,-1.215,-0.735
1.103,-1.220,-0.735
1.106,-1.210,-0.745
1.108,-1.230,-0.745
1.111,-1.235,-0.740
1.114,-1.245,-0.745
1.117,-1.250,-0.740
1.119,-1.250,-0.730
1.122,-1.255,-0.725
1.125,-1.250,-0.715
1.128,-1.240,-0.720
1.131,-1.230,-0.720
1.133,-1.215,-0.720
1.136,-1.200,-0.715
1.139,-1.205,-0.745
1.142,-1.200,-0.765
1.144,-1.215,-0.770
1.147,-1.220,-0.755
1.150,-1.190,-0.750
1.153,-1.200,-0.730
1.156,-1.190,-0.720
1.158,-1.185,-0.720
1.161,-1.165,-0.690
1.164,-1.150,-0.670
1.167,-1.150,-0.690
1.169,-1.140,-0.705
1.172,-1.145,-0.700
1.175,-1.145,-0.725
1.178,-1.155,-0.745
1.181,-1.165,-0.755
1.183,-1.155,-0.780
1.186,-1.150,-0.770
1.189,-1.150,-0.775
1.192,-1.150,-0.760
1.194,-1.160,-0.755
1.197,-1.160,-0.740
1.200,-1.155,-0.715
1.203,-1.145,-0.715
1.206,-1.140,-0.730
1.208,-1.120,-0.725
1.211,-1.135,-0.725
1.214,-1.135,-0.725
1.217,-1.135,-0.725
1.219,-1.165,-0.735
1.222,-1.160,-0.720
1.225,-1.150,-0.715
1.228,-1.145,-0.705
1.231,-1.145,-0.695
1.233,-1.135,-0.680
1.236,-1.140,-0.680
1.239,-1.175,-0.680
1.242,-1.170,-0.705
1.244,-1.185,-0.725
1.247,-1.195,-0.765
1.250,-1.190,-0.780
1.253,-1.190,-0.790
1.256,-1.210,-0.775
1.258,-1.205,-0.760
1.261,-1.180,-0.750
1.264,-1.175,-0.750
1.267,-1.160,-0.745
1.269,-1.170,-0.750
1.272,-1.175,-0.730
1.275,-1.185,-0.730
1.278,-1.175,-0.720
1.281,-1.185,-0.755
1.283,-1.195,-0.785
1.286,-1.200,-0.800
1.289,-1.200,-0.820
1.292,-1.205,-0.820
1.294,-1.210,-0.785
1.297,-1.210,-0.755
1.300,-1.175,-0.735
1.303,-1.175,-0.710
1.306,-1.165,-0.695
1.308,-1.150,-0.720
1.311,-1.165,-0.730
1.314,-1.190,-0.745
1.317,-1.205,-0.765
1.319,-1.235,-0.790
1.322,-1.240,-0.785
1.325,-1.220,-0.770
1.328,-1.205,-0.760
1.331,-1.200,-0.750
1.333,-1.190,-0.735
1.336,-1.205,-0.730
1.339,-1.195,-0.740
1.342,-1.200,-0.745
1.344,-1.225,-0.765
1.347,-1.205,-0.765
1.350,-1.215,-0.760
1.353,-1.210,-0.730
1.356,-1.205,-0.705
1.358,-1.200,-0.670
1.361,-1.160,-0.675
1.364,-1.140,-0.680
1.367,-1.125,-0.710
1.369,-1.120,-0.710
1.372,-1.115,-0.720
1.375,-1.105,-0.715
1.378,-1.090,-0.695
1.381,-1.090,-0.695
1.383,-1.105,-0.685
1.386,-1.105,-0.695
1.389,-1.110,-0.695
1.392,-1.115,-0.700
1.394,-1.095,-0.715
1.397,-1.090,-0.715
1.400,-1.075,-0.705
1.403,-1.050,-0.715
1.406,-1.050,-0.730
1.408,-1.015,-0.740
1.411,-0.995,-0.755
1.414,-0.985,-0.765
1.417,-0.970,-0.775
1.419,-0.965,-0.770
1.422,-0.990,-0.765
1.425,-1.005,-0.740
1.428,-1.015,-0.720
1.431,-0.995,-0.715
1.433,-0.995,-0.705
1.436,-0.985,-0.705
1.439,-0.990,-0.730
1.442,-1.005,-0.730
1.444,-1.035,-0.745
1.447,-1.065,-0.745
1.450,-1.075,-0.750
1.453,-1.110,-0.745
1.456,-1.145,-0.740
1.458,-1.155,-0.735
1.461,-1.185,-0.725
1.464,-1.180,-0.740
1.467,-1.185,-0.735
1.469,-1.200,-0.760
1.472,-1.210,-0.750
1.475,-1.210,-0.750
1.478,-1.220,-0.755
1.481,-1.205,-0.755
1.483,-1.210,-0.755
1.486,-1.205,-0.750
1.489,-1.205,-0.740
1.492,-1.200,-0.740
1.494,-1.200,-0.715
1.497,-1.200,-0.720
1.500,-1.185,-0.705
1.503,-1.175,-0.720
1.506,-1.175,-0.740
1.508,-1.170,-0.740
1.511,-1.205,-0.750
1.514,-1.230,-0.770
1.517,-1.215,-0.800
1.519,-1.205,-0.825
1.522,-1.190,-0.825
1.525,-1.135,-0.890
1.528,-1.020,-0.940
1.531,-0.870,-1.015
1.533,-0.660,-1.090
1.536,-0.360,-1.185
1.539,-0.020,-1.255
1.542,0.350,-1.340
1.544,0.740,-1.420
1.547,1.130,-1.510
1.550,1.520,-1.545
1.553,1.875,-1.560
1.556,2.135,-1.510
1.558,2.315,-1.420
1.561,2.375,-1.285
1.564,2.320,-1.170
1.567,2.070,-1.030
1.569,1.565,-0.950
1.572,0.925,-0.915
1.575,0.285,-0.915
1.578,-0.355,-0.905
1.581,-0.995,-0.885
1.583,-1.635,-0.855
1.586,-1.670,-0.800
1.589,-1.400,-0.765
1.592,-1.105,-0.725
1.594,-0.880,-0.720
1.597,-0.800,-0.690
1.600,-0.840,-0.710
1.603,-0.915,-0.725
1.606,-1.020,-0.745
1.608,-1.105,-0.750
1.611,-1.160,-0.765
1.614,-1.160,-0.755
1.617,-1.165,-0.730
1.619,-1.145,-0.720
1.622,-1.150,-0.705
1.625,-1.135,-0.675
1.628,-1.140,-0.660
1.631,-1.145,-0.660
1.633,-1.135,-0.675
1.636,-1.125,-0.665
1.639,-1.135,-0.680
1.642,-1.120,-0.685
1.644,-1.105,-0.705
1.647,-1.100,-0.705
1.650,-1.100,-0.690
1.653,-1.120,-0.710
1.656,-1.115,-0.700
1.658,-1.100,-0.705
1.661,-1.085,-0.700
1.664,-1.065,-0.675
1.667,-1.060,-0.665
1.669,-1.040,-0.655
1.672,-1.040,-0.655
1.675,-1.040,-0.640
1.678,-1.040,-0.665
1.681,-1.030,-0.680
1.683,-1.040,-0.690
1.686,-1.040,-0.700
1.689,-1.025,-0.705
1.692,-1.020,-0.675
1.694,-1.005,-0.670
1.697,-1.000,-0.640
1.700,-0.975,-0.635
1.703,-0.950,-0.640
1.706,-0.955,-0.640
1.708,-0.930,-0.670
1.711,-0.920,-0.680
1.714,-0.915,-0.675
1.717,-0.895,-0.670
1.719,-0.875,-0.655
1.722,-0.860,-0.650
1.725,-0.855,-0.620
1.728,-0.840,-0.605
1.731,-0.825,-0.615
1.733,-0.790,-0.610
1.736,-0.770,-0.610
1.739,-0.720,-0.610
1.742,-0.700,-0.615
1.744,-0.660,-0.625
1.747,-0.660,-0.620
1.750,-0.660,-0.630
1.753,-0.645,-0.640
1.756,-0.630,-0.645
1.758,-0.605,-0.620
1.761,-0.565,-0.595
1.764,-0.515,-0.595
1.767,-0.475,-0.560
1.769,-0.415,-0.560
1.772,-0.380,-0.560
1.775,-0.355,-0.555
1.778,-0.335,-0.565
1.781,-0.330,-0.590
1.783,-0.325,-0.575
1.786,-0.295,-0.570
1.789,-0.275,-0.560
1.792,-0.250,-0.535
1.794,-0.230,-0.530
1.797,-0.210,-0.525
1.800,-0.205,-0.550
1.803,-0.190,-0.555
1.806,-0.210,-0.575
1.808,-0.185,-0.585
1.811,-0.225,-0.580
1.814,-0.225,-0.585
1.817,-0.250,-0.590
1.819,-0.280,-0.590
1.822,-0.305,-0.615
1.825,-0.350,-0.605
1.828,-0.380,-0.630
1.831,-0.435,-0.630
1.833,-0.485,-0.640
1.836,-0.535,-0.630
1.839,-0.615,-0.640
1.842,-0.680,-0.665
1.844,-0.750,-0.685
1.847,-0.815,-0.715
1.850,-0.885,-0.740
1.853,-0.930,-0.760
1.856,-0.975,-0.740
1.858,-0.990,-0.730
1.861,-0.995,-0.710
1.864,-1.020,-0.680
1.867,-1.020,-0.675
1.869,-1.020,-0.675
1.872,-1.040,-0.700
1.875,-1.050,-0.710
1.878,-1.065,-0.740
1.881,-1.090,-0.735
1.883,-1.105,-0.745
1.886,-1.125,-0.730
1.889,-1.125,-0.730
1.892,-1.140,-0.715
1.894,-1.140,-0.710
1.897,-1.135,-0.695
1.900,-1.130,-0.665
1.903,-1.110,-0.670
1.906,-1.110,-0.700
1.908,-1.110,-0.715
1.911,-1.120,-0.745
1.914,-1.145,-0.765
1.917,-1.135,-0.770
1.919,-1.135,-0.745
1.922,-1.145,-0.720
1.925,-1.130,-0.720
1.928,-1.130,-0.685
1.931,-1.115,-0.675
1.933,-1.110,-0.670
1.936,-1.100,-0.670
1.939,-1.095,-0.700
1.942,-1.110,-0.695
1.944,-1.110,-0.710
1.947,-1.110,-0.720
1.950,-1.105,-0.740
1.953,-1.095,-0.725
1.956,-1.105,-0.730
1.958,-1.110,-0.730
1.961,-1.095,-0.710
1.964,-1.085,-0.710
1.967,-1.080,-0.690
1.969,-1.065,-0.690
1.972,-1.060,-0.690
1.975,-1.080,-0.685
1.978,-1.075,-0.690
1.981,-1.090,-0.700
1.983,-1.095,-0.705
1.986,-1.110,-0.695
1.989,-1.115,-0.710
1.992,-1.105,-0.700
1.994,-1.115,-0.700
1.997,-1.125,-0.690
2.000,-1.105,-0.675
2.003,-1.095,-0.670
2.006,-1.075,-0.700
2.008,-1.110,-0.705
2.011,-1.105,-0.720
2.014,-1.115,-0.705
2.017,-1.135,-0.725
2.019,-1.155,-0.720
2.022,-1.160,-0.700
2.025,-1.155,-0.700
2.028,-1.150,-0.705
2.031,-1.145,-0.705
2.033,-1.140,-0.705
2.036,-1.120,-0.715
2.039,-1.135,-0.710
2.042,-1.140,-0.695
2.044,-1.140,-0.720
2.047,-1.160,-0.720
2.050,-1.180,-0.730
2.053,-1.180,-0.720
2.056,-1.175,-0.720
2.058,-1.185,-0.715
2.061,-1.185,-0.705
2.064,-1.185,-0.690
2.067,-1.180,-0.685
2.069,-1.175,-0.680
2.072,-1.190,-0.670
2.075,-1.185,-0.685
2.078,-1.190,-0.690
2.081,-1.185,-0.695
2.083,-1.195,-0.730
2.086,-1.195,-0.730
2.089,-1.200,-0.725
2.092,-1.195,-0.730
2.094,-1.200,-0.725
2.097,-1.190,-0.710
2.100,-1.190,-0.695
2.103,-1.190,-0.690
2.106,-1.200,-0.695
2.108,-1.205,-0.685
2.111,-1.210,-0.695
2.114,-1.210,-0.720
2.117,-1.220,-0.735
2.119,-1.230,-0.715
2.122,-1.235,-0.720
2.125,-1.225,-0.705
2.128,-1.210,-0.675
2.131,-1.195,-0.660
2.133,-1.175,-0.645
2.136,-1.135,-0.620
2.139,-1.125,-0.605
2.142,-1.105,-0.605
2.144,-1.095,-0.605
2.147,-1.115,-0.615
2.150,-1.120,-0.645
2.153,-1.115,-0.655
2.156,-1.130,-0.660
2.158,-1.110,-0.665
2.161,-1.110,-0.665
2.164,-1.100,-0.665
2.167,-1.080,-0.630
2.169,-1.065,-0.645
2.172,-1.040,-0.650
2.175,-1.030,-0.665
2.178,-1.005,-0.690
2.181,-1.010,-0.710
2.183,-1.000,-0.715
2.186,-1.015,-0.710
2.189,-1.010,-0.700
2.192,-1.000,-0.685
2.194,-1.005,-0.690
2.197,-1.000,-0.655
2.200,-1.010,-0.655
2.203,-1.010,-0.660
2.206,-1.030,-0.680
2.208,-1.070,-0.695
2.211,-1.085,-0.710
2.214,-1.090,-0.700
2.217,-1.110,-0.690
2.219,-1.105,-0.690
2.222,-1.125,-0.680
2.225,-1.160,-0.680
2.228,-1.180,-0.685
2.231,-1.195,-0.675
2.233,-1.225,-0.685
2.236,-1.230,-0.680
2.239,-1.230,-0.690
2.242,-1.250,-0.710
2.244,-1.265,-0.725
2.247,-1.275,-0.735
2.250,-1.275,-0.730
2.253,-1.270,-0.725
2.256,-1.285,-0.695
2.258,-1.290,-0.680
2.261,-1.265,-0.675
2.264,-1.265,-0.655
2.267,-1.240,-0.650
2.269,-1.225,-0.655
2.272,-1.225,-0.675
2.275,-1.210,-0.680
2.278,-1.215,-0.675
2.281,-1.225,-0.670
2.283,-1.240,-0.685
2.286,-1.230,-0.720
2.289,-1.205,-0.765
2.292,-1.165,-0.810
2.294,-1.070,-0.875
2.297,-0.925,-0.985
2.300,-0.720,-1.060
2.303,-0.415,-1.140
2.306,-0.065,-1.220
2.308,0.315,-1.305
2.311,0.745,-1.385
2.314,1.175,-1.460
2.317,1.610,-1.505
2.319,1.975,-1.520
2.322,2.260,-1.460
2.325,2.435,-1.360
2.328,2.495,-1.225
2.331,2.440,-1.070
2.333,2.220,-0.930
2.336,1.790,-0.830
2.339,1.150,-0.785
2.342,0.510,-0.795
2.344,-0.130,-0.800
2.347,-0.770,-0.795
2.350,-1.410,-0.760
2.353,-1.750,-0.740
2.356,-1.505,-0.700
2.358,-1.200,-0.660
2.361,-0.945,-0.620
2.364,-0.820,-0.615
2.367,-0.820,-0.605
2.369,-0.890,-0.625
2.372,-1.020,-0.625
2.375,-1.110,-0.640
2.378,-1.165,-0.615
2.381,-1.185,-0.615
2.383,-1.185,-0.610
2.386,-1.165,-0.595
2.389,-1.150,-0.595
2.392,-1.135,-0.595
2.394,-1.115,-0.590
2.397,-1.145,-0.590
2.400,-1.150,-0.565
2.403,-1.165,-0.565
2.406,-1.175,-0.580
2.408,-1.175,-0.590
2.411,-1.170,-0.610
2.414,-1.165,-0.615
2.417,-1.160,-0.640
2.419,-1.115,-0.615
2.422,-1.100,-0.615
2.425,-1.110,-0.585
2.428,-1.100,-0.570
2.431,-1.100,-0.550
2.433,-1.090,-0.540
2.436,-1.050,-0.535
2.439,-1.055,-0.540
2.442,-1.040,-0.570
2.444,-1.055,-0.595
2.447,-1.050,-0.620
2.450,-1.050,-0.625
2.453,-1.050,-0.595
2.456,-1.050,-0.570
2.458,-1.030,-0.550
2.461,-1.020,-0.535
2.464,-1.000,-0.545
2.467,-0.970,-0.540
2.469,-0.950,-0.550
2.472,-0.930,-0.580
2.475,-0.920,-0.595
2.478,-0.930,-0.595
2.481,-0.925,-0.595
2.483,-0.930,-0.595
2.486,-0.910,-0.590
2.489,-0.890,-0.575
2.492,-0.865,-0.560
2.494,-0.840,-0.560
2.497,-0.825,-0.535
2.500,-0.795,-0.530
2.503,-0.770,-0.510
2.506,-0.745,-0.500
2.508,-0.700,-0.500
2.511,-0.680,-0.505
2.514,-0.675,-0.525
2.517,-0.675,-0.535
2.519,-0.630,-0.540
2.522,-0.615,-0.540
2.525,-0.580,-0.525
2.528,-0.540,-0.510
2.531,-0.500,-0.500
2.533,-0.450,-0.495
2.536,-0.400,-0.495
2.539,-0.365,-0.480
2.542,-0.325,-0.470
2.544,-0.310,-0.470
2.547,-0.305,-0.480
2.550,-0.280,-0.485
2.553,-0.270,-0.495
2.556,-0.275,-0.480
2.558,-0.255,-0.455
2.561,-0.250,-0.455
2.564,-0.230,-0.445
2.567,-0.230,-0.450
2.569,-0.225,-0.455
2.572,-0.240,-0.470
2.575,-0.230,-0.490
2.578,-0.240,-0.495
2.581,-0.275,-0.500
2.583,-0.310,-0.500
2.586,-0.355,-0.525
2.589,-0.390,-0.545
2.592,-0.445,-0.560
2.594,-0.485,-0.585
2.597,-0.550,-0.560
2.600,-0.600,-0.545
2.603,-0.650,-0.550
2.606,-0.715,-0.585
2.608,-0.760,-0.585
2.611,-0.810,-0.620
2.614,-0.880,-0.630
2.617,-0.935,-0.635
2.619,-0.995,-0.625
2.622,-1.030,-0.630
2.625,-1.065,-0.600
2.628,-1.055,-0.585
2.631,-1.075,-0.575
2.633,-1.075,-0.565
2.636,-1.090,-0.560
2.639,-1.085,-0.590
2.642,-1.105,-0.595
2.644,-1.125,-0.615
2.647,-1.125,-0.620
2.650,-1.150,-0.640
2.653,-1.160,-0.650
2.656,-1.165,-0.640
2.658,-1.165,-0.645
2.661,-1.175,-0.610
2.664,-1.170,-0.580
2.667,-1.175,-0.590
2.669,-1.175,-0.580
2.672,-1.135,-0.595
2.675,-1.160,-0.630
2.678,-1.175,-0.635
2.681,-1.175,-0.660
2.683,-1.175,-0.660
2.686,-1.180,-0.640
2.689,-1.175,-0.605
2.692,-1.160,-0.590
2.694,-1.135,-0.585
2.697,-1.130,-0.580
2.700,-1.110,-0.595
2.703,-1.100,-0.595
2.706,-1.120,-0.620
2.708,-1.110,-0.635
2.711,-1.140,-0.615
2.714,-1.150,-0.605
2.717,-1.145,-0.595
2.719,-1.150,-0.605
2.722,-1.150,-0.600
2.725,-1.160,-0.590
2.728,-1.145,-0.600
2.731,-1.140,-0.600
2.733,-1.140,-0.605
2.736,-1.145,-0.595
2.739,-1.140,-0.585
2.742,-1.145,-0.580
2.744,-1.120,-0.585
2.747,-1.135,-0.585
2.750,-1.150,-0.585
2.753,-1.150,-0.595
2.756,-1.170,-0.600
2.758,-1.155,-0.595
2.761,-1.160,-0.580
2.764,-1.145,-0.580
2.767,-1.150,-0.570
2.769,-1.145,-0.565
2.772,-1.150,-0.570
2.775,-1.170,-0.585
2.778,-1.190,-0.590
2.781,-1.215,-0.600
2.783,-1.225,-0.605
2.786,-1.235,-0.600
2.789,-1.210,-0.600
2.792,-1.225,-0.580
2.794,-1.220,-0.575
2.797,-1.200,-0.560
2.800,-1.200,-0.570
2.803,-1.205,-0.585
2.806,-1.195,-0.595
2.808,-1.205,-0.595
2.811,-1.225,-0.605
2.814,-1.230,-0.620
2.817,-1.235,-0.600
2.819,-1.250,-0.595
2.822,-1.260,-0.580
2.825,-1.280,-0.575
2.828,-1.255,-0.550
2.831,-1.245,-0.530
2.833,-1.225,-0.545
2.836,-1.235,-0.580
2.839,-1.245,-0.600
2.842,-1.260,-0.620
2.844,-1.275,-0.615
2.847,-1.280,-0.615
2.850,-1.305,-0.595
2.853,-1.310,-0.575
2.856,-1.310,-0.580
2.858,-1.285,-0.570
2.861,-1.285,-0.560
2.864,-1.275,-0.570
2.867,-1.260,-0.545
2.869,-1.265,-0.550
2.872,-1.260,-0.560
2.875,-1.270,-0.545
2.878,-1.275,-0.565
2.881,-1.290,-0.565
2.883,-1.300,-0.575
2.886,-1.295,-0.575
2.889,-1.290,-0.545
2.892,-1.280,-0.530
2.894,-1.255,-0.510
2.897,-1.240,-0.480
2.900,-1.220,-0.465
2.903,-1.195,-0.465
2.906,-1.185,-0.490
2.908,-1.210,-0.515
2.911,-1.215,-0.515
2.914,-1.215,-0.540
2.917,-1.225,-0.535
2.919,-1.210,-0.545
2.922,-1.210,-0.535
2.925,-1.180,-0.520
2.928,-1.160,-0.520
2.931,-1.140,-0.495
2.933,-1.120,-0.520
2.936,-1.105,-0.560
2.939,-1.095,-0.570
2.942,-1.090,-0.575
2.944,-1.100,-0.585
2.947,-1.140,-0.575
2.950,-1.145,-0.545
2.953,-1.180,-0.545
2.956,-1.210,-0.530
2.958,-1.215,-0.535
2.961,-1.215,-0.525
2.964,-1.230,-0.530
2.967,-1.215,-0.540
2.969,-1.240,-0.530
2.972,-1.260,-0.535
2.975,-1.285,-0.550
2.978,-1.320,-0.550
2.981,-1.345,-0.540
2.983,-1.350,-0.530
2.986,-1.365,-0.540
2.989,-1.385,-0.540
2.992,-1.390,-0.545
2.994,-1.405,-0.535
2.997,-1.400,-0.540
3.000,-1.375,-0.525
3.003,-1.385,-0.515
3.006,-1.365,-0.510
3.008,-1.365,-0.510
3.011,-1.370,-0.510
3.014,-1.380,-0.540
3.017,-1.390,-0.545
3.019,-1.405,-0.550
3.022,-1.405,-0.545
3.025,-1.400,-0.535
3.028,-1.390,-0.510
3.031,-1.370,-0.520
3.033,-1.340,-0.520
3.036,-1.305,-0.580
3.039,-1.220,-0.665
3.042,-1.140,-0.775
3.044,-1.005,-0.875
3.047,-0.785,-0.965
3.050,-0.475,-1.070
3.053,-0.075,-1.145
3.056,0.380,-1.225
3.058,0.915,-1.280
3.061,1.435,-1.280
3.064,1.900,-1.200
3.067,2.225,-1.055
3.069,2.330,-0.915
3.072,2.130,-0.795
3.075,1.580,-0.705
3.078,0.940,-0.655
3.081,0.300,-0.655
3.083,-0.340,-0.655
3.086,-0.980,-0.655
3.089,-1.620,-0.605
3.092,-1.975,-0.570
3.094,-1.625,-0.545
3.097,-1.280,-0.495
3.100,-1.050,-0.480
3.103,-0.980,-0.475
3.106,-1.025,-0.480
3.108,-1.125,-0.495
3.111,-1.250,-0.520
3.114,-1.355,-0.545
3.117,-1.395,-0.525
3.119,-1.405,-0.510
3.122,-1.380,-0.475
3.125,-1.350,-0.450
3.128,-1.335,-0.440
3.131,-1.310,-0.425
3.133,-1.310,-0.430
3.136,-1.300,-0.455
3.139,-1.335,-0.470
3.142,-1.325,-0.490
3.144,-1.350,-0.500
3.147,-1.340,-0.495
3.150,-1.350,-0.495
3.153,-1.335,-0.485
3.156,-1.340,-0.490
3.158,-1.340,-0.465
3.161,-1.310,-0.450
3.164,-1.305,-0.445
3.167,-1.255,-0.390
3.169,-1.255,-0.400
3.172,-1.260,-0.425
3.175,-1.245,-0.420
3.178,-1.245,-0.445
3.181,-1.250,-0.450
3.183,-1.245,-0.475
3.186,-1.240,-0.460
3.189,-1.230,-0.460
3.192,-1.220,-0.450
3.194,-1.185,-0.420
3.197,-1.185,-0.395
3.200,-1.150,-0.410
3.203,-1.130,-0.415
3.206,-1.125,-0.425
3.208,-1.125,-0.450
3.211,-1.105,-0.450
3.214,-1.105,-0.450
3.217,-1.090,-0.450
3.219,-1.080,-0.450
3.222,-1.065,-0.440
3.225,-1.050,-0.410
3.228,-1.025,-0.415
3.231,-1.010,-0.420
3.233,-0.975,-0.390
3.236,-0.975,-0.405
3.239,-0.950,-0.395
3.242,-0.955,-0.400
3.244,-0.900,-0.405
3.247,-0.875,-0.405
3.250,-0.840,-0.390
3.253,-0.820,-0.380
3.256,-0.810,-0.375
3.258,-0.775,-0.375
3.261,-0.750,-0.370
3.264,-0.705,-0.355
3.267,-0.655,-0.345
3.269,-0.610,-0.350
3.272,-0.600,-0.365
3.275,-0.595,-0.380
3.278,-0.595,-0.395
3.281,-0.580,-0.385
3.283,-0.555,-0.375
3.286,-0.545,-0.380
3.289,-0.540,-0.375
3.292,-0.505,-0.375
3.294,-0.475,-0.360
3.297,-0.450,-0.355
3.300,-0.430,-0.335
3.303,-0.430,-0.330
3.306,-0.430,-0.355
3.308,-0.445,-0.340
3.311,-0.470,-0.365
3.314,-0.495,-0.375
3.317,-0.520,-0.410
3.319,-0.570,-0.410
3.322,-0.610,-0.420
3.325,-0.675,-0.385
3.328,-0.715,-0.365
3.331,-0.740,-0.365
3.333,-0.785,-0.380
3.336,-0.835,-0.380
3.339,-0.915,-0.415
3.342,-0.965,-0.445
3.344,-0.995,-0.450
3.347,-1.035,-0.470
3.350,-1.100,-0.460
3.353,-1.155,-0.445
3.356,-1.195,-0.450
3.358,-1.225,-0.435
3.361,-1.240,-0.435
3.364,-1.260,-0.440
3.367,-1.275,-0.445
3.369,-1.295,-0.455
3.372,-1.310,-0.470
3.375,-1.335,-0.480
3.378,-1.350,-0.465
3.381,-1.380,-0.470
3.383,-1.380,-0.480
3.386,-1.395,-0.470
3.389,-1.400,-0.460
3.392,-1.385,-0.465
3.394,-1.380,-0.450
3.397,-1.395,-0.460
3.400,-1.365,-0.445
3.403,-1.365,-0.460
3.406,-1.365,-0.460
3.408,-1.370,-0.480
3.411,-1.395,-0.475
3.414,-1.390,-0.475
3.417,-1.405,-0.450
3.419,-1.415,-0.460
3.422,-1.415,-0.460
3.425,-1.400,-0.445
3.428,-1.375,-0.460
3.431,-1.365,-0.455
3.433,-1.350,-0.455
3.436,-1.345,-0.475
3.439,-1.345,-0.500
3.442,-1.350,-0.490
3.444,-1.345,-0.500
3.447,-1.355,-0.500
3.450,-1.350,-0.490
3.453,-1.355,-0.490
3.456,-1.365,-0.465
3.458,-1.370,-0.450
3.461,-1.360,-0.445
3.464,-1.345,-0.445
3.467,-1.340,-0.445
3.469,-1.330,-0.455
3.472,-1.330,-0.470
3.475,-1.335,-0.455
3.478,-1.345,-0.470
3.481,-1.360,-0.475
3.483,-1.365,-0.470
3.486,-1.365,-0.475
3.489,-1.375,-0.475
3.492,-1.365,-0.465
3.494,-1.350,-0.470
3.497,-1.350,-0.465
3.500,-1.350,-0.450
3.503,-1.360,-0.445
3.506,-1.395,-0.450
3.508,-1.405,-0.470
3.511,-1.420,-0.480
3.514,-1.420,-0.490
3.517,-1.435,-0.470
3.519,-1.415,-0.485
3.522,-1.430,-0.475
3.525,-1.435,-0.465
3.528,-1.430,-0.460
3.531,-1.405,-0.460
3.533,-1.385,-0.450
3.536,-1.385,-0.465
3.539,-1.385,-0.460
3.542,-1.405,-0.470
3.544,-1.410,-0.470
3.547,-1.420,-0.485
3.550,-1.420,-0.455
3.553,-1.445,-0.460
3.556,-1.445,-0.460
3.558,-1.445,-0.450
3.561,-1.430,-0.445
3.564,-1.435,-0.445
3.567,-1.420,-0.445
3.569,-1.425,-0.445
3.572,-1.405,-0.450
3.575,-1.415,-0.460
3.578,-1.425,-0.475
3.581,-1.410,-0.480
3.583,-1.425,-0.475
3.586,-1.435,-0.490
3.589,-1.440,-0.505
3.592,-1.445,-0.475
3.594,-1.440,-0.480
3.597,-1.440,-0.450
3.600,-1.435,-0.445
3.603,-1.435,-0.440
3.606,-1.425,-0.440
3.608,-1.440,-0.455
3.611,-1.430,-0.440
3.614,-1.425,-0.440
3.617,-1.400,-0.410
3.619,-1.405,-0.405
3.622,-1.390,-0.390
3.625,-1.360,-0.365
3.628,-1.330,-0.380
3.631,-1.325,-0.365
3.633,-1.305,-0.390
3.636,-1.310,-0.390
3.639,-1.310,-0.415
3.642,-1.310,-0.425
3.644,-1.330,-0.430
3.647,-1.325,-0.445
3.650,-1.325,-0.460
3.653,-1.330,-0.455
3.656,-1.325,-0.455
3.658,-1.335,-0.445
3.661,-1.305,-0.445
3.664,-1.275,-0.420
3.667,-1.245,-0.425
3.669,-1.215,-0.420
3.672,-1.205,-0.430
3.675,-1.195,-0.435
3.678,-1.210,-0.455
3.681,-1.230,-0.485
3.683,-1.245,-0.480
3.686,-1.275,-0.480
3.689,-1.300,-0.470
3.692,-1.305,-0.475
3.694,-1.295,-0.450
3.697,-1.295,-0.450
3.700,-1.280,-0.435
3.703,-1.295,-0.440
3.706,-1.315,-0.455
3.708,-1.335,-0.475
3.711,-1.370,-0.470
3.714,-1.405,-0.480
3.717,-1.410,-0.470
3.719,-1.415,-0.470
3.722,-1.435,-0.460
3.725,-1.430,-0.485
3.728,-1.435,-0.455
3.731,-1.435,-0.465
3.733,-1.420,-0.430
3.736,-1.430,-0.425
3.739,-1.430,-0.440
3.742,-1.425,-0.475
3.744,-1.420,-0.490
3.747,-1.425,-0.500
3.750,-1.425,-0.490
3.753,-1.435,-0.450
3.756,-1.425,-0.430
3.758,-1.410,-0.420
3.761,-1.400,-0.425
3.764,-1.385,-0.435
3.767,-1.365,-0.450
3.769,-1.340,-0.510
3.772,-1.280,-0.570
3.775,-1.230,-0.645
3.778,-1.125,-0.720
3.781,-0.965,-0.800
3.783,-0.690,-0.870
3.786,-0.390,-0.950
3.789,0.015,-1.020
3.792,0.470,-1.090
3.794,0.930,-1.130
3.797,1.395,-1.135
3.800,1.845,-1.080
3.803,2.120,-0.965
3.806,2.185,-0.810
3.808,2.000,-0.690
3.811,1.475,-0.590
3.814,0.835,-0.560
3.817,0.195,-0.555
3.819,-0.445,-0.585
3.822,-1.085,-0.550
3.825,-1.725,-0.520
3.828,-2.095,-0.485
3.831,-1.770,-0.465
3.833,-1.420,-0.455
3.836,-1.160,-0.465
3.839,-1.050,-0.455
3.842,-1.045,-0.450
3.844,-1.100,-0.445
3.847,-1.195,-0.450
3.850,-1.265,-0.450
3.853,-1.340,-0.440
3.856,-1.360,-0.450
3.858,-1.370,-0.435
3.861,-1.355,-0.435
3.864,-1.310,-0.425
3.867,-1.305,-0.400
3.869,-1.295,-0.405
3.872,-1.295,-0.395
3.875,-1.300,-0.390
3.878,-1.305,-0.420
3.881,-1.300,-0.420
3.883,-1.290,-0.425
3.886,-1.285,-0.415
3.889,-1.285,-0.430
3.892,-1.275,-0.410
3.894,-1.260,-0.405
3.897,-1.255,-0.385
3.900,-1.225,-0.390
3.903,-1.215,-0.385
3.906,-1.215,-0.375
3.908,-1.210,-0.385
3.911,-1.220,-0.390
3.914,-1.225,-0.395
3.917,-1.220,-0.405
3.919,-1.210,-0.400
3.922,-1.190,-0.400
3.925,-1.180,-0.385
3.928,-1.135,-0.365
3.931,-1.105,-0.360
3.933,-1.085,-0.370
3.936,-1.055,-0.385
3.939,-1.050,-0.410
3.942,-1.050,-0.425
3.944,-1.055,-0.415
3.947,-1.065,-0.410
3.950,-1.060,-0.385
3.953,-1.060,-0.390
3.956,-1.060,-0.360
3.958,-1.045,-0.355
3.961,-0.995,-0.340
3.964,-0.970,-0.345
3.967,-0.940,-0.345
3.969,-0.915,-0.380
3.972,-0.865,-0.375
3.975,-0.845,-0.375
3.978,-0.830,-0.385
3.981,-0.810,-0.375
3.983,-0.795,-0.355
3.986,-0.790,-0.345
3.989,-0.785,-0.340
3.992,-0.735,-0.310
3.994,-0.695,-0.310
3.997,-0.655,-0.300
4.000,-0.610,-0.295
4.003,-0.580,-0.305
4.006,-0.545,-0.305
4.008,-0.520,-0.315
4.011,-0.505,-0.315
4.014,-0.495,-0.315
4.017,-0.465,-0.310
4.019,-0.460,-0.285
4.022,-0.445,-0.270
4.025,-0.415,-0.265
4.028,-0.395,-0.255
4.031,-0.390,-0.275
4.033,-0.370,-0.275
4.036,-0.380,-0.290
4.039,-0.390,-0.300
4.042,-0.405,-0.315
4.044,-0.420,-0.320
4.047,-0.440,-0.320
4.050,-0.470,-0.310
4.053,-0.500,-0.315
4.056,-0.535,-0.315
4.058,-0.560,-0.300
4.061,-0.605,-0.320
4.064,-0.645,-0.310
4.067,-0.675,-0.305
4.069,-0.710,-0.325
4.072,-0.755,-0.340
4.075,-0.805,-0.380
4.078,-0.865,-0.405
4.081,-0.925,-0.420
4.083,-0.975,-0.405
4.086,-1.040,-0.400
4.089,-1.080,-0.405
4.092,-1.125,-0.385
4.094,-1.155,-0.400
4.097,-1.175,-0.380
4.100,-1.170,-0.385
4.103,-1.195,-0.380
4.106,-1.215,-0.390
4.108,-1.230,-0.395
4.111,-1.255,-0.420
4.114,-1.270,-0.450
4.117,-1.285,-0.455
4.119,-1.295,-0.440
4.122,-1.325,-0.425
4.125,-1.315,-0.400
4.128,-1.320,-0.405
4.131,-1.315,-0.390
4.133,-1.280,-0.395
4.136,-1.285,-0.410
4.139,-1.275,-0.405
4.142,-1.265,-0.450
4.144,-1.280,-0.455
4.147,-1.290,-0.440
4.150,-1.280,-0.440
4.153,-1.305,-0.430
4.156,-1.310,-0.410
4.158,-1.295,-0.390
4.161,-1.260,-0.405
4.164,-1.245,-0.410
4.167,-1.235,-0.405
4.169,-1.225,-0.405
4.172,-1.225,-0.400
4.175,-1.235,-0.385
4.178,-1.225,-0.410
4.181,-1.230,-0.420
4.183,-1.225,-0.435
4.186,-1.235,-0.450
4.189,-1.250,-0.455
4.192,-1.250,-0.425
4.194,-1.240,-0.420
4.197,-1.245,-0.415
4.200,-1.230,-0.405
4.203,-1.225,-0.405
4.206,-1.220,-0.410
4.208,-1.225,-0.400
4.211,-1.235,-0.400
4.214,-1.240,-0.395
4.217,-1.250,-0.390
4.219,-1.255,-0.425
4.222,-1.270,-0.440
4.225,-1.260,-0.445
4.228,-1.250,-0.450
4.231,-1.250,-0.450
4.233,-1.240,-0.445
4.236,-1.265,-0.430
4.239,-1.260,-0.395
4.242,-1.265,-0.405
4.244,-1.275,-0.390
4.247,-1.290,-0.400
4.250,-1.315,-0.415
4.253,-1.320,-0.445
4.256,-1.330,-0.460
4.258,-1.320,-0.445
4.261,-1.320,-0.450
4.264,-1.320,-0.435
4.267,-1.305,-0.405
4.269,-1.290,-0.405
4.272,-1.300,-0.395
4.275,-1.300,-0.410
4.278,-1.300,-0.435
4.281,-1.310,-0.455
4.283,-1.330,-0.450
4.286,-1.340,-0.450
4.289,-1.350,-0.425
4.292,-1.360,-0.415
4.294,-1.345,-0.395
4.297,-1.335,-0.400
4.300,-1.325,-0.385
4.303,-1.320,-0.405
4.306,-1.320,-0.395
4.308,-1.315,-0.420
4.311,-1.330,-0.430
4.314,-1.340,-0.465
4.317,-1.340,-0.490
4.319,-1.355,-0.480
4.322,-1.350,-0.470
4.325,-1.340,-0.450
4.328,-1.330,-0.415
4.331,-1.325,-0.400
4.333,-1.330,-0.385
4.336,-1.325,-0.400
4.339,-1.330,-0.405
4.342,-1.325,-0.420
4.344,-1.340,-0.445
4.347,-1.340,-0.480
4.350,-1.360,-0.480
4.353,-1.365,-0.465
4.356,-1.375,-0.445
4.358,-1.370,-0.420
4.361,-1.380,-0.395
4.364,-1.345,-0.375
4.367,-1.320,-0.355
4.369,-1.310,-0.370
4.372,-1.290,-0.385
4.375,-1.290,-0.395
4.378,-1.280,-0.400
4.381,-1.265,-0.400
4.383,-1.265,-0.385
4.386,-1.285,-0.390
4.389,-1.275,-0.375
4.392,-1.285,-0.375
4.394,-1.280,-0.360
4.397,-1.260,-0.375
4.400,-1.235,-0.400
4.403,-1.230,-0.440
4.406,-1.215,-0.465
4.408,-1.210,-0.470
4.411,-1.200,-0.455
4.414,-1.205,-0.435
4.417,-1.205,-0.430
4.419,-1.185,-0.435
4.422,-1.155,-0.410
4.425,-1.125,-0.430
4.428,-1.120,-0.415
4.431,-1.125,-0.425
4.433,-1.125,-0.425
4.436,-1.155,-0.425
4.439,-1.185,-0.440
4.442,-1.210,-0.440
4.444,-1.240,-0.465
4.447,-1.260,-0.465
4.450,-1.270,-0.455
4.453,-1.280,-0.450
4.456,-1.290,-0.455
4.458,-1.310,-0.440
4.461,-1.340,-0.455
4.464,-1.355,-0.450
4.467,-1.365,-0.430
4.469,-1.380,-0.450
4.472,-1.375,-0.470
4.475,-1.400,-0.475
4.478,-1.420,-0.475
4.481,-1.400,-0.490
4.483,-1.405,-0.470
4.486,-1.390,-0.475
4.489,-1.400,-0.495
4.492,-1.400,-0.480
4.494,-1.410,-0.470
4.497,-1.400,-0.460
4.500,-1.370,-0.440
4.503,-1.380,-0.420
4.506,-1.370,-0.390
4.508,-1.390,-0.410
4.511,-1.395,-0.415
4.514,-1.380,-0.450
4.517,-1.370,-0.510
4.519,-1.325,-0.570
4.522,-1.260,-0.610
4.525,-1.140,-0.660
4.528,-0.960,-0.735
4.531,-0.730,-0.790
4.533,-0.440,-0.870
4.536,-0.085,-0.985
4.539,0.300,-1.090
4.542,0.710,-1.190
4.544,1.170,-1.250
4.547,1.625,-1.270
4.550,1.990,-1.215
4.553,2.240,-1.065
4.556,2.310,-0.915
4.558,2.150,-0.735
4.561,1.670,-0.635
4.564,1.030,-0.575
4.567,0.390,-0.555
4.569,-0.250,-0.560
4.572,-0.890,-0.545
4.575,-1.530,-0.520
4.578,-1.875,-0.505
4.581,-1.605,-0.495
4.583,-1.290,-0.470
4.586,-1.070,-0.460
4.589,-0.990,-0.430
4.592,-1.000,-0.415
4.594,-1.090,-0.395
4.597,-1.195,-0.365
4.600,-1.280,-0.365
4.603,-1.310,-0.375
4.606,-1.340,-0.380
4.608,-1.325,-0.380
4.611,-1.325,-0.395
4.614,-1.300,-0.365
4.617,-1.310,-0.370
4.619,-1.305,-0.375
4.622,-1.320,-0.360
4.625,-1.315,-0.360
4.628,-1.300,-0.350
4.631,-1.300,-0.345
4.633,-1.295,-0.355
4.636,-1.265,-0.360
4.639,-1.265,-0.370
4.642,-1.250,-0.395
4.644,-1.260,-0.415
4.647,-1.265,-0.400
4.650,-1.270,-0.410
4.653,-1.270,-0.385
4.656,-1.260,-0.395
4.658,-1.260,-0.380
4.661,-1.240,-0.365
4.664,-1.215,-0.355
4.667,-1.200,-0.355
4.669,-1.170,-0.350
4.672,-1.165,-0.345
4.675,-1.170,-0.365
4.678,-1.175,-0.355
4.681,-1.165,-0.340
4.683,-1.175,-0.350
4.686,-1.170,-0.345
4.689,-1.155,-0.330
4.692,-1.145,-0.315
4.694,-1.125,-0.335
4.697,-1.080,-0.320
4.700,-1.080,-0.340
4.703,-1.030,-0.360
4.706,-1.030,-0.385
4.708,-1.015,-0.365
4.711,-1.015,-0.370
4.714,-1.010,-0.365
4.717,-1.000,-0.365
4.719,-0.995,-0.340
4.722,-0.975,-0.330
4.725,-0.950,-0.305
4.728,-0.935,-0.295
4.731,-0.895,-0.285
4.733,-0.855,-0.285
4.736,-0.820,-0.280
4.739,-0.790,-0.275
4.742,-0.760,-0.300
4.744,-0.735,-0.310
4.747,-0.700,-0.315
4.750,-0.670,-0.325
4.753,-0.640,-0.340
4.756,-0.625,-0.330
4.758,-0.595,-0.305
4.761,-0.555,-0.270
4.764,-0.540,-0.250
4.767,-0.510,-0.245
4.769,-0.500,-0.255
4.772,-0.450,-0.245
4.775,-0.425,-0.245
4.778,-0.425,-0.265
4.781,-0.400,-0.280
4.783,-0.400,-0.285
4.786,-0.395,-0.275
4.789,-0.380,-0.260
4.792,-0.365,-0.270
4.794,-0.360,-0.260
4.797,-0.345,-0.255
4.800,-0.335,-0.260
4.803,-0.370,-0.255
4.806,-0.400,-0.280
4.808,-0.435,-0.295
4.811,-0.485,-0.320
4.814,-0.515,-0.320
4.817,-0.550,-0.335
4.819,-0.595,-0.325
4.822,-0.650,-0.330
4.825,-0.700,-0.330
4.828,-0.730,-0.325
4.831,-0.780,-0.335
4.833,-0.800,-0.305
4.836,-0.855,-0.315
4.839,-0.905,-0.350
4.842,-0.955,-0.370
4.844,-1.035,-0.400
4.847,-1.085,-0.410
4.850,-1.120,-0.425
4.853,-1.165,-0.395
4.856,-1.195,-0.380
4.858,-1.215,-0.355
4.861,-1.225,-0.345
4.864,-1.230,-0.360
4.867,-1.230,-0.370
4.869,-1.235,-0.400
4.872,-1.255,-0.410
4.875,-1.260,-0.425
4.878,-1.260,-0.405
4.881,-1.270,-0.415
4.883,-1.265,-0.370
4.886,-1.285,-0.385
4.889,-1.285,-0.370
4.892,-1.295,-0.370
4.894,-1.300,-0.370
4.897,-1.290,-0.375
4.900,-1.290,-0.360
4.903,-1.290,-0.370
4.906,-1.265,-0.365
4.908,-1.275,-0.360
4.911,-1.275,-0.380
4.914,-1.280,-0.400
4.917,-1.270,-0.420
4.919,-1.280,-0.425
4.922,-1.270,-0.400
4.925,-1.260,-0.385
4.928,-1.245,-0.360
4.931,-1.245,-0.325
4.933,-1.225,-0.330
4.936,-1.220,-0.315
4.939,-1.220,-0.350
4.942,-1.225,-0.370
4.944,-1.235,-0.390
4.947,-1.255,-0.420
4.950,-1.270,-0.405
4.953,-1.275,-0.415
4.956,-1.280,-0.395
4.958,-1.265,-0.390
4.961,-1.255,-0.365
4.964,-1.235,-0.370
4.967,-1.225,-0.360
4.969,-1.215,-0.365
4.972,-1.245,-0.365
4.975,-1.255,-0.365
4.978,-1.260,-0.380
4.981,-1.255,-0.400
4.983,-1.270,-0.415
4.986,-1.275,-0.415
4.989,-1.280,-0.410
4.992,-1.280,-0.405
4.994,-1.285,-0.390
4.997,-1.280,-0.370
5.000,-1.270,-0.360
5.003,-1.265,-0.360
5.006,-1.255,-0.370
5.008,-1.275,-0.370
5.011,-1.285,-0.370
5.014,-1.300,-0.385
5.017,-1.330,-0.380
5.019,-1.340,-0.380
5.022,-1.350,-0.385
5.025,-1.345,-0.370
5.028,-1.335,-0.395
5.031,-1.310,-0.390
5.033,-1.315,-0.400
5.036,-1.310,-0.430
5.039,-1.330,-0.390
5.042,-1.335,-0.400
5.044,-1.340,-0.375
5.047,-1.340,-0.375
5.050,-1.340,-0.375
5.053,-1.345,-0.385
5.056,-1.375,-0.385
5.058,-1.380,-0.390
5.061,-1.375,-0.395
5.064,-1.370,-0.370
5.067,-1.380,-0.370
5.069,-1.335,-0.365
5.072,-1.335,-0.355
5.075,-1.345,-0.360
5.078,-1.345,-0.400
5.081,-1.360,-0.410
5.083,-1.365,-0.415
5.086,-1.380,-0.415
5.089,-1.380,-0.405
5.092,-1.385,-0.390
5.094,-1.365,-0.385
5.097,-1.340,-0.385
5.100,-1.335,-0.360
5.103,-1.335,-0.375
5.106,-1.355,-0.365
5.108,-1.360,-0.360
5.111,-1.350,-0.360
5.114,-1.360,-0.365
5.117,-1.335,-0.370
5.119,-1.330,-0.350
5.122,-1.325,-0.345
5.125,-1.310,-0.335
5.128,-1.295,-0.315
5.131,-1.280,-0.315
5.133,-1.265,-0.310
5.136,-1.255,-0.325
5.139,-1.260,-0.355
5.142,-1.260,-0.375
5.144,-1.270,-0.385
5.147,-1.250,-0.380
5.150,-1.260,-0.370
5.153,-1.220,-0.355
5.156,-1.220,-0.345
5.158,-1.195,-0.345
5.161,-1.175,-0.330
5.164,-1.155,-0.340
5.167,-1.135,-0.345
5.169,-1.130,-0.375
5.172,-1.140,-0.380
5.175,-1.170,-0.390
5.178,-1.210,-0.395
5.181,-1.235,-0.390
5.183,-1.260,-0.380
5.186,-1.280,-0.400
5.189,-1.275,-0.400
5.192,-1.280,-0.385
5.194,-1.285,-0.390
5.197,-1.270,-0.365
5.200,-1.285,-0.365
5.203,-1.295,-0.365
5.206,-1.330,-0.365
5.208,-1.375,-0.395
5.211,-1.410,-0.405
5.214,-1.410,-0.405
5.217,-1.440,-0.395
5.219,-1.450,-0.385
5.222,-1.440,-0.385
5.225,-1.410,-0.390
5.228,-1.390,-0.380
5.231,-1.375,-0.385
5.233,-1.355,-0.370
5.236,-1.365,-0.365
5.239,-1.355,-0.355
5.242,-1.375,-0.365
5.244,-1.390,-0.365
5.247,-1.410,-0.385
5.250,-1.415,-0.375
5.253,-1.425,-0.375
5.256,-1.415,-0.360
5.258,-1.400,-0.355
5.261,-1.385,-0.370
5.264,-1.355,-0.390
5.267,-1.320,-0.400
5.269,-1.260,-0.470
5.272,-1.185,-0.535
5.275,-1.070,-0.590
5.278,-0.935,-0.685
5.281,-0.740,-0.775
5.283,-0.500,-0.835
5.286,-0.225,-0.895
5.289,0.090,-0.955
5.292,0.440,-1.010
5.294,0.840,-1.070
5.297,1.275,-1.075
5.300,1.680,-1.015
5.303,1.990,-0.925
5.306,2.145,-0.790
5.308,2.040,-0.645
5.311,1.615,-0.540
5.314,0.975,-0.505
5.317,0.335,-0.510
5.319,-0.305,-0.550
5.322,-0.945,-0.570
5.325,-1.585,-0.520
5.328,-2.055,-0.485
5.331,-1.815,-0.430
5.333,-1.475,-0.380
5.336,-1.220,-0.335
5.339,-1.055,-0.345
5.342,-1.020,-0.340
5.344,-1.090,-0.340
5.347,-1.190,-0.355
5.350,-1.295,-0.380
5.353,-1.350,-0.385
5.356,-1.395,-0.395
5.358,-1.385,-0.380
5.361,-1.380,-0.360
5.364,-1.340,-0.360
5.367,-1.335,-0.330
5.369,-1.335,-0.320
5.372,-1.345,-0.325
5.375,-1.360,-0.320
5.378,-1.350,-0.355
5.381,-1.340,-0.360
5.383,-1.350,-0.345
5.386,-1.340,-0.355
5.389,-1.335,-0.345
5.392,-1.315,-0.335
5.394,-1.300,-0.335
5.397,-1.285,-0.340
5.400,-1.270,-0.320
5.403,-1.265,-0.320
5.406,-1.270,-0.305
5.408,-1.275,-0.330
5.411,-1.280,-0.335
5.414,-1.280,-0.335
5.417,-1.290,-0.330
5.419,-1.280,-0.350
5.422,-1.270,-0.345
5.425,-1.260,-0.335
5.428,-1.250,-0.330
5.431,-1.215,-0.310
5.433,-1.205,-0.270
5.436,-1.175,-0.275
5.439,-1.160,-0.300
5.442,-1.155,-0.335
5.444,-1.160,-0.350
5.447,-1.150,-0.375
5.450,-1.135,-0.370
5.453,-1.145,-0.320
5.456,-1.125,-0.305
5.458,-1.105,-0.270
5.461,-1.100,-0.270
5.464,-1.065,-0.265
5.467,-1.040,-0.280
5.469,-1.005,-0.300
5.472,-0.990,-0.305
5.475,-0.970,-0.325
5.478,-0.970,-0.300
5.481,-0.965,-0.320
5.483,-0.960,-0.300
5.486,-0.955,-0.305
5.489,-0.915,-0.295
5.492,-0.885,-0.285
5.494,-0.830,-0.290
5.497,-0.795,-0.255
5.500,-0.760,-0.225
5.503,-0.715,-0.200
5.506,-0.705,-0.180
5.508,-0.685,-0.205
5.511,-0.670,-0.210
5.514,-0.640,-0.230
5.517,-0.625,-0.245
5.519,-0.595,-0.275
5.522,-0.575,-0.270
5.525,-0.575,-0.280
5.528,-0.570,-0.270
5.531,-0.545,-0.220
5.533,-0.520,-0.205
5.536,-0.515,-0.195
5.539,-0.490,-0.180
5.542,-0.490,-0.200
5.544,-0.510,-0.195
5.547,-0.515,-0.230
5.550,-0.540,-0.230
5.553,-0.545,-0.235
5.556,-0.565,-0.240
5.558,-0.575,-0.245
5.561,-0.600,-0.265
5.564,-0.625,-0.270
5.567,-0.650,-0.270
5.569,-0.700,-0.275
5.572,-0.750,-0.260
5.575,-0.800,-0.270
5.578,-0.855,-0.270
5.581,-0.895,-0.295
5.583,-0.945,-0.295
5.586,-1.010,-0.290
5.589,-1.050,-0.285
5.592,-1.090,-0.270
5.594,-1.115,-0.280
5.597,-1.160,-0.305
5.600,-1.170,-0.320
5.603,-1.180,-0.345
5.606,-1.220,-0.340
5.608,-1.240,-0.370
5.611,-1.270,-0.375
5.614,-1.295,-0.390
5.617,-1.310,-0.365
5.619,-1.320,-0.370
5.622,-1.330,-0.350
5.625,-1.335,-0.345
5.628,-1.325,-0.350
5.631,-1.335,-0.335
5.633,-1.335,-0.320
5.636,-1.320,-0.325
5.639,-1.335,-0.340
5.642,-1.335,-0.335
5.644,-1.345,-0.345
5.647,-1.345,-0.355
5.650,-1.345,-0.360
5.653,-1.355,-0.375
5.656,-1.340,-0.365
5.658,-1.340,-0.360
5.661,-1.330,-0.330
5.664,-1.320,-0.335
5.667,-1.315,-0.315
5.669,-1.310,-0.335
5.672,-1.310,-0.345
5.675,-1.315,-0.380
5.678,-1.320,-0.375
5.681,-1.330,-0.380
5.683,-1.335,-0.365
5.686,-1.350,-0.375
5.689,-1.370,-0.355
5.692,-1.350,-0.335
5.694,-1.335,-0.320
5.697,-1.305,-0.325
5.700,-1.295,-0.340
5.703,-1.275,-0.345
5.706,-1.265,-0.340
5.708,-1.275,-0.355
5.711,-1.280,-0.355
5.714,-1.295,-0.360
5.717,-1.315,-0.375
5.719,-1.310,-0.355
5.722,-1.320,-0.360
5.725,-1.310,-0.345
5.728,-1.305,-0.330
5.731,-1.295,-0.330
5.733,-1.300,-0.320
5.736,-1.290,-0.345
5.739,-1.305,-0.365
5.742,-1.305,-0.370
5.744,-1.310,-0.375
5.747,-1.320,-0.390
5.750,-1.310,-0.380
5.753,-1.315,-0.395
5.756,-1.315,-0.365
5.758,-1.335,-0.360
5.761,-1.345,-0.345
5.764,-1.365,-0.340
5.767,-1.370,-0.335
5.769,-1.375,-0.345
5.772,-1.385,-0.350
5.775,-1.380,-0.375
5.778,-1.395,-0.365
5.781,-1.390,-0.390
5.783,-1.400,-0.380
5.786,-1.400,-0.385
5.789,-1.410,-0.390
5.792,-1.420,-0.385
5.794,-1.400,-0.355
5.797,-1.405,-0.340
5.800,-1.400,-0.320
5.803,-1.390,-0.340
5.806,-1.385,-0.365
5.808,-1.400,-0.380
5.811,-1.400,-0.390
5.814,-1.410,-0.395
5.817,-1.425,-0.385
5.819,-1.415,-0.395
5.822,-1.420,-0.395
5.825,-1.415,-0.385
5.828,-1.400,-0.360
5.831,-1.405,-0.360
5.833,-1.390,-0.335
5.836,-1.380,-0.345
5.839,-1.385,-0.360
5.842,-1.385,-0.370
5.844,-1.395,-0.400
5.847,-1.415,-0.400
5.850,-1.415,-0.395
5.853,-1.410,-0.395
5.856,-1.435,-0.365
5.858,-1.450,-0.370
5.861,-1.440,-0.345
5.864,-1.435,-0.350
5.867,-1.430,-0.335
5.869,-1.405,-0.320
5.872,-1.380,-0.325
5.875,-1.375,-0.315
5.878,-1.335,-0.315
5.881,-1.320,-0.330
5.883,-1.330,-0.330
5.886,-1.330,-0.330
5.889,-1.335,-0.335
5.892,-1.340,-0.320
5.894,-1.340,-0.305
5.897,-1.345,-0.310
5.900,-1.320,-0.290
5.903,-1.315,-0.290
5.906,-1.305,-0.300
5.908,-1.310,-0.345
5.911,-1.310,-0.365
5.914,-1.305,-0.380
5.917,-1.290,-0.395
5.919,-1.250,-0.385
5.922,-1.240,-0.370
5.925,-1.235,-0.335
5.928,-1.235,-0.335
5.931,-1.220,-0.330
5.933,-1.230,-0.345
5.936,-1.235,-0.360
5.939,-1.250,-0.375
5.942,-1.260,-0.370
5.944,-1.300,-0.350
5.947,-1.325,-0.370
5.950,-1.330,-0.370
5.953,-1.315,-0.370
5.956,-1.310,-0.410
5.958,-1.340,-0.400
5.961,-1.335,-0.415
5.964,-1.355,-0.405
5.967,-1.380,-0.395
5.969,-1.400,-0.390
5.972,-1.430,-0.395
5.975,-1.455,-0.405
5.978,-1.460,-0.400
5.981,-1.475,-0.390
5.983,-1.480,-0.390
5.986,-1.480,-0.385
5.989,-1.465,-0.385
5.992,-1.465,-0.380
5.994,-1.455,-0.370
5.997,-1.445,-0.360
6.000,-1.420,-0.360
6.003,-1.410,-0.350
6.006,-1.415,-0.340
6.008,-1.425,-0.325
6.011,-1.445,-0.355
6.014,-1.465,-0.375
6.017,-1.450,-0.405
6.019,-1.415,-0.455
6.022,-1.365,-0.495
6.025,-1.265,-0.560
6.028,-1.125,-0.645
6.031,-0.935,-0.720
6.033,-0.665,-0.790
6.036,-0.330,-0.880
6.039,0.045,-0.955
6.042,0.470,-1.035
6.044,0.880,-1.115
6.047,1.290,-1.155
6.050,1.645,-1.135
6.053,1.900,-1.085
6.056,2.065,-0.980
6.058,2.095,-0.840
6.061,1.910,-0.710
6.064,1.465,-0.615
6.067,0.825,-0.580
6.069,0.185,-0.535
6.072,-0.455,-0.535
6.075,-1.095,-0.525
6.078,-1.735,-0.500
6.081,-1.995,-0.450
6.083,-1.735,-0.405
6.086,-1.450,-0.375
6.089,-1.230,-0.335
6.092,-1.145,-0.335
6.094,-1.145,-0.345
6.097,-1.220,-0.350
6.100,-1.310,-0.355
6.103,-1.370,-0.365
6.106,-1.415,-0.365
6.108,-1.425,-0.360
6.111,-1.420,-0.365
6.114,-1.410,-0.365
6.117,-1.410,-0.370
6.119,-1.405,-0.350
6.122,-1.400,-0.325
6.125,-1.395,-0.310
6.128,-1.400,-0.295
6.131,-1.385,-0.295
6.133,-1.390,-0.285
6.136,-1.350,-0.290
6.139,-1.330,-0.310
6.142,-1.325,-0.335
6.144,-1.325,-0.355
6.147,-1.330,-0.365
6.150,-1.340,-0.365
6.153,-1.325,-0.350
6.156,-1.335,-0.345
6.158,-1.345,-0.340
6.161,-1.330,-0.335
6.164,-1.320,-0.305
6.167,-1.305,-0.295
6.169,-1.285,-0.285
6.172,-1.260,-0.290
6.175,-1.265,-0.280
6.178,-1.255,-0.300
6.181,-1.255,-0.310
6.183,-1.265,-0.325
6.186,-1.240,-0.340
6.189,-1.235,-0.350
6.192,-1.225,-0.345
6.194,-1.190,-0.325
6.197,-1.165,-0.290
6.200,-1.130,-0.280
6.203,-1.110,-0.255
6.206,-1.095,-0.250
6.208,-1.090,-0.235
6.211,-1.090,-0.260
6.214,-1.075,-0.275
6.217,-1.065,-0.295
6.219,-1.040,-0.305
6.222,-1.030,-0.305
6.225,-1.005,-0.340
6.228,-0.975,-0.310
6.231,-0.955,-0.295
6.233,-0.950,-0.275
6.236,-0.915,-0.255
6.239,-0.880,-0.250
6.242,-0.845,-0.235
6.244,-0.830,-0.260
6.247,-0.805,-0.230
6.250,-0.810,-0.240
6.253,-0.765,-0.230
6.256,-0.730,-0.250
6.258,-0.710,-0.235
6.261,-0.675,-0.230
6.264,-0.645,-0.220
6.267,-0.605,-0.190
6.269,-0.595,-0.195
6.272,-0.565,-0.180
6.275,-0.565,-0.185
6.278,-0.570,-0.225
6.281,-0.585,-0.230
6.283,-0.600,-0.240
6.286,-0.605,-0.230
6.289,-0.620,-0.225
6.292,-0.615,-0.215
6.294,-0.605,-0.190
6.297,-0.595,-0.170
6.300,-0.625,-0.195
6.303,-0.605,-0.215
6.306,-0.635,-0.235
6.308,-0.675,-0.245
6.311,-0.725,-0.265
6.314,-0.790,-0.285
6.317,-0.845,-0.305
6.319,-0.905,-0.320
6.322,-0.945,-0.335
6.325,-0.985,-0.340
6.328,-1.015,-0.370
6.331,-1.060,-0.375
6.333,-1.100,-0.390
6.336,-1.105,-0.380
6.339,-1.125,-0.360
6.342,-1.160,-0.365
6.344,-1.190,-0.355
6.347,-1.210,-0.370
6.350,-1.250,-0.370
6.353,-1.255,-0.385
6.356,-1.285,-0.395
6.358,-1.295,-0.390
6.361,-1.290,-0.370
6.364,-1.295,-0.360
6.367,-1.295,-0.355
6.369,-1.285,-0.355
6.372,-1.295,-0.360
6.375,-1.305,-0.390
6.378,-1.340,-0.410
6.381,-1.340,-0.365
6.383,-1.335,-0.385
6.386,-1.340,-0.380
6.389,-1.345,-0.390
6.392,-1.345,-0.380
6.394,-1.325,-0.370
6.397,-1.310,-0.360
6.400,-1.300,-0.375
6.403,-1.290,-0.380
6.406,-1.290,-0.380
6.408,-1.295,-0.390
6.411,-1.305,-0.410
6.414,-1.325,-0.395
6.417,-1.315,-0.410
6.419,-1.315,-0.415
6.422,-1.315,-0.405
6.425,-1.310,-0.405
6.428,-1.300,-0.410
6.431,-1.275,-0.380
6.433,-1.270,-0.370
6.436,-1.290,-0.360
6.439,-1.280,-0.370
6.442,-1.280,-0.370
6.444,-1.270,-0.380
6.447,-1.275,-0.400
6.450,-1.285,-0.410
6.453,-1.300,-0.430
6.456,-1.295,-0.445
6.458,-1.285,-0.420
6.461,-1.280,-0.395
6.464,-1.280,-0.385
6.467,-1.255,-0.380
6.469,-1.250,-0.375
6.472,-1.255,-0.370
6.475,-1.255,-0.370
6.478,-1.265,-0.385
6.481,-1.280,-0.380
6.483,-1.295,-0.380
6.486,-1.290,-0.385
6.489,-1.290,-0.390
6.492,-1.305,-0.395
6.494,-1.295,-0.400
6.497,-1.305,-0.400
6.500,-1.285,-0.380
6.503,-1.280,-0.385
6.506,-1.285,-0.400
6.508,-1.280,-0.410
6.511,-1.310,-0.425
6.514,-1.325,-0.420
6.517,-1.330,-0.425
6.519,-1.335,-0.420
6.522,-1.320,-0.400
6.525,-1.320,-0.390
6.528,-1.305,-0.385
6.531,-1.300,-0.400
6.533,-1.300,-0.390
6.536,-1.310,-0.410
6.539,-1.315,-0.415
6.542,-1.335,-0.410
6.544,-1.340,-0.430
6.547,-1.335,-0.415
6.550,-1.335,-0.430
6.553,-1.345,-0.420
6.556,-1.340,-0.440
6.558,-1.345,-0.430
6.561,-1.335,-0.405
6.564,-1.315,-0.400
6.567,-1.315,-0.390
6.569,-1.310,-0.395
6.572,-1.315,-0.385
6.575,-1.295,-0.395
6.578,-1.315,-0.400
6.581,-1.325,-0.420
6.583,-1.320,-0.430
6.586,-1.335,-0.410
6.589,-1.345,-0.425
6.592,-1.335,-0.415
6.594,-1.340,-0.415
6.597,-1.325,-0.400
6.600,-1.325,-0.385
6.603,-1.310,-0.380
6.606,-1.300,-0.370
6.608,-1.300,-0.365
6.611,-1.295,-0.370
6.614,-1.290,-0.365
6.617,-1.280,-0.375
6.619,-1.280,-0.360
6.622,-1.265,-0.355
6.625,-1.250,-0.360
6.628,-1.240,-0.365
6.631,-1.235,-0.365
6.633,-1.225,-0.355
6.636,-1.220,-0.350
6.639,-1.210,-0.350
6.642,-1.210,-0.355
6.644,-1.220,-0.355
6.647,-1.225,-0.375
6.650,-1.210,-0.390
6.653,-1.215,-0.395
6.656,-1.195,-0.410
6.658,-1.180,-0.385
6.661,-1.160,-0.385
6.664,-1.125,-0.365
6.667,-1.120,-0.365
6.669,-1.125,-0.360
6.672,-1.115,-0.375
6.675,-1.145,-0.385
6.678,-1.160,-0.380
6.681,-1.175,-0.405
6.683,-1.205,-0.420
6.686,-1.215,-0.420
6.689,-1.225,-0.435
6.692,-1.215,-0.450
6.694,-1.225,-0.440
6.697,-1.210,-0.430
6.700,-1.220,-0.410
6.703,-1.235,-0.405
6.706,-1.260,-0.410
6.708,-1.280,-0.420
6.711,-1.315,-0.435
6.714,-1.345,-0.445
6.717,-1.365,-0.450
6.719,-1.385,-0.445
6.722,-1.390,-0.435
6.725,-1.385,-0.440
6.728,-1.380,-0.440
6.731,-1.370,-0.430
6.733,-1.355,-0.410
6.736,-1.340,-0.385
6.739,-1.330,-0.390
6.742,-1.330,-0.410
6.744,-1.345,-0.425
6.747,-1.345,-0.430
6.750,-1.355,-0.420
6.753,-1.335,-0.420
6.756,-1.345,-0.425
6.758,-1.330,-0.430
6.761,-1.315,-0.450
6.764,-1.290,-0.500
6.767,-1.235,-0.565
6.769,-1.135,-0.665
6.772,-1.000,-0.775
6.775,-0.790,-0.860
6.778,-0.510,-0.955
6.781,-0.150,-1.055
6.783,0.240,-1.130
6.786,0.685,-1.205
6.789,1.150,-1.235
6.792,1.630,-1.235
6.794,2.020,-1.175
6.797,2.285,-1.075
6.800,2.390,-0.945
6.803,2.275,-0.840
6.806,1.905,-0.765
6.808,1.290,-0.710
6.811,0.650,-0.680
6.814,0.010,-0.675
6.817,-0.630,-0.655
6.819,-1.270,-0.625
6.822,-1.860,-0.565
6.825,-1.780,-0.515
6.828,-1.520,-0.455
6.831,-1.255,-0.405
6.833,-1.065,-0.400
6.836,-0.985,-0.420
6.839,-1.000,-0.435
6.842,-1.085,-0.450
6.844,-1.195,-0.435
6.847,-1.265,-0.430
6.850,-1.310,-0.435
6.853,-1.310,-0.425
6.856,-1.330,-0.405
6.858,-1.300,-0.370
6.861,-1.270,-0.370
6.864,-1.250,-0.370
6.867,-1.250,-0.375
6.869,-1.255,-0.385
6.872,-1.255,-0.385
6.875,-1.265,-0.390
6.878,-1.260,-0.385
6.881,-1.270,-0.390
6.883,-1.270,-0.395
6.886,-1.260,-0.405
6.889,-1.265,-0.405
6.892,-1.245,-0.385
6.894,-1.230,-0.350
6.897,-1.215,-0.335
6.900,-1.200,-0.315
6.903,-1.190,-0.310
6.906,-1.185,-0.345
6.908,-1.185,-0.370
6.911,-1.195,-0.385
6.914,-1.185,-0.390
6.917,-1.190,-0.360
6.919,-1.190,-0.335
6.922,-1.180,-0.340
6.925,-1.165,-0.340
6.928,-1.160,-0.345
6.931,-1.135,-0.365
6.933,-1.105,-0.370
6.936,-1.080,-0.360
6.939,-1.075,-0.345
6.942,-1.070,-0.360
6.944,-1.045,-0.360
6.947,-1.050,-0.355
6.950,-1.035,-0.370
6.953,-1.040,-0.375
6.956,-1.015,-0.360
6.958,-1.010,-0.345
6.961,-0.975,-0.315
6.964,-0.955,-0.305
6.967,-0.920,-0.295
6.969,-0.870,-0.305
6.972,-0.830,-0.295
6.975,-0.815,-0.300
6.978,-0.810,-0.305
6.981,-0.795,-0.290
6.983,-0.780,-0.310
6.986,-0.735,-0.305
6.989,-0.745,-0.285
6.992,-0.720,-0.265
6.994,-0.680,-0.230
6.997,-0.645,-0.235
7.000,-0.590,-0.235
7.003,-0.555,-0.235
7.006,-0.545,-0.250
7.008,-0.525,-0.260
7.011,-0.515,-0.260
7.014,-0.485,-0.250
7.017,-0.485,-0.270
7.019,-0.470,-0.255
7.022,-0.475,-0.270
7.025,-0.465,-0.245
7.028,-0.460,-0.220
7.031,-0.465,-0.225
7.033,-0.475,-0.240
7.036,-0.485,-0.225
7.039,-0.480,-0.225
7.042,-0.505,-0.245
7.044,-0.540,-0.285
7.047,-0.585,-0.320
7.050,-0.615,-0.350
7.053,-0.655,-0.370
7.056,-0.705,-0.375
7.058,-0.760,-0.345
7.061,-0.810,-0.350
7.064,-0.855,-0.345
7.067,-0.905,-0.360
7.069,-0.920,-0.390
7.072,-0.975,-0.390
7.075,-1.015,-0.410
7.078,-1.065,-0.430
7.081,-1.105,-0.450
7.083,-1.150,-0.460
7.086,-1.185,-0.465
7.089,-1.195,-0.465
7.092,-1.225,-0.450
7.094,-1.215,-0.450
7.097,-1.220,-0.445
7.100,-1.230,-0.420
7.103,-1.235,-0.415
7.106,-1.245,-0.415
7.108,-1.265,-0.430
7.111,-1.265,-0.430
7.114,-1.280,-0.455
7.117,-1.280,-0.445
7.119,-1.295,-0.460
7.122,-1.310,-0.455
7.125,-1.315,-0.450
7.128,-1.310,-0.420
7.131,-1.290,-0.435
7.133,-1.280,-0.435
7.136,-1.280,-0.415
7.139,-1.275,-0.440
7.142,-1.265,-0.430
7.144,-1.275,-0.460
7.147,-1.290,-0.475
7.150,-1.285,-0.470
7.153,-1.290,-0.490
7.156,-1.295,-0.500
7.158,-1.280,-0.480
7.161,-1.280,-0.460
7.164,-1.265,-0.450
7.167,-1.260,-0.435
7.169,-1.245,-0.415
7.172,-1.255,-0.430
7.175,-1.250,-0.430
7.178,-1.240,-0.465
7.181,-1.250,-0.475
7.183,-1.250,-0.475
7.186,-1.250,-0.470
7.189,-1.265,-0.450
7.192,-1.265,-0.425
7.194,-1.280,-0.420
7.197,-1.265,-0.410
7.200,-1.265,-0.420
7.203,-1.245,-0.430
7.206,-1.220,-0.450
7.208,-1.220,-0.465
7.211,-1.230,-0.470
7.214,-1.240,-0.470
7.217,-1.255,-0.440
7.219,-1.270,-0.455
7.222,-1.285,-0.440
7.225,-1.285,-0.445
7.228,-1.285,-0.465
7.231,-1.265,-0.465
7.233,-1.275,-0.465
7.236,-1.270,-0.465
7.239,-1.295,-0.450
7.242,-1.300,-0.445
7.244,-1.315,-0.470
7.247,-1.320,-0.465
7.250,-1.295,-0.485
7.253,-1.290,-0.505
7.256,-1.315,-0.515
7.258,-1.315,-0.500
7.261,-1.325,-0.495
7.264,-1.305,-0.465
7.267,-1.305,-0.450
7.269,-1.290,-0.435
7.272,-1.275,-0.440
7.275,-1.270,-0.465
7.278,-1.280,-0.490
7.281,-1.300,-0.485
7.283,-1.310,-0.510
7.286,-1.320,-0.505
7.289,-1.330,-0.500
7.292,-1.335,-0.530
7.294,-1.330,-0.500
7.297,-1.320,-0.505
7.300,-1.320,-0.485
7.303,-1.325,-0.490
7.306,-1.335,-0.490
7.308,-1.325,-0.490
7.311,-1.325,-0.500
7.314,-1.325,-0.485
7.317,-1.325,-0.500
7.319,-1.320,-0.500
7.322,-1.335,-0.490
7.325,-1.330,-0.500
7.328,-1.330,-0.495
7.331,-1.320,-0.505
7.333,-1.305,-0.490
7.336,-1.300,-0.495
7.339,-1.300,-0.495
7.342,-1.315,-0.490
7.344,-1.300,-0.480
7.347,-1.315,-0.500
7.350,-1.330,-0.495
7.353,-1.345,-0.485
7.356,-1.355,-0.490
7.358,-1.350,-0.475
7.361,-1.320,-0.455
7.364,-1.275,-0.445
7.367,-1.240,-0.430
7.369,-1.225,-0.420
7.372,-1.210,-0.405
7.375,-1.210,-0.400
7.378,-1.210,-0.420
7.381,-1.230,-0.435
7.383,-1.230,-0.450
7.386,-1.240,-0.475
7.389,-1.245,-0.475
7.392,-1.230,-0.455
7.394,-1.210,-0.430
7.397,-1.190,-0.420
7.400,-1.170,-0.415
7.403,-1.140,-0.430
7.406,-1.135,-0.465
7.408,-1.140,-0.480
7.411,-1.130,-0.500
7.414,-1.135,-0.515
7.417,-1.145,-0.505
7.419,-1.165,-0.500
7.422,-1.180,-0.485
7.425,-1.185,-0.480
7.428,-1.190,-0.465
7.431,-1.190,-0.475
7.433,-1.205,-0.480
7.436,-1.180,-0.485
7.439,-1.195,-0.505
7.442,-1.205,-0.515
7.444,-1.215,-0.530
7.447,-1.240,-0.545
7.450,-1.275,-0.560
7.453,-1.300,-0.545
7.456,-1.330,-0.550
7.458,-1.355,-0.535
7.461,-1.355,-0.525
7.464,-1.365,-0.515
7.467,-1.365,-0.510
7.469,-1.350,-0.510
7.472,-1.335,-0.545
7.475,-1.340,-0.555
7.478,-1.330,-0.550
7.481,-1.345,-0.540
7.483,-1.345,-0.535
7.486,-1.360,-0.535
7.489,-1.365,-0.540
7.492,-1.365,-0.535
7.494,-1.360,-0.530
7.497,-1.335,-0.505
7.500,-1.320,-0.500
7.503,-1.305,-0.495
7.506,-1.320,-0.495
7.508,-1.320,-0.495
7.511,-1.310,-0.550
7.514,-1.290,-0.590
7.517,-1.255,-0.655
7.519,-1.175,-0.730
7.522,-1.060,-0.785
7.525,-0.910,-0.860
7.528,-0.700,-0.875
7.531,-0.445,-0.920
7.533,-0.185,-0.955
7.536,0.095,-1.030
7.539,0.375,-1.105
7.542,0.665,-1.190
7.544,1.000,-1.255
7.547,1.345,-1.245
7.550,1.640,-1.180
7.553,1.835,-1.065
7.556,1.845,-0.930
7.558,1.575,-0.850
7.561,1.020,-0.780
7.564,0.380,-0.765
7.567,-0.260,-0.740
7.569,-0.900,-0.710
7.572,-1.540,-0.665
7.575,-1.910,-0.630
7.578,-1.775,-0.590
7.581,-1.525,-0.585
7.583,-1.255,-0.575
7.586,-1.075,-0.585
7.589,-1.020,-0.565
7.592,-1.045,-0.550
7.594,-1.100,-0.545
7.597,-1.170,-0.535
7.600,-1.225,-0.520
7.603,-1.245,-0.510
7.606,-1.260,-0.520
7.608,-1.245,-0.525
7.611,-1.250,-0.525
7.614,-1.235,-0.540
7.617,-1.250,-0.570
7.619,-1.255,-0.560
7.622,-1.265,-0.555
7.625,-1.265,-0.540
7.628,-1.260,-0.520
7.631,-1.240,-0.500
7.633,-1.235,-0.490
7.636,-1.220,-0.480
7.639,-1.240,-0.500
7.642,-1.220,-0.515
7.644,-1.220,-0.540
7.647,-1.225,-0.560
7.650,-1.205,-0.570
7.653,-1.190,-0.555
7.656,-1.195,-0.550
7.658,-1.175,-0.545
7.661,-1.160,-0.520
7.664,-1.170,-0.490
7.667,-1.130,-0.480
7.669,-1.140,-0.475
7.672,-1.110,-0.480
7.675,-1.125,-0.495
7.678,-1.120,-0.515
7.681,-1.130,-0.510
7.683,-1.110,-0.520
7.686,-1.100,-0.515
7.689,-1.085,-0.515
7.692,-1.075,-0.525
7.694,-1.055,-0.515
7.697,-1.040,-0.490
7.700,-1.015,-0.495
7.703,-1.000,-0.485
7.706,-0.985,-0.475
7.708,-0.975,-0.480
7.711,-0.955,-0.485
7.714,-0.935,-0.495
7.717,-0.920,-0.490
7.719,-0.895,-0.485
7.722,-0.890,-0.480
7.725,-0.875,-0.495
7.728,-0.855,-0.490
7.731,-0.840,-0.475
7.733,-0.815,-0.450
7.736,-0.785,-0.420
7.739,-0.750,-0.425
7.742,-0.725,-0.410
7.744,-0.710,-0.430
7.747,-0.670,-0.465
7.750,-0.650,-0.465
7.753,-0.615,-0.470
7.756,-0.605,-0.460
7.758,-0.580,-0.450
7.761,-0.550,-0.435
7.764,-0.515,-0.430
7.767,-0.490,-0.405
7.769,-0.435,-0.380
7.772,-0.410,-0.390
7.775,-0.380,-0.395
7.778,-0.360,-0.395
7.781,-0.350,-0.410
7.783,-0.345,-0.405
7.786,-0.350,-0.395
7.789,-0.350,-0.410
7.792,-0.360,-0.390
7.794,-0.350,-0.405
7.797,-0.325,-0.390
7.800,-0.315,-0.385
7.803,-0.290,-0.375
7.806,-0.295,-0.390
7.808,-0.315,-0.410
7.811,-0.335,-0.440
7.814,-0.380,-0.435
7.817,-0.445,-0.450
7.819,-0.495,-0.480
7.822,-0.545,-0.470
7.825,-0.600,-0.470
7.828,-0.630,-0.480
7.831,-0.670,-0.490
7.833,-0.710,-0.470
7.836,-0.730,-0.470
7.839,-0.765,-0.485
7.842,-0.815,-0.505
7.844,-0.860,-0.535
7.847,-0.895,-0.560
7.850,-0.930,-0.570
7.853,-0.950,-0.570
7.856,-0.985,-0.585
7.858,-0.995,-0.580
7.861,-0.990,-0.545
7.864,-1.005,-0.535
7.867,-1.010,-0.525
7.869,-1.030,-0.520
7.872,-1.045,-0.525
7.875,-1.050,-0.560
7.878,-1.070,-0.565
7.881,-1.080,-0.575
7.883,-1.075,-0.605
7.886,-1.080,-0.595
7.889,-1.085,-0.580
7.892,-1.090,-0.575
7.894,-1.090,-0.550
7.897,-1.075,-0.555
7.900,-1.075,-0.550
7.903,-1.050,-0.535
7.906,-1.040,-0.560
7.908,-1.035,-0.570
7.911,-1.050,-0.580
7.914,-1.065,-0.605
7.917,-1.070,-0.615
7.919,-1.085,-0.600
7.922,-1.080,-0.600
7.925,-1.075,-0.575
7.928,-1.060,-0.575
7.931,-1.045,-0.545
7.933,-1.035,-0.530
7.936,-1.015,-0.535
7.939,-1.010,-0.550
7.942,-1.000,-0.555
7.944,-1.005,-0.550
7.947,-1.020,-0.575
7.950,-1.020,-0.590
7.953,-1.025,-0.605
7.956,-1.025,-0.605
7.958,-1.030,-0.590
7.961,-1.030,-0.585
7.964,-1.015,-0.570
7.967,-0.985,-0.555
7.969,-0.970,-0.525
7.972,-0.965,-0.535
7.975,-0.985,-0.530
7.978,-0.995,-0.550
7.981,-1.010,-0.585
7.983,-1.010,-0.590
7.986,-1.020,-0.600
7.989,-1.035,-0.610
7.992,-1.040,-0.615
7.994,-1.030,-0.615
7.997,-1.035,-0.580
8.000,-1.040,-0.565
8.003,-1.035,-0.545
8.006,-1.020,-0.540
8.008,-1.020,-0.535
8.011,-1.030,-0.550
8.014,-1.050,-0.560
8.017,-1.050,-0.570
8.019,-1.065,-0.590
8.022,-1.060,-0.600
8.025,-1.065,-0.620
8.028,-1.060,-0.615
8.031,-1.055,-0.585
8.033,-1.040,-0.600
8.036,-1.030,-0.600
8.039,-1.045,-0.580
8.042,-1.055,-0.585
8.044,-1.070,-0.595
8.047,-1.080,-0.610
8.050,-1.085,-0.620
8.053,-1.075,-0.615
8.056,-1.090,-0.600
8.058,-1.085,-0.590
8.061,-1.085,-0.585
8.064,-1.075,-0.585
8.067,-1.070,-0.585
8.069,-1.050,-0.590
8.072,-1.055,-0.605
8.075,-1.055,-0.600
8.078,-1.060,-0.620
8.081,-1.085,-0.630
8.083,-1.095,-0.640
8.086,-1.095,-0.635
8.089,-1.090,-0.620
8.092,-1.085,-0.595
8.094,-1.080,-0.585
8.097,-1.090,-0.580
8.100,-1.075,-0.595
8.103,-1.040,-0.595
8.106,-1.055,-0.605
8.108,-1.050,-0.610
8.111,-1.070,-0.595
8.114,-1.065,-0.610
8.117,-1.055,-0.590
8.119,-1.045,-0.575
8.122,-1.025,-0.555
8.125,-0.990,-0.535
8.128,-0.990,-0.520
8.131,-0.960,-0.510
8.133,-0.960,-0.525
8.136,-0.940,-0.545
8.139,-0.920,-0.570
8.142,-0.920,-0.570
8.144,-0.935,-0.575
8.147,-0.940,-0.585
8.150,-0.960,-0.575
8.153,-0.950,-0.580
8.156,-0.940,-0.590
8.158,-0.915,-0.615
8.161,-0.890,-0.610
8.164,-0.870,-0.610
8.167,-0.870,-0.620
8.169,-0.860,-0.590
8.172,-0.875,-0.580
8.175,-0.875,-0.565
8.178,-0.875,-0.565
8.181,-0.890,-0.605
8.183,-0.905,-0.610
8.186,-0.905,-0.615
8.189,-0.945,-0.630
8.192,-0.960,-0.620
8.194,-0.980,-0.605
8.197,-0.995,-0.610
8.200,-1.020,-0.595
8.203,-1.025,-0.605
8.206,-1.045,-0.605
8.208,-1.060,-0.640
8.211,-1.060,-0.665
8.214,-1.085,-0.670
8.217,-1.100,-0.670
8.219,-1.130,-0.660
8.222,-1.145,-0.650
8.225,-1.130,-0.630
8.228,-1.125,-0.625
8.231,-1.095,-0.615
8.233,-1.090,-0.620
8.236,-1.080,-0.615
8.239,-1.085,-0.615
8.242,-1.075,-0.615
8.244,-1.095,-0.615
8.247,-1.105,-0.615
8.250,-1.130,-0.630
8.253,-1.135,-0.625
8.256,-1.135,-0.635
8.258,-1.130,-0.660
8.261,-1.085,-0.670
8.264,-1.030,-0.715
8.267,-0.945,-0.755
8.269,-0.830,-0.830
8.272,-0.680,-0.925
8.275,-0.470,-1.020
8.278,-0.210,-1.120
8.281,0.120,-1.240
8.283,0.485,-1.310
8.286,0.890,-1.395
8.289,1.330,-1.445
8.292,1.735,-1.450
8.294,2.100,-1.400
8.297,2.345,-1.295
8.300,2.435,-1.170
8.303,2.315,-1.035
8.306,1.900,-0.940
8.308,1.260,-0.870
8.311,0.620,-0.835
8.314,-0.020,-0.820
8.317,-0.660,-0.805
8.319,-1.300,-0.760
8.322,-1.675,-0.730
8.325,-1.425,-0.670
8.328,-1.085,-0.625
8.331,-0.800,-0.635
8.333,-0.660,-0.630
8.336,-0.650,-0.640
8.339,-0.725,-0.625
8.342,-0.845,-0.635
8.344,-0.960,-0.650
8.347,-1.035,-0.640
8.350,-1.070,-0.635
8.353,-1.085,-0.635
8.356,-1.080,-0.630
8.358,-1.060,-0.595
8.361,-1.045,-0.580
8.364,-1.030,-0.570
8.367,-1.025,-0.565
8.369,-1.015,-0.555
8.372,-1.005,-0.590
8.375,-1.000,-0.605
8.378,-0.990,-0.605
8.381,-0.990,-0.625
8.383,-1.000,-0.615
8.386,-1.000,-0.605
8.389,-0.995,-0.605
8.392,-1.015,-0.610
8.394,-1.020,-0.595
8.397,-1.005,-0.580
8.400,-1.015,-0.580
8.403,-0.990,-0.570
8.406,-0.985,-0.545
8.408,-0.965,-0.555
8.411,-0.960,-0.545
8.414,-0.960,-0.545
8.417,-0.960,-0.555
8.419,-0.950,-0.565
8.422,-0.935,-0.580
8.425,-0.920,-0.600
8.428,-0.910,-0.590
8.431,-0.900,-0.565
8.433,-0.895,-0.565
8.436,-0.870,-0.530
8.439,-0.870,-0.510
8.442,-0.865,-0.525
8.444,-0.850,-0.530
8.447,-0.870,-0.550
8.450,-0.865,-0.560
8.453,-0.840,-0.565
8.456,-0.830,-0.570
8.458,-0.810,-0.555
8.461,-0.800,-0.550
8.464,-0.775,-0.530
8.467,-0.740,-0.505
8.469,-0.705,-0.490
8.472,-0.680,-0.490
8.475,-0.665,-0.465
8.478,-0.645,-0.480
8.481,-0.635,-0.505
8.483,-0.615,-0.485
8.486,-0.610,-0.495
8.489,-0.580,-0.485
8.492,-0.550,-0.480
8.494,-0.515,-0.465
8.497,-0.490,-0.460
8.500,-0.450,-0.455
8.503,-0.430,-0.445
8.506,-0.375,-0.440
8.508,-0.340,-0.445
8.511,-0.320,-0.440
8.514,-0.305,-0.460
8.517,-0.290,-0.480
8.519,-0.290,-0.485
8.522,-0.265,-0.465
8.525,-0.255,-0.460
8.528,-0.245,-0.425
8.531,-0.225,-0.425
8.533,-0.215,-0.410
8.536,-0.180,-0.390
8.539,-0.165,-0.395
8.542,-0.165,-0.435
8.544,-0.185,-0.445
8.547,-0.200,-0.460
8.550,-0.235,-0.485
8.553,-0.255,-0.490
8.556,-0.290,-0.495
8.558,-0.330,-0.500
8.561,-0.390,-0.510
8.564,-0.420,-0.500
8.567,-0.455,-0.480
8.569,-0.500,-0.490
8.572,-0.540,-0.490
8.575,-0.585,-0.515
8.578,-0.625,-0.540
8.581,-0.685,-0.575
8.583,-0.740,-0.590
8.586,-0.755,-0.615
8.589,-0.805,-0.615
8.592,-0.820,-0.610
8.594,-0.840,-0.580
8.597,-0.870,-0.585
8.600,-0.885,-0.605
8.603,-0.910,-0.615
8.606,-0.925,-0.630
8.608,-0.950,-0.655
8.611,-0.975,-0.660
8.614,-0.990,-0.665
8.617,-1.025,-0.645
8.619,-1.025,-0.645
8.622,-1.015,-0.645
8.625,-1.040,-0.650
8.628,-1.035,-0.640
8.631,-1.005,-0.625
8.633,-0.990,-0.630
8.636,-0.980,-0.620
8.639,-0.980,-0.620
8.642,-0.970,-0.620
8.644,-0.990,-0.635
8.647,-0.985,-0.645
8.650,-1.005,-0.655
8.653,-1.010,-0.670
8.656,-1.020,-0.665
8.658,-1.010,-0.650
8.661,-1.025,-0.625
8.664,-1.010,-0.605
8.667,-1.025,-0.610
8.669,-1.010,-0.605
8.672,-1.010,-0.625
8.675,-1.010,-0.620
8.678,-1.015,-0.635
8.681,-1.010,-0.640
8.683,-1.005,-0.635
8.686,-0.995,-0.640
8.689,-1.000,-0.620
8.692,-1.000,-0.610
8.694,-0.975,-0.625
8.697,-0.980,-0.625
8.700,-0.970,-0.625
8.703,-0.960,-0.640
8.706,-0.970,-0.640
8.708,-0.980,-0.645
8.711,-0.990,-0.655
8.714,-1.020,-0.650
8.717,-1.015,-0.640
8.719,-1.010,-0.625
8.722,-1.010,-0.625
8.725,-1.015,-0.620
8.728,-1.025,-0.640
8.731,-1.010,-0.625
8.733,-1.010,-0.620
8.736,-0.990,-0.625
8.739,-0.970,-0.630
8.742,-0.980,-0.650
8.744,-0.980,-0.645
8.747,-1.005,-0.675
8.750,-1.015,-0.690
8.753,-1.030,-0.665
8.756,-1.035,-0.680
8.758,-1.030,-0.665
8.761,-1.015,-0.650
8.764,-1.010,-0.640
8.767,-1.000,-0.630
8.769,-0.990,-0.625
8.772,-1.010,-0.640
8.775,-1.035,-0.650
8.778,-1.060,-0.685
8.781,-1.060,-0.685
8.783,-1.050,-0.695
8.786,-1.055,-0.680
8.789,-1.050,-0.680
8.792,-1.030,-0.670
8.794,-1.040,-0.655
8.797,-1.050,-0.655
8.800,-1.035,-0.655
8.803,-1.040,-0.640
8.806,-1.030,-0.635
8.808,-1.020,-0.625
8.811,-1.025,-0.650
8.814,-1.050,-0.660
8.817,-1.060,-0.675
8.819,-1.055,-0.685
8.822,-1.060,-0.690
8.825,-1.050,-0.715
8.828,-1.045,-0.675
8.831,-1.045,-0.700
8.833,-1.050,-0.675
8.836,-1.040,-0.665
8.839,-1.045,-0.660
8.842,-1.070,-0.640
8.844,-1.070,-0.645
8.847,-1.075,-0.660
8.850,-1.080,-0.675
8.853,-1.090,-0.690
8.856,-1.085,-0.685
8.858,-1.080,-0.675
8.861,-1.065,-0.645
8.864,-1.050,-0.620
8.867,-1.025,-0.600
8.869,-0.985,-0.580
8.872,-0.950,-0.605
8.875,-0.940,-0.600
8.878,-0.925,-0.635
8.881,-0.915,-0.630
8.883,-0.930,-0.645
8.886,-0.925,-0.650
8.889,-0.930,-0.630
8.892,-0.940,-0.625
8.894,-0.950,-0.635
8.897,-0.945,-0.610
8.900,-0.935,-0.615
8.903,-0.920,-0.595
8.906,-0.895,-0.595
8.908,-0.855,-0.620
8.911,-0.850,-0.640
8.914,-0.835,-0.640
8.917,-0.840,-0.645
8.919,-0.860,-0.645
8.922,-0.875,-0.650
8.925,-0.885,-0.670
8.928,-0.890,-0.650
8.931,-0.890,-0.655
8.933,-0.910,-0.645
8.936,-0.915,-0.665
8.939,-0.925,-0.670
8.942,-0.930,-0.680
8.944,-0.940,-0.680
8.947,-0.965,-0.685
8.950,-0.985,-0.660
8.953,-1.000,-0.670
8.956,-1.035,-0.690
8.958,-1.070,-0.690
8.961,-1.085,-0.710
8.964,-1.100,-0.720
8.967,-1.100,-0.695
8.969,-1.095,-0.680
8.972,-1.110,-0.665
8.975,-1.105,-0.670
8.978,-1.125,-0.685
8.981,-1.130,-0.690
8.983,-1.120,-0.700
8.986,-1.125,-0.700
8.989,-1.115,-0.700
8.992,-1.125,-0.700
8.994,-1.105,-0.690
8.997,-1.100,-0.670
9.000,-1.090,-0.665
9.003,-1.085,-0.650
9.006,-1.070,-0.660
9.008,-1.075,-0.670
9.011,-1.080,-0.695
9.014,-1.050,-0.750
9.017,-0.995,-0.830
9.019,-0.880,-0.955
9.022,-0.695,-1.065
9.025,-0.410,-1.190
9.028,-0.040,-1.305
9.031,0.435,-1.390
9.033,0.955,-1.470
9.036,1.490,-1.510
9.039,1.965,-1.490
9.042,2.310,-1.425
9.044,2.475,-1.310
9.047,2.400,-1.180
9.050,2.015,-1.065
9.053,1.375,-1.000
9.056,0.735,-0.950
9.058,0.095,-0.935
9.061,-0.545,-0.895
9.064,-1.185,-0.845
9.067,-1.805,-0.780
9.069,-1.530,-0.735
9.072,-1.155,-0.695
9.075,-0.845,-0.660
9.078,-0.690,-0.650
9.081,-0.685,-0.665
9.083,-0.775,-0.680
9.086,-0.910,-0.685
9.089,-1.010,-0.720
9.092,-1.085,-0.715
9.094,-1.110,-0.695
9.097,-1.105,-0.660
9.100,-1.085,-0.660
9.103,-1.065,-0.615
9.106,-1.035,-0.605
9.108,-1.055,-0.640
9.111,-1.050,-0.645
9.114,-1.055,-0.675
9.117,-1.055,-0.685
9.119,-1.050,-0.695
9.122,-1.060,-0.680
9.125,-1.045,-0.660
9.128,-1.055,-0.645
9.131,-1.050,-0.630
9.133,-1.025,-0.625
9.136,-1.010,-0.630
9.139,-1.015,-0.625
9.142,-1.005,-0.615
9.144,-0.985,-0.625
9.147,-0.980,-0.630
9.150,-0.980,-0.640
9.153,-0.980,-0.650
9.156,-0.975,-0.660
9.158,-0.965,-0.645
9.161,-0.965,-0.610
9.164,-0.935,-0.575
9.167,-0.905,-0.555
9.169,-0.895,-0.550
9.172,-0.885,-0.555
9.175,-0.865,-0.585
9.178,-0.870,-0.630
9.181,-0.850,-0.640
9.183,-0.865,-0.635
9.186,-0.875,-0.640
9.189,-0.860,-0.610
9.192,-0.855,-0.615
9.194,-0.840,-0.570
9.197,-0.820,-0.560
9.200,-0.800,-0.555
9.203,-0.775,-0.565
9.206,-0.740,-0.565
9.208,-0.715,-0.550
9.211,-0.685,-0.550
9.214,-0.675,-0.540
9.217,-0.640,-0.545
9.219,-0.630,-0.550
9.222,-0.605,-0.545
9.225,-0.575,-0.540
9.228,-0.555,-0.520
9.231,-0.520,-0.520
9.233,-0.475,-0.525
9.236,-0.455,-0.510
9.239,-0.425,-0.500
9.242,-0.415,-0.485
9.244,-0.405,-0.470
9.247,-0.390,-0.475
9.250,-0.370,-0.475
9.253,-0.335,-0.485
9.256,-0.310,-0.500
9.258,-0.300,-0.495
9.261,-0.270,-0.495
9.264,-0.240,-0.485
9.267,-0.220,-0.475
9.269,-0.200,-0.480
9.272,-0.185,-0.480
9.275,-0.190,-0.500
9.278,-0.195,-0.505
9.281,-0.195,-0.510
9.283,-0.215,-0.495
9.286,-0.235,-0.505
9.289,-0.250,-0.500
9.292,-0.285,-0.500
9.294,-0.305,-0.515
9.297,-0.340,-0.530
9.300,-0.355,-0.545
9.303,-0.385,-0.560
9.306,-0.430,-0.570
9.308,-0.470,-0.600
9.311,-0.520,-0.610
9.314,-0.570,-0.625
9.317,-0.605,-0.620
9.319,-0.660,-0.630
9.322,-0.705,-0.650
9.325,-0.745,-0.665
9.328,-0.780,-0.650
9.331,-0.815,-0.645
9.333,-0.845,-0.635
9.336,-0.860,-0.615
9.339,-0.880,-0.620
9.342,-0.900,-0.640
9.344,-0.925,-0.665
9.347,-0.945,-0.700
9.350,-0.965,-0.715
9.353,-0.970,-0.725
9.356,-0.975,-0.720
9.358,-0.995,-0.695
9.361,-0.990,-0.670
9.364,-0.980,-0.670
9.367,-0.990,-0.665
9.369,-0.985,-0.660
9.372,-0.980,-0.685
9.375,-0.985,-0.690
9.378,-0.995,-0.710
9.381,-1.025,-0.705
9.383,-1.040,-0.710
9.386,-1.040,-0.680
9.389,-1.035,-0.680
9.392,-1.035,-0.670
9.394,-1.050,-0.675
9.397,-1.060,-0.680
9.400,-1.030,-0.705
9.403,-1.010,-0.695
9.406,-1.010,-0.700
9.408,-1.005,-0.690
9.411,-1.010,-0.675
9.414,-1.010,-0.665
9.417,-1.015,-0.690
9.419,-1.005,-0.695
9.422,-1.005,-0.710
9.425,-1.005,-0.710
9.428,-1.010,-0.710
9.431,-0.995,-0.690
9.433,-1.005,-0.660
9.436,-0.995,-0.655
9.439,-0.995,-0.655
9.442,-1.015,-0.680
9.444,-1.000,-0.685
9.447,-1.005,-0.700
9.450,-1.015,-0.720
9.453,-1.025,-0.690
9.456,-1.020,-0.670
9.458,-1.010,-0.665
9.461,-0.995,-0.660
9.464,-0.995,-0.655
9.467,-1.000,-0.665
9.469,-0.990,-0.665
9.472,-0.980,-0.695
9.475,-0.995,-0.720
9.478,-1.005,-0.710
9.481,-1.020,-0.730
9.483,-1.020,-0.745
9.486,-1.030,-0.735
9.489,-1.045,-0.730
9.492,-1.045,-0.685
9.494,-1.060,-0.665
9.497,-1.050,-0.680
9.500,-1.070,-0.660
9.503,-1.060,-0.640
9.506,-1.040,-0.660
9.508,-1.055,-0.670
9.511,-1.060,-0.695
9.514,-1.055,-0.720
9.517,-1.075,-0.725
9.519,-1.085,-0.725
9.522,-1.095,-0.715
9.525,-1.105,-0.700
9.528,-1.115,-0.695
9.531,-1.105,-0.695
9.533,-1.105,-0.680
9.536,-1.100,-0.680
9.539,-1.090,-0.675
9.542,-1.115,-0.695
9.544,-1.125,-0.700
9.547,-1.130,-0.695
9.550,-1.135,-0.700
9.553,-1.145,-0.700
9.556,-1.140,-0.710
9.558,-1.120,-0.715
9.561,-1.115,-0.695
9.564,-1.100,-0.705
9.567,-1.110,-0.695
9.569,-1.125,-0.680
9.572,-1.120,-0.675
9.575,-1.120,-0.670
9.578,-1.125,-0.665
9.581,-1.125,-0.680
9.583,-1.150,-0.695
9.586,-1.155,-0.690
9.589,-1.180,-0.680
9.592,-1.180,-0.710
9.594,-1.170,-0.700
9.597,-1.145,-0.700
9.600,-1.135,-0.680
9.603,-1.125,-0.675
9.606,-1.125,-0.655
9.608,-1.105,-0.655
9.611,-1.115,-0.655
9.614,-1.110,-0.670
9.617,-1.100,-0.655
9.619,-1.100,-0.665
9.622,-1.070,-0.655
9.625,-1.060,-0.675
9.628,-1.050,-0.655
9.631,-1.045,-0.630
9.633,-1.045,-0.630
9.636,-1.035,-0.605
9.639,-1.050,-0.615
9.642,-1.040,-0.635
9.644,-1.055,-0.650
9.647,-1.040,-0.670
9.650,-1.040,-0.680
9.653,-1.025,-0.680
9.656,-1.005,-0.695
9.658,-1.000,-0.685
9.661,-0.985,-0.675
9.664,-0.965,-0.660
9.667,-0.940,-0.670
9.669,-0.935,-0.660
9.672,-0.930,-0.655
9.675,-0.955,-0.665
9.678,-0.955,-0.655
9.681,-0.975,-0.660
9.683,-1.005,-0.655
9.686,-1.015,-0.670
9.689,-1.035,-0.690
9.692,-1.050,-0.710
9.694,-1.055,-0.710
9.697,-1.045,-0.700
9.700,-1.060,-0.700
9.703,-1.080,-0.680
9.706,-1.085,-0.670
9.708,-1.125,-0.700
9.711,-1.160,-0.720
9.714,-1.205,-0.750
9.717,-1.235,-0.760
9.719,-1.255,-0.760
9.722,-1.265,-0.735
9.725,-1.270,-0.710
9.728,-1.245,-0.690
9.731,-1.220,-0.685
9.733,-1.205,-0.700
9.736,-1.190,-0.700
9.739,-1.195,-0.715
9.742,-1.185,-0.725
9.744,-1.170,-0.715
9.747,-1.170,-0.735
9.750,-1.160,-0.705
9.753,-1.180,-0.710
9.756,-1.180,-0.695
9.758,-1.195,-0.690
9.761,-1.195,-0.690
9.764,-1.220,-0.700
9.767,-1.200,-0.740
9.769,-1.175,-0.780
9.772,-1.110,-0.845
9.775,-0.975,-0.930
9.778,-0.805,-1.045
9.781,-0.550,-1.140
9.783,-0.230,-1.230
9.786,0.145,-1.340
9.789,0.600,-1.405
9.792,1.070,-1.475
9.794,1.570,-1.535
9.797,2.000,-1.525
9.800,2.310,-1.485
9.803,2.485,-1.390
9.806,2.510,-1.275
9.808,2.345,-1.120
9.811,1.930,-1.030
9.814,1.290,-0.985
9.817,0.650,-0.950
9.819,0.010,-0.935
9.822,-0.630,-0.900
9.825,-1.270,-0.845
9.828,-1.730,-0.780
9.831,-1.455,-0.705
9.833,-1.155,-0.670
9.836,-0.935,-0.645
9.839,-0.855,-0.630
9.842,-0.885,-0.670
9.844,-0.985,-0.685
9.847,-1.100,-0.705
9.850,-1.185,-0.700
9.853,-1.220,-0.725
9.856,-1.215,-0.695
9.858,-1.215,-0.675
9.861,-1.180,-0.670
9.864,-1.165,-0.655
9.867,-1.145,-0.650
9.869,-1.145,-0.610
9.872,-1.145,-0.625
9.875,-1.160,-0.635
9.878,-1.160,-0.635
9.881,-1.160,-0.665
9.883,-1.170,-0.650
9.886,-1.165,-0.655
9.889,-1.175,-0.640
9.892,-1.165,-0.625
9.894,-1.160,-0.620
9.897,-1.135,-0.615
9.900,-1.120,-0.610
9.903,-1.100,-0.595
9.906,-1.085,-0.600
9.908,-1.080,-0.620
9.911,-1.075,-0.635
9.914,-1.090,-0.635
9.917,-1.085,-0.650
9.919,-1.085,-0.645
9.922,-1.075,-0.650
9.925,-1.065,-0.635
9.928,-1.085,-0.625
9.931,-1.065,-0.595
9.933,-1.065,-0.605
9.936,-1.035,-0.595
9.939,-1.010,-0.600
9.942,-0.985,-0.605
9.944,-0.965,-0.605
9.947,-0.945,-0.615
9.950,-0.930,-0.605
9.953,-0.930,-0.605
9.956,-0.925,-0.610
9.958,-0.915,-0.600
9.961,-0.910,-0.600
9.964,-0.880,-0.605
9.967,-0.860,-0.600
9.969,-0.820,-0.600
9.972,-0.795,-0.585
9.975,-0.775,-0.570
9.978,-0.760,-0.565
9.981,-0.745,-0.560
9.983,-0.730,-0.560
9.986,-0.725,-0.545
9.989,-0.715,-0.535
9.992,-0.675,-0.535
9.994,-0.635,-0.525
9.997,-0.605,-0.505
10.000,-0.560,-0.520
10.003,-0.535,-0.505
10.006,-0.490,-0.510
10.008,-0.470,-0.490
10.011,-0.470,-0.505
10.014,-0.460,-0.505
10.017,-0.465,-0.515
10.019,-0.460,-0.520
10.022,-0.445,-0.520
10.025,-0.430,-0.525
10.028,-0.420,-0.520
10.031,-0.405,-0.520
10.033,-0.405,-0.510
10.036,-0.400,-0.520
10.039,-0.390,-0.520
10.042,-0.400,-0.530
10.044,-0.420,-0.530
10.047,-0.445,-0.560
10.050,-0.470,-0.575
10.053,-0.515,-0.580
10.056,-0.575,-0.585
10.058,-0.605,-0.590
10.061,-0.665,-0.605
10.064,-0.700,-0.595
10.067,-0.740,-0.630
10.069,-0.790,-0.600
10.072,-0.815,-0.605
10.075,-0.865,-0.620
10.078,-0.905,-0.630
10.081,-0.940,-0.640
10.083,-0.980,-0.650
10.086,-1.015,-0.665
10.089,-1.045,-0.665
10.092,-1.070,-0.680
10.094,-1.090,-0.670
10.097,-1.090,-0.685
10.100,-1.095,-0.680
10.103,-1.120,-0.670
10.106,-1.105,-0.665
10.108,-1.130,-0.660
10.111,-1.135,-0.660
10.114,-1.135,-0.665
10.117,-1.160,-0.665
10.119,-1.160,-0.675
10.122,-1.170,-0.690
10.125,-1.165,-0.685
10.128,-1.165,-0.695
10.131,-1.165,-0.685
10.133,-1.135,-0.670
10.136,-1.125,-0.665
10.139,-1.105,-0.670
10.142,-1.120,-0.660
10.144,-1.115,-0.660
10.147,-1.120,-0.670
10.150,-1.145,-0.685
10.153,-1.135,-0.680
10.156,-1.135,-0.685
10.158,-1.130,-0.690
10.161,-1.140,-0.675
10.164,-1.125,-0.655
10.167,-1.110,-0.640
10.169,-1.105,-0.635
10.172,-1.085,-0.635
10.175,-1.075,-0.645
10.178,-1.085,-0.650
10.181,-1.090,-0.670
10.183,-1.105,-0.690
10.186,-1.125,-0.695
10.189,-1.120,-0.720
10.192,-1.115,-0.705
10.194,-1.125,-0.700
10.197,-1.130,-0.690
10.200,-1.120,-0.680
10.203,-1.120,-0.670
10.206,-1.095,-0.675
10.208,-1.090,-0.690
10.211,-1.090,-0.690
10.214,-1.100,-0.675
10.217,-1.110,-0.685
10.219,-1.120,-0.695
10.222,-1.130,-0.675
10.225,-1.135,-0.680
10.228,-1.140,-0.695
10.231,-1.130,-0.685
10.233,-1.145,-0.690
10.236,-1.150,-0.675
10.239,-1.155,-0.690
10.242,-1.155,-0.685
10.244,-1.155,-0.690
10.247,-1.165,-0.690
10.250,-1.165,-0.700
10.253,-1.170,-0.705
10.256,-1.190,-0.700
10.258,-1.175,-0.710
10.261,-1.180,-0.680
10.264,-1.160,-0.705
10.267,-1.165,-0.695
10.269,-1.165,-0.705
10.272,-1.155,-0.685
10.275,-1.150,-0.680
10.278,-1.165,-0.680
10.281,-1.185,-0.710
10.283,-1.185,-0.710
10.286,-1.195,-0.715
10.289,-1.205,-0.710
10.292,-1.190,-0.725
10.294,-1.195,-0.725
10.297,-1.180,-0.730
10.300,-1.185,-0.700
10.303,-1.170,-0.680
10.306,-1.180,-0.660
10.308,-1.195,-0.680
10.311,-1.195,-0.675
10.314,-1.200,-0.695
10.317,-1.195,-0.715
10.319,-1.210,-0.715
10.322,-1.205,-0.700
10.325,-1.220,-0.680
10.328,-1.215,-0.690
10.331,-1.205,-0.675
10.333,-1.200,-0.685
10.336,-1.190,-0.675
10.339,-1.170,-0.690
10.342,-1.180,-0.675
10.344,-1.185,-0.665
10.347,-1.190,-0.685
10.350,-1.200,-0.690
10.353,-1.235,-0.675
10.356,-1.210,-0.680
10.358,-1.200,-0.675
10.361,-1.180,-0.675
10.364,-1.165,-0.655
10.367,-1.140,-0.665
10.369,-1.110,-0.655
10.372,-1.095,-0.650
10.375,-1.095,-0.640
10.378,-1.100,-0.630
10.381,-1.105,-0.650
10.383,-1.100,-0.665
10.386,-1.115,-0.670
10.389,-1.105,-0.670
10.392,-1.115,-0.660
10.394,-1.095,-0.650
10.397,-1.080,-0.640
10.400,-1.055,-0.630
10.403,-1.035,-0.620
10.406,-1.005,-0.630
10.408,-0.990,-0.655
10.411,-0.985,-0.685
10.414,-1.000,-0.705
10.417,-1.025,-0.720
10.419,-1.040,-0.710
10.422,-1.055,-0.700
10.425,-1.060,-0.685
10.428,-1.055,-0.685
10.431,-1.055,-0.700
10.433,-1.050,-0.695
10.436,-1.050,-0.700
10.439,-1.070,-0.700
10.442,-1.075,-0.695
10.444,-1.100,-0.695
10.447,-1.125,-0.695
10.450,-1.155,-0.710
10.453,-1.180,-0.720
10.456,-1.195,-0.730
10.458,-1.215,-0.760
10.461,-1.235,-0.765
10.464,-1.255,-0.745
10.467,-1.270,-0.720
10.469,-1.265,-0.695
10.472,-1.260,-0.700
10.475,-1.245,-0.700
10.478,-1.215,-0.720
10.481,-1.205,-0.730
10.483,-1.225,-0.735
10.486,-1.235,-0.715
10.489,-1.225,-0.710
10.492,-1.235,-0.695
10.494,-1.225,-0.685
10.497,-1.220,-0.685
10.500,-1.240,-0.675
10.503,-1.245,-0.690
10.506,-1.230,-0.710
10.508,-1.210,-0.715
10.511,-1.160,-0.750
10.514,-1.080,-0.830
10.517,-0.970,-0.885
10.519,-0.815,-0.995
10.522,-0.615,-1.075
10.525,-0.350,-1.170
10.528,0.005,-1.275
10.531,0.395,-1.305
10.533,0.830,-1.375
10.536,1.310,-1.405
10.539,1.755,-1.400
10.542,2.105,-1.385
10.544,2.295,-1.280
10.547,2.315,-1.190
10.550,2.090,-1.075
10.553,1.610,-1.005
10.556,0.970,-0.960
10.558,0.330,-0.920
10.561,-0.310,-0.870
10.564,-0.950,-0.850
10.567,-1.590,-0.795
10.569,-1.675,-0.745
10.572,-1.400,-0.710
10.575,-1.120,-0.680
10.578,-0.895,-0.670
10.581,-0.810,-0.670
10.583,-0.820,-0.680
10.586,-0.905,-0.680
10.589,-0.985,-0.680
10.592,-1.070,-0.665
10.594,-1.130,-0.665
10.597,-1.150,-0.660
10.600,-1.150,-0.630
10.603,-1.125,-0.610
10.606,-1.125,-0.605
10.608,-1.095,-0.590
10.611,-1.090,-0.615
10.614,-1.100,-0.620
10.617,-1.110,-0.635
10.619,-1.120,-0.640
10.622,-1.110,-0.650
10.625,-1.115,-0.630
10.628,-1.100,-0.620
10.631,-1.085,-0.610
10.633,-1.080,-0.595
10.636,-1.055,-0.600
10.639,-1.035,-0.605
10.642,-1.035,-0.610
10.644,-1.040,-0.605
10.647,-1.040,-0.620
10.650,-1.035,-0.630
10.653,-1.035,-0.620
10.656,-1.030,-0.625
10.658,-1.030,-0.605
10.661,-1.020,-0.625
10.664,-1.005,-0.590
10.667,-0.995,-0.585
10.669,-0.975,-0.570
10.672,-0.955,-0.575
10.675,-0.935,-0.580
10.678,-0.960,-0.585
10.681,-0.940,-0.600
10.683,-0.930,-0.600
10.686,-0.920,-0.610
10.689,-0.910,-0.600
10.692,-0.885,-0.595
10.694,-0.865,-0.575
10.697,-0.845,-0.560
10.700,-0.825,-0.565
10.703,-0.805,-0.550
10.706,-0.760,-0.550
10.708,-0.765,-0.560
10.711,-0.750,-0.585
10.714,-0.745,-0.605
10.717,-0.720,-0.580
10.719,-0.740,-0.585
10.722,-0.720,-0.560
10.725,-0.700,-0.545
10.728,-0.670,-0.535
10.731,-0.630,-0.525
10.733,-0.595,-0.525
10.736,-0.550,-0.515
10.739,-0.500,-0.510
10.742,-0.450,-0.515
10.744,-0.430,-0.525
10.747,-0.415,-0.520
10.750,-0.410,-0.510
10.753,-0.415,-0.525
10.756,-0.400,-0.525
10.758,-0.395,-0.535
10.761,-0.385,-0.535
10.764,-0.355,-0.525
10.767,-0.340,-0.510
10.769,-0.340,-0.495
10.772,-0.320,-0.490
10.775,-0.305,-0.505
10.778,-0.320,-0.490
10.781,-0.320,-0.515
10.783,-0.320,-0.535
10.786,-0.335,-0.545
10.789,-0.345,-0.545
10.792,-0.375,-0.555
10.794,-0.400,-0.555
10.797,-0.425,-0.560
10.800,-0.465,-0.555
10.803,-0.495,-0.575
10.806,-0.535,-0.595
10.808,-0.575,-0.600
10.811,-0.625,-0.625
10.814,-0.675,-0.645
10.817,-0.725,-0.655
10.819,-0.770,-0.665
10.822,-0.800,-0.670
10.825,-0.855,-0.675
10.828,-0.880,-0.670
10.831,-0.895,-0.665
10.833,-0.910,-0.665
10.836,-0.925,-0.650
10.839,-0.930,-0.660
10.842,-0.965,-0.635
10.844,-0.990,-0.645
10.847,-0.995,-0.665
10.850,-1.025,-0.680
10.853,-1.030,-0.685
10.856,-1.050,-0.680
10.858,-1.055,-0.670
10.861,-1.075,-0.670
10.864,-1.070,-0.645
10.867,-1.070,-0.655
10.869,-1.050,-0.650
10.872,-1.030,-0.670
10.875,-1.040,-0.685
10.878,-1.040,-0.705
10.881,-1.045,-0.700
10.883,-1.060,-0.715
10.886,-1.070,-0.715
10.889,-1.075,-0.700
10.892,-1.060,-0.715
10.894,-1.060,-0.695
10.897,-1.050,-0.690
10.900,-1.040,-0.675
10.903,-1.030,-0.670
10.906,-1.025,-0.660
10.908,-1.015,-0.665
10.911,-1.020,-0.680
10.914,-1.040,-0.695
10.917,-1.035,-0.700
10.919,-1.035,-0.725
10.922,-1.035,-0.725
10.925,-1.050,-0.725
10.928,-1.040,-0.715
10.931,-1.020,-0.705
10.933,-0.995,-0.680
10.936,-0.995,-0.660
10.939,-0.990,-0.665
10.942,-0.980,-0.685
10.944,-0.980,-0.695
10.947,-0.990,-0.720
10.950,-1.000,-0.730
10.953,-1.015,-0.725
10.956,-1.030,-0.720
10.958,-1.045,-0.720
10.961,-1.045,-0.715
10.964,-1.055,-0.700
10.967,-1.050,-0.705
10.969,-1.040,-0.695
10.972,-1.020,-0.675
10.975,-1.025,-0.665
10.978,-1.030,-0.690
10.981,-1.045,-0.715
10.983,-1.045,-0.730
10.986,-1.045,-0.755
10.989,-1.045,-0.750
10.992,-1.065,-0.760
10.994,-1.095,-0.740
10.997,-1.085,-0.760
11.000,-1.090,-0.740
11.003,-1.065,-0.715
11.006,-1.055,-0.710
11.008,-1.055,-0.695
11.011,-1.080,-0.705
11.014,-1.060,-0.725
11.017,-1.065,-0.745
11.019,-1.085,-0.760
11.022,-1.100,-0.770
11.025,-1.110,-0.765
11.028,-1.110,-0.740
11.031,-1.110,-0.730
11.033,-1.095,-0.695
11.036,-1.090,-0.680
11.039,-1.085,-0.680
11.042,-1.090,-0.675
11.044,-1.085,-0.690
11.047,-1.085,-0.710
11.050,-1.100,-0.720
11.053,-1.120,-0.715
11.056,-1.125,-0.750
11.058,-1.135,-0.755
11.061,-1.130,-0.760
11.064,-1.115,-0.765
11.067,-1.095,-0.760
11.069,-1.095,-0.745
11.072,-1.085,-0.715
11.075,-1.080,-0.705
11.078,-1.095,-0.725
11.081,-1.105,-0.740
11.083,-1.115,-0.765
11.086,-1.140,-0.770
11.089,-1.145,-0.755
11.092,-1.130,-0.760
11.094,-1.135,-0.740
11.097,-1.135,-0.725
11.100,-1.135,-0.710
11.103,-1.115,-0.680
11.106,-1.085,-0.665
11.108,-1.075,-0.665
11.111,-1.045,-0.655
11.114,-1.035,-0.660
11.117,-1.030,-0.675
11.119,-1.025,-0.690
11.122,-1.010,-0.710
11.125,-1.015,-0.700
11.128,-1.020,-0.705
11.131,-0.995,-0.685
11.133,-1.000,-0.660
11.136,-0.980,-0.670
11.139,-0.970,-0.670
11.142,-0.980,-0.675
11.144,-0.985,-0.695
11.147,-0.985,-0.680
11.150,-0.970,-0.690
11.153,-0.975,-0.705
11.156,-0.935,-0.715
11.158,-0.930,-0.735
11.161,-0.930,-0.725
11.164,-0.910,-0.700
11.167,-0.910,-0.680
11.169,-0.920,-0.670
11.172,-0.905,-0.670
11.175,-0.915,-0.695
11.178,-0.940,-0.745
11.181,-0.950,-0.765
11.183,-0.975,-0.785
11.186,-0.990,-0.785
11.189,-1.010,-0.785
11.192,-1.030,-0.770
11.194,-1.070,-0.745
11.197,-1.095,-0.720
11.200,-1.120,-0.730
11.203,-1.120,-0.730
11.206,-1.120,-0.725
11.208,-1.140,-0.735
11.211,-1.145,-0.750
11.214,-1.175,-0.750
11.217,-1.185,-0.770
11.219,-1.195,-0.780
11.222,-1.190,-0.775
11.225,-1.200,-0.775
11.228,-1.185,-0.775
11.231,-1.170,-0.760
11.233,-1.165,-0.735
11.236,-1.160,-0.710
11.239,-1.140,-0.725
11.242,-1.130,-0.705
11.244,-1.140,-0.715
11.247,-1.140,-0.715
11.250,-1.170,-0.740
11.253,-1.175,-0.750
11.256,-1.175,-0.785
11.258,-1.190,-0.805
11.261,-1.160,-0.850
11.264,-1.090,-0.890
11.267,-0.965,-0.975
11.269,-0.775,-1.080
11.272,-0.525,-1.190
11.275,-0.180,-1.290
11.278,0.180,-1.385
11.281,0.600,-1.475
11.283,1.025,-1.540
11.286,1.455,-1.625
11.289,1.860,-1.660
11.292,2.165,-1.650
11.294,2.370,-1.625
11.297,2.475,-1.515
11.300,2.460,-1.390
11.303,2.345,-1.260
11.306,2.090,-1.150
11.308,1.595,-1.050
11.311,0.955,-1.005
11.314,0.315,-0.975
11.317,-0.325,-0.960
11.319,-0.965,-0.910
11.322,-1.605,-0.885
11.325,-1.615,-0.815
11.328,-1.350,-0.800
11.331,-1.060,-0.750
11.333,-0.850,-0.740
11.336,-0.765,-0.745
11.339,-0.800,-0.740
11.342,-0.880,-0.765
11.344,-0.995,-0.790
11.347,-1.090,-0.790
11.350,-1.155,-0.795
11.353,-1.165,-0.780
11.356,-1.155,-0.740
11.358,-1.140,-0.730
11.361,-1.130,-0.710
11.364,-1.110,-0.715
11.367,-1.095,-0.700
11.369,-1.105,-0.720
11.372,-1.095,-0.725
11.375,-1.095,-0.720
11.378,-1.125,-0.745
11.381,-1.130,-0.750
11.383,-1.130,-0.735
11.386,-1.135,-0.720
11.389,-1.135,-0.720
11.392,-1.135,-0.745
11.394,-1.140,-0.735
11.397,-1.125,-0.730
11.400,-1.105,-0.715
11.403,-1.085,-0.700
11.406,-1.065,-0.680
11.408,-1.045,-0.690
11.411,-1.040,-0.675
11.414,-1.020,-0.705
11.417,-1.020,-0.730
11.419,-1.030,-0.735
11.422,-1.020,-0.735
11.425,-1.025,-0.735
11.428,-1.015,-0.735
11.431,-1.005,-0.720
11.433,-0.985,-0.690
11.436,-0.980,-0.665
11.439,-0.960,-0.635
11.442,-0.940,-0.645
11.444,-0.945,-0.655
11.447,-0.925,-0.660
11.450,-0.915,-0.685
11.453,-0.910,-0.690
11.456,-0.900,-0.690
11.458,-0.890,-0.685
11.461,-0.875,-0.675
11.464,-0.855,-0.660
11.467,-0.835,-0.655
11.469,-0.810,-0.640
11.472,-0.770,-0.640
11.475,-0.745,-0.630
11.478,-0.745,-0.620
11.481,-0.720,-0.640
11.483,-0.705,-0.640
11.486,-0.695,-0.645
11.489,-0.675,-0.635
11.492,-0.655,-0.640
11.494,-0.645,-0.635
11.497,-0.600,-0.605
11.500,-0.565,-0.605
11.503,-0.545,-0.585
11.506,-0.505,-0.575
11.508,-0.470,-0.570
11.511,-0.450,-0.570
11.514,-0.430,-0.570
11.517,-0.410,-0.575
11.519,-0.400,-0.595
11.522,-0.385,-0.585
11.525,-0.385,-0.585
11.528,-0.370,-0.580
11.531,-0.355,-0.565
11.533,-0.325,-0.560
11.536,-0.315,-0.590
11.539,-0.295,-0.570
11.542,-0.295,-0.600
11.544,-0.290,-0.610
11.547,-0.315,-0.625
11.550,-0.350,-0.635
11.553,-0.350,-0.635
11.556,-0.355,-0.625
11.558,-0.395,-0.620
11.561,-0.410,-0.610
11.564,-0.435,-0.605
11.567,-0.460,-0.625
11.569,-0.480,-0.640
11.572,-0.500,-0.665
11.575,-0.540,-0.670
11.578,-0.615,-0.695
11.581,-0.660,-0.730
11.583,-0.725,-0.745
11.586,-0.785,-0.745
11.589,-0.825,-0.755
11.592,-0.875,-0.755
11.594,-0.900,-0.750
11.597,-0.935,-0.735
11.600,-0.945,-0.730
11.603,-0.970,-0.735
11.606,-0.975,-0.735
11.608,-1.000,-0.750
11.611,-1.005,-0.765
11.614,-1.025,-0.785
11.617,-1.045,-0.775
11.619,-1.065,-0.790
11.622,-1.080,-0.780
11.625,-1.105,-0.790
11.628,-1.120,-0.780
11.631,-1.115,-0.770
11.633,-1.120,-0.760
11.636,-1.115,-0.750
11.639,-1.080,-0.730
11.642,-1.085,-0.750
11.644,-1.085,-0.775
11.647,-1.095,-0.785
11.650,-1.105,-0.785
11.653,-1.100,-0.805
11.656,-1.100,-0.815
11.658,-1.100,-0.800
11.661,-1.095,-0.795
11.664,-1.090,-0.785
11.667,-1.080,-0.765
11.669,-1.085,-0.740
11.672,-1.065,-0.730
11.675,-1.055,-0.725
11.678,-1.055,-0.755
11.681,-1.055,-0.755
11.683,-1.060,-0.775
11.686,-1.075,-0.790
11.689,-1.085,-0.800
11.692,-1.095,-0.795
11.694,-1.085,-0.795
11.697,-1.075,-0.780
11.700,-1.065,-0.755
11.703,-1.040,-0.765
11.706,-1.030,-0.740
11.708,-1.015,-0.745
11.711,-1.015,-0.750
11.714,-1.020,-0.760
11.717,-1.045,-0.765
11.719,-1.045,-0.785
11.722,-1.060,-0.790
11.725,-1.060,-0.805
11.728,-1.080,-0.795
11.731,-1.070,-0.780
11.733,-1.040,-0.760
11.736,-1.030,-0.745
11.739,-1.025,-0.720
11.742,-1.010,-0.720
11.744,-1.020,-0.735
11.747,-1.030,-0.755
11.750,-1.040,-0.770
11.753,-1.035,-0.775
11.756,-1.060,-0.790
11.758,-1.070,-0.780
11.761,-1.080,-0.770
11.764,-1.070,-0.770
11.767,-1.070,-0.760
11.769,-1.065,-0.760
11.772,-1.055,-0.745
11.775,-1.055,-0.750
11.778,-1.075,-0.760
11.781,-1.070,-0.785
11.783,-1.090,-0.785
11.786,-1.100,-0.810
11.789,-1.110,-0.815
11.792,-1.130,-0.815
11.794,-1.115,-0.825
11.797,-1.110,-0.795
11.800,-1.095,-0.775
11.803,-1.080,-0.760
11.806,-1.085,-0.760
11.808,-1.090,-0.755
11.811,-1.080,-0.760
11.814,-1.100,-0.780
11.817,-1.105,-0.795
11.819,-1.100,-0.800
11.822,-1.115,-0.805
11.825,-1.130,-0.790
11.828,-1.135,-0.780
11.831,-1.125,-0.760
11.833,-1.110,-0.745
11.836,-1.110,-0.745
11.839,-1.095,-0.750
11.842,-1.095,-0.765
11.844,-1.090,-0.755
11.847,-1.110,-0.765
11.850,-1.110,-0.775
11.853,-1.125,-0.795
11.856,-1.120,-0.800
11.858,-1.130,-0.780
11.861,-1.120,-0.780
11.864,-1.140,-0.745
11.867,-1.130,-0.740
11.869,-1.125,-0.735
11.872,-1.125,-0.730
11.875,-1.120,-0.740
11.878,-1.120,-0.740
11.881,-1.110,-0.745
11.883,-1.100,-0.760
11.886,-1.085,-0.755
11.889,-1.070,-0.765
11.892,-1.045,-0.755
11.894,-1.035,-0.735
11.897,-1.020,-0.720
11.900,-0.995,-0.710
11.903,-1.000,-0.705
11.906,-1.000,-0.690
11.908,-0.990,-0.705
11.911,-0.980,-0.710
11.914,-0.975,-0.715
11.917,-0.970,-0.710
11.919,-0.950,-0.735
11.922,-0.925,-0.740
11.925,-0.910,-0.745
11.928,-0.885,-0.765
11.931,-0.880,-0.755
11.933,-0.880,-0.755
11.936,-0.895,-0.715
11.939,-0.885,-0.740
11.942,-0.900,-0.725
11.944,-0.910,-0.725
11.947,-0.925,-0.760
11.950,-0.950,-0.775
11.953,-0.965,-0.775
11.956,-1.000,-0.800
11.958,-1.010,-0.785
11.961,-1.045,-0.790
11.964,-1.045,-0.785
11.967,-1.060,-0.770
11.969,-1.055,-0.770
11.972,-1.050,-0.760
11.975,-1.060,-0.775
11.978,-1.085,-0.775
11.981,-1.115,-0.790
11.983,-1.165,-0.810
11.986,-1.155,-0.815
11.989,-1.170,-0.815
11.992,-1.170,-0.790
11.994,-1.175,-0.795
11.997,-1.170,-0.780
12.000,-1.170,-0.770
12.003,-1.170,-0.755
12.006,-1.160,-0.755
12.008,-1.150,-0.760
12.011,-1.130,-0.755
12.014,-1.135,-0.760
12.017,-1.140,-0.735
12.019,-1.145,-0.740
12.022,-1.155,-0.760
12.025,-1.160,-0.790
12.028,-1.155,-0.800
12.031,-1.130,-0.825
12.033,-1.080,-0.870
12.036,-1.005,-0.925
12.039,-0.870,-0.985
12.042,-0.660,-1.070
12.044,-0.385,-1.160
12.047,-0.065,-1.255
12.050,0.305,-1.345
12.053,0.665,-1.420
12.056,1.040,-1.495
12.058,1.430,-1.560
12.061,1.760,-1.600
12.064,2.075,-1.560
12.067,2.305,-1.490
12.069,2.410,-1.350
12.072,2.355,-1.215
12.075,2.105,-1.090
12.078,1.555,-1.000
12.081,0.915,-0.960
12.083,0.275,-0.930
12.086,-0.365,-0.935
12.089,-1.005,-0.910
12.092,-1.645,-0.860
12.094,-1.555,-0.805
12.097,-1.200,-0.765
12.100,-0.900,-0.745
12.103,-0.725,-0.720
12.106,-0.685,-0.720
12.108,-0.755,-0.730
12.111,-0.880,-0.720
12.114,-0.990,-0.725
12.117,-1.085,-0.740
12.119,-1.115,-0.745
12.122,-1.120,-0.735
12.125,-1.110,-0.725
12.128,-1.095,-0.715
12.131,-1.095,-0.700
12.133,-1.090,-0.700
12.136,-1.085,-0.685
12.139,-1.080,-0.680
12.142,-1.075,-0.680
12.144,-1.070,-0.680
12.147,-1.060,-0.680
12.150,-1.065,-0.695
12.153,-1.050,-0.695
12.156,-1.060,-0.695
12.158,-1.050,-0.700
12.161,-1.040,-0.700
12.164,-1.030,-0.695
12.167,-1.005,-0.670
12.169,-0.995,-0.670
12.172,-0.985,-0.660
12.175,-0.990,-0.650
12.178,-0.995,-0.685
12.181,-1.030,-0.665
12.183,-1.020,-0.670
12.186,-1.015,-0.675
12.189,-0.995,-0.685
12.192,-0.985,-0.685
12.194,-0.975,-0.700
12.197,-0.950,-0.670
12.200,-0.925,-0.665
12.203,-0.915,-0.650
12.206,-0.890,-0.640
12.208,-0.880,-0.645
12.211,-0.880,-0.660
12.214,-0.855,-0.660
12.217,-0.850,-0.680
12.219,-0.840,-0.665
12.222,-0.835,-0.665
12.225,-0.835,-0.645
12.228,-0.820,-0.610
12.231,-0.785,-0.615
12.233,-0.755,-0.605
12.236,-0.725,-0.595
12.239,-0.680,-0.575
12.242,-0.650,-0.590
12.244,-0.615,-0.590
12.247,-0.605,-0.595
12.250,-0.585,-0.615
12.253,-0.560,-0.615
12.256,-0.555,-0.620
12.258,-0.530,-0.610
12.261,-0.490,-0.595
12.264,-0.460,-0.575
12.267,-0.405,-0.555
12.269,-0.370,-0.540
12.272,-0.330,-0.525
12.275,-0.305,-0.540
12.278,-0.285,-0.560
12.281,-0.275,-0.585
12.283,-0.245,-0.575
12.286,-0.250,-0.570
12.289,-0.245,-0.555
12.292,-0.260,-0.550
12.294,-0.260,-0.540
12.297,-0.250,-0.530
12.300,-0.250,-0.540
12.303,-0.245,-0.535
12.306,-0.235,-0.535
12.308,-0.235,-0.530
12.311,-0.245,-0.545
12.314,-0.275,-0.585
12.317,-0.320,-0.610
12.319,-0.365,-0.630
12.322,-0.410,-0.655
12.325,-0.460,-0.680
12.328,-0.505,-0.670
12.331,-0.560,-0.670
12.333,-0.600,-0.665
12.336,-0.630,-0.670
12.339,-0.675,-0.665
12.342,-0.705,-0.670
12.344,-0.735,-0.690
12.347,-0.785,-0.700
12.350,-0.830,-0.715
12.353,-0.875,-0.735
12.356,-0.910,-0.745
12.358,-0.945,-0.725
12.361,-0.950,-0.715
12.364,-0.955,-0.695
12.367,-0.965,-0.705
12.369,-0.975,-0.695
12.372,-0.970,-0.695
12.375,-0.985,-0.710
12.378,-1.025,-0.720
12.381,-1.030,-0.735
12.383,-1.050,-0.750
12.386,-1.075,-0.770
12.389,-1.090,-0.760
12.392,-1.100,-0.760
12.394,-1.105,-0.745
12.397,-1.075,-0.735
12.400,-1.055,-0.735
12.403,-1.050,-0.735
12.406,-1.025,-0.740
12.408,-1.025,-0.725
12.411,-1.030,-0.735
12.414,-1.045,-0.745
12.417,-1.055,-0.735
12.419,-1.070,-0.740
12.422,-1.075,-0.740
12.425,-1.075,-0.755
12.428,-1.055,-0.730
12.431,-1.045,-0.740
12.433,-1.045,-0.730
12.436,-1.035,-0.720
12.439,-1.035,-0.745
12.442,-1.025,-0.735
12.444,-1.025,-0.725
12.447,-1.015,-0.750
12.450,-1.020,-0.765
12.453,-1.015,-0.730
12.456,-1.020,-0.740
12.458,-1.025,-0.730
12.461,-1.030,-0.730
12.464,-1.040,-0.705
12.467,-1.040,-0.715
12.469,-1.020,-0.700
12.472,-1.005,-0.700
12.475,-0.995,-0.730
12.478,-1.015,-0.720
12.481,-1.000,-0.740
12.483,-1.015,-0.735
12.486,-1.040,-0.735
12.489,-1.045,-0.745
12.492,-1.055,-0.750
12.494,-1.055,-0.745
12.497,-1.035,-0.740
12.500,-1.035,-0.715
12.503,-1.025,-0.705
12.506,-1.015,-0.680
12.508,-1.010,-0.680
12.511,-1.005,-0.685
12.514,-1.005,-0.710
12.517,-1.040,-0.730
12.519,-1.075,-0.750
12.522,-1.110,-0.755
12.525,-1.125,-0.760
12.528,-1.120,-0.750
12.531,-1.120,-0.730
12.533,-1.110,-0.705
12.536,-1.090,-0.680
12.539,-1.065,-0.675
12.542,-1.060,-0.690
12.544,-1.065,-0.740
12.547,-1.080,-0.740
12.550,-1.095,-0.740
12.553,-1.115,-0.765
12.556,-1.125,-0.760
12.558,-1.135,-0.760
12.561,-1.135,-0.740
12.564,-1.140,-0.710
12.567,-1.130,-0.715
12.569,-1.125,-0.715
12.572,-1.105,-0.705
12.575,-1.095,-0.695
12.578,-1.095,-0.700
12.581,-1.105,-0.705
12.583,-1.110,-0.720
12.586,-1.120,-0.725
12.589,-1.115,-0.735
12.592,-1.115,-0.745
12.594,-1.125,-0.735
12.597,-1.145,-0.720
12.600,-1.125,-0.720
12.603,-1.125,-0.715
12.606,-1.120,-0.715
12.608,-1.110,-0.710
12.611,-1.115,-0.720
12.614,-1.130,-0.735
12.617,-1.130,-0.735
12.619,-1.145,-0.720
12.622,-1.165,-0.715
12.625,-1.170,-0.700
12.628,-1.150,-0.700
12.631,-1.150,-0.680
12.633,-1.140,-0.670
12.636,-1.120,-0.660
12.639,-1.095,-0.640
12.642,-1.085,-0.660
12.644,-1.035,-0.660
12.647,-1.035,-0.660
12.650,-1.020,-0.655
12.653,-1.020,-0.685
12.656,-1.015,-0.660
12.658,-1.030,-0.670
12.661,-1.030,-0.650
12.664,-1.035,-0.645
12.667,-1.015,-0.640
12.669,-1.015,-0.630
12.672,-0.995,-0.635
12.675,-0.960,-0.650
12.678,-0.930,-0.675
12.681,-0.925,-0.690
12.683,-0.930,-0.720
12.686,-0.945,-0.705
12.689,-0.970,-0.710
12.692,-0.975,-0.710
12.694,-0.995,-0.700
12.697,-0.980,-0.685
12.700,-0.995,-0.685
12.703,-0.985,-0.680
12.706,-1.000,-0.685
12.708,-1.005,-0.670
12.711,-1.025,-0.665
12.714,-1.035,-0.690
12.717,-1.065,-0.710
12.719,-1.110,-0.735
12.722,-1.135,-0.750
12.725,-1.160,-0.770
12.728,-1.190,-0.785
12.731,-1.220,-0.765
12.733,-1.225,-0.725
12.736,-1.225,-0.710
12.739,-1.225,-0.695
12.742,-1.215,-0.685
12.744,-1.225,-0.710
12.747,-1.205,-0.725
12.750,-1.200,-0.730
12.753,-1.205,-0.740
12.756,-1.215,-0.740
12.758,-1.200,-0.745
12.761,-1.225,-0.725
12.764,-1.220,-0.705
12.767,-1.210,-0.685
12.769,-1.200,-0.670
12.772,-1.190,-0.660
12.775,-1.180,-0.680
12.778,-1.180,-0.710
12.781,-1.185,-0.765
12.783,-1.160,-0.825
12.786,-1.115,-0.880
12.789,-1.000,-0.950
12.792,-0.815,-1.030
12.794,-0.570,-1.115
12.797,-0.220,-1.185
12.800,0.140,-1.275
12.803,0.540,-1.325
12.806,0.925,-1.380
12.808,1.340,-1.445
12.811,1.705,-1.475
12.814,2.035,-1.490
12.817,2.235,-1.455
12.819,2.325,-1.345
12.822,2.245,-1.225
12.825,2.010,-1.080
12.828,1.515,-0.970
12.831,0.875,-0.905
12.833,0.235,-0.865
12.836,-0.405,-0.840
12.839,-1.045,-0.805
12.842,-1.685,-0.770
12.844,-1.605,-0.740
12.847,-1.315,-0.710
12.850,-1.035,-0.695
12.853,-0.865,-0.685
12.856,-0.835,-0.670
12.858,-0.890,-0.690
12.861,-1.000,-0.695
12.864,-1.100,-0.690
12.867,-1.170,-0.675
12.869,-1.205,-0.665
12.872,-1.210,-0.660
12.875,-1.180,-0.650
12.878,-1.175,-0.640
12.881,-1.175,-0.640
12.883,-1.170,-0.645
12.886,-1.170,-0.660
12.889,-1.180,-0.655
12.892,-1.195,-0.670
12.894,-1.185,-0.675
12.897,-1.185,-0.655
12.900,-1.175,-0.655
12.903,-1.150,-0.655
12.906,-1.130,-0.635
12.908,-1.120,-0.635
12.911,-1.115,-0.620
12.914,-1.130,-0.630
12.917,-1.135,-0.625
12.919,-1.145,-0.635
12.922,-1.140,-0.640
12.925,-1.120,-0.635
12.928,-1.100,-0.650
12.931,-1.100,-0.655
12.933,-1.100,-0.650
12.936,-1.090,-0.615
12.939,-1.080,-0.610
12.942,-1.065,-0.610
12.944,-1.045,-0.590
12.947,-1.050,-0.615
12.950,-1.035,-0.605
12.953,-1.050,-0.615
12.956,-1.040,-0.630
12.958,-1.025,-0.635
12.961,-1.005,-0.640
12.964,-0.990,-0.635
12.967,-0.960,-0.615
12.969,-0.925,-0.575
12.972,-0.910,-0.540
12.975,-0.890,-0.530
12.978,-0.870,-0.535
12.981,-0.860,-0.540
12.983,-0.855,-0.575
12.986,-0.865,-0.585
12.989,-0.840,-0.600
12.992,-0.820,-0.605
12.994,-0.830,-0.595
12.997,-0.790,-0.580
13.000,-0.755,-0.580
13.003,-0.720,-0.560
13.006,-0.675,-0.535
13.008,-0.655,-0.535
13.011,-0.600,-0.520
13.014,-0.600,-0.535
13.017,-0.565,-0.535
13.019,-0.550,-0.535
13.022,-0.540,-0.535
13.025,-0.545,-0.550
13.028,-0.530,-0.535
13.031,-0.490,-0.525
13.033,-0.455,-0.505
13.036,-0.445,-0.500
13.039,-0.395,-0.485
13.042,-0.365,-0.480
13.044,-0.340,-0.470
13.047,-0.345,-0.495
13.050,-0.340,-0.505
13.053,-0.360,-0.530
13.056,-0.365,-0.535
13.058,-0.380,-0.530
13.061,-0.400,-0.535
13.064,-0.425,-0.530
13.067,-0.440,-0.505
13.069,-0.465,-0.500
13.072,-0.500,-0.495
13.075,-0.540,-0.515
13.078,-0.600,-0.525
13.081,-0.645,-0.545
13.083,-0.710,-0.585
13.086,-0.755,-0.620
13.089,-0.805,-0.625
13.092,-0.850,-0.645
13.094,-0.885,-0.650
13.097,-0.920,-0.635
13.100,-0.950,-0.620
13.103,-0.990,-0.615
13.106,-1.020,-0.620
13.108,-1.055,-0.615
13.111,-1.080,-0.625
13.114,-1.105,-0.640
13.117,-1.145,-0.660
13.119,-1.165,-0.685
13.122,-1.185,-0.690
13.125,-1.195,-0.685
13.128,-1.200,-0.690
13.131,-1.195,-0.665
13.133,-1.210,-0.650
13.136,-1.210,-0.640
13.139,-1.205,-0.635
13.142,-1.185,-0.640
13.144,-1.185,-0.665
13.147,-1.160,-0.675
13.150,-1.175,-0.695
13.153,-1.210,-0.680
13.156,-1.220,-0.680
13.158,-1.255,-0.670
13.161,-1.255,-0.665
13.164,-1.245,-0.660
13.167,-1.235,-0.635
13.169,-1.215,-0.615
13.172,-1.195,-0.620
13.175,-1.185,-0.630
13.178,-1.185,-0.625
13.181,-1.185,-0.655
13.183,-1.185,-0.650
13.186,-1.190,-0.690
13.189,-1.205,-0.695
13.192,-1.210,-0.700
13.194,-1.215,-0.690
13.197,-1.215,-0.670
13.200,-1.210,-0.645
13.203,-1.190,-0.645
13.206,-1.190,-0.640
13.208,-1.185,-0.630
13.211,-1.180,-0.645
13.214,-1.175,-0.665
13.217,-1.185,-0.660
13.219,-1.200,-0.675
13.222,-1.205,-0.670
13.225,-1.200,-0.675
13.228,-1.205,-0.650
13.231,-1.210,-0.650
13.233,-1.210,-0.650
13.236,-1.195,-0.630
13.239,-1.205,-0.625
13.242,-1.195,-0.635
13.244,-1.205,-0.625
13.247,-1.205,-0.640
13.250,-1.205,-0.640
13.253,-1.205,-0.655
13.256,-1.195,-0.665
13.258,-1.215,-0.680
13.261,-1.230,-0.675
13.264,-1.235,-0.675
13.267,-1.260,-0.680
13.269,-1.265,-0.680
13.272,-1.275,-0.665
13.275,-1.275,-0.640
13.278,-1.275,-0.650
13.281,-1.260,-0.665
13.283,-1.265,-0.660
13.286,-1.265,-0.670
13.289,-1.300,-0.680
13.292,-1.300,-0.685
13.294,-1.315,-0.695
13.297,-1.315,-0.690
13.300,-1.310,-0.675
13.303,-1.280,-0.655
13.306,-1.265,-0.645
13.308,-1.250,-0.645
13.311,-1.265,-0.650
13.314,-1.275,-0.670
13.317,-1.310,-0.690
13.319,-1.320,-0.710
13.322,-1.335,-0.695
13.325,-1.325,-0.690
13.328,-1.325,-0.680
13.331,-1.325,-0.670
13.333,-1.320,-0.660
13.336,-1.315,-0.645
13.339,-1.295,-0.655
13.342,-1.285,-0.655
13.344,-1.280,-0.660
13.347,-1.285,-0.670
13.350,-1.295,-0.670
13.353,-1.305,-0.670
13.356,-1.320,-0.675
13.358,-1.325,-0.690
13.361,-1.320,-0.685
13.364,-1.330,-0.675
13.367,-1.330,-0.660
13.369,-1.305,-0.665
13.372,-1.305,-0.650
13.375,-1.285,-0.630
13.378,-1.275,-0.640
13.381,-1.260,-0.645
13.383,-1.255,-0.650
13.386,-1.245,-0.655
13.389,-1.265,-0.665
13.392,-1.265,-0.645
13.394,-1.265,-0.620
13.397,-1.265,-0.600
13.400,-1.260,-0.590
13.403,-1.225,-0.580
13.406,-1.200,-0.605
13.408,-1.180,-0.605
13.411,-1.185,-0.640
13.414,-1.190,-0.645
13.417,-1.200,-0.635
13.419,-1.200,-0.660
13.422,-1.195,-0.635
13.425,-1.175,-0.655
13.428,-1.175,-0.660
13.431,-1.170,-0.665
13.433,-1.170,-0.655
13.436,-1.160,-0.645
13.439,-1.160,-0.630
13.442,-1.160,-0.645
13.444,-1.150,-0.655
13.447,-1.155,-0.665
13.450,-1.155,-0.650
13.453,-1.170,-0.665
13.456,-1.190,-0.670
13.458,-1.190,-0.665
13.461,-1.195,-0.690
13.464,-1.205,-0.680
13.467,-1.210,-0.685
13.469,-1.225,-0.695
13.472,-1.235,-0.670
13.475,-1.250,-0.660
13.478,-1.275,-0.665
13.481,-1.305,-0.690
13.483,-1.320,-0.695
13.486,-1.355,-0.730
13.489,-1.380,-0.730
13.492,-1.360,-0.725
13.494,-1.370,-0.730
13.497,-1.355,-0.690
13.500,-1.340,-0.655
13.503,-1.320,-0.650
13.506,-1.345,-0.640
13.508,-1.350,-0.650
13.511,-1.365,-0.660
13.514,-1.365,-0.675
13.517,-1.380,-0.690
13.519,-1.370,-0.685
13.522,-1.365,-0.670
13.525,-1.360,-0.650
13.528,-1.350,-0.645
13.531,-1.340,-0.640
13.533,-1.330,-0.655
13.536,-1.310,-0.650
13.539,-1.275,-0.690
13.542,-1.185,-0.760
13.544,-1.080,-0.825
13.547,-0.905,-0.905
13.550,-0.680,-1.010
13.553,-0.400,-1.085
13.556,-0.065,-1.185
13.558,0.290,-1.245
13.561,0.695,-1.295
13.564,1.125,-1.355
13.567,1.545,-1.380
13.569,1.885,-1.370
13.572,2.140,-1.300
13.575,2.230,-1.220
13.578,2.165,-1.105
13.581,1.880,-1.000
13.583,1.340,-0.940
13.586,0.700,-0.925
13.589,0.060,-0.930
13.592,-0.580,-0.920
13.594,-1.220,-0.885
13.597,-1.860,-0.835
13.600,-1.860,-0.775
13.603,-1.620,-0.720
13.606,-1.365,-0.700
13.608,-1.150,-0.695
13.611,-1.050,-0.685
13.614,-1.035,-0.685
13.617,-1.085,-0.695
13.619,-1.135,-0.670
13.622,-1.190,-0.680
13.625,-1.245,-0.650
13.628,-1.270,-0.675
13.631,-1.275,-0.685
13.633,-1.270,-0.680
13.636,-1.260,-0.685
13.639,-1.250,-0.660
13.642,-1.220,-0.655
13.644,-1.225,-0.650
13.647,-1.230,-0.655
13.650,-1.245,-0.670
13.653,-1.260,-0.685
13.656,-1.265,-0.695
13.658,-1.250,-0.695
13.661,-1.245,-0.700
13.664,-1.235,-0.690
13.667,-1.215,-0.655
13.669,-1.210,-0.640
13.672,-1.170,-0.635
13.675,-1.145,-0.645
13.678,-1.125,-0.675
13.681,-1.135,-0.675
13.683,-1.155,-0.690
13.686,-1.155,-0.670
13.689,-1.170,-0.665
13.692,-1.165,-0.650
13.694,-1.150,-0.635
13.697,-1.135,-0.640
13.700,-1.120,-0.655
13.703,-1.105,-0.665
13.706,-1.090,-0.650
13.708,-1.095,-0.655
13.711,-1.090,-0.650
13.714,-1.090,-0.660
13.717,-1.065,-0.655
13.719,-1.065,-0.660
13.722,-1.055,-0.660
13.725,-1.050,-0.665
13.728,-1.060,-0.655
13.731,-1.040,-0.650
13.733,-1.020,-0.635
13.736,-0.970,-0.625
13.739,-0.955,-0.610
13.742,-0.910,-0.600
13.744,-0.885,-0.615
13.747,-0.890,-0.650
13.750,-0.860,-0.645
13.753,-0.875,-0.655
13.756,-0.870,-0.655
13.758,-0.845,-0.645
13.761,-0.830,-0.630
13.764,-0.790,-0.585
13.767,-0.735,-0.560
13.769,-0.680,-0.550
13.772,-0.625,-0.550
13.775,-0.600,-0.570
13.778,-0.580,-0.590
13.781,-0.570,-0.605
13.783,-0.565,-0.610
13.786,-0.580,-0.620
13.789,-0.570,-0.600
13.792,-0.550,-0.575
13.794,-0.525,-0.565
13.797,-0.500,-0.535
13.800,-0.480,-0.535
13.803,-0.460,-0.550
13.806,-0.455,-0.525
13.808,-0.430,-0.535
13.811,-0.440,-0.525
13.814,-0.405,-0.535
13.817,-0.395,-0.540
13.819,-0.395,-0.565
13.822,-0.400,-0.570
13.825,-0.420,-0.575
13.828,-0.450,-0.585
13.831,-0.480,-0.565
13.833,-0.480,-0.545
13.836,-0.495,-0.540
13.839,-0.510,-0.535
13.842,-0.535,-0.565
13.844,-0.580,-0.595
13.847,-0.605,-0.610
13.850,-0.660,-0.620
13.853,-0.710,-0.635
13.856,-0.735,-0.650
13.858,-0.780,-0.650
13.861,-0.815,-0.655
13.864,-0.850,-0.670
13.867,-0.875,-0.660
13.869,-0.890,-0.665
13.872,-0.900,-0.640
13.875,-0.930,-0.650
13.878,-0.970,-0.660
13.881,-1.020,-0.675
13.883,-1.055,-0.675
13.886,-1.095,-0.700
13.889,-1.125,-0.695
13.892,-1.140,-0.700
13.894,-1.160,-0.695
13.897,-1.155,-0.710
13.900,-1.150,-0.690
13.903,-1.140,-0.700
13.906,-1.130,-0.690
13.908,-1.105,-0.680
13.911,-1.100,-0.700
13.914,-1.100,-0.700
13.917,-1.105,-0.705
13.919,-1.115,-0.710
13.922,-1.135,-0.700
13.925,-1.150,-0.710
13.928,-1.135,-0.715
13.931,-1.130,-0.730
13.933,-1.125,-0.725
13.936,-1.115,-0.715
13.939,-1.095,-0.710
13.942,-1.085,-0.700
13.944,-1.075,-0.725
13.947,-1.075,-0.730
13.950,-1.060,-0.740
13.953,-1.065,-0.740
13.956,-1.080,-0.745
13.958,-1.080,-0.730
13.961,-1.095,-0.720
13.964,-1.090,-0.705
13.967,-1.085,-0.690
13.969,-1.085,-0.700
13.972,-1.090,-0.715
13.975,-1.085,-0.715
13.978,-1.070,-0.735
13.981,-1.070,-0.725
13.983,-1.055,-0.715
13.986,-1.050,-0.735
13.989,-1.060,-0.730
13.992,-1.050,-0.745
13.994,-1.055,-0.760
13.997,-1.065,-0.750
14.000,-1.060,-0.725
14.003,-1.055,-0.715
14.006,-1.050,-0.700
14.008,-1.040,-0.685
14.011,-1.040,-0.695
14.014,-1.045,-0.705
14.017,-1.060,-0.740
14.019,-1.075,-0.755
14.022,-1.095,-0.760
14.025,-1.100,-0.760
14.028,-1.125,-0.765
14.031,-1.120,-0.765
14.033,-1.100,-0.730
14.036,-1.080,-0.720
14.039,-1.055,-0.705
14.042,-1.040,-0.725
14.044,-1.055,-0.730
14.047,-1.080,-0.725
14.050,-1.125,-0.745
14.053,-1.160,-0.750
14.056,-1.165,-0.735
14.058,-1.160,-0.740
14.061,-1.150,-0.740
14.064,-1.120,-0.735
14.067,-1.105,-0.735
14.069,-1.125,-0.720
14.072,-1.130,-0.705
14.075,-1.125,-0.705
14.078,-1.110,-0.720
14.081,-1.135,-0.715
14.083,-1.120,-0.735
14.086,-1.125,-0.765
14.089,-1.120,-0.760
14.092,-1.125,-0.780
14.094,-1.140,-0.775
14.097,-1.155,-0.760
14.100,-1.180,-0.720
14.103,-1.200,-0.710
14.106,-1.195,-0.720
14.108,-1.185,-0.710
14.111,-1.175,-0.715
14.114,-1.175,-0.735
14.117,-1.165,-0.730
14.119,-1.165,-0.750
14.122,-1.155,-0.740
14.125,-1.140,-0.750
14.128,-1.135,-0.750
14.131,-1.125,-0.750
14.133,-1.110,-0.740
14.136,-1.125,-0.730
14.139,-1.140,-0.730
14.142,-1.130,-0.700
14.144,-1.135,-0.705
14.147,-1.110,-0.700
14.150,-1.130,-0.695
14.153,-1.110,-0.690
14.156,-1.100,-0.695
14.158,-1.110,-0.705
14.161,-1.105,-0.705
14.164,-1.105,-0.705
14.167,-1.075,-0.715
14.169,-1.055,-0.685
14.172,-1.035,-0.665
14.175,-1.000,-0.650
14.178,-1.015,-0.650
14.181,-1.020,-0.660
14.183,-1.025,-0.685
14.186,-1.045,-0.715
14.189,-1.045,-0.725
14.192,-1.040,-0.700
14.194,-1.050,-0.695
14.197,-1.025,-0.695
14.200,-0.990,-0.680
14.203,-0.965,-0.695
14.206,-0.930,-0.695
14.208,-0.900,-0.725
14.211,-0.905,-0.720
14.214,-0.915,-0.700
14.217,-0.920,-0.720
14.219,-0.925,-0.720
14.222,-0.945,-0.715
14.225,-0.960,-0.705
14.228,-0.995,-0.725
14.231,-1.015,-0.720
14.233,-1.030,-0.735
14.236,-1.025,-0.730
14.239,-1.045,-0.720
14.242,-1.035,-0.715
14.244,-1.040,-0.720
14.247,-1.085,-0.725
14.250,-1.115,-0.755
14.253,-1.160,-0.755
14.256,-1.195,-0.770
14.258,-1.220,-0.770
14.261,-1.240,-0.745
14.264,-1.225,-0.735
14.267,-1.205,-0.740
14.269,-1.190,-0.735
14.272,-1.160,-0.725
14.275,-1.135,-0.730
14.278,-1.130,-0.760
14.281,-1.125,-0.770
14.283,-1.150,-0.775
14.286,-1.155,-0.775
14.289,-1.175,-0.765
14.292,-1.195,-0.740
14.294,-1.190,-0.720
14.297,-1.180,-0.700
14.300,-1.175,-0.670
14.303,-1.170,-0.685
14.306,-1.175,-0.720
14.308,-1.135,-0.755
14.311,-1.100,-0.810
14.314,-1.030,-0.870
14.317,-0.920,-0.965
14.319,-0.755,-1.060
14.322,-0.520,-1.155
14.325,-0.205,-1.255
14.328,0.160,-1.355
14.331,0.575,-1.425
14.333,1.020,-1.495
14.336,1.450,-1.550
14.339,1.860,-1.540
14.342,2.195,-1.495
14.344,2.375,-1.400
14.347,2.425,-1.265
14.350,2.290,-1.165
14.353,1.910,-1.050
14.356,1.280,-1.000
14.358,0.640,-0.955
14.361,0.000,-0.935
14.364,-0.640,-0.910
14.367,-1.280,-0.875
14.369,-1.825,-0.845
14.372,-1.600,-0.785
14.375,-1.240,-0.750
14.378,-0.940,-0.735
14.381,-0.770,-0.755
14.383,-0.735,-0.750
14.386,-0.820,-0.735
14.389,-0.955,-0.750
14.392,-1.060,-0.750
14.394,-1.145,-0.745
14.397,-1.150,-0.730
14.400,-1.150,-0.700
14.403,-1.140,-0.670
14.406,-1.125,-0.660
14.408,-1.110,-0.655
14.411,-1.115,-0.670
14.414,-1.100,-0.680
14.417,-1.105,-0.705
14.419,-1.115,-0.725
14.422,-1.125,-0.720
14.425,-1.105,-0.715
14.428,-1.110,-0.725
14.431,-1.135,-0.730
14.433,-1.130,-0.710
14.436,-1.125,-0.700
14.439,-1.105,-0.695
14.442,-1.095,-0.680
14.444,-1.070,-0.670
14.447,-1.050,-0.670
14.450,-1.065,-0.680
14.453,-1.035,-0.690
14.456,-1.040,-0.705
14.458,-1.050,-0.695
14.461,-1.060,-0.710
14.464,-1.050,-0.690
14.467,-1.040,-0.700
14.469,-1.025,-0.690
14.472,-1.015,-0.690
14.475,-0.985,-0.680
14.478,-0.985,-0.635
14.481,-0.985,-0.655
14.483,-0.975,-0.670
14.486,-0.965,-0.675
14.489,-0.985,-0.700
14.492,-0.970,-0.690
14.494,-0.945,-0.685
14.497,-0.945,-0.665
14.500,-0.930,-0.670
14.503,-0.915,-0.630
14.506,-0.895,-0.610
14.508,-0.860,-0.610
14.511,-0.845,-0.615
14.514,-0.815,-0.605
14.517,-0.810,-0.615
14.519,-0.805,-0.630
14.522,-0.790,-0.640
14.525,-0.780,-0.640
14.528,-0.765,-0.625
14.531,-0.740,-0.630
14.533,-0.720,-0.610
14.536,-0.660,-0.600
14.539,-0.640,-0.565
14.542,-0.600,-0.565
14.544,-0.550,-0.570
14.547,-0.520,-0.585
14.550,-0.490,-0.605
14.553,-0.475,-0.600
14.556,-0.460,-0.610
14.558,-0.440,-0.580
14.561,-0.450,-0.555
14.564,-0.440,-0.550
14.567,-0.425,-0.540
14.569,-0.385,-0.520
14.572,-0.350,-0.525
14.575,-0.305,-0.530
14.578,-0.280,-0.530
14.581,-0.270,-0.535
14.583,-0.260,-0.550
14.586,-0.265,-0.570
14.589,-0.265,-0.560
14.592,-0.270,-0.545
14.594,-0.290,-0.550
14.597,-0.290,-0.545
14.600,-0.330,-0.550
14.603,-0.335,-0.555
14.606,-0.380,-0.555
14.608,-0.395,-0.565
14.611,-0.425,-0.580
14.614,-0.475,-0.590
14.617,-0.500,-0.630
14.619,-0.550,-0.650
14.622,-0.590,-0.645
14.625,-0.635,-0.655
14.628,-0.700,-0.655
14.631,-0.740,-0.675
14.633,-0.770,-0.665
14.636,-0.800,-0.685
14.639,-0.840,-0.695
14.642,-0.865,-0.720
14.644,-0.900,-0.715
14.647,-0.930,-0.715
14.650,-0.970,-0.710
14.653,-0.990,-0.700
14.656,-1.030,-0.695
14.658,-1.055,-0.695
14.661,-1.075,-0.715
14.664,-1.080,-0.715
14.667,-1.085,-0.715
14.669,-1.085,-0.715
14.672,-1.080,-0.695
14.675,-1.080,-0.685
14.678,-1.085,-0.680
14.681,-1.115,-0.695
14.683,-1.125,-0.720
14.686,-1.130,-0.730
14.689,-1.110,-0.740
14.692,-1.105,-0.755
14.694,-1.120,-0.740
14.697,-1.110,-0.750
14.700,-1.120,-0.725
14.703,-1.110,-0.730
14.706,-1.135,-0.710
14.708,-1.110,-0.690
14.711,-1.110,-0.705
14.714,-1.085,-0.705
14.717,-1.100,-0.705
14.719,-1.100,-0.720
14.722,-1.105,-0.725
14.725,-1.105,-0.735
14.728,-1.115,-0.740
14.731,-1.125,-0.725
14.733,-1.110,-0.715
14.736,-1.100,-0.700
14.739,-1.095,-0.695
14.742,-1.070,-0.685
14.744,-1.080,-0.680
14.747,-1.070,-0.670
14.750,-1.065,-0.675
14.753,-1.080,-0.690
14.756,-1.105,-0.705
14.758,-1.100,-0.715
14.761,-1.125,-0.715
14.764,-1.135,-0.715
14.767,-1.120,-0.690
14.769,-1.100,-0.670
14.772,-1.095,-0.675
14.775,-1.075,-0.675
14.778,-1.065,-0.700
14.781,-1.070,-0.710
14.783,-1.065,-0.720
14.786,-1.090,-0.725
14.789,-1.120,-0.730
14.792,-1.125,-0.725
14.794,-1.150,-0.695
14.797,-1.150,-0.690
14.800,-1.150,-0.680
14.803,-1.145,-0.685
14.806,-1.135,-0.665
14.808,-1.120,-0.670
14.811,-1.115,-0.640
14.814,-1.115,-0.660
14.817,-1.115,-0.685
14.819,-1.130,-0.710
14.822,-1.135,-0.735
14.825,-1.150,-0.750
14.828,-1.180,-0.755
14.831,-1.190,-0.750
14.833,-1.180,-0.735
14.836,-1.155,-0.720
14.839,-1.145,-0.700
14.842,-1.135,-0.675
14.844,-1.155,-0.680
14.847,-1.175,-0.690
14.850,-1.175,-0.710
14.853,-1.175,-0.730
14.856,-1.185,-0.750
14.858,-1.200,-0.735
14.861,-1.200,-0.725
14.864,-1.205,-0.730
14.867,-1.215,-0.715
14.869,-1.210,-0.715
14.872,-1.190,-0.715
14.875,-1.180,-0.700
14.878,-1.155,-0.685
14.881,-1.155,-0.690
14.883,-1.155,-0.700
14.886,-1.155,-0.695
14.889,-1.190,-0.720
14.892,-1.210,-0.725
14.894,-1.230,-0.730
14.897,-1.220,-0.740
14.900,-1.210,-0.730
14.903,-1.195,-0.715
14.906,-1.180,-0.700
14.908,-1.180,-0.655
14.911,-1.165,-0.655
14.914,-1.180,-0.655
14.917,-1.175,-0.660
14.919,-1.150,-0.640
14.922,-1.125,-0.645
14.925,-1.120,-0.640
14.928,-1.130,-0.625
14.931,-1.135,-0.635
14.933,-1.135,-0.625
14.936,-1.105,-0.620
14.939,-1.100,-0.630
14.942,-1.075,-0.635
14.944,-1.080,-0.645
14.947,-1.070,-0.655
14.950,-1.080,-0.685
14.953,-1.090,-0.685
14.956,-1.095,-0.705
14.958,-1.060,-0.700
14.961,-1.040,-0.705
14.964,-1.050,-0.690
14.967,-1.025,-0.685
14.969,-1.010,-0.685
14.972,-1.025,-0.670
14.975,-1.025,-0.675
14.978,-1.040,-0.670
14.981,-1.055,-0.700
14.983,-1.085,-0.690
14.986,-1.085,-0.705
14.989,-1.100,-0.720
14.992,-1.110,-0.730
14.994,-1.125,-0.710
14.997,-1.135,-0.710
15.000,-1.135,-0.690
15.003,-1.130,-0.670
15.006,-1.145,-0.650
15.008,-1.150,-0.675
15.011,-1.170,-0.700
15.014,-1.200,-0.715
15.017,-1.220,-0.725
15.019,-1.250,-0.725
15.022,-1.275,-0.715
15.025,-1.280,-0.700
15.028,-1.285,-0.710
15.031,-1.280,-0.715
15.033,-1.270,-0.725
15.036,-1.265,-0.700
15.039,-1.250,-0.675
15.042,-1.235,-0.660
15.044,-1.225,-0.660
15.047,-1.220,-0.650
15.050,-1.225,-0.665
15.053,-1.215,-0.710
15.056,-1.220,-0.720
15.058,-1.230,-0.755
15.061,-1.220,-0.760
15.064,-1.170,-0.820
15.067,-1.110,-0.855
15.069,-0.995,-0.940
15.072,-0.820,-1.035
15.075,-0.560,-1.120
15.078,-0.210,-1.190
15.081,0.200,-1.270
15.083,0.680,-1.350
15.086,1.180,-1.430
15.089,1.650,-1.475
15.092,2.050,-1.485
15.094,2.290,-1.430
15.097,2.380,-1.315
15.100,2.290,-1.175
15.103,1.955,-1.035
15.106,1.340,-0.945
15.108,0.700,-0.900
15.111,0.060,-0.900
15.114,-0.580,-0.880
15.117,-1.220,-0.850
15.119,-1.860,-0.815
15.122,-1.685,-0.750
15.125,-1.390,-0.710
15.128,-1.130,-0.695
15.131,-0.970,-0.660
15.133,-0.930,-0.660
15.136,-0.995,-0.665
15.139,-1.100,-0.655
15.142,-1.180,-0.635
15.144,-1.230,-0.640
15.147,-1.255,-0.645
15.150,-1.245,-0.640
15.153,-1.230,-0.675
15.156,-1.215,-0.680
15.158,-1.195,-0.685
15.161,-1.205,-0.695
15.164,-1.200,-0.655
15.167,-1.200,-0.640
15.169,-1.205,-0.625
15.172,-1.205,-0.620
15.175,-1.180,-0.630
15.178,-1.165,-0.650
15.181,-1.155,-0.655
15.183,-1.145,-0.650
15.186,-1.145,-0.660
15.189,-1.140,-0.655
15.192,-1.120,-0.650
15.194,-1.130,-0.650
15.197,-1.125,-0.620
15.200,-1.120,-0.615
15.203,-1.120,-0.615
15.206,-1.125,-0.610
15.208,-1.090,-0.590
15.211,-1.085,-0.615
15.214,-1.065,-0.600
15.217,-1.070,-0.595
15.219,-1.075,-0.610
15.222,-1.080,-0.615
15.225,-1.065,-0.630
15.228,-1.055,-0.640
15.231,-1.040,-0.620
15.233,-1.030,-0.600
15.236,-1.005,-0.580
15.239,-0.975,-0.560
15.242,-0.945,-0.570
15.244,-0.935,-0.565
15.247,-0.910,-0.570
15.250,-0.895,-0.550
15.253,-0.885,-0.570
15.256,-0.870,-0.560
15.258,-0.865,-0.555
15.261,-0.845,-0.530
15.264,-0.850,-0.520
15.267,-0.810,-0.525
15.269,-0.775,-0.530
15.272,-0.740,-0.535
15.275,-0.705,-0.515
15.278,-0.680,-0.515
15.281,-0.650,-0.520
15.283,-0.630,-0.510
15.286,-0.615,-0.505
15.289,-0.590,-0.490
15.292,-0.570,-0.490
15.294,-0.560,-0.485
15.297,-0.540,-0.480
15.300,-0.515,-0.460
15.303,-0.475,-0.465
15.306,-0.455,-0.445
15.308,-0.450,-0.445
15.311,-0.435,-0.455
15.314,-0.440,-0.475
15.317,-0.425,-0.495
15.319,-0.435,-0.515
15.322,-0.455,-0.525
15.325,-0.465,-0.530
15.328,-0.495,-0.500
15.331,-0.505,-0.500
15.333,-0.500,-0.485
15.336,-0.525,-0.495
15.339,-0.560,-0.470
15.342,-0.580,-0.460
15.344,-0.615,-0.500
15.347,-0.675,-0.505
15.350,-0.720,-0.560
15.353,-0.770,-0.590
15.356,-0.830,-0.610
15.358,-0.885,-0.630
15.361,-0.945,-0.645
15.364,-1.005,-0.630
15.367,-1.030,-0.620
15.369,-1.035,-0.610
15.372,-1.055,-0.595
15.375,-1.050,-0.590
15.378,-1.065,-0.590
15.381,-1.100,-0.595
15.383,-1.140,-0.625
15.386,-1.175,-0.640
15.389,-1.190,-0.640
15.392,-1.210,-0.655
15.394,-1.210,-0.645
15.397,-1.215,-0.650
15.400,-1.225,-0.640
15.403,-1.225,-0.615
15.406,-1.220,-0.615
15.408,-1.230,-0.590
15.411,-1.260,-0.590
15.414,-1.255,-0.595
15.417,-1.265,-0.610
15.419,-1.265,-0.625
15.422,-1.270,-0.650
15.425,-1.255,-0.660
15.428,-1.255,-0.660
15.431,-1.255,-0.660
15.433,-1.270,-0.645
15.436,-1.245,-0.630
15.439,-1.235,-0.615
15.442,-1.205,-0.595
15.444,-1.210,-0.605
15.447,-1.205,-0.615
15.450,-1.220,-0.635
15.453,-1.245,-0.645
15.456,-1.260,-0.675
15.458,-1.250,-0.665
15.461,-1.255,-0.680
15.464,-1.240,-0.655
15.467,-1.220,-0.650
15.469,-1.215,-0.615
15.472,-1.195,-0.605
15.475,-1.180,-0.610
15.478,-1.195,-0.615
15.481,-1.200,-0.615
15.483,-1.215,-0.645
15.486,-1.220,-0.630
15.489,-1.220,-0.640
15.492,-1.215,-0.615
15.494,-1.220,-0.610
15.497,-1.235,-0.605
15.500,-1.240,-0.610
15.503,-1.225,-0.615
15.506,-1.215,-0.630
15.508,-1.200,-0.630
15.511,-1.190,-0.625
15.514,-1.190,-0.640
15.517,-1.180,-0.635
15.519,-1.210,-0.620
15.522,-1.205,-0.635
15.525,-1.220,-0.645
15.528,-1.250,-0.645
15.531,-1.255,-0.665
15.533,-1.245,-0.635
15.536,-1.250,-0.640
15.539,-1.235,-0.630
15.542,-1.215,-0.630
15.544,-1.210,-0.630
15.547,-1.215,-0.640
15.550,-1.220,-0.660
15.553,-1.220,-0.660
15.556,-1.235,-0.670
15.558,-1.260,-0.670
15.561,-1.260,-0.650
15.564,-1.275,-0.645
15.567,-1.285,-0.610
15.569,-1.295,-0.610
15.572,-1.295,-0.595
15.575,-1.295,-0.630
15.578,-1.280,-0.655
15.581,-1.245,-0.670
15.583,-1.225,-0.670
15.586,-1.235,-0.675
15.589,-1.235,-0.680
15.592,-1.240,-0.685
15.594,-1.265,-0.670
15.597,-1.285,-0.665
15.600,-1.285,-0.635
15.603,-1.295,-0.600
15.606,-1.290,-0.585
15.608,-1.270,-0.600
15.611,-1.265,-0.620
15.614,-1.270,-0.650
15.617,-1.265,-0.660
15.619,-1.270,-0.660
15.622,-1.280,-0.670
15.625,-1.280,-0.660
15.628,-1.295,-0.660
15.631,-1.295,-0.665
15.633,-1.290,-0.660
15.636,-1.275,-0.660
15.639,-1.265,-0.640
15.642,-1.255,-0.630
15.644,-1.235,-0.635
15.647,-1.235,-0.615
15.650,-1.245,-0.650
15.653,-1.270,-0.660
15.656,-1.265,-0.675
15.658,-1.260,-0.665
15.661,-1.245,-0.650
15.664,-1.230,-0.625
15.667,-1.215,-0.600
15.669,-1.185,-0.590
15.672,-1.180,-0.575
15.675,-1.175,-0.580
15.678,-1.155,-0.565
15.681,-1.155,-0.560
15.683,-1.150,-0.600
15.686,-1.145,-0.620
15.689,-1.160,-0.625
15.692,-1.175,-0.630
15.694,-1.175,-0.650
15.697,-1.180,-0.665
15.700,-1.160,-0.640
15.703,-1.145,-0.650
15.706,-1.120,-0.655
15.708,-1.090,-0.665
15.711,-1.065,-0.655
15.714,-1.075,-0.675
15.717,-1.070,-0.650
15.719,-1.070,-0.670
15.722,-1.085,-0.655
15.725,-1.090,-0.645
15.728,-1.105,-0.650
15.731,-1.115,-0.665
15.733,-1.130,-0.645
15.736,-1.120,-0.655
15.739,-1.115,-0.655
15.742,-1.105,-0.635
15.744,-1.110,-0.655
15.747,-1.130,-0.650
15.750,-1.160,-0.680
15.753,-1.180,-0.675
15.756,-1.210,-0.710
15.758,-1.235,-0.705
15.761,-1.235,-0.685
15.764,-1.255,-0.690
15.767,-1.260,-0.670
15.769,-1.245,-0.680
15.772,-1.245,-0.690
15.775,-1.230,-0.675
15.778,-1.225,-0.690
15.781,-1.235,-0.685
15.783,-1.250,-0.690
15.786,-1.255,-0.690
15.789,-1.265,-0.695
15.792,-1.265,-0.710
15.794,-1.270,-0.695
15.797,-1.255,-0.705
15.800,-1.245,-0.680
15.803,-1.220,-0.655
15.806,-1.220,-0.625
15.808,-1.200,-0.630
15.811,-1.205,-0.655
15.814,-1.180,-0.690
15.817,-1.140,-0.750
15.819,-1.085,-0.810
15.822,-0.990,-0.890
15.825,-0.835,-0.965
15.828,-0.640,-1.040
15.831,-0.410,-1.105
15.833,-0.105,-1.170
15.836,0.225,-1.230
15.839,0.590,-1.285
15.842,1.025,-1.335
15.844,1.445,-1.375
15.847,1.810,-1.370
15.850,2.070,-1.305
15.853,2.155,-1.185
15.856,2.025,-1.090
15.858,1.605,-1.005
15.861,0.965,-0.960
15.864,0.325,-0.930
15.867,-0.315,-0.895
15.869,-0.955,-0.845
15.872,-1.595,-0.795
15.875,-1.675,-0.730
15.878,-1.405,-0.705
15.881,-1.135,-0.695
15.883,-0.930,-0.700
15.886,-0.845,-0.700
15.889,-0.875,-0.715
15.892,-0.955,-0.715
15.894,-1.050,-0.725
15.897,-1.115,-0.695
15.900,-1.155,-0.675
15.903,-1.165,-0.665
15.906,-1.135,-0.645
15.908,-1.115,-0.630
15.911,-1.100,-0.630
15.914,-1.090,-0.645
15.917,-1.095,-0.660
15.919,-1.100,-0.665
15.922,-1.105,-0.680
15.925,-1.105,-0.660
15.928,-1.095,-0.650
15.931,-1.070,-0.645
15.933,-1.055,-0.630
15.936,-1.050,-0.640
15.939,-1.045,-0.640
15.942,-1.040,-0.630
15.944,-1.035,-0.635
15.947,-1.050,-0.650
15.950,-1.045,-0.640
15.953,-1.060,-0.660
15.956,-1.050,-0.660
15.958,-1.035,-0.660
15.961,-1.035,-0.670
15.964,-1.035,-0.655
15.967,-1.030,-0.645
15.969,-1.030,-0.635
15.972,-1.010,-0.620
15.975,-0.990,-0.615
15.978,-0.965,-0.610
15.981,-0.950,-0.615
15.983,-0.925,-0.630
15.986,-0.925,-0.665
15.989,-0.925,-0.670
15.992,-0.925,-0.675
15.994,-0.935,-0.695
15.997,-0.925,-0.660
16.000,-0.910,-0.655
16.003,-0.875,-0.620
16.006,-0.860,-0.610
16.008,-0.820,-0.585
16.011,-0.800,-0.565
16.014,-0.775,-0.570
16.017,-0.765,-0.565
16.019,-0.740,-0.585
16.022,-0.740,-0.580
16.025,-0.725,-0.610
16.028,-0.715,-0.605
16.031,-0.685,-0.595
16.033,-0.635,-0.585
16.036,-0.585,-0.565
16.039,-0.550,-0.545
16.042,-0.520,-0.515
16.044,-0.495,-0.510
16.047,-0.500,-0.530
16.050,-0.505,-0.540
16.053,-0.480,-0.525
16.056,-0.460,-0.535
16.058,-0.460,-0.510
16.061,-0.430,-0.525
16.064,-0.410,-0.525
16.067,-0.395,-0.495
16.069,-0.370,-0.480
16.072,-0.350,-0.500
16.075,-0.325,-0.475
16.078,-0.300,-0.490
16.081,-0.290,-0.525
16.083,-0.305,-0.540
16.086,-0.325,-0.535
16.089,-0.355,-0.535
16.092,-0.365,-0.520
16.094,-0.380,-0.520
16.097,-0.410,-0.535
16.100,-0.450,-0.530
16.103,-0.450,-0.560
16.106,-0.470,-0.570
16.108,-0.480,-0.580
16.111,-0.500,-0.590
16.114,-0.550,-0.605
16.117,-0.615,-0.635
16.119,-0.680,-0.660
16.122,-0.765,-0.690
16.125,-0.810,-0.710
16.128,-0.855,-0.715
16.131,-0.895,-0.710
16.133,-0.925,-0.695
16.136,-0.935,-0.705
16.139,-0.945,-0.695
16.142,-0.945,-0.695
16.144,-0.945,-0.680
16.147,-0.950,-0.695
16.150,-0.970,-0.705
16.153,-0.985,-0.720
16.156,-0.995,-0.720
16.158,-1.000,-0.715
16.161,-1.005,-0.715
16.164,-1.025,-0.705
16.167,-1.045,-0.685
16.169,-1.045,-0.700
16.172,-1.060,-0.700
16.175,-1.065,-0.700
16.178,-1.040,-0.690
16.181,-1.050,-0.700
16.183,-1.050,-0.700
16.186,-1.045,-0.705
16.189,-1.035,-0.730
16.192,-1.045,-0.745
16.194,-1.035,-0.770
16.197,-1.045,-0.785
16.200,-1.035,-0.755
16.203,-1.040,-0.720
16.206,-1.030,-0.685
16.208,-1.035,-0.650
16.211,-1.030,-0.660
16.214,-1.035,-0.695
16.217,-1.055,-0.720
16.219,-1.060,-0.745
16.222,-1.045,-0.770
16.225,-1.045,-0.775
16.228,-1.035,-0.745
16.231,-1.035,-0.710
16.233,-1.015,-0.685
16.236,-1.015,-0.655
16.239,-1.010,-0.670
16.242,-0.995,-0.680
16.244,-0.980,-0.720
16.247,-0.980,-0.740
16.250,-0.995,-0.725
16.253,-0.995,-0.745
16.256,-1.010,-0.750
16.258,-1.020,-0.755
16.261,-1.025,-0.760
16.264,-1.035,-0.765
16.267,-1.015,-0.760
16.269,-1.000,-0.730
16.272,-1.000,-0.705
16.275,-0.980,-0.665
16.278,-0.980,-0.660
16.281,-0.980,-0.675
16.283,-0.985,-0.695
16.286,-0.985,-0.720
16.289,-1.000,-0.735
16.292,-1.015,-0.735
16.294,-1.045,-0.730
16.297,-1.060,-0.740
16.300,-1.075,-0.730
16.303,-1.065,-0.725
16.306,-1.060,-0.730
16.308,-1.045,-0.720
16.311,-1.040,-0.720
16.314,-1.035,-0.730
16.317,-1.040,-0.735
16.319,-1.025,-0.735
16.322,-1.045,-0.745
16.325,-1.060,-0.755
16.328,-1.075,-0.765
16.331,-1.090,-0.765
16.333,-1.090,-0.755
16.336,-1.070,-0.730
16.339,-1.055,-0.725
16.342,-1.055,-0.720
16.344,-1.070,-0.710
16.347,-1.085,-0.720
16.350,-1.065,-0.730
16.353,-1.060,-0.755
16.356,-1.055,-0.775
16.358,-1.060,-0.770
16.361,-1.065,-0.770
16.364,-1.065,-0.765
16.367,-1.070,-0.740
16.369,-1.060,-0.730
16.372,-1.050,-0.725
