'Elapsed time','MLII','V1'
'seconds','mV','mV'
0.000,-0.835,-0.515
0.003,-0.835,-0.515
0.006,-0.835,-0.515
0.008,-0.835,-0.515
0.011,-0.835,-0.515
0.014,-0.835,-0.515
0.017,-0.835,-0.515
0.019,-0.815,-0.515
0.022,-0.815,-0.485
0.025,-0.830,-0.500
0.028,-0.840,-0.515
0.031,-0.850,-0.550
0.033,-0.875,-0.590
0.036,-0.885,-0.635
0.039,-0.920,-0.650
0.042,-0.970,-0.665
0.044,-1.010,-0.640
0.047,-1.040,-0.625
0.050,-1.065,-0.615
0.053,-1.095,-0.615
0.056,-1.085,-0.615
0.058,-1.065,-0.650
0.061,-1.070,-0.675
0.064,-1.060,-0.680
0.067,-1.050,-0.690
0.069,-1.060,-0.705
0.072,-1.060,-0.685
0.075,-1.065,-0.685
0.078,-1.065,-0.675
0.081,-1.065,-0.640
0.083,-1.080,-0.640
0.086,-1.080,-0.645
0.089,-1.115,-0.630
0.092,-1.115,-0.630
0.094,-1.095,-0.640
0.097,-1.070,-0.640
0.100,-1.055,-0.665
0.103,-1.055,-0.675
0.106,-1.075,-0.690
0.108,-1.100,-0.680
0.111,-1.100,-0.690
0.114,-1.115,-0.680
0.117,-1.110,-0.685
0.119,-1.110,-0.695
0.122,-1.105,-0.700
0.125,-1.105,-0.705
0.128,-1.110,-0.695
0.131,-1.100,-0.680
0.133,-1.105,-0.685
0.136,-1.090,-0.650
0.139,-1.090,-0.655
0.142,-1.080,-0.660
0.144,-1.065,-0.700
0.147,-1.080,-0.720
0.150,-1.050,-0.765
0.153,-1.035,-0.845
0.156,-0.995,-0.930
0.158,-0.900,-1.035
0.161,-0.755,-1.175
0.164,-0.570,-1.330
0.167,-0.395,-1.485
0.169,-0.275,-1.610
0.172,-0.235,-1.670
0.175,-0.240,-1.610
0.178,-0.230,-1.500
0.181,-0.200,-1.325
0.183,-0.130,-1.175
0.186,-0.015,-1.040
0.189,0.110,-0.910
0.192,0.225,-0.755
0.194,0.245,-0.510
0.197,0.155,-0.195
0.200,-0.140,0.110
0.203,-0.575,0.340
0.206,-1.080,0.405
0.208,-1.500,0.300
0.211,-1.790,0.070
0.214,-1.920,-0.210
0.217,-1.980,-0.445
0.219,-2.010,-0.610
0.222,-2.050,-0.695
0.225,-2.120,-0.740
0.228,-2.170,-0.775
0.231,-2.170,-0.800
0.233,-2.140,-0.855
0.236,-2.075,-0.925
0.239,-2.060,-0.985
0.242,-2.045,-1.005
0.244,-2.025,-1.010
0.247,-1.985,-0.970
0.250,-1.950,-0.950
0.253,-1.900,-0.965
0.256,-1.800,-0.950
0.258,-1.685,-0.960
0.261,-1.570,-0.930
0.264,-1.445,-0.920
0.267,-1.335,-0.875
0.269,-1.230,-0.840
0.272,-1.175,-0.760
0.275,-1.140,-0.700
0.278,-1.150,-0.645
0.281,-1.170,-0.600
0.283,-1.170,-0.565
0.286,-1.140,-0.565
0.289,-1.095,-0.585
0.292,-1.060,-0.605
0.294,-1.100,-0.620
0.297,-1.180,-0.610
0.300,-1.230,-0.595
0.303,-1.210,-0.585
0.306,-1.095,-0.600
0.308,-0.985,-0.635
0.311,-0.960,-0.670
0.314,-0.995,-0.710
0.317,-1.035,-0.705
0.319,-1.070,-0.720
0.322,-1.080,-0.705
0.325,-1.040,-0.720
0.328,-1.015,-0.755
0.331,-0.995,-0.775
0.333,-1.010,-0.785
0.336,-1.045,-0.800
0.339,-1.085,-0.785
0.342,-1.115,-0.770
0.344,-1.105,-0.775
0.347,-1.105,-0.785
0.350,-1.125,-0.830
0.353,-1.140,-0.885
0.356,-1.175,-0.935
0.358,-1.185,-0.970
0.361,-1.175,-0.995
0.364,-1.185,-0.990
0.367,-1.205,-0.990
0.369,-1.200,-0.975
0.372,-1.205,-0.965
0.375,-1.200,-0.960
0.378,-1.165,-0.960
0.381,-1.130,-0.970
0.383,-1.135,-0.985
0.386,-1.150,-1.000
0.389,-1.210,-1.050
0.392,-1.225,-1.040
0.394,-1.205,-1.060
0.397,-1.215,-1.055
0.400,-1.230,-1.045
0.403,-1.265,-1.065
0.406,-1.260,-1.055
0.408,-1.210,-1.050
0.411,-1.150,-1.055
0.414,-1.150,-1.080
0.417,-1.175,-1.125
0.419,-1.205,-1.145
0.422,-1.250,-1.165
0.425,-1.320,-1.160
0.428,-1.395,-1.150
0.431,-1.470,-1.140
0.433,-1.495,-1.150
0.436,-1.485,-1.160
0.439,-1.430,-1.120
0.442,-1.375,-1.095
0.444,-1.335,-1.075
0.447,-1.275,-1.030
0.450,-1.210,-0.985
0.453,-1.155,-0.975
0.456,-1.160,-0.965
0.458,-1.215,-0.960
0.461,-1.270,-0.975
0.464,-1.300,-0.975
0.467,-1.290,-0.980
0.469,-1.260,-0.980
0.472,-1.215,-0.975
0.475,-1.170,-0.965
0.478,-1.135,-0.955
0.481,-1.090,-0.935
0.483,-1.065,-0.930
0.486,-1.040,-0.925
0.489,-1.035,-0.930
0.492,-1.025,-0.925
0.494,-1.055,-0.900
0.497,-1.070,-0.885
0.500,-1.070,-0.860
0.503,-1.040,-0.845
0.506,-0.990,-0.825
0.508,-0.960,-0.810
0.511,-0.920,-0.820
0.514,-0.885,-0.830
0.517,-0.875,-0.830
0.519,-0.890,-0.830
0.522,-0.890,-0.830
0.525,-0.915,-0.820
0.528,-0.965,-0.790
0.531,-1.005,-0.765
0.533,-1.035,-0.725
0.536,-1.040,-0.720
0.539,-0.975,-0.700
0.542,-0.905,-0.690
0.544,-0.885,-0.690
0.547,-0.850,-0.700
0.550,-0.855,-0.700
0.553,-0.905,-0.705
0.556,-0.920,-0.705
0.558,-0.955,-0.695
0.561,-0.980,-0.680
0.564,-0.955,-0.670
0.567,-0.940,-0.670
0.569,-0.935,-0.660
0.572,-0.950,-0.655
0.575,-0.960,-0.635
0.578,-0.920,-0.635
0.581,-0.915,-0.625
0.583,-0.900,-0.665
0.586,-0.930,-0.675
0.589,-0.945,-0.675
0.592,-0.945,-0.660
0.594,-0.925,-0.665
0.597,-0.915,-0.650
0.600,-0.970,-0.665
0.603,-1.035,-0.695
0.606,-1.060,-0.685
0.608,-1.050,-0.680
0.611,-1.005,-0.695
0.614,-0.940,-0.700
0.617,-0.925,-0.685
0.619,-0.920,-0.680
0.622,-0.925,-0.670
0.625,-0.930,-0.670
0.628,-0.925,-0.660
0.631,-0.930,-0.670
0.633,-0.935,-0.675
0.636,-0.925,-0.685
0.639,-0.940,-0.675
0.642,-0.985,-0.640
0.644,-1.040,-0.615
0.647,-1.075,-0.615
0.650,-1.040,-0.610
0.653,-0.975,-0.645
0.656,-0.935,-0.680
0.658,-0.905,-0.745
0.661,-0.900,-0.750
0.664,-0.960,-0.765
0.667,-1.020,-0.745
0.669,-1.070,-0.710
0.672,-1.060,-0.680
0.675,-1.020,-0.675
0.678,-0.955,-0.660
0.681,-0.890,-0.690
0.683,-0.850,-0.710
0.686,-0.870,-0.730
0.689,-0.915,-0.730
0.692,-0.975,-0.730
0.694,-1.040,-0.705
0.697,-1.045,-0.685
0.700,-1.025,-0.680
0.703,-0.975,-0.670
0.706,-0.935,-0.705
0.708,-0.905,-0.720
0.711,-0.925,-0.720
0.714,-0.940,-0.730
0.717,-0.950,-0.705
0.719,-0.955,-0.705
0.722,-0.980,-0.690
0.725,-0.975,-0.695
0.728,-0.975,-0.720
0.731,-0.985,-0.740
0.733,-0.990,-0.740
0.736,-0.965,-0.755
0.739,-0.950,-0.760
0.742,-0.930,-0.730
0.744,-0.890,-0.720
0.747,-0.865,-0.705
0.750,-0.880,-0.730
0.753,-0.875,-0.750
0.756,-0.925,-0.745
0.758,-0.960,-0.735
0.761,-0.970,-0.725
0.764,-0.980,-0.730
0.767,-0.940,-0.735
0.769,-0.900,-0.745
0.772,-0.910,-0.745
0.775,-0.920,-0.750
0.778,-0.945,-0.745
0.781,-0.915,-0.735
0.783,-0.860,-0.735
0.786,-0.820,-0.735
0.789,-0.835,-0.735
0.792,-0.870,-0.755
0.794,-0.875,-0.760
0.797,-0.855,-0.750
0.800,-0.820,-0.750
0.803,-0.760,-0.785
0.806,-0.730,-0.825
0.808,-0.700,-0.865
0.811,-0.690,-0.865
0.814,-0.700,-0.865
0.817,-0.745,-0.800
0.819,-0.780,-0.740
0.822,-0.830,-0.695
0.825,-0.830,-0.690
0.828,-0.835,-0.685
0.831,-0.820,-0.715
0.833,-0.815,-0.770
0.836,-0.840,-0.810
0.839,-0.850,-0.820
0.842,-0.875,-0.760
0.844,-0.800,-0.695
0.847,-0.725,-0.625
0.850,-0.675,-0.590
0.853,-0.650,-0.590
0.856,-0.670,-0.605
0.858,-0.740,-0.605
0.861,-0.815,-0.630
0.864,-0.900,-0.645
0.867,-0.930,-0.680
0.869,-0.910,-0.710
0.872,-0.880,-0.745
0.875,-0.840,-0.775
0.878,-0.855,-0.805
0.881,-0.870,-0.815
0.883,-0.900,-0.775
0.886,-0.950,-0.765
0.889,-1.010,-0.750
0.892,-1.050,-0.750
0.894,-1.075,-0.765
0.897,-1.085,-0.785
0.900,-1.095,-0.800
0.903,-1.070,-0.795
0.906,-1.045,-0.775
0.908,-1.000,-0.765
0.911,-0.950,-0.745
0.914,-0.930,-0.750
0.917,-0.930,-0.765
0.919,-0.955,-0.765
0.922,-0.980,-0.765
0.925,-1.010,-0.755
0.928,-1.020,-0.745
0.931,-0.995,-0.735
0.933,-1.010,-0.725
0.936,-1.000,-0.720
0.939,-1.005,-0.710
0.942,-1.010,-0.700
0.944,-0.985,-0.705
0.947,-0.965,-0.685
0.950,-0.955,-0.690
0.953,-0.910,-0.715
0.956,-0.880,-0.745
0.958,-0.865,-0.775
0.961,-0.895,-0.765
0.964,-0.970,-0.765
0.967,-1.050,-0.710
0.969,-1.060,-0.685
0.972,-0.995,-0.685
0.975,-0.910,-0.730
0.978,-0.850,-0.800
0.981,-0.850,-0.860
0.983,-0.905,-0.900
0.986,-0.950,-0.955
0.989,-1.010,-1.000
0.992,-0.995,-1.070
0.994,-0.910,-1.170
0.997,-0.785,-1.335
1.000,-0.645,-1.500
1.003,-0.490,-1.675
1.006,-0.410,-1.805
1.008,-0.370,-1.815
1.011,-0.370,-1.750
1.014,-0.370,-1.580
1.017,-0.325,-1.370
1.019,-0.185,-1.125
1.022,0.035,-0.920
1.025,0.280,-0.670
1.028,0.425,-0.410
1.031,0.410,-0.115
1.033,0.210,0.205
1.036,-0.170,0.440
1.039,-0.635,0.585
1.042,-1.055,0.590
1.044,-1.335,0.420
1.047,-1.515,0.180
1.050,-1.620,-0.045
1.053,-1.700,-0.230
1.056,-1.820,-0.365
1.058,-1.950,-0.395
1.061,-2.030,-0.460
1.064,-2.110,-0.520
1.067,-2.145,-0.565
1.069,-2.150,-0.630
1.072,-2.135,-0.675
1.075,-2.100,-0.680
1.078,-2.095,-0.675
1.081,-2.095,-0.650
1.083,-2.080,-0.625
1.086,-2.060,-0.645
1.089,-2.010,-0.695
1.092,-1.935,-0.735
1.094,-1.875,-0.770
1.097,-1.845,-0.805
1.100,-1.805,-0.820
1.103,-1.705,-0.800
1.106,-1.585,-0.745
1.108,-1.445,-0.660
1.111,-1.305,-0.620
1.114,-1.205,-0.600
1.117,-1.145,-0.605
1.119,-1.115,-0.620
1.122,-1.105,-0.625
1.125,-1.115,-0.605
1.128,-1.140,-0.620
1.131,-1.170,-0.605
1.133,-1.160,-0.600
1.136,-1.105,-0.570
1.139,-1.030,-0.550
1.142,-0.970,-0.550
1.144,-0.970,-0.555
1.147,-0.995,-0.565
1.150,-1.040,-0.545
1.153,-1.080,-0.560
1.156,-1.100,-0.575
1.158,-1.090,-0.605
1.161,-1.070,-0.625
1.164,-1.050,-0.660
1.167,-1.025,-0.675
1.169,-1.005,-0.675
1.172,-0.990,-0.680
1.175,-1.010,-0.665
1.178,-1.020,-0.655
1.181,-1.060,-0.655
1.183,-1.065,-0.655
1.186,-1.070,-0.655
1.189,-1.065,-0.680
1.192,-1.045,-0.705
1.194,-1.050,-0.735
1.197,-1.075,-0.765
1.200,-1.105,-0.775
1.203,-1.130,-0.775
1.206,-1.150,-0.775
1.208,-1.170,-0.760
1.211,-1.185,-0.780
1.214,-1.205,-0.800
1.217,-1.185,-0.790
1.219,-1.170,-0.820
1.222,-1.155,-0.845
1.225,-1.155,-0.870
1.228,-1.160,-0.900
1.231,-1.160,-0.900
1.233,-1.170,-0.900
1.236,-1.190,-0.885
1.239,-1.245,-0.885
1.242,-1.295,-0.895
1.244,-1.310,-0.885
1.247,-1.290,-0.905
1.250,-1.240,-0.910
1.253,-1.185,-0.935
1.256,-1.160,-0.980
1.258,-1.165,-1.010
1.261,-1.240,-1.015
1.264,-1.320,-0.995
1.267,-1.375,-0.980
1.269,-1.355,-0.960
1.272,-1.265,-0.975
1.275,-1.200,-0.990
1.278,-1.165,-1.040
1.281,-1.175,-1.060
1.283,-1.220,-1.050
1.286,-1.265,-1.005
1.289,-1.280,-0.990
1.292,-1.290,-0.990
1.294,-1.260,-1.000
1.297,-1.205,-1.040
1.300,-1.215,-1.060
1.303,-1.205,-1.065
1.306,-1.205,-1.020
1.308,-1.185,-0.950
1.311,-1.185,-0.905
1.314,-1.165,-0.870
1.317,-1.125,-0.860
1.319,-1.075,-0.880
1.322,-1.010,-0.925
1.325,-0.970,-0.935
1.328,-0.980,-0.945
1.331,-1.000,-0.940
1.333,-1.040,-0.905
1.336,-1.045,-0.875
1.339,-1.010,-0.845
1.342,-0.975,-0.820
1.344,-0.970,-0.810
1.347,-0.945,-0.770
1.350,-0.950,-0.745
1.353,-0.945,-0.715
1.356,-0.910,-0.705
1.358,-0.890,-0.685
1.361,-0.885,-0.695
1.364,-0.920,-0.720
1.367,-0.935,-0.735
1.369,-0.900,-0.735
1.372,-0.860,-0.730
1.375,-0.830,-0.720
1.378,-0.830,-0.690
1.381,-0.855,-0.685
1.383,-0.900,-0.645
1.386,-0.935,-0.645
1.389,-0.940,-0.640
1.392,-0.945,-0.650
1.394,-0.935,-0.650
1.397,-0.915,-0.650
1.400,-0.870,-0.655
1.403,-0.830,-0.650
1.406,-0.815,-0.670
1.408,-0.825,-0.665
1.411,-0.850,-0.655
1.414,-0.865,-0.650
1.417,-0.870,-0.640
1.419,-0.870,-0.635
1.422,-0.855,-0.620
1.425,-0.840,-0.615
1.428,-0.855,-0.605
1.431,-0.905,-0.600
1.433,-0.960,-0.595
1.436,-0.975,-0.585
1.439,-0.950,-0.615
1.442,-0.900,-0.610
1.444,-0.865,-0.630
1.447,-0.875,-0.625
1.450,-0.920,-0.660
1.453,-0.930,-0.655
1.456,-0.950,-0.660
1.458,-0.935,-0.650
1.461,-0.950,-0.680
1.464,-0.990,-0.690
1.467,-1.000,-0.680
1.469,-0.985,-0.690
1.472,-0.955,-0.685
1.475,-0.920,-0.680
1.478,-0.900,-0.670
1.481,-0.875,-0.665
1.483,-0.865,-0.645
1.486,-0.880,-0.650
1.489,-0.895,-0.645
1.492,-0.895,-0.665
1.494,-0.900,-0.675
1.497,-0.930,-0.665
1.500,-0.950,-0.670
1.503,-0.980,-0.655
1.506,-0.945,-0.635
1.508,-0.895,-0.620
1.511,-0.870,-0.595
1.514,-0.870,-0.595
1.517,-0.915,-0.630
1.519,-0.945,-0.635
1.522,-0.955,-0.660
1.525,-0.940,-0.655
1.528,-0.905,-0.660
1.531,-0.905,-0.645
1.533,-0.935,-0.640
1.536,-0.960,-0.645
1.539,-0.955,-0.660
1.542,-0.940,-0.665
1.544,-0.885,-0.675
1.547,-0.875,-0.670
1.550,-0.840,-0.640
1.553,-0.845,-0.620
1.556,-0.850,-0.605
1.558,-0.880,-0.575
1.561,-0.920,-0.560
1.564,-0.925,-0.540
1.567,-0.895,-0.565
1.569,-0.855,-0.590
1.572,-0.835,-0.615
1.575,-0.855,-0.610
1.578,-0.860,-0.610
1.581,-0.860,-0.610
1.583,-0.855,-0.590
1.586,-0.865,-0.595
1.589,-0.900,-0.595
1.592,-0.905,-0.590
1.594,-0.900,-0.595
1.597,-0.870,-0.630
1.600,-0.850,-0.670
1.603,-0.830,-0.725
1.606,-0.850,-0.730
1.608,-0.895,-0.730
1.611,-0.920,-0.685
1.614,-0.945,-0.645
1.617,-0.930,-0.615
1.619,-0.910,-0.605
1.622,-0.875,-0.605
1.625,-0.865,-0.625
1.628,-0.870,-0.620
1.631,-0.855,-0.610
1.633,-0.855,-0.625
1.636,-0.860,-0.635
1.639,-0.855,-0.625
1.642,-0.835,-0.600
1.644,-0.820,-0.590
1.647,-0.790,-0.590
1.650,-0.775,-0.600
1.653,-0.755,-0.630
1.656,-0.755,-0.665
1.658,-0.735,-0.700
1.661,-0.720,-0.695
1.664,-0.720,-0.710
1.667,-0.710,-0.685
1.669,-0.710,-0.635
1.672,-0.700,-0.585
1.675,-0.705,-0.535
1.678,-0.720,-0.525
1.681,-0.750,-0.535
1.683,-0.770,-0.525
1.686,-0.805,-0.570
1.689,-0.815,-0.575
1.692,-0.785,-0.610
1.694,-0.715,-0.590
1.697,-0.670,-0.585
1.700,-0.630,-0.565
1.703,-0.655,-0.545
1.706,-0.685,-0.485
1.708,-0.720,-0.445
1.711,-0.715,-0.410
1.714,-0.700,-0.385
1.717,-0.745,-0.400
1.719,-0.820,-0.435
1.722,-0.895,-0.470
1.725,-0.925,-0.490
1.728,-0.910,-0.510
1.731,-0.885,-0.545
1.733,-0.865,-0.565
1.736,-0.835,-0.590
1.739,-0.845,-0.605
1.742,-0.880,-0.610
1.744,-0.895,-0.615
1.747,-0.905,-0.610
1.750,-0.925,-0.605
1.753,-0.935,-0.595
1.756,-0.965,-0.580
1.758,-0.975,-0.575
1.761,-0.980,-0.590
1.764,-0.985,-0.605
1.767,-0.990,-0.640
1.769,-0.965,-0.665
1.772,-0.935,-0.645
1.775,-0.905,-0.655
1.778,-0.895,-0.635
1.781,-0.925,-0.620
1.783,-0.960,-0.620
1.786,-0.990,-0.620
1.789,-1.030,-0.610
1.792,-1.025,-0.620
1.794,-1.000,-0.640
1.797,-0.975,-0.655
1.800,-0.975,-0.665
1.803,-0.995,-0.675
1.806,-1.000,-0.655
1.808,-0.975,-0.620
1.811,-0.935,-0.595
1.814,-0.940,-0.575
1.817,-0.925,-0.585
1.819,-0.955,-0.615
1.822,-0.990,-0.625
1.825,-1.010,-0.635
1.828,-1.015,-0.650
1.831,-1.005,-0.675
1.833,-1.025,-0.720
1.836,-1.035,-0.800
1.839,-1.015,-0.900
1.842,-0.915,-1.025
1.844,-0.765,-1.185
1.847,-0.610,-1.370
1.850,-0.455,-1.550
1.853,-0.350,-1.705
1.856,-0.325,-1.770
1.858,-0.355,-1.720
1.861,-0.400,-1.570
1.864,-0.370,-1.370
1.867,-0.230,-1.155
1.869,-0.005,-0.970
1.872,0.245,-0.755
1.875,0.420,-0.505
1.878,0.435,-0.200
1.881,0.260,0.090
1.883,-0.100,0.325
1.886,-0.535,0.435
1.889,-0.975,0.420
1.892,-1.335,0.285
1.894,-1.605,0.050
1.897,-1.770,-0.165
1.900,-1.865,-0.330
1.903,-1.900,-0.410
1.906,-1.930,-0.490
1.908,-1.945,-0.525
1.911,-1.985,-0.590
1.914,-2.045,-0.655
1.917,-2.085,-0.725
1.919,-2.120,-0.765
1.922,-2.110,-0.800
1.925,-2.085,-0.795
1.928,-2.090,-0.775
1.931,-2.085,-0.760
1.933,-2.065,-0.770
1.936,-2.020,-0.765
1.939,-1.970,-0.785
1.942,-1.905,-0.780
1.944,-1.830,-0.765
1.947,-1.755,-0.765
1.950,-1.660,-0.720
1.953,-1.530,-0.670
1.956,-1.400,-0.630
1.958,-1.285,-0.595
1.961,-1.185,-0.575
1.964,-1.120,-0.560
1.967,-1.110,-0.585
1.969,-1.115,-0.585
1.972,-1.130,-0.595
1.975,-1.150,-0.535
1.978,-1.125,-0.505
1.981,-1.105,-0.465
1.983,-1.060,-0.430
1.986,-1.015,-0.420
1.989,-1.010,-0.445
1.992,-0.990,-0.485
1.994,-0.970,-0.530
1.997,-0.980,-0.525
2.000,-1.040,-0.540
2.003,-1.125,-0.540
2.006,-1.180,-0.530
2.008,-1.200,-0.500
2.011,-1.145,-0.485
2.014,-1.085,-0.490
2.017,-1.025,-0.505
2.019,-0.995,-0.530
2.022,-0.955,-0.580
2.025,-0.955,-0.600
2.028,-0.975,-0.640
2.031,-1.005,-0.650
2.033,-1.080,-0.655
2.036,-1.150,-0.645
2.039,-1.185,-0.645
2.042,-1.175,-0.665
2.044,-1.160,-0.670
2.047,-1.145,-0.685
2.050,-1.155,-0.720
2.053,-1.155,-0.740
2.056,-1.160,-0.755
2.058,-1.160,-0.775
2.061,-1.205,-0.795
2.064,-1.240,-0.810
2.067,-1.285,-0.815
2.069,-1.305,-0.825
2.072,-1.305,-0.825
2.075,-1.295,-0.805
2.078,-1.270,-0.815
2.081,-1.240,-0.815
2.083,-1.220,-0.840
2.086,-1.200,-0.860
2.089,-1.195,-0.885
2.092,-1.225,-0.875
2.094,-1.265,-0.885
2.097,-1.285,-0.870
2.100,-1.320,-0.860
2.103,-1.340,-0.880
2.106,-1.360,-0.895
2.108,-1.360,-0.910
2.111,-1.355,-0.925
2.114,-1.305,-0.940
2.117,-1.240,-0.940
2.119,-1.210,-0.965
2.122,-1.210,-0.940
2.125,-1.200,-0.970
2.128,-1.230,-0.975
2.131,-1.265,-0.980
2.133,-1.290,-0.985
2.136,-1.315,-0.990
2.139,-1.335,-0.985
2.142,-1.320,-0.965
2.144,-1.310,-0.945
2.147,-1.275,-0.910
2.150,-1.245,-0.880
2.153,-1.200,-0.875
2.156,-1.170,-0.870
2.158,-1.165,-0.860
2.161,-1.125,-0.865
2.164,-1.125,-0.865
2.167,-1.095,-0.870
2.169,-1.065,-0.850
2.172,-1.055,-0.815
2.175,-1.035,-0.770
2.178,-1.020,-0.765
2.181,-1.015,-0.730
2.183,-1.065,-0.695
2.186,-1.130,-0.700
2.189,-1.160,-0.680
2.192,-1.070,-0.685
2.194,-0.975,-0.680
2.197,-0.885,-0.720
2.200,-0.840,-0.730
2.203,-0.845,-0.745
2.206,-0.865,-0.720
2.208,-0.920,-0.675
2.211,-0.945,-0.620
2.214,-0.950,-0.590
2.217,-0.935,-0.565
2.219,-0.935,-0.570
2.222,-0.955,-0.595
2.225,-0.970,-0.600
2.228,-0.965,-0.605
2.231,-0.950,-0.625
2.233,-0.930,-0.615
2.236,-0.935,-0.610
2.239,-0.940,-0.585
2.242,-0.965,-0.565
2.244,-0.945,-0.540
2.247,-0.965,-0.535
2.250,-0.970,-0.530
2.253,-0.975,-0.520
2.256,-0.960,-0.510
2.258,-0.990,-0.510
2.261,-1.030,-0.495
2.264,-1.080,-0.495
2.267,-1.030,-0.485
2.269,-0.950,-0.505
2.272,-0.865,-0.510
2.275,-0.815,-0.550
2.278,-0.815,-0.575
2.281,-0.835,-0.580
2.283,-0.900,-0.550
2.286,-0.960,-0.525
2.289,-1.015,-0.510
2.292,-1.040,-0.485
2.294,-1.055,-0.495
2.297,-1.020,-0.535
2.300,-1.005,-0.545
2.303,-0.995,-0.565
2.306,-1.005,-0.555
2.308,-1.020,-0.515
2.311,-1.045,-0.500
2.314,-1.035,-0.505
2.317,-1.010,-0.505
2.319,-0.950,-0.525
2.322,-0.925,-0.540
2.325,-0.915,-0.555
2.328,-0.925,-0.540
2.331,-0.950,-0.525
2.333,-0.970,-0.515
2.336,-1.015,-0.485
2.339,-1.025,-0.485
2.342,-0.995,-0.490
2.344,-0.950,-0.515
2.347,-0.905,-0.510
2.350,-0.895,-0.515
2.353,-0.925,-0.520
2.356,-0.940,-0.535
2.358,-0.955,-0.525
2.361,-0.970,-0.515
2.364,-0.975,-0.510
2.367,-0.990,-0.515
2.369,-1.005,-0.515
2.372,-1.025,-0.500
2.375,-1.045,-0.495
2.378,-1.025,-0.490
2.381,-0.990,-0.505
2.383,-0.960,-0.505
2.386,-0.945,-0.510
2.389,-0.915,-0.515
2.392,-0.915,-0.520
2.394,-0.905,-0.495
2.397,-0.910,-0.465
2.400,-0.915,-0.470
2.403,-0.940,-0.470
2.406,-0.935,-0.455
2.408,-0.935,-0.445
2.411,-0.970,-0.445
2.414,-0.985,-0.475
2.417,-0.985,-0.475
2.419,-0.950,-0.500
2.422,-0.900,-0.505
2.425,-0.835,-0.515
2.428,-0.780,-0.505
2.431,-0.775,-0.520
2.433,-0.795,-0.505
2.436,-0.850,-0.510
2.439,-0.910,-0.485
2.442,-0.955,-0.450
2.444,-0.965,-0.460
2.447,-0.945,-0.435
2.450,-0.935,-0.440
2.453,-0.910,-0.445
2.456,-0.915,-0.465
2.458,-0.925,-0.470
2.461,-0.950,-0.470
2.464,-0.955,-0.455
2.467,-0.945,-0.450
2.469,-0.935,-0.455
2.472,-0.900,-0.455
2.475,-0.900,-0.455
2.478,-0.855,-0.455
2.481,-0.835,-0.455
2.483,-0.850,-0.455
2.486,-0.870,-0.470
2.489,-0.865,-0.455
2.492,-0.850,-0.470
2.494,-0.800,-0.495
2.497,-0.795,-0.525
2.500,-0.790,-0.530
2.503,-0.765,-0.535
2.506,-0.745,-0.550
2.508,-0.745,-0.535
2.511,-0.745,-0.500
2.514,-0.760,-0.485
2.517,-0.760,-0.475
2.519,-0.730,-0.440
2.522,-0.715,-0.445
2.525,-0.715,-0.420
2.528,-0.740,-0.415
2.531,-0.760,-0.410
2.533,-0.805,-0.425
2.536,-0.840,-0.440
2.539,-0.875,-0.450
2.542,-0.855,-0.440
2.544,-0.820,-0.440
2.547,-0.750,-0.420
2.550,-0.700,-0.395
2.553,-0.660,-0.375
2.556,-0.625,-0.350
2.558,-0.640,-0.330
2.561,-0.695,-0.325
2.564,-0.775,-0.305
2.567,-0.910,-0.295
2.569,-0.960,-0.325
2.572,-0.960,-0.340
2.575,-0.930,-0.400
2.578,-0.895,-0.440
2.581,-0.855,-0.455
2.583,-0.860,-0.455
2.586,-0.870,-0.450
2.589,-0.895,-0.425
2.592,-0.890,-0.410
2.594,-0.915,-0.415
2.597,-0.965,-0.400
2.600,-1.030,-0.420
2.603,-1.085,-0.425
2.606,-1.070,-0.440
2.608,-1.050,-0.435
2.611,-1.030,-0.440
2.614,-1.005,-0.455
2.617,-0.980,-0.435
2.619,-0.965,-0.430
2.622,-0.955,-0.425
2.625,-0.950,-0.420
2.628,-0.940,-0.450
2.631,-0.920,-0.450
2.633,-0.870,-0.475
2.636,-0.845,-0.480
2.639,-0.860,-0.470
2.642,-0.870,-0.445
2.644,-0.895,-0.435
2.647,-0.900,-0.420
2.650,-0.905,-0.430
2.653,-0.900,-0.445
2.656,-0.940,-0.500
2.658,-0.935,-0.525
2.661,-0.925,-0.550
2.664,-0.935,-0.565
2.667,-0.935,-0.565
2.669,-0.975,-0.540
2.672,-1.015,-0.530
2.675,-1.030,-0.520
2.678,-1.050,-0.565
2.681,-1.050,-0.600
2.683,-1.015,-0.685
2.686,-0.940,-0.780
2.689,-0.840,-0.885
2.692,-0.725,-1.000
2.694,-0.595,-1.120
2.697,-0.460,-1.215
2.700,-0.320,-1.320
2.703,-0.220,-1.360
2.706,-0.185,-1.340
2.708,-0.190,-1.250
2.711,-0.215,-1.130
2.714,-0.190,-0.990
2.717,-0.140,-0.835
2.719,0.010,-0.705
2.722,0.175,-0.525
2.725,0.290,-0.280
2.728,0.295,0.040
2.731,0.135,0.370
2.733,-0.175,0.625
2.736,-0.605,0.740
2.739,-1.035,0.710
2.742,-1.415,0.520
2.744,-1.670,0.255
2.747,-1.845,-0.030
2.750,-1.940,-0.235
2.753,-1.985,-0.375
2.756,-2.015,-0.435
2.758,-2.020,-0.480
2.761,-2.010,-0.520
2.764,-2.020,-0.555
2.767,-2.050,-0.590
2.769,-2.090,-0.630
2.772,-2.115,-0.640
2.775,-2.135,-0.635
2.778,-2.145,-0.615
2.781,-2.150,-0.585
2.783,-2.130,-0.580
2.786,-2.095,-0.580
2.789,-1.990,-0.600
2.792,-1.875,-0.650
2.794,-1.760,-0.660
2.797,-1.620,-0.665
2.800,-1.465,-0.645
2.803,-1.355,-0.580
2.806,-1.235,-0.495
2.808,-1.175,-0.430
2.811,-1.135,-0.365
2.814,-1.140,-0.330
2.817,-1.125,-0.335
2.819,-1.115,-0.350
2.822,-1.090,-0.395
2.825,-1.055,-0.435
2.828,-1.040,-0.445
2.831,-1.025,-0.420
2.833,-1.070,-0.370
2.836,-1.125,-0.300
2.839,-1.160,-0.265
2.842,-1.120,-0.260
2.844,-1.070,-0.285
2.847,-1.030,-0.340
2.850,-1.030,-0.395
2.853,-1.025,-0.435
2.856,-1.050,-0.450
2.858,-1.075,-0.460
2.861,-1.095,-0.460
2.864,-1.110,-0.470
2.867,-1.125,-0.460
2.869,-1.115,-0.480
2.872,-1.120,-0.470
2.875,-1.115,-0.485
2.878,-1.125,-0.465
2.881,-1.140,-0.500
2.883,-1.140,-0.525
2.886,-1.140,-0.555
2.889,-1.150,-0.595
2.892,-1.165,-0.605
2.894,-1.185,-0.645
2.897,-1.190,-0.635
2.900,-1.210,-0.635
2.903,-1.210,-0.630
2.906,-1.225,-0.605
2.908,-1.220,-0.610
2.911,-1.230,-0.630
2.914,-1.245,-0.645
2.917,-1.250,-0.670
2.919,-1.265,-0.705
2.922,-1.285,-0.755
2.925,-1.295,-0.765
2.928,-1.300,-0.780
2.931,-1.320,-0.780
2.933,-1.320,-0.785
2.936,-1.315,-0.790
2.939,-1.295,-0.765
2.942,-1.295,-0.770
2.944,-1.315,-0.775
2.947,-1.345,-0.800
2.950,-1.365,-0.795
2.953,-1.390,-0.805
2.956,-1.365,-0.825
2.958,-1.330,-0.830
2.961,-1.310,-0.845
2.964,-1.305,-0.860
2.967,-1.300,-0.875
2.969,-1.310,-0.875
2.972,-1.315,-0.860
2.975,-1.310,-0.840
2.978,-1.315,-0.830
2.981,-1.300,-0.815
2.983,-1.280,-0.800
2.986,-1.250,-0.800
2.989,-1.230,-0.775
2.992,-1.215,-0.765
2.994,-1.195,-0.760
2.997,-1.205,-0.755
3.000,-1.200,-0.755
3.003,-1.190,-0.745
3.006,-1.170,-0.735
3.008,-1.145,-0.720
3.011,-1.110,-0.685
3.014,-1.090,-0.680
3.017,-1.075,-0.660
3.019,-1.045,-0.640
3.022,-1.015,-0.620
3.025,-1.000,-0.600
3.028,-1.000,-0.580
3.031,-1.020,-0.540
3.033,-1.045,-0.510
3.036,-1.045,-0.485
3.039,-1.010,-0.495
3.042,-0.990,-0.475
3.044,-0.965,-0.460
3.047,-0.950,-0.445
3.050,-0.945,-0.450
3.053,-0.945,-0.455
3.056,-0.940,-0.460
3.058,-0.945,-0.470
3.061,-0.945,-0.480
3.064,-0.970,-0.475
3.067,-0.960,-0.465
3.069,-0.950,-0.420
3.072,-0.955,-0.380
3.075,-0.945,-0.370
3.078,-0.950,-0.355
3.081,-0.975,-0.340
3.083,-0.970,-0.370
3.086,-0.960,-0.370
3.089,-0.970,-0.385
3.092,-0.975,-0.400
3.094,-0.965,-0.410
3.097,-0.980,-0.420
3.100,-0.965,-0.420
3.103,-0.975,-0.425
3.106,-0.970,-0.425
3.108,-0.965,-0.435
3.111,-0.970,-0.435
3.114,-0.990,-0.420
3.117,-1.000,-0.440
3.119,-1.015,-0.440
3.122,-1.005,-0.470
3.125,-1.015,-0.480
3.128,-1.020,-0.465
3.131,-1.025,-0.455
3.133,-1.015,-0.420
3.136,-1.005,-0.415
3.139,-1.000,-0.385
3.142,-0.995,-0.385
3.144,-0.990,-0.400
3.147,-0.985,-0.385
3.150,-0.975,-0.400
3.153,-0.975,-0.390
3.156,-1.000,-0.425
3.158,-1.015,-0.435
3.161,-0.990,-0.455
3.164,-0.980,-0.450
3.167,-0.960,-0.465
3.169,-0.970,-0.440
3.172,-1.005,-0.430
3.175,-1.020,-0.440
3.178,-1.030,-0.435
3.181,-1.050,-0.450
3.183,-1.040,-0.465
3.186,-1.025,-0.470
3.189,-1.045,-0.475
3.192,-1.045,-0.470
3.194,-1.045,-0.470
3.197,-1.050,-0.470
3.200,-1.035,-0.465
3.203,-1.055,-0.475
3.206,-1.045,-0.450
3.208,-1.040,-0.455
3.211,-1.035,-0.435
3.214,-1.015,-0.425
3.217,-1.025,-0.440
3.219,-1.010,-0.430
3.222,-1.020,-0.425
3.225,-1.010,-0.440
3.228,-1.020,-0.460
3.231,-0.995,-0.475
3.233,-0.995,-0.470
3.236,-0.990,-0.470
3.239,-0.985,-0.435
3.242,-1.000,-0.455
3.244,-1.030,-0.430
3.247,-1.035,-0.425
3.250,-1.045,-0.435
3.253,-1.065,-0.470
3.256,-1.080,-0.480
3.258,-1.090,-0.485
3.261,-1.095,-0.505
3.264,-1.080,-0.515
3.267,-1.055,-0.520
3.269,-1.045,-0.500
3.272,-1.040,-0.475
3.275,-1.050,-0.465
3.278,-1.040,-0.455
3.281,-1.050,-0.470
3.283,-1.055,-0.480
3.286,-1.035,-0.495
3.289,-1.025,-0.500
3.292,-1.020,-0.500
3.294,-0.995,-0.515
3.297,-0.985,-0.490
3.300,-0.960,-0.470
3.303,-0.950,-0.430
3.306,-0.950,-0.400
3.308,-0.960,-0.405
3.311,-0.950,-0.410
3.314,-0.965,-0.410
3.317,-0.985,-0.425
3.319,-0.980,-0.445
3.322,-0.965,-0.465
3.325,-0.945,-0.500
3.328,-0.960,-0.505
3.331,-0.955,-0.515
3.333,-0.950,-0.525
3.336,-0.960,-0.520
3.339,-0.950,-0.515
3.342,-0.935,-0.515
3.344,-0.910,-0.500
3.347,-0.860,-0.510
3.350,-0.825,-0.500
3.353,-0.800,-0.500
3.356,-0.795,-0.480
3.358,-0.785,-0.435
3.361,-0.810,-0.395
3.364,-0.835,-0.365
3.367,-0.855,-0.370
3.369,-0.885,-0.355
3.372,-0.895,-0.405
3.375,-0.905,-0.420
3.378,-0.900,-0.460
3.381,-0.875,-0.460
3.383,-0.840,-0.450
3.386,-0.805,-0.400
3.389,-0.805,-0.345
3.392,-0.790,-0.335
3.394,-0.805,-0.290
3.397,-0.810,-0.270
3.400,-0.840,-0.260
3.403,-0.855,-0.270
3.406,-0.870,-0.295
3.408,-0.895,-0.320
3.411,-0.915,-0.355
3.414,-0.935,-0.360
3.417,-0.950,-0.385
3.419,-0.960,-0.385
3.422,-0.970,-0.405
3.425,-0.965,-0.405
3.428,-0.975,-0.415
3.431,-0.965,-0.420
3.433,-0.970,-0.450
3.436,-0.975,-0.430
3.439,-0.985,-0.445
3.442,-0.995,-0.440
3.444,-1.010,-0.440
3.447,-1.000,-0.430
3.450,-0.995,-0.455
3.453,-1.005,-0.450
3.456,-1.025,-0.445
3.458,-1.045,-0.460
3.461,-1.055,-0.425
3.464,-1.065,-0.450
3.467,-1.065,-0.475
3.469,-1.075,-0.475
3.472,-1.075,-0.490
3.475,-1.060,-0.475
3.478,-1.060,-0.465
3.481,-1.060,-0.455
3.483,-1.050,-0.505
3.486,-1.045,-0.495
3.489,-1.060,-0.530
3.492,-1.065,-0.540
3.494,-1.105,-0.535
3.497,-1.125,-0.545
3.500,-1.165,-0.555
3.503,-1.175,-0.550
3.506,-1.165,-0.555
3.508,-1.130,-0.565
3.511,-1.095,-0.565
3.514,-1.090,-0.550
3.517,-1.075,-0.535
3.519,-1.080,-0.545
3.522,-1.055,-0.590
3.525,-1.060,-0.645
3.528,-1.000,-0.740
3.531,-0.910,-0.840
3.533,-0.805,-0.970
3.536,-0.660,-1.100
3.539,-0.515,-1.205
3.542,-0.360,-1.315
3.544,-0.240,-1.375
3.547,-0.185,-1.415
3.550,-0.190,-1.355
3.553,-0.205,-1.250
3.556,-0.200,-1.110
3.558,-0.160,-0.970
3.561,-0.065,-0.790
3.564,0.070,-0.635
3.567,0.205,-0.455
3.569,0.280,-0.220
3.572,0.275,0.085
3.575,0.140,0.370
3.578,-0.120,0.615
3.581,-0.495,0.730
3.583,-0.905,0.690
3.586,-1.280,0.515
3.589,-1.575,0.240
3.592,-1.765,-0.040
3.594,-1.865,-0.270
3.597,-1.905,-0.395
3.600,-1.940,-0.460
3.603,-1.970,-0.490
3.606,-2.000,-0.540
3.608,-2.030,-0.580
3.611,-2.045,-0.630
3.614,-2.050,-0.660
3.617,-2.060,-0.670
3.619,-2.085,-0.665
3.622,-2.085,-0.675
3.625,-2.095,-0.640
3.628,-2.075,-0.625
3.631,-2.045,-0.630
3.633,-2.025,-0.645
3.636,-1.975,-0.675
3.639,-1.895,-0.670
3.642,-1.785,-0.675
3.644,-1.650,-0.660
3.647,-1.505,-0.625
3.650,-1.355,-0.585
3.653,-1.245,-0.505
3.656,-1.150,-0.460
3.658,-1.085,-0.415
3.661,-1.065,-0.385
3.664,-1.090,-0.370
3.667,-1.080,-0.395
3.669,-1.095,-0.385
3.672,-1.090,-0.385
3.675,-1.055,-0.390
3.678,-1.025,-0.365
3.681,-1.005,-0.345
3.683,-0.990,-0.350
3.686,-0.980,-0.350
3.689,-0.980,-0.370
3.692,-0.995,-0.380
3.694,-1.010,-0.390
3.697,-1.030,-0.400
3.700,-1.030,-0.400
3.703,-1.040,-0.400
3.706,-1.040,-0.385
3.708,-1.030,-0.395
3.711,-1.025,-0.390
3.714,-1.015,-0.400
3.717,-1.030,-0.415
3.719,-1.040,-0.435
3.722,-1.065,-0.465
3.725,-1.075,-0.490
3.728,-1.100,-0.495
3.731,-1.105,-0.510
3.733,-1.095,-0.535
3.736,-1.100,-0.530
3.739,-1.115,-0.550
3.742,-1.115,-0.560
3.744,-1.125,-0.565
3.747,-1.130,-0.590
3.750,-1.110,-0.590
3.753,-1.130,-0.605
3.756,-1.155,-0.630
3.758,-1.170,-0.665
3.761,-1.205,-0.675
3.764,-1.215,-0.685
3.767,-1.230,-0.715
3.769,-1.240,-0.730
3.772,-1.240,-0.740
3.775,-1.235,-0.740
3.778,-1.245,-0.740
3.781,-1.235,-0.745
3.783,-1.250,-0.735
3.786,-1.260,-0.750
3.789,-1.250,-0.775
3.792,-1.270,-0.805
3.794,-1.270,-0.815
3.797,-1.290,-0.825
3.800,-1.305,-0.855
3.803,-1.310,-0.845
3.806,-1.325,-0.845
3.808,-1.320,-0.850
3.811,-1.310,-0.850
3.814,-1.300,-0.845
3.817,-1.285,-0.855
3.819,-1.270,-0.865
3.822,-1.275,-0.860
3.825,-1.270,-0.880
3.828,-1.265,-0.865
3.831,-1.270,-0.870
3.833,-1.250,-0.865
3.836,-1.275,-0.860
3.839,-1.235,-0.855
3.842,-1.215,-0.850
3.844,-1.185,-0.825
3.847,-1.160,-0.810
3.850,-1.155,-0.790
3.853,-1.135,-0.775
3.856,-1.130,-0.770
3.858,-1.130,-0.765
3.861,-1.120,-0.750
3.864,-1.095,-0.745
3.867,-1.080,-0.740
3.869,-1.070,-0.710
3.872,-1.055,-0.670
3.875,-1.030,-0.650
3.878,-1.015,-0.625
3.881,-0.990,-0.600
3.883,-0.990,-0.590
3.886,-0.975,-0.615
3.889,-0.950,-0.620
3.892,-0.945,-0.625
3.894,-0.945,-0.605
3.897,-0.940,-0.615
3.900,-0.935,-0.585
3.903,-0.930,-0.560
3.906,-0.925,-0.540
3.908,-0.900,-0.520
3.911,-0.900,-0.520
3.914,-0.875,-0.510
3.917,-0.870,-0.485
3.919,-0.875,-0.490
3.922,-0.870,-0.495
3.925,-0.865,-0.500
3.928,-0.880,-0.495
3.931,-0.885,-0.505
3.933,-0.895,-0.500
3.936,-0.890,-0.495
3.939,-0.890,-0.495
3.942,-0.890,-0.475
3.944,-0.880,-0.470
3.947,-0.880,-0.445
3.950,-0.855,-0.450
3.953,-0.865,-0.455
3.956,-0.855,-0.445
3.958,-0.880,-0.470
3.961,-0.885,-0.470
3.964,-0.880,-0.495
3.967,-0.885,-0.495
3.969,-0.890,-0.500
3.972,-0.885,-0.480
3.975,-0.900,-0.465
3.978,-0.880,-0.455
3.981,-0.870,-0.440
3.983,-0.870,-0.445
3.986,-0.885,-0.445
3.989,-0.875,-0.445
3.992,-0.885,-0.450
3.994,-0.900,-0.455
3.997,-0.905,-0.470
4.000,-0.890,-0.490
4.003,-0.900,-0.480
4.006,-0.905,-0.480
4.008,-0.895,-0.450
4.011,-0.890,-0.440
4.014,-0.890,-0.435
4.017,-0.870,-0.420
4.019,-0.870,-0.430
4.022,-0.890,-0.435
4.025,-0.885,-0.465
4.028,-0.920,-0.480
4.031,-0.910,-0.485
4.033,-0.915,-0.475
4.036,-0.905,-0.485
4.039,-0.920,-0.480
4.042,-0.880,-0.475
4.044,-0.885,-0.465
4.047,-0.860,-0.460
4.050,-0.865,-0.455
4.053,-0.880,-0.455
4.056,-0.870,-0.480
4.058,-0.875,-0.495
4.061,-0.885,-0.495
4.064,-0.890,-0.510
4.067,-0.895,-0.510
4.069,-0.895,-0.500
4.072,-0.890,-0.500
4.075,-0.880,-0.475
4.078,-0.865,-0.475
4.081,-0.855,-0.455
4.083,-0.855,-0.475
4.086,-0.870,-0.485
4.089,-0.885,-0.480
4.092,-0.885,-0.500
4.094,-0.880,-0.500
4.097,-0.880,-0.525
4.100,-0.890,-0.515
4.103,-0.890,-0.510
4.106,-0.875,-0.500
4.108,-0.870,-0.500
4.111,-0.875,-0.485
4.114,-0.850,-0.475
4.117,-0.850,-0.485
4.119,-0.855,-0.480
4.122,-0.850,-0.500
4.125,-0.860,-0.500
4.128,-0.860,-0.505
4.131,-0.870,-0.515
4.133,-0.865,-0.505
4.136,-0.890,-0.535
4.139,-0.875,-0.515
4.142,-0.855,-0.520
4.144,-0.835,-0.480
4.147,-0.835,-0.485
4.150,-0.825,-0.470
4.153,-0.840,-0.465
4.156,-0.840,-0.455
4.158,-0.815,-0.450
4.161,-0.825,-0.470
4.164,-0.825,-0.490
4.167,-0.820,-0.470
4.169,-0.820,-0.495
4.172,-0.795,-0.485
4.175,-0.795,-0.480
4.178,-0.765,-0.505
4.181,-0.750,-0.490
4.183,-0.730,-0.515
4.186,-0.720,-0.535
4.189,-0.730,-0.525
4.192,-0.730,-0.545
4.194,-0.720,-0.550
4.197,-0.705,-0.550
4.200,-0.680,-0.540
4.203,-0.670,-0.540
4.206,-0.655,-0.495
4.208,-0.660,-0.470
4.211,-0.660,-0.445
4.214,-0.650,-0.430
4.217,-0.645,-0.435
4.219,-0.690,-0.460
4.222,-0.700,-0.465
4.225,-0.725,-0.495
4.228,-0.735,-0.505
4.231,-0.725,-0.500
4.233,-0.710,-0.495
4.236,-0.670,-0.455
4.239,-0.645,-0.425
4.242,-0.615,-0.370
4.244,-0.610,-0.330
4.247,-0.605,-0.305
4.250,-0.625,-0.300
4.253,-0.680,-0.335
4.256,-0.710,-0.365
4.258,-0.735,-0.410
4.261,-0.760,-0.480
4.264,-0.780,-0.495
4.267,-0.785,-0.490
4.269,-0.805,-0.475
4.272,-0.820,-0.450
4.275,-0.815,-0.445
4.278,-0.830,-0.445
4.281,-0.825,-0.440
4.283,-0.815,-0.455
4.286,-0.825,-0.480
4.289,-0.855,-0.505
4.292,-0.855,-0.520
4.294,-0.860,-0.515
4.297,-0.860,-0.515
4.300,-0.865,-0.500
4.303,-0.870,-0.470
4.306,-0.875,-0.485
4.308,-0.850,-0.470
4.311,-0.840,-0.485
4.314,-0.845,-0.480
4.317,-0.840,-0.485
4.319,-0.850,-0.490
4.322,-0.845,-0.500
4.325,-0.845,-0.510
4.328,-0.845,-0.525
4.331,-0.850,-0.535
4.333,-0.845,-0.525
4.336,-0.845,-0.535
4.339,-0.840,-0.530
4.342,-0.825,-0.520
4.344,-0.840,-0.515
4.347,-0.825,-0.520
4.350,-0.825,-0.520
4.353,-0.825,-0.535
4.356,-0.835,-0.555
4.358,-0.860,-0.580
4.361,-0.875,-0.605
4.364,-0.895,-0.650
4.367,-0.905,-0.725
4.369,-0.895,-0.770
4.372,-0.840,-0.870
4.375,-0.745,-0.970
4.378,-0.610,-1.105
4.381,-0.455,-1.235
4.383,-0.320,-1.380
4.386,-0.205,-1.480
4.389,-0.185,-1.540
4.392,-0.185,-1.520
4.394,-0.215,-1.425
4.397,-0.260,-1.300
4.400,-0.230,-1.145
4.403,-0.180,-0.980
4.406,-0.045,-0.800
4.408,0.130,-0.585
4.411,0.270,-0.345
4.414,0.345,-0.015
4.417,0.275,0.285
4.419,0.035,0.535
4.422,-0.335,0.650
4.425,-0.730,0.615
4.428,-1.090,0.435
4.431,-1.345,0.190
4.433,-1.510,-0.065
4.436,-1.615,-0.245
4.439,-1.685,-0.380
4.442,-1.720,-0.450
4.444,-1.770,-0.475
4.447,-1.805,-0.515
4.450,-1.830,-0.550
4.453,-1.850,-0.605
4.456,-1.855,-0.645
4.458,-1.865,-0.670
4.461,-1.875,-0.675
4.464,-1.870,-0.685
4.467,-1.870,-0.680
4.469,-1.885,-0.680
4.472,-1.850,-0.670
4.475,-1.805,-0.655
4.478,-1.750,-0.680
4.481,-1.655,-0.695
4.483,-1.500,-0.695
4.486,-1.355,-0.660
4.489,-1.200,-0.635
4.492,-1.065,-0.585
4.494,-0.970,-0.540
4.497,-0.915,-0.520
4.500,-0.880,-0.475
4.503,-0.885,-0.475
4.506,-0.885,-0.465
4.508,-0.860,-0.455
4.511,-0.850,-0.455
4.514,-0.840,-0.465
4.517,-0.815,-0.475
4.519,-0.830,-0.465
4.522,-0.820,-0.490
4.525,-0.835,-0.510
4.528,-0.850,-0.505
4.531,-0.860,-0.515
4.533,-0.860,-0.520
4.536,-0.885,-0.525
4.539,-0.880,-0.520
4.542,-0.895,-0.505
4.544,-0.870,-0.530
4.547,-0.875,-0.515
4.550,-0.865,-0.530
4.553,-0.865,-0.555
4.556,-0.885,-0.565
4.558,-0.905,-0.575
4.561,-0.915,-0.595
4.564,-0.945,-0.620
4.567,-0.965,-0.640
4.569,-0.975,-0.640
4.572,-0.975,-0.650
4.575,-0.990,-0.660
4.578,-0.975,-0.640
4.581,-0.975,-0.655
4.583,-0.975,-0.680
4.586,-0.975,-0.685
4.589,-1.010,-0.700
4.592,-1.020,-0.735
4.594,-1.035,-0.755
4.597,-1.045,-0.770
4.600,-1.070,-0.780
4.603,-1.085,-0.800
4.606,-1.095,-0.800
4.608,-1.115,-0.800
4.611,-1.125,-0.790
4.614,-1.145,-0.800
4.617,-1.160,-0.815
4.619,-1.180,-0.835
4.622,-1.200,-0.830
4.625,-1.225,-0.855
4.628,-1.245,-0.865
4.631,-1.275,-0.875
4.633,-1.280,-0.905
4.636,-1.310,-0.890
4.639,-1.315,-0.885
4.642,-1.310,-0.870
4.644,-1.280,-0.880
4.647,-1.275,-0.855
4.650,-1.235,-0.880
4.653,-1.230,-0.880
4.656,-1.205,-0.890
4.658,-1.185,-0.905
4.661,-1.160,-0.915
4.664,-1.125,-0.925
4.667,-1.100,-0.925
4.669,-1.075,-0.920
4.672,-1.055,-0.910
4.675,-1.020,-0.890
4.678,-1.005,-0.895
4.681,-0.985,-0.865
4.683,-0.945,-0.850
4.686,-0.950,-0.850
4.689,-0.925,-0.840
4.692,-0.910,-0.820
4.694,-0.910,-0.815
4.697,-0.905,-0.805
4.700,-0.885,-0.800
4.703,-0.905,-0.770
4.706,-0.900,-0.750
4.708,-0.880,-0.720
4.711,-0.860,-0.700
4.714,-0.840,-0.685
4.717,-0.840,-0.670
4.719,-0.825,-0.660
4.722,-0.835,-0.640
4.725,-0.825,-0.640
4.728,-0.840,-0.650
4.731,-0.835,-0.650
4.733,-0.840,-0.630
4.736,-0.840,-0.610
4.739,-0.825,-0.595
4.742,-0.820,-0.575
4.744,-0.785,-0.580
4.747,-0.795,-0.565
4.750,-0.780,-0.560
4.753,-0.780,-0.565
4.756,-0.775,-0.550
4.758,-0.765,-0.550
4.761,-0.780,-0.560
4.764,-0.790,-0.560
4.767,-0.810,-0.555
4.769,-0.805,-0.550
4.772,-0.805,-0.560
4.775,-0.805,-0.540
4.778,-0.795,-0.540
4.781,-0.790,-0.525
4.783,-0.770,-0.505
4.786,-0.765,-0.535
4.789,-0.785,-0.530
4.792,-0.795,-0.540
4.794,-0.800,-0.570
4.797,-0.820,-0.570
4.800,-0.825,-0.575
4.803,-0.845,-0.560
4.806,-0.845,-0.575
4.808,-0.845,-0.580
4.811,-0.835,-0.570
4.814,-0.825,-0.560
4.817,-0.825,-0.565
4.819,-0.825,-0.570
4.822,-0.825,-0.580
4.825,-0.835,-0.580
4.828,-0.860,-0.595
4.831,-0.855,-0.620
4.833,-0.855,-0.625
4.836,-0.885,-0.625
4.839,-0.870,-0.610
4.842,-0.865,-0.600
4.844,-0.860,-0.615
4.847,-0.855,-0.625
4.850,-0.865,-0.625
4.853,-0.855,-0.630
4.856,-0.875,-0.635
4.858,-0.860,-0.640
4.861,-0.855,-0.655
4.864,-0.855,-0.655
4.867,-0.855,-0.670
4.869,-0.865,-0.660
4.872,-0.855,-0.670
4.875,-0.840,-0.635
4.878,-0.845,-0.650
4.881,-0.840,-0.645
4.883,-0.835,-0.650
4.886,-0.835,-0.655
4.889,-0.830,-0.640
4.892,-0.845,-0.665
4.894,-0.865,-0.665
4.897,-0.865,-0.680
4.900,-0.870,-0.675
4.903,-0.875,-0.680
4.906,-0.870,-0.685
4.908,-0.855,-0.665
4.911,-0.845,-0.660
4.914,-0.820,-0.620
4.917,-0.815,-0.615
4.919,-0.830,-0.630
4.922,-0.835,-0.645
4.925,-0.840,-0.650
4.928,-0.855,-0.650
4.931,-0.860,-0.680
4.933,-0.855,-0.665
4.936,-0.865,-0.675
4.939,-0.845,-0.670
4.942,-0.850,-0.655
4.944,-0.835,-0.630
4.947,-0.855,-0.645
4.950,-0.815,-0.630
4.953,-0.835,-0.630
4.956,-0.825,-0.650
4.958,-0.835,-0.690
4.961,-0.835,-0.710
4.964,-0.840,-0.725
4.967,-0.840,-0.725
4.969,-0.835,-0.710
4.972,-0.815,-0.710
4.975,-0.800,-0.685
4.978,-0.785,-0.675
4.981,-0.775,-0.680
4.983,-0.760,-0.675
4.986,-0.765,-0.700
4.989,-0.740,-0.720
4.992,-0.750,-0.735
4.994,-0.750,-0.765
4.997,-0.740,-0.765
5.000,-0.740,-0.775
5.003,-0.725,-0.750
5.006,-0.705,-0.720
5.008,-0.670,-0.695
5.011,-0.650,-0.685
5.014,-0.630,-0.670
5.017,-0.625,-0.655
5.019,-0.645,-0.655
5.022,-0.660,-0.670
5.025,-0.690,-0.680
5.028,-0.715,-0.695
5.031,-0.730,-0.715
5.033,-0.750,-0.715
5.036,-0.750,-0.705
5.039,-0.720,-0.715
5.042,-0.680,-0.685
5.044,-0.650,-0.655
5.047,-0.630,-0.595
5.050,-0.620,-0.580
5.053,-0.640,-0.560
5.056,-0.675,-0.540
5.058,-0.710,-0.575
5.061,-0.760,-0.600
5.064,-0.795,-0.630
5.067,-0.825,-0.655
5.069,-0.840,-0.685
5.072,-0.830,-0.660
5.075,-0.835,-0.660
5.078,-0.825,-0.640
5.081,-0.840,-0.640
5.083,-0.830,-0.635
5.086,-0.865,-0.660
5.089,-0.865,-0.685
5.092,-0.900,-0.705
5.094,-0.900,-0.725
5.097,-0.920,-0.720
5.100,-0.905,-0.755
5.103,-0.910,-0.760
5.106,-0.910,-0.770
5.108,-0.915,-0.745
5.111,-0.895,-0.755
5.114,-0.870,-0.735
5.117,-0.870,-0.740
5.119,-0.865,-0.740
5.122,-0.870,-0.735
5.125,-0.885,-0.755
5.128,-0.900,-0.745
5.131,-0.915,-0.760
5.133,-0.910,-0.770
5.136,-0.925,-0.770
5.139,-0.935,-0.755
5.142,-0.930,-0.765
5.144,-0.925,-0.730
5.147,-0.915,-0.750
5.150,-0.905,-0.740
5.153,-0.885,-0.765
5.156,-0.890,-0.765
5.158,-0.900,-0.765
5.161,-0.890,-0.780
5.164,-0.885,-0.780
5.167,-0.910,-0.800
5.169,-0.935,-0.795
5.172,-0.940,-0.805
5.175,-0.940,-0.815
5.178,-0.920,-0.835
5.181,-0.900,-0.895
5.183,-0.845,-0.970
5.186,-0.765,-1.080
5.189,-0.650,-1.185
5.192,-0.520,-1.310
5.194,-0.395,-1.415
5.197,-0.245,-1.515
5.200,-0.145,-1.590
5.203,-0.110,-1.620
5.206,-0.135,-1.560
5.208,-0.160,-1.435
5.211,-0.150,-1.295
5.214,-0.090,-1.155
5.217,0.035,-1.025
5.219,0.180,-0.885
5.222,0.335,-0.685
5.225,0.405,-0.455
5.228,0.355,-0.145
5.231,0.145,0.140
5.233,-0.220,0.330
5.236,-0.665,0.400
5.239,-1.110,0.295
5.242,-1.455,0.055
5.244,-1.685,-0.220
5.247,-1.805,-0.460
5.250,-1.890,-0.640
5.253,-1.915,-0.755
5.256,-1.965,-0.825
5.258,-2.000,-0.880
5.261,-2.025,-0.920
5.264,-2.050,-0.955
5.267,-2.055,-0.980
5.269,-2.055,-1.010
5.272,-2.060,-1.000
5.275,-2.040,-0.985
5.278,-2.025,-0.950
5.281,-2.010,-0.940
5.283,-1.980,-0.935
5.286,-1.940,-0.955
5.289,-1.880,-0.975
5.292,-1.780,-1.000
5.294,-1.665,-1.010
5.297,-1.505,-0.985
5.300,-1.360,-0.930
5.303,-1.240,-0.850
5.306,-1.130,-0.760
5.308,-1.045,-0.690
5.311,-0.995,-0.630
5.314,-0.980,-0.600
5.317,-0.970,-0.585
5.319,-0.975,-0.595
5.322,-0.965,-0.605
5.325,-0.955,-0.625
5.328,-0.945,-0.650
5.331,-0.950,-0.675
5.333,-0.950,-0.665
5.336,-0.945,-0.660
5.339,-0.930,-0.655
5.342,-0.935,-0.635
5.344,-0.935,-0.620
5.347,-0.940,-0.610
5.350,-0.935,-0.600
5.353,-0.955,-0.625
5.356,-0.945,-0.645
5.358,-0.940,-0.650
5.361,-0.960,-0.670
5.364,-0.985,-0.685
5.367,-0.980,-0.695
5.369,-0.985,-0.685
5.372,-0.985,-0.675
5.375,-0.985,-0.670
5.378,-1.005,-0.675
5.381,-1.000,-0.680
5.383,-1.005,-0.720
5.386,-1.015,-0.760
5.389,-1.000,-0.790
5.392,-1.030,-0.820
5.394,-1.040,-0.870
5.397,-1.055,-0.875
5.400,-1.075,-0.875
5.403,-1.080,-0.895
5.406,-1.100,-0.910
5.408,-1.095,-0.915
5.411,-1.105,-0.930
5.414,-1.095,-0.945
5.417,-1.095,-0.980
5.419,-1.110,-0.985
5.422,-1.140,-1.020
5.425,-1.140,-1.030
5.428,-1.165,-1.035
5.431,-1.190,-1.045
5.433,-1.205,-1.045
5.436,-1.195,-1.035
5.439,-1.200,-1.045
5.442,-1.190,-1.035
5.444,-1.180,-1.040
5.447,-1.185,-1.025
5.450,-1.165,-1.030
5.453,-1.180,-1.010
5.456,-1.185,-1.010
5.458,-1.180,-1.020
5.461,-1.180,-1.040
5.464,-1.190,-1.045
5.467,-1.200,-1.040
5.469,-1.220,-1.040
5.472,-1.195,-1.020
5.475,-1.175,-1.030
5.478,-1.160,-1.015
5.481,-1.135,-1.000
5.483,-1.135,-0.985
5.486,-1.105,-0.985
5.489,-1.100,-0.975
5.492,-1.080,-0.965
5.494,-1.080,-0.960
5.497,-1.065,-0.950
5.500,-1.065,-0.940
5.503,-1.045,-0.900
5.506,-1.025,-0.910
5.508,-1.005,-0.890
5.511,-0.980,-0.875
5.514,-0.950,-0.840
5.517,-0.925,-0.820
5.519,-0.930,-0.805
5.522,-0.930,-0.775
5.525,-0.915,-0.770
5.528,-0.900,-0.750
5.531,-0.895,-0.740
5.533,-0.870,-0.700
5.536,-0.870,-0.690
5.539,-0.865,-0.660
5.542,-0.855,-0.670
5.544,-0.855,-0.645
5.547,-0.845,-0.620
5.550,-0.835,-0.610
5.553,-0.825,-0.600
5.556,-0.825,-0.605
5.558,-0.825,-0.620
5.561,-0.820,-0.625
5.564,-0.830,-0.640
5.567,-0.825,-0.635
5.569,-0.845,-0.630
5.572,-0.845,-0.610
5.575,-0.825,-0.600
5.578,-0.830,-0.580
5.581,-0.825,-0.585
5.583,-0.820,-0.570
5.586,-0.820,-0.580
5.589,-0.805,-0.575
5.592,-0.810,-0.590
5.594,-0.840,-0.605
5.597,-0.810,-0.600
5.600,-0.820,-0.600
5.603,-0.830,-0.575
5.606,-0.840,-0.560
5.608,-0.850,-0.565
5.611,-0.850,-0.560
5.614,-0.830,-0.570
5.617,-0.835,-0.580
5.619,-0.810,-0.585
5.622,-0.815,-0.590
5.625,-0.810,-0.600
5.628,-0.820,-0.590
5.631,-0.835,-0.610
5.633,-0.855,-0.605
5.636,-0.840,-0.575
5.639,-0.850,-0.590
5.642,-0.855,-0.575
5.644,-0.855,-0.540
5.647,-0.850,-0.545
5.650,-0.835,-0.550
5.653,-0.845,-0.565
5.656,-0.850,-0.580
5.658,-0.835,-0.585
5.661,-0.860,-0.590
5.664,-0.875,-0.590
5.667,-0.860,-0.600
5.669,-0.855,-0.570
5.672,-0.855,-0.555
5.675,-0.840,-0.555
5.678,-0.830,-0.545
5.681,-0.835,-0.535
5.683,-0.820,-0.555
5.686,-0.825,-0.545
5.689,-0.840,-0.580
5.692,-0.840,-0.580
5.694,-0.845,-0.600
5.697,-0.845,-0.610
5.700,-0.840,-0.610
5.703,-0.835,-0.595
5.706,-0.845,-0.600
5.708,-0.815,-0.605
5.711,-0.820,-0.585
5.714,-0.810,-0.565
5.717,-0.805,-0.575
5.719,-0.820,-0.575
5.722,-0.810,-0.565
5.725,-0.820,-0.585
5.728,-0.825,-0.595
5.731,-0.830,-0.605
5.733,-0.830,-0.615
5.736,-0.825,-0.605
5.739,-0.820,-0.605
5.742,-0.800,-0.580
5.744,-0.800,-0.570
5.747,-0.795,-0.565
5.750,-0.780,-0.550
5.753,-0.785,-0.580
5.756,-0.790,-0.600
5.758,-0.795,-0.615
5.761,-0.795,-0.635
5.764,-0.800,-0.635
5.767,-0.810,-0.630
5.769,-0.820,-0.630
5.772,-0.795,-0.615
5.775,-0.785,-0.595
5.778,-0.785,-0.590
5.781,-0.775,-0.585
5.783,-0.760,-0.570
5.786,-0.755,-0.595
5.789,-0.765,-0.580
5.792,-0.775,-0.605
5.794,-0.770,-0.610
5.797,-0.775,-0.630
5.800,-0.750,-0.640
5.803,-0.740,-0.670
5.806,-0.735,-0.650
5.808,-0.715,-0.655
5.811,-0.695,-0.670
5.814,-0.675,-0.640
5.817,-0.660,-0.615
5.819,-0.655,-0.620
5.822,-0.655,-0.615
5.825,-0.660,-0.635
5.828,-0.670,-0.635
5.831,-0.660,-0.635
5.833,-0.650,-0.640
5.836,-0.650,-0.630
5.839,-0.630,-0.615
5.842,-0.605,-0.575
5.844,-0.600,-0.540
5.847,-0.610,-0.510
5.850,-0.610,-0.490
5.853,-0.645,-0.480
5.856,-0.665,-0.495
5.858,-0.685,-0.530
5.861,-0.695,-0.570
5.864,-0.725,-0.555
5.867,-0.715,-0.560
5.869,-0.710,-0.545
5.872,-0.695,-0.510
5.875,-0.685,-0.460
5.878,-0.670,-0.430
5.881,-0.650,-0.400
5.883,-0.670,-0.375
5.886,-0.690,-0.375
5.889,-0.720,-0.410
5.892,-0.760,-0.420
5.894,-0.800,-0.465
5.897,-0.835,-0.515
5.900,-0.845,-0.530
5.903,-0.865,-0.540
5.906,-0.875,-0.505
5.908,-0.885,-0.495
5.911,-0.885,-0.495
5.914,-0.880,-0.480
5.917,-0.880,-0.490
5.919,-0.880,-0.520
5.922,-0.905,-0.540
5.925,-0.900,-0.540
5.928,-0.910,-0.535
5.931,-0.925,-0.540
5.933,-0.945,-0.550
5.936,-0.955,-0.540
5.939,-0.950,-0.555
5.942,-0.935,-0.540
5.944,-0.940,-0.545
5.947,-0.920,-0.545
5.950,-0.905,-0.535
5.953,-0.920,-0.540
5.956,-0.920,-0.530
5.958,-0.925,-0.510
5.961,-0.925,-0.525
5.964,-0.925,-0.525
5.967,-0.935,-0.545
5.969,-0.940,-0.525
5.972,-0.920,-0.545
5.975,-0.915,-0.525
5.978,-0.915,-0.540
5.981,-0.890,-0.520
5.983,-0.880,-0.520
5.986,-0.880,-0.520
5.989,-0.865,-0.525
5.992,-0.885,-0.560
5.994,-0.905,-0.595
5.997,-0.945,-0.640
6.000,-0.940,-0.680
6.003,-0.965,-0.720
6.006,-0.950,-0.770
6.008,-0.885,-0.850
6.011,-0.775,-0.955
6.014,-0.650,-1.045
6.017,-0.480,-1.185
6.019,-0.330,-1.285
6.022,-0.195,-1.395
6.025,-0.135,-1.440
6.028,-0.125,-1.410
6.031,-0.140,-1.330
6.033,-0.135,-1.190
6.036,-0.100,-1.060
6.039,0.030,-0.910
6.042,0.185,-0.725
6.044,0.335,-0.500
6.047,0.415,-0.220
6.050,0.340,0.120
6.053,0.095,0.420
6.056,-0.285,0.575
6.058,-0.725,0.550
6.061,-1.135,0.380
6.064,-1.440,0.085
6.067,-1.650,-0.180
6.069,-1.765,-0.385
6.072,-1.815,-0.505
6.075,-1.830,-0.555
6.078,-1.850,-0.580
6.081,-1.870,-0.590
6.083,-1.880,-0.640
6.086,-1.900,-0.690
6.089,-1.910,-0.710
6.092,-1.925,-0.745
6.094,-1.945,-0.750
6.097,-1.945,-0.735
6.100,-1.935,-0.725
6.103,-1.920,-0.715
6.106,-1.895,-0.705
6.108,-1.850,-0.725
6.111,-1.765,-0.740
6.114,-1.660,-0.745
6.117,-1.510,-0.725
6.119,-1.370,-0.710
6.122,-1.240,-0.670
6.125,-1.135,-0.615
6.128,-1.055,-0.580
6.131,-1.015,-0.545
6.133,-1.020,-0.515
6.136,-1.005,-0.495
6.139,-1.010,-0.475
6.142,-1.010,-0.485
6.144,-0.980,-0.505
6.147,-0.960,-0.500
6.150,-0.960,-0.500
6.153,-0.935,-0.505
6.156,-0.930,-0.515
6.158,-0.930,-0.535
6.161,-0.930,-0.550
6.164,-0.945,-0.545
6.167,-0.945,-0.585
6.169,-0.985,-0.560
6.172,-0.965,-0.580
6.175,-0.955,-0.565
6.178,-0.955,-0.560
6.181,-0.950,-0.570
6.183,-0.940,-0.565
6.186,-0.945,-0.575
6.189,-0.950,-0.585
6.192,-0.975,-0.620
6.194,-0.975,-0.635
6.197,-0.995,-0.655
6.200,-1.000,-0.660
6.203,-1.005,-0.665
6.206,-1.010,-0.670
6.208,-1.020,-0.665
6.211,-1.025,-0.670
6.214,-1.035,-0.700
6.217,-1.020,-0.700
6.219,-1.020,-0.730
6.222,-1.040,-0.770
6.225,-1.055,-0.795
6.228,-1.070,-0.825
6.231,-1.080,-0.840
6.233,-1.090,-0.855
6.236,-1.095,-0.840
6.239,-1.115,-0.860
6.242,-1.125,-0.835
6.244,-1.130,-0.855
6.247,-1.105,-0.865
6.250,-1.115,-0.870
6.253,-1.120,-0.895
6.256,-1.120,-0.910
6.258,-1.140,-0.925
6.261,-1.145,-0.935
6.264,-1.160,-0.955
6.267,-1.180,-0.960
6.269,-1.185,-0.960
6.272,-1.200,-0.955
6.275,-1.190,-0.955
6.278,-1.185,-0.950
6.281,-1.185,-0.945
6.283,-1.175,-0.945
6.286,-1.165,-0.945
6.289,-1.160,-0.955
6.292,-1.160,-0.965
6.294,-1.170,-0.965
6.297,-1.175,-0.980
6.300,-1.175,-0.985
6.303,-1.155,-0.975
6.306,-1.145,-0.985
6.308,-1.135,-0.960
6.311,-1.105,-0.950
6.314,-1.095,-0.950
6.317,-1.080,-0.940
6.319,-1.050,-0.915
6.322,-1.020,-0.930
6.325,-1.010,-0.925
6.328,-0.990,-0.925
6.331,-0.965,-0.920
6.333,-0.955,-0.885
6.336,-0.955,-0.870
6.339,-0.940,-0.855
6.342,-0.920,-0.825
6.344,-0.910,-0.805
6.347,-0.890,-0.770
6.350,-0.870,-0.745
6.353,-0.860,-0.750
6.356,-0.835,-0.765
6.358,-0.850,-0.755
6.361,-0.850,-0.760
6.364,-0.835,-0.745
6.367,-0.825,-0.745
6.369,-0.825,-0.710
6.372,-0.805,-0.700
6.375,-0.810,-0.660
6.378,-0.795,-0.625
6.381,-0.770,-0.610
6.383,-0.765,-0.615
6.386,-0.765,-0.605
6.389,-0.765,-0.600
6.392,-0.770,-0.620
6.394,-0.760,-0.625
6.397,-0.770,-0.635
6.400,-0.765,-0.625
6.403,-0.760,-0.615
6.406,-0.755,-0.605
6.408,-0.760,-0.590
6.411,-0.745,-0.565
6.414,-0.740,-0.545
6.417,-0.735,-0.535
6.419,-0.735,-0.550
6.422,-0.750,-0.550
6.425,-0.760,-0.565
6.428,-0.760,-0.565
6.431,-0.760,-0.575
6.433,-0.770,-0.565
6.436,-0.765,-0.560
6.439,-0.760,-0.560
6.442,-0.755,-0.545
6.444,-0.740,-0.530
6.447,-0.740,-0.545
6.450,-0.740,-0.505
6.453,-0.740,-0.515
6.456,-0.760,-0.505
6.458,-0.765,-0.520
6.461,-0.775,-0.530
6.464,-0.800,-0.535
6.467,-0.800,-0.550
6.469,-0.795,-0.525
6.472,-0.785,-0.515
6.475,-0.780,-0.495
6.478,-0.785,-0.490
6.481,-0.785,-0.465
6.483,-0.790,-0.460
6.486,-0.780,-0.470
6.489,-0.810,-0.475
6.492,-0.805,-0.495
6.494,-0.840,-0.520
6.497,-0.845,-0.525
6.500,-0.860,-0.510
6.503,-0.875,-0.525
6.506,-0.870,-0.515
6.508,-0.875,-0.480
6.511,-0.860,-0.495
6.514,-0.855,-0.475
6.517,-0.845,-0.480
6.519,-0.835,-0.460
6.522,-0.835,-0.495
6.525,-0.850,-0.500
6.528,-0.865,-0.510
6.531,-0.870,-0.515
6.533,-0.875,-0.515
6.536,-0.875,-0.520
6.539,-0.865,-0.500
6.542,-0.870,-0.505
6.544,-0.870,-0.480
6.547,-0.875,-0.480
6.550,-0.865,-0.470
6.553,-0.860,-0.500
6.556,-0.850,-0.510
6.558,-0.855,-0.520
6.561,-0.865,-0.555
6.564,-0.875,-0.570
6.567,-0.880,-0.575
6.569,-0.890,-0.575
6.572,-0.885,-0.555
6.575,-0.880,-0.560
6.578,-0.880,-0.525
6.581,-0.875,-0.525
6.583,-0.870,-0.515
6.586,-0.860,-0.520
6.589,-0.870,-0.530
6.592,-0.875,-0.535
6.594,-0.885,-0.540
6.597,-0.880,-0.555
6.600,-0.895,-0.565
6.603,-0.895,-0.575
6.606,-0.900,-0.570
6.608,-0.890,-0.560
6.611,-0.890,-0.555
6.614,-0.880,-0.540
6.617,-0.855,-0.520
6.619,-0.830,-0.530
6.622,-0.815,-0.540
6.625,-0.815,-0.540
6.628,-0.810,-0.575
6.631,-0.810,-0.580
6.633,-0.820,-0.595
6.636,-0.805,-0.615
6.639,-0.780,-0.610
6.642,-0.795,-0.615
6.644,-0.760,-0.620
6.647,-0.745,-0.605
6.650,-0.720,-0.590
6.653,-0.715,-0.585
6.656,-0.710,-0.580
6.658,-0.680,-0.570
6.661,-0.670,-0.565
6.664,-0.675,-0.550
6.667,-0.690,-0.540
6.669,-0.710,-0.535
6.672,-0.730,-0.525
6.675,-0.735,-0.530
6.678,-0.720,-0.555
6.681,-0.745,-0.550
6.683,-0.745,-0.565
6.686,-0.720,-0.585
6.689,-0.715,-0.560
6.692,-0.685,-0.565
6.694,-0.690,-0.545
6.697,-0.685,-0.490
6.700,-0.670,-0.480
6.703,-0.670,-0.465
6.706,-0.680,-0.445
6.708,-0.715,-0.440
6.711,-0.720,-0.460
6.714,-0.750,-0.485
6.717,-0.775,-0.515
6.719,-0.785,-0.550
6.722,-0.805,-0.585
6.725,-0.840,-0.590
6.728,-0.865,-0.605
6.731,-0.860,-0.610
6.733,-0.890,-0.595
6.736,-0.915,-0.610
6.739,-0.905,-0.575
6.742,-0.905,-0.590
6.744,-0.885,-0.575
6.747,-0.875,-0.570
6.750,-0.880,-0.545
6.753,-0.865,-0.565
6.756,-0.885,-0.585
6.758,-0.905,-0.590
6.761,-0.905,-0.585
6.764,-0.890,-0.615
6.767,-0.905,-0.615
6.769,-0.910,-0.610
6.772,-0.920,-0.605
6.775,-0.915,-0.575
6.778,-0.900,-0.575
6.781,-0.920,-0.565
6.783,-0.885,-0.540
6.786,-0.885,-0.550
6.789,-0.895,-0.575
6.792,-0.895,-0.580
6.794,-0.900,-0.605
6.797,-0.910,-0.630
6.800,-0.940,-0.650
6.803,-0.930,-0.645
6.806,-0.930,-0.630
6.808,-0.915,-0.630
6.811,-0.910,-0.595
6.814,-0.895,-0.605
6.817,-0.890,-0.585
6.819,-0.875,-0.610
6.822,-0.885,-0.630
6.825,-0.895,-0.645
6.828,-0.930,-0.650
6.831,-0.925,-0.665
6.833,-0.920,-0.715
6.836,-0.915,-0.785
6.839,-0.855,-0.880
6.842,-0.755,-0.990
6.844,-0.625,-1.095
6.847,-0.480,-1.190
6.850,-0.305,-1.295
6.853,-0.195,-1.405
6.856,-0.150,-1.455
6.858,-0.125,-1.430
6.861,-0.165,-1.365
6.864,-0.190,-1.250
6.867,-0.160,-1.105
6.869,-0.070,-0.975
6.872,0.085,-0.825
6.875,0.245,-0.660
6.878,0.370,-0.390
6.881,0.400,-0.090
6.883,0.275,0.210
6.886,-0.035,0.455
6.889,-0.430,0.550
6.892,-0.870,0.500
6.894,-1.250,0.300
6.897,-1.515,0.020
6.900,-1.695,-0.230
6.903,-1.795,-0.425
6.906,-1.845,-0.545
6.908,-1.910,-0.595
6.911,-1.960,-0.650
6.914,-1.985,-0.670
6.917,-2.000,-0.730
6.919,-2.020,-0.770
6.922,-2.010,-0.795
6.925,-2.015,-0.815
6.928,-2.015,-0.810
6.931,-2.010,-0.805
6.933,-2.005,-0.790
6.936,-1.985,-0.800
6.939,-1.930,-0.800
6.942,-1.840,-0.825
6.944,-1.710,-0.825
6.947,-1.555,-0.805
6.950,-1.395,-0.765
6.953,-1.255,-0.705
6.956,-1.155,-0.655
6.958,-1.070,-0.610
6.961,-1.025,-0.560
6.964,-1.010,-0.550
6.967,-1.010,-0.515
6.969,-1.020,-0.520
6.972,-1.015,-0.510
6.975,-1.005,-0.490
6.978,-0.975,-0.475
6.981,-0.975,-0.475
6.983,-0.950,-0.465
6.986,-0.945,-0.490
6.989,-0.955,-0.505
6.992,-0.970,-0.525
6.994,-0.995,-0.535
6.997,-1.000,-0.545
7.000,-0.980,-0.555
7.003,-0.990,-0.555
7.006,-0.995,-0.560
7.008,-1.000,-0.570
7.011,-0.975,-0.585
7.014,-0.970,-0.580
7.017,-0.950,-0.580
7.019,-0.975,-0.585
7.022,-0.980,-0.595
7.025,-1.020,-0.600
7.028,-1.040,-0.600
7.031,-1.035,-0.620
7.033,-1.050,-0.630
7.036,-1.065,-0.635
7.039,-1.070,-0.665
7.042,-1.060,-0.670
7.044,-1.060,-0.670
7.047,-1.065,-0.700
7.050,-1.075,-0.705
7.053,-1.105,-0.730
7.056,-1.085,-0.755
7.058,-1.110,-0.755
7.061,-1.120,-0.775
7.064,-1.125,-0.780
7.067,-1.155,-0.810
7.069,-1.165,-0.825
7.072,-1.180,-0.825
7.075,-1.175,-0.845
7.078,-1.185,-0.845
7.081,-1.185,-0.860
7.083,-1.175,-0.850
7.086,-1.185,-0.865
7.089,-1.190,-0.860
7.092,-1.190,-0.860
7.094,-1.210,-0.880
7.097,-1.205,-0.910
7.100,-1.230,-0.930
7.103,-1.230,-0.955
7.106,-1.235,-0.965
7.108,-1.220,-0.945
7.111,-1.215,-0.940
7.114,-1.200,-0.920
7.117,-1.190,-0.905
7.119,-1.160,-0.915
7.122,-1.150,-0.895
7.125,-1.155,-0.905
7.128,-1.155,-0.910
7.131,-1.130,-0.900
7.133,-1.125,-0.885
7.136,-1.130,-0.870
7.139,-1.120,-0.845
7.142,-1.095,-0.830
7.144,-1.090,-0.825
7.147,-1.050,-0.835
7.150,-1.030,-0.805
7.153,-1.005,-0.785
7.156,-0.985,-0.770
7.158,-0.960,-0.745
7.161,-0.970,-0.730
7.164,-0.960,-0.745
7.167,-0.955,-0.740
7.169,-0.940,-0.715
7.172,-0.935,-0.685
7.175,-0.920,-0.655
7.178,-0.895,-0.625
7.181,-0.895,-0.590
7.183,-0.885,-0.570
7.186,-0.890,-0.580
7.189,-0.900,-0.580
7.192,-0.895,-0.575
7.194,-0.885,-0.575
7.197,-0.885,-0.595
7.200,-0.905,-0.580
7.203,-0.890,-0.575
7.206,-0.875,-0.565
7.208,-0.875,-0.550
7.211,-0.860,-0.530
7.214,-0.860,-0.515
7.217,-0.845,-0.490
7.219,-0.850,-0.490
7.222,-0.845,-0.490
7.225,-0.845,-0.485
7.228,-0.845,-0.490
7.231,-0.850,-0.505
7.233,-0.870,-0.505
7.236,-0.885,-0.510
7.239,-0.885,-0.520
7.242,-0.875,-0.505
7.244,-0.865,-0.485
7.247,-0.855,-0.460
7.250,-0.860,-0.460
7.253,-0.865,-0.475
7.256,-0.850,-0.485
7.258,-0.860,-0.500
7.261,-0.860,-0.495
7.264,-0.885,-0.535
7.267,-0.880,-0.530
7.269,-0.895,-0.535
7.272,-0.905,-0.515
7.275,-0.900,-0.470
7.278,-0.885,-0.475
7.281,-0.885,-0.470
7.283,-0.865,-0.465
7.286,-0.875,-0.480
7.289,-0.875,-0.470
7.292,-0.880,-0.475
7.294,-0.895,-0.510
7.297,-0.900,-0.510
7.300,-0.910,-0.525
7.303,-0.920,-0.535
7.306,-0.915,-0.555
7.308,-0.925,-0.515
7.311,-0.910,-0.505
7.314,-0.890,-0.460
7.317,-0.895,-0.465
7.319,-0.885,-0.475
7.322,-0.890,-0.490
7.325,-0.890,-0.500
7.328,-0.900,-0.525
7.331,-0.895,-0.500
7.333,-0.905,-0.515
7.336,-0.875,-0.515
7.339,-0.900,-0.500
7.342,-0.900,-0.480
7.344,-0.885,-0.465
7.347,-0.890,-0.460
7.350,-0.900,-0.430
7.353,-0.875,-0.450
7.356,-0.895,-0.465
7.358,-0.895,-0.480
7.361,-0.875,-0.510
7.364,-0.885,-0.520
7.367,-0.885,-0.510
7.369,-0.885,-0.490
7.372,-0.885,-0.475
7.375,-0.875,-0.465
7.378,-0.855,-0.460
7.381,-0.860,-0.450
7.383,-0.840,-0.445
7.386,-0.845,-0.450
7.389,-0.855,-0.465
7.392,-0.865,-0.475
7.394,-0.880,-0.480
7.397,-0.890,-0.480
7.400,-0.885,-0.495
7.403,-0.885,-0.500
7.406,-0.875,-0.490
7.408,-0.875,-0.490
7.411,-0.880,-0.475
7.414,-0.860,-0.465
7.417,-0.835,-0.445
7.419,-0.850,-0.445
7.422,-0.840,-0.460
7.425,-0.835,-0.470
7.428,-0.840,-0.490
7.431,-0.840,-0.480
7.433,-0.845,-0.470
7.436,-0.840,-0.485
7.439,-0.855,-0.485
7.442,-0.835,-0.470
7.444,-0.820,-0.450
7.447,-0.795,-0.440
7.450,-0.785,-0.440
7.453,-0.770,-0.465
7.456,-0.765,-0.485
7.458,-0.760,-0.500
7.461,-0.775,-0.540
7.464,-0.765,-0.525
7.467,-0.765,-0.530
7.469,-0.760,-0.510
7.472,-0.740,-0.500
7.475,-0.715,-0.475
7.478,-0.685,-0.430
7.481,-0.680,-0.410
7.483,-0.675,-0.370
7.486,-0.705,-0.380
7.489,-0.715,-0.405
7.492,-0.730,-0.425
7.494,-0.755,-0.445
7.497,-0.765,-0.470
7.500,-0.775,-0.475
7.503,-0.755,-0.460
7.506,-0.745,-0.420
7.508,-0.720,-0.385
7.511,-0.695,-0.335
7.514,-0.685,-0.300
7.517,-0.680,-0.265
7.519,-0.685,-0.290
7.522,-0.715,-0.305
7.525,-0.750,-0.340
7.528,-0.785,-0.395
7.531,-0.805,-0.430
7.533,-0.830,-0.450
7.536,-0.845,-0.465
7.539,-0.840,-0.450
7.542,-0.840,-0.435
7.544,-0.865,-0.395
7.547,-0.870,-0.395
7.550,-0.870,-0.380
7.553,-0.865,-0.405
7.556,-0.880,-0.435
7.558,-0.890,-0.460
7.561,-0.895,-0.475
7.564,-0.905,-0.490
7.567,-0.915,-0.490
7.569,-0.915,-0.505
7.572,-0.920,-0.495
7.575,-0.910,-0.475
7.578,-0.900,-0.460
7.581,-0.885,-0.435
7.583,-0.890,-0.430
7.586,-0.890,-0.425
7.589,-0.890,-0.435
7.592,-0.905,-0.465
7.594,-0.925,-0.460
7.597,-0.920,-0.470
7.600,-0.925,-0.485
7.603,-0.930,-0.500
7.606,-0.925,-0.505
7.608,-0.910,-0.470
7.611,-0.905,-0.470
7.614,-0.910,-0.460
7.617,-0.900,-0.450
7.619,-0.890,-0.465
7.622,-0.885,-0.470
7.625,-0.905,-0.485
7.628,-0.920,-0.500
7.631,-0.925,-0.505
7.633,-0.940,-0.515
7.636,-0.950,-0.525
7.639,-0.945,-0.550
7.642,-0.955,-0.575
7.644,-0.945,-0.625
7.647,-0.920,-0.690
7.650,-0.870,-0.790
7.653,-0.765,-0.910
7.656,-0.645,-1.040
7.658,-0.500,-1.170
7.661,-0.375,-1.290
7.664,-0.260,-1.380
7.667,-0.215,-1.380
7.669,-0.220,-1.325
7.672,-0.245,-1.215
7.675,-0.235,-1.035
7.678,-0.195,-0.865
7.681,-0.055,-0.725
7.683,0.095,-0.550
7.686,0.250,-0.315
7.689,0.320,-0.025
7.692,0.220,0.305
7.694,-0.035,0.550
7.697,-0.415,0.660
7.700,-0.830,0.640
7.703,-1.160,0.425
7.706,-1.410,0.175
7.708,-1.540,-0.055
7.711,-1.605,-0.230
7.714,-1.640,-0.320
7.717,-1.690,-0.355
7.719,-1.725,-0.425
7.722,-1.785,-0.470
7.725,-1.825,-0.520
7.728,-1.845,-0.570
7.731,-1.865,-0.610
7.733,-1.880,-0.610
7.736,-1.885,-0.605
7.739,-1.895,-0.590
7.742,-1.890,-0.600
7.744,-1.870,-0.585
7.747,-1.830,-0.600
7.750,-1.755,-0.610
7.753,-1.655,-0.625
7.756,-1.525,-0.640
7.758,-1.405,-0.620
7.761,-1.270,-0.600
7.764,-1.145,-0.540
7.767,-1.075,-0.490
7.769,-1.035,-0.445
7.772,-1.005,-0.405
7.775,-1.010,-0.395
7.778,-1.015,-0.395
7.781,-1.005,-0.395
7.783,-0.975,-0.385
7.786,-0.950,-0.395
7.789,-0.930,-0.400
7.792,-0.935,-0.395
7.794,-0.945,-0.400
7.797,-0.950,-0.410
7.800,-0.940,-0.410
7.803,-0.930,-0.425
7.806,-0.920,-0.425
7.808,-0.925,-0.425
7.811,-0.945,-0.450
7.814,-0.945,-0.435
7.817,-0.950,-0.450
7.819,-0.940,-0.430
7.822,-0.955,-0.445
7.825,-0.960,-0.455
7.828,-0.950,-0.500
7.831,-0.970,-0.525
7.833,-0.960,-0.550
7.836,-0.970,-0.570
7.839,-0.975,-0.575
7.842,-0.975,-0.580
7.844,-0.980,-0.580
7.847,-0.985,-0.580
7.850,-0.970,-0.605
7.853,-0.985,-0.635
7.856,-1.015,-0.650
7.858,-1.040,-0.670
7.861,-1.065,-0.680
7.864,-1.085,-0.720
7.867,-1.070,-0.725
7.869,-1.070,-0.755
7.872,-1.070,-0.740
7.875,-1.070,-0.750
7.878,-1.070,-0.750
7.881,-1.080,-0.755
7.883,-1.095,-0.790
7.886,-1.100,-0.800
7.889,-1.110,-0.830
7.892,-1.145,-0.860
7.894,-1.145,-0.850
7.897,-1.165,-0.900
7.900,-1.160,-0.880
7.903,-1.180,-0.875
7.906,-1.175,-0.905
7.908,-1.185,-0.880
7.911,-1.185,-0.910
7.914,-1.185,-0.895
7.917,-1.170,-0.880
7.919,-1.160,-0.910
7.922,-1.160,-0.905
7.925,-1.165,-0.905
7.928,-1.160,-0.935
7.931,-1.165,-0.945
7.933,-1.170,-0.945
7.936,-1.175,-0.935
7.939,-1.165,-0.925
7.942,-1.150,-0.890
7.944,-1.120,-0.865
7.947,-1.105,-0.850
7.950,-1.085,-0.830
7.953,-1.060,-0.840
7.956,-1.040,-0.830
7.958,-1.030,-0.835
7.961,-1.030,-0.835
7.964,-1.035,-0.810
7.967,-1.005,-0.790
7.969,-0.995,-0.770
7.972,-0.980,-0.750
7.975,-0.960,-0.715
7.978,-0.930,-0.695
7.981,-0.920,-0.685
7.983,-0.890,-0.675
7.986,-0.880,-0.670
7.989,-0.870,-0.660
7.992,-0.875,-0.660
7.994,-0.870,-0.645
7.997,-0.855,-0.650
8.000,-0.870,-0.625
8.003,-0.870,-0.645
8.006,-0.875,-0.635
8.008,-0.870,-0.625
8.011,-0.840,-0.575
8.014,-0.825,-0.570
8.017,-0.830,-0.570
8.019,-0.805,-0.560
8.022,-0.815,-0.570
8.025,-0.825,-0.545
8.028,-0.835,-0.560
8.031,-0.850,-0.560
8.033,-0.845,-0.560
8.036,-0.840,-0.540
8.039,-0.825,-0.545
8.042,-0.830,-0.510
8.044,-0.815,-0.520
8.047,-0.810,-0.500
8.050,-0.800,-0.500
8.053,-0.805,-0.495
8.056,-0.800,-0.495
8.058,-0.810,-0.505
8.061,-0.820,-0.525
8.064,-0.845,-0.530
8.067,-0.855,-0.525
8.069,-0.845,-0.520
8.072,-0.850,-0.530
8.075,-0.840,-0.505
8.078,-0.830,-0.500
8.081,-0.835,-0.490
8.083,-0.835,-0.495
8.086,-0.830,-0.500
8.089,-0.835,-0.495
8.092,-0.840,-0.495
8.094,-0.860,-0.515
8.097,-0.865,-0.525
8.100,-0.885,-0.520
8.103,-0.895,-0.520
8.106,-0.885,-0.530
8.108,-0.895,-0.535
8.111,-0.890,-0.530
8.114,-0.885,-0.520
8.117,-0.885,-0.510
8.119,-0.865,-0.520
8.122,-0.840,-0.520
8.125,-0.815,-0.515
8.128,-0.820,-0.535
8.131,-0.845,-0.535
8.133,-0.865,-0.545
8.136,-0.915,-0.545
8.139,-0.945,-0.540
8.142,-0.915,-0.520
8.144,-0.880,-0.510
8.147,-0.865,-0.480
8.150,-0.835,-0.480
8.153,-0.855,-0.490
8.156,-0.880,-0.510
8.158,-0.920,-0.520
8.161,-0.935,-0.510
8.164,-0.940,-0.510
8.167,-0.935,-0.500
8.169,-0.945,-0.505
8.172,-0.930,-0.495
8.175,-0.935,-0.505
8.178,-0.915,-0.510
8.181,-0.910,-0.515
8.183,-0.885,-0.530
8.186,-0.885,-0.520
8.189,-0.895,-0.515
8.192,-0.890,-0.545
8.194,-0.905,-0.550
8.197,-0.925,-0.540
8.200,-0.900,-0.535
8.203,-0.910,-0.490
8.206,-0.910,-0.480
8.208,-0.895,-0.485
8.211,-0.885,-0.495
8.214,-0.865,-0.500
8.217,-0.855,-0.510
8.219,-0.850,-0.515
8.222,-0.855,-0.525
8.225,-0.865,-0.540
8.228,-0.870,-0.550
8.231,-0.870,-0.565
8.233,-0.850,-0.565
8.236,-0.865,-0.545
8.239,-0.830,-0.540
8.242,-0.835,-0.510
8.244,-0.805,-0.510
8.247,-0.765,-0.495
8.250,-0.770,-0.510
8.253,-0.750,-0.530
8.256,-0.745,-0.540
8.258,-0.735,-0.555
8.261,-0.745,-0.570
8.264,-0.745,-0.570
8.267,-0.760,-0.565
8.269,-0.775,-0.550
8.272,-0.780,-0.525
8.275,-0.765,-0.485
8.278,-0.760,-0.445
8.281,-0.750,-0.435
8.283,-0.735,-0.420
8.286,-0.765,-0.430
8.289,-0.775,-0.455
8.292,-0.765,-0.455
8.294,-0.760,-0.475
8.297,-0.735,-0.490
8.300,-0.715,-0.485
8.303,-0.730,-0.490
8.306,-0.725,-0.460
8.308,-0.750,-0.435
8.311,-0.750,-0.400
8.314,-0.790,-0.380
8.317,-0.795,-0.345
8.319,-0.830,-0.385
8.322,-0.895,-0.410
8.325,-0.920,-0.445
8.328,-0.925,-0.505
8.331,-0.930,-0.530
8.333,-0.945,-0.540
8.336,-0.940,-0.570
8.339,-0.935,-0.565
8.342,-0.935,-0.545
8.344,-0.940,-0.535
8.347,-0.950,-0.515
8.350,-0.980,-0.495
8.353,-0.965,-0.480
8.356,-0.960,-0.470
8.358,-0.965,-0.495
8.361,-0.980,-0.520
8.364,-0.995,-0.535
8.367,-0.990,-0.550
8.369,-0.985,-0.545
8.372,-0.970,-0.545
8.375,-0.980,-0.525
8.378,-0.955,-0.510
8.381,-0.975,-0.510
8.383,-0.960,-0.505
8.386,-0.970,-0.525
8.389,-0.965,-0.535
8.392,-0.985,-0.555
8.394,-0.990,-0.565
8.397,-1.000,-0.580
8.400,-1.010,-0.560
8.403,-1.035,-0.570
8.406,-1.040,-0.580
8.408,-1.035,-0.580
8.411,-1.020,-0.560
8.414,-1.015,-0.555
8.417,-1.005,-0.560
8.419,-1.000,-0.565
8.422,-0.995,-0.560
8.425,-1.015,-0.550
8.428,-1.025,-0.555
8.431,-1.040,-0.575
8.433,-1.065,-0.605
8.436,-1.095,-0.655
8.439,-1.115,-0.730
8.442,-1.120,-0.795
8.444,-1.095,-0.895
8.447,-1.065,-1.020
8.450,-0.980,-1.180
8.453,-0.885,-1.345
8.456,-0.760,-1.495
8.458,-0.660,-1.630
8.461,-0.610,-1.680
8.464,-0.590,-1.655
8.467,-0.585,-1.545
8.469,-0.575,-1.410
8.472,-0.505,-1.240
8.475,-0.370,-1.065
8.478,-0.180,-0.920
8.481,0.025,-0.740
8.483,0.190,-0.485
8.486,0.230,-0.175
8.489,0.175,0.125
8.492,-0.015,0.375
8.494,-0.310,0.485
8.497,-0.650,0.460
8.500,-1.000,0.325
8.503,-1.280,0.125
8.506,-1.475,-0.070
8.508,-1.595,-0.210
8.511,-1.665,-0.285
8.514,-1.695,-0.340
8.517,-1.735,-0.360
8.519,-1.785,-0.400
8.522,-1.860,-0.430
8.525,-1.905,-0.480
8.528,-1.930,-0.505
8.531,-1.950,-0.530
8.533,-1.965,-0.545
8.536,-1.975,-0.555
8.539,-1.940,-0.570
8.542,-1.935,-0.580
8.544,-1.895,-0.615
8.547,-1.845,-0.615
8.550,-1.765,-0.640
8.553,-1.665,-0.650
8.556,-1.535,-0.630
8.558,-1.405,-0.595
8.561,-1.300,-0.570
8.564,-1.210,-0.535
8.567,-1.145,-0.505
8.569,-1.125,-0.500
8.572,-1.110,-0.475
8.575,-1.125,-0.470
8.578,-1.120,-0.495
8.581,-1.110,-0.480
8.583,-1.100,-0.475
8.586,-1.090,-0.490
8.589,-1.080,-0.475
8.592,-1.080,-0.450
8.594,-1.080,-0.445
8.597,-1.070,-0.455
8.600,-1.090,-0.480
8.603,-1.085,-0.490
8.606,-1.080,-0.485
8.608,-1.065,-0.495
8.611,-1.060,-0.470
8.614,-1.070,-0.510
8.617,-1.075,-0.510
8.619,-1.060,-0.540
8.622,-1.075,-0.565
8.625,-1.080,-0.595
8.628,-1.095,-0.630
8.631,-1.120,-0.620
8.633,-1.130,-0.620
8.636,-1.150,-0.610
8.639,-1.140,-0.605
8.642,-1.150,-0.605
8.644,-1.145,-0.610
8.647,-1.145,-0.610
8.650,-1.140,-0.645
8.653,-1.155,-0.685
8.656,-1.180,-0.705
8.658,-1.185,-0.720
8.661,-1.185,-0.725
8.664,-1.175,-0.735
8.667,-1.185,-0.730
8.669,-1.220,-0.750
8.672,-1.240,-0.775
8.675,-1.265,-0.760
8.678,-1.275,-0.770
8.681,-1.255,-0.800
8.683,-1.265,-0.815
8.686,-1.250,-0.825
8.689,-1.245,-0.830
8.692,-1.245,-0.820
8.694,-1.245,-0.810
8.697,-1.255,-0.835
8.700,-1.280,-0.860
8.703,-1.300,-0.870
8.706,-1.305,-0.885
8.708,-1.295,-0.875
8.711,-1.290,-0.875
8.714,-1.295,-0.865
8.717,-1.295,-0.865
8.719,-1.280,-0.845
8.722,-1.265,-0.860
8.725,-1.265,-0.855
8.728,-1.260,-0.845
8.731,-1.275,-0.875
8.733,-1.275,-0.885
8.736,-1.295,-0.905
8.739,-1.290,-0.915
8.742,-1.270,-0.905
8.744,-1.260,-0.895
8.747,-1.235,-0.860
8.750,-1.210,-0.850
8.753,-1.185,-0.840
8.756,-1.185,-0.835
8.758,-1.175,-0.815
8.761,-1.160,-0.800
8.764,-1.160,-0.775
8.767,-1.140,-0.775
8.769,-1.135,-0.790
8.772,-1.135,-0.785
8.775,-1.105,-0.760
8.778,-1.055,-0.750
8.781,-1.050,-0.730
8.783,-1.020,-0.700
8.786,-0.995,-0.665
8.789,-0.980,-0.650
8.792,-0.965,-0.645
8.794,-0.985,-0.645
8.797,-1.005,-0.670
8.800,-1.020,-0.665
8.803,-1.040,-0.685
8.806,-1.025,-0.655
8.808,-1.015,-0.640
8.811,-1.010,-0.615
8.814,-1.000,-0.605
8.817,-0.985,-0.585
8.819,-0.960,-0.575
8.822,-0.955,-0.555
8.825,-0.955,-0.555
8.828,-0.955,-0.560
8.831,-0.985,-0.560
8.833,-0.995,-0.595
8.836,-0.990,-0.600
8.839,-1.010,-0.590
8.842,-0.990,-0.585
8.844,-0.985,-0.560
8.847,-0.985,-0.530
8.850,-0.975,-0.500
8.853,-0.960,-0.485
8.856,-0.945,-0.495
8.858,-0.935,-0.525
8.861,-0.955,-0.540
8.864,-0.995,-0.565
8.867,-1.025,-0.585
8.869,-1.045,-0.575
8.872,-1.065,-0.565
8.875,-1.065,-0.545
8.878,-1.035,-0.520
8.881,-0.995,-0.500
8.883,-0.970,-0.505
8.886,-0.970,-0.515
8.889,-0.995,-0.525
8.892,-1.030,-0.540
8.894,-1.050,-0.570
8.897,-1.055,-0.575
8.900,-1.065,-0.580
8.903,-1.035,-0.580
8.906,-1.015,-0.580
8.908,-1.000,-0.560
8.911,-1.000,-0.545
8.914,-1.005,-0.535
8.917,-1.010,-0.540
8.919,-1.040,-0.555
8.922,-1.045,-0.570
8.925,-1.065,-0.625
8.928,-1.080,-0.630
8.931,-1.065,-0.645
8.933,-1.050,-0.630
8.936,-1.040,-0.590
8.939,-1.025,-0.565
8.942,-1.025,-0.515
8.944,-1.025,-0.510
8.947,-1.025,-0.500
8.950,-1.040,-0.490
8.953,-1.040,-0.515
8.956,-1.040,-0.535
8.958,-1.060,-0.575
8.961,-1.075,-0.595
8.964,-1.080,-0.625
8.967,-1.070,-0.615
8.969,-1.060,-0.600
8.972,-1.065,-0.575
8.975,-1.045,-0.570
8.978,-1.040,-0.520
8.981,-1.055,-0.525
8.983,-1.055,-0.530
8.986,-1.060,-0.575
8.989,-1.060,-0.575
8.992,-1.100,-0.585
8.994,-1.115,-0.615
8.997,-1.130,-0.625
9.000,-1.150,-0.625
9.003,-1.155,-0.605
9.006,-1.125,-0.600
9.008,-1.075,-0.550
9.011,-1.040,-0.540
9.014,-1.020,-0.545
9.017,-1.035,-0.540
9.019,-1.060,-0.560
9.022,-1.090,-0.560
9.025,-1.115,-0.545
9.028,-1.110,-0.540
9.031,-1.115,-0.535
9.033,-1.095,-0.525
9.036,-1.105,-0.540
9.039,-1.115,-0.555
9.042,-1.125,-0.550
9.044,-1.125,-0.550
9.047,-1.095,-0.535
9.050,-1.085,-0.510
9.053,-1.075,-0.500
9.056,-1.070,-0.515
9.058,-1.070,-0.520
9.061,-1.090,-0.535
9.064,-1.110,-0.550
9.067,-1.110,-0.570
9.069,-1.125,-0.560
9.072,-1.145,-0.575
9.075,-1.130,-0.580
9.078,-1.105,-0.565
9.081,-1.100,-0.580
9.083,-1.095,-0.595
9.086,-1.100,-0.575
9.089,-1.100,-0.580
9.092,-1.100,-0.550
9.094,-1.075,-0.545
9.097,-1.075,-0.525
9.100,-1.060,-0.545
9.103,-1.065,-0.560
9.106,-1.065,-0.600
9.108,-1.070,-0.630
9.111,-1.070,-0.645
9.114,-1.060,-0.640
9.117,-1.060,-0.620
9.119,-1.015,-0.585
9.122,-1.025,-0.580
9.125,-1.015,-0.560
9.128,-0.985,-0.585
9.131,-0.970,-0.600
9.133,-0.955,-0.600
9.136,-0.955,-0.585
9.139,-0.945,-0.560
9.142,-0.945,-0.525
9.144,-0.945,-0.500
9.147,-0.965,-0.495
9.150,-0.975,-0.505
9.153,-0.995,-0.515
9.156,-1.010,-0.545
9.158,-1.010,-0.575
9.161,-1.025,-0.585
9.164,-1.010,-0.590
9.167,-0.990,-0.565
9.169,-0.960,-0.505
9.172,-0.940,-0.455
9.175,-0.935,-0.410
9.178,-0.940,-0.360
9.181,-0.970,-0.385
9.183,-1.020,-0.390
9.186,-1.060,-0.440
9.189,-1.090,-0.490
9.192,-1.110,-0.495
9.194,-1.110,-0.540
9.197,-1.130,-0.555
9.200,-1.155,-0.560
9.203,-1.160,-0.565
9.206,-1.165,-0.570
9.208,-1.185,-0.550
9.211,-1.195,-0.535
9.214,-1.190,-0.545
9.217,-1.200,-0.525
9.219,-1.190,-0.520
9.222,-1.195,-0.540
9.225,-1.200,-0.580
9.228,-1.180,-0.580
9.231,-1.175,-0.600
9.233,-1.185,-0.610
9.236,-1.210,-0.615
9.239,-1.225,-0.595
9.242,-1.245,-0.590
9.244,-1.245,-0.585
9.247,-1.240,-0.580
9.250,-1.190,-0.580
9.253,-1.180,-0.575
9.256,-1.165,-0.610
9.258,-1.205,-0.590
9.261,-1.200,-0.590
9.264,-1.225,-0.590
9.267,-1.220,-0.625
9.269,-1.230,-0.620
9.272,-1.235,-0.635
9.275,-1.225,-0.620
9.278,-1.205,-0.610
9.281,-1.185,-0.595
9.283,-1.155,-0.570
9.286,-1.150,-0.555
9.289,-1.180,-0.575
9.292,-1.210,-0.610
9.294,-1.245,-0.650
9.297,-1.285,-0.700
9.300,-1.325,-0.760
9.303,-1.330,-0.825
9.306,-1.310,-0.880
9.308,-1.240,-0.960
9.311,-1.125,-1.040
9.314,-0.960,-1.145
9.317,-0.815,-1.270
9.319,-0.685,-1.405
9.322,-0.620,-1.520
9.325,-0.560,-1.550
9.328,-0.565,-1.545
9.331,-0.585,-1.435
9.333,-0.580,-1.310
9.336,-0.550,-1.145
9.339,-0.430,-0.990
9.342,-0.270,-0.820
9.344,-0.100,-0.640
9.347,0.040,-0.415
9.350,0.050,-0.130
9.353,-0.040,0.150
9.356,-0.345,0.355
9.358,-0.765,0.415
9.361,-1.180,0.330
9.364,-1.560,0.095
9.367,-1.845,-0.155
9.369,-2.030,-0.400
9.372,-2.165,-0.525
9.375,-2.215,-0.610
9.378,-2.245,-0.640
9.381,-2.240,-0.665
9.383,-2.240,-0.715
9.386,-2.210,-0.760
9.389,-2.215,-0.815
9.392,-2.205,-0.830
9.394,-2.215,-0.840
9.397,-2.230,-0.815
9.400,-2.260,-0.820
9.403,-2.260,-0.810
9.406,-2.235,-0.825
9.408,-2.190,-0.825
9.411,-2.090,-0.830
9.414,-1.955,-0.845
9.417,-1.815,-0.815
9.419,-1.685,-0.785
9.422,-1.575,-0.735
9.425,-1.510,-0.670
9.428,-1.430,-0.620
9.431,-1.395,-0.600
9.433,-1.385,-0.585
9.436,-1.385,-0.580
9.439,-1.375,-0.595
9.442,-1.380,-0.595
9.444,-1.350,-0.615
9.447,-1.315,-0.605
9.450,-1.290,-0.585
9.453,-1.265,-0.570
9.456,-1.265,-0.575
9.458,-1.270,-0.560
9.461,-1.290,-0.575
9.464,-1.305,-0.590
9.467,-1.300,-0.595
9.469,-1.325,-0.595
9.472,-1.345,-0.600
9.475,-1.380,-0.595
9.478,-1.365,-0.600
9.481,-1.375,-0.630
9.483,-1.335,-0.645
9.486,-1.320,-0.650
9.489,-1.305,-0.660
9.492,-1.305,-0.660
9.494,-1.345,-0.670
9.497,-1.360,-0.670
9.500,-1.360,-0.675
9.503,-1.385,-0.685
9.506,-1.390,-0.695
9.508,-1.385,-0.710
9.511,-1.380,-0.730
9.514,-1.365,-0.745
9.517,-1.380,-0.730
9.519,-1.410,-0.760
9.522,-1.430,-0.790
9.525,-1.440,-0.810
9.528,-1.445,-0.845
9.531,-1.455,-0.870
9.533,-1.465,-0.860
9.536,-1.480,-0.860
9.539,-1.500,-0.845
9.542,-1.525,-0.875
9.544,-1.525,-0.865
9.547,-1.540,-0.890
9.550,-1.525,-0.910
9.553,-1.500,-0.910
9.556,-1.515,-0.925
9.558,-1.500,-0.950
9.561,-1.495,-0.990
9.564,-1.495,-1.000
9.567,-1.535,-1.000
9.569,-1.540,-1.000
9.572,-1.550,-0.995
9.575,-1.545,-0.990
9.578,-1.535,-0.975
9.581,-1.520,-0.985
9.583,-1.495,-0.995
9.586,-1.490,-0.990
9.589,-1.495,-1.000
9.592,-1.505,-1.000
9.594,-1.500,-1.000
9.597,-1.510,-1.015
9.600,-1.505,-1.010
9.603,-1.515,-1.000
9.606,-1.520,-0.995
9.608,-1.505,-0.960
9.611,-1.475,-0.940
9.614,-1.425,-0.900
9.617,-1.375,-0.900
9.619,-1.340,-0.885
9.622,-1.315,-0.915
9.625,-1.315,-0.890
9.628,-1.330,-0.900
9.631,-1.360,-0.910
9.633,-1.395,-0.885
9.636,-1.385,-0.880
9.639,-1.355,-0.865
9.642,-1.315,-0.830
9.644,-1.255,-0.810
9.647,-1.220,-0.775
9.650,-1.205,-0.750
9.653,-1.175,-0.740
9.656,-1.170,-0.720
9.658,-1.175,-0.700
9.661,-1.160,-0.670
9.664,-1.165,-0.645
9.667,-1.160,-0.655
9.669,-1.175,-0.650
9.672,-1.185,-0.660
9.675,-1.205,-0.680
9.678,-1.215,-0.685
9.681,-1.210,-0.685
9.683,-1.205,-0.670
9.686,-1.190,-0.635
9.689,-1.175,-0.605
9.692,-1.185,-0.580
9.694,-1.185,-0.585
9.697,-1.175,-0.605
9.700,-1.180,-0.635
9.703,-1.185,-0.645
9.706,-1.185,-0.640
9.708,-1.200,-0.625
9.711,-1.195,-0.600
9.714,-1.175,-0.600
9.717,-1.165,-0.585
9.719,-1.150,-0.575
9.722,-1.160,-0.590
9.725,-1.145,-0.595
9.728,-1.155,-0.615
9.731,-1.175,-0.625
9.733,-1.160,-0.635
9.736,-1.185,-0.650
9.739,-1.200,-0.645
9.742,-1.210,-0.645
9.744,-1.175,-0.630
9.747,-1.165,-0.630
9.750,-1.185,-0.610
9.753,-1.175,-0.600
9.756,-1.165,-0.590
9.758,-1.175,-0.580
9.761,-1.205,-0.590
9.764,-1.235,-0.610
9.767,-1.260,-0.615
9.769,-1.245,-0.645
9.772,-1.245,-0.640
9.775,-1.240,-0.660
9.778,-1.205,-0.645
9.781,-1.190,-0.635
9.783,-1.175,-0.610
9.786,-1.180,-0.645
9.789,-1.190,-0.615
9.792,-1.220,-0.620
9.794,-1.235,-0.610
9.797,-1.250,-0.615
9.800,-1.240,-0.625
9.803,-1.235,-0.645
9.806,-1.230,-0.665
9.808,-1.205,-0.650
9.811,-1.205,-0.635
9.814,-1.180,-0.610
9.817,-1.200,-0.620
9.819,-1.190,-0.600
9.822,-1.185,-0.615
9.825,-1.165,-0.605
9.828,-1.150,-0.615
9.831,-1.150,-0.620
9.833,-1.180,-0.625
9.836,-1.200,-0.635
9.839,-1.240,-0.645
9.842,-1.255,-0.675
9.844,-1.255,-0.660
9.847,-1.230,-0.675
9.850,-1.225,-0.650
9.853,-1.205,-0.645
9.856,-1.175,-0.615
9.858,-1.195,-0.605
9.861,-1.185,-0.590
9.864,-1.165,-0.615
9.867,-1.170,-0.615
9.869,-1.165,-0.630
9.872,-1.180,-0.660
9.875,-1.190,-0.655
9.878,-1.200,-0.660
9.881,-1.190,-0.655
9.883,-1.195,-0.645
9.886,-1.195,-0.650
9.889,-1.180,-0.655
9.892,-1.185,-0.640
9.894,-1.185,-0.645
9.897,-1.175,-0.640
9.900,-1.170,-0.615
9.903,-1.160,-0.630
9.906,-1.175,-0.635
9.908,-1.185,-0.620
9.911,-1.180,-0.610
9.914,-1.185,-0.595
9.917,-1.195,-0.590
9.919,-1.170,-0.580
9.922,-1.175,-0.590
9.925,-1.150,-0.635
9.928,-1.150,-0.645
9.931,-1.155,-0.655
9.933,-1.160,-0.660
9.936,-1.160,-0.645
9.939,-1.160,-0.640
9.942,-1.170,-0.620
9.944,-1.160,-0.620
9.947,-1.135,-0.600
9.950,-1.130,-0.620
9.953,-1.110,-0.610
9.956,-1.125,-0.625
9.958,-1.135,-0.615
9.961,-1.160,-0.610
9.964,-1.175,-0.610
9.967,-1.180,-0.630
9.969,-1.160,-0.630
9.972,-1.145,-0.645
9.975,-1.115,-0.645
9.978,-1.095,-0.630
9.981,-1.085,-0.625
9.983,-1.075,-0.615
9.986,-1.050,-0.630
9.989,-1.055,-0.660
9.992,-1.055,-0.685
9.994,-1.040,-0.695
9.997,-1.035,-0.690
10.000,-1.015,-0.675
10.003,-0.980,-0.665
10.006,-0.980,-0.645
10.008,-0.960,-0.625
10.011,-0.955,-0.625
10.014,-0.965,-0.620
10.017,-0.965,-0.605
10.019,-0.995,-0.615
10.022,-1.030,-0.610
10.025,-1.025,-0.600
10.028,-1.035,-0.610
10.031,-1.050,-0.595
10.033,-1.015,-0.595
10.036,-0.970,-0.560
10.039,-0.940,-0.535
10.042,-0.940,-0.510
10.044,-0.950,-0.500
10.047,-0.965,-0.495
10.050,-0.990,-0.495
10.053,-1.005,-0.510
10.056,-1.045,-0.535
10.058,-1.095,-0.570
10.061,-1.120,-0.615
10.064,-1.115,-0.650
10.067,-1.135,-0.675
10.069,-1.145,-0.690
10.072,-1.160,-0.650
10.075,-1.195,-0.625
10.078,-1.190,-0.590
10.081,-1.205,-0.590
10.083,-1.200,-0.585
10.086,-1.190,-0.595
10.089,-1.185,-0.635
10.092,-1.175,-0.635
10.094,-1.160,-0.670
10.097,-1.180,-0.675
10.100,-1.180,-0.675
10.103,-1.195,-0.670
10.106,-1.215,-0.675
10.108,-1.215,-0.665
10.111,-1.195,-0.635
10.114,-1.180,-0.635
10.117,-1.150,-0.630
10.119,-1.140,-0.635
10.122,-1.145,-0.635
10.125,-1.145,-0.630
10.128,-1.185,-0.645
10.131,-1.205,-0.650
10.133,-1.260,-0.665
10.136,-1.265,-0.680
10.139,-1.270,-0.680
10.142,-1.245,-0.675
10.144,-1.225,-0.635
10.147,-1.205,-0.655
10.150,-1.170,-0.640
10.153,-1.160,-0.645
10.156,-1.160,-0.645
10.158,-1.175,-0.680
10.161,-1.190,-0.725
10.164,-1.215,-0.770
10.167,-1.235,-0.820
10.169,-1.225,-0.870
10.172,-1.200,-0.920
10.175,-1.125,-0.995
10.178,-1.000,-1.085
10.181,-0.840,-1.230
10.183,-0.670,-1.390
10.186,-0.520,-1.510
10.189,-0.460,-1.550
10.192,-0.455,-1.545
10.194,-0.510,-1.460
10.197,-0.515,-1.315
10.200,-0.475,-1.170
10.203,-0.320,-0.980
10.206,-0.140,-0.785
10.208,0.025,-0.530
10.211,0.115,-0.205
10.214,0.040,0.065
10.217,-0.220,0.295
10.219,-0.620,0.360
10.222,-1.050,0.295
10.225,-1.445,0.100
10.228,-1.735,-0.125
10.231,-1.900,-0.340
10.233,-1.975,-0.510
10.236,-2.015,-0.590
10.239,-2.070,-0.645
10.242,-2.120,-0.670
10.244,-2.165,-0.705
10.247,-2.220,-0.770
10.250,-2.255,-0.805
10.253,-2.260,-0.830
10.256,-2.255,-0.830
10.258,-2.255,-0.850
10.261,-2.265,-0.860
10.264,-2.285,-0.870
10.267,-2.290,-0.870
10.269,-2.275,-0.865
10.272,-2.230,-0.890
10.275,-2.175,-0.910
10.278,-2.095,-0.915
10.281,-2.005,-0.880
10.283,-1.890,-0.875
10.286,-1.735,-0.810
10.289,-1.625,-0.745
10.292,-1.515,-0.695
10.294,-1.415,-0.650
10.297,-1.365,-0.630
10.300,-1.355,-0.640
10.303,-1.340,-0.615
10.306,-1.320,-0.610
10.308,-1.285,-0.600
10.311,-1.250,-0.605
10.314,-1.225,-0.610
10.317,-1.205,-0.590
10.319,-1.200,-0.580
10.322,-1.185,-0.585
10.325,-1.210,-0.595
10.328,-1.240,-0.625
10.331,-1.270,-0.660
10.333,-1.280,-0.660
10.336,-1.270,-0.680
10.339,-1.280,-0.685
10.342,-1.235,-0.690
10.344,-1.245,-0.675
10.347,-1.245,-0.675
10.350,-1.235,-0.665
10.353,-1.230,-0.650
10.356,-1.250,-0.655
10.358,-1.250,-0.675
10.361,-1.265,-0.680
10.364,-1.270,-0.715
10.367,-1.275,-0.730
10.369,-1.280,-0.755
10.372,-1.275,-0.745
10.375,-1.285,-0.730
10.378,-1.285,-0.725
10.381,-1.305,-0.750
10.383,-1.300,-0.760
10.386,-1.320,-0.805
10.389,-1.325,-0.845
10.392,-1.345,-0.865
10.394,-1.345,-0.880
10.397,-1.350,-0.915
10.400,-1.365,-0.930
10.403,-1.375,-0.945
10.406,-1.400,-0.935
10.408,-1.420,-0.930
10.411,-1.435,-0.925
10.414,-1.450,-0.930
10.417,-1.445,-0.910
10.419,-1.430,-0.920
10.422,-1.435,-0.940
10.425,-1.435,-0.955
10.428,-1.430,-0.940
10.431,-1.430,-0.955
10.433,-1.435,-0.945
10.436,-1.445,-0.980
10.439,-1.460,-0.995
10.442,-1.470,-1.000
10.444,-1.450,-1.005
10.447,-1.435,-1.015
10.450,-1.430,-1.020
10.453,-1.410,-1.015
10.456,-1.420,-1.000
10.458,-1.445,-1.005
10.461,-1.450,-1.010
10.464,-1.445,-1.015
10.467,-1.440,-1.005
10.469,-1.420,-1.015
10.472,-1.415,-1.010
10.475,-1.390,-1.005
10.478,-1.355,-1.005
10.481,-1.335,-0.995
10.483,-1.305,-0.995
10.486,-1.290,-0.960
10.489,-1.285,-0.955
10.492,-1.280,-0.900
10.494,-1.275,-0.890
10.497,-1.280,-0.880
10.500,-1.260,-0.885
10.503,-1.220,-0.895
10.506,-1.210,-0.885
10.508,-1.205,-0.870
10.511,-1.185,-0.860
10.514,-1.170,-0.825
10.517,-1.150,-0.805
10.519,-1.120,-0.785
10.522,-1.110,-0.785
10.525,-1.100,-0.780
10.528,-1.105,-0.775
10.531,-1.130,-0.760
10.533,-1.130,-0.765
10.536,-1.115,-0.730
10.539,-1.110,-0.715
10.542,-1.105,-0.710
10.544,-1.090,-0.705
10.547,-1.065,-0.700
10.550,-1.035,-0.680
10.553,-1.015,-0.670
10.556,-1.040,-0.640
10.558,-1.065,-0.615
10.561,-1.065,-0.625
10.564,-1.105,-0.605
10.567,-1.110,-0.620
10.569,-1.100,-0.620
10.572,-1.100,-0.615
10.575,-1.080,-0.620
10.578,-1.060,-0.630
10.581,-1.040,-0.635
10.583,-1.030,-0.615
10.586,-1.030,-0.630
10.589,-1.040,-0.610
10.592,-1.065,-0.580
10.594,-1.105,-0.600
10.597,-1.115,-0.605
10.600,-1.115,-0.640
10.603,-1.115,-0.650
10.606,-1.115,-0.650
10.608,-1.105,-0.660
10.611,-1.075,-0.680
10.614,-1.075,-0.645
10.617,-1.075,-0.630
10.619,-1.060,-0.615
10.622,-1.075,-0.605
10.625,-1.095,-0.605
10.628,-1.125,-0.620
10.631,-1.160,-0.620
10.633,-1.185,-0.670
10.636,-1.180,-0.670
10.639,-1.160,-0.670
10.642,-1.140,-0.655
10.644,-1.115,-0.650
10.647,-1.105,-0.640
10.650,-1.100,-0.635
10.653,-1.105,-0.640
10.656,-1.110,-0.665
10.658,-1.110,-0.665
10.661,-1.110,-0.685
10.664,-1.115,-0.685
10.667,-1.110,-0.690
10.669,-1.115,-0.665
10.672,-1.130,-0.650
10.675,-1.135,-0.640
10.678,-1.130,-0.625
10.681,-1.130,-0.635
10.683,-1.110,-0.660
10.686,-1.105,-0.665
10.689,-1.105,-0.665
10.692,-1.085,-0.650
10.694,-1.080,-0.635
10.697,-1.090,-0.655
10.700,-1.095,-0.660
10.703,-1.105,-0.675
10.706,-1.115,-0.665
10.708,-1.120,-0.655
10.711,-1.120,-0.630
10.714,-1.120,-0.610
10.717,-1.095,-0.605
10.719,-1.090,-0.615
10.722,-1.115,-0.625
10.725,-1.110,-0.630
10.728,-1.110,-0.650
10.731,-1.095,-0.655
10.733,-1.100,-0.660
10.736,-1.095,-0.660
10.739,-1.095,-0.665
10.742,-1.105,-0.680
10.744,-1.105,-0.660
10.747,-1.105,-0.655
10.750,-1.080,-0.640
10.753,-1.055,-0.620
10.756,-1.050,-0.625
10.758,-1.075,-0.615
10.761,-1.095,-0.605
10.764,-1.135,-0.620
10.767,-1.135,-0.590
10.769,-1.130,-0.630
10.772,-1.125,-0.625
10.775,-1.130,-0.630
10.778,-1.095,-0.645
10.781,-1.075,-0.655
10.783,-1.060,-0.655
10.786,-1.055,-0.645
10.789,-1.050,-0.640
10.792,-1.055,-0.640
10.794,-1.075,-0.645
10.797,-1.075,-0.645
10.800,-1.080,-0.670
10.803,-1.070,-0.675
10.806,-1.075,-0.650
10.808,-1.070,-0.640
10.811,-1.040,-0.630
10.814,-1.040,-0.620
10.817,-1.015,-0.620
10.819,-1.000,-0.650
10.822,-1.010,-0.675
10.825,-1.000,-0.710
10.828,-1.005,-0.715
10.831,-0.980,-0.700
10.833,-0.975,-0.680
10.836,-0.940,-0.660
10.839,-0.925,-0.625
10.842,-0.885,-0.615
10.844,-0.860,-0.605
10.847,-0.865,-0.580
10.850,-0.895,-0.555
10.853,-0.920,-0.560
10.856,-0.945,-0.595
10.858,-0.965,-0.620
10.861,-0.970,-0.655
10.864,-0.990,-0.680
10.867,-0.990,-0.665
10.869,-0.995,-0.655
10.872,-0.975,-0.615
10.875,-0.945,-0.570
10.878,-0.920,-0.535
10.881,-0.885,-0.495
10.883,-0.860,-0.440
10.886,-0.875,-0.425
10.889,-0.920,-0.430
10.892,-0.960,-0.425
10.894,-0.980,-0.450
10.897,-1.000,-0.500
10.900,-1.030,-0.550
10.903,-1.040,-0.590
10.906,-1.050,-0.590
10.908,-1.075,-0.565
10.911,-1.080,-0.555
10.914,-1.085,-0.555
10.917,-1.075,-0.565
10.919,-1.065,-0.575
10.922,-1.055,-0.595
10.925,-1.065,-0.610
10.928,-1.090,-0.645
10.931,-1.125,-0.645
10.933,-1.160,-0.665
10.936,-1.185,-0.650
10.939,-1.200,-0.620
10.942,-1.175,-0.590
10.944,-1.150,-0.555
10.947,-1.125,-0.550
10.950,-1.110,-0.575
10.953,-1.105,-0.580
10.956,-1.130,-0.600
10.958,-1.130,-0.635
10.961,-1.130,-0.640
10.964,-1.135,-0.640
10.967,-1.140,-0.640
10.969,-1.140,-0.635
10.972,-1.150,-0.625
10.975,-1.165,-0.625
10.978,-1.160,-0.605
10.981,-1.155,-0.630
10.983,-1.145,-0.620
10.986,-1.095,-0.605
10.989,-1.095,-0.600
10.992,-1.080,-0.605
10.994,-1.085,-0.625
10.997,-1.110,-0.670
11.000,-1.125,-0.690
11.003,-1.150,-0.695
11.006,-1.180,-0.725
11.008,-1.170,-0.720
11.011,-1.170,-0.765
11.014,-1.120,-0.840
11.017,-1.045,-0.880
11.019,-0.930,-1.000
11.022,-0.770,-1.095
11.025,-0.610,-1.215
11.028,-0.450,-1.340
11.031,-0.350,-1.415
11.033,-0.315,-1.425
11.036,-0.335,-1.375
11.039,-0.385,-1.270
11.042,-0.385,-1.130
11.044,-0.335,-0.980
11.047,-0.225,-0.805
11.050,-0.065,-0.630
11.053,0.105,-0.415
11.056,0.185,-0.160
11.058,0.180,0.100
11.061,0.005,0.325
11.064,-0.345,0.475
11.067,-0.765,0.475
11.069,-1.205,0.335
11.072,-1.575,0.100
11.075,-1.835,-0.160
11.078,-1.975,-0.395
11.081,-2.050,-0.560
11.083,-2.090,-0.655
11.086,-2.110,-0.705
11.089,-2.145,-0.755
11.092,-2.180,-0.800
11.094,-2.190,-0.835
11.097,-2.215,-0.865
11.100,-2.205,-0.870
11.103,-2.175,-0.860
11.106,-2.160,-0.845
11.108,-2.145,-0.820
11.111,-2.115,-0.820
11.114,-2.085,-0.835
11.117,-2.055,-0.835
11.119,-2.025,-0.835
11.122,-1.960,-0.850
11.125,-1.855,-0.825
11.128,-1.715,-0.780
11.131,-1.565,-0.745
11.133,-1.450,-0.690
11.136,-1.355,-0.660
11.139,-1.300,-0.605
11.142,-1.250,-0.565
11.144,-1.230,-0.545
11.147,-1.235,-0.525
11.150,-1.230,-0.535
11.153,-1.225,-0.545
11.156,-1.240,-0.570
11.158,-1.240,-0.595
11.161,-1.245,-0.630
11.164,-1.230,-0.620
11.167,-1.220,-0.625
11.169,-1.210,-0.610
11.172,-1.205,-0.565
11.175,-1.210,-0.530
11.178,-1.170,-0.495
11.181,-1.165,-0.505
11.183,-1.170,-0.525
11.186,-1.175,-0.560
11.189,-1.190,-0.585
11.192,-1.200,-0.620
11.194,-1.210,-0.645
11.197,-1.220,-0.645
11.200,-1.225,-0.650
11.203,-1.220,-0.635
11.206,-1.225,-0.630
11.208,-1.225,-0.640
11.211,-1.215,-0.645
11.214,-1.230,-0.675
11.217,-1.210,-0.685
11.219,-1.225,-0.725
11.222,-1.270,-0.770
11.225,-1.275,-0.790
11.228,-1.285,-0.800
11.231,-1.300,-0.790
11.233,-1.305,-0.790
11.236,-1.315,-0.805
11.239,-1.335,-0.830
11.242,-1.360,-0.860
11.244,-1.380,-0.870
11.247,-1.380,-0.880
11.250,-1.365,-0.880
11.253,-1.355,-0.885
11.256,-1.330,-0.880
11.258,-1.345,-0.915
11.261,-1.360,-0.905
11.264,-1.375,-0.930
11.267,-1.385,-0.950
11.269,-1.415,-0.955
11.272,-1.445,-0.975
11.275,-1.450,-0.970
11.278,-1.435,-0.975
11.281,-1.415,-0.980
11.283,-1.410,-0.955
11.286,-1.390,-0.955
11.289,-1.385,-0.965
11.292,-1.360,-0.990
11.294,-1.380,-0.995
11.297,-1.395,-1.000
11.300,-1.405,-1.020
11.303,-1.415,-1.025
11.306,-1.440,-1.015
11.308,-1.420,-1.025
11.311,-1.400,-0.985
11.314,-1.380,-0.965
11.317,-1.350,-0.925
11.319,-1.305,-0.900
11.322,-1.295,-0.900
11.325,-1.295,-0.895
11.328,-1.285,-0.895
11.331,-1.280,-0.890
11.333,-1.285,-0.875
11.336,-1.275,-0.885
11.339,-1.255,-0.885
11.342,-1.230,-0.875
11.344,-1.205,-0.855
11.347,-1.190,-0.810
11.350,-1.150,-0.790
11.353,-1.135,-0.750
11.356,-1.110,-0.720
11.358,-1.090,-0.705
11.361,-1.070,-0.710
11.364,-1.070,-0.700
11.367,-1.080,-0.735
11.369,-1.090,-0.720
11.372,-1.100,-0.715
11.375,-1.105,-0.690
11.378,-1.070,-0.645
11.381,-1.065,-0.625
11.383,-1.055,-0.590
11.386,-1.030,-0.575
11.389,-1.020,-0.595
11.392,-1.040,-0.630
11.394,-1.045,-0.655
11.397,-1.065,-0.660
11.400,-1.070,-0.640
11.403,-1.065,-0.635
11.406,-1.055,-0.610
11.408,-1.035,-0.600
11.411,-1.025,-0.570
11.414,-1.025,-0.560
11.417,-1.025,-0.550
11.419,-1.025,-0.560
11.422,-1.040,-0.575
11.425,-1.050,-0.580
11.428,-1.055,-0.575
11.431,-1.035,-0.565
11.433,-1.030,-0.570
11.436,-1.035,-0.565
11.439,-1.055,-0.585
11.442,-1.055,-0.575
11.444,-1.065,-0.570
11.447,-1.055,-0.560
11.450,-1.070,-0.555
11.453,-1.050,-0.555
11.456,-1.055,-0.560
11.458,-1.050,-0.565
11.461,-1.045,-0.570
11.464,-1.070,-0.595
11.467,-1.065,-0.590
11.469,-1.080,-0.590
11.472,-1.080,-0.565
11.475,-1.065,-0.560
11.478,-1.045,-0.545
11.481,-1.055,-0.540
11.483,-1.045,-0.535
11.486,-1.050,-0.540
11.489,-1.035,-0.530
11.492,-1.045,-0.550
11.494,-1.070,-0.590
11.497,-1.065,-0.605
11.500,-1.080,-0.620
11.503,-1.075,-0.590
11.506,-1.075,-0.535
11.508,-1.055,-0.490
11.511,-1.050,-0.490
11.514,-1.035,-0.515
11.517,-1.025,-0.575
11.519,-1.005,-0.615
11.522,-1.000,-0.630
11.525,-0.995,-0.630
11.528,-0.990,-0.615
11.531,-0.990,-0.615
11.533,-1.005,-0.630
11.536,-1.025,-0.630
11.539,-1.045,-0.655
11.542,-1.055,-0.660
11.544,-1.055,-0.650
11.547,-1.050,-0.615
11.550,-1.030,-0.585
11.553,-1.010,-0.545
11.556,-0.995,-0.525
11.558,-0.980,-0.510
11.561,-0.985,-0.515
11.564,-1.015,-0.560
11.567,-1.040,-0.590
11.569,-1.060,-0.625
11.572,-1.060,-0.615
11.575,-1.055,-0.605
11.578,-1.035,-0.600
11.581,-1.015,-0.595
11.583,-0.995,-0.585
11.586,-0.980,-0.580
11.589,-0.965,-0.570
11.592,-0.990,-0.575
11.594,-0.985,-0.575
11.597,-0.990,-0.585
11.600,-0.995,-0.605
11.603,-1.010,-0.630
11.606,-1.005,-0.625
11.608,-1.000,-0.615
11.611,-0.985,-0.605
11.614,-0.975,-0.600
11.617,-0.950,-0.610
11.619,-0.955,-0.590
11.622,-0.960,-0.595
11.625,-0.960,-0.575
11.628,-0.975,-0.555
11.631,-0.965,-0.560
11.633,-0.960,-0.565
11.636,-0.975,-0.595
11.639,-0.950,-0.600
11.642,-0.945,-0.580
11.644,-0.930,-0.580
11.647,-0.900,-0.580
11.650,-0.895,-0.575
11.653,-0.870,-0.570
11.656,-0.865,-0.610
11.658,-0.840,-0.630
11.661,-0.845,-0.655
11.664,-0.840,-0.670
11.667,-0.860,-0.695
11.669,-0.845,-0.680
11.672,-0.835,-0.680
11.675,-0.825,-0.665
11.678,-0.795,-0.650
11.681,-0.785,-0.640
11.683,-0.810,-0.635
11.686,-0.835,-0.605
11.689,-0.855,-0.575
11.692,-0.860,-0.555
11.694,-0.870,-0.540
11.697,-0.875,-0.565
11.700,-0.895,-0.590
11.703,-0.895,-0.630
11.706,-0.895,-0.625
11.708,-0.885,-0.635
11.711,-0.845,-0.615
11.714,-0.830,-0.580
11.717,-0.795,-0.535
11.719,-0.765,-0.515
11.722,-0.750,-0.475
11.725,-0.785,-0.445
11.728,-0.795,-0.465
11.731,-0.830,-0.505
11.733,-0.870,-0.555
11.736,-0.925,-0.600
11.739,-0.960,-0.640
11.742,-0.940,-0.635
11.744,-0.945,-0.635
11.747,-0.910,-0.620
11.750,-0.900,-0.585
11.753,-0.890,-0.565
11.756,-0.915,-0.560
11.758,-0.935,-0.585
11.761,-0.960,-0.625
11.764,-1.015,-0.660
11.767,-1.035,-0.670
11.769,-1.055,-0.675
11.772,-1.070,-0.665
11.775,-1.050,-0.670
11.778,-1.015,-0.625
11.781,-1.005,-0.600
11.783,-1.000,-0.590
11.786,-0.985,-0.590
11.789,-1.000,-0.610
11.792,-1.000,-0.650
11.794,-1.030,-0.670
11.797,-1.030,-0.680
11.800,-1.035,-0.680
11.803,-1.055,-0.660
11.806,-1.060,-0.650
11.808,-1.065,-0.620
11.811,-1.065,-0.605
11.814,-1.035,-0.610
11.817,-1.025,-0.615
11.819,-1.005,-0.630
11.822,-0.995,-0.650
11.825,-0.995,-0.650
11.828,-1.000,-0.655
11.831,-1.005,-0.650
11.833,-1.030,-0.670
11.836,-1.035,-0.670
11.839,-1.040,-0.685
11.842,-1.055,-0.715
11.844,-1.050,-0.720
11.847,-1.060,-0.725
11.850,-1.055,-0.760
11.853,-1.055,-0.780
11.856,-1.050,-0.870
11.858,-1.030,-0.955
11.861,-0.950,-1.080
11.864,-0.845,-1.210
11.867,-0.725,-1.335
11.869,-0.615,-1.445
11.872,-0.505,-1.535
11.875,-0.440,-1.585
11.878,-0.415,-1.570
11.881,-0.415,-1.495
11.883,-0.420,-1.360
11.886,-0.395,-1.245
11.889,-0.270,-1.105
11.892,-0.130,-0.960
11.894,0.045,-0.790
11.897,0.185,-0.545
11.900,0.220,-0.250
11.903,0.110,0.035
11.906,-0.175,0.255
11.908,-0.550,0.350
11.911,-0.945,0.295
11.914,-1.265,0.115
11.917,-1.505,-0.090
11.919,-1.655,-0.300
11.922,-1.720,-0.465
11.925,-1.775,-0.560
11.928,-1.825,-0.625
11.931,-1.875,-0.685
11.933,-1.915,-0.755
11.936,-1.950,-0.795
11.939,-1.965,-0.835
11.942,-1.960,-0.845
11.944,-1.955,-0.795
11.947,-1.925,-0.770
11.950,-1.930,-0.735
11.953,-1.925,-0.730
11.956,-1.915,-0.755
11.958,-1.900,-0.770
11.961,-1.880,-0.815
11.964,-1.805,-0.840
11.967,-1.705,-0.865
11.969,-1.575,-0.845
11.972,-1.460,-0.815
11.975,-1.380,-0.760
11.978,-1.305,-0.705
11.981,-1.245,-0.645
11.983,-1.205,-0.625
11.986,-1.150,-0.585
11.989,-1.140,-0.575
11.992,-1.115,-0.580
11.994,-1.105,-0.595
11.997,-1.095,-0.635
12.000,-1.075,-0.655
12.003,-1.075,-0.660
12.006,-1.060,-0.670
12.008,-1.075,-0.660
12.011,-1.090,-0.650
12.014,-1.100,-0.625
12.017,-1.100,-0.600
12.019,-1.105,-0.595
12.022,-1.110,-0.620
12.025,-1.105,-0.645
12.028,-1.090,-0.665
12.031,-1.095,-0.680
12.033,-1.085,-0.705
12.036,-1.095,-0.720
12.039,-1.105,-0.715
12.042,-1.110,-0.725
12.044,-1.110,-0.715
12.047,-1.125,-0.725
12.050,-1.110,-0.720
12.053,-1.115,-0.740
12.056,-1.100,-0.755
12.058,-1.125,-0.790
12.061,-1.140,-0.830
12.064,-1.165,-0.825
12.067,-1.180,-0.845
12.069,-1.185,-0.860
12.072,-1.190,-0.860
12.075,-1.205,-0.875
12.078,-1.190,-0.885
12.081,-1.195,-0.895
12.083,-1.210,-0.895
12.086,-1.225,-0.900
12.089,-1.235,-0.900
12.092,-1.220,-0.890
12.094,-1.250,-0.895
12.097,-1.255,-0.915
12.100,-1.255,-0.955
12.103,-1.260,-0.975
12.106,-1.270,-0.985
12.108,-1.290,-0.980
12.111,-1.305,-0.985
12.114,-1.315,-0.975
12.117,-1.315,-0.980
12.119,-1.290,-0.985
12.122,-1.290,-1.020
12.125,-1.310,-1.040
12.128,-1.300,-1.070
12.131,-1.325,-1.075
12.133,-1.360,-1.060
12.136,-1.335,-1.075
12.139,-1.360,-1.050
12.142,-1.345,-1.045
12.144,-1.330,-1.035
12.147,-1.310,-1.035
12.150,-1.295,-1.020
12.153,-1.265,-1.030
12.156,-1.255,-1.025
12.158,-1.230,-1.025
12.161,-1.215,-1.040
12.164,-1.240,-1.045
12.167,-1.240,-1.040
12.169,-1.230,-1.045
12.172,-1.220,-1.030
12.175,-1.200,-1.020
12.178,-1.175,-1.005
12.181,-1.135,-1.000
12.183,-1.115,-0.995
12.186,-1.085,-0.980
12.189,-1.075,-0.995
12.192,-1.080,-0.945
12.194,-1.070,-0.910
12.197,-1.065,-0.865
12.200,-1.040,-0.840
12.203,-1.025,-0.825
12.206,-1.015,-0.820
12.208,-1.000,-0.830
12.211,-0.990,-0.805
12.214,-0.990,-0.810
12.217,-0.985,-0.800
12.219,-0.965,-0.780
12.222,-0.960,-0.765
12.225,-0.945,-0.750
12.228,-0.930,-0.770
12.231,-0.930,-0.760
12.233,-0.945,-0.770
12.236,-0.960,-0.770
12.239,-0.960,-0.755
12.242,-0.985,-0.720
12.244,-0.985,-0.710
12.247,-0.960,-0.680
12.250,-0.945,-0.695
12.253,-0.900,-0.685
12.256,-0.900,-0.705
12.258,-0.910,-0.700
12.261,-0.940,-0.670
12.264,-0.955,-0.640
12.267,-0.990,-0.620
12.269,-0.980,-0.630
12.272,-0.985,-0.640
12.275,-0.980,-0.655
12.278,-0.990,-0.665
12.281,-0.965,-0.665
12.283,-0.960,-0.700
12.286,-0.945,-0.680
12.289,-0.945,-0.665
12.292,-0.935,-0.645
12.294,-0.930,-0.650
12.297,-0.930,-0.660
12.300,-0.935,-0.655
12.303,-0.965,-0.675
12.306,-0.970,-0.700
12.308,-0.970,-0.685
12.311,-0.970,-0.670
12.314,-0.985,-0.685
12.317,-0.975,-0.670
12.319,-0.965,-0.660
12.322,-0.965,-0.670
12.325,-0.965,-0.680
12.328,-0.970,-0.665
12.331,-0.970,-0.675
12.333,-0.975,-0.685
12.336,-0.965,-0.680
12.339,-0.980,-0.695
12.342,-0.950,-0.705
12.344,-0.950,-0.680
12.347,-0.935,-0.670
12.350,-0.945,-0.670
12.353,-0.925,-0.680
12.356,-0.925,-0.695
12.358,-0.925,-0.705
12.361,-0.935,-0.695
12.364,-0.935,-0.730
12.367,-0.960,-0.715
12.369,-0.960,-0.710
12.372,-0.960,-0.710
12.375,-0.980,-0.720
12.378,-0.960,-0.690
12.381,-0.955,-0.685
12.383,-0.950,-0.660
12.386,-0.930,-0.650
12.389,-0.940,-0.645
12.392,-0.955,-0.655
12.394,-0.940,-0.665
12.397,-0.935,-0.675
12.400,-0.960,-0.685
12.403,-0.945,-0.685
12.406,-0.950,-0.700
12.408,-0.925,-0.685
12.411,-0.885,-0.695
12.414,-0.870,-0.680
12.417,-0.870,-0.675
12.419,-0.850,-0.660
12.422,-0.850,-0.660
12.425,-0.840,-0.655
12.428,-0.845,-0.645
12.431,-0.855,-0.670
12.433,-0.845,-0.685
12.436,-0.855,-0.695
12.439,-0.855,-0.690
12.442,-0.830,-0.690
12.444,-0.840,-0.670
12.447,-0.825,-0.670
12.450,-0.815,-0.665
12.453,-0.790,-0.655
12.456,-0.790,-0.650
12.458,-0.785,-0.645
12.461,-0.785,-0.655
12.464,-0.775,-0.670
12.467,-0.775,-0.680
12.469,-0.800,-0.680
12.472,-0.785,-0.700
12.475,-0.770,-0.675
12.478,-0.755,-0.685
12.481,-0.730,-0.665
12.483,-0.710,-0.665
12.486,-0.715,-0.660
12.489,-0.690,-0.680
12.492,-0.690,-0.710
12.494,-0.705,-0.730
12.497,-0.695,-0.765
12.500,-0.700,-0.765
12.503,-0.700,-0.755
12.506,-0.675,-0.755
12.508,-0.655,-0.750
12.511,-0.630,-0.720
12.514,-0.605,-0.715
12.517,-0.580,-0.700
12.519,-0.560,-0.680
12.522,-0.535,-0.655
12.525,-0.545,-0.650
12.528,-0.550,-0.640
12.531,-0.605,-0.645
12.533,-0.630,-0.650
12.536,-0.660,-0.645
12.539,-0.685,-0.650
12.542,-0.695,-0.660
12.544,-0.690,-0.670
12.547,-0.670,-0.655
12.550,-0.650,-0.640
12.553,-0.605,-0.600
12.556,-0.570,-0.565
12.558,-0.540,-0.540
12.561,-0.540,-0.530
12.564,-0.570,-0.525
12.567,-0.615,-0.540
12.569,-0.655,-0.535
12.572,-0.700,-0.585
12.575,-0.710,-0.595
12.578,-0.735,-0.615
12.581,-0.725,-0.630
12.583,-0.720,-0.610
12.586,-0.710,-0.615
12.589,-0.720,-0.620
12.592,-0.720,-0.640
12.594,-0.720,-0.665
12.597,-0.765,-0.695
12.600,-0.775,-0.710
12.603,-0.805,-0.695
12.606,-0.810,-0.680
12.608,-0.810,-0.650
12.611,-0.785,-0.620
12.614,-0.780,-0.640
12.617,-0.765,-0.620
12.619,-0.750,-0.660
12.622,-0.745,-0.660
12.625,-0.740,-0.690
12.628,-0.745,-0.695
12.631,-0.740,-0.710
12.633,-0.740,-0.705
12.636,-0.750,-0.700
12.639,-0.740,-0.705
12.642,-0.750,-0.700
12.644,-0.740,-0.695
12.647,-0.730,-0.690
12.650,-0.715,-0.690
12.653,-0.720,-0.690
12.656,-0.735,-0.705
12.658,-0.740,-0.710
12.661,-0.735,-0.715
12.664,-0.740,-0.715
12.667,-0.745,-0.705
12.669,-0.760,-0.725
12.672,-0.745,-0.745
12.675,-0.750,-0.750
12.678,-0.760,-0.790
12.681,-0.765,-0.825
12.683,-0.780,-0.875
12.686,-0.760,-0.965
12.689,-0.710,-1.075
12.692,-0.625,-1.205
12.694,-0.495,-1.355
12.697,-0.365,-1.510
12.700,-0.245,-1.645
12.703,-0.145,-1.700
12.706,-0.115,-1.680
12.708,-0.100,-1.565
12.711,-0.095,-1.425
12.714,-0.035,-1.255
12.717,0.075,-1.090
12.719,0.240,-0.920
12.722,0.415,-0.715
12.725,0.540,-0.475
12.728,0.565,-0.185
12.731,0.445,0.090
12.733,0.175,0.285
12.736,-0.215,0.335
12.739,-0.630,0.250
12.742,-1.000,0.080
12.744,-1.255,-0.150
12.747,-1.380,-0.345
12.750,-1.460,-0.460
12.753,-1.505,-0.570
12.756,-1.565,-0.630
12.758,-1.640,-0.665
12.761,-1.695,-0.730
12.764,-1.740,-0.785
12.767,-1.775,-0.845
12.769,-1.785,-0.845
12.772,-1.805,-0.870
12.775,-1.800,-0.860
12.778,-1.790,-0.845
12.781,-1.775,-0.850
12.783,-1.775,-0.850
12.786,-1.735,-0.850
12.789,-1.705,-0.860
12.792,-1.635,-0.875
12.794,-1.570,-0.895
12.797,-1.495,-0.895
12.800,-1.360,-0.870
12.803,-1.255,-0.835
12.806,-1.145,-0.790
12.808,-1.045,-0.755
12.811,-0.970,-0.680
12.814,-0.905,-0.645
12.817,-0.880,-0.635
12.819,-0.865,-0.605
12.822,-0.870,-0.620
12.825,-0.870,-0.630
12.828,-0.860,-0.650
12.831,-0.865,-0.670
12.833,-0.850,-0.675
12.836,-0.835,-0.660
12.839,-0.840,-0.660
12.842,-0.830,-0.650
12.844,-0.840,-0.650
12.847,-0.820,-0.655
12.850,-0.815,-0.655
12.853,-0.810,-0.645
12.856,-0.820,-0.675
12.858,-0.820,-0.685
12.861,-0.820,-0.700
12.864,-0.840,-0.705
12.867,-0.845,-0.695
12.869,-0.865,-0.705
12.872,-0.880,-0.720
12.875,-0.865,-0.730
12.878,-0.860,-0.725
12.881,-0.850,-0.760
12.883,-0.840,-0.750
12.886,-0.860,-0.760
12.889,-0.840,-0.780
12.892,-0.870,-0.800
12.894,-0.885,-0.820
12.897,-0.905,-0.830
12.900,-0.910,-0.855
12.903,-0.930,-0.870
12.906,-0.945,-0.880
12.908,-0.945,-0.885
12.911,-0.980,-0.895
12.914,-0.975,-0.905
12.917,-0.965,-0.915
12.919,-0.985,-0.925
12.922,-0.970,-0.955
12.925,-0.985,-0.975
12.928,-1.000,-1.000
12.931,-1.015,-1.000
12.933,-1.025,-0.995
12.936,-1.025,-1.035
12.939,-1.030,-1.040
12.942,-1.035,-1.040
12.944,-1.045,-1.035
12.947,-1.040,-1.040
12.950,-1.045,-1.020
12.953,-1.060,-1.020
12.956,-1.045,-1.025
12.958,-1.040,-1.020
12.961,-1.045,-1.060
12.964,-1.060,-1.080
12.967,-1.065,-1.085
12.969,-1.070,-1.100
12.972,-1.060,-1.105
12.975,-1.075,-1.100
12.978,-1.070,-1.090
12.981,-1.055,-1.085
12.983,-1.025,-1.070
12.986,-0.990,-1.055
12.989,-0.975,-1.060
12.992,-0.950,-1.045
12.994,-0.935,-1.030
12.997,-0.925,-1.030
13.000,-0.920,-1.035
13.003,-0.905,-1.030
13.006,-0.900,-1.015
13.008,-0.870,-0.990
13.011,-0.835,-0.980
13.014,-0.825,-0.960
13.017,-0.810,-0.935
13.019,-0.775,-0.895
13.022,-0.765,-0.890
13.025,-0.755,-0.875
13.028,-0.745,-0.870
13.031,-0.745,-0.855
13.033,-0.740,-0.850
13.036,-0.730,-0.840
13.039,-0.730,-0.830
13.042,-0.725,-0.825
13.044,-0.715,-0.790
13.047,-0.695,-0.755
13.050,-0.685,-0.740
13.053,-0.675,-0.720
13.056,-0.665,-0.720
13.058,-0.670,-0.730
13.061,-0.670,-0.755
13.064,-0.670,-0.760
13.067,-0.670,-0.770
13.069,-0.690,-0.775
13.072,-0.690,-0.765
13.075,-0.680,-0.750
13.078,-0.665,-0.725
13.081,-0.660,-0.730
13.083,-0.655,-0.700
13.086,-0.645,-0.695
13.089,-0.640,-0.685
13.092,-0.640,-0.680
13.094,-0.645,-0.700
13.097,-0.650,-0.700
13.100,-0.675,-0.710
13.103,-0.690,-0.705
13.106,-0.710,-0.690
13.108,-0.690,-0.700
13.111,-0.675,-0.705
13.114,-0.660,-0.705
13.117,-0.650,-0.675
13.119,-0.645,-0.680
13.122,-0.650,-0.670
13.125,-0.660,-0.700
13.128,-0.695,-0.690
13.131,-0.690,-0.700
13.133,-0.705,-0.710
13.136,-0.710,-0.725
13.139,-0.725,-0.730
13.142,-0.745,-0.725
13.144,-0.735,-0.715
13.147,-0.720,-0.700
13.150,-0.720,-0.710
13.153,-0.725,-0.695
13.156,-0.700,-0.690
13.158,-0.705,-0.685
13.161,-0.700,-0.680
13.164,-0.715,-0.680
13.167,-0.715,-0.685
13.169,-0.735,-0.700
13.172,-0.745,-0.725
13.175,-0.730,-0.710
13.178,-0.730,-0.715
13.181,-0.710,-0.700
13.183,-0.700,-0.670
13.186,-0.690,-0.680
13.189,-0.680,-0.660
13.192,-0.670,-0.645
13.194,-0.680,-0.680
13.197,-0.690,-0.685
13.200,-0.710,-0.680
13.203,-0.740,-0.685
13.206,-0.745,-0.675
13.208,-0.735,-0.690
13.211,-0.725,-0.690
13.214,-0.705,-0.680
13.217,-0.705,-0.685
13.219,-0.685,-0.700
13.222,-0.680,-0.715
13.225,-0.675,-0.720
13.228,-0.675,-0.720
13.231,-0.690,-0.705
13.233,-0.700,-0.685
13.236,-0.710,-0.680
13.239,-0.725,-0.690
13.242,-0.705,-0.680
13.244,-0.700,-0.660
13.247,-0.695,-0.665
13.250,-0.700,-0.670
13.253,-0.695,-0.665
13.256,-0.700,-0.670
13.258,-0.705,-0.695
13.261,-0.705,-0.700
13.264,-0.710,-0.705
13.267,-0.730,-0.745
13.269,-0.720,-0.735
13.272,-0.730,-0.740
13.275,-0.725,-0.715
13.278,-0.725,-0.690
13.281,-0.705,-0.670
13.283,-0.690,-0.640
13.286,-0.675,-0.635
13.289,-0.665,-0.645
13.292,-0.680,-0.665
13.294,-0.680,-0.680
13.297,-0.690,-0.715
13.300,-0.690,-0.725
13.303,-0.695,-0.705
13.306,-0.695,-0.695
13.308,-0.690,-0.685
13.311,-0.690,-0.650
13.314,-0.660,-0.660
13.317,-0.650,-0.660
13.319,-0.630,-0.655
13.322,-0.620,-0.660
13.325,-0.620,-0.690
13.328,-0.615,-0.695
13.331,-0.615,-0.715
13.333,-0.620,-0.725
13.336,-0.630,-0.715
13.339,-0.635,-0.730
13.342,-0.635,-0.715
13.344,-0.615,-0.695
13.347,-0.585,-0.705
13.350,-0.530,-0.685
13.353,-0.500,-0.685
13.356,-0.470,-0.660
13.358,-0.485,-0.640
13.361,-0.505,-0.615
13.364,-0.535,-0.610
13.367,-0.545,-0.630
13.369,-0.585,-0.650
13.372,-0.615,-0.665
13.375,-0.635,-0.660
13.378,-0.620,-0.635
13.381,-0.575,-0.600
13.383,-0.560,-0.540
13.386,-0.525,-0.480
13.389,-0.495,-0.415
13.392,-0.505,-0.360
13.394,-0.505,-0.305
13.397,-0.515,-0.295
13.400,-0.510,-0.320
13.403,-0.525,-0.405
13.406,-0.560,-0.510
13.408,-0.590,-0.630
13.411,-0.615,-0.695
13.414,-0.655,-0.740
13.417,-0.660,-0.700
13.419,-0.680,-0.610
13.422,-0.705,-0.505
13.425,-0.705,-0.475
13.428,-0.730,-0.530
13.431,-0.745,-0.615
13.433,-0.745,-0.715
13.436,-0.775,-0.745
13.439,-0.785,-0.765
13.442,-0.800,-0.760
13.444,-0.810,-0.735
13.447,-0.780,-0.710
13.450,-0.770,-0.685
13.453,-0.765,-0.665
13.456,-0.755,-0.670
13.458,-0.765,-0.675
13.461,-0.755,-0.680
13.464,-0.750,-0.675
13.467,-0.750,-0.660
13.469,-0.740,-0.670
13.472,-0.730,-0.675
13.475,-0.750,-0.650
13.478,-0.755,-0.635
13.481,-0.750,-0.635
13.483,-0.745,-0.635
13.486,-0.740,-0.630
13.489,-0.765,-0.640
13.492,-0.770,-0.680
13.494,-0.760,-0.690
13.497,-0.775,-0.690
13.500,-0.790,-0.695
13.503,-0.800,-0.690
13.506,-0.795,-0.715
13.508,-0.780,-0.705
13.511,-0.760,-0.720
13.514,-0.750,-0.735
13.517,-0.760,-0.755
13.519,-0.760,-0.790
13.522,-0.765,-0.845
13.525,-0.730,-0.920
13.528,-0.710,-1.010
13.531,-0.640,-1.125
13.533,-0.535,-1.245
13.536,-0.415,-1.355
13.539,-0.270,-1.465
13.542,-0.135,-1.555
13.544,-0.045,-1.565
13.547,-0.010,-1.500
13.550,-0.040,-1.405
13.553,-0.050,-1.255
13.556,-0.025,-1.125
13.558,0.055,-1.020
13.561,0.165,-0.880
13.564,0.310,-0.740
13.567,0.430,-0.525
13.569,0.490,-0.235
13.572,0.420,0.045
13.575,0.205,0.265
13.578,-0.160,0.375
13.581,-0.575,0.300
13.583,-0.970,0.110
13.586,-1.280,-0.155
13.589,-1.460,-0.400
13.592,-1.550,-0.595
13.594,-1.610,-0.695
13.597,-1.665,-0.755
13.600,-1.700,-0.810
13.603,-1.740,-0.870
13.606,-1.760,-0.905
13.608,-1.800,-0.930
13.611,-1.825,-0.945
13.614,-1.815,-0.920
13.617,-1.825,-0.920
13.619,-1.815,-0.905
13.622,-1.810,-0.900
13.625,-1.795,-0.900
13.628,-1.770,-0.905
13.631,-1.745,-0.915
13.633,-1.685,-0.950
13.636,-1.615,-0.955
13.639,-1.490,-0.970
13.642,-1.335,-0.915
13.644,-1.190,-0.840
13.647,-1.025,-0.775
13.650,-0.910,-0.700
13.653,-0.845,-0.675
13.656,-0.820,-0.655
13.658,-0.830,-0.670
13.661,-0.855,-0.670
13.664,-0.860,-0.690
13.667,-0.865,-0.680
13.669,-0.870,-0.685
13.672,-0.860,-0.685
13.675,-0.855,-0.680
13.678,-0.830,-0.645
13.681,-0.810,-0.645
13.683,-0.805,-0.650
13.686,-0.805,-0.650
13.689,-0.800,-0.640
13.692,-0.805,-0.660
13.694,-0.795,-0.705
13.697,-0.800,-0.705
13.700,-0.810,-0.735
13.703,-0.825,-0.720
13.706,-0.845,-0.755
13.708,-0.845,-0.750
13.711,-0.825,-0.730
13.714,-0.830,-0.750
13.717,-0.840,-0.755
13.719,-0.845,-0.760
13.722,-0.865,-0.785
13.725,-0.885,-0.810
13.728,-0.890,-0.840
13.731,-0.885,-0.840
13.733,-0.895,-0.875
13.736,-0.920,-0.875
13.739,-0.925,-0.895
13.742,-0.935,-0.900
13.744,-0.955,-0.905
13.747,-0.950,-0.920
13.750,-0.945,-0.930
13.753,-0.960,-0.925
13.756,-0.960,-0.950
13.758,-0.975,-0.955
13.761,-0.985,-0.975
13.764,-1.000,-1.010
13.767,-1.030,-1.005
13.769,-1.045,-1.035
13.772,-1.045,-1.060
13.775,-1.050,-1.050
13.778,-1.080,-1.055
13.781,-1.055,-1.060
13.783,-1.060,-1.065
13.786,-1.055,-1.065
13.789,-1.045,-1.045
13.792,-1.075,-1.055
13.794,-1.060,-1.040
13.797,-1.070,-1.075
13.800,-1.080,-1.105
13.803,-1.090,-1.105
13.806,-1.080,-1.115
13.808,-1.085,-1.120
13.811,-1.080,-1.100
13.814,-1.080,-1.070
13.817,-1.065,-1.060
13.819,-1.060,-1.050
13.822,-1.035,-1.080
13.825,-1.035,-1.090
13.828,-1.015,-1.100
13.831,-1.025,-1.085
13.833,-1.025,-1.080
13.836,-0.995,-1.050
13.839,-0.970,-1.070
13.842,-0.955,-1.055
13.844,-0.950,-1.050
13.847,-0.945,-1.020
13.850,-0.905,-0.980
13.853,-0.905,-0.940
13.856,-0.870,-0.910
13.858,-0.855,-0.870
13.861,-0.835,-0.845
13.864,-0.815,-0.865
13.867,-0.810,-0.890
13.869,-0.830,-0.925
13.872,-0.815,-0.950
13.875,-0.825,-0.945
13.878,-0.805,-0.900
13.881,-0.805,-0.870
13.883,-0.795,-0.850
13.886,-0.785,-0.820
13.889,-0.775,-0.810
13.892,-0.770,-0.810
13.894,-0.760,-0.810
13.897,-0.765,-0.815
13.900,-0.750,-0.810
13.903,-0.765,-0.795
13.906,-0.760,-0.775
13.908,-0.760,-0.760
13.911,-0.735,-0.725
13.914,-0.735,-0.705
13.917,-0.735,-0.690
13.919,-0.730,-0.695
13.922,-0.725,-0.705
13.925,-0.730,-0.705
13.928,-0.725,-0.715
13.931,-0.735,-0.720
13.933,-0.750,-0.720
13.936,-0.750,-0.715
13.939,-0.780,-0.720
13.942,-0.760,-0.700
13.944,-0.750,-0.670
13.947,-0.760,-0.660
13.950,-0.740,-0.660
13.953,-0.730,-0.645
13.956,-0.705,-0.675
13.958,-0.715,-0.685
13.961,-0.720,-0.685
13.964,-0.750,-0.700
13.967,-0.770,-0.690
13.969,-0.785,-0.705
13.972,-0.785,-0.730
13.975,-0.780,-0.725
13.978,-0.775,-0.705
13.981,-0.760,-0.685
13.983,-0.745,-0.675
13.986,-0.735,-0.655
13.989,-0.730,-0.660
13.992,-0.740,-0.675
13.994,-0.745,-0.675
13.997,-0.775,-0.695
14.000,-0.790,-0.695
14.003,-0.805,-0.700
14.006,-0.820,-0.715
14.008,-0.805,-0.740
14.011,-0.785,-0.740
14.014,-0.775,-0.755
14.017,-0.765,-0.745
14.019,-0.800,-0.710
14.022,-0.795,-0.700
14.025,-0.795,-0.720
14.028,-0.795,-0.715
14.031,-0.800,-0.730
14.033,-0.795,-0.735
14.036,-0.805,-0.745
14.039,-0.805,-0.735
14.042,-0.795,-0.735
14.044,-0.800,-0.725
14.047,-0.800,-0.715
14.050,-0.785,-0.705
14.053,-0.770,-0.695
14.056,-0.760,-0.725
14.058,-0.765,-0.715
14.061,-0.765,-0.725
14.064,-0.770,-0.725
14.067,-0.790,-0.720
14.069,-0.795,-0.720
14.072,-0.790,-0.725
14.075,-0.780,-0.720
14.078,-0.750,-0.700
14.081,-0.755,-0.695
14.083,-0.735,-0.680
14.086,-0.745,-0.680
14.089,-0.730,-0.695
14.092,-0.730,-0.695
14.094,-0.735,-0.705
14.097,-0.755,-0.695
14.100,-0.745,-0.720
14.103,-0.770,-0.725
14.106,-0.780,-0.730
14.108,-0.750,-0.720
14.111,-0.750,-0.695
14.114,-0.735,-0.670
14.117,-0.735,-0.670
14.119,-0.735,-0.690
14.122,-0.725,-0.735
14.125,-0.725,-0.740
14.128,-0.735,-0.730
14.131,-0.730,-0.740
14.133,-0.720,-0.745
14.136,-0.730,-0.755
14.139,-0.715,-0.750
14.142,-0.680,-0.765
14.144,-0.675,-0.760
14.147,-0.655,-0.755
14.150,-0.630,-0.755
14.153,-0.630,-0.740
14.156,-0.625,-0.760
14.158,-0.640,-0.770
14.161,-0.615,-0.770
14.164,-0.620,-0.755
14.167,-0.605,-0.740
14.169,-0.630,-0.720
14.172,-0.610,-0.680
14.175,-0.620,-0.675
14.178,-0.625,-0.675
14.181,-0.625,-0.675
14.183,-0.630,-0.680
14.186,-0.640,-0.695
14.189,-0.630,-0.695
14.192,-0.615,-0.660
14.194,-0.580,-0.640
14.197,-0.570,-0.620
14.200,-0.570,-0.610
14.203,-0.610,-0.620
14.206,-0.640,-0.635
14.208,-0.675,-0.620
14.211,-0.695,-0.615
14.214,-0.700,-0.620
14.217,-0.710,-0.625
14.219,-0.710,-0.660
14.222,-0.705,-0.680
14.225,-0.720,-0.690
14.228,-0.735,-0.705
14.231,-0.765,-0.700
14.233,-0.805,-0.690
14.236,-0.825,-0.695
14.239,-0.840,-0.675
14.242,-0.860,-0.705
14.244,-0.865,-0.700
14.247,-0.845,-0.660
14.250,-0.830,-0.625
14.253,-0.800,-0.640
14.256,-0.785,-0.710
14.258,-0.795,-0.780
14.261,-0.795,-0.800
14.264,-0.810,-0.825
14.267,-0.840,-0.790
14.269,-0.870,-0.745
14.272,-0.875,-0.720
14.275,-0.905,-0.720
14.278,-0.910,-0.705
14.281,-0.905,-0.705
14.283,-0.880,-0.670
14.286,-0.840,-0.615
14.289,-0.825,-0.595
14.292,-0.795,-0.630
14.294,-0.790,-0.685
14.297,-0.805,-0.735
14.300,-0.820,-0.800
14.303,-0.835,-0.860
14.306,-0.835,-0.905
14.308,-0.840,-0.900
14.311,-0.820,-0.850
14.314,-0.810,-0.815
14.317,-0.815,-0.790
14.319,-0.845,-0.820
14.322,-0.885,-0.885
14.325,-0.905,-0.985
14.328,-0.900,-1.110
14.331,-0.830,-1.275
14.333,-0.710,-1.455
14.336,-0.590,-1.635
14.339,-0.450,-1.770
14.342,-0.320,-1.835
14.344,-0.270,-1.785
14.347,-0.270,-1.665
14.350,-0.290,-1.455
14.353,-0.290,-1.255
14.356,-0.235,-1.165
14.358,-0.080,-1.110
14.361,0.100,-1.010
14.364,0.320,-0.805
14.367,0.455,-0.505
14.369,0.460,-0.150
14.372,0.295,0.120
14.375,-0.020,0.280
14.378,-0.430,0.245
14.381,-0.835,0.080
14.383,-1.170,-0.155
14.386,-1.365,-0.335
14.389,-1.490,-0.485
14.392,-1.570,-0.550
14.394,-1.630,-0.625
14.397,-1.705,-0.690
14.400,-1.775,-0.735
14.403,-1.830,-0.785
14.406,-1.880,-0.845
14.408,-1.900,-0.895
14.411,-1.895,-0.910
14.414,-1.860,-0.885
14.417,-1.830,-0.865
14.419,-1.805,-0.835
14.422,-1.790,-0.840
14.425,-1.775,-0.860
14.428,-1.740,-0.895
14.431,-1.690,-0.925
14.433,-1.615,-0.955
14.436,-1.540,-0.945
14.439,-1.435,-0.905
14.442,-1.340,-0.800
14.444,-1.175,-0.665
14.447,-1.050,-0.570
14.450,-0.960,-0.565
14.453,-0.925,-0.640
14.456,-0.910,-0.720
14.458,-0.900,-0.770
14.461,-0.895,-0.780
14.464,-0.885,-0.750
14.467,-0.875,-0.715
14.469,-0.870,-0.700
14.472,-0.855,-0.695
14.475,-0.880,-0.700
14.478,-0.880,-0.685
14.481,-0.890,-0.680
14.483,-0.870,-0.660
14.486,-0.870,-0.635
14.489,-0.865,-0.645
14.492,-0.860,-0.665
14.494,-0.870,-0.705
14.497,-0.915,-0.755
14.500,-0.920,-0.745
14.503,-0.910,-0.730
14.506,-0.920,-0.715
14.508,-0.890,-0.685
14.511,-0.880,-0.690
14.514,-0.880,-0.710
14.517,-0.870,-0.725
14.519,-0.875,-0.745
14.522,-0.880,-0.760
14.525,-0.890,-0.770
14.528,-0.915,-0.780
14.531,-0.950,-0.765
14.533,-0.975,-0.780
14.536,-0.990,-0.820
14.539,-0.995,-0.890
14.542,-1.005,-0.930
14.544,-1.000,-0.945
14.547,-1.015,-0.940
14.550,-1.030,-0.910
14.553,-1.030,-0.900
14.556,-1.015,-0.885
14.558,-1.010,-0.905
14.561,-1.010,-0.925
14.564,-1.025,-0.965
14.567,-1.060,-0.970
14.569,-1.075,-0.990
14.572,-1.095,-1.000
14.575,-1.110,-0.995
14.578,-1.110,-0.995
14.581,-1.105,-1.000
14.583,-1.080,-1.030
14.586,-1.065,-1.035
14.589,-1.045,-1.065
14.592,-1.065,-1.070
14.594,-1.075,-1.040
14.597,-1.105,-1.060
14.600,-1.125,-1.040
14.603,-1.160,-1.025
14.606,-1.155,-1.000
14.608,-1.150,-1.020
14.611,-1.120,-1.075
14.614,-1.110,-1.120
14.617,-1.105,-1.145
14.619,-1.105,-1.105
14.622,-1.100,-1.065
14.625,-1.095,-1.015
14.628,-1.060,-1.015
14.631,-1.050,-1.040
14.633,-1.020,-1.060
14.636,-1.015,-1.085
14.639,-1.000,-1.085
14.642,-1.025,-1.050
14.644,-1.030,-1.005
14.647,-1.035,-0.980
14.650,-0.990,-0.950
14.653,-0.950,-0.905
14.656,-0.905,-0.885
14.658,-0.875,-0.870
14.661,-0.865,-0.895
14.664,-0.870,-0.930
14.667,-0.870,-0.955
14.669,-0.870,-0.960
14.672,-0.880,-0.935
14.675,-0.895,-0.885
14.678,-0.890,-0.825
14.681,-0.885,-0.780
14.683,-0.855,-0.740
14.686,-0.845,-0.750
14.689,-0.810,-0.770
14.692,-0.795,-0.785
14.694,-0.760,-0.785
14.697,-0.765,-0.780
14.700,-0.780,-0.780
14.703,-0.775,-0.765
14.706,-0.790,-0.765
14.708,-0.790,-0.745
14.711,-0.810,-0.745
14.714,-0.795,-0.725
14.717,-0.785,-0.715
14.719,-0.755,-0.695
14.722,-0.735,-0.680
14.725,-0.745,-0.680
14.728,-0.745,-0.715
14.731,-0.775,-0.745
14.733,-0.795,-0.750
14.736,-0.805,-0.760
14.739,-0.825,-0.755
14.742,-0.820,-0.760
14.744,-0.820,-0.750
14.747,-0.810,-0.735
14.750,-0.795,-0.715
14.753,-0.790,-0.690
14.756,-0.810,-0.695
14.758,-0.785,-0.695
14.761,-0.770,-0.715
14.764,-0.760,-0.745
14.767,-0.780,-0.790
14.769,-0.815,-0.790
14.772,-0.820,-0.770
14.775,-0.840,-0.725
14.778,-0.840,-0.685
14.781,-0.860,-0.690
14.783,-0.850,-0.665
14.786,-0.845,-0.690
14.789,-0.840,-0.695
14.792,-0.840,-0.690
14.794,-0.855,-0.675
14.797,-0.860,-0.715
14.800,-0.865,-0.725
14.803,-0.870,-0.705
14.806,-0.880,-0.695
14.808,-0.880,-0.700
14.811,-0.885,-0.740
14.814,-0.865,-0.770
14.817,-0.850,-0.785
14.819,-0.825,-0.780
14.822,-0.825,-0.800
14.825,-0.810,-0.820
14.828,-0.820,-0.810
14.831,-0.830,-0.815
14.833,-0.840,-0.795
14.836,-0.855,-0.795
14.839,-0.880,-0.780
14.842,-0.865,-0.780
14.844,-0.865,-0.740
14.847,-0.870,-0.705
14.850,-0.825,-0.700
14.853,-0.815,-0.705
14.856,-0.805,-0.735
14.858,-0.810,-0.745
14.861,-0.835,-0.750
14.864,-0.850,-0.750
14.867,-0.865,-0.720
14.869,-0.870,-0.710
14.872,-0.865,-0.720
14.875,-0.845,-0.725
14.878,-0.840,-0.745
14.881,-0.830,-0.770
14.883,-0.820,-0.755
14.886,-0.805,-0.735
14.889,-0.780,-0.735
14.892,-0.775,-0.725
14.894,-0.770,-0.740
14.897,-0.790,-0.760
14.900,-0.820,-0.765
14.903,-0.830,-0.750
14.906,-0.860,-0.740
14.908,-0.860,-0.720
14.911,-0.845,-0.690
14.914,-0.840,-0.680
14.917,-0.810,-0.690
14.919,-0.805,-0.725
14.922,-0.800,-0.770
14.925,-0.790,-0.785
14.928,-0.800,-0.795
14.931,-0.795,-0.770
14.933,-0.790,-0.770
14.936,-0.775,-0.775
14.939,-0.775,-0.770
14.942,-0.755,-0.785
14.944,-0.750,-0.775
14.947,-0.725,-0.775
14.950,-0.700,-0.800
14.953,-0.665,-0.805
14.956,-0.670,-0.795
14.958,-0.675,-0.790
14.961,-0.665,-0.785
14.964,-0.670,-0.750
14.967,-0.660,-0.730
14.969,-0.655,-0.720
14.972,-0.645,-0.700
14.975,-0.635,-0.675
14.978,-0.620,-0.685
14.981,-0.630,-0.695
14.983,-0.640,-0.685
14.986,-0.655,-0.700
14.989,-0.695,-0.715
14.992,-0.735,-0.710
14.994,-0.735,-0.680
14.997,-0.740,-0.660
15.000,-0.720,-0.645
15.003,-0.700,-0.610
15.006,-0.690,-0.565
15.008,-0.680,-0.520
15.011,-0.685,-0.500
15.014,-0.675,-0.530
15.017,-0.690,-0.615
15.019,-0.705,-0.695
15.022,-0.715,-0.745
15.025,-0.750,-0.745
15.028,-0.775,-0.730
15.031,-0.790,-0.705
15.033,-0.795,-0.680
15.036,-0.820,-0.700
15.039,-0.840,-0.705
15.042,-0.880,-0.705
15.044,-0.885,-0.705
15.047,-0.900,-0.730
15.050,-0.890,-0.750
15.053,-0.905,-0.740
15.056,-0.900,-0.715
15.058,-0.905,-0.705
15.061,-0.895,-0.715
15.064,-0.880,-0.750
15.067,-0.895,-0.790
15.069,-0.890,-0.805
15.072,-0.895,-0.805
15.075,-0.900,-0.795
15.078,-0.900,-0.780
15.081,-0.905,-0.785
15.083,-0.915,-0.785
15.086,-0.930,-0.730
15.089,-0.930,-0.695
15.092,-0.935,-0.710
15.094,-0.925,-0.750
15.097,-0.915,-0.775
15.100,-0.905,-0.800
15.103,-0.905,-0.805
15.106,-0.925,-0.795
15.108,-0.930,-0.790
15.111,-0.935,-0.780
15.114,-0.920,-0.780
15.117,-0.900,-0.755
15.119,-0.865,-0.750
15.122,-0.870,-0.780
15.125,-0.900,-0.790
15.128,-0.925,-0.815
15.131,-0.975,-0.840
15.133,-1.005,-0.885
15.136,-1.015,-0.965
15.139,-0.990,-1.050
15.142,-0.955,-1.145
15.144,-0.865,-1.250
15.147,-0.760,-1.390
15.150,-0.625,-1.555
15.153,-0.500,-1.675
15.156,-0.410,-1.790
15.158,-0.365,-1.830
15.161,-0.370,-1.795
15.164,-0.405,-1.665
15.167,-0.415,-1.465
15.169,-0.335,-1.245
15.172,-0.195,-1.050
15.175,0.000,-0.890
15.178,0.215,-0.715
15.181,0.375,-0.470
15.183,0.420,-0.210
15.186,0.305,0.030
15.189,0.005,0.190
15.192,-0.435,0.240
15.194,-0.895,0.125
15.197,-1.290,-0.060
15.200,-1.550,-0.300
15.203,-1.690,-0.515
15.206,-1.795,-0.650
15.208,-1.855,-0.735
15.211,-1.890,-0.785
15.214,-1.930,-0.815
15.217,-1.975,-0.865
15.219,-1.995,-0.895
15.222,-1.990,-0.910
15.225,-1.995,-0.955
15.228,-1.980,-0.940
15.231,-1.965,-0.940
15.233,-1.955,-0.940
15.236,-1.970,-0.930
15.239,-1.970,-0.950
15.242,-1.955,-0.955
15.244,-1.905,-0.955
15.247,-1.825,-0.945
15.250,-1.690,-0.935
15.253,-1.545,-0.880
15.256,-1.380,-0.835
15.258,-1.270,-0.790
15.261,-1.160,-0.735
15.264,-1.090,-0.710
15.267,-1.055,-0.690
15.269,-1.035,-0.710
15.272,-1.025,-0.715
15.275,-1.025,-0.745
15.278,-1.025,-0.730
15.281,-1.005,-0.705
15.283,-0.995,-0.685
15.286,-0.980,-0.660
15.289,-0.965,-0.650
15.292,-0.940,-0.655
15.294,-0.950,-0.660
15.297,-0.975,-0.670
15.300,-0.975,-0.685
15.303,-0.980,-0.680
15.306,-0.990,-0.700
15.308,-1.010,-0.700
15.311,-1.015,-0.710
15.314,-0.980,-0.710
15.317,-0.970,-0.705
15.319,-0.965,-0.705
15.322,-0.965,-0.710
15.325,-0.960,-0.725
15.328,-0.965,-0.735
15.331,-0.995,-0.785
15.333,-1.015,-0.800
15.336,-1.030,-0.805
15.339,-1.055,-0.810
15.342,-1.065,-0.830
15.344,-1.050,-0.830
15.347,-1.065,-0.830
15.350,-1.070,-0.830
15.353,-1.050,-0.855
15.356,-1.060,-0.855
15.358,-1.065,-0.865
15.361,-1.080,-0.905
15.364,-1.095,-0.920
15.367,-1.110,-0.940
15.369,-1.130,-0.960
15.372,-1.145,-0.975
15.375,-1.160,-0.980
15.378,-1.160,-0.975
15.381,-1.185,-0.980
15.383,-1.180,-0.980
15.386,-1.185,-0.975
15.389,-1.190,-0.975
15.392,-1.170,-0.995
15.394,-1.170,-1.005
15.397,-1.190,-1.030
15.400,-1.205,-1.025
15.403,-1.220,-1.025
15.406,-1.235,-1.050
15.408,-1.235,-1.060
15.411,-1.250,-1.055
15.414,-1.250,-1.055
15.417,-1.225,-1.055
15.419,-1.215,-1.040
15.422,-1.195,-1.035
15.425,-1.195,-1.045
15.428,-1.195,-1.040
15.431,-1.195,-1.060
15.433,-1.190,-1.070
15.436,-1.190,-1.065
15.439,-1.175,-1.040
15.442,-1.180,-1.035
15.444,-1.170,-1.020
15.447,-1.160,-1.020
15.450,-1.125,-1.000
15.453,-1.110,-0.995
15.456,-1.105,-0.995
15.458,-1.070,-0.980
15.461,-1.065,-0.975
15.464,-1.065,-0.965
15.467,-1.050,-0.950
15.469,-1.040,-0.945
15.472,-1.010,-0.930
15.475,-0.985,-0.910
15.478,-0.985,-0.905
15.481,-0.965,-0.875
15.483,-0.955,-0.850
15.486,-0.945,-0.835
15.489,-0.935,-0.835
15.492,-0.935,-0.810
15.494,-0.915,-0.820
15.497,-0.905,-0.815
15.500,-0.920,-0.820
15.503,-0.915,-0.775
15.506,-0.910,-0.785
15.508,-0.925,-0.775
15.511,-0.915,-0.755
15.514,-0.900,-0.750
15.517,-0.895,-0.725
15.519,-0.890,-0.720
15.522,-0.860,-0.740
15.525,-0.855,-0.725
15.528,-0.875,-0.735
15.531,-0.885,-0.730
15.533,-0.905,-0.725
15.536,-0.920,-0.715
15.539,-0.925,-0.715
15.542,-0.925,-0.725
15.544,-0.915,-0.715
15.547,-0.900,-0.725
15.550,-0.895,-0.705
15.553,-0.885,-0.710
15.556,-0.915,-0.705
15.558,-0.915,-0.730
15.561,-0.915,-0.715
15.564,-0.910,-0.730
15.567,-0.905,-0.740
15.569,-0.920,-0.710
15.572,-0.930,-0.720
15.575,-0.955,-0.700
15.578,-0.945,-0.680
15.581,-0.935,-0.670
15.583,-0.930,-0.675
15.586,-0.920,-0.655
15.589,-0.925,-0.675
15.592,-0.920,-0.690
15.594,-0.910,-0.705
15.597,-0.910,-0.725
15.600,-0.940,-0.715
15.603,-0.945,-0.725
15.606,-0.940,-0.715
15.608,-0.950,-0.700
15.611,-0.945,-0.680
15.614,-0.935,-0.710
15.617,-0.940,-0.685
15.619,-0.935,-0.695
15.622,-0.910,-0.680
15.625,-0.920,-0.690
15.628,-0.915,-0.690
15.631,-0.935,-0.690
15.633,-0.930,-0.700
15.636,-0.960,-0.730
15.639,-0.965,-0.730
15.642,-0.970,-0.725
15.644,-0.975,-0.715
15.647,-0.960,-0.725
15.650,-0.930,-0.695
15.653,-0.930,-0.695
15.656,-0.935,-0.695
15.658,-0.915,-0.710
15.661,-0.935,-0.700
15.664,-0.915,-0.740
15.667,-0.940,-0.770
15.669,-0.920,-0.755
15.672,-0.920,-0.760
15.675,-0.925,-0.740
15.678,-0.935,-0.715
15.681,-0.925,-0.690
15.683,-0.910,-0.670
15.686,-0.905,-0.665
15.689,-0.880,-0.680
15.692,-0.845,-0.705
15.694,-0.830,-0.705
15.697,-0.825,-0.720
15.700,-0.835,-0.730
15.703,-0.850,-0.750
15.706,-0.880,-0.755
15.708,-0.905,-0.750
15.711,-0.900,-0.740
15.714,-0.905,-0.740
15.717,-0.885,-0.725
15.719,-0.875,-0.700
15.722,-0.875,-0.705
15.725,-0.880,-0.690
15.728,-0.890,-0.690
15.731,-0.915,-0.680
15.733,-0.950,-0.695
15.736,-0.970,-0.685
15.739,-0.975,-0.690
15.742,-0.980,-0.680
15.744,-0.965,-0.655
15.747,-0.960,-0.655
15.750,-0.950,-0.655
15.753,-0.945,-0.630
15.756,-0.930,-0.630
15.758,-0.930,-0.630
15.761,-0.940,-0.635
15.764,-0.945,-0.625
15.767,-0.950,-0.645
15.769,-0.940,-0.650
15.772,-0.950,-0.690
15.775,-0.940,-0.665
15.778,-0.940,-0.665
15.781,-0.915,-0.665
15.783,-0.895,-0.655
15.786,-0.885,-0.640
15.789,-0.855,-0.640
15.792,-0.820,-0.640
15.794,-0.785,-0.625
15.797,-0.760,-0.620
15.800,-0.760,-0.615
15.803,-0.750,-0.580
15.806,-0.755,-0.570
15.808,-0.775,-0.550
15.811,-0.795,-0.555
15.814,-0.800,-0.565
15.817,-0.820,-0.575
15.819,-0.830,-0.605
15.822,-0.825,-0.595
15.825,-0.815,-0.590
15.828,-0.805,-0.575
15.831,-0.800,-0.560
15.833,-0.780,-0.535
15.836,-0.785,-0.500
15.839,-0.780,-0.485
15.842,-0.800,-0.470
15.844,-0.805,-0.455
15.847,-0.835,-0.475
15.850,-0.840,-0.505
15.853,-0.870,-0.535
15.856,-0.910,-0.570
15.858,-0.935,-0.605
15.861,-0.960,-0.580
15.864,-0.955,-0.615
15.867,-0.970,-0.605
15.869,-0.980,-0.610
15.872,-1.000,-0.615
15.875,-1.010,-0.605
15.878,-1.015,-0.625
15.881,-1.020,-0.615
15.883,-1.015,-0.630
15.886,-1.000,-0.625
15.889,-1.005,-0.630
15.892,-1.000,-0.635
15.894,-1.010,-0.630
15.897,-1.000,-0.630
15.900,-1.020,-0.645
15.903,-1.030,-0.645
15.906,-1.040,-0.645
15.908,-1.035,-0.640
15.911,-1.035,-0.640
15.914,-1.020,-0.635
15.917,-1.020,-0.625
15.919,-1.015,-0.615
15.922,-1.015,-0.620
15.925,-1.025,-0.610
15.928,-1.055,-0.615
15.931,-1.040,-0.635
15.933,-1.050,-0.650
15.936,-1.040,-0.655
15.939,-1.040,-0.655
15.942,-1.040,-0.640
15.944,-1.035,-0.620
15.947,-1.020,-0.620
15.950,-1.015,-0.600
15.953,-1.015,-0.600
15.956,-1.020,-0.615
15.958,-1.025,-0.660
15.961,-1.050,-0.715
15.964,-1.070,-0.785
15.967,-1.075,-0.840
15.969,-1.075,-0.915
15.972,-1.015,-1.025
15.975,-0.925,-1.135
15.978,-0.795,-1.240
15.981,-0.650,-1.355
15.983,-0.495,-1.470
15.986,-0.370,-1.530
15.989,-0.280,-1.530
15.992,-0.295,-1.450
15.994,-0.320,-1.330
15.997,-0.325,-1.200
16.000,-0.295,-1.070
16.003,-0.185,-0.920
16.006,-0.030,-0.720
16.008,0.105,-0.440
16.011,0.155,-0.130
16.014,0.055,0.150
16.017,-0.250,0.320
16.019,-0.685,0.320
16.022,-1.155,0.135
16.025,-1.560,-0.135
16.028,-1.860,-0.400
16.031,-2.020,-0.590
16.033,-2.100,-0.735
16.036,-2.135,-0.780
16.039,-2.145,-0.810
16.042,-2.180,-0.835
16.044,-2.190,-0.845
16.047,-2.215,-0.870
16.050,-2.215,-0.890
16.053,-2.195,-0.895
16.056,-2.190,-0.880
16.058,-2.185,-0.870
16.061,-2.180,-0.865
16.064,-2.170,-0.870
16.067,-2.145,-0.870
16.069,-2.125,-0.895
16.072,-2.050,-0.895
16.075,-1.970,-0.895
16.078,-1.860,-0.875
16.081,-1.710,-0.810
16.083,-1.560,-0.745
16.086,-1.430,-0.670
16.089,-1.315,-0.610
16.092,-1.250,-0.590
16.094,-1.195,-0.565
16.097,-1.175,-0.570
16.100,-1.180,-0.565
16.103,-1.170,-0.570
16.106,-1.175,-0.575
16.108,-1.175,-0.545
16.111,-1.150,-0.535
16.114,-1.135,-0.540
16.117,-1.110,-0.540
16.119,-1.090,-0.535
16.122,-1.080,-0.540
16.125,-1.085,-0.555
16.128,-1.090,-0.560
16.131,-1.110,-0.580
16.133,-1.120,-0.590
16.136,-1.130,-0.635
16.139,-1.130,-0.635
16.142,-1.135,-0.610
16.144,-1.140,-0.620
16.147,-1.135,-0.605
16.150,-1.125,-0.600
16.153,-1.115,-0.600
16.156,-1.110,-0.615
16.158,-1.125,-0.630
16.161,-1.130,-0.645
16.164,-1.155,-0.655
16.167,-1.160,-0.705
16.169,-1.180,-0.725
16.172,-1.205,-0.750
16.175,-1.210,-0.740
16.178,-1.240,-0.730
16.181,-1.240,-0.740
16.183,-1.210,-0.745
16.186,-1.215,-0.775
16.189,-1.210,-0.785
16.192,-1.215,-0.790
16.194,-1.230,-0.820
16.197,-1.260,-0.845
16.200,-1.280,-0.860
16.203,-1.295,-0.870
16.206,-1.325,-0.860
16.208,-1.335,-0.865
16.211,-1.330,-0.850
16.214,-1.340,-0.860
16.217,-1.345,-0.895
16.219,-1.350,-0.880
16.222,-1.315,-0.900
16.225,-1.325,-0.905
16.228,-1.335,-0.925
16.231,-1.330,-0.915
16.233,-1.330,-0.930
16.236,-1.325,-0.925
16.239,-1.340,-0.945
16.242,-1.340,-0.935
16.244,-1.345,-0.930
16.247,-1.345,-0.910
16.250,-1.345,-0.920
16.253,-1.340,-0.930
16.256,-1.310,-0.910
16.258,-1.295,-0.920
16.261,-1.290,-0.930
16.264,-1.270,-0.930
16.267,-1.285,-0.935
16.269,-1.275,-0.935
16.272,-1.290,-0.940
16.275,-1.265,-0.925
16.278,-1.245,-0.905
16.281,-1.205,-0.900
16.283,-1.175,-0.885
16.286,-1.155,-0.845
16.289,-1.135,-0.830
16.292,-1.120,-0.830
16.294,-1.110,-0.810
16.297,-1.105,-0.780
16.300,-1.095,-0.775
16.303,-1.090,-0.760
16.306,-1.095,-0.755
16.308,-1.085,-0.730
16.311,-1.090,-0.730
16.314,-1.065,-0.715
16.317,-1.050,-0.695
16.319,-1.015,-0.660
16.322,-1.015,-0.650
16.325,-1.010,-0.625
16.328,-1.010,-0.625
16.331,-1.020,-0.630
16.333,-1.020,-0.635
16.336,-1.035,-0.620
16.339,-1.020,-0.635
16.342,-1.020,-0.630
16.344,-1.010,-0.620
16.347,-1.015,-0.620
16.350,-1.010,-0.595
16.353,-1.005,-0.595
16.356,-0.990,-0.585
16.358,-0.985,-0.590
16.361,-1.000,-0.580
16.364,-1.000,-0.585
16.367,-0.990,-0.580
