'Elapsed time','MLII','V1'
'seconds','mV','mV'
0.000,-0.995,-0.470
0.003,-0.995,-0.470
0.006,-0.995,-0.470
0.008,-0.995,-0.470
0.011,-0.995,-0.470
0.014,-0.995,-0.470
0.017,-0.995,-0.470
0.019,-1.015,-0.470
0.022,-0.985,-0.455
0.025,-0.985,-0.450
0.028,-0.970,-0.445
0.031,-0.975,-0.410
0.033,-0.970,-0.425
0.036,-0.990,-0.415
0.039,-1.000,-0.420
0.042,-1.020,-0.425
0.044,-1.025,-0.445
0.047,-1.030,-0.450
0.050,-1.045,-0.455
0.053,-1.025,-0.445
0.056,-1.035,-0.425
0.058,-1.015,-0.405
0.061,-1.015,-0.400
0.064,-0.995,-0.385
0.067,-0.990,-0.380
0.069,-0.990,-0.385
0.072,-0.995,-0.385
0.075,-1.005,-0.405
0.078,-1.005,-0.400
0.081,-1.015,-0.415
0.083,-1.010,-0.410
0.086,-0.990,-0.405
0.089,-1.020,-0.400
0.092,-1.010,-0.380
0.094,-1.015,-0.390
0.097,-1.000,-0.370
0.100,-0.990,-0.375
0.103,-0.995,-0.385
0.106,-1.010,-0.395
0.108,-1.005,-0.415
0.111,-1.015,-0.420
0.114,-0.995,-0.410
0.117,-1.005,-0.415
0.119,-1.005,-0.420
0.122,-0.985,-0.410
0.125,-0.985,-0.370
0.128,-0.980,-0.365
0.131,-0.960,-0.350
0.133,-0.940,-0.370
0.136,-0.960,-0.370
0.139,-0.940,-0.385
0.142,-0.945,-0.380
0.144,-0.945,-0.390
0.147,-0.940,-0.385
0.150,-0.950,-0.405
0.153,-0.935,-0.380
0.156,-0.915,-0.385
0.158,-0.905,-0.370
0.161,-0.890,-0.370
0.164,-0.875,-0.360
0.167,-0.860,-0.380
0.169,-0.865,-0.385
0.172,-0.860,-0.385
0.175,-0.845,-0.380
0.178,-0.850,-0.410
0.181,-0.850,-0.385
0.183,-0.840,-0.375
0.186,-0.820,-0.390
0.189,-0.805,-0.365
0.192,-0.775,-0.350
0.194,-0.755,-0.350
0.197,-0.725,-0.325
0.200,-0.705,-0.335
0.203,-0.685,-0.330
0.206,-0.670,-0.355
0.208,-0.670,-0.365
0.211,-0.660,-0.365
0.214,-0.650,-0.365
0.217,-0.630,-0.375
0.219,-0.605,-0.385
0.222,-0.600,-0.380
0.225,-0.560,-0.365
0.228,-0.530,-0.350
0.231,-0.520,-0.355
0.233,-0.495,-0.360
0.236,-0.475,-0.360
0.239,-0.470,-0.370
0.242,-0.450,-0.400
0.244,-0.450,-0.405
0.247,-0.445,-0.400
0.250,-0.435,-0.410
0.253,-0.425,-0.400
0.256,-0.415,-0.400
0.258,-0.385,-0.380
0.261,-0.370,-0.380
0.264,-0.365,-0.365
0.267,-0.365,-0.360
0.269,-0.350,-0.385
0.272,-0.370,-0.395
0.275,-0.395,-0.405
0.278,-0.420,-0.415
0.281,-0.445,-0.410
0.283,-0.470,-0.410
0.286,-0.490,-0.405
0.289,-0.525,-0.380
0.292,-0.550,-0.380
0.294,-0.555,-0.375
0.297,-0.590,-0.385
0.300,-0.615,-0.370
0.303,-0.650,-0.360
0.306,-0.685,-0.370
0.308,-0.740,-0.365
0.311,-0.765,-0.400
0.314,-0.800,-0.400
0.317,-0.830,-0.400
0.319,-0.845,-0.390
0.322,-0.850,-0.370
0.325,-0.865,-0.375
0.328,-0.875,-0.365
0.331,-0.870,-0.370
0.333,-0.865,-0.385
0.336,-0.870,-0.385
0.339,-0.890,-0.385
0.342,-0.905,-0.395
0.344,-0.925,-0.405
0.347,-0.930,-0.430
0.350,-0.945,-0.425
0.353,-0.950,-0.430
0.356,-0.935,-0.415
0.358,-0.930,-0.405
0.361,-0.930,-0.405
0.364,-0.925,-0.395
0.367,-0.930,-0.395
0.369,-0.935,-0.395
0.372,-0.940,-0.405
0.375,-0.930,-0.415
0.378,-0.950,-0.420
0.381,-0.935,-0.435
0.383,-0.950,-0.425
0.386,-0.955,-0.410
0.389,-0.960,-0.415
0.392,-0.945,-0.410
0.394,-0.920,-0.380
0.397,-0.915,-0.375
0.400,-0.905,-0.395
0.403,-0.920,-0.390
0.406,-0.915,-0.400
0.408,-0.930,-0.405
0.411,-0.935,-0.415
0.414,-0.945,-0.415
0.417,-0.920,-0.430
0.419,-0.915,-0.430
0.422,-0.905,-0.415
0.425,-0.900,-0.420
0.428,-0.905,-0.405
0.431,-0.880,-0.390
0.433,-0.875,-0.405
0.436,-0.870,-0.390
0.439,-0.870,-0.395
0.442,-0.880,-0.405
0.444,-0.880,-0.420
0.447,-0.905,-0.420
0.450,-0.900,-0.430
0.453,-0.910,-0.435
0.456,-0.900,-0.425
0.458,-0.885,-0.410
0.461,-0.865,-0.415
0.464,-0.850,-0.400
0.467,-0.850,-0.415
0.469,-0.845,-0.420
0.472,-0.855,-0.425
0.475,-0.865,-0.425
0.478,-0.875,-0.425
0.481,-0.890,-0.440
0.483,-0.895,-0.445
0.486,-0.895,-0.450
0.489,-0.890,-0.430
0.492,-0.885,-0.435
0.494,-0.875,-0.410
0.497,-0.875,-0.405
0.500,-0.860,-0.400
0.503,-0.870,-0.405
0.506,-0.880,-0.410
0.508,-0.890,-0.420
0.511,-0.900,-0.435
0.514,-0.915,-0.425
0.517,-0.930,-0.430
0.519,-0.930,-0.430
0.522,-0.905,-0.425
0.525,-0.920,-0.430
0.528,-0.880,-0.415
0.531,-0.890,-0.410
0.533,-0.885,-0.405
0.536,-0.905,-0.420
0.539,-0.885,-0.425
0.542,-0.910,-0.445
0.544,-0.900,-0.450
0.547,-0.920,-0.455
0.550,-0.925,-0.450
0.553,-0.920,-0.430
0.556,-0.925,-0.425
0.558,-0.920,-0.425
0.561,-0.920,-0.390
0.564,-0.905,-0.390
0.567,-0.900,-0.400
0.569,-0.915,-0.410
0.572,-0.920,-0.410
0.575,-0.935,-0.430
0.578,-0.945,-0.445
0.581,-0.940,-0.440
0.583,-0.965,-0.450
0.586,-0.950,-0.445
0.589,-0.960,-0.445
0.592,-0.940,-0.425
0.594,-0.940,-0.425
0.597,-0.925,-0.420
0.600,-0.910,-0.425
0.603,-0.915,-0.410
0.606,-0.920,-0.425
0.608,-0.915,-0.440
0.611,-0.920,-0.445
0.614,-0.930,-0.450
0.617,-0.940,-0.460
0.619,-0.940,-0.450
0.622,-0.935,-0.430
0.625,-0.915,-0.415
0.628,-0.915,-0.420
0.631,-0.905,-0.395
0.633,-0.895,-0.415
0.636,-0.905,-0.410
0.639,-0.900,-0.425
0.642,-0.910,-0.435
0.644,-0.910,-0.425
0.647,-0.910,-0.445
0.650,-0.925,-0.445
0.653,-0.910,-0.425
0.656,-0.890,-0.415
0.658,-0.865,-0.400
0.661,-0.845,-0.395
0.664,-0.820,-0.365
0.667,-0.800,-0.370
0.669,-0.790,-0.365
0.672,-0.770,-0.370
0.675,-0.770,-0.370
0.678,-0.755,-0.370
0.681,-0.745,-0.340
0.683,-0.720,-0.355
0.686,-0.675,-0.340
0.689,-0.640,-0.345
0.692,-0.605,-0.325
0.694,-0.580,-0.350
0.697,-0.550,-0.345
0.700,-0.560,-0.390
0.703,-0.575,-0.410
0.706,-0.610,-0.450
0.708,-0.605,-0.465
0.711,-0.625,-0.470
0.714,-0.655,-0.465
0.717,-0.665,-0.480
0.719,-0.705,-0.480
0.722,-0.745,-0.480
0.725,-0.780,-0.480
0.728,-0.850,-0.455
0.731,-0.875,-0.455
0.733,-0.910,-0.455
0.736,-0.910,-0.440
0.739,-0.925,-0.455
0.742,-0.935,-0.470
0.744,-0.950,-0.465
0.747,-0.945,-0.475
0.750,-0.950,-0.490
0.753,-0.955,-0.480
0.756,-0.960,-0.480
0.758,-0.960,-0.475
0.761,-0.945,-0.465
0.764,-0.935,-0.450
0.767,-0.940,-0.475
0.769,-0.945,-0.460
0.772,-0.950,-0.470
0.775,-0.955,-0.495
0.778,-0.965,-0.480
0.781,-0.980,-0.490
0.783,-0.970,-0.505
0.786,-0.975,-0.500
0.789,-0.975,-0.505
0.792,-0.950,-0.490
0.794,-0.955,-0.485
0.797,-0.945,-0.465
0.800,-0.930,-0.450
0.803,-0.945,-0.460
0.806,-0.970,-0.470
0.808,-0.955,-0.460
0.811,-0.950,-0.475
0.814,-0.955,-0.485
0.817,-0.965,-0.475
0.819,-0.975,-0.470
0.822,-0.990,-0.455
0.825,-1.005,-0.425
0.828,-1.000,-0.400
0.831,-0.970,-0.335
0.833,-0.890,-0.275
0.836,-0.755,-0.245
0.839,-0.570,-0.225
0.842,-0.335,-0.260
0.844,-0.040,-0.355
0.847,0.320,-0.500
0.850,0.665,-0.675
0.853,0.945,-0.905
0.856,1.115,-1.125
0.858,1.205,-1.335
0.861,1.175,-1.475
0.864,1.040,-1.530
0.867,0.820,-1.545
0.869,0.450,-1.505
0.872,-0.030,-1.445
0.875,-0.535,-1.385
0.878,-0.905,-1.290
0.881,-1.085,-1.195
0.883,-1.070,-1.090
0.886,-0.965,-0.990
0.889,-0.830,-0.890
0.892,-0.735,-0.790
0.894,-0.690,-0.720
0.897,-0.710,-0.650
0.900,-0.755,-0.595
0.903,-0.825,-0.560
0.906,-0.880,-0.510
0.908,-0.920,-0.495
0.911,-0.955,-0.495
0.914,-0.955,-0.490
0.917,-0.965,-0.485
0.919,-0.955,-0.470
0.922,-0.940,-0.455
0.925,-0.935,-0.445
0.928,-0.945,-0.420
0.931,-0.930,-0.405
0.933,-0.960,-0.400
0.936,-0.945,-0.395
0.939,-0.965,-0.400
0.942,-0.970,-0.400
0.944,-0.970,-0.410
0.947,-0.980,-0.410
0.950,-0.980,-0.425
0.953,-0.985,-0.405
0.956,-0.980,-0.405
0.958,-0.980,-0.405
0.961,-0.970,-0.385
0.964,-0.965,-0.385
0.967,-0.975,-0.390
0.969,-0.970,-0.385
0.972,-0.980,-0.390
0.975,-0.975,-0.395
0.978,-0.985,-0.405
0.981,-1.000,-0.400
0.983,-1.015,-0.410
0.986,-0.990,-0.410
0.989,-0.970,-0.390
0.992,-0.970,-0.380
0.994,-0.960,-0.370
0.997,-0.960,-0.350
1.000,-0.940,-0.355
1.003,-0.950,-0.350
1.006,-0.950,-0.355
1.008,-0.975,-0.365
1.011,-0.970,-0.380
1.014,-0.965,-0.380
1.017,-0.950,-0.400
1.019,-0.960,-0.390
1.022,-0.955,-0.390
1.025,-0.930,-0.385
1.028,-0.935,-0.360
1.031,-0.915,-0.355
1.033,-0.905,-0.365
1.036,-0.905,-0.375
1.039,-0.900,-0.385
1.042,-0.910,-0.395
1.044,-0.910,-0.395
1.047,-0.920,-0.410
1.050,-0.900,-0.395
1.053,-0.895,-0.405
1.056,-0.885,-0.375
1.058,-0.885,-0.360
1.061,-0.865,-0.360
1.064,-0.835,-0.335
1.067,-0.825,-0.335
1.069,-0.820,-0.345
1.072,-0.810,-0.360
1.075,-0.815,-0.355
1.078,-0.805,-0.355
1.081,-0.810,-0.360
1.083,-0.800,-0.350
1.086,-0.780,-0.345
1.089,-0.775,-0.320
1.092,-0.745,-0.345
1.094,-0.725,-0.325
1.097,-0.685,-0.320
1.100,-0.665,-0.315
1.103,-0.650,-0.325
1.106,-0.650,-0.330
1.108,-0.650,-0.335
1.111,-0.650,-0.325
1.114,-0.610,-0.335
1.117,-0.590,-0.355
1.119,-0.555,-0.340
1.122,-0.535,-0.320
1.125,-0.500,-0.325
1.128,-0.485,-0.315
1.131,-0.455,-0.310
1.133,-0.430,-0.320
1.136,-0.405,-0.305
1.139,-0.405,-0.340
1.142,-0.395,-0.345
1.144,-0.395,-0.355
1.147,-0.385,-0.365
1.150,-0.375,-0.365
1.153,-0.370,-0.380
1.156,-0.360,-0.370
1.158,-0.340,-0.360
1.161,-0.335,-0.360
1.164,-0.305,-0.345
1.167,-0.310,-0.365
1.169,-0.345,-0.370
1.172,-0.365,-0.365
1.175,-0.380,-0.370
1.178,-0.405,-0.375
1.181,-0.425,-0.380
1.183,-0.455,-0.375
1.186,-0.485,-0.360
1.189,-0.515,-0.365
1.192,-0.535,-0.350
1.194,-0.545,-0.330
1.197,-0.580,-0.340
1.200,-0.585,-0.325
1.203,-0.625,-0.325
1.206,-0.645,-0.350
1.208,-0.685,-0.355
1.211,-0.720,-0.375
1.214,-0.735,-0.380
1.217,-0.765,-0.385
1.219,-0.785,-0.375
1.222,-0.800,-0.380
1.225,-0.805,-0.370
1.228,-0.805,-0.370
1.231,-0.805,-0.375
1.233,-0.830,-0.380
1.236,-0.825,-0.375
1.239,-0.840,-0.385
1.242,-0.870,-0.400
1.244,-0.875,-0.395
1.247,-0.890,-0.390
1.250,-0.895,-0.415
1.253,-0.890,-0.395
1.256,-0.910,-0.395
1.258,-0.900,-0.390
1.261,-0.900,-0.395
1.264,-0.905,-0.385
1.267,-0.890,-0.375
1.269,-0.910,-0.385
1.272,-0.900,-0.385
1.275,-0.910,-0.405
1.278,-0.915,-0.415
1.281,-0.915,-0.405
1.283,-0.930,-0.415
1.286,-0.925,-0.430
1.289,-0.910,-0.405
1.292,-0.895,-0.400
1.294,-0.890,-0.395
1.297,-0.870,-0.375
1.300,-0.865,-0.380
1.303,-0.870,-0.390
1.306,-0.875,-0.400
1.308,-0.885,-0.395
1.311,-0.890,-0.410
1.314,-0.890,-0.405
1.317,-0.870,-0.415
1.319,-0.855,-0.395
1.322,-0.865,-0.380
1.325,-0.850,-0.370
1.328,-0.855,-0.350
1.331,-0.855,-0.350
1.333,-0.850,-0.345
1.336,-0.855,-0.335
1.339,-0.850,-0.325
1.342,-0.860,-0.315
1.344,-0.850,-0.295
1.347,-0.830,-0.280
1.350,-0.770,-0.230
1.353,-0.685,-0.195
1.356,-0.550,-0.175
1.358,-0.410,-0.200
1.361,-0.245,-0.275
1.364,-0.100,-0.410
1.367,0.075,-0.560
1.369,0.235,-0.710
1.372,0.445,-0.880
1.375,0.630,-1.045
1.378,0.835,-1.220
1.381,1.060,-1.445
1.383,1.260,-1.670
1.386,1.440,-1.870
1.389,1.610,-2.065
1.392,1.735,-2.190
1.394,1.825,-2.245
1.397,1.885,-2.285
1.400,1.910,-2.295
1.403,1.905,-2.310
1.406,1.875,-2.305
1.408,1.825,-2.305
1.411,1.760,-2.305
1.414,1.675,-2.285
1.417,1.575,-2.225
1.419,1.530,-2.150
1.422,1.510,-2.035
1.425,1.550,-1.940
1.428,1.560,-1.845
1.431,1.540,-1.745
1.433,1.535,-1.665
1.436,1.445,-1.575
1.439,1.335,-1.475
1.442,1.200,-1.410
1.444,1.065,-1.345
1.447,0.890,-1.285
1.450,0.710,-1.200
1.453,0.480,-1.125
1.456,0.180,-1.030
1.458,-0.175,-0.935
1.461,-0.520,-0.860
1.464,-0.810,-0.755
1.467,-0.975,-0.630
1.469,-1.045,-0.530
1.472,-1.065,-0.440
1.475,-1.050,-0.375
1.478,-1.050,-0.350
1.481,-1.065,-0.360
1.483,-1.110,-0.350
1.486,-1.155,-0.345
1.489,-1.220,-0.310
1.492,-1.245,-0.290
1.494,-1.270,-0.245
1.497,-1.270,-0.225
1.500,-1.280,-0.185
1.503,-1.300,-0.175
1.506,-1.320,-0.190
1.508,-1.330,-0.170
1.511,-1.365,-0.190
1.514,-1.370,-0.185
1.517,-1.390,-0.175
1.519,-1.415,-0.175
1.522,-1.405,-0.155
1.525,-1.425,-0.145
1.528,-1.425,-0.110
1.531,-1.445,-0.095
1.533,-1.435,-0.100
1.536,-1.445,-0.100
1.539,-1.480,-0.085
1.542,-1.490,-0.100
1.544,-1.505,-0.095
1.547,-1.540,-0.085
1.550,-1.535,-0.080
1.553,-1.555,-0.065
1.556,-1.545,-0.055
1.558,-1.565,-0.020
1.561,-1.565,-0.010
1.564,-1.570,0.030
1.567,-1.570,0.040
1.569,-1.575,0.065
1.572,-1.585,0.070
1.575,-1.585,0.085
1.578,-1.590,0.095
1.581,-1.600,0.095
1.583,-1.615,0.105
1.586,-1.620,0.150
1.589,-1.630,0.175
1.592,-1.630,0.205
1.594,-1.645,0.220
1.597,-1.615,0.255
1.600,-1.610,0.290
1.603,-1.620,0.295
1.606,-1.615,0.310
1.608,-1.610,0.295
1.611,-1.605,0.300
1.614,-1.630,0.295
1.617,-1.640,0.285
1.619,-1.675,0.300
1.622,-1.700,0.305
1.625,-1.725,0.310
1.628,-1.745,0.330
1.631,-1.755,0.355
1.633,-1.780,0.390
1.636,-1.815,0.425
1.639,-1.885,0.445
1.642,-1.920,0.425
1.644,-1.985,0.450
1.647,-2.055,0.445
1.650,-2.120,0.465
1.653,-2.180,0.500
1.656,-2.225,0.515
1.658,-2.250,0.530
1.661,-2.270,0.575
1.664,-2.295,0.565
1.667,-2.300,0.580
1.669,-2.305,0.555
1.672,-2.310,0.530
1.675,-2.315,0.515
1.678,-2.305,0.500
1.681,-2.295,0.485
1.683,-2.285,0.475
1.686,-2.285,0.455
1.689,-2.250,0.445
1.692,-2.220,0.435
1.694,-2.180,0.405
1.697,-2.145,0.400
1.700,-2.125,0.350
1.703,-2.095,0.325
1.706,-2.050,0.285
1.708,-2.015,0.240
1.711,-1.995,0.205
1.714,-1.940,0.155
1.717,-1.880,0.115
1.719,-1.825,0.070
1.722,-1.770,0.050
1.725,-1.700,0.030
1.728,-1.630,-0.010
1.731,-1.575,-0.030
1.733,-1.515,-0.075
1.736,-1.485,-0.105
1.739,-1.450,-0.140
1.742,-1.420,-0.170
1.744,-1.400,-0.220
1.747,-1.370,-0.230
1.750,-1.330,-0.260
1.753,-1.310,-0.275
1.756,-1.285,-0.295
1.758,-1.255,-0.280
1.761,-1.230,-0.295
1.764,-1.230,-0.290
1.767,-1.195,-0.300
1.769,-1.195,-0.305
1.772,-1.195,-0.315
1.775,-1.210,-0.320
1.778,-1.220,-0.350
1.781,-1.235,-0.355
1.783,-1.230,-0.370
1.786,-1.220,-0.360
1.789,-1.225,-0.355
1.792,-1.215,-0.345
1.794,-1.210,-0.345
1.797,-1.175,-0.320
1.800,-1.180,-0.320
1.803,-1.185,-0.330
1.806,-1.210,-0.315
1.808,-1.190,-0.335
1.811,-1.200,-0.340
1.814,-1.205,-0.345
1.817,-1.210,-0.345
1.819,-1.210,-0.355
1.822,-1.210,-0.340
1.825,-1.205,-0.340
1.828,-1.185,-0.325
1.831,-1.195,-0.315
1.833,-1.160,-0.310
1.836,-1.175,-0.315
1.839,-1.165,-0.320
1.842,-1.170,-0.325
1.844,-1.170,-0.330
1.847,-1.175,-0.355
1.850,-1.175,-0.360
1.853,-1.165,-0.355
1.856,-1.175,-0.345
1.858,-1.155,-0.335
1.861,-1.145,-0.335
1.864,-1.160,-0.320
1.867,-1.150,-0.305
1.869,-1.140,-0.315
1.872,-1.155,-0.330
1.875,-1.155,-0.335
1.878,-1.150,-0.325
1.881,-1.140,-0.355
1.883,-1.145,-0.335
1.886,-1.155,-0.355
1.889,-1.160,-0.340
1.892,-1.135,-0.325
1.894,-1.135,-0.325
1.897,-1.120,-0.315
1.900,-1.125,-0.320
1.903,-1.130,-0.330
1.906,-1.125,-0.325
1.908,-1.130,-0.360
1.911,-1.135,-0.365
1.914,-1.145,-0.365
1.917,-1.150,-0.360
1.919,-1.145,-0.375
1.922,-1.135,-0.370
1.925,-1.125,-0.350
1.928,-1.120,-0.345
1.931,-1.100,-0.330
1.933,-1.095,-0.335
1.936,-1.100,-0.340
1.939,-1.100,-0.350
1.942,-1.110,-0.360
1.944,-1.120,-0.355
1.947,-1.135,-0.385
1.950,-1.135,-0.385
1.953,-1.135,-0.395
1.956,-1.125,-0.385
1.958,-1.125,-0.375
1.961,-1.095,-0.375
1.964,-1.110,-0.355
1.967,-1.095,-0.365
1.969,-1.120,-0.380
1.972,-1.140,-0.385
1.975,-1.115,-0.390
1.978,-1.130,-0.390
1.981,-1.100,-0.400
1.983,-1.120,-0.405
1.986,-1.130,-0.405
1.989,-1.130,-0.390
1.992,-1.120,-0.385
1.994,-1.110,-0.380
1.997,-1.100,-0.375
2.000,-1.090,-0.380
2.003,-1.100,-0.370
2.006,-1.095,-0.380
2.008,-1.095,-0.395
2.011,-1.100,-0.395
2.014,-1.125,-0.420
2.017,-1.120,-0.405
2.019,-1.130,-0.415
2.022,-1.115,-0.410
2.025,-1.105,-0.400
2.028,-1.100,-0.400
2.031,-1.085,-0.390
2.033,-1.075,-0.390
2.036,-1.085,-0.420
2.039,-1.090,-0.400
2.042,-1.085,-0.415
2.044,-1.090,-0.435
2.047,-1.100,-0.425
2.050,-1.090,-0.425
2.053,-1.095,-0.425
2.056,-1.100,-0.400
2.058,-1.080,-0.405
2.061,-1.080,-0.400
2.064,-1.085,-0.400
2.067,-1.070,-0.390
2.069,-1.080,-0.390
2.072,-1.085,-0.415
2.075,-1.075,-0.420
2.078,-1.070,-0.405
2.081,-1.080,-0.425
2.083,-1.090,-0.430
2.086,-1.085,-0.435
2.089,-1.080,-0.425
2.092,-1.075,-0.425
2.094,-1.070,-0.410
2.097,-1.065,-0.405
2.100,-1.055,-0.415
2.103,-1.050,-0.405
2.106,-1.050,-0.415
2.108,-1.060,-0.420
2.111,-1.065,-0.420
2.114,-1.075,-0.430
2.117,-1.085,-0.430
2.119,-1.085,-0.430
2.122,-1.075,-0.430
2.125,-1.080,-0.410
2.128,-1.075,-0.400
2.131,-1.075,-0.390
2.133,-1.060,-0.390
2.136,-1.060,-0.400
2.139,-1.050,-0.400
2.142,-1.055,-0.415
2.144,-1.060,-0.420
2.147,-1.070,-0.435
2.150,-1.075,-0.440
2.153,-1.065,-0.450
2.156,-1.070,-0.435
2.158,-1.070,-0.440
2.161,-1.055,-0.420
2.164,-1.050,-0.410
2.167,-1.050,-0.430
2.169,-1.045,-0.410
2.172,-1.055,-0.410
2.175,-1.055,-0.425
2.178,-1.060,-0.430
2.181,-1.060,-0.425
2.183,-1.065,-0.450
2.186,-1.070,-0.430
2.189,-1.070,-0.445
2.192,-1.075,-0.420
2.194,-1.065,-0.420
2.197,-1.050,-0.410
2.200,-1.040,-0.420
2.203,-1.040,-0.420
2.206,-1.045,-0.430
2.208,-1.050,-0.445
2.211,-1.055,-0.450
2.214,-1.070,-0.475
2.217,-1.060,-0.460
2.219,-1.080,-0.465
2.222,-1.080,-0.470
2.225,-1.070,-0.465
2.228,-1.065,-0.430
2.231,-1.055,-0.425
2.233,-1.035,-0.425
2.236,-1.040,-0.420
2.239,-1.045,-0.430
2.242,-1.035,-0.425
2.244,-1.050,-0.455
2.247,-1.055,-0.470
2.250,-1.060,-0.475
2.253,-1.055,-0.470
2.256,-1.065,-0.465
2.258,-1.050,-0.455
2.261,-1.065,-0.450
2.264,-1.055,-0.460
2.267,-1.035,-0.435
2.269,-1.045,-0.440
2.272,-1.045,-0.440
2.275,-1.035,-0.460
2.278,-1.040,-0.460
2.281,-1.040,-0.485
2.283,-1.045,-0.495
2.286,-1.045,-0.490
2.289,-1.040,-0.465
2.292,-1.045,-0.450
2.294,-1.025,-0.430
2.297,-1.010,-0.425
2.300,-1.005,-0.415
2.303,-1.020,-0.430
2.306,-1.015,-0.410
2.308,-1.025,-0.440
2.311,-1.030,-0.455
2.314,-1.050,-0.470
2.317,-1.055,-0.465
2.319,-1.065,-0.455
2.322,-1.045,-0.445
2.325,-1.020,-0.450
2.328,-1.035,-0.435
2.331,-1.025,-0.420
2.333,-1.015,-0.430
2.336,-1.030,-0.450
2.339,-1.005,-0.430
2.342,-1.020,-0.450
2.344,-1.025,-0.450
2.347,-1.030,-0.475
2.350,-1.030,-0.470
2.353,-1.040,-0.465
2.356,-1.035,-0.435
2.358,-1.035,-0.445
2.361,-1.015,-0.435
2.364,-1.030,-0.405
2.367,-1.000,-0.415
2.369,-0.995,-0.420
2.372,-0.995,-0.420
2.375,-1.005,-0.445
2.378,-1.010,-0.445
2.381,-1.035,-0.455
2.383,-1.040,-0.450
2.386,-1.045,-0.470
2.389,-1.035,-0.450
2.392,-1.030,-0.455
2.394,-1.010,-0.445
2.397,-1.015,-0.425
2.400,-1.000,-0.425
2.403,-1.000,-0.440
2.406,-1.005,-0.435
2.408,-1.010,-0.445
2.411,-1.020,-0.450
2.414,-1.020,-0.455
2.417,-1.035,-0.470
2.419,-1.050,-0.465
2.422,-1.045,-0.450
2.425,-1.050,-0.440
2.428,-1.045,-0.430
2.431,-1.030,-0.430
2.433,-1.010,-0.410
2.436,-1.000,-0.415
2.439,-1.010,-0.425
2.442,-1.010,-0.440
2.444,-1.015,-0.455
2.447,-1.025,-0.460
2.450,-1.045,-0.470
2.453,-1.045,-0.460
2.456,-1.040,-0.460
2.458,-1.020,-0.450
2.461,-1.015,-0.440
2.464,-1.015,-0.440
2.467,-1.010,-0.450
2.469,-1.010,-0.430
2.472,-1.000,-0.445
2.475,-0.995,-0.450
2.478,-1.010,-0.450
2.481,-1.015,-0.450
2.483,-1.020,-0.460
2.486,-1.025,-0.445
2.489,-1.020,-0.455
2.492,-1.015,-0.430
2.494,-1.010,-0.440
2.497,-0.985,-0.420
2.500,-0.980,-0.425
2.503,-0.985,-0.415
2.506,-0.990,-0.425
2.508,-0.995,-0.450
2.511,-1.015,-0.440
2.514,-1.015,-0.450
2.517,-1.020,-0.470
2.519,-1.010,-0.465
2.522,-1.015,-0.445
2.525,-0.990,-0.460
2.528,-0.985,-0.440
2.531,-0.970,-0.440
2.533,-0.950,-0.435
2.536,-0.930,-0.425
2.539,-0.930,-0.415
2.542,-0.915,-0.420
2.544,-0.905,-0.420
2.547,-0.895,-0.400
2.550,-0.875,-0.395
2.553,-0.860,-0.390
2.556,-0.865,-0.365
2.558,-0.830,-0.350
2.561,-0.805,-0.355
2.564,-0.780,-0.330
2.567,-0.740,-0.330
2.569,-0.700,-0.340
2.572,-0.665,-0.345
2.575,-0.630,-0.375
2.578,-0.625,-0.410
2.581,-0.655,-0.430
2.583,-0.675,-0.465
2.586,-0.705,-0.490
2.589,-0.700,-0.465
2.592,-0.685,-0.485
2.594,-0.690,-0.485
2.597,-0.705,-0.460
2.600,-0.720,-0.460
2.603,-0.770,-0.470
2.606,-0.820,-0.460
2.608,-0.885,-0.460
2.611,-0.955,-0.480
2.614,-0.995,-0.480
2.617,-1.020,-0.485
2.619,-1.015,-0.495
2.622,-1.020,-0.490
2.625,-1.020,-0.485
2.628,-1.015,-0.485
2.631,-0.985,-0.485
2.633,-0.980,-0.490
2.636,-1.000,-0.475
2.639,-0.995,-0.480
2.642,-1.020,-0.495
2.644,-1.035,-0.495
2.647,-1.030,-0.525
2.650,-1.035,-0.530
2.653,-1.030,-0.525
2.656,-1.030,-0.520
2.658,-1.035,-0.505
2.661,-1.010,-0.500
2.664,-1.000,-0.480
2.667,-0.990,-0.465
2.669,-0.995,-0.465
2.672,-0.995,-0.480
2.675,-1.015,-0.495
2.678,-1.025,-0.500
2.681,-1.060,-0.505
2.683,-1.090,-0.485
2.686,-1.080,-0.460
2.689,-1.045,-0.420
2.692,-0.965,-0.350
2.694,-0.800,-0.290
2.697,-0.575,-0.270
2.700,-0.270,-0.300
2.703,0.085,-0.375
2.706,0.455,-0.525
2.708,0.780,-0.725
2.711,1.030,-0.970
2.714,1.145,-1.200
2.717,1.140,-1.380
2.719,0.990,-1.460
2.722,0.685,-1.485
2.725,0.240,-1.430
2.728,-0.300,-1.375
2.731,-0.755,-1.265
2.733,-1.040,-1.170
2.736,-1.115,-1.070
2.739,-1.035,-0.975
2.742,-0.920,-0.900
2.744,-0.815,-0.810
2.747,-0.770,-0.765
2.750,-0.790,-0.710
2.753,-0.870,-0.635
2.756,-0.915,-0.590
2.758,-0.980,-0.535
2.761,-1.000,-0.515
2.764,-1.005,-0.490
2.767,-1.005,-0.485
2.769,-1.005,-0.480
2.772,-1.015,-0.465
2.775,-1.020,-0.485
2.778,-1.040,-0.490
2.781,-1.030,-0.475
2.783,-1.040,-0.455
2.786,-1.060,-0.445
2.789,-1.045,-0.425
2.792,-1.055,-0.410
2.794,-1.045,-0.415
2.797,-1.050,-0.400
2.800,-1.045,-0.410
2.803,-1.030,-0.415
2.806,-1.025,-0.425
2.808,-1.045,-0.430
2.811,-1.055,-0.445
2.814,-1.065,-0.435
2.817,-1.070,-0.445
2.819,-1.060,-0.440
2.822,-1.055,-0.420
2.825,-1.055,-0.420
2.828,-1.050,-0.415
2.831,-1.045,-0.410
2.833,-1.025,-0.420
2.836,-1.045,-0.410
2.839,-1.065,-0.430
2.842,-1.065,-0.425
2.844,-1.060,-0.435
2.847,-1.070,-0.435
2.850,-1.080,-0.410
2.853,-1.070,-0.425
2.856,-1.060,-0.410
2.858,-1.060,-0.405
2.861,-1.055,-0.400
2.864,-1.035,-0.395
2.867,-1.025,-0.395
2.869,-1.030,-0.385
2.872,-1.025,-0.415
2.875,-1.040,-0.425
2.878,-1.035,-0.425
2.881,-1.045,-0.425
2.883,-1.040,-0.420
2.886,-1.025,-0.430
2.889,-1.025,-0.420
2.892,-1.005,-0.410
2.894,-1.010,-0.410
2.897,-0.995,-0.390
2.900,-0.990,-0.395
2.903,-0.985,-0.385
2.906,-0.975,-0.405
2.908,-0.985,-0.405
2.911,-0.985,-0.400
2.914,-0.985,-0.400
2.917,-0.990,-0.400
2.919,-0.970,-0.400
2.922,-0.960,-0.380
2.925,-0.950,-0.375
2.928,-0.915,-0.365
2.931,-0.910,-0.350
2.933,-0.910,-0.350
2.936,-0.885,-0.350
2.939,-0.885,-0.360
2.942,-0.885,-0.350
2.944,-0.875,-0.355
2.947,-0.865,-0.360
2.950,-0.860,-0.365
2.953,-0.850,-0.370
2.956,-0.835,-0.355
2.958,-0.795,-0.335
2.961,-0.785,-0.315
2.964,-0.765,-0.320
2.967,-0.745,-0.310
2.969,-0.720,-0.305
2.972,-0.710,-0.315
2.975,-0.695,-0.335
2.978,-0.690,-0.320
2.981,-0.675,-0.355
2.983,-0.660,-0.325
2.986,-0.650,-0.335
2.989,-0.620,-0.345
2.992,-0.620,-0.315
2.994,-0.575,-0.325
2.997,-0.545,-0.315
3.000,-0.545,-0.330
3.003,-0.535,-0.330
3.006,-0.520,-0.345
3.008,-0.515,-0.380
3.011,-0.510,-0.380
3.014,-0.505,-0.390
3.017,-0.495,-0.390
3.019,-0.485,-0.390
3.022,-0.470,-0.395
3.025,-0.460,-0.390
3.028,-0.455,-0.385
3.031,-0.450,-0.370
3.033,-0.460,-0.375
3.036,-0.480,-0.400
3.039,-0.500,-0.410
3.042,-0.525,-0.405
3.044,-0.550,-0.440
3.047,-0.570,-0.440
3.050,-0.595,-0.435
3.053,-0.615,-0.420
3.056,-0.630,-0.415
3.058,-0.650,-0.405
3.061,-0.675,-0.410
3.064,-0.695,-0.400
3.067,-0.700,-0.405
3.069,-0.740,-0.425
3.072,-0.765,-0.425
3.075,-0.780,-0.430
3.078,-0.810,-0.445
3.081,-0.810,-0.445
3.083,-0.835,-0.430
3.086,-0.840,-0.425
3.089,-0.850,-0.420
3.092,-0.850,-0.420
3.094,-0.840,-0.410
3.097,-0.835,-0.410
3.100,-0.840,-0.420
3.103,-0.850,-0.415
3.106,-0.855,-0.425
3.108,-0.875,-0.430
3.111,-0.895,-0.460
3.114,-0.910,-0.450
3.117,-0.915,-0.465
3.119,-0.915,-0.465
3.122,-0.905,-0.445
3.125,-0.890,-0.435
3.128,-0.870,-0.435
3.131,-0.880,-0.430
3.133,-0.880,-0.435
3.136,-0.875,-0.435
3.139,-0.885,-0.435
3.142,-0.890,-0.445
3.144,-0.880,-0.445
3.147,-0.895,-0.455
3.150,-0.900,-0.450
3.153,-0.895,-0.445
3.156,-0.885,-0.440
3.158,-0.870,-0.440
3.161,-0.860,-0.450
3.164,-0.850,-0.425
3.167,-0.840,-0.440
3.169,-0.850,-0.445
3.172,-0.865,-0.465
3.175,-0.850,-0.460
3.178,-0.860,-0.490
3.181,-0.855,-0.485
3.183,-0.860,-0.485
3.186,-0.860,-0.480
3.189,-0.870,-0.470
3.192,-0.850,-0.460
3.194,-0.855,-0.460
3.197,-0.845,-0.445
3.200,-0.840,-0.450
3.203,-0.865,-0.440
3.206,-0.860,-0.455
3.208,-0.855,-0.460
3.211,-0.850,-0.475
3.214,-0.855,-0.470
3.217,-0.875,-0.470
3.219,-0.875,-0.475
3.222,-0.875,-0.470
3.225,-0.860,-0.455
3.228,-0.845,-0.430
3.231,-0.840,-0.440
3.233,-0.835,-0.430
3.236,-0.855,-0.450
3.239,-0.865,-0.470
3.242,-0.875,-0.485
3.244,-0.890,-0.480
3.247,-0.900,-0.490
3.250,-0.890,-0.485
3.253,-0.895,-0.490
3.256,-0.890,-0.465
3.258,-0.900,-0.450
3.261,-0.895,-0.440
3.264,-0.880,-0.440
3.267,-0.860,-0.440
3.269,-0.885,-0.435
3.272,-0.885,-0.465
3.275,-0.900,-0.460
3.278,-0.905,-0.475
3.281,-0.920,-0.485
3.283,-0.925,-0.485
3.286,-0.925,-0.475
3.289,-0.910,-0.465
3.292,-0.925,-0.455
3.294,-0.930,-0.445
3.297,-0.920,-0.435
3.300,-0.930,-0.450
3.303,-0.910,-0.460
3.306,-0.930,-0.480
3.308,-0.920,-0.490
3.311,-0.945,-0.475
3.314,-0.955,-0.490
3.317,-0.945,-0.490
3.319,-0.955,-0.485
3.322,-0.950,-0.490
3.325,-0.950,-0.470
3.328,-0.940,-0.460
3.331,-0.920,-0.465
3.333,-0.915,-0.465
3.336,-0.925,-0.455
3.339,-0.940,-0.475
3.342,-0.945,-0.490
3.344,-0.955,-0.505
3.347,-0.960,-0.510
3.350,-0.950,-0.515
3.353,-0.955,-0.510
3.356,-0.955,-0.500
3.358,-0.945,-0.490
3.361,-0.955,-0.485
3.364,-0.950,-0.475
3.367,-0.940,-0.480
3.369,-0.935,-0.510
3.372,-0.940,-0.510
3.375,-0.950,-0.515
3.378,-0.960,-0.530
3.381,-0.960,-0.525
3.383,-0.965,-0.515
3.386,-0.960,-0.510
3.389,-0.965,-0.485
3.392,-0.945,-0.480
3.394,-0.915,-0.480
3.397,-0.930,-0.475
3.400,-0.935,-0.475
3.403,-0.945,-0.485
3.406,-0.930,-0.495
3.408,-0.955,-0.515
3.411,-0.945,-0.505
3.414,-0.945,-0.510
3.417,-0.955,-0.505
3.419,-0.935,-0.520
3.422,-0.950,-0.500
3.425,-0.945,-0.490
3.428,-0.935,-0.505
3.431,-0.925,-0.480
3.433,-0.920,-0.495
3.436,-0.920,-0.485
3.439,-0.910,-0.495
3.442,-0.915,-0.495
3.444,-0.920,-0.500
3.447,-0.915,-0.505
3.450,-0.905,-0.500
3.453,-0.890,-0.470
3.456,-0.850,-0.445
3.458,-0.830,-0.440
3.461,-0.810,-0.430
3.464,-0.790,-0.415
3.467,-0.770,-0.420
3.469,-0.765,-0.390
3.472,-0.760,-0.400
3.475,-0.735,-0.400
3.478,-0.725,-0.405
3.481,-0.710,-0.400
3.483,-0.670,-0.400
3.486,-0.635,-0.410
3.489,-0.600,-0.415
3.492,-0.585,-0.425
3.494,-0.580,-0.445
3.497,-0.590,-0.445
3.500,-0.595,-0.460
3.503,-0.610,-0.490
3.506,-0.615,-0.520
3.508,-0.615,-0.515
3.511,-0.620,-0.535
3.514,-0.650,-0.525
3.517,-0.685,-0.525
3.519,-0.730,-0.535
3.522,-0.765,-0.535
3.525,-0.815,-0.530
3.528,-0.865,-0.520
3.531,-0.895,-0.515
3.533,-0.920,-0.500
3.536,-0.940,-0.505
3.539,-0.945,-0.520
3.542,-0.960,-0.540
3.544,-0.960,-0.550
3.547,-0.965,-0.555
3.550,-0.970,-0.560
3.553,-0.975,-0.560
3.556,-0.965,-0.535
3.558,-0.960,-0.530
3.561,-0.950,-0.515
3.564,-0.960,-0.520
3.567,-0.960,-0.520
3.569,-0.960,-0.520
3.572,-0.960,-0.520
3.575,-0.965,-0.520
3.578,-0.970,-0.535
3.581,-0.970,-0.540
3.583,-0.980,-0.535
3.586,-0.970,-0.540
3.589,-0.970,-0.530
3.592,-0.970,-0.535
3.594,-0.950,-0.525
3.597,-0.930,-0.520
3.600,-0.945,-0.525
3.603,-0.925,-0.525
3.606,-0.930,-0.525
3.608,-0.945,-0.530
3.611,-0.945,-0.540
3.614,-0.980,-0.550
3.617,-1.020,-0.540
3.619,-1.040,-0.500
3.622,-1.015,-0.440
3.625,-0.960,-0.365
3.628,-0.860,-0.340
3.631,-0.695,-0.275
3.633,-0.480,-0.275
3.636,-0.225,-0.320
3.639,0.090,-0.415
3.642,0.395,-0.550
3.644,0.715,-0.720
3.647,0.955,-0.930
3.650,1.115,-1.130
3.653,1.170,-1.345
3.656,1.165,-1.480
3.658,1.095,-1.555
3.661,0.925,-1.565
3.664,0.640,-1.540
3.667,0.230,-1.495
3.669,-0.265,-1.445
3.672,-0.705,-1.380
3.675,-1.010,-1.325
3.678,-1.085,-1.245
3.681,-1.050,-1.135
3.683,-0.900,-1.035
3.686,-0.770,-0.960
3.689,-0.710,-0.885
3.692,-0.700,-0.795
3.694,-0.720,-0.720
3.697,-0.770,-0.650
3.700,-0.845,-0.605
3.703,-0.905,-0.560
3.706,-0.915,-0.535
3.708,-0.925,-0.530
3.711,-0.935,-0.520
3.714,-0.945,-0.520
3.717,-0.945,-0.515
3.719,-0.940,-0.520
3.722,-0.940,-0.495
3.725,-0.935,-0.470
3.728,-0.935,-0.470
3.731,-0.925,-0.460
3.733,-0.935,-0.445
3.736,-0.945,-0.465
3.739,-0.950,-0.480
3.742,-0.955,-0.470
3.744,-0.965,-0.475
3.747,-0.975,-0.480
3.750,-1.000,-0.490
3.753,-0.985,-0.480
3.756,-0.980,-0.455
3.758,-0.985,-0.450
3.761,-0.970,-0.445
3.764,-0.965,-0.420
3.767,-0.965,-0.420
3.769,-0.975,-0.425
3.772,-0.980,-0.435
3.775,-0.970,-0.440
3.778,-0.970,-0.460
3.781,-0.980,-0.455
3.783,-0.990,-0.455
3.786,-0.965,-0.445
3.789,-0.970,-0.445
3.792,-0.960,-0.440
3.794,-0.945,-0.435
3.797,-0.940,-0.420
3.800,-0.940,-0.435
3.803,-0.945,-0.425
3.806,-0.945,-0.435
3.808,-0.950,-0.440
3.811,-0.960,-0.465
3.814,-0.960,-0.460
3.817,-0.960,-0.470
3.819,-0.950,-0.455
3.822,-0.945,-0.460
3.825,-0.945,-0.440
3.828,-0.930,-0.435
3.831,-0.910,-0.410
3.833,-0.910,-0.410
3.836,-0.910,-0.405
3.839,-0.925,-0.410
3.842,-0.910,-0.445
3.844,-0.920,-0.455
3.847,-0.935,-0.440
3.850,-0.920,-0.435
3.853,-0.915,-0.430
3.856,-0.905,-0.445
3.858,-0.880,-0.425
3.861,-0.870,-0.405
3.864,-0.860,-0.395
3.867,-0.850,-0.405
3.869,-0.865,-0.410
3.872,-0.855,-0.410
3.875,-0.835,-0.435
3.878,-0.840,-0.445
3.881,-0.825,-0.425
3.883,-0.810,-0.425
3.886,-0.815,-0.420
3.889,-0.780,-0.410
3.892,-0.785,-0.385
3.894,-0.755,-0.385
3.897,-0.735,-0.365
3.900,-0.710,-0.370
3.903,-0.710,-0.375
3.906,-0.705,-0.390
3.908,-0.675,-0.390
3.911,-0.670,-0.410
3.914,-0.650,-0.400
3.917,-0.645,-0.420
3.919,-0.625,-0.385
3.922,-0.605,-0.390
3.925,-0.590,-0.375
3.928,-0.565,-0.370
3.931,-0.535,-0.365
3.933,-0.510,-0.360
3.936,-0.500,-0.390
3.939,-0.485,-0.390
3.942,-0.485,-0.415
3.944,-0.475,-0.410
3.947,-0.470,-0.425
3.950,-0.475,-0.440
3.953,-0.440,-0.430
3.956,-0.425,-0.385
3.958,-0.400,-0.390
3.961,-0.390,-0.380
3.964,-0.365,-0.385
3.967,-0.365,-0.395
3.969,-0.355,-0.400
3.972,-0.350,-0.400
3.975,-0.350,-0.435
3.978,-0.360,-0.440
3.981,-0.370,-0.440
3.983,-0.390,-0.445
3.986,-0.395,-0.445
3.989,-0.410,-0.430
3.992,-0.425,-0.425
3.994,-0.440,-0.415
3.997,-0.450,-0.400
4.000,-0.490,-0.420
4.003,-0.510,-0.410
4.006,-0.550,-0.425
4.008,-0.595,-0.435
4.011,-0.620,-0.445
4.014,-0.655,-0.450
4.017,-0.680,-0.465
4.019,-0.700,-0.450
4.022,-0.715,-0.440
4.025,-0.745,-0.425
4.028,-0.745,-0.410
4.031,-0.765,-0.395
4.033,-0.775,-0.420
4.036,-0.790,-0.425
4.039,-0.800,-0.450
4.042,-0.830,-0.445
4.044,-0.840,-0.460
4.047,-0.850,-0.460
4.050,-0.870,-0.485
4.053,-0.880,-0.485
4.056,-0.890,-0.475
4.058,-0.895,-0.465
4.061,-0.890,-0.455
4.064,-0.870,-0.450
4.067,-0.875,-0.460
4.069,-0.890,-0.470
4.072,-0.885,-0.480
4.075,-0.885,-0.475
4.078,-0.910,-0.480
4.081,-0.920,-0.485
4.083,-0.915,-0.480
4.086,-0.925,-0.465
4.089,-0.920,-0.445
4.092,-0.910,-0.445
4.094,-0.910,-0.415
4.097,-0.900,-0.440
4.100,-0.900,-0.440
4.103,-0.900,-0.450
4.106,-0.915,-0.445
4.108,-0.920,-0.465
4.111,-0.925,-0.470
4.114,-0.930,-0.460
4.117,-0.925,-0.470
4.119,-0.925,-0.485
4.122,-0.915,-0.455
4.125,-0.900,-0.470
4.128,-0.880,-0.465
4.131,-0.880,-0.440
4.133,-0.865,-0.450
4.136,-0.865,-0.465
4.139,-0.890,-0.465
4.142,-0.890,-0.475
4.144,-0.900,-0.485
4.147,-0.920,-0.475
4.150,-0.900,-0.475
4.153,-0.890,-0.480
4.156,-0.890,-0.475
4.158,-0.890,-0.460
4.161,-0.875,-0.460
4.164,-0.880,-0.445
4.167,-0.875,-0.460
4.169,-0.860,-0.460
4.172,-0.860,-0.470
4.175,-0.880,-0.480
4.178,-0.880,-0.485
4.181,-0.900,-0.495
4.183,-0.895,-0.490
4.186,-0.920,-0.505
4.189,-0.905,-0.485
4.192,-0.890,-0.490
4.194,-0.870,-0.480
4.197,-0.880,-0.465
4.200,-0.875,-0.470
4.203,-0.885,-0.455
4.206,-0.890,-0.455
4.208,-0.905,-0.480
4.211,-0.905,-0.485
4.214,-0.900,-0.490
4.217,-0.915,-0.490
4.219,-0.920,-0.500
4.222,-0.920,-0.490
4.225,-0.905,-0.470
4.228,-0.915,-0.465
4.231,-0.915,-0.445
4.233,-0.890,-0.460
4.236,-0.925,-0.470
4.239,-0.925,-0.485
4.242,-0.930,-0.490
4.244,-0.930,-0.490
4.247,-0.935,-0.505
4.250,-0.945,-0.520
4.253,-0.935,-0.495
4.256,-0.925,-0.500
4.258,-0.930,-0.475
4.261,-0.920,-0.485
4.264,-0.920,-0.460
4.267,-0.910,-0.460
4.269,-0.910,-0.470
4.272,-0.930,-0.475
4.275,-0.945,-0.490
4.278,-0.955,-0.500
4.281,-0.960,-0.500
4.283,-0.965,-0.520
4.286,-0.955,-0.500
4.289,-0.960,-0.495
4.292,-0.945,-0.480
4.294,-0.940,-0.485
4.297,-0.935,-0.480
4.300,-0.940,-0.475
4.303,-0.940,-0.485
4.306,-0.930,-0.495
4.308,-0.945,-0.485
4.311,-0.955,-0.520
4.314,-0.955,-0.515
4.317,-0.965,-0.515
4.319,-0.950,-0.515
4.322,-0.955,-0.495
4.325,-0.950,-0.480
4.328,-0.960,-0.470
4.331,-0.945,-0.470
4.333,-0.950,-0.470
4.336,-0.955,-0.470
4.339,-0.945,-0.475
4.342,-0.955,-0.495
4.344,-0.965,-0.495
4.347,-0.985,-0.510
4.350,-0.990,-0.510
4.353,-0.965,-0.500
4.356,-0.965,-0.495
4.358,-0.960,-0.490
4.361,-0.955,-0.455
4.364,-0.960,-0.470
4.367,-0.940,-0.480
4.369,-0.945,-0.475
4.372,-0.940,-0.480
4.375,-0.940,-0.480
4.378,-0.930,-0.485
4.381,-0.940,-0.490
4.383,-0.920,-0.505
4.386,-0.920,-0.460
4.389,-0.900,-0.440
4.392,-0.885,-0.430
4.394,-0.840,-0.410
4.397,-0.835,-0.390
4.400,-0.815,-0.380
4.403,-0.790,-0.395
4.406,-0.800,-0.390
4.408,-0.785,-0.400
4.411,-0.750,-0.405
4.414,-0.735,-0.395
4.417,-0.690,-0.405
4.419,-0.650,-0.420
4.422,-0.650,-0.425
4.425,-0.640,-0.455
4.428,-0.640,-0.475
4.431,-0.645,-0.470
4.433,-0.640,-0.495
4.436,-0.650,-0.500
4.439,-0.665,-0.505
4.442,-0.660,-0.515
4.444,-0.670,-0.530
4.447,-0.720,-0.530
4.450,-0.735,-0.515
4.453,-0.785,-0.530
4.456,-0.830,-0.520
4.458,-0.885,-0.520
4.461,-0.930,-0.505
4.464,-0.945,-0.500
4.467,-0.960,-0.495
4.469,-0.975,-0.500
4.472,-0.975,-0.520
4.475,-1.000,-0.540
4.478,-1.020,-0.545
4.481,-1.015,-0.550
4.483,-1.015,-0.555
4.486,-1.020,-0.555
4.489,-1.015,-0.545
4.492,-1.010,-0.545
4.494,-1.010,-0.525
4.497,-1.010,-0.505
4.500,-1.010,-0.535
4.503,-1.015,-0.520
4.506,-1.010,-0.525
4.508,-1.015,-0.540
4.511,-1.035,-0.540
4.514,-1.035,-0.530
4.517,-1.030,-0.540
4.519,-1.040,-0.540
4.522,-1.040,-0.540
4.525,-1.040,-0.520
4.528,-1.015,-0.520
4.531,-1.010,-0.515
4.533,-1.005,-0.525
4.536,-0.990,-0.510
4.539,-0.995,-0.530
4.542,-1.000,-0.535
4.544,-1.010,-0.545
4.547,-1.040,-0.550
4.550,-1.045,-0.525
4.553,-1.075,-0.540
4.556,-1.095,-0.495
4.558,-1.075,-0.435
4.561,-0.995,-0.375
4.564,-0.870,-0.320
4.567,-0.680,-0.290
4.569,-0.430,-0.315
4.572,-0.105,-0.390
4.575,0.255,-0.530
4.578,0.590,-0.700
4.581,0.880,-0.910
4.583,1.055,-1.155
4.586,1.110,-1.335
4.589,1.060,-1.470
4.592,0.910,-1.535
4.594,0.615,-1.515
4.597,0.195,-1.455
4.600,-0.295,-1.385
4.603,-0.760,-1.325
4.606,-1.070,-1.260
4.608,-1.185,-1.180
4.611,-1.135,-1.085
4.614,-1.005,-1.000
4.617,-0.880,-0.930
4.619,-0.815,-0.850
4.622,-0.795,-0.770
4.625,-0.840,-0.705
4.628,-0.885,-0.635
4.631,-0.945,-0.565
4.633,-0.990,-0.535
4.636,-1.010,-0.515
4.639,-1.025,-0.495
4.642,-1.020,-0.510
4.644,-1.035,-0.515
4.647,-1.040,-0.510
4.650,-1.055,-0.520
4.653,-1.055,-0.495
4.656,-1.055,-0.480
4.658,-1.050,-0.455
4.661,-1.045,-0.450
4.664,-1.045,-0.435
4.667,-1.040,-0.450
4.669,-1.055,-0.445
4.672,-1.050,-0.450
4.675,-1.055,-0.460
4.678,-1.065,-0.475
4.681,-1.080,-0.465
4.683,-1.070,-0.470
4.686,-1.075,-0.470
4.689,-1.060,-0.450
4.692,-1.080,-0.440
4.694,-1.070,-0.425
4.697,-1.070,-0.430
4.700,-1.065,-0.410
4.703,-1.070,-0.425
4.706,-1.065,-0.430
4.708,-1.060,-0.455
4.711,-1.065,-0.445
4.714,-1.075,-0.465
4.717,-1.090,-0.475
4.719,-1.075,-0.455
4.722,-1.070,-0.445
4.725,-1.075,-0.455
4.728,-1.055,-0.445
4.731,-1.040,-0.430
4.733,-1.035,-0.440
4.736,-1.045,-0.445
4.739,-1.055,-0.435
4.742,-1.055,-0.460
4.744,-1.060,-0.465
4.747,-1.060,-0.455
4.750,-1.080,-0.465
4.753,-1.055,-0.455
4.756,-1.060,-0.450
4.758,-1.035,-0.440
4.761,-1.015,-0.425
4.764,-1.015,-0.415
4.767,-1.000,-0.410
4.769,-0.995,-0.415
4.772,-1.005,-0.440
4.775,-1.010,-0.440
4.778,-1.015,-0.460
4.781,-1.010,-0.460
4.783,-1.005,-0.460
4.786,-0.985,-0.460
4.789,-0.975,-0.430
4.792,-0.960,-0.450
4.794,-0.940,-0.440
4.797,-0.915,-0.420
4.800,-0.910,-0.425
4.803,-0.905,-0.440
4.806,-0.900,-0.445
4.808,-0.895,-0.445
4.811,-0.880,-0.445
4.814,-0.880,-0.440
4.817,-0.890,-0.435
4.819,-0.880,-0.435
4.822,-0.850,-0.415
4.825,-0.815,-0.420
4.828,-0.785,-0.405
4.831,-0.750,-0.395
4.833,-0.735,-0.395
4.836,-0.715,-0.435
4.839,-0.705,-0.430
4.842,-0.705,-0.435
4.844,-0.690,-0.450
4.847,-0.685,-0.460
4.850,-0.670,-0.480
4.853,-0.660,-0.480
4.856,-0.630,-0.470
4.858,-0.635,-0.465
4.861,-0.590,-0.470
4.864,-0.560,-0.455
4.867,-0.555,-0.455
4.869,-0.530,-0.445
4.872,-0.520,-0.455
4.875,-0.520,-0.465
4.878,-0.510,-0.470
4.881,-0.510,-0.470
4.883,-0.510,-0.475
4.886,-0.500,-0.475
4.889,-0.490,-0.475
4.892,-0.480,-0.455
4.894,-0.470,-0.450
4.897,-0.465,-0.455
4.900,-0.460,-0.450
4.903,-0.480,-0.455
4.906,-0.495,-0.450
4.908,-0.530,-0.470
4.911,-0.545,-0.475
4.914,-0.585,-0.475
4.917,-0.605,-0.475
4.919,-0.635,-0.475
4.922,-0.650,-0.460
4.925,-0.670,-0.440
4.928,-0.710,-0.435
4.931,-0.720,-0.420
4.933,-0.745,-0.405
4.936,-0.775,-0.425
4.939,-0.815,-0.410
4.942,-0.840,-0.430
4.944,-0.865,-0.430
4.947,-0.900,-0.435
4.950,-0.920,-0.450
4.953,-0.920,-0.440
4.956,-0.945,-0.445
4.958,-0.945,-0.440
4.961,-0.960,-0.435
4.964,-0.975,-0.420
4.967,-0.975,-0.420
4.969,-0.990,-0.425
4.972,-1.005,-0.440
4.975,-1.005,-0.445
4.978,-1.030,-0.455
4.981,-1.045,-0.465
4.983,-1.065,-0.485
4.986,-1.060,-0.480
4.989,-1.045,-0.470
4.992,-1.035,-0.460
4.994,-1.030,-0.450
4.997,-1.040,-0.440
5.000,-1.030,-0.440
5.003,-1.050,-0.445
5.006,-1.060,-0.450
5.008,-1.060,-0.450
5.011,-1.060,-0.455
5.014,-1.070,-0.455
5.017,-1.070,-0.460
5.019,-1.065,-0.455
5.022,-1.060,-0.450
5.025,-1.045,-0.455
5.028,-1.035,-0.450
5.031,-1.030,-0.430
5.033,-1.015,-0.445
5.036,-1.010,-0.440
5.039,-1.015,-0.445
5.042,-1.040,-0.460
5.044,-1.040,-0.475
5.047,-1.030,-0.480
5.050,-1.035,-0.470
5.053,-1.050,-0.475
5.056,-1.025,-0.480
5.058,-1.010,-0.465
5.061,-1.020,-0.435
5.064,-1.005,-0.430
5.067,-0.995,-0.425
5.069,-0.980,-0.445
5.072,-0.990,-0.445
5.075,-1.005,-0.460
5.078,-1.010,-0.460
5.081,-1.015,-0.470
5.083,-1.005,-0.470
5.086,-1.015,-0.470
5.089,-1.010,-0.465
5.092,-0.995,-0.470
5.094,-0.985,-0.450
5.097,-0.975,-0.435
5.100,-0.975,-0.435
5.103,-0.965,-0.445
5.106,-0.965,-0.475
5.108,-0.995,-0.470
5.111,-0.995,-0.475
5.114,-1.000,-0.470
5.117,-1.005,-0.500
5.119,-1.020,-0.490
5.122,-1.005,-0.475
5.125,-1.005,-0.460
5.128,-1.000,-0.445
5.131,-0.975,-0.440
5.133,-0.985,-0.445
5.136,-1.005,-0.435
5.139,-1.000,-0.465
5.142,-1.020,-0.470
5.144,-1.020,-0.475
5.147,-1.030,-0.485
5.150,-1.010,-0.480
5.153,-1.010,-0.465
5.156,-1.015,-0.475
5.158,-1.010,-0.460
5.161,-1.000,-0.455
5.164,-0.995,-0.455
5.167,-1.010,-0.455
5.169,-1.005,-0.465
5.172,-1.015,-0.485
5.175,-1.030,-0.485
5.178,-1.025,-0.485
5.181,-1.045,-0.500
5.183,-1.060,-0.490
5.186,-1.050,-0.500
5.189,-1.040,-0.475
5.192,-1.040,-0.450
5.194,-1.030,-0.445
5.197,-1.035,-0.455
5.200,-1.015,-0.445
5.203,-1.030,-0.465
5.206,-1.035,-0.450
5.208,-1.040,-0.470
5.211,-1.035,-0.480
5.214,-1.050,-0.490
5.217,-1.060,-0.500
5.219,-1.075,-0.495
5.222,-1.060,-0.500
5.225,-1.050,-0.480
5.228,-1.045,-0.475
5.231,-1.040,-0.455
5.233,-1.030,-0.470
5.236,-1.030,-0.470
5.239,-1.035,-0.495
5.242,-1.045,-0.485
5.244,-1.050,-0.485
5.247,-1.060,-0.500
5.250,-1.065,-0.505
5.253,-1.075,-0.475
5.256,-1.060,-0.495
5.258,-1.050,-0.470
5.261,-1.035,-0.450
5.264,-1.035,-0.445
5.267,-1.015,-0.450
5.269,-1.010,-0.450
5.272,-0.995,-0.450
5.275,-0.995,-0.460
5.278,-0.985,-0.470
5.281,-0.985,-0.460
5.283,-0.970,-0.455
5.286,-0.950,-0.450
5.289,-0.945,-0.430
5.292,-0.925,-0.435
5.294,-0.910,-0.415
5.297,-0.890,-0.405
5.300,-0.865,-0.380
5.303,-0.860,-0.400
5.306,-0.825,-0.390
5.308,-0.810,-0.390
5.311,-0.770,-0.390
5.314,-0.740,-0.405
5.317,-0.720,-0.425
5.319,-0.710,-0.435
5.322,-0.695,-0.465
5.325,-0.700,-0.460
5.328,-0.705,-0.475
5.331,-0.720,-0.470
5.333,-0.695,-0.485
5.336,-0.710,-0.475
5.339,-0.720,-0.505
5.342,-0.755,-0.515
5.344,-0.800,-0.525
5.347,-0.840,-0.545
5.350,-0.900,-0.555
5.353,-0.965,-0.555
5.356,-1.015,-0.535
5.358,-1.045,-0.515
5.361,-1.040,-0.515
5.364,-1.055,-0.500
5.367,-1.060,-0.490
5.369,-1.045,-0.490
5.372,-1.055,-0.515
5.375,-1.050,-0.515
5.378,-1.075,-0.515
5.381,-1.085,-0.545
5.383,-1.080,-0.545
5.386,-1.080,-0.540
5.389,-1.080,-0.530
5.392,-1.070,-0.520
5.394,-1.065,-0.505
5.397,-1.075,-0.510
5.400,-1.070,-0.515
5.403,-1.080,-0.505
5.406,-1.090,-0.525
5.408,-1.085,-0.530
5.411,-1.100,-0.525
5.414,-1.085,-0.555
5.417,-1.100,-0.555
5.419,-1.105,-0.545
5.422,-1.085,-0.525
5.425,-1.075,-0.520
5.428,-1.055,-0.515
5.431,-1.065,-0.495
5.433,-1.050,-0.495
5.436,-1.055,-0.490
5.439,-1.060,-0.500
5.442,-1.085,-0.495
5.444,-1.120,-0.475
5.447,-1.120,-0.460
5.450,-1.090,-0.415
5.453,-0.990,-0.350
5.456,-0.835,-0.310
5.458,-0.575,-0.305
5.461,-0.255,-0.355
5.464,0.145,-0.465
5.467,0.535,-0.655
5.469,0.865,-0.895
5.472,1.065,-1.155
5.475,1.165,-1.375
5.478,1.110,-1.525
5.481,0.900,-1.570
5.483,0.525,-1.550
5.486,-0.015,-1.490
5.489,-0.575,-1.390
5.492,-1.000,-1.285
5.494,-1.210,-1.180
5.497,-1.210,-1.055
5.500,-1.085,-0.950
5.503,-0.955,-0.860
5.506,-0.855,-0.810
5.508,-0.830,-0.755
5.511,-0.855,-0.685
5.514,-0.935,-0.645
5.517,-0.990,-0.595
5.519,-1.035,-0.560
5.522,-1.050,-0.540
5.525,-1.085,-0.510
5.528,-1.055,-0.510
5.531,-1.060,-0.495
5.533,-1.025,-0.485
5.536,-1.035,-0.485
5.539,-1.045,-0.470
5.542,-1.050,-0.485
5.544,-1.055,-0.465
5.547,-1.090,-0.485
5.550,-1.090,-0.485
5.553,-1.085,-0.480
5.556,-1.085,-0.455
5.558,-1.080,-0.450
5.561,-1.080,-0.445
5.564,-1.070,-0.445
5.567,-1.055,-0.435
5.569,-1.065,-0.430
5.572,-1.070,-0.425
5.575,-1.060,-0.450
5.578,-1.080,-0.465
5.581,-1.090,-0.470
5.583,-1.090,-0.485
5.586,-1.090,-0.475
5.589,-1.085,-0.455
5.592,-1.070,-0.450
5.594,-1.070,-0.450
5.597,-1.050,-0.445
5.600,-1.045,-0.440
5.603,-1.055,-0.435
5.606,-1.065,-0.430
5.608,-1.065,-0.450
5.611,-1.040,-0.465
5.614,-1.060,-0.485
5.617,-1.055,-0.480
5.619,-1.050,-0.480
5.622,-1.065,-0.460
5.625,-1.040,-0.460
5.628,-1.030,-0.455
5.631,-1.020,-0.440
5.633,-1.025,-0.450
5.636,-1.010,-0.440
5.639,-0.990,-0.455
5.642,-0.995,-0.455
5.644,-0.990,-0.460
5.647,-0.990,-0.470
5.650,-0.985,-0.455
5.653,-0.980,-0.455
5.656,-0.970,-0.440
5.658,-0.955,-0.435
5.661,-0.935,-0.415
5.664,-0.935,-0.415
5.667,-0.910,-0.410
5.669,-0.905,-0.410
5.672,-0.905,-0.415
5.675,-0.890,-0.440
5.678,-0.900,-0.415
5.681,-0.915,-0.450
5.683,-0.905,-0.455
5.686,-0.880,-0.435
5.689,-0.845,-0.435
5.692,-0.820,-0.425
5.694,-0.815,-0.410
5.697,-0.775,-0.410
5.700,-0.765,-0.415
5.703,-0.745,-0.415
5.706,-0.710,-0.410
5.708,-0.725,-0.425
5.711,-0.695,-0.415
5.714,-0.675,-0.435
5.717,-0.640,-0.420
5.719,-0.625,-0.430
5.722,-0.605,-0.425
5.725,-0.570,-0.410
5.728,-0.550,-0.400
5.731,-0.530,-0.410
5.733,-0.510,-0.395
5.736,-0.485,-0.410
5.739,-0.470,-0.420
5.742,-0.470,-0.440
5.744,-0.450,-0.440
5.747,-0.445,-0.455
5.750,-0.420,-0.450
5.753,-0.425,-0.450
5.756,-0.415,-0.455
5.758,-0.410,-0.440
5.761,-0.395,-0.445
5.764,-0.395,-0.440
5.767,-0.370,-0.410
5.769,-0.400,-0.430
5.772,-0.410,-0.450
5.775,-0.450,-0.465
5.778,-0.485,-0.450
5.781,-0.500,-0.455
5.783,-0.530,-0.455
5.786,-0.585,-0.450
5.789,-0.615,-0.450
5.792,-0.620,-0.420
5.794,-0.650,-0.425
5.797,-0.665,-0.420
5.800,-0.705,-0.405
5.803,-0.740,-0.420
5.806,-0.765,-0.425
5.808,-0.800,-0.430
5.811,-0.830,-0.440
5.814,-0.850,-0.460
5.817,-0.860,-0.465
5.819,-0.885,-0.470
5.822,-0.910,-0.460
5.825,-0.905,-0.445
5.828,-0.915,-0.450
5.831,-0.920,-0.445
5.833,-0.930,-0.425
5.836,-0.930,-0.440
5.839,-0.955,-0.455
5.842,-0.960,-0.450
5.844,-0.970,-0.445
5.847,-0.975,-0.470
5.850,-0.985,-0.470
5.853,-0.995,-0.485
5.856,-1.000,-0.480
5.858,-0.980,-0.460
5.861,-0.990,-0.465
5.864,-0.975,-0.465
5.867,-0.960,-0.460
5.869,-0.965,-0.480
5.872,-0.980,-0.465
5.875,-0.985,-0.485
5.878,-0.990,-0.480
5.881,-0.995,-0.485
5.883,-0.980,-0.500
5.886,-0.985,-0.490
5.889,-0.985,-0.485
5.892,-0.965,-0.475
5.894,-0.945,-0.460
5.897,-0.945,-0.445
5.900,-0.925,-0.440
5.903,-0.925,-0.445
5.906,-0.940,-0.455
5.908,-0.950,-0.465
5.911,-0.955,-0.470
5.914,-0.955,-0.490
5.917,-0.935,-0.495
5.919,-0.945,-0.490
5.922,-0.945,-0.490
5.925,-0.930,-0.460
5.928,-0.915,-0.475
5.931,-0.915,-0.460
5.933,-0.910,-0.475
5.936,-0.915,-0.475
5.939,-0.920,-0.475
5.942,-0.930,-0.495
5.944,-0.940,-0.505
5.947,-0.920,-0.510
5.950,-0.925,-0.505
5.953,-0.935,-0.505
5.956,-0.915,-0.500
5.958,-0.905,-0.485
5.961,-0.895,-0.475
5.964,-0.885,-0.475
5.967,-0.890,-0.480
5.969,-0.900,-0.455
5.972,-0.900,-0.490
5.975,-0.905,-0.485
5.978,-0.905,-0.485
5.981,-0.915,-0.515
5.983,-0.930,-0.515
5.986,-0.925,-0.500
5.989,-0.930,-0.525
5.992,-0.915,-0.510
5.994,-0.920,-0.490
5.997,-0.915,-0.490
6.000,-0.920,-0.490
6.003,-0.915,-0.485
6.006,-0.920,-0.495
6.008,-0.925,-0.500
6.011,-0.930,-0.505
6.014,-0.925,-0.530
6.017,-0.945,-0.530
6.019,-0.955,-0.510
6.022,-0.955,-0.500
6.025,-0.955,-0.495
6.028,-0.940,-0.485
6.031,-0.920,-0.480
6.033,-0.920,-0.475
6.036,-0.945,-0.495
6.039,-0.945,-0.495
6.042,-0.935,-0.505
6.044,-0.945,-0.515
6.047,-0.950,-0.505
6.050,-0.965,-0.515
6.053,-0.960,-0.515
6.056,-0.965,-0.495
6.058,-0.945,-0.490
6.061,-0.950,-0.495
6.064,-0.940,-0.495
6.067,-0.925,-0.500
6.069,-0.945,-0.490
6.072,-0.950,-0.505
6.075,-0.970,-0.500
6.078,-0.965,-0.515
6.081,-0.970,-0.525
6.083,-0.970,-0.525
6.086,-0.990,-0.515
6.089,-0.990,-0.510
6.092,-0.960,-0.495
6.094,-0.975,-0.495
6.097,-0.945,-0.480
6.100,-0.950,-0.480
6.103,-0.950,-0.480
6.106,-0.960,-0.485
6.108,-0.955,-0.510
6.111,-0.965,-0.520
6.114,-0.990,-0.505
6.117,-0.975,-0.525
6.119,-0.975,-0.520
6.122,-0.975,-0.520
6.125,-0.960,-0.510
6.128,-0.960,-0.505
6.131,-0.945,-0.510
6.133,-0.940,-0.505
6.136,-0.935,-0.510
6.139,-0.930,-0.505
6.142,-0.945,-0.530
6.144,-0.945,-0.535
6.147,-0.965,-0.540
6.150,-0.950,-0.525
6.153,-0.960,-0.530
6.156,-0.955,-0.520
6.158,-0.920,-0.490
6.161,-0.905,-0.490
6.164,-0.880,-0.460
6.167,-0.860,-0.450
6.169,-0.845,-0.455
6.172,-0.850,-0.455
6.175,-0.835,-0.460
6.178,-0.830,-0.450
6.181,-0.815,-0.465
6.183,-0.820,-0.465
6.186,-0.815,-0.460
6.189,-0.780,-0.450
6.192,-0.745,-0.425
6.194,-0.725,-0.410
6.197,-0.685,-0.390
6.200,-0.630,-0.395
6.203,-0.605,-0.395
6.206,-0.590,-0.435
6.208,-0.590,-0.460
6.211,-0.600,-0.490
6.214,-0.620,-0.510
6.217,-0.635,-0.530
6.219,-0.665,-0.540
6.222,-0.645,-0.535
6.225,-0.640,-0.520
6.228,-0.645,-0.505
6.231,-0.650,-0.520
6.233,-0.710,-0.520
6.236,-0.755,-0.535
6.239,-0.820,-0.525
6.242,-0.875,-0.545
6.244,-0.925,-0.530
6.247,-0.960,-0.540
6.250,-0.995,-0.560
6.253,-1.020,-0.555
6.256,-1.010,-0.545
6.258,-0.990,-0.525
6.261,-0.970,-0.520
6.264,-0.960,-0.520
6.267,-0.970,-0.515
6.269,-0.975,-0.515
6.272,-0.975,-0.515
6.275,-0.990,-0.530
6.278,-1.010,-0.530
6.281,-1.010,-0.535
6.283,-1.015,-0.555
6.286,-1.025,-0.535
6.289,-1.010,-0.530
6.292,-1.005,-0.535
6.294,-1.015,-0.525
6.297,-0.995,-0.525
6.300,-0.990,-0.530
6.303,-0.980,-0.525
6.306,-0.985,-0.525
6.308,-0.990,-0.530
6.311,-0.990,-0.530
6.314,-0.990,-0.545
6.317,-0.990,-0.545
6.319,-0.990,-0.565
6.322,-0.985,-0.535
6.325,-0.995,-0.535
6.328,-0.985,-0.535
6.331,-0.985,-0.525
6.333,-0.990,-0.505
6.336,-1.010,-0.490
6.339,-1.035,-0.480
6.342,-1.050,-0.445
6.344,-1.035,-0.400
6.347,-0.985,-0.345
6.350,-0.880,-0.295
6.353,-0.710,-0.265
6.356,-0.450,-0.315
6.358,-0.145,-0.390
6.361,0.225,-0.505
6.364,0.600,-0.690
6.367,0.920,-0.910
6.369,1.130,-1.160
6.372,1.205,-1.385
6.375,1.200,-1.565
6.378,1.085,-1.670
6.381,0.845,-1.675
6.383,0.450,-1.625
6.386,-0.045,-1.550
6.389,-0.570,-1.455
6.392,-0.935,-1.365
6.394,-1.120,-1.245
6.397,-1.095,-1.135
6.400,-0.995,-1.015
6.403,-0.845,-0.930
6.406,-0.755,-0.845
6.408,-0.745,-0.760
6.411,-0.775,-0.720
6.414,-0.825,-0.660
6.417,-0.910,-0.605
6.419,-0.960,-0.575
6.422,-0.990,-0.545
6.425,-0.990,-0.530
6.428,-0.970,-0.505
6.431,-0.975,-0.495
6.433,-0.950,-0.500
6.436,-0.960,-0.490
6.439,-0.965,-0.485
6.442,-0.955,-0.485
6.444,-0.970,-0.485
6.447,-1.005,-0.505
6.450,-1.005,-0.485
6.453,-1.020,-0.495
6.456,-1.005,-0.495
6.458,-1.000,-0.470
6.461,-0.995,-0.460
6.464,-1.000,-0.435
6.467,-0.990,-0.425
6.469,-0.990,-0.430
6.472,-1.010,-0.440
6.475,-0.995,-0.450
6.478,-1.010,-0.445
6.481,-1.015,-0.455
6.483,-1.015,-0.465
6.486,-1.025,-0.455
6.489,-1.015,-0.460
6.492,-1.000,-0.450
6.494,-0.990,-0.440
6.497,-0.995,-0.415
6.500,-0.990,-0.420
6.503,-0.990,-0.415
6.506,-1.000,-0.430
6.508,-0.995,-0.450
6.511,-1.010,-0.450
6.514,-1.030,-0.460
6.517,-1.030,-0.470
6.519,-1.005,-0.455
6.522,-1.015,-0.460
6.525,-0.995,-0.450
6.528,-0.990,-0.435
6.531,-0.970,-0.405
6.533,-0.955,-0.400
6.536,-0.955,-0.395
6.539,-0.955,-0.410
6.542,-0.955,-0.405
6.544,-0.975,-0.420
6.547,-0.965,-0.435
6.550,-0.970,-0.440
6.553,-0.970,-0.440
6.556,-0.970,-0.435
6.558,-0.935,-0.425
6.561,-0.925,-0.400
6.564,-0.920,-0.420
6.567,-0.925,-0.410
6.569,-0.935,-0.405
6.572,-0.925,-0.420
6.575,-0.915,-0.425
6.578,-0.910,-0.435
6.581,-0.910,-0.425
6.583,-0.905,-0.435
6.586,-0.895,-0.430
6.589,-0.900,-0.405
6.592,-0.875,-0.400
6.594,-0.855,-0.380
6.597,-0.825,-0.380
6.600,-0.810,-0.370
6.603,-0.800,-0.370
6.606,-0.785,-0.370
6.608,-0.775,-0.375
6.611,-0.765,-0.390
6.614,-0.765,-0.395
6.617,-0.765,-0.415
6.619,-0.745,-0.395
6.622,-0.720,-0.385
6.625,-0.695,-0.375
6.628,-0.670,-0.365
6.631,-0.635,-0.365
6.633,-0.600,-0.360
6.636,-0.590,-0.365
6.639,-0.575,-0.365
6.642,-0.560,-0.395
6.644,-0.540,-0.390
6.647,-0.535,-0.395
6.650,-0.515,-0.405
6.653,-0.505,-0.405
6.656,-0.480,-0.390
6.658,-0.460,-0.385
6.661,-0.435,-0.385
6.664,-0.420,-0.365
6.667,-0.400,-0.370
6.669,-0.380,-0.370
6.672,-0.355,-0.395
6.675,-0.370,-0.400
6.678,-0.365,-0.425
6.681,-0.370,-0.425
6.683,-0.375,-0.430
6.686,-0.385,-0.425
6.689,-0.400,-0.445
6.692,-0.420,-0.435
6.694,-0.440,-0.420
6.697,-0.460,-0.410
6.700,-0.470,-0.405
6.703,-0.505,-0.410
6.706,-0.535,-0.395
6.708,-0.575,-0.405
6.711,-0.630,-0.415
6.714,-0.640,-0.410
6.717,-0.690,-0.410
6.719,-0.715,-0.415
6.722,-0.750,-0.410
6.725,-0.755,-0.400
6.728,-0.775,-0.410
6.731,-0.780,-0.395
6.733,-0.790,-0.415
6.736,-0.815,-0.415
6.739,-0.840,-0.410
6.742,-0.850,-0.430
6.744,-0.895,-0.430
6.747,-0.910,-0.455
6.750,-0.925,-0.465
6.753,-0.930,-0.465
6.756,-0.930,-0.455
6.758,-0.940,-0.445
6.761,-0.935,-0.450
6.764,-0.920,-0.425
6.767,-0.915,-0.445
6.769,-0.925,-0.435
6.772,-0.930,-0.420
6.775,-0.935,-0.425
6.778,-0.935,-0.450
6.781,-0.935,-0.455
6.783,-0.950,-0.455
6.786,-0.965,-0.450
6.789,-0.970,-0.465
6.792,-0.965,-0.450
6.794,-0.960,-0.430
6.797,-0.960,-0.435
6.800,-0.930,-0.430
6.803,-0.940,-0.440
6.806,-0.935,-0.435
6.808,-0.935,-0.445
6.811,-0.935,-0.455
6.814,-0.950,-0.470
6.817,-0.945,-0.475
6.819,-0.945,-0.475
6.822,-0.935,-0.475
6.825,-0.940,-0.460
6.828,-0.925,-0.455
6.831,-0.925,-0.420
6.833,-0.915,-0.405
6.836,-0.915,-0.415
6.839,-0.915,-0.410
6.842,-0.910,-0.400
6.844,-0.925,-0.410
6.847,-0.920,-0.400
6.850,-0.945,-0.380
6.853,-0.950,-0.355
6.856,-0.910,-0.330
6.858,-0.865,-0.290
6.861,-0.795,-0.205
6.864,-0.690,-0.175
6.867,-0.555,-0.180
6.869,-0.405,-0.260
6.872,-0.280,-0.370
6.875,-0.135,-0.520
6.878,0.005,-0.690
6.881,0.175,-0.830
6.883,0.360,-0.970
6.886,0.555,-1.110
6.889,0.780,-1.280
6.892,1.000,-1.455
6.894,1.215,-1.625
6.897,1.395,-1.830
6.900,1.570,-2.015
6.903,1.715,-2.170
6.906,1.830,-2.290
6.908,1.900,-2.350
6.911,1.935,-2.380
6.914,1.940,-2.405
6.917,1.945,-2.410
6.919,1.915,-2.395
6.922,1.880,-2.375
6.925,1.815,-2.335
6.928,1.735,-2.305
6.931,1.675,-2.215
6.933,1.630,-2.145
6.936,1.600,-2.025
6.939,1.605,-1.940
6.942,1.610,-1.870
6.944,1.570,-1.785
6.947,1.530,-1.695
6.950,1.440,-1.605
6.953,1.300,-1.515
6.956,1.150,-1.435
6.958,0.985,-1.320
6.961,0.780,-1.225
6.964,0.530,-1.140
6.967,0.180,-1.035
6.969,-0.210,-0.960
6.972,-0.600,-0.855
6.975,-0.880,-0.740
6.978,-1.070,-0.650
6.981,-1.130,-0.530
6.983,-1.145,-0.470
6.986,-1.130,-0.420
6.989,-1.100,-0.385
6.992,-1.120,-0.380
6.994,-1.145,-0.355
6.997,-1.190,-0.345
7.000,-1.225,-0.315
7.003,-1.255,-0.305
7.006,-1.300,-0.285
7.008,-1.325,-0.290
7.011,-1.355,-0.290
7.014,-1.375,-0.280
7.017,-1.395,-0.265
7.019,-1.400,-0.255
7.022,-1.415,-0.240
7.025,-1.425,-0.220
7.028,-1.430,-0.200
7.031,-1.455,-0.190
7.033,-1.455,-0.180
7.036,-1.460,-0.170
7.039,-1.465,-0.165
7.042,-1.475,-0.170
7.044,-1.495,-0.165
7.047,-1.520,-0.170
7.050,-1.535,-0.170
7.053,-1.545,-0.165
7.056,-1.560,-0.145
7.058,-1.560,-0.115
7.061,-1.560,-0.095
7.064,-1.570,-0.060
7.067,-1.565,-0.055
7.069,-1.575,-0.030
7.072,-1.565,-0.015
7.075,-1.575,-0.010
7.078,-1.575,-0.005
7.081,-1.590,0.005
7.083,-1.590,0.035
7.086,-1.590,0.050
7.089,-1.605,0.080
7.092,-1.620,0.115
7.094,-1.605,0.150
7.097,-1.605,0.165
7.100,-1.585,0.190
7.103,-1.575,0.210
7.106,-1.600,0.205
7.108,-1.570,0.210
7.111,-1.585,0.180
7.114,-1.605,0.175
7.117,-1.635,0.160
7.119,-1.675,0.155
7.122,-1.685,0.175
7.125,-1.710,0.180
7.128,-1.725,0.215
7.131,-1.720,0.245
7.133,-1.745,0.270
7.136,-1.800,0.285
7.139,-1.855,0.315
7.142,-1.910,0.320
7.144,-1.980,0.335
7.147,-2.035,0.340
7.150,-2.100,0.355
7.153,-2.170,0.390
7.156,-2.215,0.410
7.158,-2.245,0.445
7.161,-2.275,0.475
7.164,-2.280,0.475
7.167,-2.315,0.495
7.169,-2.330,0.510
7.172,-2.320,0.490
7.175,-2.335,0.480
7.178,-2.350,0.480
7.181,-2.360,0.455
7.183,-2.365,0.435
7.186,-2.375,0.430
7.189,-2.370,0.410
7.192,-2.350,0.415
7.194,-2.315,0.400
7.197,-2.290,0.390
7.200,-2.260,0.365
7.203,-2.225,0.340
7.206,-2.195,0.310
7.208,-2.165,0.265
7.211,-2.145,0.235
7.214,-2.110,0.195
7.217,-2.040,0.145
7.219,-1.985,0.110
7.222,-1.920,0.075
7.225,-1.860,0.035
7.228,-1.790,0.010
7.231,-1.760,-0.025
7.233,-1.670,-0.040
7.236,-1.625,-0.110
7.239,-1.580,-0.135
7.242,-1.540,-0.185
7.244,-1.495,-0.210
7.247,-1.455,-0.250
7.250,-1.415,-0.285
7.253,-1.380,-0.305
7.256,-1.350,-0.315
7.258,-1.330,-0.330
7.261,-1.300,-0.320
7.264,-1.270,-0.330
7.267,-1.270,-0.320
7.269,-1.255,-0.350
7.272,-1.235,-0.365
7.275,-1.230,-0.375
7.278,-1.225,-0.400
7.281,-1.225,-0.405
7.283,-1.220,-0.425
7.286,-1.260,-0.430
7.289,-1.240,-0.415
7.292,-1.215,-0.405
7.294,-1.205,-0.405
7.297,-1.220,-0.390
7.300,-1.205,-0.390
7.303,-1.205,-0.405
7.306,-1.200,-0.400
7.308,-1.210,-0.415
7.311,-1.215,-0.440
7.314,-1.210,-0.450
7.317,-1.215,-0.430
7.319,-1.225,-0.435
7.322,-1.200,-0.430
7.325,-1.205,-0.405
7.328,-1.195,-0.410
7.331,-1.190,-0.380
7.333,-1.170,-0.375
7.336,-1.170,-0.385
7.339,-1.175,-0.380
7.342,-1.170,-0.405
7.344,-1.180,-0.410
7.347,-1.190,-0.410
7.350,-1.185,-0.410
7.353,-1.180,-0.420
7.356,-1.175,-0.410
7.358,-1.175,-0.410
7.361,-1.155,-0.395
7.364,-1.145,-0.395
7.367,-1.130,-0.385
7.369,-1.115,-0.395
7.372,-1.120,-0.395
7.375,-1.135,-0.415
7.378,-1.135,-0.425
7.381,-1.145,-0.410
7.383,-1.140,-0.440
7.386,-1.135,-0.445
7.389,-1.145,-0.425
7.392,-1.130,-0.400
7.394,-1.130,-0.415
7.397,-1.125,-0.375
7.400,-1.115,-0.370
7.403,-1.105,-0.390
7.406,-1.115,-0.405
7.408,-1.095,-0.420
7.411,-1.095,-0.425
7.414,-1.110,-0.420
7.417,-1.115,-0.430
7.419,-1.110,-0.440
7.422,-1.115,-0.445
7.425,-1.100,-0.440
7.428,-1.120,-0.430
7.431,-1.095,-0.415
7.433,-1.080,-0.400
7.436,-1.085,-0.405
7.439,-1.080,-0.430
7.442,-1.080,-0.430
7.444,-1.075,-0.450
7.447,-1.085,-0.460
7.450,-1.100,-0.465
7.453,-1.105,-0.470
7.456,-1.090,-0.470
7.458,-1.100,-0.455
7.461,-1.080,-0.455
7.464,-1.075,-0.435
7.467,-1.060,-0.435
7.469,-1.050,-0.445
7.472,-1.035,-0.450
7.475,-1.045,-0.430
7.478,-1.055,-0.450
7.481,-1.060,-0.470
7.483,-1.070,-0.490
7.486,-1.065,-0.475
7.489,-1.080,-0.475
7.492,-1.080,-0.465
7.494,-1.060,-0.465
7.497,-1.045,-0.450
7.500,-1.035,-0.460
7.503,-1.040,-0.450
7.506,-1.040,-0.455
7.508,-1.040,-0.460
7.511,-1.045,-0.470
7.514,-1.060,-0.470
7.517,-1.050,-0.475
7.519,-1.045,-0.485
7.522,-1.045,-0.480
7.525,-1.050,-0.475
7.528,-1.030,-0.480
7.531,-1.035,-0.450
7.533,-1.015,-0.455
7.536,-1.015,-0.450
7.539,-1.020,-0.470
7.542,-1.025,-0.475
7.544,-1.020,-0.490
7.547,-1.030,-0.485
7.550,-1.030,-0.500
7.553,-1.020,-0.515
7.556,-1.025,-0.505
7.558,-1.035,-0.510
7.561,-1.015,-0.490
7.564,-1.010,-0.475
7.567,-1.005,-0.475
7.569,-0.995,-0.470
7.572,-1.000,-0.490
7.575,-1.010,-0.475
7.578,-1.010,-0.480
7.581,-1.015,-0.490
7.583,-1.025,-0.490
7.586,-1.030,-0.500
7.589,-1.025,-0.490
7.592,-1.015,-0.485
7.594,-1.010,-0.475
7.597,-0.980,-0.475
7.600,-0.975,-0.465
7.603,-0.960,-0.465
7.606,-0.985,-0.480
7.608,-0.985,-0.490
7.611,-1.005,-0.500
7.614,-0.995,-0.520
7.617,-1.010,-0.520
7.619,-1.030,-0.520
7.622,-1.005,-0.525
7.625,-1.010,-0.515
7.628,-0.995,-0.495
7.631,-0.975,-0.475
7.633,-0.965,-0.485
7.636,-0.960,-0.475
7.639,-0.955,-0.480
7.642,-0.970,-0.485
7.644,-0.990,-0.495
7.647,-0.985,-0.500
7.650,-1.005,-0.495
7.653,-0.985,-0.520
7.656,-0.985,-0.510
7.658,-0.970,-0.505
7.661,-0.980,-0.490
7.664,-0.955,-0.490
7.667,-0.950,-0.480
7.669,-0.950,-0.495
7.672,-0.960,-0.505
7.675,-0.955,-0.505
7.678,-0.980,-0.515
7.681,-0.980,-0.520
7.683,-0.985,-0.530
7.686,-0.985,-0.540
7.689,-0.990,-0.525
7.692,-0.970,-0.505
7.694,-0.960,-0.500
7.697,-0.960,-0.500
7.700,-0.945,-0.470
7.703,-0.950,-0.480
7.706,-0.950,-0.485
7.708,-0.950,-0.480
7.711,-0.960,-0.510
7.714,-0.965,-0.515
7.717,-0.990,-0.515
7.719,-0.975,-0.520
7.722,-0.970,-0.530
7.725,-0.960,-0.520
7.728,-0.960,-0.515
7.731,-0.965,-0.485
7.733,-0.930,-0.475
7.736,-0.945,-0.495
7.739,-0.950,-0.510
7.742,-0.955,-0.510
7.744,-0.965,-0.515
7.747,-0.965,-0.535
7.750,-0.975,-0.540
7.753,-0.975,-0.525
7.756,-0.955,-0.525
7.758,-0.955,-0.515
7.761,-0.940,-0.510
7.764,-0.955,-0.470
7.767,-0.950,-0.495
7.769,-0.950,-0.480
7.772,-0.945,-0.510
7.775,-0.950,-0.500
7.778,-0.955,-0.515
7.781,-0.960,-0.530
7.783,-0.965,-0.535
7.786,-0.970,-0.535
7.789,-0.960,-0.535
7.792,-0.960,-0.520
7.794,-0.955,-0.520
7.797,-0.935,-0.510
7.800,-0.945,-0.505
7.803,-0.935,-0.515
7.806,-0.925,-0.510
7.808,-0.930,-0.510
7.811,-0.935,-0.510
7.814,-0.945,-0.510
7.817,-0.950,-0.525
7.819,-0.965,-0.530
7.822,-0.975,-0.525
7.825,-0.950,-0.505
7.828,-0.935,-0.505
7.831,-0.950,-0.485
7.833,-0.925,-0.495
7.836,-0.915,-0.485
7.839,-0.925,-0.500
7.842,-0.925,-0.505
7.844,-0.930,-0.500
7.847,-0.930,-0.525
7.850,-0.935,-0.520
7.853,-0.945,-0.550
7.856,-0.935,-0.550
7.858,-0.935,-0.530
7.861,-0.940,-0.520
7.864,-0.920,-0.490
7.867,-0.905,-0.495
7.869,-0.895,-0.505
7.872,-0.905,-0.510
7.875,-0.905,-0.515
7.878,-0.910,-0.515
7.881,-0.920,-0.530
7.883,-0.935,-0.525
7.886,-0.960,-0.540
7.889,-0.955,-0.525
7.892,-0.925,-0.515
7.894,-0.920,-0.520
7.897,-0.920,-0.515
7.900,-0.915,-0.515
7.903,-0.905,-0.510
7.906,-0.885,-0.520
7.908,-0.900,-0.515
7.911,-0.895,-0.530
7.914,-0.905,-0.550
7.917,-0.920,-0.540
7.919,-0.915,-0.565
7.922,-0.930,-0.550
7.925,-0.920,-0.545
7.928,-0.920,-0.525
7.931,-0.920,-0.515
7.933,-0.915,-0.515
7.936,-0.885,-0.515
7.939,-0.885,-0.515
7.942,-0.885,-0.520
7.944,-0.910,-0.515
7.947,-0.925,-0.525
7.950,-0.935,-0.515
7.953,-0.915,-0.520
7.956,-0.905,-0.540
7.958,-0.905,-0.510
7.961,-0.895,-0.515
7.964,-0.900,-0.505
7.967,-0.880,-0.500
7.969,-0.885,-0.505
7.972,-0.890,-0.510
7.975,-0.870,-0.515
7.978,-0.890,-0.530
7.981,-0.905,-0.545
7.983,-0.910,-0.540
7.986,-0.930,-0.565
7.989,-0.930,-0.545
7.992,-0.925,-0.540
7.994,-0.895,-0.535
7.997,-0.890,-0.520
8.000,-0.870,-0.495
8.003,-0.865,-0.510
8.006,-0.870,-0.500
8.008,-0.875,-0.510
8.011,-0.875,-0.520
8.014,-0.885,-0.530
8.017,-0.890,-0.530
8.019,-0.895,-0.545
8.022,-0.885,-0.530
8.025,-0.875,-0.515
8.028,-0.850,-0.500
8.031,-0.825,-0.505
8.033,-0.810,-0.475
8.036,-0.775,-0.475
8.039,-0.775,-0.480
8.042,-0.765,-0.470
8.044,-0.780,-0.460
8.047,-0.775,-0.470
8.050,-0.745,-0.475
8.053,-0.720,-0.465
8.056,-0.690,-0.455
8.058,-0.655,-0.445
8.061,-0.605,-0.425
8.064,-0.555,-0.425
8.067,-0.520,-0.415
8.069,-0.520,-0.435
8.072,-0.520,-0.470
8.075,-0.545,-0.510
8.078,-0.545,-0.525
8.081,-0.580,-0.545
8.083,-0.575,-0.560
8.086,-0.575,-0.560
8.089,-0.575,-0.555
8.092,-0.585,-0.555
8.094,-0.605,-0.560
8.097,-0.645,-0.550
8.100,-0.685,-0.520
8.103,-0.745,-0.535
8.106,-0.815,-0.545
8.108,-0.840,-0.555
8.111,-0.880,-0.550
8.114,-0.890,-0.565
8.117,-0.910,-0.555
8.119,-0.905,-0.570
8.122,-0.900,-0.575
8.125,-0.895,-0.570
8.128,-0.895,-0.565
8.131,-0.890,-0.550
8.133,-0.880,-0.540
8.136,-0.885,-0.540
8.139,-0.885,-0.550
8.142,-0.890,-0.560
8.144,-0.895,-0.560
8.147,-0.915,-0.590
8.150,-0.910,-0.580
8.153,-0.920,-0.580
8.156,-0.910,-0.585
8.158,-0.905,-0.570
8.161,-0.885,-0.550
8.164,-0.900,-0.555
8.167,-0.905,-0.550
8.169,-0.885,-0.555
8.172,-0.895,-0.555
8.175,-0.935,-0.550
8.178,-0.965,-0.550
8.181,-0.980,-0.530
8.183,-0.950,-0.485
8.186,-0.875,-0.420
8.189,-0.735,-0.380
8.192,-0.525,-0.345
8.194,-0.260,-0.370
8.197,0.070,-0.425
8.200,0.435,-0.520
8.203,0.795,-0.680
8.206,1.075,-0.885
8.208,1.275,-1.105
8.211,1.345,-1.300
8.214,1.320,-1.445
8.217,1.190,-1.525
8.219,0.935,-1.540
8.222,0.545,-1.510
8.225,0.045,-1.450
8.228,-0.460,-1.380
8.231,-0.840,-1.295
8.233,-1.000,-1.200
8.236,-0.980,-1.115
8.239,-0.860,-1.015
8.242,-0.745,-0.925
8.244,-0.670,-0.865
8.247,-0.665,-0.805
8.250,-0.695,-0.740
8.253,-0.780,-0.680
8.256,-0.830,-0.640
8.258,-0.885,-0.600
8.261,-0.910,-0.565
8.264,-0.930,-0.550
8.267,-0.905,-0.535
8.269,-0.895,-0.530
8.272,-0.890,-0.530
8.275,-0.900,-0.530
8.278,-0.895,-0.530
8.281,-0.910,-0.535
8.283,-0.925,-0.530
8.286,-0.935,-0.530
8.289,-0.950,-0.525
8.292,-0.945,-0.500
8.294,-0.930,-0.500
8.297,-0.935,-0.490
8.300,-0.925,-0.485
8.303,-0.910,-0.465
8.306,-0.915,-0.470
8.308,-0.935,-0.480
8.311,-0.935,-0.500
8.314,-0.935,-0.490
8.317,-0.960,-0.490
8.319,-0.985,-0.500
8.322,-0.960,-0.485
8.325,-0.955,-0.485
8.328,-0.955,-0.465
8.331,-0.935,-0.465
8.333,-0.935,-0.460
8.336,-0.925,-0.455
8.339,-0.925,-0.465
8.342,-0.930,-0.450
8.344,-0.945,-0.470
8.347,-0.955,-0.495
8.350,-0.980,-0.495
8.353,-0.970,-0.490
8.356,-0.955,-0.485
8.358,-0.950,-0.475
8.361,-0.940,-0.470
8.364,-0.935,-0.445
8.367,-0.925,-0.425
8.369,-0.920,-0.440
8.372,-0.930,-0.430
8.375,-0.920,-0.435
8.378,-0.925,-0.440
8.381,-0.945,-0.465
8.383,-0.935,-0.460
8.386,-0.940,-0.480
8.389,-0.935,-0.470
8.392,-0.915,-0.465
8.394,-0.915,-0.440
8.397,-0.895,-0.430
8.400,-0.885,-0.425
8.403,-0.875,-0.435
8.406,-0.870,-0.430
8.408,-0.875,-0.415
8.411,-0.860,-0.440
8.414,-0.865,-0.445
8.417,-0.880,-0.445
8.419,-0.870,-0.450
8.422,-0.850,-0.445
8.425,-0.850,-0.415
8.428,-0.810,-0.415
8.431,-0.810,-0.405
8.433,-0.780,-0.385
8.436,-0.770,-0.390
8.439,-0.770,-0.375
8.442,-0.760,-0.375
8.444,-0.765,-0.395
8.447,-0.750,-0.400
8.450,-0.765,-0.415
8.453,-0.740,-0.425
8.456,-0.730,-0.405
8.458,-0.695,-0.395
8.461,-0.670,-0.385
8.464,-0.650,-0.375
8.467,-0.620,-0.360
8.469,-0.605,-0.370
8.472,-0.595,-0.365
8.475,-0.575,-0.395
8.478,-0.570,-0.400
8.481,-0.565,-0.400
8.483,-0.555,-0.405
8.486,-0.545,-0.405
8.489,-0.535,-0.410
8.492,-0.515,-0.395
8.494,-0.480,-0.390
8.497,-0.475,-0.370
8.500,-0.465,-0.360
8.503,-0.435,-0.380
8.506,-0.425,-0.370
8.508,-0.410,-0.385
8.511,-0.410,-0.405
8.514,-0.420,-0.410
8.517,-0.400,-0.415
8.519,-0.405,-0.440
8.522,-0.380,-0.450
8.525,-0.360,-0.425
8.528,-0.345,-0.430
8.531,-0.340,-0.430
8.533,-0.335,-0.420
8.536,-0.320,-0.420
8.539,-0.330,-0.440
8.542,-0.330,-0.450
8.544,-0.350,-0.465
8.547,-0.370,-0.470
8.550,-0.390,-0.475
8.553,-0.415,-0.485
8.556,-0.445,-0.470
8.558,-0.450,-0.460
8.561,-0.475,-0.435
8.564,-0.485,-0.445
8.567,-0.510,-0.430
8.569,-0.520,-0.450
8.572,-0.545,-0.460
8.575,-0.580,-0.470
8.578,-0.605,-0.480
8.581,-0.630,-0.495
8.583,-0.650,-0.510
8.586,-0.685,-0.505
8.589,-0.710,-0.505
8.592,-0.725,-0.490
8.594,-0.725,-0.500
8.597,-0.730,-0.485
8.600,-0.730,-0.460
8.603,-0.735,-0.480
8.606,-0.755,-0.480
8.608,-0.775,-0.485
8.611,-0.780,-0.505
8.614,-0.795,-0.510
8.617,-0.810,-0.515
8.619,-0.805,-0.505
8.622,-0.800,-0.505
8.625,-0.795,-0.485
8.628,-0.805,-0.475
8.631,-0.800,-0.460
8.633,-0.790,-0.455
8.636,-0.780,-0.460
8.639,-0.795,-0.465
8.642,-0.790,-0.455
8.644,-0.790,-0.475
8.647,-0.800,-0.480
8.650,-0.800,-0.500
8.653,-0.820,-0.510
8.656,-0.815,-0.490
8.658,-0.795,-0.485
8.661,-0.790,-0.485
8.664,-0.780,-0.475
8.667,-0.770,-0.480
8.669,-0.775,-0.480
8.672,-0.775,-0.475
8.675,-0.770,-0.485
8.678,-0.780,-0.500
8.681,-0.790,-0.500
8.683,-0.785,-0.500
8.686,-0.785,-0.500
8.689,-0.790,-0.495
8.692,-0.780,-0.490
8.694,-0.765,-0.495
8.697,-0.770,-0.465
8.700,-0.755,-0.470
8.703,-0.760,-0.465
8.706,-0.775,-0.475
8.708,-0.770,-0.485
8.711,-0.775,-0.500
8.714,-0.785,-0.520
8.717,-0.790,-0.530
8.719,-0.795,-0.535
8.722,-0.805,-0.520
8.725,-0.800,-0.515
8.728,-0.790,-0.490
8.731,-0.780,-0.485
8.733,-0.775,-0.460
8.736,-0.780,-0.490
8.739,-0.785,-0.495
8.742,-0.785,-0.495
8.744,-0.800,-0.510
8.747,-0.810,-0.515
8.750,-0.825,-0.495
8.753,-0.825,-0.505
8.756,-0.840,-0.495
8.758,-0.825,-0.495
8.761,-0.810,-0.495
8.764,-0.800,-0.490
8.767,-0.790,-0.485
8.769,-0.795,-0.475
8.772,-0.800,-0.495
8.775,-0.830,-0.485
8.778,-0.840,-0.510
8.781,-0.850,-0.510
8.783,-0.845,-0.520
8.786,-0.850,-0.525
8.789,-0.845,-0.525
8.792,-0.840,-0.525
8.794,-0.840,-0.495
8.797,-0.825,-0.505
8.800,-0.820,-0.495
8.803,-0.825,-0.500
8.806,-0.830,-0.485
8.808,-0.845,-0.495
8.811,-0.880,-0.500
8.814,-0.880,-0.495
8.817,-0.880,-0.515
8.819,-0.890,-0.505
8.822,-0.890,-0.510
8.825,-0.895,-0.495
8.828,-0.900,-0.480
8.831,-0.890,-0.490
8.833,-0.870,-0.475
8.836,-0.885,-0.475
8.839,-0.870,-0.490
8.842,-0.870,-0.485
8.844,-0.890,-0.505
8.847,-0.895,-0.525
8.850,-0.905,-0.530
8.853,-0.900,-0.535
8.856,-0.910,-0.520
8.858,-0.900,-0.540
8.861,-0.910,-0.515
8.864,-0.890,-0.505
8.867,-0.880,-0.480
8.869,-0.870,-0.500
8.872,-0.880,-0.490
8.875,-0.875,-0.500
8.878,-0.890,-0.505
8.881,-0.885,-0.510
8.883,-0.915,-0.510
8.886,-0.905,-0.520
8.889,-0.925,-0.505
8.892,-0.905,-0.505
8.894,-0.880,-0.500
8.897,-0.880,-0.490
8.900,-0.885,-0.485
8.903,-0.875,-0.480
8.906,-0.880,-0.490
8.908,-0.880,-0.490
8.911,-0.890,-0.520
8.914,-0.900,-0.515
8.917,-0.910,-0.530
8.919,-0.920,-0.535
8.922,-0.920,-0.520
8.925,-0.895,-0.510
8.928,-0.890,-0.515
8.931,-0.885,-0.510
8.933,-0.875,-0.500
8.936,-0.890,-0.485
8.939,-0.890,-0.495
8.942,-0.885,-0.505
8.944,-0.880,-0.500
8.947,-0.895,-0.515
8.950,-0.885,-0.515
8.953,-0.885,-0.490
8.956,-0.895,-0.505
8.958,-0.850,-0.495
8.961,-0.830,-0.485
8.964,-0.805,-0.475
8.967,-0.780,-0.460
8.969,-0.760,-0.435
8.972,-0.750,-0.425
8.975,-0.745,-0.430
8.978,-0.725,-0.430
8.981,-0.720,-0.445
8.983,-0.720,-0.430
8.986,-0.700,-0.435
8.989,-0.690,-0.445
8.992,-0.655,-0.400
8.994,-0.590,-0.400
8.997,-0.560,-0.405
9.000,-0.520,-0.390
9.003,-0.495,-0.410
9.006,-0.515,-0.435
9.008,-0.535,-0.455
9.011,-0.565,-0.480
9.014,-0.570,-0.510
9.017,-0.565,-0.525
9.019,-0.585,-0.535
9.022,-0.575,-0.540
9.025,-0.590,-0.530
9.028,-0.595,-0.525
9.031,-0.605,-0.520
9.033,-0.650,-0.520
9.036,-0.705,-0.530
9.039,-0.755,-0.535
9.042,-0.805,-0.525
9.044,-0.860,-0.530
9.047,-0.895,-0.560
9.050,-0.890,-0.550
9.053,-0.915,-0.570
9.056,-0.900,-0.555
9.058,-0.915,-0.575
9.061,-0.890,-0.570
9.064,-0.905,-0.565
9.067,-0.890,-0.540
9.069,-0.890,-0.540
9.072,-0.910,-0.535
9.075,-0.930,-0.560
9.078,-0.945,-0.580
9.081,-0.940,-0.590
9.083,-0.945,-0.595
9.086,-0.940,-0.595
9.089,-0.945,-0.595
9.092,-0.925,-0.585
9.094,-0.925,-0.565
9.097,-0.915,-0.565
9.100,-0.910,-0.555
9.103,-0.905,-0.540
9.106,-0.910,-0.535
9.108,-0.910,-0.555
9.111,-0.900,-0.550
9.114,-0.930,-0.590
9.117,-0.930,-0.565
9.119,-0.940,-0.555
9.122,-0.970,-0.570
9.125,-0.975,-0.525
9.128,-0.975,-0.480
9.131,-0.930,-0.410
9.133,-0.850,-0.355
9.136,-0.700,-0.320
9.139,-0.500,-0.315
9.142,-0.185,-0.365
9.144,0.155,-0.495
9.147,0.535,-0.670
9.150,0.880,-0.885
9.153,1.130,-1.125
9.156,1.280,-1.350
9.158,1.290,-1.530
9.161,1.230,-1.625
9.164,1.035,-1.640
9.167,0.710,-1.595
9.169,0.250,-1.545
9.172,-0.285,-1.485
9.175,-0.715,-1.410
9.178,-0.990,-1.335
9.181,-1.070,-1.240
9.183,-0.975,-1.145
9.186,-0.855,-1.050
9.189,-0.720,-0.965
9.192,-0.665,-0.860
9.194,-0.670,-0.780
9.197,-0.710,-0.700
9.200,-0.770,-0.645
9.203,-0.825,-0.605
9.206,-0.870,-0.580
9.208,-0.890,-0.550
9.211,-0.905,-0.555
9.214,-0.915,-0.570
9.217,-0.920,-0.555
9.219,-0.900,-0.555
9.222,-0.915,-0.535
9.225,-0.920,-0.535
9.228,-0.910,-0.525
9.231,-0.895,-0.505
9.233,-0.895,-0.490
9.236,-0.900,-0.505
9.239,-0.915,-0.510
9.242,-0.920,-0.480
9.244,-0.935,-0.505
9.247,-0.940,-0.510
9.250,-0.935,-0.505
9.253,-0.940,-0.510
9.256,-0.950,-0.505
9.258,-0.950,-0.485
9.261,-0.930,-0.490
9.264,-0.930,-0.480
9.267,-0.905,-0.475
9.269,-0.900,-0.460
9.272,-0.905,-0.475
9.275,-0.925,-0.480
9.278,-0.920,-0.490
9.281,-0.930,-0.500
9.283,-0.945,-0.490
9.286,-0.940,-0.505
9.289,-0.940,-0.510
9.292,-0.935,-0.505
9.294,-0.915,-0.480
9.297,-0.910,-0.475
9.300,-0.910,-0.475
9.303,-0.890,-0.475
9.306,-0.895,-0.475
9.308,-0.900,-0.485
9.311,-0.920,-0.475
9.314,-0.915,-0.490
9.317,-0.925,-0.495
9.319,-0.920,-0.495
9.322,-0.930,-0.485
9.325,-0.940,-0.495
9.328,-0.900,-0.465
9.331,-0.880,-0.465
9.333,-0.865,-0.455
9.336,-0.860,-0.465
9.339,-0.855,-0.450
9.342,-0.855,-0.465
9.344,-0.855,-0.485
9.347,-0.850,-0.480
9.350,-0.860,-0.510
9.353,-0.845,-0.495
9.356,-0.865,-0.500
9.358,-0.840,-0.490
9.361,-0.815,-0.490
9.364,-0.820,-0.460
9.367,-0.800,-0.480
9.369,-0.775,-0.455
9.372,-0.775,-0.470
9.375,-0.755,-0.455
9.378,-0.765,-0.470
9.381,-0.735,-0.475
9.383,-0.740,-0.470
9.386,-0.730,-0.475
9.389,-0.710,-0.475
9.392,-0.705,-0.465
9.394,-0.670,-0.450
9.397,-0.665,-0.445
9.400,-0.620,-0.430
9.403,-0.595,-0.435
9.406,-0.565,-0.440
9.408,-0.560,-0.460
9.411,-0.540,-0.455
9.414,-0.535,-0.465
9.417,-0.535,-0.485
9.419,-0.515,-0.490
9.422,-0.500,-0.465
9.425,-0.475,-0.455
9.428,-0.445,-0.445
9.431,-0.410,-0.430
9.433,-0.380,-0.415
9.436,-0.360,-0.425
9.439,-0.350,-0.410
9.442,-0.330,-0.415
9.444,-0.345,-0.430
9.447,-0.335,-0.450
9.450,-0.320,-0.460
9.453,-0.330,-0.470
9.456,-0.320,-0.475
9.458,-0.325,-0.470
9.461,-0.295,-0.480
9.464,-0.310,-0.460
9.467,-0.300,-0.450
9.469,-0.310,-0.470
9.472,-0.325,-0.465
9.475,-0.345,-0.480
9.478,-0.390,-0.495
9.481,-0.405,-0.505
9.483,-0.435,-0.495
9.486,-0.455,-0.505
9.489,-0.500,-0.490
9.492,-0.515,-0.500
9.494,-0.535,-0.475
9.497,-0.565,-0.465
9.500,-0.595,-0.465
9.503,-0.610,-0.450
9.506,-0.635,-0.460
9.508,-0.670,-0.460
9.511,-0.705,-0.490
9.514,-0.725,-0.490
9.517,-0.750,-0.500
9.519,-0.775,-0.510
9.522,-0.785,-0.515
9.525,-0.795,-0.515
9.528,-0.800,-0.485
9.531,-0.810,-0.485
9.533,-0.800,-0.475
9.536,-0.820,-0.495
9.539,-0.845,-0.505
9.542,-0.840,-0.515
9.544,-0.860,-0.515
9.547,-0.885,-0.535
9.550,-0.870,-0.530
9.553,-0.865,-0.535
9.556,-0.885,-0.525
9.558,-0.880,-0.515
9.561,-0.875,-0.505
9.564,-0.855,-0.495
9.567,-0.860,-0.480
9.569,-0.850,-0.490
9.572,-0.870,-0.495
9.575,-0.860,-0.495
9.578,-0.855,-0.515
9.581,-0.865,-0.535
9.583,-0.865,-0.515
9.586,-0.910,-0.520
9.589,-0.905,-0.530
9.592,-0.895,-0.510
9.594,-0.885,-0.510
9.597,-0.850,-0.500
9.600,-0.855,-0.505
9.603,-0.840,-0.515
9.606,-0.845,-0.495
9.608,-0.830,-0.525
9.611,-0.860,-0.510
9.614,-0.860,-0.520
9.617,-0.875,-0.535
9.619,-0.870,-0.520
9.622,-0.890,-0.555
9.625,-0.875,-0.530
9.628,-0.850,-0.510
9.631,-0.850,-0.490
9.633,-0.835,-0.490
9.636,-0.830,-0.510
9.639,-0.835,-0.500
9.642,-0.840,-0.500
9.644,-0.835,-0.525
9.647,-0.845,-0.535
9.650,-0.860,-0.545
9.653,-0.860,-0.550
9.656,-0.885,-0.550
9.658,-0.865,-0.535
9.661,-0.850,-0.530
9.664,-0.845,-0.520
9.667,-0.845,-0.530
9.669,-0.830,-0.530
9.672,-0.830,-0.515
9.675,-0.840,-0.515
9.678,-0.845,-0.545
9.681,-0.855,-0.535
9.683,-0.865,-0.550
9.686,-0.865,-0.550
9.689,-0.875,-0.540
9.692,-0.870,-0.530
9.694,-0.860,-0.540
9.697,-0.840,-0.530
9.700,-0.840,-0.515
9.703,-0.840,-0.515
9.706,-0.840,-0.525
9.708,-0.860,-0.540
9.711,-0.880,-0.535
9.714,-0.895,-0.550
9.717,-0.895,-0.565
9.719,-0.890,-0.570
9.722,-0.895,-0.575
9.725,-0.900,-0.570
9.728,-0.890,-0.555
9.731,-0.875,-0.540
9.733,-0.865,-0.550
9.736,-0.865,-0.530
9.739,-0.870,-0.540
9.742,-0.895,-0.535
9.744,-0.890,-0.555
9.747,-0.905,-0.570
9.750,-0.905,-0.570
9.753,-0.910,-0.550
9.756,-0.915,-0.550
9.758,-0.905,-0.555
9.761,-0.890,-0.545
9.764,-0.885,-0.540
9.767,-0.875,-0.515
9.769,-0.875,-0.510
9.772,-0.875,-0.530
9.775,-0.905,-0.550
9.778,-0.885,-0.555
9.781,-0.895,-0.565
9.783,-0.910,-0.565
9.786,-0.905,-0.570
9.789,-0.910,-0.580
9.792,-0.910,-0.580
9.794,-0.880,-0.555
9.797,-0.875,-0.545
9.800,-0.880,-0.545
9.803,-0.890,-0.520
9.806,-0.890,-0.535
9.808,-0.910,-0.535
9.811,-0.910,-0.545
9.814,-0.920,-0.550
9.817,-0.905,-0.565
9.819,-0.920,-0.560
9.822,-0.915,-0.580
9.825,-0.915,-0.555
9.828,-0.905,-0.550
9.831,-0.890,-0.540
9.833,-0.875,-0.535
9.836,-0.855,-0.525
9.839,-0.845,-0.525
9.842,-0.835,-0.525
9.844,-0.825,-0.520
9.847,-0.820,-0.515
9.850,-0.815,-0.510
9.853,-0.800,-0.520
9.856,-0.795,-0.505
9.858,-0.770,-0.475
9.861,-0.755,-0.465
9.864,-0.725,-0.440
9.867,-0.715,-0.430
9.869,-0.665,-0.410
9.872,-0.630,-0.410
9.875,-0.585,-0.425
9.878,-0.585,-0.445
9.881,-0.560,-0.470
9.883,-0.570,-0.495
9.886,-0.585,-0.530
9.889,-0.590,-0.545
9.892,-0.590,-0.560
9.894,-0.580,-0.550
9.897,-0.565,-0.565
9.900,-0.575,-0.565
9.903,-0.590,-0.550
9.906,-0.630,-0.585
9.908,-0.695,-0.600
9.911,-0.755,-0.590
9.914,-0.815,-0.600
9.917,-0.875,-0.585
9.919,-0.905,-0.585
9.922,-0.940,-0.590
9.925,-0.950,-0.595
9.928,-0.935,-0.575
9.931,-0.920,-0.555
9.933,-0.930,-0.560
9.936,-0.910,-0.565
9.939,-0.920,-0.580
9.942,-0.930,-0.585
9.944,-0.930,-0.595
9.947,-0.960,-0.605
9.950,-0.955,-0.620
9.953,-0.975,-0.630
9.956,-0.980,-0.615
9.958,-0.960,-0.605
9.961,-0.950,-0.595
9.964,-0.945,-0.580
9.967,-0.945,-0.590
9.969,-0.935,-0.585
9.972,-0.935,-0.600
9.975,-0.940,-0.605
9.978,-0.960,-0.585
9.981,-0.970,-0.620
9.983,-0.960,-0.615
9.986,-0.970,-0.600
9.989,-0.970,-0.625
9.992,-0.985,-0.610
9.994,-0.975,-0.580
9.997,-0.970,-0.595
10.000,-0.980,-0.575
10.003,-1.005,-0.570
10.006,-1.010,-0.530
10.008,-1.000,-0.490
10.011,-0.935,-0.465
10.014,-0.840,-0.395
10.017,-0.685,-0.385
10.019,-0.475,-0.400
10.022,-0.170,-0.455
10.025,0.195,-0.575
10.028,0.575,-0.730
10.031,0.895,-0.930
10.033,1.135,-1.145
10.036,1.265,-1.345
10.039,1.285,-1.490
10.042,1.200,-1.565
10.044,0.985,-1.580
10.047,0.670,-1.530
10.050,0.235,-1.530
10.053,-0.310,-1.470
10.056,-0.760,-1.390
10.058,-1.060,-1.295
10.061,-1.140,-1.205
10.064,-1.055,-1.120
10.067,-0.915,-1.020
10.069,-0.775,-0.925
10.072,-0.700,-0.870
10.075,-0.705,-0.800
10.078,-0.770,-0.760
10.081,-0.835,-0.710
10.083,-0.905,-0.680
10.086,-0.940,-0.650
10.089,-0.985,-0.620
10.092,-0.985,-0.605
10.094,-0.965,-0.590
10.097,-0.950,-0.595
10.100,-0.950,-0.555
10.103,-0.940,-0.555
10.106,-0.955,-0.550
10.108,-0.965,-0.535
10.111,-0.970,-0.535
10.114,-0.975,-0.535
10.117,-0.990,-0.540
10.119,-1.010,-0.555
10.122,-1.005,-0.545
10.125,-1.015,-0.550
10.128,-0.990,-0.540
10.131,-0.980,-0.525
10.133,-0.975,-0.520
10.136,-0.960,-0.510
10.139,-0.975,-0.505
10.142,-0.980,-0.525
10.144,-0.980,-0.515
10.147,-0.995,-0.540
10.150,-1.005,-0.550
10.153,-1.010,-0.550
10.156,-1.015,-0.535
10.158,-1.030,-0.540
10.161,-1.005,-0.540
10.164,-0.995,-0.520
10.167,-0.980,-0.500
10.169,-0.975,-0.480
10.172,-0.990,-0.495
10.175,-0.990,-0.480
10.178,-0.990,-0.495
10.181,-0.990,-0.510
10.183,-1.000,-0.525
10.186,-0.995,-0.515
10.189,-1.000,-0.510
10.192,-1.010,-0.500
10.194,-0.995,-0.510
10.197,-0.985,-0.495
10.200,-0.965,-0.485
10.203,-0.970,-0.485
10.206,-0.985,-0.475
10.208,-0.975,-0.485
10.211,-0.970,-0.505
10.214,-0.975,-0.505
10.217,-0.975,-0.515
10.219,-0.970,-0.510
10.222,-0.970,-0.510
10.225,-0.970,-0.505
10.228,-0.960,-0.485
10.231,-0.920,-0.485
10.233,-0.895,-0.475
10.236,-0.880,-0.475
10.239,-0.870,-0.475
10.242,-0.865,-0.470
10.244,-0.865,-0.480
10.247,-0.880,-0.490
10.250,-0.880,-0.495
10.253,-0.865,-0.505
10.256,-0.865,-0.500
10.258,-0.860,-0.480
10.261,-0.830,-0.480
10.264,-0.810,-0.455
10.267,-0.795,-0.470
10.269,-0.755,-0.460
10.272,-0.760,-0.455
10.275,-0.750,-0.475
10.278,-0.740,-0.505
10.281,-0.715,-0.500
10.283,-0.705,-0.500
10.286,-0.680,-0.505
10.289,-0.660,-0.505
10.292,-0.635,-0.495
10.294,-0.610,-0.495
10.297,-0.565,-0.470
10.300,-0.550,-0.450
10.303,-0.530,-0.465
10.306,-0.525,-0.470
10.308,-0.510,-0.485
10.311,-0.485,-0.495
10.314,-0.475,-0.515
10.317,-0.475,-0.525
10.319,-0.460,-0.530
10.322,-0.455,-0.525
10.325,-0.430,-0.530
10.328,-0.410,-0.520
10.331,-0.395,-0.520
10.333,-0.390,-0.525
10.336,-0.360,-0.500
10.339,-0.370,-0.520
10.342,-0.375,-0.530
10.344,-0.380,-0.525
10.347,-0.410,-0.530
10.350,-0.425,-0.540
10.353,-0.460,-0.530
10.356,-0.470,-0.535
10.358,-0.490,-0.525
10.361,-0.495,-0.500
10.364,-0.535,-0.495
10.367,-0.555,-0.470
10.369,-0.570,-0.475
10.372,-0.600,-0.485
10.375,-0.635,-0.465
10.378,-0.680,-0.485
10.381,-0.710,-0.485
10.383,-0.745,-0.495
10.386,-0.780,-0.505
10.389,-0.795,-0.490
10.392,-0.820,-0.505
10.394,-0.835,-0.495
10.397,-0.840,-0.485
10.400,-0.845,-0.475
10.403,-0.870,-0.470
10.406,-0.870,-0.485
10.408,-0.905,-0.480
10.411,-0.920,-0.480
10.414,-0.945,-0.500
10.417,-0.950,-0.520
10.419,-0.955,-0.505
10.422,-0.960,-0.495
10.425,-0.975,-0.500
10.428,-0.970,-0.510
10.431,-0.960,-0.490
10.433,-0.950,-0.465
10.436,-0.955,-0.470
10.439,-0.955,-0.475
10.442,-0.955,-0.485
10.444,-0.965,-0.495
10.447,-0.970,-0.505
10.450,-0.995,-0.520
10.453,-1.005,-0.525
10.456,-1.000,-0.520
10.458,-0.985,-0.510
10.461,-1.000,-0.495
10.464,-0.980,-0.495
10.467,-0.965,-0.490
10.469,-0.955,-0.470
10.472,-0.970,-0.475
10.475,-0.970,-0.470
10.478,-0.960,-0.485
10.481,-0.980,-0.495
10.483,-0.975,-0.505
10.486,-0.980,-0.515
10.489,-0.980,-0.500
10.492,-0.985,-0.505
10.494,-0.965,-0.490
10.497,-0.940,-0.490
10.500,-0.930,-0.475
10.503,-0.915,-0.475
10.506,-0.930,-0.485
10.508,-0.915,-0.485
10.511,-0.930,-0.505
10.514,-0.940,-0.510
10.517,-0.950,-0.535
10.519,-0.945,-0.525
10.522,-0.940,-0.520
10.525,-0.945,-0.520
10.528,-0.940,-0.510
10.531,-0.935,-0.495
10.533,-0.935,-0.480
10.536,-0.910,-0.455
10.539,-0.925,-0.475
10.542,-0.920,-0.465
10.544,-0.935,-0.475
10.547,-0.930,-0.490
10.550,-0.945,-0.500
10.553,-0.940,-0.520
10.556,-0.960,-0.510
10.558,-0.950,-0.515
10.561,-0.950,-0.505
10.564,-0.930,-0.480
10.567,-0.940,-0.480
10.569,-0.935,-0.475
10.572,-0.920,-0.485
10.575,-0.935,-0.490
10.578,-0.945,-0.505
10.581,-0.955,-0.515
10.583,-0.950,-0.520
10.586,-0.965,-0.520
10.589,-0.965,-0.520
10.592,-0.970,-0.505
10.594,-0.960,-0.490
10.597,-0.975,-0.500
10.600,-0.965,-0.455
10.603,-0.960,-0.460
10.606,-0.950,-0.480
10.608,-0.960,-0.475
10.611,-0.970,-0.495
10.614,-0.975,-0.505
10.617,-0.990,-0.515
10.619,-0.995,-0.520
10.622,-0.990,-0.515
10.625,-0.990,-0.500
10.628,-0.980,-0.505
10.631,-0.975,-0.490
10.633,-0.975,-0.485
10.636,-0.955,-0.490
10.639,-0.975,-0.490
10.642,-0.980,-0.490
10.644,-0.985,-0.500
10.647,-0.995,-0.510
10.650,-0.990,-0.520
10.653,-0.985,-0.530
10.656,-1.000,-0.510
10.658,-0.995,-0.505
10.661,-0.990,-0.490
10.664,-0.990,-0.475
10.667,-0.990,-0.475
10.669,-0.990,-0.475
10.672,-0.985,-0.480
10.675,-0.985,-0.480
10.678,-0.995,-0.500
10.681,-1.010,-0.515
10.683,-1.010,-0.515
10.686,-1.005,-0.515
10.689,-0.990,-0.515
10.692,-0.990,-0.515
10.694,-0.970,-0.495
10.697,-0.935,-0.470
10.700,-0.910,-0.460
10.703,-0.885,-0.440
10.706,-0.860,-0.415
10.708,-0.850,-0.445
10.711,-0.850,-0.430
10.714,-0.840,-0.435
10.717,-0.830,-0.435
10.719,-0.810,-0.440
10.722,-0.800,-0.430
10.725,-0.750,-0.425
10.728,-0.710,-0.415
10.731,-0.670,-0.410
10.733,-0.650,-0.415
10.736,-0.640,-0.425
10.739,-0.640,-0.460
10.742,-0.665,-0.495
10.744,-0.680,-0.515
10.747,-0.690,-0.535
10.750,-0.685,-0.540
10.753,-0.710,-0.550
10.756,-0.730,-0.555
10.758,-0.775,-0.540
10.761,-0.815,-0.525
10.764,-0.865,-0.520
10.767,-0.905,-0.520
10.769,-0.935,-0.490
10.772,-0.965,-0.480
10.775,-0.995,-0.480
10.778,-1.005,-0.505
10.781,-1.025,-0.520
10.783,-1.035,-0.535
10.786,-1.045,-0.545
10.789,-1.040,-0.545
10.792,-1.025,-0.545
10.794,-1.035,-0.540
10.797,-1.035,-0.530
10.800,-1.035,-0.505
10.803,-1.020,-0.510
10.806,-1.020,-0.510
10.808,-1.035,-0.525
10.811,-1.050,-0.550
10.814,-1.050,-0.565
10.817,-1.055,-0.580
10.819,-1.075,-0.580
10.822,-1.065,-0.580
10.825,-1.060,-0.565
10.828,-1.060,-0.545
10.831,-1.065,-0.535
10.833,-1.035,-0.525
10.836,-1.045,-0.510
10.839,-1.025,-0.515
10.842,-1.040,-0.500
10.844,-1.045,-0.520
10.847,-1.055,-0.530
10.850,-1.055,-0.545
10.853,-1.055,-0.560
10.856,-1.055,-0.540
10.858,-1.060,-0.550
10.861,-1.070,-0.530
10.864,-1.075,-0.510
10.867,-1.085,-0.475
10.869,-1.060,-0.445
10.872,-1.025,-0.385
10.875,-0.940,-0.340
10.878,-0.780,-0.310
10.881,-0.575,-0.330
10.883,-0.290,-0.400
10.886,0.050,-0.530
10.889,0.410,-0.670
10.892,0.740,-0.855
10.894,0.995,-1.050
10.897,1.145,-1.255
10.900,1.190,-1.395
10.903,1.130,-1.505
10.906,0.955,-1.535
10.908,0.630,-1.515
10.911,0.190,-1.485
10.914,-0.340,-1.420
10.917,-0.805,-1.370
10.919,-1.110,-1.300
10.922,-1.200,-1.200
10.925,-1.125,-1.105
10.928,-0.985,-1.000
10.931,-0.830,-0.925
10.933,-0.755,-0.845
10.936,-0.750,-0.775
10.939,-0.805,-0.730
10.942,-0.880,-0.685
10.944,-0.930,-0.635
10.947,-0.985,-0.605
10.950,-1.010,-0.595
10.953,-1.030,-0.575
10.956,-1.020,-0.575
10.958,-1.020,-0.555
10.961,-1.010,-0.520
10.964,-1.005,-0.500
10.967,-0.995,-0.475
10.969,-1.000,-0.475
10.972,-1.000,-0.465
10.975,-1.015,-0.470
10.978,-1.025,-0.485
10.981,-1.040,-0.485
10.983,-1.035,-0.500
10.986,-1.040,-0.485
10.989,-1.030,-0.490
10.992,-1.040,-0.480
10.994,-1.020,-0.470
10.997,-1.020,-0.460
11.000,-1.020,-0.450
11.003,-1.015,-0.445
11.006,-1.010,-0.455
11.008,-1.025,-0.460
11.011,-1.015,-0.460
11.014,-1.035,-0.490
11.017,-1.045,-0.490
11.019,-1.040,-0.485
11.022,-1.055,-0.480
11.025,-1.045,-0.480
11.028,-1.025,-0.460
11.031,-1.025,-0.460
11.033,-1.005,-0.445
11.036,-0.995,-0.425
11.039,-0.985,-0.440
11.042,-0.990,-0.440
11.044,-1.000,-0.450
11.047,-1.010,-0.450
11.050,-1.025,-0.470
11.053,-1.030,-0.490
11.056,-1.030,-0.490
11.058,-1.025,-0.470
11.061,-1.010,-0.460
11.064,-0.980,-0.455
11.067,-0.980,-0.440
11.069,-0.985,-0.430
11.072,-0.970,-0.435
11.075,-0.985,-0.445
11.078,-0.975,-0.455
11.081,-0.980,-0.470
11.083,-0.980,-0.475
11.086,-0.970,-0.465
11.089,-0.970,-0.470
11.092,-0.965,-0.450
11.094,-0.970,-0.435
11.097,-0.945,-0.435
11.100,-0.925,-0.425
11.103,-0.920,-0.420
11.106,-0.915,-0.430
11.108,-0.910,-0.420
11.111,-0.905,-0.440
11.114,-0.920,-0.435
11.117,-0.905,-0.440
11.119,-0.895,-0.455
11.122,-0.880,-0.450
11.125,-0.865,-0.445
11.128,-0.845,-0.435
11.131,-0.830,-0.435
11.133,-0.810,-0.420
11.136,-0.775,-0.420
11.139,-0.765,-0.415
11.142,-0.755,-0.410
11.144,-0.755,-0.425
11.147,-0.745,-0.420
11.150,-0.730,-0.455
11.153,-0.705,-0.445
11.156,-0.700,-0.435
11.158,-0.665,-0.410
11.161,-0.650,-0.415
11.164,-0.620,-0.410
11.167,-0.595,-0.405
11.169,-0.555,-0.380
11.172,-0.535,-0.395
11.175,-0.510,-0.410
11.178,-0.520,-0.430
11.181,-0.485,-0.425
11.183,-0.495,-0.440
11.186,-0.485,-0.450
11.189,-0.465,-0.455
11.192,-0.440,-0.435
11.194,-0.425,-0.445
11.197,-0.400,-0.440
11.200,-0.375,-0.430
11.203,-0.360,-0.435
11.206,-0.340,-0.445
11.208,-0.330,-0.445
11.211,-0.345,-0.450
11.214,-0.345,-0.480
11.217,-0.350,-0.485
11.219,-0.360,-0.470
11.222,-0.360,-0.480
11.225,-0.370,-0.470
11.228,-0.385,-0.455
11.231,-0.400,-0.450
11.233,-0.395,-0.445
11.236,-0.410,-0.425
11.239,-0.450,-0.440
11.242,-0.475,-0.440
11.244,-0.510,-0.440
11.247,-0.535,-0.475
11.250,-0.585,-0.460
11.253,-0.615,-0.470
11.256,-0.645,-0.465
11.258,-0.670,-0.455
11.261,-0.695,-0.440
11.264,-0.715,-0.465
11.267,-0.730,-0.450
11.269,-0.745,-0.445
11.272,-0.770,-0.450
11.275,-0.780,-0.460
11.278,-0.790,-0.455
11.281,-0.825,-0.470
11.283,-0.855,-0.490
11.286,-0.880,-0.495
11.289,-0.895,-0.500
11.292,-0.905,-0.470
11.294,-0.885,-0.475
11.297,-0.885,-0.465
11.300,-0.890,-0.470
11.303,-0.895,-0.470
11.306,-0.905,-0.485
11.308,-0.900,-0.470
11.311,-0.920,-0.490
11.314,-0.925,-0.490
11.317,-0.935,-0.510
11.319,-0.940,-0.500
11.322,-0.935,-0.510
11.325,-0.935,-0.510
11.328,-0.940,-0.485
11.331,-0.950,-0.505
11.333,-0.950,-0.500
11.336,-0.925,-0.480
11.339,-0.930,-0.490
11.342,-0.930,-0.500
11.344,-0.930,-0.500
11.347,-0.935,-0.495
11.350,-0.950,-0.500
11.353,-0.950,-0.500
11.356,-0.940,-0.495
11.358,-0.935,-0.500
11.361,-0.915,-0.490
11.364,-0.910,-0.495
11.367,-0.905,-0.470
11.369,-0.890,-0.475
11.372,-0.885,-0.475
11.375,-0.890,-0.485
11.378,-0.885,-0.490
11.381,-0.900,-0.505
11.383,-0.895,-0.510
11.386,-0.900,-0.495
11.389,-0.905,-0.510
11.392,-0.885,-0.505
11.394,-0.890,-0.500
11.397,-0.880,-0.495
11.400,-0.865,-0.490
11.403,-0.865,-0.480
11.406,-0.865,-0.495
11.408,-0.855,-0.495
11.411,-0.860,-0.505
11.414,-0.865,-0.495
11.417,-0.880,-0.500
11.419,-0.890,-0.500
11.422,-0.885,-0.505
11.425,-0.885,-0.505
11.428,-0.890,-0.480
11.431,-0.860,-0.490
11.433,-0.865,-0.480
11.436,-0.840,-0.485
11.439,-0.840,-0.485
11.442,-0.850,-0.495
11.444,-0.845,-0.510
11.447,-0.860,-0.510
11.450,-0.865,-0.530
11.453,-0.880,-0.530
11.456,-0.885,-0.535
11.458,-0.875,-0.520
11.461,-0.880,-0.530
11.464,-0.875,-0.515
11.467,-0.880,-0.510
11.469,-0.870,-0.490
11.472,-0.860,-0.520
11.475,-0.890,-0.510
11.478,-0.890,-0.505
11.481,-0.895,-0.530
11.483,-0.895,-0.520
11.486,-0.890,-0.525
11.489,-0.905,-0.510
11.492,-0.905,-0.525
11.494,-0.890,-0.515
11.497,-0.890,-0.500
11.500,-0.900,-0.500
11.503,-0.880,-0.495
11.506,-0.890,-0.500
11.508,-0.895,-0.500
11.511,-0.895,-0.510
11.514,-0.895,-0.525
11.517,-0.890,-0.520
11.519,-0.905,-0.540
11.522,-0.920,-0.540
11.525,-0.925,-0.540
11.528,-0.915,-0.535
11.531,-0.900,-0.520
11.533,-0.895,-0.505
11.536,-0.885,-0.495
11.539,-0.885,-0.505
11.542,-0.900,-0.505
11.544,-0.900,-0.500
11.547,-0.920,-0.510
11.550,-0.900,-0.525
11.553,-0.915,-0.535
11.556,-0.940,-0.530
11.558,-0.915,-0.535
11.561,-0.920,-0.525
11.564,-0.905,-0.530
11.567,-0.900,-0.505
11.569,-0.885,-0.515
11.572,-0.890,-0.495
11.575,-0.900,-0.525
11.578,-0.910,-0.530
11.581,-0.900,-0.540
11.583,-0.920,-0.540
11.586,-0.925,-0.545
11.589,-0.925,-0.565
11.592,-0.915,-0.550
11.594,-0.925,-0.545
11.597,-0.905,-0.525
11.600,-0.895,-0.495
11.603,-0.890,-0.510
11.606,-0.885,-0.505
11.608,-0.885,-0.505
11.611,-0.895,-0.500
11.614,-0.895,-0.520
11.617,-0.915,-0.505
11.619,-0.900,-0.520
11.622,-0.890,-0.535
11.625,-0.875,-0.510
11.628,-0.835,-0.485
11.631,-0.810,-0.475
11.633,-0.790,-0.460
11.636,-0.775,-0.435
11.639,-0.765,-0.445
11.642,-0.760,-0.435
11.644,-0.745,-0.455
11.647,-0.735,-0.450
11.650,-0.730,-0.465
11.653,-0.710,-0.455
11.656,-0.680,-0.450
11.658,-0.635,-0.430
11.661,-0.595,-0.410
11.664,-0.565,-0.425
11.667,-0.540,-0.445
11.669,-0.550,-0.450
11.672,-0.545,-0.475
11.675,-0.575,-0.510
11.678,-0.585,-0.535
11.681,-0.595,-0.540
11.683,-0.590,-0.555
11.686,-0.615,-0.555
11.689,-0.635,-0.580
11.692,-0.655,-0.560
11.694,-0.700,-0.565
11.697,-0.750,-0.555
11.700,-0.795,-0.555
11.703,-0.840,-0.535
11.706,-0.890,-0.530
11.708,-0.910,-0.560
11.711,-0.950,-0.570
11.714,-0.955,-0.565
11.717,-0.950,-0.595
11.719,-0.960,-0.580
11.722,-0.965,-0.595
11.725,-0.955,-0.570
11.728,-0.945,-0.585
11.731,-0.945,-0.565
11.733,-0.950,-0.540
11.736,-0.940,-0.550
11.739,-0.935,-0.555
11.742,-0.940,-0.570
11.744,-0.955,-0.560
11.747,-0.970,-0.585
11.750,-0.975,-0.585
11.753,-0.975,-0.580
11.756,-0.975,-0.600
11.758,-0.970,-0.605
11.761,-0.960,-0.575
11.764,-0.960,-0.580
11.767,-0.960,-0.560
11.769,-0.960,-0.560
11.772,-0.940,-0.565
11.775,-0.945,-0.580
11.778,-0.930,-0.575
11.781,-0.965,-0.575
11.783,-0.960,-0.585
11.786,-0.955,-0.585
11.789,-0.970,-0.570
11.792,-0.995,-0.550
11.794,-1.015,-0.525
11.797,-0.990,-0.495
11.800,-0.955,-0.430
11.803,-0.870,-0.345
11.806,-0.725,-0.325
11.808,-0.495,-0.350
11.811,-0.215,-0.400
11.814,0.145,-0.540
11.817,0.525,-0.700
11.819,0.840,-0.935
11.822,1.095,-1.185
11.825,1.205,-1.395
11.828,1.235,-1.550
11.831,1.145,-1.650
11.833,0.945,-1.670
11.836,0.645,-1.615
11.839,0.150,-1.565
11.842,-0.365,-1.485
11.844,-0.795,-1.400
11.847,-1.040,-1.300
11.850,-1.070,-1.185
11.853,-0.980,-1.085
11.856,-0.850,-1.005
11.858,-0.760,-0.905
11.861,-0.695,-0.815
11.864,-0.715,-0.750
11.867,-0.770,-0.670
11.869,-0.830,-0.630
11.872,-0.875,-0.585
11.875,-0.925,-0.560
11.878,-0.940,-0.575
11.881,-0.940,-0.570
11.883,-0.950,-0.565
11.886,-0.955,-0.555
11.889,-0.955,-0.560
11.892,-0.955,-0.530
11.894,-0.965,-0.515
11.897,-0.955,-0.515
11.900,-0.955,-0.485
11.903,-0.965,-0.490
11.906,-0.970,-0.465
11.908,-0.985,-0.470
11.911,-0.980,-0.470
11.914,-0.990,-0.475
11.917,-0.975,-0.490
11.919,-0.980,-0.505
11.922,-0.980,-0.500
11.925,-0.985,-0.505
11.928,-0.975,-0.480
11.931,-0.985,-0.470
11.933,-0.960,-0.465
11.936,-0.945,-0.445
11.939,-0.950,-0.450
11.942,-0.975,-0.460
11.944,-0.980,-0.465
11.947,-0.975,-0.480
11.950,-0.980,-0.490
11.953,-0.985,-0.495
11.956,-0.995,-0.485
11.958,-0.975,-0.490
11.961,-0.990,-0.475
11.964,-0.965,-0.465
11.967,-0.960,-0.450
11.969,-0.945,-0.435
11.972,-0.945,-0.430
11.975,-0.960,-0.430
11.978,-0.950,-0.435
11.981,-0.955,-0.445
11.983,-0.960,-0.445
11.986,-0.965,-0.460
11.989,-0.970,-0.470
11.992,-0.950,-0.445
11.994,-0.955,-0.455
11.997,-0.935,-0.430
12.000,-0.930,-0.425
12.003,-0.910,-0.430
12.006,-0.895,-0.420
12.008,-0.905,-0.445
12.011,-0.925,-0.435
12.014,-0.910,-0.445
12.017,-0.920,-0.465
12.019,-0.910,-0.445
12.022,-0.900,-0.455
12.025,-0.910,-0.455
12.028,-0.875,-0.450
12.031,-0.855,-0.410
12.033,-0.830,-0.395
12.036,-0.810,-0.385
12.039,-0.790,-0.405
12.042,-0.780,-0.395
12.044,-0.775,-0.420
12.047,-0.795,-0.420
12.050,-0.790,-0.430
12.053,-0.760,-0.430
12.056,-0.740,-0.450
12.058,-0.735,-0.435
12.061,-0.720,-0.425
12.064,-0.690,-0.420
12.067,-0.665,-0.400
12.069,-0.615,-0.390
12.072,-0.605,-0.390
12.075,-0.605,-0.415
12.078,-0.580,-0.415
12.081,-0.570,-0.430
12.083,-0.545,-0.430
12.086,-0.540,-0.445
12.089,-0.510,-0.445
12.092,-0.505,-0.440
12.094,-0.470,-0.420
12.097,-0.425,-0.410
12.100,-0.405,-0.420
12.103,-0.365,-0.405
12.106,-0.365,-0.430
12.108,-0.355,-0.415
12.111,-0.345,-0.445
12.114,-0.350,-0.435
12.117,-0.340,-0.475
12.119,-0.325,-0.465
12.122,-0.340,-0.470
12.125,-0.335,-0.480
12.128,-0.315,-0.475
12.131,-0.295,-0.480
12.133,-0.305,-0.465
12.136,-0.310,-0.460
12.139,-0.330,-0.450
12.142,-0.355,-0.460
12.144,-0.390,-0.460
12.147,-0.425,-0.465
12.150,-0.465,-0.465
12.153,-0.480,-0.470
12.156,-0.515,-0.470
12.158,-0.560,-0.455
12.161,-0.590,-0.445
12.164,-0.620,-0.420
12.167,-0.635,-0.410
12.169,-0.645,-0.415
12.172,-0.680,-0.415
12.175,-0.705,-0.425
12.178,-0.725,-0.460
12.181,-0.750,-0.435
12.183,-0.790,-0.465
12.186,-0.810,-0.455
12.189,-0.825,-0.465
12.192,-0.840,-0.470
12.194,-0.845,-0.470
12.197,-0.845,-0.465
12.200,-0.840,-0.460
12.203,-0.855,-0.450
12.206,-0.860,-0.455
12.208,-0.880,-0.465
12.211,-0.900,-0.465
12.214,-0.900,-0.475
12.217,-0.910,-0.470
12.219,-0.925,-0.475
12.222,-0.930,-0.495
12.225,-0.940,-0.485
12.228,-0.925,-0.470
12.231,-0.925,-0.465
12.233,-0.905,-0.460
12.236,-0.895,-0.435
12.239,-0.895,-0.450
12.242,-0.905,-0.455
12.244,-0.900,-0.455
12.247,-0.910,-0.475
12.250,-0.925,-0.470
12.253,-0.930,-0.485
12.256,-0.930,-0.500
12.258,-0.930,-0.485
12.261,-0.915,-0.490
12.264,-0.900,-0.460
12.267,-0.890,-0.465
12.269,-0.915,-0.460
12.272,-0.905,-0.465
12.275,-0.875,-0.450
12.278,-0.870,-0.465
12.281,-0.875,-0.455
12.283,-0.885,-0.450
12.286,-0.890,-0.455
12.289,-0.915,-0.450
12.292,-0.905,-0.435
12.294,-0.905,-0.415
12.297,-0.890,-0.390
12.300,-0.880,-0.365
12.303,-0.840,-0.330
12.306,-0.785,-0.295
12.308,-0.700,-0.260
12.311,-0.600,-0.240
12.314,-0.460,-0.275
12.317,-0.310,-0.350
12.319,-0.155,-0.495
12.322,0.010,-0.655
12.325,0.205,-0.835
12.328,0.380,-0.975
12.331,0.590,-1.125
12.333,0.820,-1.275
12.336,1.040,-1.445
12.339,1.260,-1.650
12.342,1.475,-1.855
12.344,1.635,-2.030
12.347,1.760,-2.185
12.350,1.865,-2.280
12.353,1.910,-2.330
12.356,1.945,-2.330
12.358,1.955,-2.325
12.361,1.945,-2.305
12.364,1.945,-2.290
12.367,1.905,-2.250
12.369,1.845,-2.210
12.372,1.760,-2.195
12.375,1.675,-2.120
12.378,1.625,-2.040
12.381,1.590,-1.950
12.383,1.600,-1.865
12.386,1.590,-1.780
12.389,1.550,-1.680
12.392,1.475,-1.590
12.394,1.380,-1.495
12.397,1.235,-1.390
12.400,1.075,-1.300
12.403,0.880,-1.215
12.406,0.660,-1.140
12.408,0.350,-1.065
12.411,-0.030,-0.985
12.414,-0.405,-0.905
12.417,-0.735,-0.805
12.419,-0.965,-0.695
12.422,-1.080,-0.585
12.425,-1.095,-0.485
12.428,-1.115,-0.435
12.431,-1.075,-0.390
12.433,-1.065,-0.370
12.436,-1.080,-0.355
12.439,-1.095,-0.350
12.442,-1.155,-0.360
12.444,-1.210,-0.335
12.447,-1.250,-0.325
12.450,-1.295,-0.335
12.453,-1.315,-0.310
12.456,-1.330,-0.305
12.458,-1.335,-0.290
12.461,-1.340,-0.270
12.464,-1.345,-0.250
12.467,-1.375,-0.230
12.469,-1.380,-0.215
12.472,-1.375,-0.200
12.475,-1.380,-0.195
12.478,-1.390,-0.205
12.481,-1.410,-0.200
12.483,-1.435,-0.200
12.486,-1.450,-0.220
12.489,-1.465,-0.190
12.492,-1.455,-0.180
12.494,-1.450,-0.165
12.497,-1.440,-0.130
12.500,-1.435,-0.115
12.503,-1.420,-0.080
12.506,-1.415,-0.070
12.508,-1.410,-0.070
12.511,-1.425,-0.055
12.514,-1.420,-0.050
12.517,-1.435,-0.055
12.519,-1.450,-0.045
12.522,-1.435,-0.035
12.525,-1.420,-0.015
12.528,-1.425,0.020
12.531,-1.405,0.035
12.533,-1.385,0.035
12.536,-1.380,0.020
12.539,-1.390,0.015
12.542,-1.415,-0.005
12.544,-1.445,-0.020
12.547,-1.475,0.005
12.550,-1.510,-0.005
12.553,-1.520,0.005
12.556,-1.540,0.035
12.558,-1.575,0.050
12.561,-1.625,0.070
12.564,-1.675,0.110
12.567,-1.730,0.130
12.569,-1.795,0.150
12.572,-1.865,0.180
12.575,-1.930,0.200
12.578,-1.995,0.195
12.581,-2.070,0.215
12.583,-2.120,0.250
12.586,-2.135,0.265
12.589,-2.155,0.270
12.592,-2.175,0.290
12.594,-2.180,0.335
12.597,-2.205,0.375
12.600,-2.230,0.390
12.603,-2.235,0.395
12.606,-2.240,0.420
12.608,-2.265,0.425
12.611,-2.295,0.430
12.614,-2.325,0.435
12.617,-2.345,0.410
12.619,-2.365,0.400
12.622,-2.355,0.395
12.625,-2.365,0.395
12.628,-2.350,0.395
12.631,-2.350,0.390
12.633,-2.345,0.395
12.636,-2.330,0.385
12.639,-2.310,0.370
12.642,-2.305,0.335
12.644,-2.285,0.325
12.647,-2.255,0.285
12.650,-2.225,0.265
12.653,-2.200,0.215
12.656,-2.175,0.180
12.658,-2.130,0.175
12.661,-2.080,0.160
12.664,-2.030,0.115
12.667,-1.985,0.105
12.669,-1.940,0.075
12.672,-1.880,0.045
12.675,-1.835,0.015
12.678,-1.775,-0.040
12.681,-1.725,-0.060
12.683,-1.670,-0.120
12.686,-1.630,-0.150
12.689,-1.600,-0.200
12.692,-1.520,-0.225
12.694,-1.465,-0.255
12.697,-1.425,-0.270
12.700,-1.375,-0.290
12.703,-1.350,-0.290
12.706,-1.310,-0.310
12.708,-1.290,-0.320
12.711,-1.250,-0.335
12.714,-1.250,-0.350
12.717,-1.245,-0.360
12.719,-1.240,-0.385
12.722,-1.225,-0.395
12.725,-1.225,-0.410
12.728,-1.210,-0.390
12.731,-1.195,-0.385
12.733,-1.190,-0.385
12.736,-1.185,-0.380
12.739,-1.180,-0.390
12.742,-1.195,-0.385
12.744,-1.190,-0.410
12.747,-1.205,-0.400
12.750,-1.200,-0.425
12.753,-1.210,-0.425
12.756,-1.220,-0.425
12.758,-1.205,-0.430
12.761,-1.205,-0.425
12.764,-1.210,-0.400
12.767,-1.210,-0.390
12.769,-1.175,-0.370
12.772,-1.175,-0.365
12.775,-1.175,-0.380
12.778,-1.190,-0.380
12.781,-1.200,-0.395
12.783,-1.205,-0.400
12.786,-1.215,-0.415
12.789,-1.210,-0.420
12.792,-1.180,-0.410
12.794,-1.185,-0.400
12.797,-1.170,-0.405
12.800,-1.160,-0.385
12.803,-1.140,-0.390
12.806,-1.135,-0.395
12.808,-1.140,-0.390
12.811,-1.160,-0.400
12.814,-1.160,-0.420
12.817,-1.160,-0.415
12.819,-1.160,-0.440
12.822,-1.165,-0.440
12.825,-1.140,-0.435
12.828,-1.135,-0.415
12.831,-1.135,-0.410
12.833,-1.115,-0.400
12.836,-1.120,-0.385
12.839,-1.100,-0.415
12.842,-1.090,-0.410
12.844,-1.105,-0.415
12.847,-1.105,-0.435
12.850,-1.110,-0.440
12.853,-1.115,-0.440
12.856,-1.120,-0.450
12.858,-1.120,-0.440
12.861,-1.115,-0.435
12.864,-1.085,-0.435
12.867,-1.090,-0.425
12.869,-1.075,-0.435
12.872,-1.085,-0.430
12.875,-1.080,-0.430
12.878,-1.090,-0.445
12.881,-1.085,-0.455
12.883,-1.100,-0.470
12.886,-1.100,-0.455
12.889,-1.110,-0.455
12.892,-1.100,-0.465
12.894,-1.080,-0.440
12.897,-1.070,-0.435
12.900,-1.060,-0.420
12.903,-1.060,-0.415
12.906,-1.065,-0.405
12.908,-1.065,-0.435
12.911,-1.070,-0.435
12.914,-1.085,-0.450
12.917,-1.095,-0.455
12.919,-1.090,-0.465
12.922,-1.085,-0.465
12.925,-1.080,-0.470
12.928,-1.075,-0.465
12.931,-1.055,-0.450
12.933,-1.060,-0.425
12.936,-1.050,-0.440
12.939,-1.045,-0.450
12.942,-1.045,-0.450
12.944,-1.060,-0.450
12.947,-1.055,-0.475
12.950,-1.065,-0.480
12.953,-1.075,-0.490
12.956,-1.075,-0.480
12.958,-1.055,-0.495
12.961,-1.045,-0.475
12.964,-1.045,-0.475
12.967,-1.050,-0.460
12.969,-1.040,-0.450
12.972,-1.035,-0.465
12.975,-1.020,-0.450
12.978,-1.030,-0.460
12.981,-1.030,-0.490
12.983,-1.040,-0.490
12.986,-1.050,-0.495
12.989,-1.045,-0.500
12.992,-1.045,-0.490
12.994,-1.030,-0.500
12.997,-1.025,-0.485
13.000,-1.030,-0.475
13.003,-1.020,-0.460
13.006,-1.000,-0.440
13.008,-1.020,-0.445
13.011,-1.025,-0.475
13.014,-1.035,-0.470
13.017,-1.035,-0.485
13.019,-1.050,-0.495
13.022,-1.040,-0.495
13.025,-1.040,-0.500
13.028,-1.040,-0.495
13.031,-1.015,-0.480
13.033,-1.010,-0.480
13.036,-0.995,-0.475
13.039,-0.980,-0.465
13.042,-0.995,-0.480
13.044,-1.005,-0.490
13.047,-1.010,-0.505
13.050,-1.030,-0.520
13.053,-1.035,-0.510
13.056,-1.030,-0.515
13.058,-1.030,-0.510
13.061,-1.020,-0.495
13.064,-1.025,-0.495
13.067,-0.995,-0.465
13.069,-0.995,-0.465
13.072,-0.990,-0.475
13.075,-0.980,-0.460
13.078,-0.980,-0.475
13.081,-1.000,-0.500
13.083,-1.015,-0.495
13.086,-1.025,-0.500
13.089,-1.040,-0.525
13.092,-1.025,-0.500
13.094,-1.010,-0.500
13.097,-1.005,-0.480
13.100,-1.000,-0.485
13.103,-0.965,-0.480
13.106,-0.970,-0.485
13.108,-0.965,-0.485
13.111,-0.985,-0.495
13.114,-1.000,-0.500
13.117,-1.000,-0.500
13.119,-0.985,-0.525
13.122,-0.990,-0.520
13.125,-0.990,-0.510
13.128,-0.980,-0.490
13.131,-0.965,-0.500
13.133,-0.960,-0.470
13.136,-0.960,-0.480
13.139,-0.950,-0.495
13.142,-0.965,-0.470
13.144,-0.960,-0.475
13.147,-0.960,-0.500
13.150,-0.970,-0.495
13.153,-0.980,-0.505
13.156,-0.980,-0.500
13.158,-0.975,-0.525
13.161,-0.980,-0.510
13.164,-0.975,-0.510
13.167,-0.950,-0.490
13.169,-0.950,-0.490
13.172,-0.940,-0.480
13.175,-0.945,-0.470
13.178,-0.955,-0.490
13.181,-0.955,-0.485
13.183,-0.965,-0.485
13.186,-0.970,-0.485
13.189,-0.965,-0.510
13.192,-0.970,-0.505
13.194,-0.950,-0.480
13.197,-0.925,-0.485
13.200,-0.940,-0.485
13.203,-0.935,-0.475
13.206,-0.930,-0.470
13.208,-0.935,-0.460
13.211,-0.945,-0.485
13.214,-0.960,-0.500
13.217,-0.945,-0.510
13.219,-0.960,-0.525
13.222,-0.970,-0.520
13.225,-0.965,-0.510
13.228,-0.950,-0.510
13.231,-0.940,-0.500
13.233,-0.935,-0.465
13.236,-0.915,-0.485
13.239,-0.910,-0.470
13.242,-0.925,-0.480
13.244,-0.925,-0.475
13.247,-0.920,-0.490
13.250,-0.920,-0.490
13.253,-0.940,-0.500
13.256,-0.935,-0.500
13.258,-0.940,-0.495
13.261,-0.925,-0.485
13.264,-0.920,-0.485
13.267,-0.935,-0.495
13.269,-0.920,-0.475
13.272,-0.900,-0.485
13.275,-0.905,-0.495
13.278,-0.910,-0.485
13.281,-0.915,-0.510
13.283,-0.920,-0.505
13.286,-0.925,-0.530
13.289,-0.920,-0.525
13.292,-0.920,-0.515
13.294,-0.930,-0.505
13.297,-0.915,-0.490
13.300,-0.905,-0.485
13.303,-0.900,-0.475
13.306,-0.890,-0.475
13.308,-0.905,-0.460
13.311,-0.880,-0.475
13.314,-0.880,-0.490
13.317,-0.900,-0.495
13.319,-0.905,-0.525
13.322,-0.910,-0.515
13.325,-0.920,-0.520
13.328,-0.910,-0.525
13.331,-0.900,-0.500
13.333,-0.890,-0.495
13.336,-0.890,-0.485
13.339,-0.890,-0.500
13.342,-0.870,-0.495
13.344,-0.895,-0.490
13.347,-0.900,-0.505
13.350,-0.895,-0.525
13.353,-0.905,-0.530
13.356,-0.910,-0.525
13.358,-0.905,-0.515
13.361,-0.910,-0.510
13.364,-0.900,-0.480
13.367,-0.895,-0.485
13.369,-0.890,-0.465
13.372,-0.860,-0.465
13.375,-0.875,-0.465
13.378,-0.875,-0.475
13.381,-0.890,-0.485
13.383,-0.905,-0.505
13.386,-0.890,-0.520
13.389,-0.900,-0.495
13.392,-0.900,-0.515
13.394,-0.895,-0.495
13.397,-0.880,-0.485
13.400,-0.890,-0.490
13.403,-0.870,-0.485
13.406,-0.870,-0.465
13.408,-0.875,-0.485
13.411,-0.875,-0.490
13.414,-0.885,-0.500
13.417,-0.895,-0.500
13.419,-0.895,-0.500
13.422,-0.875,-0.515
13.425,-0.885,-0.495
13.428,-0.885,-0.480
13.431,-0.855,-0.465
13.433,-0.840,-0.445
13.436,-0.840,-0.450
13.439,-0.820,-0.445
13.442,-0.810,-0.440
13.444,-0.805,-0.455
13.447,-0.785,-0.450
13.450,-0.770,-0.450
13.453,-0.755,-0.460
13.456,-0.735,-0.440
13.458,-0.735,-0.425
13.461,-0.730,-0.430
13.464,-0.705,-0.405
13.467,-0.680,-0.400
13.469,-0.640,-0.390
13.472,-0.580,-0.385
13.475,-0.545,-0.385
13.478,-0.510,-0.385
13.481,-0.505,-0.420
13.483,-0.535,-0.450
13.486,-0.555,-0.470
13.489,-0.575,-0.490
13.492,-0.565,-0.510
13.494,-0.555,-0.505
13.497,-0.545,-0.490
13.500,-0.535,-0.490
13.503,-0.530,-0.500
13.506,-0.545,-0.490
13.508,-0.595,-0.490
13.511,-0.660,-0.520
13.514,-0.720,-0.520
13.517,-0.780,-0.520
13.519,-0.820,-0.515
13.522,-0.865,-0.530
13.525,-0.895,-0.530
13.528,-0.885,-0.530
13.531,-0.880,-0.530
13.533,-0.875,-0.525
13.536,-0.855,-0.520
13.539,-0.860,-0.530
13.542,-0.850,-0.535
13.544,-0.865,-0.530
13.547,-0.880,-0.540
13.550,-0.900,-0.535
13.553,-0.895,-0.540
13.556,-0.910,-0.550
13.558,-0.920,-0.550
13.561,-0.890,-0.530
13.564,-0.890,-0.540
13.567,-0.885,-0.530
13.569,-0.870,-0.510
13.572,-0.865,-0.520
13.575,-0.880,-0.520
13.578,-0.890,-0.515
13.581,-0.900,-0.540
13.583,-0.905,-0.535
13.586,-0.900,-0.565
13.589,-0.920,-0.545
13.592,-0.935,-0.535
13.594,-0.960,-0.510
13.597,-0.935,-0.475
13.600,-0.875,-0.410
13.603,-0.785,-0.360
13.606,-0.625,-0.315
13.608,-0.410,-0.325
13.611,-0.125,-0.365
13.614,0.200,-0.460
13.617,0.560,-0.600
13.619,0.880,-0.770
13.622,1.165,-0.990
13.625,1.315,-1.195
13.628,1.370,-1.375
13.631,1.330,-1.490
13.633,1.210,-1.525
13.636,0.960,-1.515
13.639,0.605,-1.465
13.642,0.125,-1.435
13.644,-0.385,-1.385
13.647,-0.785,-1.325
13.650,-0.980,-1.245
13.653,-1.015,-1.155
13.656,-0.890,-1.075
13.658,-0.765,-0.980
13.661,-0.650,-0.900
13.664,-0.605,-0.820
13.667,-0.645,-0.750
13.669,-0.695,-0.685
13.672,-0.740,-0.615
13.675,-0.825,-0.575
13.678,-0.855,-0.545
13.681,-0.895,-0.535
13.683,-0.905,-0.535
13.686,-0.895,-0.545
13.689,-0.890,-0.535
13.692,-0.895,-0.520
13.694,-0.920,-0.515
13.697,-0.905,-0.500
13.700,-0.895,-0.475
13.703,-0.890,-0.470
13.706,-0.900,-0.470
13.708,-0.900,-0.460
13.711,-0.910,-0.460
13.714,-0.915,-0.470
13.717,-0.920,-0.480
13.719,-0.925,-0.485
13.722,-0.945,-0.485
13.725,-0.940,-0.480
13.728,-0.960,-0.470
13.731,-0.955,-0.450
13.733,-0.935,-0.460
13.736,-0.935,-0.445
13.739,-0.925,-0.445
13.742,-0.925,-0.450
13.744,-0.915,-0.445
13.747,-0.925,-0.450
13.750,-0.945,-0.460
13.753,-0.945,-0.480
13.756,-0.945,-0.470
13.758,-0.940,-0.460
13.761,-0.935,-0.450
13.764,-0.925,-0.450
13.767,-0.920,-0.430
13.769,-0.910,-0.420
13.772,-0.920,-0.430
13.775,-0.905,-0.420
13.778,-0.905,-0.420
13.781,-0.915,-0.440
13.783,-0.935,-0.445
13.786,-0.945,-0.460
13.789,-0.930,-0.465
13.792,-0.940,-0.445
13.794,-0.930,-0.425
13.797,-0.910,-0.420
13.800,-0.900,-0.405
13.803,-0.895,-0.400
13.806,-0.865,-0.395
13.808,-0.870,-0.390
13.811,-0.880,-0.380
13.814,-0.875,-0.390
13.817,-0.890,-0.410
13.819,-0.885,-0.410
13.822,-0.890,-0.435
13.825,-0.880,-0.405
13.828,-0.885,-0.395
13.831,-0.870,-0.390
13.833,-0.845,-0.390
13.836,-0.830,-0.370
13.839,-0.830,-0.375
13.842,-0.835,-0.390
13.844,-0.845,-0.390
13.847,-0.845,-0.400
13.850,-0.820,-0.390
13.853,-0.810,-0.410
13.856,-0.820,-0.395
13.858,-0.825,-0.405
13.861,-0.800,-0.375
13.864,-0.755,-0.370
13.867,-0.740,-0.350
13.869,-0.710,-0.335
13.872,-0.690,-0.335
13.875,-0.680,-0.345
13.878,-0.665,-0.340
13.881,-0.640,-0.340
13.883,-0.650,-0.355
13.886,-0.635,-0.370
13.889,-0.615,-0.365
13.892,-0.615,-0.345
13.894,-0.590,-0.345
13.897,-0.560,-0.345
13.900,-0.535,-0.350
13.903,-0.520,-0.340
13.906,-0.495,-0.340
13.908,-0.485,-0.345
13.911,-0.455,-0.355
13.914,-0.445,-0.380
13.917,-0.445,-0.385
13.919,-0.435,-0.395
13.922,-0.415,-0.395
13.925,-0.410,-0.390
13.928,-0.390,-0.375
13.931,-0.360,-0.365
13.933,-0.345,-0.380
13.936,-0.335,-0.370
13.939,-0.300,-0.370
13.942,-0.295,-0.385
13.944,-0.280,-0.375
13.947,-0.295,-0.400
13.950,-0.300,-0.415
13.953,-0.300,-0.415
13.956,-0.305,-0.440
13.958,-0.325,-0.445
13.961,-0.325,-0.430
13.964,-0.350,-0.420
13.967,-0.350,-0.415
13.969,-0.380,-0.415
13.972,-0.390,-0.415
13.975,-0.410,-0.410
13.978,-0.455,-0.425
13.981,-0.485,-0.425
13.983,-0.510,-0.430
13.986,-0.540,-0.435
13.989,-0.570,-0.445
13.992,-0.605,-0.450
13.994,-0.615,-0.425
13.997,-0.640,-0.430
14.000,-0.640,-0.430
14.003,-0.675,-0.420
14.006,-0.660,-0.415
14.008,-0.680,-0.425
14.011,-0.715,-0.430
14.014,-0.720,-0.440
14.017,-0.745,-0.450
14.019,-0.755,-0.480
14.022,-0.765,-0.485
14.025,-0.785,-0.485
14.028,-0.775,-0.485
14.031,-0.785,-0.465
14.033,-0.795,-0.445
14.036,-0.785,-0.445
14.039,-0.780,-0.435
14.042,-0.785,-0.440
14.044,-0.790,-0.455
14.047,-0.790,-0.455
14.050,-0.790,-0.460
14.053,-0.780,-0.455
14.056,-0.795,-0.465
14.058,-0.805,-0.475
14.061,-0.795,-0.450
14.064,-0.790,-0.460
14.067,-0.785,-0.455
14.069,-0.770,-0.450
14.072,-0.765,-0.445
14.075,-0.775,-0.440
14.078,-0.770,-0.440
14.081,-0.780,-0.465
14.083,-0.785,-0.480
14.086,-0.780,-0.485
14.089,-0.785,-0.505
14.092,-0.780,-0.500
14.094,-0.785,-0.495
14.097,-0.775,-0.470
14.100,-0.755,-0.465
14.103,-0.740,-0.460
14.106,-0.745,-0.450
14.108,-0.740,-0.445
14.111,-0.750,-0.440
14.114,-0.750,-0.470
14.117,-0.760,-0.470
14.119,-0.770,-0.480
14.122,-0.785,-0.495
14.125,-0.775,-0.490
14.128,-0.775,-0.480
14.131,-0.745,-0.485
14.133,-0.740,-0.450
14.136,-0.730,-0.455
14.139,-0.725,-0.455
14.142,-0.720,-0.460
14.144,-0.720,-0.475
14.147,-0.740,-0.470
14.150,-0.775,-0.490
14.153,-0.770,-0.495
14.156,-0.765,-0.505
14.158,-0.780,-0.485
14.161,-0.790,-0.505
14.164,-0.775,-0.490
14.167,-0.765,-0.480
14.169,-0.760,-0.465
14.172,-0.755,-0.455
14.175,-0.760,-0.470
14.178,-0.775,-0.490
14.181,-0.775,-0.480
14.183,-0.800,-0.500
14.186,-0.800,-0.495
14.189,-0.785,-0.490
14.192,-0.810,-0.485
14.194,-0.805,-0.490
14.197,-0.800,-0.475
14.200,-0.800,-0.470
14.203,-0.790,-0.455
14.206,-0.785,-0.465
14.208,-0.785,-0.465
14.211,-0.795,-0.470
14.214,-0.810,-0.485
14.217,-0.820,-0.480
14.219,-0.825,-0.485
14.222,-0.835,-0.500
14.225,-0.850,-0.495
14.228,-0.860,-0.500
14.231,-0.835,-0.475
14.233,-0.825,-0.470
14.236,-0.810,-0.450
14.239,-0.810,-0.440
14.242,-0.805,-0.450
14.244,-0.830,-0.455
14.247,-0.840,-0.470
14.250,-0.845,-0.485
14.253,-0.845,-0.500
14.256,-0.855,-0.505
14.258,-0.865,-0.500
14.261,-0.855,-0.500
14.264,-0.845,-0.480
14.267,-0.840,-0.485
14.269,-0.835,-0.480
14.272,-0.825,-0.475
14.275,-0.830,-0.475
14.278,-0.830,-0.480
14.281,-0.835,-0.500
14.283,-0.840,-0.520
14.286,-0.840,-0.505
14.289,-0.850,-0.515
14.292,-0.850,-0.510
14.294,-0.860,-0.495
14.297,-0.840,-0.480
14.300,-0.850,-0.495
14.303,-0.830,-0.455
14.306,-0.825,-0.470
14.308,-0.840,-0.480
14.311,-0.835,-0.475
14.314,-0.850,-0.495
14.317,-0.855,-0.510
14.319,-0.865,-0.510
14.322,-0.865,-0.515
14.325,-0.860,-0.510
14.328,-0.860,-0.510
14.331,-0.845,-0.500
14.333,-0.835,-0.500
14.336,-0.840,-0.490
14.339,-0.840,-0.490
14.342,-0.835,-0.490
14.344,-0.835,-0.500
14.347,-0.840,-0.505
14.350,-0.850,-0.505
14.353,-0.845,-0.515
14.356,-0.840,-0.505
14.358,-0.830,-0.490
14.361,-0.790,-0.475
14.364,-0.775,-0.440
14.367,-0.745,-0.435
14.369,-0.725,-0.415
14.372,-0.710,-0.405
14.375,-0.690,-0.410
14.378,-0.680,-0.400
14.381,-0.675,-0.405
14.383,-0.670,-0.410
14.386,-0.635,-0.415
14.389,-0.585,-0.420
14.392,-0.555,-0.415
14.394,-0.520,-0.445
14.397,-0.500,-0.445
14.400,-0.490,-0.450
14.403,-0.510,-0.465
14.406,-0.510,-0.480
14.408,-0.515,-0.495
14.411,-0.520,-0.500
14.414,-0.530,-0.505
14.417,-0.560,-0.520
14.419,-0.590,-0.540
14.422,-0.635,-0.550
14.425,-0.685,-0.550
14.428,-0.735,-0.555
14.431,-0.780,-0.540
14.433,-0.825,-0.515
14.436,-0.850,-0.495
14.439,-0.845,-0.520
14.442,-0.860,-0.510
14.444,-0.885,-0.525
14.447,-0.900,-0.540
14.450,-0.915,-0.565
14.453,-0.905,-0.575
14.456,-0.890,-0.580
14.458,-0.905,-0.580
14.461,-0.895,-0.570
14.464,-0.900,-0.560
14.467,-0.900,-0.555
14.469,-0.895,-0.535
14.472,-0.900,-0.525
14.475,-0.905,-0.530
14.478,-0.905,-0.520
14.481,-0.915,-0.535
14.483,-0.920,-0.545
14.486,-0.920,-0.565
14.489,-0.935,-0.565
14.492,-0.935,-0.565
14.494,-0.925,-0.555
14.497,-0.920,-0.530
14.500,-0.900,-0.530
14.503,-0.890,-0.530
14.506,-0.885,-0.525
14.508,-0.875,-0.545
14.511,-0.875,-0.530
14.514,-0.880,-0.550
14.517,-0.910,-0.545
14.519,-0.930,-0.560
14.522,-0.970,-0.540
14.525,-0.990,-0.490
14.528,-0.950,-0.460
14.531,-0.860,-0.375
14.533,-0.695,-0.320
14.536,-0.465,-0.310
14.539,-0.160,-0.350
14.542,0.205,-0.455
14.544,0.590,-0.610
14.547,0.945,-0.830
14.550,1.175,-1.075
14.553,1.310,-1.305
14.556,1.315,-1.470
14.558,1.195,-1.560
14.561,0.965,-1.590
14.564,0.585,-1.525
14.567,0.075,-1.450
14.569,-0.435,-1.375
14.572,-0.825,-1.300
14.575,-1.025,-1.210
14.578,-1.040,-1.115
14.581,-0.920,-1.030
14.583,-0.790,-0.950
14.586,-0.700,-0.900
14.589,-0.660,-0.840
14.592,-0.680,-0.785
14.594,-0.740,-0.710
14.597,-0.810,-0.630
14.600,-0.850,-0.585
14.603,-0.890,-0.535
14.606,-0.890,-0.510
14.608,-0.895,-0.510
14.611,-0.885,-0.505
14.614,-0.890,-0.515
14.617,-0.900,-0.505
14.619,-0.905,-0.520
14.622,-0.920,-0.510
14.625,-0.950,-0.500
14.628,-0.925,-0.490
14.631,-0.915,-0.470
14.633,-0.905,-0.470
14.636,-0.915,-0.450
14.639,-0.915,-0.460
14.642,-0.905,-0.460
14.644,-0.900,-0.460
14.647,-0.925,-0.465
14.650,-0.935,-0.450
14.653,-0.935,-0.480
14.656,-0.935,-0.465
14.658,-0.940,-0.470
14.661,-0.945,-0.445
14.664,-0.920,-0.445
14.667,-0.915,-0.435
14.669,-0.920,-0.425
14.672,-0.930,-0.415
14.675,-0.920,-0.425
14.678,-0.940,-0.420
14.681,-0.935,-0.435
14.683,-0.950,-0.445
14.686,-0.960,-0.460
14.689,-0.970,-0.465
14.692,-0.955,-0.450
14.694,-0.950,-0.455
14.697,-0.935,-0.445
14.700,-0.935,-0.440
14.703,-0.925,-0.420
14.706,-0.900,-0.420
14.708,-0.905,-0.420
14.711,-0.895,-0.415
14.714,-0.920,-0.440
14.717,-0.925,-0.430
14.719,-0.930,-0.435
14.722,-0.930,-0.425
14.725,-0.930,-0.430
14.728,-0.915,-0.425
14.731,-0.910,-0.415
14.733,-0.900,-0.410
14.736,-0.890,-0.405
14.739,-0.860,-0.405
14.742,-0.855,-0.405
14.744,-0.855,-0.400
14.747,-0.845,-0.420
14.750,-0.855,-0.425
14.753,-0.860,-0.425
14.756,-0.840,-0.440
14.758,-0.855,-0.430
14.761,-0.830,-0.430
14.764,-0.815,-0.420
14.767,-0.785,-0.415
14.769,-0.780,-0.405
14.772,-0.755,-0.395
14.775,-0.750,-0.395
14.778,-0.745,-0.395
14.781,-0.710,-0.400
14.783,-0.715,-0.405
14.786,-0.700,-0.420
14.789,-0.685,-0.435
14.792,-0.655,-0.425
14.794,-0.655,-0.425
14.797,-0.635,-0.420
14.800,-0.605,-0.400
14.803,-0.575,-0.410
14.806,-0.535,-0.390
14.808,-0.495,-0.400
14.811,-0.495,-0.415
14.814,-0.485,-0.430
14.817,-0.465,-0.440
14.819,-0.450,-0.455
14.822,-0.450,-0.455
14.825,-0.450,-0.455
14.828,-0.435,-0.465
14.831,-0.395,-0.450
14.833,-0.375,-0.440
14.836,-0.345,-0.425
14.839,-0.350,-0.425
14.842,-0.350,-0.435
14.844,-0.335,-0.435
14.847,-0.345,-0.450
14.850,-0.330,-0.455
14.853,-0.325,-0.485
14.856,-0.330,-0.495
14.858,-0.335,-0.490
14.861,-0.355,-0.485
14.864,-0.345,-0.480
14.867,-0.350,-0.460
14.869,-0.360,-0.455
14.872,-0.380,-0.455
14.875,-0.395,-0.440
14.878,-0.425,-0.445
14.881,-0.455,-0.460
14.883,-0.495,-0.470
14.886,-0.550,-0.480
14.889,-0.585,-0.455
14.892,-0.620,-0.455
14.894,-0.645,-0.445
14.897,-0.665,-0.425
14.900,-0.710,-0.425
14.903,-0.710,-0.415
14.906,-0.715,-0.415
14.908,-0.730,-0.405
14.911,-0.770,-0.410
14.914,-0.790,-0.440
14.917,-0.815,-0.440
14.919,-0.845,-0.455
14.922,-0.865,-0.440
14.925,-0.885,-0.455
14.928,-0.885,-0.455
14.931,-0.895,-0.460
14.933,-0.890,-0.440
14.936,-0.890,-0.445
14.939,-0.880,-0.435
14.942,-0.895,-0.430
14.944,-0.905,-0.445
14.947,-0.905,-0.445
14.950,-0.915,-0.470
14.953,-0.920,-0.470
14.956,-0.930,-0.470
14.958,-0.935,-0.465
14.961,-0.945,-0.465
14.964,-0.940,-0.450
14.967,-0.925,-0.440
14.969,-0.925,-0.445
14.972,-0.900,-0.435
14.975,-0.925,-0.430
14.978,-0.930,-0.435
14.981,-0.910,-0.440
14.983,-0.910,-0.455
14.986,-0.915,-0.460
14.989,-0.920,-0.475
14.992,-0.915,-0.465
14.994,-0.915,-0.470
14.997,-0.935,-0.470
15.000,-0.900,-0.465
15.003,-0.895,-0.445
15.006,-0.885,-0.440
15.008,-0.885,-0.445
15.011,-0.880,-0.445
15.014,-0.905,-0.440
15.017,-0.905,-0.450
15.019,-0.895,-0.455
15.022,-0.905,-0.455
15.025,-0.905,-0.450
15.028,-0.885,-0.455
15.031,-0.865,-0.450
15.033,-0.865,-0.440
15.036,-0.860,-0.430
15.039,-0.835,-0.430
15.042,-0.845,-0.425
15.044,-0.840,-0.445
15.047,-0.855,-0.445
15.050,-0.875,-0.455
15.053,-0.895,-0.460
15.056,-0.880,-0.475
15.058,-0.895,-0.475
15.061,-0.905,-0.465
15.064,-0.885,-0.455
15.067,-0.870,-0.455
15.069,-0.870,-0.445
15.072,-0.880,-0.430
15.075,-0.860,-0.440
15.078,-0.875,-0.440
15.081,-0.880,-0.460
15.083,-0.870,-0.455
15.086,-0.885,-0.455
15.089,-0.890,-0.465
15.092,-0.890,-0.470
15.094,-0.905,-0.455
15.097,-0.885,-0.450
15.100,-0.875,-0.450
15.103,-0.895,-0.455
15.106,-0.875,-0.435
15.108,-0.870,-0.445
15.111,-0.875,-0.445
15.114,-0.885,-0.450
15.117,-0.905,-0.460
15.119,-0.920,-0.475
15.122,-0.940,-0.475
15.125,-0.925,-0.480
15.128,-0.920,-0.470
15.131,-0.920,-0.460
15.133,-0.905,-0.460
15.136,-0.900,-0.440
15.139,-0.880,-0.430
15.142,-0.885,-0.435
15.144,-0.895,-0.440
15.147,-0.900,-0.450
15.150,-0.905,-0.445
15.153,-0.915,-0.460
15.156,-0.925,-0.485
15.158,-0.930,-0.495
15.161,-0.930,-0.475
15.164,-0.935,-0.480
15.167,-0.925,-0.455
15.169,-0.915,-0.470
15.172,-0.905,-0.450
15.175,-0.900,-0.445
15.178,-0.895,-0.465
15.181,-0.915,-0.475
15.183,-0.925,-0.475
15.186,-0.920,-0.505
15.189,-0.935,-0.495
15.192,-0.950,-0.495
15.194,-0.955,-0.485
15.197,-0.935,-0.465
15.200,-0.920,-0.455
15.203,-0.910,-0.445
15.206,-0.895,-0.440
15.208,-0.890,-0.435
15.211,-0.890,-0.430
15.214,-0.885,-0.445
15.217,-0.880,-0.455
15.219,-0.870,-0.460
15.222,-0.865,-0.475
15.225,-0.860,-0.460
15.228,-0.830,-0.430
15.231,-0.825,-0.415
15.233,-0.805,-0.420
15.236,-0.780,-0.385
15.239,-0.760,-0.385
15.242,-0.760,-0.385
15.244,-0.740,-0.410
15.247,-0.730,-0.395
15.250,-0.705,-0.405
15.253,-0.690,-0.395
15.256,-0.645,-0.405
15.258,-0.620,-0.395
15.261,-0.585,-0.395
15.264,-0.580,-0.400
15.267,-0.575,-0.395
15.269,-0.580,-0.420
15.272,-0.585,-0.425
15.275,-0.580,-0.445
15.278,-0.600,-0.465
15.281,-0.585,-0.495
15.283,-0.605,-0.500
15.286,-0.620,-0.510
15.289,-0.655,-0.525
15.292,-0.705,-0.535
15.294,-0.740,-0.520
15.297,-0.790,-0.515
15.300,-0.830,-0.515
15.303,-0.880,-0.490
15.306,-0.900,-0.475
15.308,-0.915,-0.480
15.311,-0.935,-0.495
15.314,-0.935,-0.495
15.317,-0.940,-0.515
15.319,-0.960,-0.525
15.322,-0.960,-0.515
15.325,-0.955,-0.530
15.328,-0.960,-0.525
15.331,-0.955,-0.515
15.333,-0.955,-0.505
15.336,-0.970,-0.495
15.339,-0.950,-0.495
15.342,-0.965,-0.495
15.344,-0.965,-0.500
15.347,-0.970,-0.515
15.350,-0.980,-0.505
15.353,-0.970,-0.520
15.356,-0.975,-0.535
15.358,-0.965,-0.550
15.361,-0.970,-0.535
15.364,-0.955,-0.530
15.367,-0.935,-0.520
15.369,-0.920,-0.505
15.372,-0.915,-0.505
15.375,-0.935,-0.515
15.378,-0.945,-0.510
15.381,-0.950,-0.505
15.383,-0.985,-0.500
15.386,-1.000,-0.515
15.389,-1.030,-0.505
15.392,-1.015,-0.470
15.394,-1.000,-0.435
15.397,-0.930,-0.385
15.400,-0.805,-0.325
15.403,-0.630,-0.290
15.406,-0.385,-0.315
15.408,-0.080,-0.375
15.411,0.270,-0.480
15.414,0.635,-0.630
15.417,0.935,-0.840
15.419,1.155,-1.060
15.422,1.235,-1.255
15.425,1.230,-1.410
15.428,1.110,-1.480
15.431,0.850,-1.480
15.433,0.440,-1.455
15.436,-0.090,-1.395
15.439,-0.585,-1.300
15.442,-0.930,-1.225
15.444,-1.100,-1.135
15.447,-1.070,-1.055
15.450,-0.950,-0.990
15.453,-0.820,-0.920
15.456,-0.745,-0.865
15.458,-0.735,-0.785
15.461,-0.775,-0.720
15.464,-0.830,-0.670
15.467,-0.870,-0.610
15.469,-0.915,-0.555
15.472,-0.925,-0.515
15.475,-0.930,-0.510
15.478,-0.945,-0.520
15.481,-0.945,-0.520
15.483,-0.955,-0.525
15.486,-0.960,-0.525
15.489,-0.960,-0.530
15.492,-0.965,-0.525
15.494,-0.970,-0.515
15.497,-0.965,-0.495
15.500,-0.945,-0.480
15.503,-0.940,-0.455
15.506,-0.935,-0.455
15.508,-0.935,-0.445
15.511,-0.950,-0.455
15.514,-0.955,-0.455
15.517,-0.965,-0.470
15.519,-0.965,-0.465
15.522,-0.980,-0.480
15.525,-1.000,-0.470
15.528,-0.990,-0.485
15.531,-0.985,-0.480
15.533,-0.965,-0.455
15.536,-0.980,-0.455
15.539,-0.975,-0.435
15.542,-0.985,-0.435
15.544,-0.955,-0.435
15.547,-0.955,-0.455
15.550,-0.960,-0.460
15.553,-0.960,-0.465
15.556,-0.975,-0.470
15.558,-0.960,-0.475
15.561,-0.960,-0.465
15.564,-0.970,-0.445
15.567,-0.935,-0.420
15.569,-0.945,-0.410
15.572,-0.925,-0.395
15.575,-0.920,-0.410
15.578,-0.925,-0.415
15.581,-0.915,-0.430
15.583,-0.920,-0.445
15.586,-0.930,-0.430
15.589,-0.940,-0.450
15.592,-0.955,-0.445
15.594,-0.935,-0.440
15.597,-0.945,-0.430
15.600,-0.905,-0.410
15.603,-0.890,-0.410
15.606,-0.865,-0.405
15.608,-0.855,-0.415
15.611,-0.885,-0.415
15.614,-0.885,-0.415
15.617,-0.895,-0.425
15.619,-0.865,-0.430
15.622,-0.870,-0.440
15.625,-0.860,-0.445
15.628,-0.850,-0.430
15.631,-0.830,-0.415
15.633,-0.820,-0.400
15.636,-0.790,-0.380
15.639,-0.780,-0.380
15.642,-0.765,-0.390
15.644,-0.760,-0.395
15.647,-0.755,-0.415
15.650,-0.745,-0.400
15.653,-0.755,-0.410
15.656,-0.745,-0.410
15.658,-0.725,-0.420
15.661,-0.715,-0.405
15.664,-0.690,-0.410
15.667,-0.655,-0.400
15.669,-0.640,-0.395
15.672,-0.620,-0.395
15.675,-0.585,-0.405
15.678,-0.575,-0.415
15.681,-0.565,-0.395
15.683,-0.540,-0.425
15.686,-0.535,-0.435
15.689,-0.510,-0.430
15.692,-0.505,-0.430
15.694,-0.490,-0.430
15.697,-0.470,-0.425
15.700,-0.425,-0.405
15.703,-0.420,-0.395
15.706,-0.395,-0.390
15.708,-0.380,-0.405
15.711,-0.375,-0.420
15.714,-0.370,-0.420
15.717,-0.380,-0.435
15.719,-0.360,-0.425
15.722,-0.355,-0.450
15.725,-0.345,-0.455
15.728,-0.345,-0.460
15.731,-0.330,-0.455
15.733,-0.315,-0.450
15.736,-0.315,-0.440
15.739,-0.315,-0.435
15.742,-0.325,-0.435
15.744,-0.355,-0.445
15.747,-0.400,-0.440
15.750,-0.425,-0.465
15.753,-0.475,-0.445
15.756,-0.480,-0.440
15.758,-0.520,-0.450
15.761,-0.550,-0.435
15.764,-0.580,-0.420
15.767,-0.610,-0.400
15.769,-0.625,-0.405
15.772,-0.655,-0.375
15.775,-0.675,-0.390
15.778,-0.695,-0.410
15.781,-0.745,-0.405
15.783,-0.765,-0.430
15.786,-0.785,-0.450
15.789,-0.800,-0.445
15.792,-0.825,-0.445
15.794,-0.835,-0.445
15.797,-0.840,-0.450
15.800,-0.860,-0.440
15.803,-0.860,-0.430
15.806,-0.840,-0.420
15.808,-0.845,-0.420
15.811,-0.855,-0.450
15.814,-0.880,-0.435
15.817,-0.890,-0.460
15.819,-0.900,-0.465
15.822,-0.905,-0.455
15.825,-0.895,-0.485
15.828,-0.910,-0.445
15.831,-0.925,-0.470
15.833,-0.905,-0.450
15.836,-0.905,-0.445
15.839,-0.895,-0.435
15.842,-0.895,-0.430
15.844,-0.900,-0.440
15.847,-0.905,-0.445
15.850,-0.905,-0.450
15.853,-0.935,-0.470
15.856,-0.950,-0.465
15.858,-0.940,-0.470
15.861,-0.935,-0.475
15.864,-0.940,-0.465
15.867,-0.920,-0.465
15.869,-0.895,-0.450
15.872,-0.895,-0.440
15.875,-0.885,-0.425
15.878,-0.880,-0.435
15.881,-0.885,-0.440
15.883,-0.895,-0.450
15.886,-0.900,-0.465
15.889,-0.900,-0.470
15.892,-0.890,-0.465
15.894,-0.895,-0.475
15.897,-0.895,-0.470
15.900,-0.880,-0.445
15.903,-0.875,-0.445
15.906,-0.865,-0.435
15.908,-0.850,-0.450
15.911,-0.845,-0.455
15.914,-0.840,-0.460
15.917,-0.855,-0.485
15.919,-0.865,-0.485
15.922,-0.860,-0.495
15.925,-0.855,-0.495
15.928,-0.855,-0.490
15.931,-0.855,-0.480
15.933,-0.840,-0.475
15.936,-0.835,-0.455
15.939,-0.820,-0.455
15.942,-0.825,-0.455
15.944,-0.830,-0.450
15.947,-0.830,-0.470
15.950,-0.845,-0.485
15.953,-0.845,-0.485
15.956,-0.865,-0.490
15.958,-0.860,-0.490
15.961,-0.855,-0.475
15.964,-0.865,-0.480
15.967,-0.845,-0.475
15.969,-0.845,-0.475
15.972,-0.840,-0.455
15.975,-0.845,-0.460
15.978,-0.850,-0.475
15.981,-0.865,-0.480
15.983,-0.875,-0.505
15.986,-0.880,-0.510
15.989,-0.890,-0.530
15.992,-0.910,-0.525
15.994,-0.900,-0.535
15.997,-0.880,-0.515
16.000,-0.880,-0.500
16.003,-0.890,-0.485
16.006,-0.880,-0.470
16.008,-0.860,-0.480
16.011,-0.870,-0.470
16.014,-0.880,-0.475
16.017,-0.885,-0.485
16.019,-0.900,-0.485
16.022,-0.905,-0.505
16.025,-0.915,-0.500
16.028,-0.915,-0.490
16.031,-0.920,-0.485
16.033,-0.905,-0.485
16.036,-0.890,-0.475
16.039,-0.900,-0.465
16.042,-0.900,-0.485
16.044,-0.895,-0.475
16.047,-0.905,-0.505
16.050,-0.900,-0.495
16.053,-0.915,-0.510
16.056,-0.925,-0.515
16.058,-0.935,-0.530
16.061,-0.920,-0.520
16.064,-0.915,-0.510
16.067,-0.910,-0.490
16.069,-0.910,-0.480
16.072,-0.895,-0.470
16.075,-0.895,-0.485
16.078,-0.900,-0.470
16.081,-0.905,-0.485
16.083,-0.905,-0.495
16.086,-0.930,-0.510
16.089,-0.950,-0.515
16.092,-0.960,-0.515
16.094,-0.945,-0.510
16.097,-0.925,-0.510
16.100,-0.920,-0.495
16.103,-0.915,-0.495
16.106,-0.900,-0.490
16.108,-0.895,-0.480
16.111,-0.900,-0.490
16.114,-0.900,-0.490
16.117,-0.915,-0.515
16.119,-0.930,-0.515
16.122,-0.930,-0.515
16.125,-0.900,-0.520
16.128,-0.915,-0.500
16.131,-0.900,-0.475
16.133,-0.865,-0.460
16.136,-0.815,-0.435
16.139,-0.785,-0.425
16.142,-0.780,-0.425
16.144,-0.755,-0.425
16.147,-0.745,-0.425
16.150,-0.745,-0.410
16.153,-0.740,-0.430
16.156,-0.730,-0.425
16.158,-0.715,-0.415
16.161,-0.685,-0.410
16.164,-0.655,-0.405
16.167,-0.600,-0.400
16.169,-0.555,-0.395
16.172,-0.525,-0.415
16.175,-0.535,-0.450
16.178,-0.555,-0.480
16.181,-0.575,-0.505
16.183,-0.585,-0.525
16.186,-0.600,-0.535
16.189,-0.605,-0.540
16.192,-0.605,-0.520
16.194,-0.620,-0.535
16.197,-0.620,-0.530
16.200,-0.645,-0.530
16.203,-0.680,-0.520
16.206,-0.725,-0.515
16.208,-0.795,-0.530
16.211,-0.855,-0.520
16.214,-0.915,-0.530
16.217,-0.910,-0.525
16.219,-0.920,-0.540
16.222,-0.935,-0.535
16.225,-0.955,-0.555
16.228,-0.950,-0.555
16.231,-0.950,-0.545
16.233,-0.935,-0.535
16.236,-0.950,-0.540
16.239,-0.945,-0.520
16.242,-0.940,-0.535
16.244,-0.945,-0.540
16.247,-0.955,-0.555
16.250,-0.970,-0.555
16.253,-0.975,-0.565
16.256,-0.970,-0.555
16.258,-0.985,-0.550
16.261,-0.975,-0.560
16.264,-0.980,-0.540
16.267,-0.965,-0.540
16.269,-0.955,-0.535
16.272,-0.965,-0.535
16.275,-0.970,-0.525
16.278,-0.970,-0.525
16.281,-0.965,-0.550
16.283,-0.970,-0.550
16.286,-0.975,-0.555
16.289,-0.965,-0.545
16.292,-0.960,-0.560
16.294,-0.970,-0.550
16.297,-0.965,-0.560
16.300,-0.950,-0.550
16.303,-0.985,-0.530
16.306,-1.000,-0.505
16.308,-1.005,-0.470
16.311,-0.995,-0.440
16.314,-0.930,-0.380
16.317,-0.795,-0.335
16.319,-0.615,-0.325
16.322,-0.370,-0.345
16.325,-0.030,-0.445
16.328,0.340,-0.575
16.331,0.725,-0.755
16.333,1.050,-0.970
16.336,1.265,-1.210
16.339,1.350,-1.395
16.342,1.340,-1.550
16.344,1.190,-1.620
16.347,0.920,-1.640
16.350,0.480,-1.615
16.353,-0.030,-1.560
16.356,-0.555,-1.485
16.358,-0.930,-1.390
16.361,-1.085,-1.285
16.364,-1.060,-1.160
16.367,-0.925,-1.040
16.369,-0.775,-0.935
16.372,-0.705,-0.860
16.375,-0.680,-0.775
16.378,-0.710,-0.710
16.381,-0.775,-0.665
16.383,-0.855,-0.615
16.386,-0.920,-0.580
16.389,-0.950,-0.565
16.392,-0.960,-0.550
