'Elapsed time','MLII','V1'
'seconds','mV','mV'
0.000,-0.875,-0.650
0.003,-0.875,-0.650
0.006,-0.875,-0.650
0.008,-0.875,-0.650
0.011,-0.875,-0.650
0.014,-0.875,-0.650
0.017,-0.875,-0.650
0.019,-0.860,-0.650
0.022,-0.850,-0.650
0.025,-0.840,-0.665
0.028,-0.840,-0.665
0.031,-0.825,-0.660
0.033,-0.830,-0.675
0.036,-0.835,-0.680
0.039,-0.845,-0.685
0.042,-0.855,-0.680
0.044,-0.850,-0.680
0.047,-0.855,-0.675
0.050,-0.850,-0.670
0.053,-0.835,-0.660
0.056,-0.825,-0.650
0.058,-0.825,-0.650
0.061,-0.840,-0.650
0.064,-0.840,-0.670
0.067,-0.825,-0.675
0.069,-0.825,-0.680
0.072,-0.830,-0.705
0.075,-0.825,-0.695
0.078,-0.835,-0.695
0.081,-0.830,-0.675
0.083,-0.835,-0.665
0.086,-0.830,-0.655
0.089,-0.820,-0.650
0.092,-0.805,-0.660
0.094,-0.805,-0.670
0.097,-0.805,-0.670
0.100,-0.810,-0.685
0.103,-0.815,-0.685
0.106,-0.820,-0.695
0.108,-0.830,-0.700
0.111,-0.830,-0.685
0.114,-0.825,-0.685
0.117,-0.840,-0.670
0.119,-0.825,-0.665
0.122,-0.800,-0.655
0.125,-0.795,-0.660
0.128,-0.795,-0.665
0.131,-0.800,-0.675
0.133,-0.805,-0.675
0.136,-0.805,-0.680
0.139,-0.805,-0.680
0.142,-0.810,-0.690
0.144,-0.810,-0.675
0.147,-0.815,-0.675
0.150,-0.815,-0.670
0.153,-0.805,-0.665
0.156,-0.800,-0.660
0.158,-0.790,-0.660
0.161,-0.800,-0.665
0.164,-0.800,-0.680
0.167,-0.805,-0.685
0.169,-0.820,-0.680
0.172,-0.825,-0.690
0.175,-0.825,-0.695
0.178,-0.820,-0.685
0.181,-0.815,-0.680
0.183,-0.805,-0.665
0.186,-0.800,-0.660
0.189,-0.795,-0.675
0.192,-0.800,-0.665
0.194,-0.785,-0.680
0.197,-0.800,-0.670
0.200,-0.795,-0.685
0.203,-0.800,-0.690
0.206,-0.810,-0.695
0.208,-0.810,-0.695
0.211,-0.810,-0.685
0.214,-0.815,-0.685
0.217,-0.815,-0.665
0.219,-0.800,-0.670
0.222,-0.785,-0.655
0.225,-0.790,-0.665
0.228,-0.780,-0.670
0.231,-0.795,-0.670
0.233,-0.795,-0.680
0.236,-0.795,-0.690
0.239,-0.800,-0.700
0.242,-0.805,-0.695
0.244,-0.815,-0.695
0.247,-0.805,-0.690
0.250,-0.800,-0.670
0.253,-0.790,-0.675
0.256,-0.795,-0.670
0.258,-0.790,-0.660
0.261,-0.785,-0.670
0.264,-0.780,-0.665
0.267,-0.770,-0.670
0.269,-0.775,-0.675
0.272,-0.785,-0.665
0.275,-0.795,-0.670
0.278,-0.795,-0.660
0.281,-0.775,-0.665
0.283,-0.775,-0.655
0.286,-0.755,-0.665
0.289,-0.750,-0.660
0.292,-0.740,-0.680
0.294,-0.740,-0.700
0.297,-0.740,-0.715
0.300,-0.745,-0.755
0.303,-0.750,-0.775
0.306,-0.740,-0.790
0.308,-0.745,-0.795
0.311,-0.750,-0.775
0.314,-0.745,-0.760
0.317,-0.745,-0.745
0.319,-0.735,-0.730
0.322,-0.730,-0.725
0.325,-0.720,-0.725
0.328,-0.730,-0.740
0.331,-0.720,-0.740
0.333,-0.730,-0.740
0.336,-0.715,-0.745
0.339,-0.720,-0.740
0.342,-0.740,-0.725
0.344,-0.755,-0.710
0.347,-0.735,-0.690
0.350,-0.735,-0.675
0.353,-0.735,-0.670
0.356,-0.735,-0.655
0.358,-0.730,-0.660
0.361,-0.735,-0.670
0.364,-0.750,-0.670
0.367,-0.755,-0.690
0.369,-0.770,-0.680
0.372,-0.780,-0.685
0.375,-0.795,-0.700
0.378,-0.800,-0.695
0.381,-0.800,-0.685
0.383,-0.790,-0.685
0.386,-0.770,-0.670
0.389,-0.775,-0.665
0.392,-0.770,-0.670
0.394,-0.765,-0.665
0.397,-0.755,-0.660
0.400,-0.765,-0.660
0.403,-0.765,-0.650
0.406,-0.775,-0.640
0.408,-0.750,-0.655
0.411,-0.745,-0.670
0.414,-0.720,-0.725
0.417,-0.705,-0.810
0.419,-0.655,-0.935
0.422,-0.590,-1.105
0.425,-0.505,-1.285
0.428,-0.400,-1.500
0.431,-0.290,-1.680
0.433,-0.165,-1.810
0.436,-0.050,-1.875
0.439,0.045,-1.855
0.442,0.115,-1.745
0.444,0.155,-1.595
0.447,0.195,-1.425
0.450,0.210,-1.255
0.453,0.265,-1.150
0.456,0.285,-1.035
0.458,0.295,-0.950
0.461,0.245,-0.885
0.464,0.180,-0.820
0.467,0.105,-0.760
0.469,0.015,-0.715
0.472,-0.080,-0.695
0.475,-0.180,-0.675
0.478,-0.280,-0.670
0.481,-0.370,-0.660
0.483,-0.445,-0.640
0.486,-0.515,-0.630
0.489,-0.545,-0.625
0.492,-0.590,-0.625
0.494,-0.650,-0.620
0.497,-0.665,-0.605
0.500,-0.685,-0.620
0.503,-0.715,-0.630
0.506,-0.725,-0.630
0.508,-0.715,-0.640
0.511,-0.720,-0.625
0.514,-0.720,-0.615
0.517,-0.710,-0.610
0.519,-0.715,-0.600
0.522,-0.695,-0.590
0.525,-0.690,-0.590
0.528,-0.690,-0.605
0.531,-0.690,-0.605
0.533,-0.680,-0.605
0.536,-0.685,-0.610
0.539,-0.695,-0.620
0.542,-0.705,-0.620
0.544,-0.700,-0.615
0.547,-0.700,-0.600
0.550,-0.695,-0.610
0.553,-0.685,-0.595
0.556,-0.680,-0.590
0.558,-0.665,-0.585
0.561,-0.665,-0.585
0.564,-0.660,-0.600
0.567,-0.665,-0.605
0.569,-0.665,-0.605
0.572,-0.670,-0.625
0.575,-0.670,-0.620
0.578,-0.670,-0.615
0.581,-0.680,-0.605
0.583,-0.655,-0.595
0.586,-0.655,-0.605
0.589,-0.655,-0.580
0.592,-0.640,-0.580
0.594,-0.645,-0.595
0.597,-0.640,-0.605
0.600,-0.640,-0.610
0.603,-0.655,-0.620
0.606,-0.655,-0.615
0.608,-0.670,-0.625
0.611,-0.680,-0.620
0.614,-0.670,-0.620
0.617,-0.675,-0.605
0.619,-0.655,-0.605
0.622,-0.665,-0.595
0.625,-0.650,-0.595
0.628,-0.640,-0.600
0.631,-0.635,-0.600
0.633,-0.640,-0.605
0.636,-0.650,-0.620
0.639,-0.655,-0.615
0.642,-0.640,-0.625
0.644,-0.650,-0.625
0.647,-0.655,-0.615
0.650,-0.640,-0.610
0.653,-0.635,-0.600
0.656,-0.625,-0.600
0.658,-0.615,-0.605
0.661,-0.620,-0.610
0.664,-0.620,-0.600
0.667,-0.615,-0.615
0.669,-0.625,-0.620
0.672,-0.625,-0.630
0.675,-0.625,-0.625
0.678,-0.630,-0.620
0.681,-0.630,-0.630
0.683,-0.610,-0.610
0.686,-0.595,-0.610
0.689,-0.585,-0.595
0.692,-0.575,-0.595
0.694,-0.580,-0.595
0.697,-0.570,-0.600
0.700,-0.580,-0.620
0.703,-0.570,-0.625
0.706,-0.580,-0.640
0.708,-0.580,-0.635
0.711,-0.585,-0.640
0.714,-0.590,-0.620
0.717,-0.580,-0.620
0.719,-0.580,-0.620
0.722,-0.570,-0.625
0.725,-0.565,-0.620
0.728,-0.575,-0.620
0.731,-0.575,-0.625
0.733,-0.575,-0.635
0.736,-0.590,-0.635
0.739,-0.600,-0.650
0.742,-0.615,-0.660
0.744,-0.615,-0.650
0.747,-0.605,-0.655
0.750,-0.625,-0.645
0.753,-0.605,-0.630
0.756,-0.615,-0.630
0.758,-0.615,-0.620
0.761,-0.620,-0.635
0.764,-0.630,-0.645
0.767,-0.640,-0.645
0.769,-0.645,-0.655
0.772,-0.670,-0.660
0.775,-0.685,-0.675
0.778,-0.690,-0.660
0.781,-0.695,-0.665
0.783,-0.710,-0.650
0.786,-0.715,-0.645
0.789,-0.725,-0.640
0.792,-0.735,-0.640
0.794,-0.725,-0.640
0.797,-0.745,-0.640
0.800,-0.755,-0.660
0.803,-0.755,-0.660
0.806,-0.760,-0.675
0.808,-0.775,-0.675
0.811,-0.785,-0.675
0.814,-0.780,-0.675
0.817,-0.780,-0.665
0.819,-0.765,-0.660
0.822,-0.765,-0.650
0.825,-0.755,-0.645
0.828,-0.760,-0.645
0.831,-0.755,-0.650
0.833,-0.770,-0.660
0.836,-0.775,-0.670
0.839,-0.790,-0.675
0.842,-0.790,-0.675
0.844,-0.790,-0.670
0.847,-0.790,-0.660
0.850,-0.780,-0.650
0.853,-0.775,-0.650
0.856,-0.780,-0.645
0.858,-0.765,-0.640
0.861,-0.765,-0.645
0.864,-0.765,-0.655
0.867,-0.770,-0.670
0.869,-0.795,-0.660
0.872,-0.790,-0.665
0.875,-0.795,-0.670
0.878,-0.800,-0.670
0.881,-0.800,-0.655
0.883,-0.795,-0.645
0.886,-0.790,-0.645
0.889,-0.795,-0.640
0.892,-0.790,-0.625
0.894,-0.800,-0.640
0.897,-0.800,-0.650
0.900,-0.805,-0.660
0.903,-0.805,-0.665
0.906,-0.820,-0.660
0.908,-0.825,-0.675
0.911,-0.840,-0.670
0.914,-0.835,-0.665
0.917,-0.830,-0.660
0.919,-0.825,-0.650
0.922,-0.825,-0.635
0.925,-0.820,-0.630
0.928,-0.825,-0.645
0.931,-0.830,-0.655
0.933,-0.830,-0.665
0.936,-0.835,-0.655
0.939,-0.840,-0.670
0.942,-0.850,-0.680
0.944,-0.855,-0.670
0.947,-0.855,-0.675
0.950,-0.845,-0.660
0.953,-0.845,-0.655
0.956,-0.850,-0.660
0.958,-0.830,-0.650
0.961,-0.830,-0.655
0.964,-0.840,-0.665
0.967,-0.835,-0.670
0.969,-0.850,-0.675
0.972,-0.860,-0.695
0.975,-0.855,-0.685
0.978,-0.865,-0.690
0.981,-0.870,-0.675
0.983,-0.855,-0.680
0.986,-0.855,-0.665
0.989,-0.845,-0.660
0.992,-0.850,-0.660
0.994,-0.855,-0.670
0.997,-0.850,-0.675
1.000,-0.860,-0.675
1.003,-0.840,-0.680
1.006,-0.860,-0.690
1.008,-0.865,-0.700
1.011,-0.865,-0.695
1.014,-0.870,-0.685
1.017,-0.855,-0.675
1.019,-0.840,-0.665
1.022,-0.840,-0.670
1.025,-0.835,-0.660
1.028,-0.840,-0.665
1.031,-0.840,-0.680
1.033,-0.840,-0.690
1.036,-0.835,-0.685
1.039,-0.855,-0.690
1.042,-0.860,-0.695
1.044,-0.850,-0.700
1.047,-0.855,-0.690
1.050,-0.840,-0.685
1.053,-0.835,-0.670
1.056,-0.830,-0.670
1.058,-0.820,-0.665
1.061,-0.825,-0.670
1.064,-0.830,-0.675
1.067,-0.835,-0.685
1.069,-0.835,-0.700
1.072,-0.830,-0.700
1.075,-0.850,-0.695
1.078,-0.865,-0.705
1.081,-0.850,-0.700
1.083,-0.840,-0.685
1.086,-0.835,-0.695
1.089,-0.820,-0.675
1.092,-0.815,-0.680
1.094,-0.815,-0.690
1.097,-0.805,-0.685
1.100,-0.820,-0.695
1.103,-0.825,-0.705
1.106,-0.825,-0.710
1.108,-0.830,-0.710
1.111,-0.830,-0.705
1.114,-0.825,-0.705
1.117,-0.825,-0.685
1.119,-0.820,-0.675
1.122,-0.820,-0.680
1.125,-0.815,-0.670
1.128,-0.805,-0.675
1.131,-0.805,-0.680
1.133,-0.815,-0.695
1.136,-0.825,-0.705
1.139,-0.835,-0.705
1.142,-0.840,-0.705
1.144,-0.840,-0.715
1.147,-0.835,-0.700
1.150,-0.835,-0.685
1.153,-0.830,-0.680
1.156,-0.825,-0.680
1.158,-0.815,-0.680
1.161,-0.810,-0.675
1.164,-0.805,-0.690
1.167,-0.820,-0.690
1.169,-0.825,-0.695
1.172,-0.830,-0.715
1.175,-0.825,-0.705
1.178,-0.830,-0.715
1.181,-0.825,-0.705
1.183,-0.825,-0.690
1.186,-0.815,-0.690
1.189,-0.815,-0.680
1.192,-0.790,-0.675
1.194,-0.800,-0.680
1.197,-0.810,-0.680
1.200,-0.815,-0.685
1.203,-0.805,-0.695
1.206,-0.820,-0.705
1.208,-0.815,-0.710
1.211,-0.825,-0.705
1.214,-0.825,-0.700
1.217,-0.825,-0.700
1.219,-0.815,-0.675
1.222,-0.800,-0.675
1.225,-0.800,-0.675
1.228,-0.810,-0.685
1.231,-0.805,-0.695
1.233,-0.810,-0.690
1.236,-0.820,-0.695
1.239,-0.815,-0.695
1.242,-0.810,-0.700
1.244,-0.800,-0.685
1.247,-0.795,-0.680
1.250,-0.790,-0.670
1.253,-0.770,-0.670
1.256,-0.760,-0.685
1.258,-0.745,-0.685
1.261,-0.745,-0.700
1.264,-0.750,-0.720
1.267,-0.755,-0.750
1.269,-0.770,-0.770
1.272,-0.780,-0.775
1.275,-0.785,-0.800
1.278,-0.775,-0.800
1.281,-0.760,-0.785
1.283,-0.760,-0.770
1.286,-0.755,-0.750
1.289,-0.740,-0.740
1.292,-0.735,-0.745
1.294,-0.745,-0.745
1.297,-0.750,-0.755
1.300,-0.750,-0.760
1.303,-0.755,-0.760
1.306,-0.760,-0.760
1.308,-0.755,-0.765
1.311,-0.750,-0.745
1.314,-0.765,-0.730
1.317,-0.765,-0.705
1.319,-0.760,-0.690
1.322,-0.760,-0.675
1.325,-0.760,-0.665
1.328,-0.775,-0.680
1.331,-0.780,-0.680
1.333,-0.785,-0.705
1.336,-0.800,-0.720
1.339,-0.805,-0.715
1.342,-0.815,-0.715
1.344,-0.810,-0.725
1.347,-0.820,-0.715
1.350,-0.810,-0.695
1.353,-0.800,-0.695
1.356,-0.805,-0.690
1.358,-0.785,-0.695
1.361,-0.790,-0.700
1.364,-0.785,-0.690
1.367,-0.800,-0.685
1.369,-0.800,-0.695
1.372,-0.800,-0.685
1.375,-0.800,-0.670
1.378,-0.805,-0.675
1.381,-0.790,-0.665
1.383,-0.780,-0.680
1.386,-0.760,-0.710
1.389,-0.730,-0.770
1.392,-0.700,-0.890
1.394,-0.655,-1.055
1.397,-0.605,-1.250
1.400,-0.495,-1.470
1.403,-0.380,-1.695
1.406,-0.260,-1.855
1.408,-0.155,-1.955
1.411,-0.060,-1.930
1.414,0.015,-1.815
1.417,0.055,-1.645
1.419,0.095,-1.450
1.422,0.140,-1.270
1.425,0.180,-1.125
1.428,0.200,-1.020
1.431,0.180,-0.935
1.433,0.135,-0.865
1.436,0.070,-0.810
1.439,-0.010,-0.750
1.442,-0.105,-0.725
1.444,-0.225,-0.705
1.447,-0.315,-0.690
1.450,-0.405,-0.665
1.453,-0.500,-0.660
1.456,-0.560,-0.655
1.458,-0.615,-0.635
1.461,-0.640,-0.625
1.464,-0.685,-0.635
1.467,-0.720,-0.625
1.469,-0.745,-0.640
1.472,-0.760,-0.640
1.475,-0.770,-0.640
1.478,-0.780,-0.645
1.481,-0.780,-0.635
1.483,-0.770,-0.610
1.486,-0.760,-0.615
1.489,-0.750,-0.600
1.492,-0.735,-0.605
1.494,-0.725,-0.605
1.497,-0.735,-0.610
1.500,-0.745,-0.620
1.503,-0.750,-0.620
1.506,-0.750,-0.625
1.508,-0.755,-0.620
1.511,-0.750,-0.625
1.514,-0.750,-0.615
1.517,-0.760,-0.610
1.519,-0.740,-0.605
1.522,-0.740,-0.590
1.525,-0.720,-0.585
1.528,-0.710,-0.600
1.531,-0.710,-0.600
1.533,-0.725,-0.605
1.536,-0.725,-0.615
1.539,-0.730,-0.620
1.542,-0.725,-0.625
1.544,-0.745,-0.625
1.547,-0.725,-0.625
1.550,-0.745,-0.605
1.553,-0.720,-0.600
1.556,-0.715,-0.590
1.558,-0.700,-0.580
1.561,-0.695,-0.580
1.564,-0.695,-0.590
1.567,-0.705,-0.605
1.569,-0.715,-0.600
1.572,-0.715,-0.620
1.575,-0.710,-0.625
1.578,-0.720,-0.620
1.581,-0.720,-0.625
1.583,-0.715,-0.610
1.586,-0.715,-0.600
1.589,-0.700,-0.595
1.592,-0.680,-0.590
1.594,-0.690,-0.600
1.597,-0.695,-0.605
1.600,-0.680,-0.600
1.603,-0.685,-0.615
1.606,-0.700,-0.610
1.608,-0.705,-0.625
1.611,-0.695,-0.620
1.614,-0.690,-0.615
1.617,-0.685,-0.600
1.619,-0.680,-0.590
1.622,-0.675,-0.580
1.625,-0.650,-0.585
1.628,-0.655,-0.595
1.631,-0.655,-0.590
1.633,-0.675,-0.595
1.636,-0.660,-0.615
1.639,-0.660,-0.620
1.642,-0.660,-0.625
1.644,-0.655,-0.630
1.647,-0.665,-0.610
1.650,-0.660,-0.600
1.653,-0.645,-0.595
1.656,-0.635,-0.590
1.658,-0.635,-0.590
1.661,-0.635,-0.585
1.664,-0.620,-0.595
1.667,-0.625,-0.615
1.669,-0.625,-0.620
1.672,-0.635,-0.615
1.675,-0.635,-0.640
1.678,-0.645,-0.630
1.681,-0.650,-0.630
1.683,-0.645,-0.615
1.686,-0.630,-0.615
1.689,-0.620,-0.610
1.692,-0.615,-0.610
1.694,-0.635,-0.610
1.697,-0.640,-0.625
1.700,-0.640,-0.630
1.703,-0.645,-0.650
1.706,-0.660,-0.650
1.708,-0.680,-0.660
1.711,-0.675,-0.650
1.714,-0.675,-0.660
1.717,-0.685,-0.645
1.719,-0.690,-0.650
1.722,-0.690,-0.640
1.725,-0.685,-0.655
1.728,-0.690,-0.650
1.731,-0.680,-0.650
1.733,-0.710,-0.670
1.736,-0.720,-0.665
1.739,-0.715,-0.670
1.742,-0.750,-0.690
1.744,-0.765,-0.690
1.747,-0.760,-0.675
1.750,-0.765,-0.680
1.753,-0.775,-0.680
1.756,-0.780,-0.660
1.758,-0.785,-0.655
1.761,-0.785,-0.660
1.764,-0.780,-0.665
1.767,-0.785,-0.680
1.769,-0.795,-0.685
1.772,-0.820,-0.685
1.775,-0.825,-0.695
1.778,-0.825,-0.690
1.781,-0.835,-0.675
1.783,-0.835,-0.675
1.786,-0.825,-0.675
1.789,-0.825,-0.665
1.792,-0.815,-0.660
1.794,-0.815,-0.670
1.797,-0.815,-0.660
1.800,-0.810,-0.675
1.803,-0.840,-0.680
1.806,-0.850,-0.685
1.808,-0.845,-0.685
1.811,-0.850,-0.680
1.814,-0.855,-0.680
1.817,-0.850,-0.665
1.819,-0.845,-0.665
1.822,-0.845,-0.650
1.825,-0.825,-0.650
1.828,-0.825,-0.650
1.831,-0.820,-0.655
1.833,-0.820,-0.660
1.836,-0.845,-0.660
1.839,-0.850,-0.660
1.842,-0.850,-0.665
1.844,-0.870,-0.655
1.847,-0.870,-0.645
1.850,-0.865,-0.625
1.853,-0.860,-0.620
1.856,-0.860,-0.610
1.858,-0.840,-0.625
1.861,-0.845,-0.635
1.864,-0.845,-0.660
1.867,-0.850,-0.660
1.869,-0.855,-0.680
1.872,-0.865,-0.655
1.875,-0.870,-0.660
1.878,-0.875,-0.655
1.881,-0.875,-0.655
1.883,-0.880,-0.660
1.886,-0.875,-0.640
1.889,-0.870,-0.640
1.892,-0.860,-0.635
1.894,-0.860,-0.635
1.897,-0.870,-0.620
1.900,-0.860,-0.640
1.903,-0.875,-0.630
1.906,-0.885,-0.630
1.908,-0.890,-0.645
1.911,-0.895,-0.650
1.914,-0.900,-0.650
1.917,-0.890,-0.645
1.919,-0.895,-0.635
1.922,-0.885,-0.620
1.925,-0.875,-0.605
1.928,-0.885,-0.605
1.931,-0.875,-0.620
1.933,-0.885,-0.645
1.936,-0.895,-0.665
1.939,-0.895,-0.685
1.942,-0.900,-0.700
1.944,-0.905,-0.700
1.947,-0.900,-0.700
1.950,-0.895,-0.670
1.953,-0.895,-0.655
1.956,-0.875,-0.645
1.958,-0.875,-0.630
1.961,-0.875,-0.625
1.964,-0.865,-0.620
1.967,-0.870,-0.615
1.969,-0.870,-0.610
1.972,-0.880,-0.625
1.975,-0.890,-0.640
1.978,-0.895,-0.675
1.981,-0.890,-0.690
1.983,-0.890,-0.720
1.986,-0.890,-0.720
1.989,-0.885,-0.710
1.992,-0.870,-0.700
1.994,-0.865,-0.685
1.997,-0.865,-0.680
2.000,-0.880,-0.680
2.003,-0.880,-0.680
2.006,-0.885,-0.705
2.008,-0.895,-0.695
2.011,-0.905,-0.690
2.014,-0.910,-0.675
2.017,-0.905,-0.665
2.019,-0.885,-0.655
2.022,-0.895,-0.655
2.025,-0.865,-0.650
2.028,-0.865,-0.660
2.031,-0.860,-0.660
2.033,-0.875,-0.660
2.036,-0.885,-0.665
2.039,-0.900,-0.680
2.042,-0.905,-0.685
2.044,-0.900,-0.690
2.047,-0.890,-0.675
2.050,-0.895,-0.685
2.053,-0.900,-0.670
2.056,-0.895,-0.660
2.058,-0.895,-0.660
2.061,-0.895,-0.660
2.064,-0.895,-0.655
2.067,-0.895,-0.640
2.069,-0.890,-0.655
2.072,-0.915,-0.670
2.075,-0.905,-0.665
2.078,-0.910,-0.670
2.081,-0.915,-0.675
2.083,-0.920,-0.660
2.086,-0.920,-0.665
2.089,-0.915,-0.650
2.092,-0.920,-0.650
2.094,-0.910,-0.650
2.097,-0.910,-0.655
2.100,-0.920,-0.660
2.103,-0.920,-0.650
2.106,-0.945,-0.635
2.108,-0.955,-0.635
2.111,-0.960,-0.625
2.114,-0.970,-0.610
2.117,-0.970,-0.610
2.119,-0.980,-0.620
2.122,-0.975,-0.625
2.125,-0.980,-0.645
2.128,-0.970,-0.655
2.131,-0.955,-0.670
2.133,-0.960,-0.680
2.136,-0.975,-0.665
2.139,-0.980,-0.625
2.142,-0.990,-0.600
2.144,-0.990,-0.600
2.147,-1.000,-0.630
2.150,-0.995,-0.675
2.153,-0.995,-0.730
2.156,-0.985,-0.740
2.158,-0.990,-0.720
2.161,-0.995,-0.690
2.164,-1.005,-0.660
2.167,-1.005,-0.625
2.169,-1.005,-0.610
2.172,-1.020,-0.645
2.175,-1.020,-0.680
2.178,-1.020,-0.730
2.181,-1.025,-0.745
2.183,-1.020,-0.740
2.186,-1.025,-0.720
2.189,-1.010,-0.690
2.192,-1.010,-0.660
2.194,-1.010,-0.650
2.197,-0.995,-0.650
2.200,-1.000,-0.655
2.203,-1.000,-0.670
2.206,-1.015,-0.680
2.208,-1.020,-0.685
2.211,-1.040,-0.690
2.214,-1.035,-0.675
2.217,-1.030,-0.675
2.219,-1.030,-0.660
2.222,-1.020,-0.645
2.225,-1.005,-0.635
2.228,-1.005,-0.625
2.231,-1.010,-0.615
2.233,-1.025,-0.605
2.236,-1.030,-0.595
2.239,-1.020,-0.605
2.242,-1.025,-0.615
2.244,-1.015,-0.660
2.247,-1.010,-0.675
2.250,-1.000,-0.680
2.253,-0.995,-0.650
2.256,-0.995,-0.615
2.258,-0.980,-0.630
2.261,-0.965,-0.690
2.264,-0.965,-0.765
2.267,-0.980,-0.830
2.269,-0.990,-0.870
2.272,-0.995,-0.850
2.275,-1.005,-0.815
2.278,-1.010,-0.775
2.281,-0.995,-0.740
2.283,-0.995,-0.710
2.286,-0.995,-0.715
2.289,-0.995,-0.710
2.292,-0.990,-0.715
2.294,-0.995,-0.720
2.297,-0.990,-0.725
2.300,-0.995,-0.725
2.303,-1.000,-0.720
2.306,-0.990,-0.710
2.308,-1.000,-0.705
2.311,-1.005,-0.700
2.314,-1.005,-0.680
2.317,-1.015,-0.670
2.319,-1.025,-0.685
2.322,-1.015,-0.680
2.325,-1.035,-0.695
2.328,-1.035,-0.680
2.331,-1.035,-0.690
2.333,-1.055,-0.690
2.336,-1.070,-0.705
2.339,-1.080,-0.690
2.342,-1.080,-0.680
2.344,-1.075,-0.695
2.347,-1.065,-0.705
2.350,-1.065,-0.695
2.353,-1.060,-0.700
2.356,-1.060,-0.700
2.358,-1.060,-0.685
2.361,-1.060,-0.685
2.364,-1.050,-0.680
2.367,-1.055,-0.670
2.369,-1.055,-0.655
2.372,-1.050,-0.660
2.375,-1.060,-0.640
2.378,-1.050,-0.635
2.381,-1.050,-0.665
2.383,-1.030,-0.710
2.386,-1.010,-0.760
2.389,-0.990,-0.855
2.392,-0.935,-0.965
2.394,-0.865,-1.115
2.397,-0.800,-1.305
2.400,-0.700,-1.495
2.403,-0.625,-1.675
2.406,-0.535,-1.840
2.408,-0.445,-1.910
2.411,-0.360,-1.915
2.414,-0.285,-1.820
2.417,-0.235,-1.660
2.419,-0.190,-1.480
2.422,-0.155,-1.315
2.425,-0.105,-1.185
2.428,-0.080,-1.085
2.431,-0.070,-1.000
2.433,-0.120,-0.915
2.436,-0.175,-0.840
2.439,-0.250,-0.770
2.442,-0.355,-0.720
2.444,-0.485,-0.700
2.447,-0.600,-0.670
2.450,-0.705,-0.665
2.453,-0.800,-0.645
2.456,-0.870,-0.635
2.458,-0.920,-0.630
2.461,-0.970,-0.635
2.464,-0.985,-0.630
2.467,-1.010,-0.635
2.469,-1.045,-0.625
2.472,-1.055,-0.640
2.475,-1.060,-0.630
2.478,-1.075,-0.665
2.481,-1.070,-0.645
2.483,-1.040,-0.635
2.486,-1.035,-0.615
2.489,-1.020,-0.610
2.492,-1.020,-0.600
2.494,-1.005,-0.605
2.497,-1.015,-0.605
2.500,-1.015,-0.600
2.503,-1.010,-0.590
2.506,-1.015,-0.595
2.508,-1.030,-0.615
2.511,-1.020,-0.640
2.514,-1.020,-0.665
2.517,-1.015,-0.660
2.519,-1.005,-0.645
2.522,-0.990,-0.630
2.525,-0.980,-0.610
2.528,-0.985,-0.590
2.531,-0.980,-0.590
2.533,-0.975,-0.590
2.536,-0.995,-0.625
2.539,-0.995,-0.655
2.542,-0.985,-0.670
2.544,-0.990,-0.655
2.547,-0.985,-0.645
2.550,-0.980,-0.615
2.553,-0.975,-0.620
2.556,-0.970,-0.605
2.558,-0.955,-0.600
2.561,-0.945,-0.600
2.564,-0.940,-0.615
2.567,-0.945,-0.630
2.569,-0.950,-0.630
2.572,-0.950,-0.640
2.575,-0.970,-0.635
2.578,-0.985,-0.635
2.581,-0.990,-0.625
2.583,-0.965,-0.625
2.586,-0.960,-0.605
2.589,-0.945,-0.605
2.592,-0.940,-0.615
2.594,-0.935,-0.615
2.597,-0.940,-0.620
2.600,-0.940,-0.635
2.603,-0.930,-0.645
2.606,-0.930,-0.650
2.608,-0.930,-0.645
2.611,-0.945,-0.635
2.614,-0.930,-0.605
2.617,-0.930,-0.595
2.619,-0.920,-0.605
2.622,-0.915,-0.590
2.625,-0.910,-0.575
2.628,-0.905,-0.590
2.631,-0.895,-0.600
2.633,-0.900,-0.615
2.636,-0.900,-0.635
2.639,-0.905,-0.655
2.642,-0.910,-0.655
2.644,-0.910,-0.640
2.647,-0.900,-0.630
2.650,-0.895,-0.625
2.653,-0.875,-0.635
2.656,-0.875,-0.630
2.658,-0.855,-0.630
2.661,-0.850,-0.620
2.664,-0.850,-0.625
2.667,-0.855,-0.620
2.669,-0.850,-0.625
2.672,-0.855,-0.630
2.675,-0.860,-0.640
2.678,-0.860,-0.665
2.681,-0.855,-0.660
2.683,-0.855,-0.645
2.686,-0.850,-0.645
2.689,-0.850,-0.630
2.692,-0.845,-0.630
2.694,-0.830,-0.645
2.697,-0.840,-0.645
2.700,-0.840,-0.645
2.703,-0.845,-0.660
2.706,-0.855,-0.680
2.708,-0.865,-0.665
2.711,-0.875,-0.675
2.714,-0.880,-0.650
2.717,-0.870,-0.655
2.719,-0.865,-0.650
2.722,-0.860,-0.640
2.725,-0.860,-0.640
2.728,-0.865,-0.665
2.731,-0.885,-0.665
2.733,-0.885,-0.670
2.736,-0.885,-0.660
2.739,-0.905,-0.660
2.742,-0.925,-0.665
2.744,-0.915,-0.680
2.747,-0.915,-0.680
2.750,-0.930,-0.675
2.753,-0.945,-0.665
2.756,-0.950,-0.655
2.758,-0.945,-0.640
2.761,-0.950,-0.660
2.764,-0.955,-0.675
2.767,-0.955,-0.685
2.769,-0.965,-0.710
2.772,-0.985,-0.705
2.775,-1.000,-0.700
2.778,-0.990,-0.690
2.781,-1.000,-0.655
2.783,-0.990,-0.655
2.786,-0.985,-0.655
2.789,-0.975,-0.650
2.792,-0.970,-0.665
2.794,-0.980,-0.690
2.797,-0.970,-0.705
2.800,-0.975,-0.690
2.803,-0.985,-0.680
2.806,-1.010,-0.675
2.808,-1.010,-0.685
2.811,-1.000,-0.685
2.814,-0.985,-0.685
2.817,-0.980,-0.690
2.819,-0.970,-0.680
2.822,-0.965,-0.660
2.825,-0.955,-0.660
2.828,-0.965,-0.665
2.831,-0.970,-0.680
2.833,-0.980,-0.685
2.836,-0.990,-0.665
2.839,-0.990,-0.680
2.842,-0.995,-0.690
2.844,-1.005,-0.680
2.847,-1.000,-0.675
2.850,-0.995,-0.655
2.853,-0.990,-0.640
2.856,-0.980,-0.630
2.858,-0.970,-0.635
2.861,-0.975,-0.655
2.864,-0.985,-0.650
2.867,-1.000,-0.660
2.869,-1.010,-0.680
2.872,-1.015,-0.670
2.875,-1.015,-0.675
2.878,-1.015,-0.675
2.881,-1.015,-0.660
2.883,-1.015,-0.655
2.886,-1.010,-0.655
2.889,-1.005,-0.640
2.892,-1.000,-0.635
2.894,-1.000,-0.640
2.897,-1.005,-0.650
2.900,-1.005,-0.655
2.903,-1.010,-0.660
2.906,-1.020,-0.670
2.908,-1.025,-0.670
2.911,-1.030,-0.665
2.914,-1.025,-0.670
2.917,-1.020,-0.665
2.919,-1.010,-0.675
2.922,-1.010,-0.665
2.925,-1.000,-0.670
2.928,-0.995,-0.670
2.931,-0.995,-0.675
2.933,-1.010,-0.670
2.936,-1.010,-0.675
2.939,-1.015,-0.680
2.942,-1.015,-0.675
2.944,-1.015,-0.690
2.947,-1.015,-0.670
2.950,-1.010,-0.655
2.953,-1.000,-0.655
2.956,-0.995,-0.650
2.958,-1.000,-0.660
2.961,-1.000,-0.660
2.964,-0.995,-0.665
2.967,-1.000,-0.670
2.969,-1.005,-0.685
2.972,-1.005,-0.685
2.975,-1.035,-0.695
2.978,-1.025,-0.695
2.981,-1.015,-0.680
2.983,-1.010,-0.675
2.986,-0.995,-0.670
2.989,-0.985,-0.665
2.992,-0.965,-0.670
2.994,-0.975,-0.695
2.997,-0.975,-0.690
3.000,-0.985,-0.710
3.003,-0.985,-0.715
3.006,-1.000,-0.705
3.008,-1.000,-0.695
3.011,-0.985,-0.690
3.014,-0.975,-0.685
3.017,-0.965,-0.675
3.019,-0.975,-0.665
3.022,-0.950,-0.665
3.025,-0.955,-0.680
3.028,-0.950,-0.680
3.031,-0.950,-0.680
3.033,-0.955,-0.685
3.036,-0.955,-0.690
3.039,-0.965,-0.705
3.042,-0.965,-0.700
3.044,-0.975,-0.710
3.047,-0.965,-0.685
3.050,-0.955,-0.675
3.053,-0.945,-0.670
3.056,-0.935,-0.675
3.058,-0.925,-0.685
3.061,-0.950,-0.695
3.064,-0.945,-0.680
3.067,-0.930,-0.680
3.069,-0.935,-0.695
3.072,-0.945,-0.695
3.075,-0.970,-0.710
3.078,-0.960,-0.705
3.081,-0.950,-0.705
3.083,-0.955,-0.690
3.086,-0.950,-0.685
3.089,-0.930,-0.690
3.092,-0.925,-0.700
3.094,-0.925,-0.695
3.097,-0.915,-0.695
3.100,-0.915,-0.705
3.103,-0.930,-0.700
3.106,-0.940,-0.690
3.108,-0.940,-0.685
3.111,-0.945,-0.680
3.114,-0.935,-0.690
3.117,-0.930,-0.695
3.119,-0.925,-0.695
3.122,-0.925,-0.690
3.125,-0.915,-0.690
3.128,-0.915,-0.690
3.131,-0.910,-0.690
3.133,-0.915,-0.690
3.136,-0.925,-0.700
3.139,-0.955,-0.705
3.142,-0.945,-0.710
3.144,-0.945,-0.705
3.147,-0.945,-0.700
3.150,-0.930,-0.695
3.153,-0.915,-0.700
3.156,-0.895,-0.700
3.158,-0.895,-0.695
3.161,-0.895,-0.700
3.164,-0.910,-0.695
3.167,-0.900,-0.690
3.169,-0.915,-0.710
3.172,-0.915,-0.710
3.175,-0.925,-0.710
3.178,-0.920,-0.715
3.181,-0.915,-0.700
3.183,-0.915,-0.695
3.186,-0.895,-0.680
3.189,-0.890,-0.675
3.192,-0.880,-0.675
3.194,-0.885,-0.670
3.197,-0.880,-0.660
3.200,-0.870,-0.680
3.203,-0.875,-0.690
3.206,-0.865,-0.700
3.208,-0.855,-0.705
3.211,-0.850,-0.715
3.214,-0.845,-0.720
3.217,-0.840,-0.715
3.219,-0.845,-0.710
3.222,-0.835,-0.715
3.225,-0.840,-0.730
3.228,-0.825,-0.765
3.231,-0.825,-0.780
3.233,-0.830,-0.795
3.236,-0.820,-0.795
3.239,-0.825,-0.790
3.242,-0.835,-0.780
3.244,-0.835,-0.770
3.247,-0.830,-0.750
3.250,-0.830,-0.740
3.253,-0.815,-0.730
3.256,-0.820,-0.720
3.258,-0.805,-0.715
3.261,-0.810,-0.730
3.264,-0.805,-0.730
3.267,-0.805,-0.730
3.269,-0.820,-0.720
3.272,-0.830,-0.725
3.275,-0.845,-0.720
3.278,-0.855,-0.715
3.281,-0.855,-0.715
3.283,-0.860,-0.700
3.286,-0.860,-0.695
3.289,-0.850,-0.685
3.292,-0.860,-0.685
3.294,-0.860,-0.690
3.297,-0.850,-0.685
3.300,-0.850,-0.700
3.303,-0.855,-0.725
3.306,-0.860,-0.725
3.308,-0.865,-0.720
3.311,-0.895,-0.700
3.314,-0.880,-0.690
3.317,-0.875,-0.680
3.319,-0.865,-0.670
3.322,-0.860,-0.665
3.325,-0.835,-0.655
3.328,-0.820,-0.655
3.331,-0.810,-0.655
3.333,-0.815,-0.675
3.336,-0.820,-0.715
3.339,-0.820,-0.770
3.342,-0.800,-0.880
3.344,-0.750,-0.990
3.347,-0.695,-1.145
3.350,-0.620,-1.310
3.353,-0.535,-1.460
3.356,-0.415,-1.615
3.358,-0.300,-1.735
3.361,-0.190,-1.815
3.364,-0.090,-1.840
3.367,-0.025,-1.780
3.369,0.040,-1.655
3.372,0.070,-1.525
3.375,0.095,-1.365
3.378,0.130,-1.230
3.381,0.160,-1.110
3.383,0.175,-1.035
3.386,0.175,-0.940
3.389,0.140,-0.875
3.392,0.090,-0.815
3.394,0.020,-0.740
3.397,-0.055,-0.710
3.400,-0.140,-0.690
3.403,-0.240,-0.685
3.406,-0.330,-0.690
3.408,-0.430,-0.670
3.411,-0.520,-0.685
3.414,-0.590,-0.660
3.417,-0.650,-0.640
3.419,-0.700,-0.630
3.422,-0.730,-0.620
3.425,-0.760,-0.615
3.428,-0.780,-0.615
3.431,-0.800,-0.620
3.433,-0.800,-0.620
3.436,-0.800,-0.625
3.439,-0.805,-0.640
3.442,-0.805,-0.640
3.444,-0.800,-0.630
3.447,-0.790,-0.605
3.450,-0.790,-0.600
3.453,-0.790,-0.590
3.456,-0.790,-0.590
3.458,-0.775,-0.585
3.461,-0.770,-0.595
3.464,-0.770,-0.610
3.467,-0.775,-0.625
3.469,-0.780,-0.635
3.472,-0.790,-0.635
3.475,-0.780,-0.635
3.478,-0.775,-0.615
3.481,-0.765,-0.620
3.483,-0.770,-0.615
3.486,-0.765,-0.595
3.489,-0.765,-0.595
3.492,-0.760,-0.585
3.494,-0.755,-0.590
3.497,-0.765,-0.595
3.500,-0.765,-0.610
3.503,-0.755,-0.620
3.506,-0.765,-0.620
3.508,-0.755,-0.635
3.511,-0.755,-0.625
3.514,-0.750,-0.620
3.517,-0.750,-0.605
3.519,-0.745,-0.610
3.522,-0.740,-0.595
3.525,-0.730,-0.590
3.528,-0.725,-0.595
3.531,-0.725,-0.595
3.533,-0.730,-0.610
3.536,-0.735,-0.610
3.539,-0.745,-0.610
3.542,-0.740,-0.620
3.544,-0.740,-0.620
3.547,-0.730,-0.615
3.550,-0.725,-0.605
3.553,-0.730,-0.595
3.556,-0.715,-0.585
3.558,-0.710,-0.590
3.561,-0.715,-0.590
3.564,-0.710,-0.600
3.567,-0.725,-0.605
3.569,-0.715,-0.600
3.572,-0.715,-0.610
3.575,-0.720,-0.615
3.578,-0.725,-0.625
3.581,-0.715,-0.605
3.583,-0.715,-0.620
3.586,-0.705,-0.605
3.589,-0.700,-0.600
3.592,-0.685,-0.595
3.594,-0.680,-0.605
3.597,-0.680,-0.600
3.600,-0.680,-0.605
3.603,-0.690,-0.600
3.606,-0.685,-0.610
3.608,-0.690,-0.610
3.611,-0.695,-0.615
3.614,-0.695,-0.605
3.617,-0.680,-0.590
3.619,-0.675,-0.605
3.622,-0.665,-0.595
3.625,-0.650,-0.595
3.628,-0.660,-0.610
3.631,-0.650,-0.625
3.633,-0.660,-0.620
3.636,-0.665,-0.615
3.639,-0.660,-0.625
3.642,-0.670,-0.630
3.644,-0.670,-0.630
3.647,-0.670,-0.620
3.650,-0.675,-0.615
3.653,-0.665,-0.615
3.656,-0.665,-0.615
3.658,-0.665,-0.615
3.661,-0.665,-0.630
3.664,-0.665,-0.625
3.667,-0.680,-0.645
3.669,-0.685,-0.645
3.672,-0.700,-0.640
3.675,-0.710,-0.645
3.678,-0.715,-0.640
3.681,-0.720,-0.645
3.683,-0.720,-0.650
3.686,-0.715,-0.645
3.689,-0.720,-0.650
3.692,-0.720,-0.655
3.694,-0.745,-0.650
3.697,-0.750,-0.655
3.700,-0.770,-0.660
3.703,-0.775,-0.675
3.706,-0.800,-0.665
3.708,-0.820,-0.680
3.711,-0.820,-0.670
3.714,-0.810,-0.650
3.717,-0.820,-0.640
3.719,-0.820,-0.630
3.722,-0.820,-0.625
3.725,-0.820,-0.625
3.728,-0.830,-0.635
3.731,-0.825,-0.650
3.733,-0.835,-0.655
3.736,-0.850,-0.650
3.739,-0.850,-0.645
3.742,-0.860,-0.660
3.744,-0.845,-0.650
3.747,-0.835,-0.650
3.750,-0.835,-0.640
3.753,-0.835,-0.640
3.756,-0.830,-0.635
3.758,-0.835,-0.640
3.761,-0.840,-0.645
3.764,-0.835,-0.640
3.767,-0.835,-0.650
3.769,-0.845,-0.655
3.772,-0.835,-0.655
3.775,-0.855,-0.650
3.778,-0.840,-0.635
3.781,-0.835,-0.630
3.783,-0.845,-0.625
3.786,-0.830,-0.635
3.789,-0.855,-0.630
3.792,-0.855,-0.645
3.794,-0.835,-0.655
3.797,-0.845,-0.645
3.800,-0.840,-0.665
3.803,-0.845,-0.650
3.806,-0.850,-0.645
3.808,-0.860,-0.645
3.811,-0.860,-0.640
3.814,-0.870,-0.635
3.817,-0.865,-0.620
3.819,-0.855,-0.605
3.822,-0.845,-0.590
3.825,-0.845,-0.605
3.828,-0.850,-0.610
3.831,-0.850,-0.620
3.833,-0.855,-0.625
3.836,-0.870,-0.640
3.839,-0.890,-0.650
3.842,-0.885,-0.635
3.844,-0.885,-0.620
3.847,-0.890,-0.610
3.850,-0.880,-0.620
3.853,-0.880,-0.615
3.856,-0.855,-0.605
3.858,-0.855,-0.615
3.861,-0.855,-0.625
3.864,-0.870,-0.625
3.867,-0.865,-0.635
3.869,-0.875,-0.630
3.872,-0.875,-0.645
3.875,-0.870,-0.635
3.878,-0.885,-0.630
3.881,-0.885,-0.630
3.883,-0.885,-0.620
3.886,-0.880,-0.615
3.889,-0.870,-0.615
3.892,-0.860,-0.605
3.894,-0.855,-0.610
3.897,-0.850,-0.610
3.900,-0.865,-0.615
3.903,-0.875,-0.625
3.906,-0.885,-0.635
3.908,-0.890,-0.635
3.911,-0.885,-0.640
3.914,-0.870,-0.640
3.917,-0.870,-0.620
3.919,-0.855,-0.610
3.922,-0.865,-0.605
3.925,-0.850,-0.605
3.928,-0.850,-0.610
3.931,-0.845,-0.630
3.933,-0.845,-0.645
3.936,-0.855,-0.660
3.939,-0.855,-0.660
3.942,-0.870,-0.660
3.944,-0.865,-0.640
3.947,-0.865,-0.640
3.950,-0.845,-0.635
3.953,-0.845,-0.615
3.956,-0.835,-0.610
3.958,-0.820,-0.605
3.961,-0.815,-0.610
3.964,-0.820,-0.620
3.967,-0.840,-0.635
3.969,-0.835,-0.635
3.972,-0.840,-0.650
3.975,-0.835,-0.650
3.978,-0.835,-0.640
3.981,-0.830,-0.625
3.983,-0.825,-0.595
3.986,-0.820,-0.585
3.989,-0.800,-0.590
3.992,-0.800,-0.605
3.994,-0.810,-0.630
3.997,-0.810,-0.645
4.000,-0.810,-0.655
4.003,-0.815,-0.670
4.006,-0.815,-0.665
4.008,-0.830,-0.645
4.011,-0.820,-0.635
4.014,-0.830,-0.625
4.017,-0.815,-0.625
4.019,-0.810,-0.615
4.022,-0.790,-0.600
4.025,-0.780,-0.595
4.028,-0.780,-0.605
4.031,-0.790,-0.620
4.033,-0.790,-0.625
4.036,-0.805,-0.630
4.039,-0.805,-0.640
4.042,-0.810,-0.645
4.044,-0.805,-0.645
4.047,-0.815,-0.630
4.050,-0.795,-0.615
4.053,-0.785,-0.605
4.056,-0.775,-0.595
4.058,-0.770,-0.600
4.061,-0.780,-0.610
4.064,-0.775,-0.620
4.067,-0.790,-0.635
4.069,-0.790,-0.640
4.072,-0.785,-0.635
4.075,-0.800,-0.635
4.078,-0.805,-0.630
4.081,-0.810,-0.620
4.083,-0.795,-0.615
4.086,-0.785,-0.615
4.089,-0.765,-0.605
4.092,-0.770,-0.605
4.094,-0.765,-0.610
4.097,-0.780,-0.620
4.100,-0.775,-0.620
4.103,-0.785,-0.630
4.106,-0.800,-0.640
4.108,-0.800,-0.640
4.111,-0.805,-0.645
4.114,-0.785,-0.640
4.117,-0.775,-0.630
4.119,-0.765,-0.605
4.122,-0.750,-0.595
4.125,-0.745,-0.600
4.128,-0.750,-0.595
4.131,-0.750,-0.605
4.133,-0.750,-0.635
4.136,-0.755,-0.650
4.139,-0.765,-0.655
4.142,-0.775,-0.660
4.144,-0.780,-0.645
4.147,-0.770,-0.630
4.150,-0.765,-0.625
4.153,-0.760,-0.610
4.156,-0.755,-0.600
4.158,-0.735,-0.590
4.161,-0.740,-0.605
4.164,-0.740,-0.595
4.167,-0.745,-0.600
4.169,-0.745,-0.600
4.172,-0.745,-0.625
4.175,-0.760,-0.630
4.178,-0.750,-0.640
4.181,-0.755,-0.620
4.183,-0.735,-0.610
4.186,-0.720,-0.600
4.189,-0.710,-0.590
4.192,-0.695,-0.595
4.194,-0.695,-0.605
4.197,-0.705,-0.625
4.200,-0.705,-0.640
4.203,-0.720,-0.640
4.206,-0.705,-0.660
4.208,-0.705,-0.680
4.211,-0.700,-0.685
4.214,-0.695,-0.685
4.217,-0.685,-0.685
4.219,-0.675,-0.680
4.222,-0.675,-0.675
4.225,-0.670,-0.680
4.228,-0.665,-0.680
4.231,-0.685,-0.675
4.233,-0.695,-0.675
4.236,-0.695,-0.675
4.239,-0.695,-0.665
4.242,-0.685,-0.650
4.244,-0.690,-0.645
4.247,-0.680,-0.625
4.250,-0.670,-0.615
4.253,-0.675,-0.610
4.256,-0.685,-0.600
4.258,-0.680,-0.600
4.261,-0.695,-0.595
4.264,-0.715,-0.600
4.267,-0.715,-0.615
4.269,-0.730,-0.620
4.272,-0.735,-0.625
4.275,-0.740,-0.625
4.278,-0.750,-0.620
4.281,-0.745,-0.605
4.283,-0.735,-0.600
4.286,-0.730,-0.600
4.289,-0.720,-0.590
4.292,-0.715,-0.585
4.294,-0.700,-0.585
4.297,-0.715,-0.585
4.300,-0.725,-0.595
4.303,-0.715,-0.595
4.306,-0.725,-0.595
4.308,-0.730,-0.610
4.311,-0.725,-0.605
4.314,-0.720,-0.600
4.317,-0.695,-0.620
4.319,-0.680,-0.680
4.322,-0.650,-0.785
4.325,-0.585,-0.910
4.328,-0.515,-1.055
4.331,-0.415,-1.225
4.333,-0.300,-1.400
4.336,-0.170,-1.540
4.339,-0.035,-1.630
4.342,0.100,-1.645
4.344,0.205,-1.590
4.347,0.285,-1.490
4.350,0.340,-1.365
4.353,0.375,-1.225
4.356,0.400,-1.095
4.358,0.435,-0.975
4.361,0.430,-0.875
4.364,0.405,-0.820
4.367,0.340,-0.750
4.369,0.270,-0.695
4.372,0.200,-0.660
4.375,0.130,-0.645
4.378,0.050,-0.625
4.381,-0.035,-0.620
4.383,-0.130,-0.610
4.386,-0.220,-0.570
4.389,-0.300,-0.545
4.392,-0.385,-0.520
4.394,-0.480,-0.515
4.397,-0.555,-0.535
4.400,-0.630,-0.585
4.403,-0.670,-0.605
4.406,-0.705,-0.620
4.408,-0.710,-0.610
4.411,-0.710,-0.580
4.414,-0.695,-0.560
4.417,-0.695,-0.540
4.419,-0.675,-0.530
4.422,-0.655,-0.530
4.425,-0.650,-0.535
4.428,-0.640,-0.540
4.431,-0.655,-0.555
4.433,-0.660,-0.555
4.436,-0.670,-0.560
4.439,-0.680,-0.570
4.442,-0.680,-0.565
4.444,-0.675,-0.540
4.447,-0.680,-0.535
4.450,-0.670,-0.530
4.453,-0.665,-0.515
4.456,-0.655,-0.525
4.458,-0.645,-0.530
4.461,-0.650,-0.550
4.464,-0.660,-0.555
4.467,-0.665,-0.570
4.469,-0.665,-0.560
4.472,-0.670,-0.575
4.475,-0.665,-0.555
4.478,-0.665,-0.545
4.481,-0.665,-0.540
4.483,-0.665,-0.540
4.486,-0.655,-0.540
4.489,-0.660,-0.550
4.492,-0.660,-0.535
4.494,-0.660,-0.560
4.497,-0.650,-0.560
4.500,-0.640,-0.560
4.503,-0.645,-0.545
4.506,-0.645,-0.535
4.508,-0.645,-0.530
4.511,-0.655,-0.540
4.514,-0.650,-0.560
4.517,-0.650,-0.585
4.519,-0.650,-0.610
4.522,-0.640,-0.590
4.525,-0.640,-0.580
4.528,-0.615,-0.570
4.531,-0.615,-0.545
4.533,-0.615,-0.555
4.536,-0.630,-0.560
4.539,-0.640,-0.570
4.542,-0.650,-0.565
4.544,-0.655,-0.565
4.547,-0.650,-0.560
4.550,-0.635,-0.545
4.553,-0.630,-0.535
4.556,-0.635,-0.520
4.558,-0.620,-0.520
4.561,-0.625,-0.545
4.564,-0.620,-0.570
4.567,-0.625,-0.580
4.569,-0.630,-0.590
4.572,-0.625,-0.590
4.575,-0.635,-0.575
4.578,-0.640,-0.565
4.581,-0.640,-0.550
4.583,-0.635,-0.545
4.586,-0.615,-0.545
4.589,-0.625,-0.540
4.592,-0.610,-0.560
4.594,-0.605,-0.560
4.597,-0.610,-0.560
4.600,-0.620,-0.590
4.603,-0.630,-0.590
4.606,-0.645,-0.595
4.608,-0.635,-0.590
4.611,-0.640,-0.585
4.614,-0.640,-0.565
4.617,-0.640,-0.545
4.619,-0.630,-0.550
4.622,-0.635,-0.545
4.625,-0.615,-0.550
4.628,-0.615,-0.550
4.631,-0.620,-0.550
4.633,-0.635,-0.565
4.636,-0.640,-0.560
4.639,-0.650,-0.565
4.642,-0.665,-0.565
4.644,-0.680,-0.555
4.647,-0.685,-0.595
4.650,-0.685,-0.625
4.653,-0.680,-0.645
4.656,-0.685,-0.630
4.658,-0.685,-0.615
4.661,-0.695,-0.605
4.664,-0.705,-0.575
4.667,-0.730,-0.575
4.669,-0.760,-0.565
4.672,-0.775,-0.580
4.675,-0.790,-0.610
4.678,-0.795,-0.615
4.681,-0.815,-0.630
4.683,-0.810,-0.630
4.686,-0.800,-0.610
4.689,-0.790,-0.600
4.692,-0.780,-0.580
4.694,-0.795,-0.565
4.697,-0.805,-0.570
4.700,-0.810,-0.595
4.703,-0.830,-0.605
4.706,-0.830,-0.610
4.708,-0.835,-0.620
4.711,-0.855,-0.600
4.714,-0.850,-0.585
4.717,-0.840,-0.580
4.719,-0.835,-0.575
4.722,-0.840,-0.580
4.725,-0.850,-0.585
4.728,-0.855,-0.600
4.731,-0.850,-0.600
4.733,-0.845,-0.625
4.736,-0.845,-0.630
4.739,-0.845,-0.630
4.742,-0.865,-0.630
4.744,-0.860,-0.615
4.747,-0.860,-0.595
4.750,-0.870,-0.585
4.753,-0.855,-0.585
4.756,-0.855,-0.570
4.758,-0.835,-0.575
4.761,-0.850,-0.555
4.764,-0.850,-0.545
4.767,-0.845,-0.540
4.769,-0.870,-0.555
4.772,-0.875,-0.560
4.775,-0.885,-0.605
4.778,-0.895,-0.630
4.781,-0.880,-0.645
4.783,-0.865,-0.640
4.786,-0.865,-0.605
4.789,-0.860,-0.580
4.792,-0.845,-0.575
4.794,-0.860,-0.590
4.797,-0.870,-0.590
4.800,-0.880,-0.600
4.803,-0.880,-0.615
4.806,-0.885,-0.615
4.808,-0.900,-0.605
4.811,-0.895,-0.615
4.814,-0.885,-0.565
4.817,-0.895,-0.545
4.819,-0.895,-0.545
4.822,-0.875,-0.555
4.825,-0.880,-0.575
4.828,-0.885,-0.580
4.831,-0.895,-0.585
4.833,-0.900,-0.580
4.836,-0.905,-0.580
4.839,-0.905,-0.595
4.842,-0.910,-0.635
4.844,-0.925,-0.640
4.847,-0.930,-0.640
4.850,-0.905,-0.630
4.853,-0.910,-0.615
4.856,-0.895,-0.580
4.858,-0.900,-0.550
4.861,-0.910,-0.555
4.864,-0.915,-0.560
4.867,-0.900,-0.575
4.869,-0.910,-0.595
4.872,-0.920,-0.625
4.875,-0.950,-0.640
4.878,-0.955,-0.630
4.881,-0.940,-0.630
4.883,-0.935,-0.610
4.886,-0.925,-0.605
4.889,-0.935,-0.590
4.892,-0.915,-0.570
4.894,-0.920,-0.580
4.897,-0.915,-0.600
4.900,-0.930,-0.605
4.903,-0.935,-0.610
4.906,-0.940,-0.605
4.908,-0.945,-0.615
4.911,-0.935,-0.615
4.914,-0.940,-0.615
4.917,-0.935,-0.615
4.919,-0.935,-0.610
4.922,-0.925,-0.600
4.925,-0.910,-0.575
4.928,-0.915,-0.580
4.931,-0.935,-0.595
4.933,-0.925,-0.605
4.936,-0.915,-0.615
4.939,-0.925,-0.620
4.942,-0.925,-0.625
4.944,-0.925,-0.615
4.947,-0.930,-0.610
4.950,-0.910,-0.605
4.953,-0.920,-0.600
4.956,-0.920,-0.600
4.958,-0.910,-0.605
4.961,-0.905,-0.615
4.964,-0.910,-0.615
4.967,-0.920,-0.625
4.969,-0.920,-0.640
4.972,-0.920,-0.625
4.975,-0.930,-0.630
4.978,-0.925,-0.630
4.981,-0.925,-0.605
4.983,-0.915,-0.605
4.986,-0.910,-0.610
4.989,-0.905,-0.610
4.992,-0.895,-0.600
4.994,-0.895,-0.590
4.997,-0.910,-0.595
5.000,-0.915,-0.595
5.003,-0.930,-0.605
5.006,-0.935,-0.625
5.008,-0.935,-0.640
5.011,-0.940,-0.645
5.014,-0.930,-0.630
5.017,-0.925,-0.615
5.019,-0.910,-0.615
5.022,-0.910,-0.580
5.025,-0.890,-0.585
5.028,-0.890,-0.590
5.031,-0.905,-0.595
5.033,-0.910,-0.620
5.036,-0.905,-0.640
5.039,-0.915,-0.645
5.042,-0.920,-0.650
5.044,-0.935,-0.640
5.047,-0.940,-0.625
5.050,-0.925,-0.605
5.053,-0.910,-0.595
5.056,-0.905,-0.595
5.058,-0.895,-0.605
5.061,-0.890,-0.630
5.064,-0.895,-0.625
5.067,-0.900,-0.630
5.069,-0.895,-0.625
5.072,-0.895,-0.620
5.075,-0.900,-0.640
5.078,-0.905,-0.645
5.081,-0.905,-0.650
5.083,-0.895,-0.625
5.086,-0.890,-0.615
5.089,-0.885,-0.600
5.092,-0.890,-0.600
5.094,-0.880,-0.610
5.097,-0.895,-0.595
5.100,-0.915,-0.615
5.103,-0.905,-0.620
5.106,-0.920,-0.625
5.108,-0.920,-0.615
5.111,-0.915,-0.630
5.114,-0.915,-0.625
5.117,-0.905,-0.610
5.119,-0.900,-0.610
5.122,-0.895,-0.600
5.125,-0.885,-0.590
5.128,-0.870,-0.600
5.131,-0.880,-0.585
5.133,-0.890,-0.590
5.136,-0.885,-0.595
5.139,-0.885,-0.610
5.142,-0.895,-0.640
5.144,-0.895,-0.645
5.147,-0.900,-0.640
5.150,-0.900,-0.630
5.153,-0.895,-0.625
5.156,-0.900,-0.600
5.158,-0.880,-0.595
5.161,-0.850,-0.580
5.164,-0.845,-0.590
5.167,-0.845,-0.595
5.169,-0.845,-0.615
5.172,-0.840,-0.610
5.175,-0.845,-0.615
5.178,-0.850,-0.630
5.181,-0.850,-0.650
5.183,-0.850,-0.675
5.186,-0.835,-0.700
5.189,-0.825,-0.685
5.192,-0.805,-0.690
5.194,-0.805,-0.665
5.197,-0.810,-0.655
5.200,-0.810,-0.665
5.203,-0.825,-0.680
5.206,-0.830,-0.680
5.208,-0.840,-0.695
5.211,-0.855,-0.680
5.214,-0.855,-0.660
5.217,-0.835,-0.645
5.219,-0.835,-0.650
5.222,-0.825,-0.645
5.225,-0.800,-0.635
5.228,-0.810,-0.635
5.231,-0.815,-0.615
5.233,-0.815,-0.620
5.236,-0.830,-0.610
5.239,-0.840,-0.605
5.242,-0.835,-0.605
5.244,-0.855,-0.625
5.247,-0.875,-0.610
5.250,-0.860,-0.630
5.253,-0.885,-0.640
5.256,-0.885,-0.625
5.258,-0.875,-0.610
5.261,-0.870,-0.600
5.264,-0.860,-0.600
5.267,-0.860,-0.595
5.269,-0.865,-0.595
5.272,-0.875,-0.590
5.275,-0.870,-0.600
5.278,-0.885,-0.595
5.281,-0.885,-0.600
5.283,-0.880,-0.605
5.286,-0.865,-0.605
5.289,-0.855,-0.590
5.292,-0.835,-0.575
5.294,-0.835,-0.575
5.297,-0.830,-0.575
5.300,-0.830,-0.595
5.303,-0.820,-0.655
5.306,-0.800,-0.760
5.308,-0.770,-0.885
5.311,-0.705,-1.050
5.314,-0.620,-1.215
5.317,-0.510,-1.370
5.319,-0.365,-1.510
5.322,-0.235,-1.585
5.325,-0.105,-1.605
5.328,0.015,-1.580
5.331,0.100,-1.490
5.333,0.155,-1.390
5.336,0.205,-1.280
5.339,0.215,-1.160
5.342,0.240,-1.075
5.344,0.245,-0.995
5.347,0.245,-0.920
5.350,0.220,-0.845
5.353,0.175,-0.770
5.356,0.125,-0.710
5.358,0.075,-0.645
5.361,0.020,-0.615
5.364,-0.045,-0.595
5.367,-0.130,-0.595
5.369,-0.220,-0.590
5.372,-0.300,-0.600
5.375,-0.390,-0.590
5.378,-0.485,-0.590
5.381,-0.575,-0.590
5.383,-0.645,-0.580
5.386,-0.710,-0.580
5.389,-0.755,-0.550
5.392,-0.780,-0.550
5.394,-0.805,-0.535
5.397,-0.805,-0.535
5.400,-0.815,-0.535
5.403,-0.805,-0.545
5.406,-0.820,-0.565
5.408,-0.825,-0.565
5.411,-0.825,-0.570
5.414,-0.825,-0.565
5.417,-0.820,-0.550
5.419,-0.815,-0.540
5.422,-0.805,-0.525
5.425,-0.800,-0.515
5.428,-0.805,-0.510
5.431,-0.805,-0.510
5.433,-0.805,-0.520
5.436,-0.795,-0.520
5.439,-0.810,-0.545
5.442,-0.815,-0.560
5.444,-0.805,-0.565
5.447,-0.815,-0.575
5.450,-0.795,-0.565
5.453,-0.790,-0.550
5.456,-0.785,-0.555
5.458,-0.785,-0.545
5.461,-0.775,-0.540
5.464,-0.765,-0.545
5.467,-0.765,-0.540
5.469,-0.775,-0.545
5.472,-0.780,-0.550
5.475,-0.785,-0.555
5.478,-0.785,-0.565
5.481,-0.780,-0.550
5.483,-0.785,-0.540
5.486,-0.775,-0.530
5.489,-0.775,-0.505
5.492,-0.745,-0.500
5.494,-0.740,-0.530
5.497,-0.740,-0.555
5.500,-0.745,-0.570
5.503,-0.755,-0.575
5.506,-0.770,-0.585
5.508,-0.760,-0.560
5.511,-0.755,-0.540
5.514,-0.755,-0.530
5.517,-0.750,-0.525
5.519,-0.745,-0.540
5.522,-0.740,-0.550
5.525,-0.720,-0.555
5.528,-0.720,-0.550
5.531,-0.725,-0.550
5.533,-0.740,-0.545
5.536,-0.740,-0.545
5.539,-0.735,-0.555
5.542,-0.740,-0.570
5.544,-0.735,-0.575
5.547,-0.750,-0.580
5.550,-0.735,-0.570
5.553,-0.725,-0.545
5.556,-0.710,-0.530
5.558,-0.695,-0.520
5.561,-0.685,-0.525
5.564,-0.685,-0.530
5.567,-0.705,-0.535
5.569,-0.715,-0.540
5.572,-0.720,-0.565
5.575,-0.715,-0.570
5.578,-0.710,-0.565
5.581,-0.710,-0.550
5.583,-0.700,-0.540
5.586,-0.690,-0.525
5.589,-0.680,-0.515
5.592,-0.670,-0.510
5.594,-0.670,-0.525
5.597,-0.665,-0.530
5.600,-0.680,-0.560
5.603,-0.680,-0.570
5.606,-0.685,-0.575
5.608,-0.685,-0.585
5.611,-0.685,-0.575
5.614,-0.695,-0.570
5.617,-0.690,-0.585
5.619,-0.690,-0.585
5.622,-0.695,-0.585
5.625,-0.685,-0.565
5.628,-0.680,-0.585
5.631,-0.690,-0.575
5.633,-0.695,-0.565
5.636,-0.700,-0.560
5.639,-0.720,-0.570
5.642,-0.720,-0.580
5.644,-0.740,-0.595
5.647,-0.760,-0.590
5.650,-0.755,-0.580
5.653,-0.750,-0.575
5.656,-0.755,-0.570
5.658,-0.750,-0.565
5.661,-0.765,-0.575
5.664,-0.780,-0.590
5.667,-0.790,-0.610
5.669,-0.795,-0.610
5.672,-0.805,-0.615
5.675,-0.820,-0.610
5.678,-0.825,-0.610
5.681,-0.835,-0.590
5.683,-0.835,-0.585
5.686,-0.850,-0.580
5.689,-0.845,-0.570
5.692,-0.835,-0.570
5.694,-0.840,-0.565
5.697,-0.855,-0.575
5.700,-0.865,-0.580
5.703,-0.870,-0.590
5.706,-0.875,-0.590
5.708,-0.880,-0.590
5.711,-0.895,-0.595
5.714,-0.900,-0.580
5.717,-0.895,-0.565
5.719,-0.890,-0.565
5.722,-0.885,-0.565
5.725,-0.865,-0.570
5.728,-0.860,-0.585
5.731,-0.845,-0.590
5.733,-0.850,-0.605
5.736,-0.845,-0.600
5.739,-0.875,-0.605
5.742,-0.880,-0.595
5.744,-0.875,-0.585
5.747,-0.870,-0.580
5.750,-0.865,-0.580
5.753,-0.860,-0.575
5.756,-0.850,-0.560
5.758,-0.840,-0.580
5.761,-0.845,-0.575
5.764,-0.845,-0.590
5.767,-0.850,-0.590
5.769,-0.855,-0.605
5.772,-0.860,-0.585
5.775,-0.865,-0.595
5.778,-0.875,-0.585
5.781,-0.870,-0.575
5.783,-0.875,-0.580
5.786,-0.880,-0.570
5.789,-0.870,-0.560
5.792,-0.865,-0.560
5.794,-0.860,-0.560
5.797,-0.860,-0.550
5.800,-0.860,-0.555
5.803,-0.880,-0.570
5.806,-0.880,-0.580
5.808,-0.890,-0.600
5.811,-0.895,-0.605
5.814,-0.900,-0.605
5.817,-0.890,-0.585
5.819,-0.895,-0.565
5.822,-0.885,-0.550
5.825,-0.875,-0.550
5.828,-0.885,-0.550
5.831,-0.885,-0.560
5.833,-0.895,-0.580
5.836,-0.895,-0.600
5.839,-0.900,-0.605
5.842,-0.915,-0.600
5.844,-0.915,-0.585
5.847,-0.920,-0.570
5.850,-0.920,-0.575
5.853,-0.910,-0.570
5.856,-0.900,-0.570
5.858,-0.895,-0.555
5.861,-0.875,-0.570
5.864,-0.880,-0.575
5.867,-0.880,-0.580
5.869,-0.880,-0.575
5.872,-0.880,-0.590
5.875,-0.900,-0.600
5.878,-0.915,-0.590
5.881,-0.905,-0.590
5.883,-0.900,-0.580
5.886,-0.890,-0.580
5.889,-0.890,-0.570
5.892,-0.875,-0.570
5.894,-0.875,-0.570
5.897,-0.870,-0.570
5.900,-0.870,-0.585
5.903,-0.895,-0.590
5.906,-0.890,-0.600
5.908,-0.880,-0.610
5.911,-0.895,-0.595
5.914,-0.890,-0.585
5.917,-0.885,-0.585
5.919,-0.880,-0.570
5.922,-0.880,-0.570
5.925,-0.880,-0.565
5.928,-0.870,-0.575
5.931,-0.870,-0.580
5.933,-0.865,-0.585
5.936,-0.870,-0.590
5.939,-0.865,-0.600
5.942,-0.870,-0.600
5.944,-0.875,-0.595
5.947,-0.880,-0.600
5.950,-0.865,-0.585
5.953,-0.870,-0.575
5.956,-0.850,-0.575
5.958,-0.850,-0.560
5.961,-0.850,-0.575
5.964,-0.850,-0.580
5.967,-0.850,-0.585
5.969,-0.870,-0.600
5.972,-0.875,-0.595
5.975,-0.860,-0.600
5.978,-0.875,-0.590
5.981,-0.865,-0.590
5.983,-0.855,-0.590
5.986,-0.855,-0.575
5.989,-0.845,-0.570
5.992,-0.835,-0.585
5.994,-0.830,-0.590
5.997,-0.835,-0.580
6.000,-0.845,-0.585
6.003,-0.840,-0.585
6.006,-0.850,-0.595
6.008,-0.870,-0.595
6.011,-0.865,-0.595
6.014,-0.865,-0.595
6.017,-0.845,-0.590
6.019,-0.840,-0.570
6.022,-0.840,-0.565
6.025,-0.830,-0.570
6.028,-0.820,-0.580
6.031,-0.825,-0.575
6.033,-0.830,-0.585
6.036,-0.835,-0.600
6.039,-0.860,-0.600
6.042,-0.860,-0.605
6.044,-0.855,-0.605
6.047,-0.850,-0.590
6.050,-0.835,-0.580
6.053,-0.820,-0.580
6.056,-0.815,-0.575
6.058,-0.810,-0.580
6.061,-0.820,-0.580
6.064,-0.825,-0.575
6.067,-0.820,-0.585
6.069,-0.825,-0.590
6.072,-0.820,-0.590
6.075,-0.825,-0.605
6.078,-0.840,-0.590
6.081,-0.845,-0.585
6.083,-0.845,-0.585
6.086,-0.830,-0.570
6.089,-0.835,-0.560
6.092,-0.820,-0.555
6.094,-0.820,-0.550
6.097,-0.800,-0.555
6.100,-0.810,-0.580
6.103,-0.810,-0.585
6.106,-0.820,-0.585
6.108,-0.840,-0.600
6.111,-0.835,-0.580
6.114,-0.850,-0.570
6.117,-0.830,-0.570
6.119,-0.820,-0.565
6.122,-0.810,-0.555
6.125,-0.805,-0.545
6.128,-0.825,-0.560
6.131,-0.815,-0.570
6.133,-0.825,-0.595
6.136,-0.830,-0.580
6.139,-0.825,-0.580
6.142,-0.835,-0.570
6.144,-0.840,-0.570
6.147,-0.815,-0.565
6.150,-0.810,-0.560
6.153,-0.815,-0.565
6.156,-0.805,-0.555
6.158,-0.780,-0.545
6.161,-0.765,-0.550
6.164,-0.745,-0.545
6.167,-0.735,-0.560
6.169,-0.740,-0.575
6.172,-0.755,-0.595
6.175,-0.770,-0.615
6.178,-0.775,-0.635
6.181,-0.780,-0.650
6.183,-0.770,-0.650
6.186,-0.750,-0.650
6.189,-0.735,-0.630
6.192,-0.725,-0.620
6.194,-0.720,-0.625
6.197,-0.730,-0.620
6.200,-0.725,-0.625
6.203,-0.740,-0.625
6.206,-0.745,-0.640
6.208,-0.750,-0.640
6.211,-0.760,-0.625
6.214,-0.750,-0.600
6.217,-0.740,-0.590
6.219,-0.710,-0.580
6.222,-0.700,-0.575
6.225,-0.700,-0.580
6.228,-0.700,-0.595
6.231,-0.695,-0.595
6.233,-0.695,-0.590
6.236,-0.695,-0.590
6.239,-0.725,-0.580
6.242,-0.735,-0.585
6.244,-0.735,-0.585
6.247,-0.755,-0.580
6.250,-0.745,-0.565
6.253,-0.745,-0.575
6.256,-0.745,-0.550
6.258,-0.735,-0.555
6.261,-0.730,-0.550
6.264,-0.730,-0.565
6.267,-0.725,-0.570
6.269,-0.730,-0.575
6.272,-0.735,-0.570
6.275,-0.730,-0.575
6.278,-0.740,-0.570
6.281,-0.740,-0.580
6.283,-0.730,-0.565
6.286,-0.730,-0.545
6.289,-0.720,-0.525
6.292,-0.710,-0.520
6.294,-0.690,-0.520
6.297,-0.685,-0.535
6.300,-0.670,-0.565
6.303,-0.660,-0.650
6.306,-0.640,-0.780
6.308,-0.600,-0.945
6.311,-0.515,-1.150
6.314,-0.400,-1.340
6.317,-0.245,-1.515
6.319,-0.080,-1.615
6.322,0.065,-1.640
6.325,0.200,-1.580
6.328,0.300,-1.455
6.331,0.355,-1.300
6.333,0.390,-1.155
6.336,0.410,-1.030
6.339,0.410,-0.925
6.342,0.410,-0.860
6.344,0.395,-0.780
6.347,0.375,-0.715
6.350,0.320,-0.640
6.353,0.260,-0.590
6.356,0.210,-0.550
6.358,0.145,-0.520
6.361,0.055,-0.515
6.364,-0.060,-0.515
6.367,-0.170,-0.515
6.369,-0.295,-0.525
6.372,-0.405,-0.540
6.375,-0.500,-0.530
6.378,-0.585,-0.520
6.381,-0.615,-0.500
6.383,-0.655,-0.475
6.386,-0.655,-0.475
6.389,-0.645,-0.475
6.392,-0.635,-0.475
6.394,-0.645,-0.490
6.397,-0.645,-0.505
6.400,-0.640,-0.515
6.403,-0.640,-0.515
6.406,-0.660,-0.505
6.408,-0.665,-0.505
6.411,-0.665,-0.510
6.414,-0.655,-0.500
6.417,-0.660,-0.485
6.419,-0.660,-0.475
6.422,-0.635,-0.460
6.425,-0.620,-0.455
6.428,-0.620,-0.455
6.431,-0.620,-0.465
6.433,-0.630,-0.475
6.436,-0.630,-0.485
6.439,-0.640,-0.485
6.442,-0.660,-0.490
6.444,-0.645,-0.495
6.447,-0.645,-0.485
6.450,-0.635,-0.480
6.453,-0.635,-0.475
6.456,-0.615,-0.460
6.458,-0.600,-0.455
6.461,-0.595,-0.460
6.464,-0.605,-0.465
6.467,-0.600,-0.470
6.469,-0.600,-0.470
6.472,-0.610,-0.475
6.475,-0.620,-0.480
6.478,-0.625,-0.470
6.481,-0.625,-0.475
6.483,-0.625,-0.465
6.486,-0.610,-0.470
6.489,-0.605,-0.465
6.492,-0.585,-0.470
6.494,-0.570,-0.475
6.497,-0.560,-0.470
6.500,-0.560,-0.485
6.503,-0.555,-0.480
6.506,-0.560,-0.475
6.508,-0.575,-0.490
6.511,-0.585,-0.480
6.514,-0.570,-0.480
6.517,-0.570,-0.475
6.519,-0.560,-0.475
6.522,-0.560,-0.475
6.525,-0.555,-0.450
6.528,-0.545,-0.455
6.531,-0.550,-0.460
6.533,-0.530,-0.465
6.536,-0.535,-0.475
6.539,-0.540,-0.475
6.542,-0.535,-0.460
6.544,-0.545,-0.465
6.547,-0.545,-0.480
6.550,-0.545,-0.475
6.553,-0.540,-0.475
6.556,-0.540,-0.470
6.558,-0.530,-0.470
6.561,-0.515,-0.465
6.564,-0.520,-0.470
6.567,-0.505,-0.465
6.569,-0.505,-0.465
6.572,-0.510,-0.470
6.575,-0.515,-0.490
6.578,-0.520,-0.485
6.581,-0.520,-0.490
6.583,-0.520,-0.485
6.586,-0.510,-0.465
6.589,-0.510,-0.475
6.592,-0.500,-0.460
6.594,-0.490,-0.465
6.597,-0.485,-0.465
6.600,-0.475,-0.460
6.603,-0.490,-0.475
6.606,-0.485,-0.485
6.608,-0.500,-0.500
6.611,-0.515,-0.520
6.614,-0.525,-0.530
6.617,-0.530,-0.540
6.619,-0.520,-0.535
6.622,-0.505,-0.515
6.625,-0.495,-0.500
6.628,-0.485,-0.505
6.631,-0.495,-0.490
6.633,-0.515,-0.490
6.636,-0.535,-0.505
6.639,-0.545,-0.515
6.642,-0.550,-0.510
6.644,-0.555,-0.505
6.647,-0.550,-0.515
6.650,-0.555,-0.535
6.653,-0.555,-0.555
6.656,-0.550,-0.565
6.658,-0.550,-0.560
6.661,-0.560,-0.550
6.664,-0.560,-0.535
6.667,-0.585,-0.510
6.669,-0.605,-0.500
6.672,-0.610,-0.510
6.675,-0.620,-0.530
6.678,-0.635,-0.520
6.681,-0.640,-0.530
6.683,-0.655,-0.515
6.686,-0.645,-0.530
6.689,-0.660,-0.550
6.692,-0.660,-0.550
6.694,-0.655,-0.580
6.697,-0.650,-0.580
6.700,-0.655,-0.570
6.703,-0.660,-0.570
6.706,-0.665,-0.560
6.708,-0.685,-0.535
6.711,-0.695,-0.530
6.714,-0.690,-0.530
6.717,-0.690,-0.500
6.719,-0.675,-0.490
6.722,-0.665,-0.500
6.725,-0.660,-0.505
6.728,-0.640,-0.545
6.731,-0.650,-0.550
6.733,-0.640,-0.550
6.736,-0.650,-0.550
6.739,-0.660,-0.520
6.742,-0.670,-0.505
6.744,-0.680,-0.490
6.747,-0.670,-0.470
6.750,-0.680,-0.485
6.753,-0.670,-0.495
6.756,-0.665,-0.520
6.758,-0.660,-0.510
6.761,-0.655,-0.530
6.764,-0.655,-0.530
6.767,-0.665,-0.565
6.769,-0.665,-0.565
6.772,-0.680,-0.585
6.775,-0.690,-0.575
6.778,-0.690,-0.575
6.781,-0.685,-0.550
6.783,-0.680,-0.525
6.786,-0.660,-0.505
6.789,-0.660,-0.500
6.792,-0.665,-0.490
6.794,-0.660,-0.525
6.797,-0.665,-0.540
6.800,-0.675,-0.545
6.803,-0.675,-0.550
6.806,-0.675,-0.545
6.808,-0.690,-0.535
6.811,-0.695,-0.540
6.814,-0.700,-0.530
6.817,-0.705,-0.520
6.819,-0.725,-0.510
6.822,-0.715,-0.500
6.825,-0.705,-0.495
6.828,-0.705,-0.510
6.831,-0.700,-0.520
6.833,-0.705,-0.520
6.836,-0.720,-0.535
6.839,-0.725,-0.540
6.842,-0.725,-0.540
6.844,-0.730,-0.540
6.847,-0.720,-0.545
6.850,-0.710,-0.530
6.853,-0.720,-0.525
6.856,-0.715,-0.515
6.858,-0.705,-0.510
6.861,-0.705,-0.510
6.864,-0.705,-0.510
6.867,-0.710,-0.520
6.869,-0.715,-0.535
6.872,-0.720,-0.530
6.875,-0.715,-0.540
6.878,-0.725,-0.545
6.881,-0.735,-0.545
6.883,-0.720,-0.525
6.886,-0.720,-0.535
6.889,-0.700,-0.520
6.892,-0.695,-0.515
6.894,-0.695,-0.525
6.897,-0.695,-0.530
6.900,-0.700,-0.525
6.903,-0.710,-0.540
6.906,-0.705,-0.550
6.908,-0.720,-0.560
6.911,-0.715,-0.555
6.914,-0.715,-0.560
6.917,-0.705,-0.550
6.919,-0.690,-0.540
6.922,-0.690,-0.530
6.925,-0.685,-0.515
6.928,-0.680,-0.540
6.931,-0.695,-0.545
6.933,-0.685,-0.550
6.936,-0.685,-0.560
6.939,-0.695,-0.560
6.942,-0.695,-0.555
6.944,-0.700,-0.555
6.947,-0.690,-0.550
6.950,-0.695,-0.540
6.953,-0.695,-0.545
6.956,-0.690,-0.540
6.958,-0.680,-0.535
6.961,-0.675,-0.545
6.964,-0.675,-0.555
6.967,-0.675,-0.560
6.969,-0.680,-0.575
6.972,-0.675,-0.570
6.975,-0.680,-0.575
6.978,-0.685,-0.570
6.981,-0.685,-0.570
6.983,-0.685,-0.550
6.986,-0.680,-0.555
6.989,-0.680,-0.555
6.992,-0.670,-0.540
6.994,-0.665,-0.545
6.997,-0.670,-0.545
7.000,-0.660,-0.550
7.003,-0.665,-0.555
7.006,-0.675,-0.560
7.008,-0.680,-0.565
7.011,-0.690,-0.570
7.014,-0.690,-0.565
7.017,-0.680,-0.550
7.019,-0.665,-0.555
7.022,-0.660,-0.550
7.025,-0.665,-0.545
7.028,-0.655,-0.545
7.031,-0.665,-0.555
7.033,-0.670,-0.555
7.036,-0.675,-0.570
7.039,-0.675,-0.575
7.042,-0.705,-0.570
7.044,-0.710,-0.565
7.047,-0.695,-0.575
7.050,-0.695,-0.570
7.053,-0.695,-0.565
7.056,-0.685,-0.550
7.058,-0.665,-0.540
7.061,-0.660,-0.540
7.064,-0.665,-0.550
7.067,-0.670,-0.550
7.069,-0.695,-0.555
7.072,-0.690,-0.570
7.075,-0.690,-0.575
7.078,-0.700,-0.575
7.081,-0.690,-0.580
7.083,-0.690,-0.565
7.086,-0.680,-0.555
7.089,-0.675,-0.555
7.092,-0.680,-0.545
7.094,-0.675,-0.550
7.097,-0.670,-0.565
7.100,-0.665,-0.565
7.103,-0.670,-0.565
7.106,-0.670,-0.570
7.108,-0.695,-0.575
7.111,-0.705,-0.580
7.114,-0.700,-0.580
7.117,-0.695,-0.570
7.119,-0.690,-0.565
7.122,-0.680,-0.560
7.125,-0.675,-0.550
7.128,-0.675,-0.545
7.131,-0.670,-0.555
7.133,-0.685,-0.565
7.136,-0.680,-0.585
7.139,-0.675,-0.575
7.142,-0.685,-0.575
7.144,-0.690,-0.570
7.147,-0.685,-0.565
7.150,-0.680,-0.550
7.153,-0.680,-0.550
7.156,-0.685,-0.540
7.158,-0.660,-0.530
7.161,-0.645,-0.540
7.164,-0.645,-0.550
7.167,-0.625,-0.545
7.169,-0.620,-0.560
7.172,-0.620,-0.565
7.175,-0.630,-0.590
7.178,-0.630,-0.595
7.181,-0.635,-0.605
7.183,-0.635,-0.625
7.186,-0.635,-0.645
7.189,-0.625,-0.635
7.192,-0.615,-0.640
7.194,-0.605,-0.640
7.197,-0.610,-0.630
7.200,-0.610,-0.630
7.203,-0.620,-0.625
7.206,-0.630,-0.630
7.208,-0.630,-0.630
7.211,-0.645,-0.635
7.214,-0.640,-0.630
7.217,-0.635,-0.615
7.219,-0.620,-0.605
7.222,-0.625,-0.590
7.225,-0.600,-0.585
7.228,-0.610,-0.575
7.231,-0.605,-0.575
7.233,-0.615,-0.570
7.236,-0.630,-0.570
7.239,-0.650,-0.575
7.242,-0.660,-0.575
7.244,-0.670,-0.575
7.247,-0.670,-0.585
7.250,-0.680,-0.575
7.253,-0.685,-0.570
7.256,-0.680,-0.560
7.258,-0.675,-0.545
7.261,-0.675,-0.555
7.264,-0.675,-0.555
7.267,-0.685,-0.560
7.269,-0.705,-0.570
7.272,-0.710,-0.570
7.275,-0.715,-0.585
7.278,-0.720,-0.585
7.281,-0.705,-0.575
7.283,-0.690,-0.560
7.286,-0.680,-0.540
7.289,-0.675,-0.525
7.292,-0.650,-0.510
7.294,-0.650,-0.500
7.297,-0.655,-0.525
7.300,-0.650,-0.570
7.303,-0.645,-0.660
7.306,-0.635,-0.785
7.308,-0.595,-0.955
7.311,-0.530,-1.145
7.314,-0.435,-1.375
7.317,-0.315,-1.575
7.319,-0.170,-1.745
7.322,-0.020,-1.820
7.325,0.115,-1.765
7.328,0.220,-1.610
7.331,0.275,-1.405
7.333,0.345,-1.200
7.336,0.395,-1.025
7.339,0.425,-0.900
7.342,0.400,-0.790
7.344,0.360,-0.710
7.347,0.290,-0.640
7.350,0.210,-0.585
7.353,0.120,-0.550
7.356,0.040,-0.535
7.358,-0.055,-0.525
7.361,-0.155,-0.535
7.364,-0.260,-0.525
7.367,-0.350,-0.520
7.369,-0.450,-0.530
7.372,-0.520,-0.515
7.375,-0.570,-0.515
7.378,-0.630,-0.525
7.381,-0.665,-0.520
7.383,-0.675,-0.500
7.386,-0.670,-0.495
7.389,-0.665,-0.485
7.392,-0.670,-0.470
7.394,-0.655,-0.475
7.397,-0.650,-0.485
7.400,-0.650,-0.470
7.403,-0.640,-0.490
7.406,-0.650,-0.495
7.408,-0.660,-0.485
7.411,-0.665,-0.495
7.414,-0.655,-0.490
7.417,-0.660,-0.480
7.419,-0.645,-0.480
7.422,-0.640,-0.460
7.425,-0.630,-0.450
7.428,-0.625,-0.455
7.431,-0.620,-0.470
7.433,-0.630,-0.465
7.436,-0.645,-0.475
7.439,-0.650,-0.480
7.442,-0.655,-0.485
7.444,-0.655,-0.490
7.447,-0.650,-0.485
7.450,-0.645,-0.470
7.453,-0.640,-0.460
7.456,-0.625,-0.455
7.458,-0.625,-0.450
7.461,-0.615,-0.455
7.464,-0.615,-0.470
7.467,-0.615,-0.465
7.469,-0.620,-0.475
7.472,-0.630,-0.480
7.475,-0.625,-0.480
7.478,-0.625,-0.475
7.481,-0.635,-0.465
7.483,-0.630,-0.465
7.486,-0.625,-0.465
7.489,-0.620,-0.455
7.492,-0.620,-0.455
7.494,-0.605,-0.470
7.497,-0.610,-0.460
7.500,-0.600,-0.470
7.503,-0.620,-0.465
7.506,-0.610,-0.475
7.508,-0.610,-0.475
7.511,-0.630,-0.475
7.514,-0.625,-0.475
7.517,-0.625,-0.480
7.519,-0.615,-0.465
7.522,-0.610,-0.455
7.525,-0.595,-0.450
7.528,-0.590,-0.455
7.531,-0.580,-0.460
7.533,-0.585,-0.470
7.536,-0.590,-0.475
7.539,-0.600,-0.475
7.542,-0.600,-0.485
7.544,-0.605,-0.480
7.547,-0.590,-0.485
7.550,-0.595,-0.480
7.553,-0.585,-0.460
7.556,-0.565,-0.475
7.558,-0.565,-0.450
7.561,-0.565,-0.455
7.564,-0.560,-0.460
7.567,-0.585,-0.470
7.569,-0.585,-0.465
7.572,-0.565,-0.485
7.575,-0.570,-0.475
7.578,-0.590,-0.485
7.581,-0.580,-0.485
7.583,-0.580,-0.465
7.586,-0.575,-0.475
7.589,-0.575,-0.475
7.592,-0.570,-0.475
7.594,-0.570,-0.470
7.597,-0.555,-0.485
7.600,-0.555,-0.495
7.603,-0.550,-0.510
7.606,-0.565,-0.515
7.608,-0.575,-0.515
7.611,-0.585,-0.510
7.614,-0.595,-0.525
7.617,-0.595,-0.510
7.619,-0.590,-0.500
7.622,-0.590,-0.500
7.625,-0.585,-0.505
7.628,-0.590,-0.515
7.631,-0.600,-0.520
7.633,-0.600,-0.535
7.636,-0.615,-0.545
7.639,-0.625,-0.555
7.642,-0.640,-0.550
7.644,-0.650,-0.555
7.647,-0.670,-0.550
7.650,-0.675,-0.540
7.653,-0.670,-0.545
7.656,-0.670,-0.555
7.658,-0.665,-0.535
7.661,-0.675,-0.535
7.664,-0.675,-0.545
7.667,-0.685,-0.545
7.669,-0.705,-0.545
7.672,-0.720,-0.575
7.675,-0.735,-0.565
7.678,-0.745,-0.570
7.681,-0.745,-0.570
7.683,-0.745,-0.560
7.686,-0.745,-0.545
7.689,-0.745,-0.545
7.692,-0.735,-0.540
7.694,-0.740,-0.555
7.697,-0.750,-0.545
7.700,-0.755,-0.560
7.703,-0.760,-0.560
7.706,-0.760,-0.560
7.708,-0.775,-0.565
7.711,-0.790,-0.565
7.714,-0.775,-0.550
7.717,-0.785,-0.550
7.719,-0.780,-0.555
7.722,-0.765,-0.530
7.725,-0.770,-0.530
7.728,-0.770,-0.525
7.731,-0.765,-0.530
7.733,-0.770,-0.540
7.736,-0.775,-0.535
7.739,-0.785,-0.545
7.742,-0.790,-0.540
7.744,-0.795,-0.560
7.747,-0.805,-0.550
7.750,-0.805,-0.540
7.753,-0.795,-0.535
7.756,-0.790,-0.510
7.758,-0.785,-0.525
7.761,-0.795,-0.520
7.764,-0.795,-0.530
7.767,-0.795,-0.530
7.769,-0.795,-0.530
7.772,-0.810,-0.535
7.775,-0.825,-0.550
7.778,-0.820,-0.540
7.781,-0.835,-0.530
7.783,-0.835,-0.520
7.786,-0.830,-0.525
7.789,-0.825,-0.515
7.792,-0.815,-0.510
7.794,-0.820,-0.515
7.797,-0.825,-0.515
7.800,-0.830,-0.530
7.803,-0.830,-0.530
7.806,-0.845,-0.540
7.808,-0.845,-0.550
7.811,-0.855,-0.535
7.814,-0.855,-0.540
7.817,-0.860,-0.535
7.819,-0.850,-0.530
7.822,-0.855,-0.520
7.825,-0.850,-0.520
7.828,-0.840,-0.535
7.831,-0.850,-0.520
7.833,-0.850,-0.540
7.836,-0.850,-0.555
7.839,-0.870,-0.550
7.842,-0.880,-0.540
7.844,-0.880,-0.560
7.847,-0.890,-0.555
7.850,-0.880,-0.555
7.853,-0.870,-0.540
7.856,-0.870,-0.545
7.858,-0.860,-0.535
7.861,-0.860,-0.535
7.864,-0.865,-0.545
7.867,-0.870,-0.560
7.869,-0.865,-0.560
7.872,-0.870,-0.575
7.875,-0.875,-0.575
7.878,-0.880,-0.570
7.881,-0.875,-0.560
7.883,-0.875,-0.560
7.886,-0.890,-0.545
7.889,-0.870,-0.540
7.892,-0.865,-0.535
7.894,-0.865,-0.535
7.897,-0.855,-0.545
7.900,-0.850,-0.560
7.903,-0.870,-0.565
7.906,-0.875,-0.570
7.908,-0.875,-0.565
7.911,-0.880,-0.570
7.914,-0.880,-0.560
7.917,-0.880,-0.550
7.919,-0.875,-0.555
7.922,-0.865,-0.540
7.925,-0.860,-0.555
7.928,-0.855,-0.560
7.931,-0.855,-0.550
7.933,-0.855,-0.565
7.936,-0.845,-0.580
7.939,-0.860,-0.565
7.942,-0.870,-0.575
7.944,-0.860,-0.580
7.947,-0.870,-0.570
7.950,-0.885,-0.570
7.953,-0.865,-0.560
7.956,-0.865,-0.550
7.958,-0.850,-0.550
7.961,-0.840,-0.550
7.964,-0.835,-0.555
7.967,-0.835,-0.560
7.969,-0.850,-0.575
7.972,-0.845,-0.565
7.975,-0.860,-0.580
7.978,-0.865,-0.575
7.981,-0.865,-0.580
7.983,-0.870,-0.575
7.986,-0.865,-0.565
7.989,-0.865,-0.570
7.992,-0.845,-0.550
7.994,-0.840,-0.545
7.997,-0.835,-0.550
8.000,-0.825,-0.550
8.003,-0.840,-0.565
8.006,-0.860,-0.580
8.008,-0.870,-0.585
8.011,-0.870,-0.575
8.014,-0.870,-0.580
8.017,-0.860,-0.575
8.019,-0.855,-0.565
8.022,-0.835,-0.555
8.025,-0.825,-0.545
8.028,-0.820,-0.550
8.031,-0.825,-0.560
8.033,-0.830,-0.560
8.036,-0.830,-0.560
8.039,-0.850,-0.575
8.042,-0.860,-0.575
8.044,-0.860,-0.580
8.047,-0.860,-0.575
8.050,-0.855,-0.570
8.053,-0.845,-0.555
8.056,-0.840,-0.560
8.058,-0.840,-0.555
8.061,-0.840,-0.550
8.064,-0.835,-0.555
8.067,-0.845,-0.565
8.069,-0.840,-0.580
8.072,-0.830,-0.585
8.075,-0.855,-0.590
8.078,-0.845,-0.580
8.081,-0.830,-0.580
8.083,-0.850,-0.565
8.086,-0.835,-0.550
8.089,-0.835,-0.560
8.092,-0.830,-0.555
8.094,-0.830,-0.560
8.097,-0.835,-0.560
8.100,-0.835,-0.570
8.103,-0.840,-0.585
8.106,-0.850,-0.590
8.108,-0.850,-0.590
8.111,-0.840,-0.590
8.114,-0.850,-0.575
8.117,-0.840,-0.580
8.119,-0.835,-0.570
8.122,-0.825,-0.560
8.125,-0.825,-0.565
8.128,-0.820,-0.565
8.131,-0.820,-0.560
8.133,-0.810,-0.575
8.136,-0.820,-0.575
8.139,-0.815,-0.590
8.142,-0.825,-0.600
8.144,-0.830,-0.595
8.147,-0.830,-0.585
8.150,-0.830,-0.580
8.153,-0.825,-0.565
8.156,-0.825,-0.565
8.158,-0.815,-0.565
8.161,-0.800,-0.560
8.164,-0.800,-0.565
8.167,-0.805,-0.575
8.169,-0.810,-0.570
8.172,-0.820,-0.585
8.175,-0.820,-0.590
8.178,-0.810,-0.575
8.181,-0.820,-0.575
8.183,-0.805,-0.565
8.186,-0.800,-0.560
8.189,-0.785,-0.555
8.192,-0.765,-0.570
8.194,-0.740,-0.580
8.197,-0.750,-0.605
8.200,-0.755,-0.625
8.203,-0.765,-0.650
8.206,-0.770,-0.670
8.208,-0.775,-0.685
8.211,-0.780,-0.695
8.214,-0.785,-0.670
8.217,-0.785,-0.665
8.219,-0.780,-0.650
8.222,-0.790,-0.645
8.225,-0.775,-0.630
8.228,-0.780,-0.625
8.231,-0.765,-0.630
8.233,-0.770,-0.630
8.236,-0.760,-0.645
8.239,-0.765,-0.635
8.242,-0.775,-0.640
8.244,-0.775,-0.640
8.247,-0.775,-0.625
8.250,-0.770,-0.615
8.253,-0.770,-0.590
8.256,-0.770,-0.575
8.258,-0.770,-0.570
8.261,-0.775,-0.560
8.264,-0.790,-0.585
8.267,-0.785,-0.585
8.269,-0.810,-0.585
8.272,-0.825,-0.600
8.275,-0.830,-0.595
8.278,-0.845,-0.605
8.281,-0.840,-0.595
8.283,-0.840,-0.585
8.286,-0.830,-0.575
8.289,-0.825,-0.575
8.292,-0.815,-0.575
8.294,-0.810,-0.580
8.297,-0.815,-0.570
8.300,-0.810,-0.575
8.303,-0.835,-0.590
8.306,-0.840,-0.580
8.308,-0.845,-0.580
8.311,-0.835,-0.590
8.314,-0.835,-0.565
8.317,-0.830,-0.560
8.319,-0.825,-0.540
8.322,-0.815,-0.540
8.325,-0.800,-0.560
8.328,-0.775,-0.625
8.331,-0.765,-0.740
8.333,-0.730,-0.905
8.336,-0.680,-1.120
8.339,-0.590,-1.365
8.342,-0.485,-1.615
8.344,-0.355,-1.830
8.347,-0.235,-1.930
8.350,-0.105,-1.880
8.353,-0.005,-1.740
8.356,0.065,-1.535
8.358,0.115,-1.330
8.361,0.160,-1.145
8.364,0.190,-1.005
8.367,0.210,-0.915
8.369,0.205,-0.840
8.372,0.150,-0.775
8.375,0.100,-0.710
8.378,0.015,-0.660
8.381,-0.050,-0.610
8.383,-0.130,-0.575
8.386,-0.225,-0.560
8.389,-0.320,-0.550
8.392,-0.415,-0.540
8.394,-0.500,-0.535
8.397,-0.570,-0.530
8.400,-0.635,-0.525
8.403,-0.695,-0.525
8.406,-0.740,-0.535
8.408,-0.780,-0.530
8.411,-0.810,-0.535
8.414,-0.815,-0.520
8.417,-0.820,-0.505
8.419,-0.820,-0.495
8.422,-0.810,-0.490
8.425,-0.805,-0.480
8.428,-0.790,-0.495
8.431,-0.795,-0.490
8.433,-0.795,-0.500
8.436,-0.795,-0.495
8.439,-0.810,-0.515
8.442,-0.825,-0.515
8.444,-0.815,-0.510
8.447,-0.815,-0.520
8.450,-0.805,-0.495
8.453,-0.805,-0.485
8.456,-0.810,-0.480
8.458,-0.805,-0.480
8.461,-0.790,-0.480
8.464,-0.785,-0.490
8.467,-0.795,-0.485
8.469,-0.790,-0.490
8.472,-0.800,-0.495
8.475,-0.795,-0.495
8.478,-0.800,-0.495
8.481,-0.800,-0.500
8.483,-0.790,-0.480
8.486,-0.785,-0.480
8.489,-0.775,-0.465
8.492,-0.770,-0.465
8.494,-0.760,-0.475
8.497,-0.760,-0.480
8.500,-0.755,-0.475
8.503,-0.770,-0.485
8.506,-0.770,-0.495
8.508,-0.785,-0.500
8.511,-0.780,-0.495
8.514,-0.775,-0.500
8.517,-0.780,-0.495
8.519,-0.770,-0.490
8.522,-0.765,-0.480
8.525,-0.760,-0.470
8.528,-0.745,-0.465
8.531,-0.750,-0.485
8.533,-0.755,-0.500
8.536,-0.755,-0.495
8.539,-0.760,-0.500
8.542,-0.770,-0.510
8.544,-0.770,-0.505
8.547,-0.760,-0.505
8.550,-0.775,-0.490
8.553,-0.760,-0.485
8.556,-0.765,-0.485
8.558,-0.750,-0.465
8.561,-0.750,-0.485
8.564,-0.740,-0.485
8.567,-0.745,-0.490
8.569,-0.745,-0.495
8.572,-0.755,-0.505
8.575,-0.750,-0.515
8.578,-0.750,-0.505
8.581,-0.750,-0.505
8.583,-0.745,-0.510
8.586,-0.745,-0.495
8.589,-0.735,-0.495
8.592,-0.720,-0.485
8.594,-0.720,-0.485
8.597,-0.715,-0.485
8.600,-0.705,-0.490
8.603,-0.710,-0.500
8.606,-0.705,-0.515
8.608,-0.730,-0.515
8.611,-0.735,-0.525
8.614,-0.740,-0.515
8.617,-0.730,-0.495
8.619,-0.730,-0.495
8.622,-0.735,-0.495
8.625,-0.710,-0.480
8.628,-0.695,-0.490
8.631,-0.690,-0.510
8.633,-0.695,-0.515
8.636,-0.700,-0.520
8.639,-0.710,-0.540
8.642,-0.730,-0.545
8.644,-0.740,-0.550
8.647,-0.745,-0.550
8.650,-0.735,-0.530
8.653,-0.715,-0.535
8.656,-0.725,-0.535
8.658,-0.720,-0.535
8.661,-0.720,-0.530
8.664,-0.735,-0.560
8.667,-0.745,-0.555
8.669,-0.755,-0.560
8.672,-0.760,-0.575
8.675,-0.785,-0.580
8.678,-0.775,-0.575
8.681,-0.795,-0.575
8.683,-0.800,-0.570
8.686,-0.805,-0.560
8.689,-0.815,-0.550
8.692,-0.820,-0.545
8.694,-0.805,-0.545
8.697,-0.810,-0.565
8.700,-0.820,-0.555
8.703,-0.830,-0.570
8.706,-0.840,-0.585
8.708,-0.870,-0.575
8.711,-0.875,-0.595
8.714,-0.885,-0.580
8.717,-0.880,-0.575
8.719,-0.865,-0.560
8.722,-0.875,-0.555
8.725,-0.880,-0.545
8.728,-0.870,-0.560
8.731,-0.880,-0.565
8.733,-0.890,-0.555
8.736,-0.885,-0.560
8.739,-0.900,-0.565
8.742,-0.910,-0.565
8.744,-0.930,-0.575
8.747,-0.930,-0.565
8.750,-0.925,-0.555
8.753,-0.925,-0.560
8.756,-0.915,-0.550
8.758,-0.920,-0.545
8.761,-0.915,-0.540
8.764,-0.910,-0.535
8.767,-0.930,-0.545
8.769,-0.945,-0.545
8.772,-0.940,-0.550
8.775,-0.955,-0.565
8.778,-0.960,-0.555
8.781,-0.965,-0.555
8.783,-0.960,-0.545
8.786,-0.945,-0.535
8.789,-0.945,-0.530
8.792,-0.940,-0.520
8.794,-0.935,-0.515
8.797,-0.920,-0.525
8.800,-0.930,-0.515
8.803,-0.945,-0.540
8.806,-0.950,-0.550
8.808,-0.965,-0.545
8.811,-0.960,-0.545
8.814,-0.965,-0.540
8.817,-0.965,-0.525
8.819,-0.970,-0.525
8.822,-0.960,-0.515
8.825,-0.960,-0.515
8.828,-0.955,-0.515
8.831,-0.960,-0.530
8.833,-0.970,-0.535
8.836,-0.970,-0.530
8.839,-0.985,-0.535
8.842,-0.985,-0.545
8.844,-0.995,-0.540
8.847,-1.000,-0.535
8.850,-1.005,-0.530
8.853,-1.000,-0.535
8.856,-0.990,-0.520
8.858,-0.990,-0.515
8.861,-0.980,-0.520
8.864,-0.995,-0.525
8.867,-1.000,-0.530
8.869,-1.005,-0.530
8.872,-1.005,-0.550
8.875,-1.000,-0.560
8.878,-1.005,-0.560
8.881,-1.005,-0.555
8.883,-1.005,-0.555
8.886,-1.010,-0.545
8.889,-1.010,-0.530
8.892,-1.005,-0.525
8.894,-0.990,-0.520
8.897,-0.995,-0.540
8.900,-0.990,-0.525
8.903,-1.000,-0.540
8.906,-1.000,-0.545
8.908,-1.005,-0.560
8.911,-1.015,-0.570
8.914,-1.020,-0.565
8.917,-1.025,-0.545
8.919,-1.010,-0.545
8.922,-1.020,-0.535
8.925,-0.995,-0.535
8.928,-0.995,-0.535
8.931,-0.990,-0.545
8.933,-1.000,-0.540
8.936,-1.005,-0.545
8.939,-1.005,-0.555
8.942,-1.015,-0.560
8.944,-1.010,-0.565
8.947,-1.010,-0.560
8.950,-1.010,-0.555
8.953,-1.005,-0.550
8.956,-1.000,-0.550
8.958,-0.985,-0.535
8.961,-0.975,-0.540
8.964,-0.990,-0.540
8.967,-0.985,-0.550
8.969,-0.975,-0.560
8.972,-0.995,-0.560
8.975,-1.000,-0.575
8.978,-1.005,-0.560
8.981,-1.010,-0.570
8.983,-1.010,-0.565
8.986,-1.000,-0.550
8.989,-1.005,-0.545
8.992,-0.990,-0.540
8.994,-0.985,-0.540
8.997,-0.985,-0.540
9.000,-0.980,-0.545
9.003,-0.980,-0.555
9.006,-0.995,-0.565
9.008,-1.005,-0.565
9.011,-1.010,-0.580
9.014,-1.010,-0.570
9.017,-1.020,-0.555
9.019,-1.000,-0.555
9.022,-0.995,-0.550
9.025,-0.985,-0.535
9.028,-0.975,-0.545
9.031,-0.975,-0.545
9.033,-0.985,-0.555
9.036,-0.980,-0.550
9.039,-0.995,-0.565
9.042,-1.005,-0.575
9.044,-1.020,-0.580
9.047,-1.015,-0.565
9.050,-1.010,-0.565
9.053,-1.000,-0.565
9.056,-0.985,-0.555
9.058,-0.980,-0.550
9.061,-0.970,-0.550
9.064,-0.980,-0.550
9.067,-0.965,-0.555
9.069,-0.980,-0.565
9.072,-0.980,-0.565
9.075,-0.990,-0.575
9.078,-0.990,-0.570
9.081,-0.995,-0.575
9.083,-0.995,-0.565
9.086,-0.980,-0.560
9.089,-0.985,-0.550
9.092,-0.970,-0.550
9.094,-0.965,-0.535
9.097,-0.970,-0.545
9.100,-0.975,-0.560
9.103,-0.975,-0.560
9.106,-1.000,-0.565
9.108,-0.995,-0.580
9.111,-1.000,-0.570
9.114,-0.990,-0.565
9.117,-0.990,-0.565
9.119,-0.980,-0.555
9.122,-0.985,-0.540
9.125,-0.970,-0.545
9.128,-0.970,-0.540
9.131,-0.965,-0.545
9.133,-0.965,-0.575
9.136,-0.970,-0.570
9.139,-0.985,-0.580
9.142,-0.975,-0.580
9.144,-0.985,-0.570
9.147,-0.985,-0.570
9.150,-0.985,-0.565
9.153,-0.985,-0.550
9.156,-0.970,-0.565
9.158,-0.965,-0.540
9.161,-0.955,-0.535
9.164,-0.950,-0.545
9.167,-0.955,-0.555
9.169,-0.960,-0.575
9.172,-0.980,-0.575
9.175,-0.975,-0.575
9.178,-0.970,-0.575
9.181,-0.970,-0.565
9.183,-0.975,-0.550
9.186,-0.965,-0.555
9.189,-0.965,-0.540
9.192,-0.955,-0.560
9.194,-0.955,-0.545
9.197,-0.950,-0.550
9.200,-0.945,-0.545
9.203,-0.970,-0.555
9.206,-0.955,-0.555
9.208,-0.945,-0.555
9.211,-0.945,-0.555
9.214,-0.925,-0.555
9.217,-0.925,-0.555
9.219,-0.900,-0.555
9.222,-0.905,-0.555
9.225,-0.890,-0.555
9.228,-0.890,-0.575
9.231,-0.905,-0.625
9.233,-0.910,-0.630
9.236,-0.900,-0.655
9.239,-0.895,-0.660
9.242,-0.890,-0.645
9.244,-0.900,-0.640
9.247,-0.895,-0.630
9.250,-0.905,-0.620
9.253,-0.900,-0.610
9.256,-0.895,-0.600
9.258,-0.890,-0.600
9.261,-0.890,-0.600
9.264,-0.895,-0.595
9.267,-0.895,-0.605
9.269,-0.890,-0.590
9.272,-0.905,-0.590
9.275,-0.905,-0.580
9.278,-0.920,-0.570
9.281,-0.925,-0.550
9.283,-0.930,-0.555
9.286,-0.930,-0.545
9.289,-0.930,-0.540
9.292,-0.920,-0.540
9.294,-0.915,-0.540
9.297,-0.925,-0.550
9.300,-0.925,-0.540
9.303,-0.930,-0.550
9.306,-0.945,-0.550
9.308,-0.960,-0.550
9.311,-0.960,-0.565
9.314,-0.955,-0.565
9.317,-0.960,-0.550
9.319,-0.960,-0.545
9.322,-0.965,-0.545
9.325,-0.940,-0.540
9.328,-0.925,-0.530
9.331,-0.925,-0.525
9.333,-0.920,-0.520
9.336,-0.915,-0.525
9.339,-0.920,-0.515
9.342,-0.920,-0.525
9.344,-0.920,-0.540
9.347,-0.900,-0.590
9.350,-0.890,-0.685
9.353,-0.840,-0.810
9.356,-0.780,-0.995
9.358,-0.700,-1.205
9.361,-0.590,-1.410
9.364,-0.485,-1.600
9.367,-0.360,-1.730
9.369,-0.230,-1.790
9.372,-0.150,-1.745
9.375,-0.080,-1.655
9.378,-0.040,-1.510
9.381,-0.005,-1.350
9.383,0.020,-1.200
9.386,0.055,-1.060
9.389,0.080,-0.965
9.392,0.095,-0.880
9.394,0.070,-0.785
9.397,0.010,-0.725
9.400,-0.060,-0.655
9.403,-0.135,-0.610
9.406,-0.220,-0.580
9.408,-0.300,-0.565
9.411,-0.390,-0.550
9.414,-0.485,-0.550
9.417,-0.570,-0.525
9.419,-0.635,-0.495
9.422,-0.690,-0.490
9.425,-0.750,-0.470
9.428,-0.805,-0.470
9.431,-0.845,-0.470
9.433,-0.880,-0.475
9.436,-0.890,-0.485
9.439,-0.895,-0.475
9.442,-0.905,-0.505
9.444,-0.895,-0.480
9.447,-0.895,-0.480
9.450,-0.900,-0.470
9.453,-0.890,-0.465
9.456,-0.885,-0.450
9.458,-0.870,-0.455
9.461,-0.865,-0.450
9.464,-0.865,-0.465
9.467,-0.865,-0.460
9.469,-0.860,-0.465
9.472,-0.875,-0.465
9.475,-0.885,-0.475
9.478,-0.885,-0.485
9.481,-0.885,-0.480
9.483,-0.890,-0.465
9.486,-0.875,-0.460
9.489,-0.860,-0.460
9.492,-0.850,-0.450
9.494,-0.840,-0.465
9.497,-0.835,-0.445
9.500,-0.830,-0.450
9.503,-0.835,-0.455
9.506,-0.840,-0.465
9.508,-0.835,-0.475
9.511,-0.845,-0.480
9.514,-0.845,-0.485
9.517,-0.840,-0.480
9.519,-0.835,-0.470
9.522,-0.825,-0.465
9.525,-0.815,-0.455
9.528,-0.800,-0.445
9.531,-0.800,-0.465
9.533,-0.810,-0.460
9.536,-0.810,-0.480
9.539,-0.815,-0.485
9.542,-0.825,-0.490
9.544,-0.820,-0.500
9.547,-0.825,-0.495
9.550,-0.815,-0.480
9.553,-0.805,-0.465
9.556,-0.805,-0.470
9.558,-0.800,-0.450
9.561,-0.785,-0.460
9.564,-0.790,-0.455
9.567,-0.790,-0.475
9.569,-0.800,-0.485
9.572,-0.800,-0.490
9.575,-0.805,-0.480
9.578,-0.805,-0.490
9.581,-0.805,-0.475
9.583,-0.810,-0.475
9.586,-0.800,-0.465
9.589,-0.800,-0.465
9.592,-0.790,-0.465
9.594,-0.775,-0.450
9.597,-0.780,-0.470
9.600,-0.780,-0.460
9.603,-0.785,-0.485
9.606,-0.785,-0.480
9.608,-0.780,-0.490
9.611,-0.785,-0.485
9.614,-0.780,-0.485
9.617,-0.780,-0.475
9.619,-0.770,-0.470
9.622,-0.775,-0.470
9.625,-0.755,-0.465
9.628,-0.745,-0.455
9.631,-0.735,-0.455
9.633,-0.735,-0.475
9.636,-0.740,-0.490
9.639,-0.745,-0.490
9.642,-0.755,-0.495
9.644,-0.750,-0.505
9.647,-0.755,-0.505
9.650,-0.760,-0.490
9.653,-0.755,-0.490
9.656,-0.750,-0.495
9.658,-0.735,-0.485
9.661,-0.730,-0.490
9.664,-0.730,-0.495
9.667,-0.735,-0.495
9.669,-0.735,-0.505
9.672,-0.755,-0.515
9.675,-0.765,-0.530
9.678,-0.780,-0.520
9.681,-0.780,-0.520
9.683,-0.780,-0.520
9.686,-0.785,-0.505
9.689,-0.780,-0.510
9.692,-0.780,-0.495
9.694,-0.775,-0.505
9.697,-0.790,-0.505
9.700,-0.800,-0.515
9.703,-0.805,-0.515
9.706,-0.825,-0.515
9.708,-0.835,-0.525
9.711,-0.855,-0.530
9.714,-0.860,-0.520
9.717,-0.865,-0.510
9.719,-0.855,-0.510
9.722,-0.870,-0.515
9.725,-0.865,-0.500
9.728,-0.870,-0.505
9.731,-0.880,-0.510
9.733,-0.900,-0.500
9.736,-0.915,-0.530
9.739,-0.915,-0.530
9.742,-0.925,-0.530
9.744,-0.935,-0.530
9.747,-0.945,-0.535
9.750,-0.950,-0.535
9.753,-0.945,-0.525
9.756,-0.940,-0.505
9.758,-0.935,-0.510
9.761,-0.935,-0.500
9.764,-0.940,-0.510
9.767,-0.940,-0.515
9.769,-0.955,-0.520
9.772,-0.960,-0.525
9.775,-0.965,-0.540
9.778,-0.985,-0.540
9.781,-0.985,-0.520
9.783,-0.985,-0.530
9.786,-0.960,-0.520
9.789,-0.955,-0.515
9.792,-0.955,-0.495
9.794,-0.955,-0.495
9.797,-0.960,-0.495
9.800,-0.965,-0.500
9.803,-0.975,-0.515
9.806,-0.980,-0.510
9.808,-0.975,-0.525
9.811,-0.990,-0.525
9.814,-1.010,-0.505
9.817,-1.010,-0.505
9.819,-1.010,-0.490
9.822,-1.005,-0.500
9.825,-0.990,-0.490
9.828,-0.985,-0.490
9.831,-0.995,-0.495
9.833,-0.985,-0.510
9.836,-0.990,-0.510
9.839,-1.005,-0.515
9.842,-1.010,-0.515
9.844,-1.015,-0.530
9.847,-1.035,-0.520
9.850,-1.025,-0.515
9.853,-1.020,-0.500
9.856,-1.030,-0.495
9.858,-1.020,-0.485
9.861,-1.010,-0.490
9.864,-1.015,-0.495
9.867,-1.010,-0.495
9.869,-1.020,-0.500
9.872,-1.035,-0.510
9.875,-1.040,-0.520
9.878,-1.045,-0.520
9.881,-1.045,-0.520
9.883,-1.065,-0.515
9.886,-1.055,-0.500
9.889,-1.045,-0.500
9.892,-1.030,-0.495
9.894,-1.025,-0.490
9.897,-1.025,-0.510
9.900,-1.020,-0.505
9.903,-1.025,-0.515
9.906,-1.030,-0.530
9.908,-1.050,-0.535
9.911,-1.050,-0.530
9.914,-1.045,-0.530
9.917,-1.045,-0.525
9.919,-1.040,-0.515
9.922,-1.040,-0.510
9.925,-1.030,-0.495
9.928,-1.020,-0.500
9.931,-1.015,-0.510
9.933,-1.020,-0.520
9.936,-1.025,-0.525
9.939,-1.030,-0.535
9.942,-1.040,-0.550
9.944,-1.050,-0.540
9.947,-1.045,-0.550
9.950,-1.050,-0.535
9.953,-1.035,-0.525
9.956,-1.020,-0.525
9.958,-1.025,-0.510
9.961,-1.010,-0.510
9.964,-1.005,-0.525
9.967,-1.005,-0.520
9.969,-1.010,-0.535
9.972,-1.015,-0.540
9.975,-1.010,-0.545
9.978,-1.025,-0.555
9.981,-1.025,-0.545
9.983,-1.025,-0.535
9.986,-1.015,-0.535
9.989,-1.020,-0.515
9.992,-1.005,-0.525
9.994,-1.000,-0.520
9.997,-1.000,-0.525
10.000,-0.990,-0.520
10.003,-0.995,-0.540
10.006,-1.000,-0.540
10.008,-1.000,-0.550
10.011,-1.010,-0.550
10.014,-1.025,-0.560
10.017,-1.015,-0.545
10.019,-1.015,-0.535
10.022,-1.015,-0.525
10.025,-1.005,-0.520
10.028,-1.000,-0.515
10.031,-1.000,-0.520
10.033,-0.990,-0.535
10.036,-0.995,-0.530
10.039,-1.000,-0.540
10.042,-1.005,-0.540
10.044,-1.010,-0.545
10.047,-1.020,-0.550
10.050,-1.010,-0.545
10.053,-1.015,-0.535
10.056,-1.000,-0.525
10.058,-0.990,-0.525
10.061,-0.980,-0.520
10.064,-0.980,-0.525
10.067,-0.975,-0.530
10.069,-0.985,-0.545
10.072,-1.005,-0.550
10.075,-0.995,-0.545
10.078,-1.005,-0.545
10.081,-1.020,-0.550
10.083,-1.025,-0.560
10.086,-1.000,-0.525
10.089,-0.995,-0.530
10.092,-0.985,-0.525
10.094,-0.975,-0.525
10.097,-0.975,-0.530
10.100,-0.980,-0.530
10.103,-0.975,-0.535
10.106,-1.005,-0.540
10.108,-1.000,-0.565
10.111,-0.995,-0.555
10.114,-1.000,-0.555
10.117,-0.995,-0.545
10.119,-0.995,-0.545
10.122,-0.985,-0.540
10.125,-0.990,-0.520
10.128,-0.980,-0.525
10.131,-0.980,-0.530
10.133,-0.985,-0.545
10.136,-0.980,-0.550
10.139,-0.985,-0.550
10.142,-0.995,-0.570
10.144,-0.985,-0.565
10.147,-1.015,-0.555
10.150,-0.990,-0.550
10.153,-0.990,-0.535
10.156,-0.985,-0.530
10.158,-0.975,-0.530
10.161,-0.975,-0.530
10.164,-0.965,-0.535
10.167,-0.975,-0.535
10.169,-0.970,-0.560
10.172,-0.970,-0.550
10.175,-0.985,-0.560
10.178,-0.980,-0.560
10.181,-0.985,-0.560
10.183,-0.985,-0.545
10.186,-0.985,-0.555
10.189,-0.980,-0.550
10.192,-0.970,-0.535
10.194,-0.960,-0.530
10.197,-0.970,-0.510
10.200,-0.960,-0.530
10.203,-0.955,-0.540
10.206,-0.950,-0.545
10.208,-0.960,-0.540
10.211,-0.955,-0.545
10.214,-0.945,-0.555
10.217,-0.955,-0.550
10.219,-0.935,-0.535
10.222,-0.925,-0.550
10.225,-0.905,-0.555
10.228,-0.915,-0.580
10.231,-0.925,-0.595
10.233,-0.905,-0.625
10.236,-0.910,-0.635
10.239,-0.910,-0.645
10.242,-0.915,-0.635
10.244,-0.920,-0.645
10.247,-0.930,-0.625
10.250,-0.930,-0.615
10.253,-0.930,-0.590
10.256,-0.940,-0.605
10.258,-0.930,-0.590
10.261,-0.910,-0.595
10.264,-0.900,-0.590
10.267,-0.905,-0.605
10.269,-0.905,-0.595
10.272,-0.915,-0.595
10.275,-0.915,-0.580
10.278,-0.925,-0.570
10.281,-0.940,-0.555
10.283,-0.940,-0.550
10.286,-0.940,-0.545
10.289,-0.935,-0.550
10.292,-0.925,-0.530
10.294,-0.945,-0.540
10.297,-0.940,-0.535
10.300,-0.950,-0.545
10.303,-0.955,-0.550
10.306,-0.960,-0.565
10.308,-0.975,-0.555
10.311,-0.975,-0.560
10.314,-0.980,-0.560
10.317,-0.975,-0.555
10.319,-0.965,-0.545
10.322,-0.965,-0.545
10.325,-0.955,-0.535
10.328,-0.945,-0.540
10.331,-0.940,-0.540
10.333,-0.940,-0.535
10.336,-0.935,-0.515
10.339,-0.940,-0.515
10.342,-0.940,-0.530
10.344,-0.945,-0.540
10.347,-0.940,-0.575
10.350,-0.940,-0.645
10.353,-0.900,-0.780
10.356,-0.830,-0.945
10.358,-0.775,-1.155
10.361,-0.670,-1.365
10.364,-0.535,-1.570
10.367,-0.400,-1.725
10.369,-0.265,-1.785
10.372,-0.170,-1.775
10.375,-0.085,-1.655
10.378,-0.025,-1.510
10.381,0.000,-1.320
10.383,0.020,-1.155
10.386,0.060,-1.005
10.389,0.080,-0.890
10.392,0.080,-0.825
10.394,0.060,-0.740
10.397,-0.015,-0.680
10.400,-0.070,-0.625
10.403,-0.150,-0.590
10.406,-0.230,-0.565
10.408,-0.310,-0.560
10.411,-0.405,-0.565
10.414,-0.495,-0.535
10.417,-0.580,-0.535
10.419,-0.660,-0.515
10.422,-0.725,-0.500
10.425,-0.775,-0.485
10.428,-0.810,-0.480
10.431,-0.840,-0.485
10.433,-0.885,-0.495
10.436,-0.920,-0.495
10.439,-0.925,-0.490
10.442,-0.935,-0.495
10.444,-0.935,-0.490
10.447,-0.935,-0.495
10.450,-0.935,-0.485
10.453,-0.915,-0.480
10.456,-0.920,-0.475
10.458,-0.915,-0.465
10.461,-0.905,-0.475
10.464,-0.910,-0.470
10.467,-0.910,-0.480
10.469,-0.920,-0.475
10.472,-0.900,-0.480
10.475,-0.910,-0.480
10.478,-0.905,-0.500
10.481,-0.920,-0.485
10.483,-0.905,-0.470
10.486,-0.920,-0.460
10.489,-0.910,-0.470
10.492,-0.905,-0.455
10.494,-0.885,-0.455
10.497,-0.885,-0.455
10.500,-0.895,-0.460
10.503,-0.885,-0.470
10.506,-0.890,-0.480
10.508,-0.895,-0.490
10.511,-0.895,-0.480
10.514,-0.905,-0.475
10.517,-0.895,-0.475
10.519,-0.885,-0.480
10.522,-0.875,-0.465
10.525,-0.885,-0.470
10.528,-0.865,-0.465
10.531,-0.860,-0.470
10.533,-0.855,-0.480
10.536,-0.860,-0.485
10.539,-0.870,-0.485
10.542,-0.880,-0.490
10.544,-0.885,-0.500
10.547,-0.900,-0.495
10.550,-0.900,-0.490
10.553,-0.900,-0.485
10.556,-0.885,-0.475
10.558,-0.885,-0.475
10.561,-0.870,-0.460
10.564,-0.860,-0.470
10.567,-0.845,-0.470
10.569,-0.860,-0.490
10.572,-0.865,-0.495
10.575,-0.855,-0.495
10.578,-0.865,-0.505
10.581,-0.870,-0.500
10.583,-0.870,-0.490
10.586,-0.860,-0.500
10.589,-0.855,-0.495
10.592,-0.855,-0.480
10.594,-0.835,-0.470
10.597,-0.830,-0.480
10.600,-0.840,-0.475
10.603,-0.835,-0.485
10.606,-0.830,-0.495
10.608,-0.845,-0.505
10.611,-0.835,-0.515
10.614,-0.840,-0.510
10.617,-0.840,-0.510
10.619,-0.835,-0.490
10.622,-0.820,-0.500
10.625,-0.805,-0.485
10.628,-0.805,-0.490
10.631,-0.810,-0.490
10.633,-0.790,-0.495
10.636,-0.810,-0.510
10.639,-0.805,-0.505
10.642,-0.815,-0.525
10.644,-0.820,-0.515
10.647,-0.820,-0.530
10.650,-0.810,-0.520
10.653,-0.825,-0.515
10.656,-0.815,-0.520
10.658,-0.800,-0.500
10.661,-0.790,-0.515
10.664,-0.795,-0.520
10.667,-0.800,-0.530
10.669,-0.805,-0.535
10.672,-0.820,-0.545
10.675,-0.820,-0.545
10.678,-0.840,-0.540
10.681,-0.840,-0.560
10.683,-0.845,-0.555
10.686,-0.850,-0.545
10.689,-0.860,-0.550
10.692,-0.855,-0.530
10.694,-0.855,-0.525
10.697,-0.860,-0.545
10.700,-0.880,-0.535
10.703,-0.885,-0.550
10.706,-0.905,-0.555
10.708,-0.900,-0.565
10.711,-0.910,-0.560
10.714,-0.920,-0.580
10.717,-0.925,-0.575
10.719,-0.930,-0.555
10.722,-0.935,-0.560
10.725,-0.935,-0.545
10.728,-0.930,-0.540
10.731,-0.940,-0.540
10.733,-0.955,-0.550
10.736,-0.960,-0.560
10.739,-0.980,-0.560
10.742,-0.990,-0.560
10.744,-1.000,-0.575
10.747,-1.005,-0.565
10.750,-1.005,-0.565
10.753,-1.015,-0.550
10.756,-1.015,-0.540
10.758,-1.005,-0.530
10.761,-1.000,-0.535
10.764,-0.995,-0.545
10.767,-1.000,-0.550
10.769,-1.015,-0.555
10.772,-1.020,-0.565
10.775,-1.040,-0.580
10.778,-1.050,-0.570
10.781,-1.050,-0.555
10.783,-1.045,-0.550
10.786,-1.050,-0.555
10.789,-1.040,-0.555
10.792,-1.035,-0.525
10.794,-1.030,-0.535
10.797,-1.035,-0.545
10.800,-1.045,-0.540
10.803,-1.050,-0.540
10.806,-1.060,-0.545
10.808,-1.045,-0.550
10.811,-1.065,-0.550
10.814,-1.075,-0.555
10.817,-1.070,-0.535
10.819,-1.075,-0.540
10.822,-1.075,-0.530
10.825,-1.075,-0.525
10.828,-1.065,-0.530
10.831,-1.055,-0.535
10.833,-1.065,-0.530
10.836,-1.060,-0.540
10.839,-1.070,-0.540
10.842,-1.085,-0.560
10.844,-1.100,-0.560
10.847,-1.095,-0.555
10.850,-1.100,-0.565
10.853,-1.095,-0.545
10.856,-1.080,-0.535
10.858,-1.075,-0.520
10.861,-1.075,-0.520
10.864,-1.085,-0.530
10.867,-1.090,-0.540
10.869,-1.095,-0.545
10.872,-1.100,-0.550
10.875,-1.115,-0.560
10.878,-1.130,-0.570
10.881,-1.120,-0.560
10.883,-1.120,-0.550
10.886,-1.110,-0.540
10.889,-1.110,-0.535
10.892,-1.110,-0.540
10.894,-1.105,-0.540
10.897,-1.100,-0.550
10.900,-1.105,-0.550
10.903,-1.105,-0.570
10.906,-1.110,-0.570
10.908,-1.115,-0.580
10.911,-1.125,-0.595
10.914,-1.125,-0.580
10.917,-1.115,-0.575
10.919,-1.120,-0.565
10.922,-1.115,-0.555
10.925,-1.105,-0.555
10.928,-1.105,-0.555
10.931,-1.090,-0.555
10.933,-1.095,-0.560
10.936,-1.110,-0.565
10.939,-1.105,-0.570
10.942,-1.115,-0.590
10.944,-1.115,-0.580
10.947,-1.105,-0.580
10.950,-1.105,-0.585
10.953,-1.105,-0.575
10.956,-1.090,-0.575
10.958,-1.105,-0.555
10.961,-1.090,-0.560
10.964,-1.075,-0.565
10.967,-1.080,-0.570
10.969,-1.095,-0.575
10.972,-1.095,-0.575
10.975,-1.105,-0.595
10.978,-1.110,-0.590
10.981,-1.110,-0.590
10.983,-1.105,-0.590
10.986,-1.110,-0.570
10.989,-1.115,-0.560
10.992,-1.115,-0.565
10.994,-1.095,-0.565
10.997,-1.095,-0.560
11.000,-1.080,-0.560
11.003,-1.090,-0.560
11.006,-1.100,-0.565
11.008,-1.095,-0.570
11.011,-1.105,-0.585
11.014,-1.110,-0.600
11.017,-1.100,-0.600
11.019,-1.095,-0.585
11.022,-1.080,-0.580
11.025,-1.085,-0.575
11.028,-1.060,-0.560
11.031,-1.055,-0.555
11.033,-1.060,-0.565
11.036,-1.060,-0.565
11.039,-1.075,-0.570
11.042,-1.080,-0.580
11.044,-1.080,-0.570
11.047,-1.085,-0.560
11.050,-1.080,-0.570
11.053,-1.080,-0.575
11.056,-1.085,-0.575
11.058,-1.075,-0.575
11.061,-1.070,-0.580
11.064,-1.070,-0.595
11.067,-1.055,-0.630
11.069,-1.060,-0.660
11.072,-1.065,-0.670
11.075,-1.055,-0.675
11.078,-1.065,-0.665
11.081,-1.075,-0.635
11.083,-1.075,-0.620
11.086,-1.075,-0.610
11.089,-1.060,-0.600
11.092,-1.050,-0.595
11.094,-1.060,-0.595
11.097,-1.045,-0.590
11.100,-1.045,-0.615
11.103,-1.060,-0.610
11.106,-1.065,-0.630
11.108,-1.070,-0.620
11.111,-1.085,-0.615
11.114,-1.085,-0.610
11.117,-1.085,-0.615
11.119,-1.085,-0.615
11.122,-1.075,-0.610
11.125,-1.065,-0.605
11.128,-1.055,-0.610
11.131,-1.050,-0.605
11.133,-1.045,-0.600
11.136,-1.050,-0.610
11.139,-1.060,-0.605
11.142,-1.065,-0.595
11.144,-1.065,-0.605
11.147,-1.080,-0.595
11.150,-1.075,-0.580
11.153,-1.080,-0.575
11.156,-1.060,-0.560
11.158,-1.060,-0.560
11.161,-1.050,-0.585
11.164,-1.055,-0.600
11.167,-1.055,-0.615
11.169,-1.040,-0.620
11.172,-1.045,-0.625
11.175,-1.050,-0.605
11.178,-1.050,-0.630
11.181,-1.060,-0.620
11.183,-1.045,-0.640
11.186,-1.045,-0.645
11.189,-1.045,-0.645
11.192,-1.030,-0.625
11.194,-1.020,-0.600
11.197,-1.015,-0.585
11.200,-1.010,-0.570
11.203,-1.015,-0.575
11.206,-1.030,-0.580
11.208,-1.035,-0.620
11.211,-1.045,-0.640
11.214,-1.050,-0.665
11.217,-1.040,-0.675
11.219,-1.045,-0.650
11.222,-1.030,-0.650
11.225,-1.020,-0.645
11.228,-1.005,-0.625
11.231,-1.015,-0.620
11.233,-1.010,-0.620
11.236,-1.010,-0.610
11.239,-1.005,-0.615
11.242,-0.985,-0.610
11.244,-1.000,-0.630
11.247,-0.990,-0.635
11.250,-0.970,-0.640
11.253,-0.965,-0.635
11.256,-0.965,-0.640
11.258,-0.975,-0.650
11.261,-0.970,-0.650
11.264,-0.950,-0.675
11.267,-0.950,-0.690
11.269,-0.970,-0.690
11.272,-0.960,-0.685
11.275,-0.965,-0.680
11.278,-0.970,-0.675
11.281,-0.975,-0.680
11.283,-0.975,-0.685
11.286,-0.975,-0.705
11.289,-0.970,-0.700
11.292,-0.965,-0.700
11.294,-0.965,-0.685
11.297,-0.955,-0.650
11.300,-0.965,-0.625
11.303,-0.970,-0.625
11.306,-0.985,-0.650
11.308,-0.975,-0.650
11.311,-0.990,-0.670
11.314,-1.000,-0.625
11.317,-1.020,-0.595
11.319,-1.025,-0.575
11.322,-1.020,-0.595
11.325,-1.035,-0.640
11.328,-1.035,-0.655
11.331,-1.030,-0.670
11.333,-1.040,-0.665
11.336,-1.055,-0.650
11.339,-1.060,-0.645
11.342,-1.065,-0.665
11.344,-1.075,-0.675
11.347,-1.060,-0.680
11.350,-1.055,-0.680
11.353,-1.050,-0.665
11.356,-1.040,-0.650
11.358,-1.055,-0.640
11.361,-1.045,-0.625
11.364,-1.050,-0.605
11.367,-1.050,-0.590
11.369,-1.045,-0.595
11.372,-1.060,-0.585
11.375,-1.040,-0.605
11.378,-1.045,-0.640
11.381,-1.045,-0.675
11.383,-1.045,-0.715
11.386,-1.015,-0.795
11.389,-0.965,-0.925
11.392,-0.890,-1.115
11.394,-0.800,-1.360
11.397,-0.690,-1.635
11.400,-0.550,-1.840
11.403,-0.420,-1.910
11.406,-0.320,-1.870
11.408,-0.240,-1.710
11.411,-0.185,-1.535
11.414,-0.150,-1.330
11.417,-0.105,-1.165
11.419,-0.075,-1.040
11.422,-0.045,-0.950
11.425,-0.045,-0.890
11.428,-0.090,-0.815
11.431,-0.140,-0.750
11.433,-0.225,-0.695
11.436,-0.315,-0.665
11.439,-0.430,-0.655
11.442,-0.550,-0.645
11.444,-0.675,-0.625
11.447,-0.765,-0.610
11.450,-0.835,-0.595
11.453,-0.895,-0.565
11.456,-0.945,-0.575
11.458,-0.990,-0.560
11.461,-1.040,-0.570
11.464,-1.080,-0.590
11.467,-1.115,-0.590
11.469,-1.135,-0.595
11.472,-1.160,-0.590
11.475,-1.155,-0.590
11.478,-1.155,-0.580
11.481,-1.150,-0.575
11.483,-1.165,-0.580
11.486,-1.170,-0.570
11.489,-1.175,-0.570
11.492,-1.180,-0.560
11.494,-1.165,-0.545
11.497,-1.155,-0.550
11.500,-1.155,-0.555
11.503,-1.160,-0.550
11.506,-1.160,-0.560
11.508,-1.170,-0.560
11.511,-1.175,-0.560
11.514,-1.165,-0.570
11.517,-1.170,-0.565
11.519,-1.195,-0.560
11.522,-1.190,-0.555
11.525,-1.185,-0.550
11.528,-1.180,-0.530
11.531,-1.155,-0.535
11.533,-1.160,-0.540
11.536,-1.165,-0.550
11.539,-1.170,-0.555
11.542,-1.175,-0.575
11.544,-1.200,-0.580
11.547,-1.205,-0.585
11.550,-1.195,-0.580
11.553,-1.165,-0.560
11.556,-1.160,-0.550
11.558,-1.145,-0.550
11.561,-1.135,-0.545
11.564,-1.135,-0.545
11.567,-1.145,-0.535
11.569,-1.145,-0.555
11.572,-1.145,-0.575
11.575,-1.155,-0.580
11.578,-1.175,-0.575
11.581,-1.165,-0.580
11.583,-1.170,-0.570
11.586,-1.160,-0.555
11.589,-1.170,-0.555
11.592,-1.155,-0.550
11.594,-1.155,-0.550
11.597,-1.150,-0.560
11.600,-1.140,-0.575
11.603,-1.125,-0.570
11.606,-1.140,-0.575
11.608,-1.145,-0.585
11.611,-1.150,-0.580
11.614,-1.155,-0.570
11.617,-1.165,-0.575
11.619,-1.150,-0.565
11.622,-1.140,-0.560
11.625,-1.130,-0.540
11.628,-1.125,-0.545
11.631,-1.115,-0.540
11.633,-1.110,-0.550
11.636,-1.110,-0.575
11.639,-1.110,-0.595
11.642,-1.120,-0.590
11.644,-1.125,-0.595
11.647,-1.135,-0.575
11.650,-1.140,-0.565
11.653,-1.140,-0.550
11.656,-1.145,-0.550
11.658,-1.130,-0.550
11.661,-1.125,-0.530
11.664,-1.125,-0.550
11.667,-1.135,-0.570
11.669,-1.130,-0.575
11.672,-1.140,-0.590
11.675,-1.150,-0.585
11.678,-1.155,-0.590
11.681,-1.165,-0.600
11.683,-1.170,-0.605
11.686,-1.175,-0.605
11.689,-1.170,-0.575
11.692,-1.175,-0.555
11.694,-1.160,-0.540
11.697,-1.165,-0.550
11.700,-1.170,-0.550
11.703,-1.195,-0.565
11.706,-1.210,-0.590
11.708,-1.220,-0.620
11.711,-1.225,-0.615
11.714,-1.225,-0.610
11.717,-1.245,-0.610
11.719,-1.250,-0.615
11.722,-1.250,-0.620
11.725,-1.265,-0.615
11.728,-1.275,-0.595
11.731,-1.270,-0.605
11.733,-1.280,-0.590
11.736,-1.290,-0.600
11.739,-1.305,-0.590
11.742,-1.325,-0.605
11.744,-1.345,-0.605
11.747,-1.360,-0.610
11.750,-1.360,-0.625
11.753,-1.380,-0.625
11.756,-1.375,-0.625
11.758,-1.380,-0.640
11.761,-1.370,-0.630
11.764,-1.385,-0.625
11.767,-1.395,-0.635
11.769,-1.395,-0.625
11.772,-1.420,-0.620
11.775,-1.425,-0.620
11.778,-1.430,-0.630
11.781,-1.460,-0.650
11.783,-1.465,-0.670
11.786,-1.475,-0.670
11.789,-1.475,-0.670
11.792,-1.480,-0.645
11.794,-1.475,-0.630
11.797,-1.470,-0.620
11.800,-1.475,-0.625
11.803,-1.485,-0.625
11.806,-1.500,-0.650
11.808,-1.520,-0.655
11.811,-1.520,-0.655
11.814,-1.555,-0.655
11.817,-1.560,-0.635
11.819,-1.550,-0.615
11.822,-1.540,-0.630
11.825,-1.535,-0.640
11.828,-1.525,-0.655
11.831,-1.520,-0.665
11.833,-1.525,-0.665
11.836,-1.545,-0.660
11.839,-1.545,-0.650
11.842,-1.555,-0.645
11.844,-1.565,-0.640
11.847,-1.580,-0.635
11.850,-1.585,-0.660
11.853,-1.585,-0.655
11.856,-1.570,-0.675
11.858,-1.565,-0.680
11.861,-1.555,-0.660
11.864,-1.560,-0.670
11.867,-1.575,-0.655
11.869,-1.590,-0.650
11.872,-1.605,-0.665
11.875,-1.620,-0.665
11.878,-1.620,-0.665
11.881,-1.625,-0.650
11.883,-1.615,-0.645
11.886,-1.625,-0.630
11.889,-1.625,-0.615
11.892,-1.625,-0.615
11.894,-1.620,-0.615
11.897,-1.625,-0.650
11.900,-1.630,-0.665
11.903,-1.630,-0.685
11.906,-1.645,-0.695
11.908,-1.655,-0.705
11.911,-1.655,-0.705
11.914,-1.665,-0.720
11.917,-1.675,-0.725
11.919,-1.665,-0.695
11.922,-1.650,-0.685
11.925,-1.635,-0.665
11.928,-1.635,-0.670
11.931,-1.620,-0.680
11.933,-1.615,-0.680
11.936,-1.620,-0.670
11.939,-1.640,-0.680
11.942,-1.640,-0.700
11.944,-1.670,-0.720
11.947,-1.685,-0.720
11.950,-1.685,-0.690
11.953,-1.690,-0.680
11.956,-1.690,-0.660
11.958,-1.685,-0.660
11.961,-1.665,-0.685
11.964,-1.670,-0.715
11.967,-1.660,-0.730
11.969,-1.665,-0.740
11.972,-1.670,-0.735
11.975,-1.660,-0.735
11.978,-1.665,-0.740
11.981,-1.680,-0.740
11.983,-1.685,-0.735
11.986,-1.700,-0.740
11.989,-1.685,-0.740
11.992,-1.685,-0.720
11.994,-1.660,-0.705
11.997,-1.665,-0.725
12.000,-1.650,-0.730
12.003,-1.670,-0.750
12.006,-1.685,-0.745
12.008,-1.690,-0.745
12.011,-1.700,-0.745
12.014,-1.690,-0.715
12.017,-1.695,-0.720
12.019,-1.695,-0.715
12.022,-1.690,-0.735
12.025,-1.695,-0.735
12.028,-1.680,-0.730
12.031,-1.675,-0.735
12.033,-1.665,-0.745
12.036,-1.665,-0.760
12.039,-1.670,-0.765
12.042,-1.680,-0.775
12.044,-1.710,-0.760
12.047,-1.710,-0.780
12.050,-1.690,-0.770
12.053,-1.680,-0.770
12.056,-1.675,-0.760
12.058,-1.680,-0.755
12.061,-1.670,-0.740
12.064,-1.660,-0.735
12.067,-1.660,-0.745
12.069,-1.660,-0.745
12.072,-1.665,-0.775
12.075,-1.675,-0.780
12.078,-1.685,-0.790
12.081,-1.685,-0.790
12.083,-1.695,-0.780
12.086,-1.695,-0.765
12.089,-1.675,-0.770
12.092,-1.670,-0.755
12.094,-1.650,-0.760
12.097,-1.645,-0.755
12.100,-1.665,-0.750
12.103,-1.660,-0.770
12.106,-1.685,-0.775
12.108,-1.685,-0.790
12.111,-1.685,-0.800
12.114,-1.675,-0.790
12.117,-1.675,-0.770
12.119,-1.655,-0.750
12.122,-1.665,-0.735
12.125,-1.675,-0.730
12.128,-1.670,-0.740
12.131,-1.665,-0.765
12.133,-1.675,-0.785
12.136,-1.680,-0.780
12.139,-1.675,-0.800
12.142,-1.670,-0.800
12.144,-1.670,-0.790
12.147,-1.665,-0.785
12.150,-1.675,-0.775
12.153,-1.670,-0.785
12.156,-1.660,-0.775
12.158,-1.665,-0.775
12.161,-1.670,-0.780
12.164,-1.655,-0.770
12.167,-1.665,-0.780
12.169,-1.665,-0.780
12.172,-1.660,-0.770
12.175,-1.660,-0.790
12.178,-1.680,-0.770
12.181,-1.675,-0.775
12.183,-1.685,-0.775
12.186,-1.685,-0.785
12.189,-1.685,-0.800
12.192,-1.695,-0.785
12.194,-1.675,-0.785
12.197,-1.675,-0.770
12.200,-1.675,-0.755
12.203,-1.690,-0.750
12.206,-1.690,-0.765
12.208,-1.685,-0.775
12.211,-1.685,-0.805
12.214,-1.685,-0.790
12.217,-1.670,-0.795
12.219,-1.665,-0.780
12.222,-1.675,-0.765
12.225,-1.670,-0.765
12.228,-1.655,-0.760
12.231,-1.655,-0.765
12.233,-1.645,-0.780
12.236,-1.655,-0.810
12.239,-1.675,-0.825
12.242,-1.665,-0.855
12.244,-1.655,-0.875
12.247,-1.650,-0.885
12.250,-1.645,-0.855
12.253,-1.645,-0.845
12.256,-1.640,-0.840
12.258,-1.645,-0.810
12.261,-1.640,-0.795
12.264,-1.625,-0.805
12.267,-1.640,-0.825
12.269,-1.655,-0.825
12.272,-1.645,-0.825
12.275,-1.660,-0.840
12.278,-1.665,-0.825
12.281,-1.655,-0.815
12.283,-1.665,-0.790
12.286,-1.670,-0.780
12.289,-1.665,-0.765
12.292,-1.670,-0.760
12.294,-1.675,-0.745
12.297,-1.665,-0.750
12.300,-1.675,-0.760
12.303,-1.690,-0.775
12.306,-1.695,-0.805
12.308,-1.725,-0.805
12.311,-1.715,-0.810
12.314,-1.720,-0.815
12.317,-1.710,-0.800
12.319,-1.695,-0.780
12.322,-1.690,-0.775
12.325,-1.700,-0.745
12.328,-1.705,-0.745
12.331,-1.710,-0.745
12.333,-1.715,-0.760
12.336,-1.730,-0.775
12.339,-1.730,-0.765
12.342,-1.720,-0.775
12.344,-1.725,-0.765
12.347,-1.725,-0.745
12.350,-1.715,-0.745
12.353,-1.700,-0.740
12.356,-1.695,-0.765
12.358,-1.695,-0.800
12.361,-1.680,-0.835
12.364,-1.635,-0.925
12.367,-1.605,-1.040
12.369,-1.540,-1.205
12.372,-1.475,-1.350
12.375,-1.375,-1.525
12.378,-1.290,-1.645
12.381,-1.175,-1.710
12.383,-1.065,-1.695
12.386,-0.980,-1.620
12.389,-0.900,-1.495
12.392,-0.860,-1.340
12.394,-0.830,-1.210
12.397,-0.820,-1.105
12.400,-0.840,-1.030
12.403,-0.890,-0.955
12.406,-0.965,-0.895
12.408,-1.030,-0.845
12.411,-1.100,-0.815
12.414,-1.175,-0.795
12.417,-1.245,-0.800
12.419,-1.315,-0.780
12.422,-1.395,-0.780
12.425,-1.465,-0.765
12.428,-1.540,-0.750
12.431,-1.600,-0.735
12.433,-1.640,-0.730
12.436,-1.685,-0.730
12.439,-1.710,-0.735
12.442,-1.730,-0.735
12.444,-1.720,-0.730
12.447,-1.725,-0.720
12.450,-1.730,-0.730
12.453,-1.730,-0.750
12.456,-1.715,-0.755
12.458,-1.705,-0.750
12.461,-1.685,-0.750
12.464,-1.680,-0.735
12.467,-1.670,-0.735
12.469,-1.685,-0.740
12.472,-1.690,-0.740
12.475,-1.705,-0.745
12.478,-1.710,-0.740
12.481,-1.710,-0.730
12.483,-1.700,-0.735
12.486,-1.700,-0.725
12.489,-1.700,-0.725
12.492,-1.690,-0.710
12.494,-1.685,-0.720
12.497,-1.670,-0.710
12.500,-1.665,-0.720
12.503,-1.670,-0.725
12.506,-1.670,-0.735
12.508,-1.685,-0.725
12.511,-1.700,-0.715
12.514,-1.685,-0.700
12.517,-1.685,-0.690
12.519,-1.670,-0.670
12.522,-1.650,-0.675
12.525,-1.650,-0.680
12.528,-1.650,-0.710
12.531,-1.660,-0.735
12.533,-1.665,-0.755
12.536,-1.660,-0.765
12.539,-1.650,-0.760
12.542,-1.650,-0.755
12.544,-1.660,-0.755
12.547,-1.670,-0.750
12.550,-1.675,-0.745
12.553,-1.650,-0.735
12.556,-1.640,-0.735
12.558,-1.635,-0.725
12.561,-1.630,-0.720
12.564,-1.625,-0.725
12.567,-1.630,-0.725
12.569,-1.625,-0.735
12.572,-1.630,-0.730
12.575,-1.640,-0.730
12.578,-1.640,-0.730
12.581,-1.650,-0.745
12.583,-1.650,-0.745
12.586,-1.635,-0.735
12.589,-1.625,-0.710
12.592,-1.605,-0.705
12.594,-1.595,-0.705
12.597,-1.585,-0.695
12.600,-1.590,-0.720
12.603,-1.595,-0.730
12.606,-1.605,-0.725
12.608,-1.605,-0.740
12.611,-1.620,-0.725
12.614,-1.615,-0.730
12.617,-1.610,-0.730
12.619,-1.595,-0.715
12.622,-1.595,-0.710
12.625,-1.580,-0.710
12.628,-1.570,-0.705
12.631,-1.560,-0.700
12.633,-1.560,-0.710
12.636,-1.565,-0.715
12.639,-1.570,-0.725
12.642,-1.580,-0.725
12.644,-1.575,-0.725
12.647,-1.575,-0.720
12.650,-1.575,-0.705
12.653,-1.575,-0.705
12.656,-1.560,-0.705
12.658,-1.550,-0.710
12.661,-1.545,-0.705
12.664,-1.535,-0.730
12.667,-1.530,-0.745
12.669,-1.550,-0.755
12.672,-1.570,-0.750
12.675,-1.575,-0.745
12.678,-1.580,-0.730
12.681,-1.575,-0.725
12.683,-1.560,-0.725
12.686,-1.565,-0.725
12.689,-1.550,-0.705
12.692,-1.565,-0.695
12.694,-1.570,-0.690
12.697,-1.580,-0.710
12.700,-1.585,-0.715
12.703,-1.575,-0.715
12.706,-1.580,-0.720
12.708,-1.590,-0.720
12.711,-1.600,-0.740
12.714,-1.615,-0.735
12.717,-1.625,-0.750
12.719,-1.625,-0.745
12.722,-1.620,-0.720
12.725,-1.630,-0.685
12.728,-1.615,-0.680
12.731,-1.615,-0.695
12.733,-1.630,-0.695
12.736,-1.640,-0.715
12.739,-1.660,-0.720
12.742,-1.675,-0.730
12.744,-1.680,-0.735
12.747,-1.685,-0.750
12.750,-1.675,-0.760
12.753,-1.675,-0.745
12.756,-1.675,-0.720
12.758,-1.655,-0.720
12.761,-1.655,-0.695
12.764,-1.650,-0.695
12.767,-1.655,-0.705
12.769,-1.665,-0.715
12.772,-1.660,-0.730
12.775,-1.670,-0.745
12.778,-1.655,-0.760
12.781,-1.655,-0.775
12.783,-1.665,-0.755
12.786,-1.665,-0.725
12.789,-1.660,-0.710
12.792,-1.665,-0.705
12.794,-1.660,-0.700
12.797,-1.645,-0.695
12.800,-1.650,-0.700
12.803,-1.665,-0.700
12.806,-1.670,-0.710
12.808,-1.675,-0.715
12.811,-1.670,-0.735
12.814,-1.685,-0.730
12.817,-1.675,-0.720
12.819,-1.660,-0.705
12.822,-1.655,-0.700
12.825,-1.635,-0.685
12.828,-1.620,-0.680
12.831,-1.630,-0.695
12.833,-1.630,-0.705
12.836,-1.615,-0.710
12.839,-1.625,-0.730
12.842,-1.635,-0.720
12.844,-1.655,-0.725
12.847,-1.650,-0.710
12.850,-1.660,-0.705
12.853,-1.670,-0.690
12.856,-1.660,-0.685
12.858,-1.645,-0.685
12.861,-1.635,-0.680
12.864,-1.620,-0.685
12.867,-1.615,-0.680
12.869,-1.610,-0.675
12.872,-1.605,-0.690
12.875,-1.615,-0.710
12.878,-1.615,-0.715
12.881,-1.635,-0.720
12.883,-1.620,-0.730
12.886,-1.620,-0.710
12.889,-1.615,-0.720
12.892,-1.615,-0.710
12.894,-1.600,-0.700
12.897,-1.580,-0.690
12.900,-1.585,-0.685
12.903,-1.575,-0.690
12.906,-1.590,-0.685
12.908,-1.600,-0.685
12.911,-1.615,-0.705
12.914,-1.630,-0.720
12.917,-1.610,-0.730
12.919,-1.610,-0.715
12.922,-1.590,-0.700
12.925,-1.585,-0.695
12.928,-1.580,-0.685
12.931,-1.580,-0.680
12.933,-1.585,-0.690
12.936,-1.590,-0.680
12.939,-1.595,-0.690
12.942,-1.590,-0.705
12.944,-1.585,-0.705
12.947,-1.575,-0.715
12.950,-1.570,-0.720
12.953,-1.565,-0.700
12.956,-1.560,-0.690
12.958,-1.565,-0.690
12.961,-1.560,-0.685
12.964,-1.555,-0.675
12.967,-1.550,-0.685
12.969,-1.555,-0.700
12.972,-1.560,-0.710
12.975,-1.565,-0.705
12.978,-1.575,-0.710
12.981,-1.560,-0.715
12.983,-1.565,-0.710
12.986,-1.560,-0.705
12.989,-1.555,-0.690
12.992,-1.550,-0.695
12.994,-1.530,-0.685
12.997,-1.525,-0.680
13.000,-1.525,-0.675
13.003,-1.525,-0.680
13.006,-1.535,-0.695
13.008,-1.535,-0.695
13.011,-1.535,-0.710
13.014,-1.560,-0.710
13.017,-1.535,-0.695
13.019,-1.535,-0.695
13.022,-1.535,-0.700
13.025,-1.525,-0.680
13.028,-1.505,-0.690
13.031,-1.495,-0.685
13.033,-1.500,-0.690
13.036,-1.510,-0.690
13.039,-1.515,-0.700
13.042,-1.540,-0.690
13.044,-1.535,-0.705
13.047,-1.535,-0.705
13.050,-1.545,-0.715
13.053,-1.545,-0.695
13.056,-1.535,-0.690
13.058,-1.525,-0.670
13.061,-1.515,-0.685
13.064,-1.505,-0.685
13.067,-1.500,-0.680
13.069,-1.495,-0.685
13.072,-1.485,-0.685
13.075,-1.490,-0.705
13.078,-1.515,-0.705
13.081,-1.510,-0.705
13.083,-1.525,-0.700
13.086,-1.525,-0.680
13.089,-1.525,-0.680
13.092,-1.500,-0.660
13.094,-1.485,-0.665
13.097,-1.495,-0.660
13.100,-1.485,-0.695
13.103,-1.480,-0.710
13.106,-1.495,-0.710
13.108,-1.505,-0.705
13.111,-1.505,-0.705
13.114,-1.515,-0.705
13.117,-1.505,-0.690
13.119,-1.495,-0.695
13.122,-1.495,-0.680
13.125,-1.485,-0.675
13.128,-1.485,-0.670
13.131,-1.480,-0.665
13.133,-1.485,-0.655
13.136,-1.485,-0.670
13.139,-1.485,-0.665
13.142,-1.490,-0.695
13.144,-1.485,-0.710
13.147,-1.500,-0.715
13.150,-1.490,-0.720
13.153,-1.485,-0.695
13.156,-1.475,-0.685
13.158,-1.465,-0.675
13.161,-1.450,-0.665
13.164,-1.440,-0.675
13.167,-1.440,-0.675
13.169,-1.455,-0.655
13.172,-1.450,-0.670
13.175,-1.460,-0.675
13.178,-1.470,-0.690
13.181,-1.475,-0.700
13.183,-1.485,-0.695
13.186,-1.480,-0.685
13.189,-1.475,-0.685
13.192,-1.460,-0.685
13.194,-1.445,-0.675
13.197,-1.425,-0.670
13.200,-1.425,-0.685
13.203,-1.435,-0.675
13.206,-1.430,-0.685
13.208,-1.430,-0.680
13.211,-1.415,-0.680
13.214,-1.415,-0.675
13.217,-1.405,-0.685
13.219,-1.385,-0.680
13.222,-1.390,-0.690
13.225,-1.385,-0.690
13.228,-1.385,-0.705
13.231,-1.375,-0.725
13.233,-1.360,-0.740
13.236,-1.355,-0.745
13.239,-1.355,-0.755
13.242,-1.365,-0.750
13.244,-1.380,-0.745
13.247,-1.380,-0.725
13.250,-1.385,-0.740
13.253,-1.395,-0.730
13.256,-1.385,-0.725
13.258,-1.380,-0.705
13.261,-1.345,-0.705
13.264,-1.330,-0.700
13.267,-1.330,-0.715
13.269,-1.340,-0.710
13.272,-1.345,-0.705
13.275,-1.360,-0.705
13.278,-1.360,-0.695
13.281,-1.380,-0.675
13.283,-1.365,-0.670
13.286,-1.375,-0.660
13.289,-1.365,-0.650
13.292,-1.370,-0.650
13.294,-1.385,-0.645
13.297,-1.370,-0.655
13.300,-1.370,-0.650
13.303,-1.380,-0.655
13.306,-1.385,-0.655
13.308,-1.390,-0.665
13.311,-1.405,-0.675
13.314,-1.405,-0.680
13.317,-1.395,-0.665
13.319,-1.380,-0.665
13.322,-1.370,-0.640
13.325,-1.360,-0.635
13.328,-1.340,-0.630
13.331,-1.340,-0.615
13.333,-1.360,-0.620
13.336,-1.350,-0.625
13.339,-1.355,-0.605
13.342,-1.350,-0.620
13.344,-1.345,-0.635
13.347,-1.330,-0.675
13.350,-1.300,-0.735
13.353,-1.265,-0.830
13.356,-1.230,-0.950
13.358,-1.185,-1.055
13.361,-1.110,-1.200
13.364,-1.015,-1.325
13.367,-0.935,-1.475
13.369,-0.845,-1.585
13.372,-0.765,-1.625
13.375,-0.685,-1.610
13.378,-0.635,-1.545
13.381,-0.600,-1.420
13.383,-0.570,-1.260
13.386,-0.555,-1.125
13.389,-0.540,-1.020
13.392,-0.515,-0.935
13.394,-0.490,-0.870
13.397,-0.520,-0.815
13.400,-0.570,-0.730
13.403,-0.625,-0.690
13.406,-0.695,-0.650
13.408,-0.780,-0.640
13.411,-0.875,-0.640
13.414,-0.960,-0.645
13.417,-1.045,-0.620
13.419,-1.115,-0.605
13.422,-1.190,-0.585
13.425,-1.225,-0.570
13.428,-1.250,-0.555
13.431,-1.260,-0.555
13.433,-1.270,-0.560
13.436,-1.280,-0.565
13.439,-1.280,-0.565
13.442,-1.280,-0.565
13.444,-1.280,-0.580
13.447,-1.285,-0.590
13.450,-1.290,-0.595
13.453,-1.290,-0.580
13.456,-1.280,-0.560
13.458,-1.265,-0.550
13.461,-1.260,-0.555
13.464,-1.245,-0.565
13.467,-1.250,-0.550
13.469,-1.255,-0.560
13.472,-1.260,-0.565
13.475,-1.260,-0.565
13.478,-1.270,-0.555
13.481,-1.275,-0.565
13.483,-1.265,-0.570
13.486,-1.255,-0.570
13.489,-1.250,-0.560
13.492,-1.245,-0.555
13.494,-1.235,-0.540
13.497,-1.235,-0.535
13.500,-1.230,-0.545
13.503,-1.225,-0.530
13.506,-1.225,-0.560
13.508,-1.230,-0.550
13.511,-1.220,-0.560
13.514,-1.225,-0.570
13.517,-1.220,-0.560
13.519,-1.220,-0.550
13.522,-1.220,-0.545
13.525,-1.205,-0.555
13.528,-1.200,-0.545
13.531,-1.195,-0.555
13.533,-1.195,-0.565
13.536,-1.190,-0.560
13.539,-1.190,-0.570
13.542,-1.195,-0.580
13.544,-1.195,-0.575
13.547,-1.185,-0.570
13.550,-1.185,-0.565
13.553,-1.180,-0.550
13.556,-1.165,-0.540
13.558,-1.170,-0.535
13.561,-1.160,-0.525
13.564,-1.155,-0.535
13.567,-1.170,-0.550
13.569,-1.165,-0.550
13.572,-1.170,-0.575
13.575,-1.160,-0.580
13.578,-1.160,-0.570
13.581,-1.165,-0.570
13.583,-1.175,-0.560
13.586,-1.160,-0.560
13.589,-1.150,-0.555
13.592,-1.140,-0.550
13.594,-1.125,-0.545
13.597,-1.110,-0.550
13.600,-1.110,-0.550
13.603,-1.115,-0.540
13.606,-1.110,-0.550
13.608,-1.110,-0.550
13.611,-1.125,-0.565
13.614,-1.130,-0.575
13.617,-1.130,-0.570
13.619,-1.125,-0.555
13.622,-1.115,-0.545
13.625,-1.105,-0.540
13.628,-1.085,-0.530
13.631,-1.070,-0.540
13.633,-1.070,-0.555
13.636,-1.085,-0.555
13.639,-1.060,-0.570
13.642,-1.070,-0.570
13.644,-1.070,-0.570
13.647,-1.080,-0.570
13.650,-1.065,-0.570
13.653,-1.070,-0.565
13.656,-1.070,-0.570
13.658,-1.070,-0.565
13.661,-1.050,-0.565
13.664,-1.045,-0.550
13.667,-1.055,-0.565
13.669,-1.045,-0.560
13.672,-1.050,-0.565
13.675,-1.070,-0.580
13.678,-1.065,-0.590
13.681,-1.085,-0.595
13.683,-1.085,-0.600
13.686,-1.080,-0.595
13.689,-1.070,-0.580
13.692,-1.060,-0.565
13.694,-1.060,-0.565
13.697,-1.055,-0.555
13.700,-1.065,-0.565
13.703,-1.070,-0.570
13.706,-1.075,-0.595
13.708,-1.095,-0.580
13.711,-1.110,-0.580
13.714,-1.105,-0.580
13.717,-1.120,-0.580
13.719,-1.130,-0.585
13.722,-1.125,-0.585
13.725,-1.130,-0.585
13.728,-1.130,-0.585
13.731,-1.125,-0.585
13.733,-1.135,-0.585
13.736,-1.125,-0.590
13.739,-1.125,-0.585
13.742,-1.130,-0.595
13.744,-1.145,-0.605
13.747,-1.165,-0.605
13.750,-1.175,-0.610
13.753,-1.185,-0.585
13.756,-1.170,-0.590
13.758,-1.170,-0.585
13.761,-1.160,-0.570
13.764,-1.155,-0.575
13.767,-1.155,-0.580
13.769,-1.155,-0.580
13.772,-1.160,-0.585
13.775,-1.155,-0.590
13.778,-1.165,-0.585
13.781,-1.170,-0.600
13.783,-1.165,-0.585
13.786,-1.175,-0.585
13.789,-1.160,-0.585
13.792,-1.155,-0.580
13.794,-1.150,-0.565
13.797,-1.140,-0.570
13.800,-1.165,-0.560
13.803,-1.145,-0.560
13.806,-1.165,-0.575
13.808,-1.155,-0.575
13.811,-1.165,-0.580
13.814,-1.170,-0.580
13.817,-1.170,-0.565
13.819,-1.160,-0.570
13.822,-1.160,-0.555
13.825,-1.160,-0.540
13.828,-1.165,-0.545
13.831,-1.160,-0.525
13.833,-1.160,-0.545
13.836,-1.170,-0.535
13.839,-1.165,-0.560
13.842,-1.180,-0.575
13.844,-1.180,-0.575
13.847,-1.175,-0.575
13.850,-1.175,-0.580
13.853,-1.180,-0.570
13.856,-1.185,-0.555
13.858,-1.185,-0.540
13.861,-1.175,-0.540
13.864,-1.160,-0.530
13.867,-1.150,-0.535
13.869,-1.160,-0.535
13.872,-1.155,-0.545
13.875,-1.175,-0.550
13.878,-1.195,-0.570
13.881,-1.200,-0.575
13.883,-1.205,-0.575
13.886,-1.205,-0.560
13.889,-1.185,-0.555
13.892,-1.180,-0.550
13.894,-1.160,-0.535
13.897,-1.160,-0.535
13.900,-1.150,-0.535
13.903,-1.150,-0.535
13.906,-1.160,-0.545
13.908,-1.160,-0.555
13.911,-1.180,-0.565
13.914,-1.200,-0.570
13.917,-1.200,-0.580
13.919,-1.185,-0.575
13.922,-1.195,-0.565
13.925,-1.150,-0.545
13.928,-1.145,-0.530
13.931,-1.135,-0.535
13.933,-1.130,-0.535
13.936,-1.135,-0.545
13.939,-1.140,-0.555
13.942,-1.160,-0.575
13.944,-1.170,-0.585
13.947,-1.185,-0.595
13.950,-1.170,-0.580
13.953,-1.165,-0.565
13.956,-1.150,-0.555
13.958,-1.145,-0.545
13.961,-1.140,-0.530
13.964,-1.140,-0.535
13.967,-1.140,-0.545
13.969,-1.145,-0.555
13.972,-1.145,-0.555
13.975,-1.145,-0.555
13.978,-1.150,-0.565
13.981,-1.145,-0.565
13.983,-1.160,-0.560
13.986,-1.150,-0.550
13.989,-1.160,-0.550
13.992,-1.160,-0.550
13.994,-1.150,-0.555
13.997,-1.140,-0.565
14.000,-1.125,-0.555
14.003,-1.125,-0.565
14.006,-1.125,-0.560
14.008,-1.130,-0.565
14.011,-1.135,-0.580
14.014,-1.145,-0.585
14.017,-1.145,-0.585
14.019,-1.145,-0.570
14.022,-1.150,-0.560
14.025,-1.150,-0.560
14.028,-1.150,-0.560
14.031,-1.130,-0.560
14.033,-1.115,-0.560
14.036,-1.115,-0.555
14.039,-1.100,-0.560
14.042,-1.110,-0.570
14.044,-1.115,-0.585
14.047,-1.110,-0.575
14.050,-1.130,-0.580
14.053,-1.125,-0.570
14.056,-1.125,-0.570
14.058,-1.120,-0.545
14.061,-1.115,-0.545
14.064,-1.100,-0.540
14.067,-1.110,-0.550
14.069,-1.120,-0.565
14.072,-1.115,-0.570
14.075,-1.110,-0.570
14.078,-1.105,-0.580
14.081,-1.110,-0.580
14.083,-1.100,-0.570
14.086,-1.105,-0.575
14.089,-1.115,-0.555
14.092,-1.110,-0.550
14.094,-1.095,-0.550
14.097,-1.090,-0.560
14.100,-1.100,-0.555
14.103,-1.095,-0.550
14.106,-1.110,-0.555
14.108,-1.115,-0.560
14.111,-1.125,-0.570
14.114,-1.125,-0.570
14.117,-1.120,-0.565
14.119,-1.110,-0.570
14.122,-1.105,-0.565
14.125,-1.095,-0.565
14.128,-1.095,-0.560
14.131,-1.085,-0.550
14.133,-1.070,-0.555
14.136,-1.070,-0.555
14.139,-1.070,-0.555
14.142,-1.080,-0.565
14.144,-1.095,-0.565
14.147,-1.100,-0.575
14.150,-1.115,-0.570
14.153,-1.110,-0.560
14.156,-1.105,-0.555
14.158,-1.090,-0.550
14.161,-1.085,-0.555
14.164,-1.070,-0.550
14.167,-1.060,-0.555
14.169,-1.065,-0.555
14.172,-1.060,-0.565
14.175,-1.075,-0.560
14.178,-1.080,-0.565
14.181,-1.080,-0.565
14.183,-1.090,-0.570
14.186,-1.080,-0.580
14.189,-1.080,-0.565
14.192,-1.060,-0.555
14.194,-1.050,-0.540
14.197,-1.040,-0.550
14.200,-1.050,-0.550
14.203,-1.070,-0.560
14.206,-1.060,-0.565
14.208,-1.070,-0.570
14.211,-1.065,-0.570
14.214,-1.050,-0.585
14.217,-1.040,-0.565
14.219,-1.050,-0.560
14.222,-1.040,-0.550
14.225,-1.035,-0.550
14.228,-1.035,-0.535
14.231,-1.035,-0.535
14.233,-1.025,-0.530
14.236,-1.005,-0.540
14.239,-1.005,-0.545
14.242,-0.985,-0.555
14.244,-0.975,-0.575
14.247,-0.980,-0.595
14.250,-0.990,-0.620
14.253,-0.985,-0.635
14.256,-0.995,-0.630
14.258,-0.980,-0.640
14.261,-0.965,-0.635
14.264,-0.950,-0.610
14.267,-0.945,-0.605
14.269,-0.960,-0.605
14.272,-0.960,-0.610
14.275,-0.965,-0.610
14.278,-0.960,-0.630
14.281,-0.970,-0.630
14.283,-0.965,-0.630
14.286,-0.980,-0.615
14.289,-0.970,-0.585
14.292,-0.950,-0.575
14.294,-0.955,-0.580
14.297,-0.965,-0.565
14.300,-0.950,-0.555
14.303,-0.955,-0.550
14.306,-0.955,-0.550
14.308,-0.965,-0.555
14.311,-0.975,-0.555
14.314,-0.975,-0.570
14.317,-0.985,-0.560
14.319,-0.990,-0.545
14.322,-0.990,-0.540
14.325,-0.990,-0.530
14.328,-0.985,-0.525
14.331,-0.980,-0.520
14.333,-0.980,-0.535
14.336,-0.965,-0.535
14.339,-0.975,-0.545
14.342,-0.980,-0.560
14.344,-0.995,-0.560
14.347,-0.990,-0.560
14.350,-0.975,-0.550
14.353,-0.970,-0.525
14.356,-0.960,-0.510
14.358,-0.950,-0.485
14.361,-0.940,-0.485
14.364,-0.925,-0.480
14.367,-0.920,-0.515
14.369,-0.910,-0.565
14.372,-0.885,-0.655
14.375,-0.850,-0.760
14.378,-0.805,-0.920
14.381,-0.730,-1.080
14.383,-0.645,-1.235
14.386,-0.570,-1.395
14.389,-0.460,-1.525
14.392,-0.355,-1.580
14.394,-0.255,-1.565
14.397,-0.160,-1.505
14.400,-0.110,-1.385
14.403,-0.095,-1.245
14.406,-0.070,-1.130
14.408,-0.050,-1.030
14.411,-0.045,-0.940
14.414,-0.040,-0.870
14.417,-0.090,-0.805
14.419,-0.145,-0.740
14.422,-0.200,-0.660
14.425,-0.265,-0.595
14.428,-0.350,-0.540
14.431,-0.400,-0.510
14.433,-0.500,-0.500
14.436,-0.585,-0.510
14.439,-0.665,-0.500
14.442,-0.735,-0.520
14.444,-0.815,-0.525
14.447,-0.865,-0.520
14.450,-0.900,-0.515
14.453,-0.915,-0.510
14.456,-0.920,-0.485
14.458,-0.910,-0.465
14.461,-0.890,-0.465
14.464,-0.870,-0.465
14.467,-0.865,-0.465
14.469,-0.875,-0.470
14.472,-0.860,-0.485
14.475,-0.870,-0.490
14.478,-0.880,-0.485
14.481,-0.880,-0.480
14.483,-0.885,-0.490
14.486,-0.895,-0.460
14.489,-0.880,-0.465
14.492,-0.880,-0.470
14.494,-0.870,-0.470
14.497,-0.850,-0.470
14.500,-0.840,-0.470
14.503,-0.835,-0.475
14.506,-0.835,-0.485
14.508,-0.835,-0.490
14.511,-0.840,-0.500
14.514,-0.845,-0.490
14.517,-0.855,-0.485
14.519,-0.850,-0.480
14.522,-0.840,-0.470
14.525,-0.830,-0.455
14.528,-0.835,-0.460
14.531,-0.825,-0.465
14.533,-0.815,-0.460
14.536,-0.800,-0.475
14.539,-0.800,-0.480
14.542,-0.810,-0.485
14.544,-0.820,-0.495
14.547,-0.835,-0.510
14.550,-0.840,-0.510
14.553,-0.840,-0.515
14.556,-0.825,-0.490
14.558,-0.795,-0.485
14.561,-0.775,-0.470
14.564,-0.765,-0.470
14.567,-0.765,-0.475
14.569,-0.765,-0.480
14.572,-0.785,-0.490
14.575,-0.800,-0.490
14.578,-0.815,-0.485
14.581,-0.810,-0.480
14.583,-0.795,-0.485
14.586,-0.790,-0.480
14.589,-0.775,-0.475
14.592,-0.770,-0.475
14.594,-0.760,-0.475
14.597,-0.740,-0.485
14.600,-0.740,-0.480
14.603,-0.725,-0.490
14.606,-0.730,-0.490
14.608,-0.740,-0.495
14.611,-0.740,-0.490
14.614,-0.745,-0.505
14.617,-0.755,-0.500
14.619,-0.740,-0.495
14.622,-0.740,-0.475
14.625,-0.720,-0.485
14.628,-0.725,-0.475
14.631,-0.715,-0.470
14.633,-0.720,-0.480
14.636,-0.715,-0.495
14.639,-0.715,-0.490
14.642,-0.715,-0.485
14.644,-0.700,-0.485
14.647,-0.705,-0.490
14.650,-0.705,-0.485
14.653,-0.695,-0.480
14.656,-0.695,-0.485
14.658,-0.690,-0.475
14.661,-0.700,-0.470
14.664,-0.675,-0.480
14.667,-0.675,-0.475
14.669,-0.665,-0.480
14.672,-0.685,-0.485
14.675,-0.685,-0.495
14.678,-0.690,-0.510
14.681,-0.685,-0.505
14.683,-0.705,-0.495
14.686,-0.710,-0.495
14.689,-0.720,-0.475
14.692,-0.690,-0.470
14.694,-0.705,-0.470
14.697,-0.685,-0.490
14.700,-0.680,-0.490
14.703,-0.695,-0.490
14.706,-0.710,-0.480
14.708,-0.725,-0.485
14.711,-0.715,-0.500
14.714,-0.720,-0.515
14.717,-0.735,-0.510
14.719,-0.745,-0.505
14.722,-0.745,-0.495
14.725,-0.745,-0.490
14.728,-0.755,-0.480
14.731,-0.745,-0.480
14.733,-0.745,-0.485
14.736,-0.750,-0.485
14.739,-0.755,-0.515
14.742,-0.770,-0.515
14.744,-0.785,-0.515
14.747,-0.800,-0.525
14.750,-0.805,-0.525
14.753,-0.805,-0.515
14.756,-0.805,-0.505
14.758,-0.800,-0.500
14.761,-0.795,-0.495
14.764,-0.785,-0.490
14.767,-0.785,-0.495
14.769,-0.785,-0.485
14.772,-0.785,-0.500
14.775,-0.785,-0.515
14.778,-0.785,-0.525
14.781,-0.795,-0.520
14.783,-0.810,-0.515
14.786,-0.820,-0.510
14.789,-0.815,-0.515
14.792,-0.805,-0.505
14.794,-0.795,-0.485
14.797,-0.780,-0.495
14.800,-0.775,-0.495
14.803,-0.785,-0.485
14.806,-0.795,-0.495
14.808,-0.805,-0.500
14.811,-0.810,-0.510
14.814,-0.820,-0.515
14.817,-0.805,-0.515
14.819,-0.800,-0.505
14.822,-0.790,-0.505
14.825,-0.805,-0.515
14.828,-0.810,-0.480
14.831,-0.785,-0.485
14.833,-0.790,-0.495
14.836,-0.795,-0.480
14.839,-0.795,-0.505
14.842,-0.795,-0.505
14.844,-0.800,-0.515
14.847,-0.800,-0.510
14.850,-0.810,-0.510
14.853,-0.820,-0.495
14.856,-0.815,-0.485
14.858,-0.815,-0.480
14.861,-0.810,-0.480
14.864,-0.800,-0.490
14.867,-0.815,-0.480
14.869,-0.805,-0.505
14.872,-0.815,-0.495
14.875,-0.815,-0.500
14.878,-0.810,-0.505
14.881,-0.815,-0.505
14.883,-0.840,-0.495
14.886,-0.820,-0.500
14.889,-0.810,-0.505
14.892,-0.820,-0.505
14.894,-0.815,-0.515
14.897,-0.805,-0.495
14.900,-0.810,-0.505
14.903,-0.795,-0.485
14.906,-0.800,-0.505
14.908,-0.820,-0.525
14.911,-0.815,-0.540
14.914,-0.810,-0.525
14.917,-0.810,-0.530
14.919,-0.805,-0.525
14.922,-0.815,-0.520
14.925,-0.800,-0.500
14.928,-0.800,-0.505
14.931,-0.795,-0.510
14.933,-0.790,-0.505
14.936,-0.775,-0.500
14.939,-0.780,-0.510
14.942,-0.790,-0.515
14.944,-0.800,-0.535
14.947,-0.810,-0.530
14.950,-0.815,-0.535
14.953,-0.810,-0.525
14.956,-0.805,-0.525
14.958,-0.800,-0.515
14.961,-0.795,-0.500
14.964,-0.785,-0.490
14.967,-0.775,-0.500
14.969,-0.765,-0.525
14.972,-0.780,-0.535
14.975,-0.795,-0.530
14.978,-0.800,-0.530
14.981,-0.790,-0.530
14.983,-0.800,-0.540
14.986,-0.795,-0.520
14.989,-0.795,-0.515
14.992,-0.785,-0.500
14.994,-0.785,-0.505
14.997,-0.770,-0.500
15.000,-0.770,-0.495
15.003,-0.770,-0.510
15.006,-0.775,-0.545
15.008,-0.780,-0.535
15.011,-0.785,-0.540
15.014,-0.780,-0.550
15.017,-0.780,-0.540
15.019,-0.785,-0.540
15.022,-0.780,-0.525
15.025,-0.755,-0.530
15.028,-0.760,-0.500
15.031,-0.745,-0.515
15.033,-0.755,-0.515
15.036,-0.765,-0.510
15.039,-0.765,-0.520
15.042,-0.765,-0.530
15.044,-0.765,-0.540
15.047,-0.780,-0.550
15.050,-0.765,-0.555
15.053,-0.770,-0.535
15.056,-0.755,-0.530
15.058,-0.760,-0.530
15.061,-0.765,-0.510
15.064,-0.755,-0.515
15.067,-0.745,-0.525
15.069,-0.745,-0.525
15.072,-0.750,-0.540
15.075,-0.755,-0.545
15.078,-0.760,-0.550
15.081,-0.770,-0.550
15.083,-0.765,-0.545
15.086,-0.765,-0.540
15.089,-0.755,-0.530
15.092,-0.755,-0.525
15.094,-0.750,-0.510
15.097,-0.740,-0.510
15.100,-0.730,-0.510
15.103,-0.740,-0.525
15.106,-0.730,-0.525
15.108,-0.745,-0.530
15.111,-0.745,-0.545
15.114,-0.765,-0.550
15.117,-0.770,-0.545
15.119,-0.785,-0.545
15.122,-0.770,-0.540
15.125,-0.750,-0.535
15.128,-0.750,-0.520
15.131,-0.730,-0.520
15.133,-0.720,-0.520
15.136,-0.715,-0.520
15.139,-0.720,-0.535
15.142,-0.715,-0.530
15.144,-0.710,-0.540
15.147,-0.730,-0.545
15.150,-0.735,-0.550
15.153,-0.720,-0.530
15.156,-0.715,-0.525
15.158,-0.715,-0.515
15.161,-0.705,-0.520
15.164,-0.695,-0.520
15.167,-0.700,-0.525
15.169,-0.705,-0.530
15.172,-0.710,-0.555
15.175,-0.720,-0.555
15.178,-0.720,-0.535
15.181,-0.720,-0.535
15.183,-0.695,-0.525
15.186,-0.675,-0.535
15.189,-0.660,-0.530
15.192,-0.650,-0.520
15.194,-0.665,-0.520
15.197,-0.670,-0.515
15.200,-0.665,-0.520
15.203,-0.660,-0.520
15.206,-0.660,-0.520
15.208,-0.660,-0.515
15.211,-0.645,-0.525
15.214,-0.640,-0.515
15.217,-0.640,-0.520
15.219,-0.625,-0.520
15.222,-0.615,-0.510
15.225,-0.590,-0.515
15.228,-0.580,-0.520
15.231,-0.565,-0.520
15.233,-0.570,-0.540
15.236,-0.570,-0.560
15.239,-0.580,-0.580
15.242,-0.570,-0.600
15.244,-0.575,-0.610
15.247,-0.555,-0.610
15.250,-0.565,-0.610
15.253,-0.555,-0.585
15.256,-0.550,-0.580
15.258,-0.535,-0.575
15.261,-0.540,-0.565
15.264,-0.535,-0.570
15.267,-0.525,-0.575
15.269,-0.515,-0.580
15.272,-0.490,-0.570
15.275,-0.495,-0.575
15.278,-0.495,-0.565
15.281,-0.505,-0.560
15.283,-0.510,-0.540
15.286,-0.520,-0.540
15.289,-0.515,-0.535
15.292,-0.530,-0.530
15.294,-0.535,-0.530
15.297,-0.515,-0.525
15.300,-0.515,-0.525
15.303,-0.515,-0.530
15.306,-0.500,-0.530
15.308,-0.520,-0.545
15.311,-0.530,-0.550
15.314,-0.530,-0.550
15.317,-0.530,-0.550
15.319,-0.525,-0.550
15.322,-0.520,-0.540
15.325,-0.510,-0.540
15.328,-0.500,-0.535
15.331,-0.475,-0.530
15.333,-0.460,-0.520
15.336,-0.460,-0.515
15.339,-0.460,-0.515
15.342,-0.460,-0.510
15.344,-0.465,-0.520
15.347,-0.460,-0.505
15.350,-0.455,-0.515
15.353,-0.420,-0.535
15.356,-0.400,-0.595
15.358,-0.375,-0.675
15.361,-0.335,-0.790
15.364,-0.280,-0.945
15.367,-0.205,-1.115
15.369,-0.110,-1.285
15.372,-0.015,-1.460
15.375,0.095,-1.600
15.378,0.195,-1.660
15.381,0.285,-1.640
15.383,0.365,-1.550
15.386,0.420,-1.415
15.389,0.455,-1.250
15.392,0.485,-1.105
15.394,0.520,-0.980
15.397,0.555,-0.885
15.400,0.590,-0.815
15.403,0.580,-0.735
15.406,0.560,-0.675
15.408,0.505,-0.615
15.411,0.460,-0.570
15.414,0.385,-0.525
15.417,0.305,-0.515
15.419,0.225,-0.500
15.422,0.135,-0.500
15.425,0.060,-0.485
15.428,-0.020,-0.485
15.431,-0.105,-0.470
15.433,-0.170,-0.485
15.436,-0.220,-0.460
15.439,-0.275,-0.470
15.442,-0.305,-0.465
15.444,-0.330,-0.470
15.447,-0.320,-0.470
15.450,-0.325,-0.470
15.453,-0.315,-0.450
15.456,-0.315,-0.455
15.458,-0.295,-0.440
15.461,-0.280,-0.430
15.464,-0.275,-0.435
15.467,-0.285,-0.435
15.469,-0.275,-0.440
15.472,-0.275,-0.445
15.475,-0.275,-0.445
15.478,-0.285,-0.450
15.481,-0.290,-0.455
15.483,-0.290,-0.450
15.486,-0.285,-0.435
15.489,-0.290,-0.435
15.492,-0.265,-0.435
15.494,-0.270,-0.415
15.497,-0.245,-0.405
15.500,-0.255,-0.410
15.503,-0.235,-0.430
15.506,-0.250,-0.435
15.508,-0.260,-0.440
15.511,-0.265,-0.445
15.514,-0.250,-0.455
15.517,-0.255,-0.460
15.519,-0.240,-0.440
15.522,-0.235,-0.420
15.525,-0.225,-0.430
15.528,-0.215,-0.420
15.531,-0.210,-0.420
15.533,-0.200,-0.425
15.536,-0.210,-0.420
15.539,-0.205,-0.435
15.542,-0.215,-0.435
15.544,-0.225,-0.450
15.547,-0.220,-0.460
15.550,-0.210,-0.460
15.553,-0.205,-0.450
15.556,-0.200,-0.455
15.558,-0.180,-0.455
15.561,-0.180,-0.435
15.564,-0.170,-0.425
15.567,-0.175,-0.445
15.569,-0.175,-0.430
15.572,-0.180,-0.445
15.575,-0.175,-0.455
15.578,-0.175,-0.455
15.581,-0.190,-0.460
15.583,-0.190,-0.455
15.586,-0.185,-0.455
15.589,-0.185,-0.455
15.592,-0.165,-0.445
15.594,-0.160,-0.445
15.597,-0.150,-0.440
15.600,-0.145,-0.440
15.603,-0.150,-0.440
15.606,-0.150,-0.445
15.608,-0.150,-0.460
15.611,-0.145,-0.450
15.614,-0.140,-0.460
15.617,-0.145,-0.460
15.619,-0.145,-0.455
15.622,-0.135,-0.440
15.625,-0.120,-0.435
15.628,-0.105,-0.435
15.631,-0.110,-0.420
15.633,-0.105,-0.440
15.636,-0.115,-0.450
15.639,-0.100,-0.465
15.642,-0.110,-0.455
15.644,-0.105,-0.485
15.647,-0.115,-0.490
15.650,-0.095,-0.465
15.653,-0.100,-0.460
15.656,-0.095,-0.455
15.658,-0.085,-0.450
15.661,-0.090,-0.460
15.664,-0.090,-0.465
15.667,-0.075,-0.485
15.669,-0.075,-0.485
15.672,-0.065,-0.485
15.675,-0.085,-0.500
15.678,-0.095,-0.495
15.681,-0.095,-0.515
15.683,-0.100,-0.510
15.686,-0.085,-0.505
15.689,-0.085,-0.510
15.692,-0.080,-0.500
15.694,-0.080,-0.515
15.697,-0.075,-0.505
15.700,-0.075,-0.505
15.703,-0.090,-0.515
15.706,-0.090,-0.525
15.708,-0.100,-0.530
15.711,-0.115,-0.530
15.714,-0.125,-0.525
15.717,-0.135,-0.525
15.719,-0.145,-0.525
15.722,-0.150,-0.520
15.725,-0.140,-0.515
15.728,-0.145,-0.495
15.731,-0.150,-0.490
15.733,-0.140,-0.500
15.736,-0.150,-0.505
15.739,-0.170,-0.515
15.742,-0.170,-0.520
15.744,-0.180,-0.525
15.747,-0.180,-0.520
15.750,-0.185,-0.520
15.753,-0.190,-0.510
15.756,-0.185,-0.510
15.758,-0.185,-0.505
15.761,-0.185,-0.485
15.764,-0.175,-0.490
15.767,-0.175,-0.485
15.769,-0.180,-0.500
15.772,-0.175,-0.495
15.775,-0.185,-0.500
15.778,-0.190,-0.505
15.781,-0.200,-0.505
15.783,-0.195,-0.505
15.786,-0.190,-0.495
15.789,-0.195,-0.490
15.792,-0.190,-0.480
15.794,-0.200,-0.475
15.797,-0.180,-0.465
15.800,-0.180,-0.470
15.803,-0.185,-0.465
15.806,-0.185,-0.475
15.808,-0.185,-0.470
15.811,-0.195,-0.485
15.814,-0.210,-0.500
15.817,-0.215,-0.490
15.819,-0.210,-0.495
15.822,-0.215,-0.490
15.825,-0.195,-0.480
15.828,-0.195,-0.465
15.831,-0.180,-0.455
15.833,-0.180,-0.455
15.836,-0.175,-0.450
15.839,-0.190,-0.470
15.842,-0.205,-0.475
15.844,-0.225,-0.500
15.847,-0.235,-0.480
15.850,-0.230,-0.495
15.853,-0.230,-0.465
15.856,-0.225,-0.470
15.858,-0.220,-0.470
15.861,-0.220,-0.465
15.864,-0.220,-0.465
15.867,-0.220,-0.480
15.869,-0.220,-0.480
15.872,-0.225,-0.480
15.875,-0.235,-0.480
15.878,-0.230,-0.490
15.881,-0.240,-0.500
15.883,-0.235,-0.495
15.886,-0.230,-0.495
15.889,-0.225,-0.480
15.892,-0.220,-0.480
15.894,-0.220,-0.470
15.897,-0.215,-0.475
15.900,-0.210,-0.465
15.903,-0.220,-0.485
15.906,-0.210,-0.495
15.908,-0.215,-0.485
15.911,-0.215,-0.515
15.914,-0.220,-0.505
15.917,-0.200,-0.505
15.919,-0.205,-0.500
15.922,-0.200,-0.480
15.925,-0.210,-0.485
15.928,-0.195,-0.470
15.931,-0.180,-0.475
15.933,-0.185,-0.485
15.936,-0.165,-0.485
15.939,-0.170,-0.490
15.942,-0.170,-0.500
15.944,-0.170,-0.505
15.947,-0.190,-0.515
15.950,-0.185,-0.510
15.953,-0.180,-0.510
15.956,-0.180,-0.510
15.958,-0.170,-0.500
15.961,-0.160,-0.490
15.964,-0.150,-0.475
15.967,-0.150,-0.490
15.969,-0.145,-0.485
15.972,-0.145,-0.505
15.975,-0.160,-0.505
15.978,-0.160,-0.505
15.981,-0.175,-0.510
15.983,-0.175,-0.510
15.986,-0.175,-0.500
15.989,-0.165,-0.495
15.992,-0.155,-0.495
15.994,-0.150,-0.485
15.997,-0.145,-0.475
16.000,-0.135,-0.480
16.003,-0.140,-0.495
16.006,-0.145,-0.495
16.008,-0.155,-0.500
16.011,-0.150,-0.495
16.014,-0.160,-0.500
16.017,-0.155,-0.505
16.019,-0.160,-0.495
16.022,-0.150,-0.495
16.025,-0.150,-0.510
16.028,-0.140,-0.485
16.031,-0.130,-0.480
16.033,-0.135,-0.475
16.036,-0.135,-0.480
16.039,-0.125,-0.485
16.042,-0.130,-0.495
16.044,-0.145,-0.510
16.047,-0.140,-0.510
16.050,-0.145,-0.510
16.053,-0.150,-0.500
16.056,-0.150,-0.485
16.058,-0.155,-0.490
16.061,-0.145,-0.480
16.064,-0.125,-0.480
16.067,-0.120,-0.490
16.069,-0.130,-0.480
16.072,-0.125,-0.500
16.075,-0.140,-0.505
16.078,-0.145,-0.505
16.081,-0.155,-0.505
16.083,-0.155,-0.520
16.086,-0.165,-0.505
16.089,-0.165,-0.500
16.092,-0.160,-0.480
16.094,-0.150,-0.485
16.097,-0.120,-0.470
16.100,-0.120,-0.475
16.103,-0.110,-0.500
16.106,-0.115,-0.495
16.108,-0.125,-0.520
16.111,-0.125,-0.510
16.114,-0.140,-0.525
16.117,-0.145,-0.525
16.119,-0.150,-0.515
16.122,-0.140,-0.505
16.125,-0.135,-0.490
16.128,-0.130,-0.500
16.131,-0.115,-0.490
16.133,-0.110,-0.490
16.136,-0.110,-0.495
16.139,-0.120,-0.495
16.142,-0.125,-0.500
16.144,-0.150,-0.515
16.147,-0.130,-0.515
16.150,-0.135,-0.520
16.153,-0.140,-0.510
16.156,-0.125,-0.505
16.158,-0.125,-0.490
16.161,-0.125,-0.485
16.164,-0.120,-0.475
16.167,-0.110,-0.485
16.169,-0.105,-0.495
16.172,-0.105,-0.490
16.175,-0.120,-0.510
16.178,-0.125,-0.515
16.181,-0.130,-0.510
16.183,-0.135,-0.510
16.186,-0.135,-0.500
16.189,-0.125,-0.505
16.192,-0.110,-0.505
16.194,-0.115,-0.490
16.197,-0.105,-0.475
16.200,-0.105,-0.475
16.203,-0.110,-0.485
16.206,-0.120,-0.485
16.208,-0.120,-0.495
16.211,-0.100,-0.505
16.214,-0.100,-0.500
16.217,-0.080,-0.515
16.219,-0.070,-0.525
16.222,-0.075,-0.510
16.225,-0.055,-0.525
16.228,-0.055,-0.540
16.231,-0.055,-0.540
16.233,-0.050,-0.560
16.236,-0.060,-0.575
16.239,-0.070,-0.585
16.242,-0.070,-0.590
16.244,-0.080,-0.595
16.247,-0.075,-0.585
16.250,-0.080,-0.580
16.253,-0.080,-0.570
16.256,-0.080,-0.575
16.258,-0.070,-0.560
16.261,-0.065,-0.555
16.264,-0.060,-0.550
16.267,-0.050,-0.545
16.269,-0.050,-0.535
16.272,-0.060,-0.525
16.275,-0.065,-0.525
16.278,-0.075,-0.525
16.281,-0.095,-0.510
16.283,-0.100,-0.500
16.286,-0.105,-0.510
16.289,-0.105,-0.495
16.292,-0.110,-0.495
16.294,-0.115,-0.490
16.297,-0.125,-0.485
16.300,-0.110,-0.495
16.303,-0.115,-0.495
16.306,-0.110,-0.490
16.308,-0.125,-0.500
16.311,-0.135,-0.510
16.314,-0.145,-0.510
16.317,-0.140,-0.515
16.319,-0.150,-0.510
16.322,-0.160,-0.505
16.325,-0.140,-0.495
16.328,-0.130,-0.480
16.331,-0.120,-0.475
16.333,-0.130,-0.465
16.336,-0.105,-0.470
16.339,-0.105,-0.460
16.342,-0.110,-0.460
16.344,-0.105,-0.505
16.347,-0.105,-0.535
16.350,-0.095,-0.625
16.353,-0.085,-0.755
16.356,-0.055,-0.905
