'Elapsed time','MLII','V1'
'seconds','mV','mV'
0.000,-0.780,-0.735
0.003,-0.780,-0.735
0.006,-0.780,-0.735
0.008,-0.780,-0.735
0.011,-0.780,-0.735
0.014,-0.780,-0.735
0.017,-0.780,-0.735
0.019,-0.780,-0.690
0.022,-0.780,-0.685
0.025,-0.775,-0.715
0.028,-0.755,-0.740
0.031,-0.755,-0.735
0.033,-0.745,-0.675
0.036,-0.745,-0.660
0.039,-0.765,-0.685
0.042,-0.760,-0.750
0.044,-0.745,-0.785
0.047,-0.745,-0.770
0.050,-0.760,-0.705
0.053,-0.760,-0.635
0.056,-0.750,-0.650
0.058,-0.735,-0.705
0.061,-0.705,-0.745
0.064,-0.695,-0.780
0.067,-0.690,-0.735
0.069,-0.705,-0.695
0.072,-0.725,-0.680
0.075,-0.720,-0.710
0.078,-0.700,-0.765
0.081,-0.665,-0.770
0.083,-0.645,-0.735
0.086,-0.610,-0.675
0.089,-0.595,-0.640
0.092,-0.580,-0.670
0.094,-0.550,-0.710
0.097,-0.520,-0.720
0.100,-0.535,-0.665
0.103,-0.540,-0.610
0.106,-0.550,-0.620
0.108,-0.545,-0.665
0.111,-0.535,-0.690
0.114,-0.540,-0.685
0.117,-0.545,-0.635
0.119,-0.560,-0.590
0.122,-0.575,-0.620
0.125,-0.585,-0.665
0.128,-0.580,-0.680
0.131,-0.580,-0.660
0.133,-0.590,-0.595
0.136,-0.605,-0.580
0.139,-0.605,-0.610
0.142,-0.605,-0.695
0.144,-0.610,-0.745
0.147,-0.610,-0.740
0.150,-0.645,-0.695
0.153,-0.685,-0.660
0.156,-0.690,-0.680
0.158,-0.715,-0.700
0.161,-0.700,-0.755
0.164,-0.715,-0.760
0.167,-0.735,-0.705
0.169,-0.755,-0.690
0.172,-0.790,-0.675
0.175,-0.775,-0.745
0.178,-0.795,-0.790
0.181,-0.785,-0.770
0.183,-0.795,-0.715
0.186,-0.810,-0.660
0.189,-0.780,-0.645
0.192,-0.765,-0.700
0.194,-0.755,-0.745
0.197,-0.740,-0.760
0.200,-0.740,-0.720
0.203,-0.785,-0.690
0.206,-0.825,-0.680
0.208,-0.840,-0.740
0.211,-0.890,-0.785
0.214,-0.925,-0.800
0.217,-0.960,-0.765
0.219,-0.965,-0.705
0.222,-0.950,-0.665
0.225,-0.870,-0.660
0.228,-0.730,-0.625
0.231,-0.555,-0.555
0.233,-0.345,-0.445
0.236,-0.140,-0.375
0.239,0.050,-0.360
0.242,0.235,-0.405
0.244,0.410,-0.420
0.247,0.570,-0.420
0.250,0.705,-0.405
0.253,0.800,-0.425
0.256,0.845,-0.540
0.258,0.855,-0.695
0.261,0.845,-0.860
0.264,0.805,-0.925
0.267,0.730,-0.890
0.269,0.650,-0.815
0.272,0.530,-0.735
0.275,0.340,-0.665
0.278,0.065,-0.595
0.281,-0.260,-0.585
0.283,-0.555,-0.600
0.286,-0.745,-0.680
0.289,-0.820,-0.750
0.292,-0.815,-0.820
0.294,-0.755,-0.815
0.297,-0.700,-0.740
0.300,-0.670,-0.675
0.303,-0.670,-0.700
0.306,-0.695,-0.730
0.308,-0.740,-0.745
0.311,-0.770,-0.765
0.314,-0.840,-0.695
0.317,-0.865,-0.660
0.319,-0.860,-0.690
0.322,-0.845,-0.710
0.325,-0.820,-0.705
0.328,-0.810,-0.650
0.331,-0.830,-0.625
0.333,-0.855,-0.615
0.336,-0.855,-0.680
0.339,-0.840,-0.720
0.342,-0.845,-0.725
0.344,-0.830,-0.680
0.347,-0.840,-0.625
0.350,-0.850,-0.620
0.353,-0.840,-0.655
0.356,-0.815,-0.690
0.358,-0.800,-0.690
0.361,-0.810,-0.625
0.364,-0.820,-0.595
0.367,-0.850,-0.605
0.369,-0.860,-0.660
0.372,-0.840,-0.715
0.375,-0.830,-0.710
0.378,-0.835,-0.655
0.381,-0.840,-0.605
0.383,-0.845,-0.605
0.386,-0.835,-0.620
0.389,-0.805,-0.670
0.392,-0.800,-0.635
0.394,-0.800,-0.615
0.397,-0.805,-0.550
0.400,-0.820,-0.550
0.403,-0.830,-0.615
0.406,-0.825,-0.660
0.408,-0.810,-0.670
0.411,-0.840,-0.630
0.414,-0.865,-0.570
0.417,-0.865,-0.550
0.419,-0.855,-0.575
0.422,-0.820,-0.615
0.425,-0.800,-0.605
0.428,-0.770,-0.535
0.431,-0.785,-0.500
0.433,-0.780,-0.495
0.436,-0.795,-0.525
0.439,-0.790,-0.590
0.442,-0.790,-0.595
0.444,-0.800,-0.550
0.447,-0.820,-0.520
0.450,-0.820,-0.505
0.453,-0.800,-0.545
0.456,-0.765,-0.575
0.458,-0.715,-0.565
0.461,-0.730,-0.485
0.464,-0.740,-0.450
0.467,-0.755,-0.465
0.469,-0.765,-0.520
0.472,-0.770,-0.605
0.475,-0.755,-0.625
0.478,-0.765,-0.575
0.481,-0.765,-0.535
0.483,-0.760,-0.520
0.486,-0.760,-0.550
0.489,-0.740,-0.595
0.492,-0.720,-0.605
0.494,-0.715,-0.575
0.497,-0.725,-0.535
0.500,-0.725,-0.545
0.503,-0.720,-0.600
0.506,-0.720,-0.660
0.508,-0.715,-0.650
0.511,-0.735,-0.630
0.514,-0.740,-0.600
0.517,-0.755,-0.630
0.519,-0.735,-0.665
0.522,-0.725,-0.705
0.525,-0.720,-0.670
0.528,-0.720,-0.620
0.531,-0.755,-0.595
0.533,-0.770,-0.660
0.536,-0.770,-0.725
0.539,-0.740,-0.750
0.542,-0.740,-0.720
0.544,-0.735,-0.670
0.547,-0.755,-0.665
0.550,-0.760,-0.685
0.553,-0.760,-0.745
0.556,-0.765,-0.750
0.558,-0.745,-0.730
0.561,-0.730,-0.655
0.564,-0.750,-0.650
0.567,-0.740,-0.690
0.569,-0.740,-0.750
0.572,-0.745,-0.775
0.575,-0.720,-0.740
0.578,-0.760,-0.705
0.581,-0.785,-0.695
0.583,-0.780,-0.720
0.586,-0.785,-0.770
0.589,-0.755,-0.770
0.592,-0.750,-0.725
0.594,-0.755,-0.655
0.597,-0.770,-0.655
0.600,-0.780,-0.695
0.603,-0.770,-0.780
0.606,-0.765,-0.815
0.608,-0.775,-0.780
0.611,-0.795,-0.730
0.614,-0.805,-0.690
0.617,-0.830,-0.725
0.619,-0.820,-0.760
0.622,-0.800,-0.780
0.625,-0.785,-0.735
0.628,-0.785,-0.700
0.631,-0.800,-0.670
0.633,-0.805,-0.715
0.636,-0.810,-0.765
0.639,-0.825,-0.800
0.642,-0.825,-0.760
0.644,-0.850,-0.720
0.647,-0.870,-0.720
0.650,-0.880,-0.760
0.653,-0.860,-0.795
0.656,-0.850,-0.800
0.658,-0.840,-0.730
0.661,-0.835,-0.680
0.664,-0.855,-0.675
0.667,-0.855,-0.730
0.669,-0.850,-0.775
0.672,-0.840,-0.795
0.675,-0.845,-0.770
0.678,-0.855,-0.725
0.681,-0.865,-0.700
0.683,-0.865,-0.750
0.686,-0.840,-0.800
0.689,-0.825,-0.785
0.692,-0.820,-0.740
0.694,-0.810,-0.695
0.697,-0.820,-0.690
0.700,-0.810,-0.755
0.703,-0.775,-0.800
0.706,-0.790,-0.785
0.708,-0.785,-0.750
0.711,-0.800,-0.715
0.714,-0.815,-0.730
0.717,-0.790,-0.780
0.719,-0.755,-0.805
0.722,-0.720,-0.785
0.725,-0.710,-0.720
0.728,-0.685,-0.690
0.731,-0.690,-0.685
0.733,-0.670,-0.750
0.736,-0.655,-0.800
0.739,-0.625,-0.775
0.742,-0.610,-0.720
0.744,-0.630,-0.675
0.747,-0.630,-0.680
0.750,-0.635,-0.710
0.753,-0.630,-0.740
0.756,-0.610,-0.730
0.758,-0.605,-0.675
0.761,-0.615,-0.605
0.764,-0.625,-0.615
0.767,-0.625,-0.680
0.769,-0.640,-0.725
0.772,-0.630,-0.745
0.775,-0.655,-0.715
0.778,-0.665,-0.665
0.781,-0.690,-0.655
0.783,-0.685,-0.695
0.786,-0.685,-0.745
0.789,-0.675,-0.760
0.792,-0.680,-0.730
0.794,-0.705,-0.665
0.797,-0.740,-0.665
0.800,-0.755,-0.725
0.803,-0.765,-0.805
0.806,-0.790,-0.845
0.808,-0.800,-0.815
0.811,-0.830,-0.775
0.814,-0.850,-0.745
0.817,-0.855,-0.760
0.819,-0.845,-0.790
0.822,-0.840,-0.790
0.825,-0.840,-0.770
0.828,-0.855,-0.710
0.831,-0.855,-0.715
0.833,-0.865,-0.775
0.836,-0.855,-0.825
0.839,-0.855,-0.840
0.842,-0.850,-0.795
0.844,-0.875,-0.760
0.847,-0.880,-0.745
0.850,-0.900,-0.785
0.853,-0.910,-0.840
0.856,-0.925,-0.830
0.858,-0.975,-0.785
0.861,-1.035,-0.735
0.864,-1.070,-0.740
0.867,-1.070,-0.785
0.869,-1.020,-0.805
0.872,-0.915,-0.785
0.875,-0.805,-0.700
0.878,-0.675,-0.585
0.881,-0.490,-0.520
0.883,-0.280,-0.515
0.886,-0.070,-0.490
0.889,0.135,-0.450
0.892,0.315,-0.375
0.894,0.480,-0.330
0.897,0.615,-0.360
0.900,0.715,-0.500
0.903,0.790,-0.630
0.906,0.795,-0.765
0.908,0.770,-0.835
0.911,0.710,-0.880
0.914,0.635,-0.885
0.917,0.550,-0.835
0.919,0.425,-0.745
0.922,0.190,-0.610
0.925,-0.135,-0.535
0.928,-0.450,-0.540
0.931,-0.690,-0.685
0.933,-0.830,-0.830
0.936,-0.870,-0.915
0.939,-0.870,-0.910
0.942,-0.840,-0.845
0.944,-0.800,-0.800
0.947,-0.790,-0.800
0.950,-0.775,-0.830
0.953,-0.780,-0.835
0.956,-0.820,-0.795
0.958,-0.865,-0.755
0.961,-0.890,-0.715
0.964,-0.915,-0.750
0.967,-0.920,-0.810
0.969,-0.930,-0.865
0.972,-0.915,-0.840
0.975,-0.935,-0.765
0.978,-0.950,-0.730
0.981,-0.970,-0.740
0.983,-0.955,-0.785
0.986,-0.935,-0.795
0.989,-0.920,-0.780
0.992,-0.920,-0.700
0.994,-0.925,-0.670
0.997,-0.905,-0.685
1.000,-0.905,-0.750
1.003,-0.890,-0.780
1.006,-0.905,-0.785
1.008,-0.915,-0.750
1.011,-0.930,-0.700
1.014,-0.975,-0.690
1.017,-0.945,-0.720
1.019,-0.935,-0.775
1.022,-0.905,-0.775
1.025,-0.905,-0.710
1.028,-0.915,-0.645
1.031,-0.915,-0.630
1.033,-0.925,-0.675
1.036,-0.915,-0.730
1.039,-0.910,-0.755
1.042,-0.920,-0.710
1.044,-0.935,-0.665
1.047,-0.925,-0.645
1.050,-0.930,-0.665
1.053,-0.920,-0.730
1.056,-0.885,-0.715
1.058,-0.880,-0.680
1.061,-0.905,-0.600
1.064,-0.900,-0.585
1.067,-0.905,-0.625
1.069,-0.890,-0.670
1.072,-0.870,-0.725
1.075,-0.870,-0.675
1.078,-0.895,-0.605
1.081,-0.915,-0.570
1.083,-0.915,-0.615
1.086,-0.895,-0.655
1.089,-0.875,-0.670
1.092,-0.865,-0.615
1.094,-0.850,-0.540
1.097,-0.850,-0.530
1.100,-0.885,-0.555
1.103,-0.850,-0.625
1.106,-0.835,-0.660
1.108,-0.830,-0.650
1.111,-0.840,-0.595
1.114,-0.860,-0.565
1.117,-0.875,-0.595
1.119,-0.850,-0.630
1.122,-0.840,-0.655
1.125,-0.820,-0.605
1.128,-0.810,-0.540
1.131,-0.825,-0.525
1.133,-0.825,-0.590
1.136,-0.810,-0.665
1.139,-0.815,-0.695
1.142,-0.790,-0.655
1.144,-0.820,-0.625
1.147,-0.835,-0.595
1.150,-0.835,-0.630
1.153,-0.810,-0.695
1.156,-0.790,-0.720
1.158,-0.770,-0.710
1.161,-0.775,-0.660
1.164,-0.775,-0.615
1.167,-0.785,-0.610
1.169,-0.800,-0.680
1.172,-0.795,-0.755
1.175,-0.790,-0.800
1.178,-0.790,-0.785
1.181,-0.815,-0.725
1.183,-0.820,-0.700
1.186,-0.825,-0.725
1.189,-0.815,-0.775
1.192,-0.785,-0.795
1.194,-0.790,-0.770
1.197,-0.790,-0.730
1.200,-0.800,-0.710
1.203,-0.815,-0.755
1.206,-0.815,-0.815
1.208,-0.815,-0.860
1.211,-0.820,-0.845
1.214,-0.840,-0.790
1.217,-0.850,-0.740
1.219,-0.855,-0.755
1.222,-0.855,-0.780
1.225,-0.840,-0.835
1.228,-0.820,-0.825
1.231,-0.815,-0.765
1.233,-0.830,-0.725
1.236,-0.840,-0.740
1.239,-0.845,-0.785
1.242,-0.850,-0.860
1.244,-0.840,-0.850
1.247,-0.855,-0.810
1.250,-0.870,-0.775
1.253,-0.875,-0.755
1.256,-0.850,-0.810
1.258,-0.835,-0.835
1.261,-0.830,-0.835
1.264,-0.825,-0.795
1.267,-0.860,-0.760
1.269,-0.890,-0.750
1.272,-0.875,-0.810
1.275,-0.875,-0.885
1.278,-0.885,-0.885
1.281,-0.875,-0.860
1.283,-0.895,-0.795
1.286,-0.900,-0.755
1.289,-0.915,-0.785
1.292,-0.915,-0.840
1.294,-0.880,-0.870
1.297,-0.895,-0.845
1.300,-0.920,-0.795
1.303,-0.925,-0.785
1.306,-0.940,-0.825
1.308,-0.940,-0.880
1.311,-0.945,-0.885
1.314,-0.950,-0.850
1.317,-0.960,-0.790
1.319,-0.955,-0.795
1.322,-0.940,-0.825
1.325,-0.930,-0.845
1.328,-0.920,-0.825
1.331,-0.920,-0.785
1.333,-0.930,-0.750
1.336,-0.930,-0.775
1.339,-0.925,-0.825
1.342,-0.920,-0.875
1.344,-0.920,-0.860
1.347,-0.925,-0.825
1.350,-0.925,-0.795
1.353,-0.905,-0.805
1.356,-0.870,-0.835
1.358,-0.845,-0.850
1.361,-0.825,-0.815
1.364,-0.835,-0.765
1.367,-0.860,-0.750
1.369,-0.850,-0.775
1.372,-0.835,-0.840
1.375,-0.795,-0.885
1.378,-0.770,-0.855
1.381,-0.760,-0.800
1.383,-0.750,-0.755
1.386,-0.750,-0.755
1.389,-0.720,-0.785
1.392,-0.680,-0.820
1.394,-0.665,-0.785
1.397,-0.660,-0.730
1.400,-0.670,-0.685
1.403,-0.700,-0.675
1.406,-0.690,-0.750
1.408,-0.690,-0.815
1.411,-0.695,-0.810
1.414,-0.700,-0.760
1.417,-0.735,-0.720
1.419,-0.745,-0.710
1.422,-0.735,-0.740
1.425,-0.720,-0.780
1.428,-0.720,-0.770
1.431,-0.710,-0.745
1.433,-0.715,-0.705
1.436,-0.740,-0.720
1.439,-0.750,-0.770
1.442,-0.765,-0.830
1.444,-0.800,-0.860
1.447,-0.840,-0.820
1.450,-0.875,-0.785
1.453,-0.885,-0.785
1.456,-0.900,-0.825
1.458,-0.880,-0.865
1.461,-0.875,-0.855
1.464,-0.885,-0.805
1.467,-0.890,-0.760
1.469,-0.905,-0.770
1.472,-0.925,-0.820
1.475,-0.925,-0.885
1.478,-0.935,-0.900
1.481,-0.940,-0.855
1.483,-0.945,-0.790
1.486,-0.970,-0.780
1.489,-0.955,-0.800
1.492,-0.950,-0.865
1.494,-0.905,-0.865
1.497,-0.920,-0.835
1.500,-0.930,-0.795
1.503,-0.965,-0.765
1.506,-1.000,-0.825
1.508,-1.035,-0.885
1.511,-1.070,-0.940
1.514,-1.125,-0.910
1.517,-1.155,-0.865
1.519,-1.160,-0.770
1.522,-1.100,-0.770
1.525,-0.980,-0.770
1.528,-0.820,-0.740
1.531,-0.630,-0.660
1.533,-0.435,-0.560
1.536,-0.250,-0.480
1.539,-0.060,-0.475
1.542,0.085,-0.485
1.544,0.265,-0.530
1.547,0.420,-0.520
1.550,0.545,-0.510
1.553,0.625,-0.525
1.556,0.675,-0.605
1.558,0.710,-0.780
1.561,0.715,-0.915
1.564,0.680,-0.980
1.567,0.635,-0.920
1.569,0.555,-0.820
1.572,0.450,-0.715
1.575,0.245,-0.670
1.578,0.015,-0.685
1.581,-0.275,-0.730
1.583,-0.560,-0.745
1.586,-0.760,-0.770
1.589,-0.895,-0.820
1.592,-0.945,-0.880
1.594,-0.925,-0.935
1.597,-0.855,-0.960
1.600,-0.815,-0.910
1.603,-0.815,-0.825
1.606,-0.850,-0.785
1.608,-0.925,-0.810
1.611,-0.945,-0.880
1.614,-0.965,-0.905
1.617,-0.995,-0.900
1.619,-1.015,-0.850
1.622,-1.020,-0.795
1.625,-1.030,-0.780
1.628,-1.015,-0.810
1.631,-0.985,-0.860
1.633,-0.990,-0.855
1.636,-0.990,-0.810
1.639,-1.020,-0.755
1.642,-1.035,-0.765
1.644,-1.030,-0.810
1.647,-1.030,-0.850
1.650,-1.000,-0.840
1.653,-0.995,-0.790
1.656,-1.000,-0.725
1.658,-1.005,-0.715
1.661,-0.995,-0.765
1.664,-0.970,-0.790
1.667,-0.950,-0.810
1.669,-0.960,-0.765
1.672,-1.005,-0.730
1.675,-1.015,-0.735
1.678,-1.020,-0.765
1.681,-1.015,-0.840
1.683,-1.010,-0.830
1.686,-0.995,-0.770
1.689,-0.990,-0.715
1.692,-0.990,-0.675
1.694,-1.000,-0.705
1.697,-0.980,-0.745
1.700,-0.970,-0.760
1.703,-0.945,-0.725
1.706,-0.965,-0.675
1.708,-0.985,-0.670
1.711,-0.980,-0.705
1.714,-0.980,-0.740
1.717,-0.975,-0.735
1.719,-0.975,-0.680
1.722,-0.960,-0.645
1.725,-0.960,-0.615
1.728,-0.940,-0.660
1.731,-0.935,-0.675
1.733,-0.940,-0.660
1.736,-0.930,-0.630
1.739,-0.970,-0.605
1.742,-0.965,-0.650
1.744,-0.970,-0.695
1.747,-0.955,-0.695
1.750,-0.945,-0.660
1.753,-0.935,-0.585
1.756,-0.940,-0.585
1.758,-0.930,-0.620
1.761,-0.900,-0.645
1.764,-0.880,-0.690
1.767,-0.880,-0.645
1.769,-0.900,-0.595
1.772,-0.905,-0.580
1.775,-0.935,-0.585
1.778,-0.940,-0.675
1.781,-0.935,-0.735
1.783,-0.940,-0.720
1.786,-0.925,-0.660
1.789,-0.890,-0.605
1.792,-0.880,-0.585
1.794,-0.865,-0.635
1.797,-0.860,-0.695
1.800,-0.855,-0.715
1.803,-0.870,-0.685
1.806,-0.895,-0.665
1.808,-0.890,-0.665
1.811,-0.895,-0.745
1.814,-0.890,-0.800
1.817,-0.885,-0.800
1.819,-0.880,-0.740
1.822,-0.885,-0.680
1.825,-0.895,-0.680
1.828,-0.900,-0.710
1.831,-0.870,-0.785
1.833,-0.850,-0.820
1.836,-0.850,-0.810
1.839,-0.865,-0.765
1.842,-0.890,-0.720
1.844,-0.875,-0.745
1.847,-0.890,-0.805
1.850,-0.885,-0.855
1.853,-0.900,-0.835
1.856,-0.870,-0.785
1.858,-0.885,-0.740
1.861,-0.880,-0.735
1.864,-0.895,-0.775
1.867,-0.880,-0.835
1.869,-0.880,-0.825
1.872,-0.905,-0.775
1.875,-0.930,-0.775
1.878,-0.935,-0.775
1.881,-0.925,-0.825
1.883,-0.920,-0.865
1.886,-0.900,-0.865
1.889,-0.895,-0.785
1.892,-0.900,-0.730
1.894,-0.910,-0.695
1.897,-0.910,-0.755
1.900,-0.915,-0.825
1.903,-0.910,-0.860
1.906,-0.925,-0.865
1.908,-0.950,-0.805
1.911,-0.955,-0.785
1.914,-0.965,-0.810
1.917,-0.970,-0.850
1.919,-0.960,-0.860
1.922,-0.940,-0.820
1.925,-0.935,-0.765
1.928,-0.935,-0.740
1.931,-0.945,-0.775
1.933,-0.940,-0.820
1.936,-0.945,-0.835
1.939,-0.950,-0.800
1.942,-0.970,-0.765
1.944,-0.995,-0.785
1.947,-1.000,-0.845
1.950,-1.010,-0.885
1.953,-1.010,-0.865
1.956,-1.010,-0.795
1.958,-1.025,-0.740
1.961,-1.000,-0.735
1.964,-1.000,-0.800
1.967,-0.995,-0.855
1.969,-0.980,-0.865
1.972,-0.990,-0.835
1.975,-1.000,-0.780
1.978,-1.020,-0.760
1.981,-1.015,-0.785
1.983,-1.025,-0.830
1.986,-1.005,-0.870
1.989,-0.985,-0.855
1.992,-0.985,-0.795
1.994,-0.985,-0.755
1.997,-0.970,-0.755
2.000,-0.975,-0.800
2.003,-0.950,-0.845
2.006,-0.955,-0.830
2.008,-0.950,-0.795
2.011,-0.955,-0.765
2.014,-0.955,-0.780
2.017,-0.950,-0.835
2.019,-0.930,-0.850
2.022,-0.905,-0.825
2.025,-0.895,-0.745
2.028,-0.875,-0.695
2.031,-0.860,-0.735
2.033,-0.845,-0.805
2.036,-0.810,-0.825
2.039,-0.810,-0.825
2.042,-0.800,-0.785
2.044,-0.805,-0.725
2.047,-0.795,-0.705
2.050,-0.790,-0.755
2.053,-0.755,-0.790
2.056,-0.750,-0.775
2.058,-0.740,-0.735
2.061,-0.745,-0.670
2.064,-0.770,-0.635
2.067,-0.765,-0.660
2.069,-0.770,-0.745
2.072,-0.765,-0.765
2.075,-0.760,-0.775
2.078,-0.790,-0.715
2.081,-0.810,-0.665
2.083,-0.820,-0.675
2.086,-0.805,-0.730
2.089,-0.795,-0.780
2.092,-0.785,-0.765
2.094,-0.785,-0.730
2.097,-0.795,-0.670
2.100,-0.835,-0.630
2.103,-0.860,-0.720
2.106,-0.880,-0.790
2.108,-0.900,-0.835
2.111,-0.910,-0.855
2.114,-0.915,-0.775
2.117,-0.940,-0.735
2.119,-0.975,-0.740
2.122,-0.955,-0.745
2.125,-0.955,-0.815
2.128,-0.940,-0.770
2.131,-0.925,-0.735
2.133,-0.955,-0.715
2.136,-0.975,-0.750
2.139,-0.980,-0.795
2.142,-1.010,-0.825
2.144,-1.005,-0.810
2.147,-1.000,-0.750
2.150,-1.005,-0.735
2.153,-0.990,-0.755
2.156,-0.990,-0.790
2.158,-0.990,-0.810
2.161,-1.010,-0.765
2.164,-1.045,-0.715
2.167,-1.100,-0.725
2.169,-1.175,-0.790
2.172,-1.200,-0.855
2.175,-1.200,-0.865
2.178,-1.170,-0.840
2.181,-1.110,-0.735
2.183,-1.010,-0.635
2.186,-0.865,-0.580
2.189,-0.680,-0.575
2.192,-0.465,-0.550
2.194,-0.265,-0.475
2.197,-0.090,-0.370
2.200,0.065,-0.305
2.203,0.210,-0.265
2.206,0.350,-0.325
2.208,0.500,-0.405
2.211,0.605,-0.485
2.214,0.665,-0.510
2.217,0.700,-0.590
2.219,0.695,-0.680
2.222,0.660,-0.775
2.225,0.630,-0.785
2.228,0.535,-0.710
2.231,0.405,-0.570
2.233,0.150,-0.455
2.236,-0.160,-0.440
2.239,-0.470,-0.540
2.242,-0.690,-0.675
2.244,-0.840,-0.785
2.247,-0.895,-0.830
2.250,-0.925,-0.780
2.253,-0.900,-0.760
2.256,-0.860,-0.770
2.258,-0.805,-0.790
2.261,-0.800,-0.765
2.264,-0.810,-0.730
2.267,-0.875,-0.680
2.269,-0.950,-0.670
2.272,-1.000,-0.730
2.275,-1.020,-0.790
2.278,-1.045,-0.835
2.281,-1.050,-0.790
2.283,-1.065,-0.715
2.286,-1.065,-0.695
2.289,-1.060,-0.690
2.292,-1.050,-0.730
2.294,-1.015,-0.755
2.297,-1.010,-0.730
2.300,-1.015,-0.680
2.303,-1.055,-0.645
2.306,-1.045,-0.660
2.308,-1.035,-0.705
2.311,-1.035,-0.750
2.314,-1.025,-0.740
2.317,-1.030,-0.685
2.319,-1.030,-0.640
2.322,-1.030,-0.620
2.325,-1.020,-0.665
2.328,-1.020,-0.695
2.331,-1.000,-0.680
2.333,-1.025,-0.640
2.336,-1.025,-0.625
2.339,-1.045,-0.640
2.342,-1.050,-0.705
2.344,-1.045,-0.710
2.347,-1.040,-0.685
2.350,-1.030,-0.615
2.353,-1.030,-0.610
2.356,-1.015,-0.635
2.358,-1.010,-0.655
2.361,-1.000,-0.630
2.364,-1.010,-0.585
2.367,-1.035,-0.575
2.369,-1.040,-0.605
2.372,-1.025,-0.655
2.375,-1.000,-0.665
2.378,-0.995,-0.615
2.381,-1.015,-0.560
2.383,-1.025,-0.555
2.386,-1.020,-0.570
2.389,-1.005,-0.625
2.392,-0.985,-0.635
2.394,-0.970,-0.580
2.397,-0.975,-0.520
2.400,-1.015,-0.480
2.403,-1.020,-0.515
2.406,-1.015,-0.590
2.408,-1.010,-0.625
2.411,-0.985,-0.595
2.414,-0.960,-0.550
2.417,-0.965,-0.525
2.419,-0.960,-0.540
2.422,-0.970,-0.580
2.425,-0.950,-0.575
2.428,-0.950,-0.530
2.431,-0.940,-0.505
2.433,-0.965,-0.510
2.436,-0.965,-0.565
2.439,-0.935,-0.610
2.442,-0.910,-0.610
2.444,-0.925,-0.565
2.447,-0.945,-0.530
2.450,-0.950,-0.510
2.453,-0.950,-0.575
2.456,-0.950,-0.615
2.458,-0.900,-0.640
2.461,-0.900,-0.610
2.464,-0.890,-0.550
2.467,-0.890,-0.525
2.469,-0.915,-0.560
2.472,-0.890,-0.625
2.475,-0.890,-0.660
2.478,-0.895,-0.665
2.481,-0.885,-0.615
2.483,-0.910,-0.590
2.486,-0.920,-0.590
2.489,-0.905,-0.655
2.492,-0.905,-0.670
2.494,-0.885,-0.645
2.497,-0.870,-0.590
2.500,-0.900,-0.560
2.503,-0.925,-0.580
2.506,-0.915,-0.655
2.508,-0.925,-0.705
2.511,-0.935,-0.710
2.514,-0.950,-0.645
2.517,-0.965,-0.610
2.519,-0.960,-0.630
2.522,-0.950,-0.655
2.525,-0.925,-0.705
2.528,-0.890,-0.680
2.531,-0.875,-0.615
2.533,-0.895,-0.605
2.536,-0.905,-0.635
2.539,-0.920,-0.695
2.542,-0.915,-0.710
2.544,-0.935,-0.680
2.547,-0.950,-0.640
2.550,-0.950,-0.660
2.553,-0.950,-0.700
2.556,-0.935,-0.695
2.558,-0.925,-0.645
2.561,-0.950,-0.600
2.564,-0.945,-0.600
2.567,-0.925,-0.640
2.569,-0.925,-0.700
2.572,-0.925,-0.690
2.575,-0.935,-0.660
2.578,-0.960,-0.625
2.581,-0.970,-0.635
2.583,-0.975,-0.700
2.586,-0.990,-0.730
2.589,-0.970,-0.700
2.592,-0.990,-0.660
2.594,-0.990,-0.610
2.597,-1.005,-0.625
2.600,-0.990,-0.680
2.603,-0.970,-0.715
2.606,-0.975,-0.710
2.608,-0.985,-0.685
2.611,-1.015,-0.650
2.614,-1.010,-0.700
2.617,-1.015,-0.720
2.619,-1.000,-0.730
2.622,-1.000,-0.690
2.625,-0.985,-0.650
2.628,-0.995,-0.630
2.631,-0.950,-0.670
2.633,-0.935,-0.710
2.636,-0.925,-0.695
2.639,-0.925,-0.675
2.642,-0.940,-0.620
2.644,-0.945,-0.630
2.647,-0.940,-0.660
2.650,-0.925,-0.705
2.653,-0.860,-0.720
2.656,-0.830,-0.660
2.658,-0.825,-0.580
2.661,-0.835,-0.565
2.664,-0.790,-0.590
2.667,-0.765,-0.650
2.669,-0.755,-0.660
2.672,-0.750,-0.595
2.675,-0.760,-0.580
2.678,-0.785,-0.540
2.681,-0.770,-0.585
2.683,-0.770,-0.635
2.686,-0.755,-0.635
2.689,-0.745,-0.570
2.692,-0.745,-0.520
2.694,-0.775,-0.510
2.697,-0.775,-0.545
2.700,-0.780,-0.630
2.703,-0.775,-0.640
2.706,-0.785,-0.610
2.708,-0.810,-0.560
2.711,-0.830,-0.535
2.714,-0.840,-0.560
2.717,-0.840,-0.635
2.719,-0.840,-0.665
2.722,-0.850,-0.655
2.725,-0.865,-0.615
2.728,-0.900,-0.590
2.731,-0.910,-0.625
2.733,-0.920,-0.670
2.736,-0.925,-0.690
2.739,-0.930,-0.660
2.742,-0.960,-0.620
2.744,-0.990,-0.605
2.747,-1.005,-0.660
2.750,-1.015,-0.700
2.753,-1.010,-0.685
2.756,-1.005,-0.625
2.758,-0.985,-0.605
2.761,-0.980,-0.615
2.764,-0.960,-0.650
2.767,-0.950,-0.670
2.769,-0.960,-0.625
2.772,-0.980,-0.595
2.775,-1.060,-0.675
2.778,-1.110,-0.740
2.781,-1.150,-0.745
2.783,-1.190,-0.685
2.786,-1.225,-0.615
2.789,-1.180,-0.580
2.792,-1.100,-0.595
2.794,-0.965,-0.595
2.797,-0.815,-0.535
2.800,-0.625,-0.420
2.803,-0.435,-0.335
2.806,-0.250,-0.270
2.808,-0.075,-0.265
2.811,0.100,-0.300
2.814,0.260,-0.290
2.817,0.420,-0.280
2.819,0.545,-0.285
2.822,0.625,-0.350
2.825,0.680,-0.495
2.828,0.695,-0.655
2.831,0.695,-0.745
2.833,0.635,-0.725
2.836,0.540,-0.660
2.839,0.390,-0.570
2.842,0.190,-0.555
2.844,-0.065,-0.530
2.847,-0.370,-0.555
2.850,-0.640,-0.540
2.853,-0.840,-0.570
2.856,-0.960,-0.605
2.858,-0.980,-0.680
2.861,-0.940,-0.740
2.864,-0.875,-0.750
2.867,-0.825,-0.680
2.869,-0.815,-0.615
2.872,-0.845,-0.595
2.875,-0.885,-0.615
2.878,-0.935,-0.680
2.881,-0.980,-0.705
2.883,-1.020,-0.660
2.886,-1.040,-0.615
2.889,-1.060,-0.610
2.892,-1.065,-0.625
2.894,-1.020,-0.670
2.897,-1.010,-0.635
2.900,-1.020,-0.610
2.903,-1.035,-0.575
2.906,-1.060,-0.585
2.908,-1.065,-0.640
2.911,-1.060,-0.685
2.914,-1.035,-0.675
2.917,-1.020,-0.615
2.919,-1.015,-0.550
2.922,-1.010,-0.530
2.925,-0.995,-0.565
2.928,-0.990,-0.615
2.931,-0.995,-0.610
2.933,-1.005,-0.585
2.936,-1.035,-0.550
2.939,-1.030,-0.580
2.942,-1.035,-0.615
2.944,-1.035,-0.645
2.947,-1.030,-0.595
2.950,-1.040,-0.535
2.953,-1.040,-0.550
2.956,-1.015,-0.570
2.958,-1.010,-0.565
2.961,-0.995,-0.545
2.964,-0.985,-0.500
2.967,-1.000,-0.490
2.969,-1.025,-0.535
2.972,-1.030,-0.580
2.975,-1.025,-0.615
2.978,-1.025,-0.560
2.981,-1.025,-0.505
2.983,-1.025,-0.470
2.986,-1.025,-0.485
2.989,-1.005,-0.540
2.992,-0.970,-0.525
2.994,-0.960,-0.500
2.997,-0.960,-0.440
3.000,-0.985,-0.415
3.003,-1.000,-0.455
3.006,-1.025,-0.525
3.008,-1.000,-0.530
3.011,-0.990,-0.515
3.014,-0.985,-0.455
3.017,-0.980,-0.425
3.019,-0.975,-0.430
3.022,-0.955,-0.485
3.025,-0.930,-0.470
3.028,-0.915,-0.435
3.031,-0.930,-0.405
3.033,-0.945,-0.410
3.036,-0.950,-0.470
3.039,-0.955,-0.525
3.042,-0.945,-0.530
3.044,-0.945,-0.490
3.047,-0.945,-0.440
3.050,-0.970,-0.425
3.053,-0.960,-0.460
3.056,-0.935,-0.530
3.058,-0.920,-0.530
3.061,-0.905,-0.485
3.064,-0.905,-0.435
3.067,-0.915,-0.430
3.069,-0.920,-0.490
3.072,-0.915,-0.545
3.075,-0.905,-0.590
3.078,-0.930,-0.550
3.081,-0.930,-0.510
3.083,-0.945,-0.505
3.086,-0.930,-0.555
3.089,-0.905,-0.600
3.092,-0.880,-0.610
3.094,-0.865,-0.555
3.097,-0.890,-0.490
3.100,-0.910,-0.485
3.103,-0.930,-0.525
3.106,-0.915,-0.615
3.108,-0.925,-0.660
3.111,-0.915,-0.650
3.114,-0.940,-0.590
3.117,-0.940,-0.535
3.119,-0.940,-0.560
3.122,-0.940,-0.600
3.125,-0.905,-0.650
3.128,-0.895,-0.635
3.131,-0.910,-0.580
3.133,-0.910,-0.540
3.136,-0.945,-0.565
3.139,-0.955,-0.625
3.142,-0.945,-0.665
3.144,-0.940,-0.660
3.147,-0.970,-0.600
3.150,-0.955,-0.575
3.153,-0.945,-0.580
3.156,-0.930,-0.630
3.158,-0.925,-0.620
3.161,-0.920,-0.595
3.164,-0.940,-0.555
3.167,-0.930,-0.545
3.169,-0.950,-0.590
3.172,-0.950,-0.655
3.175,-0.960,-0.655
3.178,-0.960,-0.625
3.181,-0.975,-0.580
3.183,-0.985,-0.555
3.186,-0.990,-0.610
3.189,-0.975,-0.650
3.192,-0.960,-0.635
3.194,-0.960,-0.600
3.197,-0.965,-0.555
3.200,-1.000,-0.550
3.203,-1.020,-0.580
3.206,-1.005,-0.650
3.208,-1.010,-0.670
3.211,-1.015,-0.635
3.214,-1.030,-0.585
3.217,-1.045,-0.570
3.219,-1.030,-0.600
3.222,-1.015,-0.660
3.225,-1.000,-0.640
3.228,-0.990,-0.595
3.231,-0.995,-0.535
3.233,-1.000,-0.550
3.236,-1.015,-0.595
3.239,-1.020,-0.670
3.242,-1.010,-0.680
3.244,-1.000,-0.655
3.247,-1.010,-0.580
3.250,-1.020,-0.565
3.253,-1.015,-0.600
3.256,-1.015,-0.645
3.258,-0.985,-0.650
3.261,-0.975,-0.600
3.264,-0.970,-0.550
3.267,-0.985,-0.540
3.269,-0.970,-0.570
3.272,-0.980,-0.655
3.275,-0.965,-0.660
3.278,-0.955,-0.625
3.281,-0.965,-0.575
3.283,-0.965,-0.570
3.286,-0.955,-0.590
3.289,-0.935,-0.635
3.292,-0.915,-0.630
3.294,-0.920,-0.575
3.297,-0.915,-0.545
3.300,-0.915,-0.540
3.303,-0.895,-0.585
3.306,-0.870,-0.635
3.308,-0.845,-0.645
3.311,-0.835,-0.615
3.314,-0.820,-0.565
3.317,-0.820,-0.550
3.319,-0.810,-0.560
3.322,-0.770,-0.595
3.325,-0.750,-0.560
3.328,-0.755,-0.490
3.331,-0.760,-0.460
3.333,-0.760,-0.470
3.336,-0.780,-0.545
3.339,-0.780,-0.570
3.342,-0.790,-0.560
3.344,-0.830,-0.505
3.347,-0.840,-0.505
3.350,-0.845,-0.535
3.353,-0.855,-0.565
3.356,-0.815,-0.575
3.358,-0.815,-0.520
3.361,-0.825,-0.480
3.364,-0.835,-0.495
3.367,-0.855,-0.540
3.369,-0.880,-0.610
3.372,-0.900,-0.610
3.375,-0.930,-0.595
3.378,-0.970,-0.590
3.381,-0.970,-0.635
3.383,-0.975,-0.645
3.386,-0.965,-0.655
3.389,-0.970,-0.605
3.392,-0.980,-0.525
3.394,-0.990,-0.510
3.397,-1.000,-0.560
3.400,-1.010,-0.610
3.403,-1.005,-0.655
3.406,-1.005,-0.650
3.408,-1.020,-0.580
3.411,-1.030,-0.560
3.414,-1.030,-0.590
3.417,-1.005,-0.635
3.419,-1.015,-0.645
3.422,-1.000,-0.630
3.425,-1.010,-0.565
3.428,-1.050,-0.535
3.431,-1.110,-0.590
3.433,-1.165,-0.635
3.436,-1.195,-0.655
3.439,-1.215,-0.640
3.442,-1.200,-0.575
3.444,-1.160,-0.550
3.447,-1.060,-0.540
3.450,-0.895,-0.520
3.453,-0.690,-0.475
3.456,-0.465,-0.370
3.458,-0.290,-0.270
3.461,-0.115,-0.170
3.464,0.050,-0.180
3.467,0.225,-0.230
3.469,0.365,-0.285
3.472,0.495,-0.310
3.475,0.580,-0.315
3.478,0.605,-0.375
3.481,0.630,-0.505
3.483,0.615,-0.665
3.486,0.605,-0.765
3.489,0.575,-0.745
3.492,0.520,-0.625
3.494,0.415,-0.465
3.497,0.235,-0.370
3.500,-0.055,-0.360
3.503,-0.370,-0.440
3.506,-0.655,-0.540
3.508,-0.865,-0.585
3.511,-0.985,-0.610
3.514,-1.035,-0.645
3.517,-1.025,-0.700
3.519,-0.930,-0.720
3.522,-0.880,-0.705
3.525,-0.860,-0.630
3.528,-0.885,-0.540
3.531,-0.905,-0.495
3.533,-0.960,-0.545
3.536,-1.000,-0.610
3.539,-1.040,-0.665
3.542,-1.065,-0.655
3.544,-1.100,-0.610
3.547,-1.110,-0.585
3.550,-1.095,-0.590
3.553,-1.095,-0.600
3.556,-1.065,-0.595
3.558,-1.045,-0.565
3.561,-1.055,-0.505
3.564,-1.060,-0.530
3.567,-1.075,-0.575
3.569,-1.070,-0.610
3.572,-1.055,-0.585
3.575,-1.060,-0.555
3.578,-1.075,-0.535
3.581,-1.090,-0.565
3.583,-1.080,-0.605
3.586,-1.065,-0.605
3.589,-1.045,-0.565
3.592,-1.045,-0.515
3.594,-1.040,-0.450
3.597,-1.045,-0.480
3.600,-1.055,-0.535
3.603,-1.040,-0.595
3.606,-1.035,-0.585
3.608,-1.055,-0.535
3.611,-1.080,-0.485
3.614,-1.085,-0.490
3.617,-1.080,-0.525
3.619,-1.050,-0.565
3.622,-1.040,-0.525
3.625,-1.045,-0.465
3.628,-1.040,-0.420
3.631,-1.045,-0.440
3.633,-1.040,-0.485
3.636,-1.025,-0.540
3.639,-1.020,-0.505
3.642,-1.020,-0.460
3.644,-1.025,-0.420
3.647,-1.025,-0.415
3.650,-1.020,-0.470
3.653,-1.020,-0.500
3.656,-0.980,-0.490
3.658,-0.980,-0.450
3.661,-0.980,-0.380
3.664,-0.990,-0.360
3.667,-1.000,-0.405
3.669,-0.990,-0.470
3.672,-0.980,-0.495
3.675,-0.995,-0.465
3.678,-0.995,-0.395
3.681,-1.010,-0.390
3.683,-1.000,-0.435
3.686,-0.990,-0.470
3.689,-0.970,-0.470
3.692,-0.965,-0.415
3.694,-0.950,-0.360
3.697,-0.955,-0.380
3.700,-0.965,-0.425
3.703,-0.960,-0.485
3.706,-0.930,-0.500
3.708,-0.945,-0.460
3.711,-0.950,-0.405
3.714,-0.970,-0.410
3.717,-0.960,-0.440
3.719,-0.940,-0.505
3.722,-0.910,-0.505
3.725,-0.910,-0.485
3.728,-0.910,-0.410
3.731,-0.920,-0.415
3.733,-0.920,-0.480
3.736,-0.905,-0.535
3.739,-0.910,-0.550
3.742,-0.920,-0.520
3.744,-0.935,-0.500
3.747,-0.965,-0.510
3.750,-0.955,-0.560
3.753,-0.935,-0.570
3.756,-0.930,-0.570
3.758,-0.925,-0.515
3.761,-0.935,-0.495
3.764,-0.935,-0.540
3.767,-0.935,-0.595
3.769,-0.935,-0.615
3.772,-0.960,-0.575
3.775,-0.985,-0.535
3.778,-0.980,-0.535
3.781,-0.970,-0.585
3.783,-0.975,-0.635
3.786,-0.940,-0.610
3.789,-0.945,-0.565
3.792,-0.940,-0.510
3.794,-0.945,-0.505
3.797,-0.945,-0.555
3.800,-0.950,-0.625
3.803,-0.955,-0.635
3.806,-0.955,-0.630
3.808,-0.965,-0.560
3.811,-0.995,-0.540
3.814,-1.010,-0.575
3.817,-0.995,-0.625
3.819,-0.965,-0.645
3.822,-0.955,-0.605
3.825,-0.950,-0.530
3.828,-0.970,-0.520
3.831,-0.980,-0.545
3.833,-0.990,-0.595
3.836,-0.970,-0.635
3.839,-0.990,-0.620
3.842,-1.015,-0.580
3.844,-1.020,-0.560
3.847,-1.040,-0.600
3.850,-1.030,-0.655
3.853,-1.025,-0.655
3.856,-1.015,-0.610
3.858,-1.015,-0.535
3.861,-1.025,-0.515
3.864,-1.020,-0.545
3.867,-1.020,-0.595
3.869,-1.025,-0.635
3.872,-1.030,-0.635
3.875,-1.045,-0.580
3.878,-1.080,-0.560
3.881,-1.085,-0.600
3.883,-1.085,-0.655
3.886,-1.065,-0.655
3.889,-1.050,-0.630
3.892,-1.035,-0.550
3.894,-1.030,-0.525
3.897,-1.035,-0.570
3.900,-1.025,-0.615
3.903,-1.015,-0.650
3.906,-1.025,-0.625
3.908,-1.045,-0.580
3.911,-1.055,-0.550
3.914,-1.065,-0.585
3.917,-1.045,-0.630
3.919,-1.040,-0.655
3.922,-1.010,-0.615
3.925,-1.020,-0.550
3.928,-0.995,-0.530
3.931,-0.980,-0.555
3.933,-0.965,-0.615
3.936,-0.950,-0.630
3.939,-0.965,-0.610
3.942,-0.955,-0.580
3.944,-0.970,-0.560
3.947,-0.955,-0.595
3.950,-0.925,-0.630
3.953,-0.880,-0.615
3.956,-0.875,-0.575
3.958,-0.855,-0.510
3.961,-0.840,-0.515
3.964,-0.800,-0.560
3.967,-0.785,-0.585
3.969,-0.765,-0.565
3.972,-0.775,-0.505
3.975,-0.800,-0.470
3.978,-0.805,-0.505
3.981,-0.790,-0.550
3.983,-0.795,-0.565
3.986,-0.790,-0.515
3.989,-0.805,-0.475
3.992,-0.805,-0.465
3.994,-0.815,-0.495
3.997,-0.805,-0.550
4.000,-0.805,-0.585
4.003,-0.820,-0.550
4.006,-0.835,-0.485
4.008,-0.870,-0.475
4.011,-0.880,-0.515
4.014,-0.880,-0.590
4.017,-0.885,-0.635
4.019,-0.895,-0.615
4.022,-0.930,-0.565
4.025,-0.950,-0.520
4.028,-0.975,-0.530
4.031,-0.960,-0.600
4.033,-0.955,-0.625
4.036,-0.970,-0.625
4.039,-0.995,-0.585
4.042,-1.010,-0.565
4.044,-1.020,-0.570
4.047,-1.035,-0.620
4.050,-1.030,-0.655
4.053,-1.015,-0.630
4.056,-1.015,-0.575
4.058,-1.020,-0.515
4.061,-1.035,-0.515
4.064,-1.025,-0.575
4.067,-1.025,-0.645
4.069,-1.000,-0.665
4.072,-1.010,-0.630
4.075,-1.035,-0.580
4.078,-1.070,-0.570
4.081,-1.085,-0.605
4.083,-1.090,-0.665
4.086,-1.125,-0.665
4.089,-1.155,-0.620
4.092,-1.205,-0.565
4.094,-1.210,-0.520
4.097,-1.180,-0.535
4.100,-1.070,-0.555
4.103,-0.920,-0.515
4.106,-0.745,-0.405
4.108,-0.550,-0.320
4.111,-0.355,-0.270
4.114,-0.170,-0.290
4.117,0.025,-0.290
4.119,0.210,-0.255
4.122,0.380,-0.175
4.125,0.510,-0.160
4.128,0.600,-0.195
4.131,0.650,-0.335
4.133,0.685,-0.510
4.136,0.670,-0.645
4.139,0.625,-0.685
4.142,0.550,-0.625
4.144,0.465,-0.550
4.147,0.355,-0.490
4.150,0.170,-0.455
4.153,-0.120,-0.415
4.156,-0.420,-0.420
4.158,-0.715,-0.425
4.161,-0.905,-0.505
4.164,-1.000,-0.620
4.167,-1.005,-0.695
4.169,-0.960,-0.710
4.172,-0.915,-0.650
4.175,-0.890,-0.580
4.178,-0.910,-0.550
4.181,-0.935,-0.585
4.183,-0.975,-0.635
4.186,-1.025,-0.620
4.189,-1.050,-0.570
4.192,-1.075,-0.525
4.194,-1.090,-0.520
4.197,-1.090,-0.570
4.200,-1.070,-0.600
4.203,-1.060,-0.615
4.206,-1.065,-0.575
4.208,-1.090,-0.520
4.211,-1.095,-0.510
4.214,-1.100,-0.530
4.217,-1.080,-0.585
4.219,-1.070,-0.605
4.222,-1.065,-0.560
4.225,-1.065,-0.490
4.228,-1.050,-0.450
4.231,-1.075,-0.480
4.233,-1.065,-0.530
4.236,-1.040,-0.570
4.239,-1.035,-0.550
4.242,-1.040,-0.515
4.244,-1.065,-0.485
4.247,-1.075,-0.505
4.250,-1.075,-0.545
4.253,-1.050,-0.565
4.256,-1.040,-0.515
4.258,-1.035,-0.440
4.261,-1.055,-0.400
4.264,-1.075,-0.430
4.267,-1.045,-0.470
4.269,-1.040,-0.530
4.272,-1.045,-0.545
4.275,-1.040,-0.500
4.278,-1.060,-0.450
4.281,-1.070,-0.445
4.283,-1.060,-0.490
4.286,-1.045,-0.515
4.289,-1.000,-0.500
4.292,-1.000,-0.420
4.294,-1.035,-0.380
4.297,-1.035,-0.390
4.300,-1.025,-0.420
4.303,-1.015,-0.465
4.306,-1.005,-0.470
4.308,-1.010,-0.415
4.311,-1.030,-0.380
4.314,-1.040,-0.380
4.317,-1.040,-0.425
4.319,-1.020,-0.470
4.322,-0.985,-0.455
4.325,-0.975,-0.400
4.328,-0.965,-0.320
4.331,-0.970,-0.315
4.333,-0.980,-0.345
4.336,-0.980,-0.390
4.339,-0.960,-0.450
4.342,-0.970,-0.450
4.344,-0.970,-0.390
4.347,-0.965,-0.350
4.350,-0.965,-0.365
4.353,-0.965,-0.410
4.356,-0.950,-0.435
4.358,-0.935,-0.395
4.361,-0.915,-0.335
4.364,-0.935,-0.345
4.367,-0.925,-0.385
4.369,-0.920,-0.440
4.372,-0.930,-0.465
4.375,-0.925,-0.445
4.378,-0.940,-0.400
4.381,-0.950,-0.430
4.383,-0.935,-0.470
4.386,-0.920,-0.505
4.389,-0.905,-0.495
4.392,-0.885,-0.450
4.394,-0.900,-0.405
4.397,-0.905,-0.430
4.400,-0.910,-0.480
4.403,-0.910,-0.535
4.406,-0.885,-0.555
4.408,-0.905,-0.525
4.411,-0.925,-0.485
4.414,-0.930,-0.490
4.417,-0.945,-0.530
4.419,-0.940,-0.580
4.422,-0.910,-0.595
4.425,-0.890,-0.540
4.428,-0.920,-0.485
4.431,-0.920,-0.460
4.433,-0.925,-0.495
4.436,-0.920,-0.570
4.439,-0.925,-0.600
4.442,-0.930,-0.605
4.444,-0.935,-0.565
4.447,-0.950,-0.520
4.450,-0.965,-0.535
4.453,-0.975,-0.590
4.456,-0.945,-0.610
4.458,-0.925,-0.595
4.461,-0.925,-0.505
4.464,-0.945,-0.475
4.467,-0.940,-0.500
4.469,-0.940,-0.555
4.472,-0.945,-0.620
4.475,-0.940,-0.620
4.478,-0.950,-0.590
4.481,-0.975,-0.540
4.483,-0.985,-0.515
4.486,-1.000,-0.535
4.489,-0.970,-0.585
4.492,-0.960,-0.595
4.494,-0.950,-0.540
4.497,-0.940,-0.495
4.500,-0.965,-0.490
4.503,-0.970,-0.540
4.506,-0.970,-0.590
4.508,-0.980,-0.630
4.511,-0.980,-0.600
4.514,-1.015,-0.540
4.517,-1.030,-0.490
4.519,-1.035,-0.520
4.522,-1.025,-0.575
4.525,-1.000,-0.605
4.528,-0.995,-0.595
4.531,-0.990,-0.545
4.533,-1.000,-0.490
4.536,-1.035,-0.490
4.539,-1.040,-0.570
4.542,-1.035,-0.605
4.544,-1.020,-0.630
4.547,-1.040,-0.600
4.550,-1.020,-0.515
4.553,-1.040,-0.495
4.556,-1.040,-0.520
4.558,-1.035,-0.575
4.561,-1.005,-0.590
4.564,-0.990,-0.560
4.567,-1.005,-0.510
4.569,-1.025,-0.495
4.572,-1.025,-0.525
4.575,-1.015,-0.590
4.578,-1.000,-0.615
4.581,-1.000,-0.590
4.583,-1.000,-0.545
4.586,-1.010,-0.490
4.589,-0.995,-0.525
4.592,-0.970,-0.565
4.594,-0.935,-0.570
4.597,-0.925,-0.540
4.600,-0.930,-0.490
4.603,-0.940,-0.480
4.606,-0.945,-0.535
4.608,-0.940,-0.600
4.611,-0.925,-0.630
4.614,-0.920,-0.595
4.617,-0.905,-0.525
4.619,-0.905,-0.460
4.622,-0.885,-0.455
4.625,-0.845,-0.520
4.628,-0.805,-0.545
4.631,-0.775,-0.550
4.633,-0.765,-0.485
4.636,-0.765,-0.430
4.639,-0.770,-0.425
4.642,-0.775,-0.460
4.644,-0.770,-0.515
4.647,-0.760,-0.515
4.650,-0.745,-0.450
4.653,-0.760,-0.410
4.656,-0.790,-0.425
4.658,-0.775,-0.450
4.661,-0.770,-0.490
4.664,-0.760,-0.485
4.667,-0.765,-0.455
4.669,-0.795,-0.405
4.672,-0.830,-0.400
4.675,-0.845,-0.475
4.678,-0.840,-0.535
4.681,-0.825,-0.550
4.683,-0.830,-0.515
4.686,-0.840,-0.445
4.689,-0.870,-0.430
4.692,-0.895,-0.440
4.694,-0.900,-0.545
4.697,-0.905,-0.600
4.700,-0.905,-0.590
4.703,-0.925,-0.535
4.706,-0.950,-0.490
4.708,-0.980,-0.485
4.711,-1.010,-0.535
4.714,-1.000,-0.605
4.717,-0.995,-0.610
4.719,-0.985,-0.545
4.722,-0.995,-0.475
4.725,-1.020,-0.450
4.728,-1.020,-0.485
4.731,-1.015,-0.535
4.733,-1.000,-0.590
4.736,-0.980,-0.580
4.739,-0.970,-0.515
4.742,-0.995,-0.480
4.744,-1.015,-0.475
4.747,-1.025,-0.530
4.750,-1.030,-0.590
4.753,-1.015,-0.600
4.756,-1.035,-0.560
4.758,-1.075,-0.470
4.761,-1.120,-0.455
4.764,-1.165,-0.490
4.767,-1.180,-0.560
4.769,-1.165,-0.560
4.772,-1.100,-0.500
4.775,-1.010,-0.420
4.778,-0.850,-0.345
4.781,-0.650,-0.315
4.783,-0.430,-0.290
4.786,-0.200,-0.230
4.789,0.000,-0.140
4.792,0.200,-0.065
4.794,0.405,-0.065
4.797,0.545,-0.150
4.800,0.650,-0.235
4.803,0.705,-0.320
4.806,0.725,-0.390
4.808,0.680,-0.460
4.811,0.635,-0.535
4.814,0.570,-0.605
4.817,0.505,-0.585
4.819,0.415,-0.495
4.822,0.265,-0.345
4.825,0.025,-0.230
4.828,-0.275,-0.190
4.831,-0.550,-0.315
4.833,-0.750,-0.480
4.836,-0.865,-0.605
4.839,-0.925,-0.625
4.842,-0.940,-0.600
4.844,-0.920,-0.550
4.847,-0.885,-0.525
4.850,-0.860,-0.575
4.853,-0.875,-0.560
4.856,-0.875,-0.520
4.858,-0.935,-0.465
4.861,-0.980,-0.445
4.864,-1.010,-0.470
4.867,-1.030,-0.545
4.869,-1.030,-0.565
4.872,-1.035,-0.540
4.875,-1.045,-0.500
4.878,-1.055,-0.455
4.881,-1.070,-0.450
4.883,-1.065,-0.525
4.886,-1.060,-0.540
4.889,-1.045,-0.545
4.892,-1.050,-0.485
4.894,-1.040,-0.430
4.897,-1.030,-0.375
4.900,-1.035,-0.420
4.903,-1.025,-0.480
4.906,-1.025,-0.525
4.908,-1.025,-0.480
4.911,-1.035,-0.455
4.914,-1.050,-0.445
4.917,-1.055,-0.460
4.919,-1.035,-0.490
4.922,-1.010,-0.485
4.925,-1.025,-0.440
4.928,-1.015,-0.375
4.931,-1.020,-0.365
4.933,-1.025,-0.405
4.936,-1.015,-0.470
4.939,-1.005,-0.480
4.942,-1.005,-0.445
4.944,-1.015,-0.405
4.947,-1.020,-0.350
4.950,-1.040,-0.405
4.953,-1.020,-0.435
4.956,-1.015,-0.460
4.958,-0.990,-0.395
4.961,-0.980,-0.340
4.964,-0.980,-0.315
4.967,-0.985,-0.335
4.969,-0.980,-0.385
4.972,-0.970,-0.415
4.975,-0.970,-0.380
4.978,-0.990,-0.355
4.981,-0.990,-0.340
4.983,-0.985,-0.365
4.986,-0.960,-0.385
4.989,-0.945,-0.355
4.992,-0.945,-0.320
4.994,-0.940,-0.290
4.997,-0.925,-0.325
5.000,-0.925,-0.350
5.003,-0.920,-0.355
5.006,-0.920,-0.360
5.008,-0.930,-0.315
5.011,-0.945,-0.320
5.014,-0.940,-0.365
5.017,-0.935,-0.400
5.019,-0.925,-0.380
5.022,-0.915,-0.345
5.025,-0.910,-0.300
5.028,-0.905,-0.285
5.031,-0.900,-0.350
5.033,-0.885,-0.395
5.036,-0.885,-0.400
5.039,-0.900,-0.355
5.042,-0.900,-0.340
5.044,-0.920,-0.350
5.047,-0.900,-0.415
5.050,-0.890,-0.445
5.053,-0.865,-0.435
5.056,-0.860,-0.385
5.058,-0.855,-0.345
5.061,-0.880,-0.365
5.064,-0.850,-0.420
5.067,-0.825,-0.470
5.069,-0.830,-0.480
5.072,-0.835,-0.430
5.075,-0.875,-0.395
5.078,-0.885,-0.415
5.081,-0.885,-0.480
5.083,-0.870,-0.520
5.086,-0.865,-0.540
5.089,-0.865,-0.490
5.092,-0.855,-0.410
5.094,-0.870,-0.395
5.097,-0.850,-0.415
5.100,-0.860,-0.490
5.103,-0.855,-0.535
5.106,-0.850,-0.525
5.108,-0.875,-0.460
5.111,-0.885,-0.425
5.114,-0.905,-0.445
5.117,-0.910,-0.535
5.119,-0.895,-0.545
5.122,-0.870,-0.525
5.125,-0.870,-0.460
5.128,-0.875,-0.390
5.131,-0.885,-0.405
5.133,-0.885,-0.500
5.136,-0.890,-0.540
5.139,-0.875,-0.560
5.142,-0.870,-0.535
5.144,-0.900,-0.460
5.147,-0.920,-0.445
5.150,-0.935,-0.480
5.153,-0.915,-0.520
5.156,-0.905,-0.550
5.158,-0.880,-0.540
5.161,-0.880,-0.470
5.164,-0.910,-0.415
5.167,-0.915,-0.430
5.169,-0.920,-0.490
5.172,-0.915,-0.545
5.175,-0.925,-0.555
5.178,-0.955,-0.510
5.181,-0.945,-0.475
5.183,-0.960,-0.495
5.186,-0.965,-0.515
5.189,-0.960,-0.545
5.192,-0.935,-0.510
5.194,-0.955,-0.465
5.197,-0.965,-0.445
5.200,-0.990,-0.500
5.203,-0.985,-0.545
5.206,-0.980,-0.560
5.208,-0.990,-0.515
5.211,-1.005,-0.500
5.214,-1.000,-0.515
5.217,-1.010,-0.550
5.219,-1.005,-0.570
5.222,-0.995,-0.530
5.225,-0.990,-0.480
5.228,-0.980,-0.445
5.231,-0.990,-0.490
5.233,-0.985,-0.545
5.236,-0.965,-0.565
5.239,-0.965,-0.535
5.242,-0.975,-0.500
5.244,-1.000,-0.470
5.247,-0.985,-0.510
5.250,-0.980,-0.565
5.253,-0.965,-0.570
5.256,-0.950,-0.540
5.258,-0.945,-0.485
5.261,-0.930,-0.450
5.264,-0.910,-0.475
5.267,-0.905,-0.520
5.269,-0.880,-0.545
5.272,-0.885,-0.525
5.275,-0.895,-0.495
5.278,-0.910,-0.470
5.281,-0.905,-0.535
5.283,-0.885,-0.550
5.286,-0.845,-0.555
5.289,-0.810,-0.480
5.292,-0.800,-0.425
5.294,-0.795,-0.410
5.297,-0.760,-0.455
5.300,-0.750,-0.505
5.303,-0.720,-0.510
5.306,-0.710,-0.470
5.308,-0.700,-0.405
5.311,-0.710,-0.405
5.314,-0.715,-0.435
5.317,-0.705,-0.485
5.319,-0.710,-0.485
5.322,-0.715,-0.430
5.325,-0.720,-0.375
5.328,-0.735,-0.370
5.331,-0.750,-0.400
5.333,-0.750,-0.450
5.336,-0.745,-0.490
5.339,-0.755,-0.460
5.342,-0.770,-0.410
5.344,-0.795,-0.425
5.347,-0.795,-0.455
5.350,-0.800,-0.510
5.353,-0.815,-0.505
5.356,-0.805,-0.490
5.358,-0.840,-0.450
5.361,-0.850,-0.440
5.364,-0.875,-0.485
5.367,-0.895,-0.545
5.369,-0.885,-0.560
5.372,-0.900,-0.535
5.375,-0.915,-0.490
5.378,-0.935,-0.475
5.381,-0.935,-0.515
5.383,-0.940,-0.535
5.386,-0.930,-0.540
5.389,-0.945,-0.495
5.392,-0.940,-0.465
5.394,-0.935,-0.490
5.397,-0.925,-0.525
5.400,-0.925,-0.515
5.403,-0.940,-0.495
5.406,-0.955,-0.485
5.408,-0.965,-0.485
5.411,-0.985,-0.560
5.414,-1.015,-0.590
5.417,-1.075,-0.575
5.419,-1.110,-0.515
5.422,-1.160,-0.480
5.425,-1.150,-0.470
5.428,-1.070,-0.490
5.431,-0.960,-0.500
5.433,-0.825,-0.395
5.436,-0.645,-0.300
5.439,-0.445,-0.210
5.442,-0.250,-0.195
5.444,-0.060,-0.205
5.447,0.120,-0.205
5.450,0.290,-0.145
5.453,0.470,-0.100
5.456,0.605,-0.095
5.458,0.710,-0.165
5.461,0.765,-0.305
5.464,0.770,-0.455
5.467,0.725,-0.530
5.469,0.665,-0.510
5.472,0.580,-0.470
5.475,0.485,-0.460
5.478,0.330,-0.420
5.481,0.075,-0.380
5.483,-0.205,-0.325
5.486,-0.500,-0.315
5.489,-0.715,-0.380
5.492,-0.830,-0.470
5.494,-0.885,-0.585
5.497,-0.850,-0.640
5.500,-0.810,-0.600
5.503,-0.780,-0.520
5.506,-0.770,-0.460
5.508,-0.800,-0.430
5.511,-0.840,-0.500
5.514,-0.880,-0.560
5.517,-0.925,-0.575
5.519,-0.955,-0.525
5.522,-0.980,-0.475
5.525,-0.995,-0.455
5.528,-1.015,-0.475
5.531,-1.005,-0.520
5.533,-0.985,-0.530
5.536,-0.990,-0.495
5.539,-0.985,-0.450
5.542,-1.000,-0.430
5.544,-1.010,-0.470
5.547,-1.015,-0.530
5.550,-1.010,-0.560
5.553,-0.990,-0.540
5.556,-0.970,-0.465
5.558,-0.990,-0.400
5.561,-0.975,-0.375
5.564,-0.965,-0.415
5.567,-0.950,-0.485
5.569,-0.950,-0.480
5.572,-0.960,-0.460
5.575,-0.975,-0.410
5.578,-0.990,-0.405
5.581,-0.990,-0.465
5.583,-0.980,-0.470
5.586,-0.970,-0.460
5.589,-0.975,-0.430
5.592,-0.985,-0.390
5.594,-0.985,-0.400
5.597,-0.945,-0.435
5.600,-0.950,-0.440
5.603,-0.950,-0.390
5.606,-0.960,-0.365
5.608,-0.970,-0.385
5.611,-0.975,-0.420
5.614,-0.965,-0.465
5.617,-0.940,-0.450
5.619,-0.950,-0.385
5.622,-0.945,-0.315
5.625,-0.960,-0.305
5.628,-0.940,-0.350
5.631,-0.915,-0.395
5.633,-0.900,-0.400
5.636,-0.915,-0.345
5.639,-0.920,-0.310
5.642,-0.940,-0.310
5.644,-0.930,-0.350
5.647,-0.945,-0.395
5.650,-0.940,-0.405
5.653,-0.930,-0.350
5.656,-0.925,-0.295
5.658,-0.910,-0.280
5.661,-0.915,-0.295
5.664,-0.910,-0.340
5.667,-0.880,-0.370
5.669,-0.870,-0.325
5.672,-0.880,-0.295
5.675,-0.895,-0.280
5.678,-0.895,-0.340
5.681,-0.885,-0.390
5.683,-0.875,-0.410
5.686,-0.875,-0.385
5.689,-0.865,-0.300
5.692,-0.865,-0.270
5.694,-0.850,-0.280
5.697,-0.830,-0.350
5.700,-0.820,-0.395
5.703,-0.830,-0.375
5.706,-0.835,-0.345
5.708,-0.845,-0.330
5.711,-0.850,-0.370
5.714,-0.840,-0.425
5.717,-0.830,-0.455
5.719,-0.815,-0.420
5.722,-0.835,-0.380
5.725,-0.840,-0.325
5.728,-0.845,-0.370
5.731,-0.825,-0.420
5.733,-0.810,-0.465
5.736,-0.810,-0.460
5.739,-0.815,-0.415
5.742,-0.850,-0.395
5.744,-0.860,-0.420
5.747,-0.870,-0.495
5.750,-0.870,-0.535
5.753,-0.845,-0.525
5.756,-0.845,-0.485
5.758,-0.830,-0.420
5.761,-0.860,-0.395
5.764,-0.855,-0.430
5.767,-0.840,-0.500
5.769,-0.840,-0.530
5.772,-0.850,-0.515
5.775,-0.870,-0.465
5.778,-0.885,-0.460
5.781,-0.875,-0.500
5.783,-0.875,-0.545
5.786,-0.885,-0.525
5.789,-0.875,-0.495
5.792,-0.860,-0.440
5.794,-0.865,-0.450
5.797,-0.860,-0.480
5.800,-0.865,-0.525
5.803,-0.850,-0.520
5.806,-0.865,-0.495
5.808,-0.880,-0.475
5.811,-0.885,-0.490
5.814,-0.895,-0.550
5.817,-0.885,-0.550
5.819,-0.885,-0.525
5.822,-0.895,-0.475
5.825,-0.915,-0.450
5.828,-0.895,-0.475
5.831,-0.890,-0.520
5.833,-0.880,-0.550
5.836,-0.890,-0.530
5.839,-0.930,-0.485
5.842,-0.940,-0.450
5.844,-0.960,-0.475
5.847,-0.960,-0.550
5.850,-0.975,-0.570
5.853,-0.950,-0.570
5.856,-0.960,-0.505
5.858,-0.970,-0.450
5.861,-0.975,-0.450
5.864,-0.975,-0.485
5.867,-0.970,-0.550
5.869,-0.955,-0.545
5.872,-0.955,-0.530
5.875,-0.965,-0.500
5.878,-0.990,-0.505
5.881,-0.980,-0.560
5.883,-0.975,-0.590
5.886,-0.960,-0.575
5.889,-0.950,-0.520
5.892,-0.950,-0.470
5.894,-0.960,-0.455
5.897,-0.945,-0.505
5.900,-0.955,-0.570
5.903,-0.940,-0.580
5.906,-0.925,-0.555
5.908,-0.925,-0.505
5.911,-0.945,-0.470
5.914,-0.975,-0.505
5.917,-0.955,-0.550
5.919,-0.945,-0.580
5.922,-0.915,-0.540
5.925,-0.895,-0.480
5.928,-0.885,-0.425
5.931,-0.880,-0.415
5.933,-0.860,-0.480
5.936,-0.855,-0.530
5.939,-0.845,-0.540
5.942,-0.860,-0.500
5.944,-0.890,-0.470
5.947,-0.885,-0.460
5.950,-0.885,-0.505
5.953,-0.840,-0.540
5.956,-0.805,-0.525
5.958,-0.770,-0.485
5.961,-0.745,-0.440
5.964,-0.745,-0.395
5.967,-0.725,-0.440
5.969,-0.705,-0.480
5.972,-0.690,-0.500
5.975,-0.705,-0.460
5.978,-0.715,-0.400
5.981,-0.725,-0.390
5.983,-0.725,-0.415
5.986,-0.715,-0.470
5.989,-0.705,-0.490
5.992,-0.700,-0.440
5.994,-0.715,-0.385
5.997,-0.715,-0.385
6.000,-0.735,-0.425
6.003,-0.740,-0.465
6.006,-0.740,-0.460
6.008,-0.770,-0.440
6.011,-0.780,-0.430
6.014,-0.795,-0.460
6.017,-0.810,-0.515
6.019,-0.825,-0.520
6.022,-0.830,-0.485
6.025,-0.850,-0.450
6.028,-0.885,-0.450
6.031,-0.885,-0.510
6.033,-0.885,-0.560
6.036,-0.880,-0.565
6.039,-0.890,-0.510
6.042,-0.940,-0.470
6.044,-0.970,-0.465
6.047,-0.960,-0.505
6.050,-0.950,-0.575
6.053,-0.945,-0.580
6.056,-0.935,-0.535
6.058,-0.925,-0.460
6.061,-0.950,-0.420
6.064,-0.935,-0.470
6.067,-0.940,-0.520
6.069,-0.920,-0.555
6.072,-0.925,-0.540
6.075,-0.970,-0.500
6.078,-0.990,-0.505
6.081,-1.015,-0.540
6.083,-1.035,-0.575
6.086,-1.075,-0.580
6.089,-1.120,-0.540
6.092,-1.120,-0.485
6.094,-1.105,-0.430
6.097,-1.025,-0.435
6.100,-0.920,-0.425
6.103,-0.755,-0.410
6.106,-0.585,-0.330
6.108,-0.415,-0.230
6.111,-0.260,-0.155
6.114,-0.105,-0.110
6.117,0.040,-0.140
6.119,0.205,-0.155
6.122,0.390,-0.135
6.125,0.530,-0.105
6.128,0.645,-0.070
6.131,0.710,-0.115
6.133,0.735,-0.275
6.136,0.735,-0.445
6.139,0.705,-0.575
6.142,0.635,-0.565
6.144,0.555,-0.485
6.147,0.460,-0.405
6.150,0.325,-0.345
6.153,0.125,-0.320
6.156,-0.100,-0.335
6.158,-0.370,-0.350
6.161,-0.600,-0.385
6.164,-0.765,-0.405
6.167,-0.860,-0.475
6.169,-0.865,-0.570
6.172,-0.840,-0.635
6.175,-0.800,-0.615
6.178,-0.775,-0.550
6.181,-0.785,-0.480
6.183,-0.820,-0.445
6.186,-0.880,-0.465
6.189,-0.920,-0.530
6.192,-0.930,-0.545
6.194,-0.960,-0.515
6.197,-0.990,-0.465
6.200,-0.990,-0.465
6.203,-1.015,-0.470
6.206,-1.000,-0.520
6.208,-0.990,-0.530
6.211,-1.005,-0.525
6.214,-1.010,-0.475
6.217,-1.010,-0.485
6.219,-1.015,-0.515
6.222,-1.000,-0.545
6.225,-0.960,-0.520
6.228,-0.950,-0.455
6.231,-0.955,-0.405
6.233,-0.950,-0.435
6.236,-0.960,-0.485
6.239,-0.960,-0.540
6.242,-0.970,-0.540
6.244,-1.000,-0.490
6.247,-1.005,-0.440
6.250,-1.010,-0.440
6.253,-0.995,-0.485
6.256,-0.980,-0.510
6.258,-0.940,-0.485
6.261,-0.955,-0.430
6.264,-0.950,-0.380
6.267,-0.970,-0.380
6.269,-0.980,-0.405
6.272,-0.960,-0.490
6.275,-0.960,-0.510
6.278,-0.940,-0.450
6.281,-0.950,-0.415
6.283,-0.975,-0.385
6.286,-0.970,-0.420
6.289,-0.955,-0.455
6.292,-0.925,-0.460
6.294,-0.925,-0.410
6.297,-0.920,-0.335
6.300,-0.935,-0.295
6.303,-0.935,-0.330
6.306,-0.940,-0.415
6.308,-0.925,-0.460
6.311,-0.935,-0.440
6.314,-0.945,-0.385
6.317,-0.950,-0.315
6.319,-0.940,-0.305
6.322,-0.930,-0.355
6.325,-0.915,-0.385
6.328,-0.885,-0.375
6.331,-0.875,-0.315
6.333,-0.885,-0.275
6.336,-0.875,-0.270
6.339,-0.890,-0.350
6.342,-0.895,-0.390
6.344,-0.890,-0.410
6.347,-0.900,-0.370
6.350,-0.910,-0.310
6.353,-0.910,-0.290
6.356,-0.895,-0.345
6.358,-0.885,-0.380
6.361,-0.845,-0.395
6.364,-0.830,-0.340
6.367,-0.845,-0.280
6.369,-0.850,-0.275
6.372,-0.850,-0.340
6.375,-0.855,-0.405
6.378,-0.835,-0.455
6.381,-0.830,-0.415
6.383,-0.840,-0.355
6.386,-0.855,-0.325
6.389,-0.865,-0.335
6.392,-0.835,-0.390
6.394,-0.820,-0.425
6.397,-0.795,-0.415
6.400,-0.810,-0.365
6.403,-0.825,-0.365
6.406,-0.830,-0.425
6.408,-0.820,-0.480
6.411,-0.805,-0.470
6.414,-0.840,-0.450
6.417,-0.850,-0.425
6.419,-0.850,-0.430
6.422,-0.840,-0.485
6.425,-0.820,-0.500
6.428,-0.810,-0.460
6.431,-0.825,-0.410
6.433,-0.835,-0.415
6.436,-0.840,-0.450
6.439,-0.850,-0.510
6.442,-0.860,-0.535
6.444,-0.855,-0.500
6.447,-0.875,-0.465
6.450,-0.880,-0.460
6.453,-0.880,-0.480
6.456,-0.860,-0.540
6.458,-0.845,-0.530
6.461,-0.845,-0.475
6.464,-0.855,-0.415
6.467,-0.865,-0.415
6.469,-0.865,-0.480
6.472,-0.865,-0.545
6.475,-0.860,-0.555
6.478,-0.870,-0.525
6.481,-0.890,-0.480
6.483,-0.910,-0.460
6.486,-0.895,-0.510
6.489,-0.890,-0.545
6.492,-0.870,-0.515
6.494,-0.880,-0.470
6.497,-0.890,-0.435
6.500,-0.895,-0.470
6.503,-0.915,-0.510
6.506,-0.900,-0.550
6.508,-0.925,-0.535
6.511,-0.935,-0.495
6.514,-0.950,-0.485
6.517,-0.960,-0.510
6.519,-0.950,-0.560
6.522,-0.960,-0.585
6.525,-0.940,-0.520
6.528,-0.940,-0.470
6.531,-0.940,-0.450
6.533,-0.945,-0.475
6.536,-0.945,-0.540
6.539,-0.950,-0.570
6.542,-0.945,-0.560
6.544,-0.960,-0.505
6.547,-0.990,-0.490
6.550,-0.980,-0.510
6.553,-0.970,-0.560
6.556,-0.950,-0.580
6.558,-0.935,-0.550
6.561,-0.935,-0.470
6.564,-0.935,-0.450
6.567,-0.955,-0.460
6.569,-0.955,-0.525
6.572,-0.950,-0.575
6.575,-0.935,-0.565
6.578,-0.940,-0.510
6.581,-0.935,-0.475
6.583,-0.940,-0.500
6.586,-0.945,-0.535
6.589,-0.905,-0.555
6.592,-0.900,-0.525
6.594,-0.900,-0.475
6.597,-0.890,-0.465
6.600,-0.875,-0.495
6.603,-0.870,-0.540
6.606,-0.850,-0.545
6.608,-0.850,-0.520
6.611,-0.850,-0.505
6.614,-0.855,-0.520
6.617,-0.855,-0.545
6.619,-0.830,-0.540
6.622,-0.800,-0.475
6.625,-0.775,-0.435
6.628,-0.750,-0.455
6.631,-0.730,-0.485
6.633,-0.675,-0.505
6.636,-0.670,-0.455
6.639,-0.670,-0.400
6.642,-0.695,-0.380
6.644,-0.685,-0.435
6.647,-0.700,-0.470
6.650,-0.680,-0.515
6.653,-0.670,-0.455
6.656,-0.680,-0.390
6.658,-0.700,-0.360
6.661,-0.690,-0.385
6.664,-0.705,-0.440
6.667,-0.705,-0.475
6.669,-0.710,-0.435
6.672,-0.720,-0.405
6.675,-0.745,-0.405
6.678,-0.755,-0.455
6.681,-0.755,-0.510
6.683,-0.755,-0.520
6.686,-0.780,-0.490
6.689,-0.810,-0.450
6.692,-0.835,-0.470
6.694,-0.840,-0.510
6.697,-0.835,-0.550
6.700,-0.835,-0.565
6.703,-0.845,-0.505
6.706,-0.860,-0.445
6.708,-0.890,-0.440
6.711,-0.905,-0.495
6.714,-0.915,-0.565
6.717,-0.910,-0.600
6.719,-0.905,-0.545
6.722,-0.920,-0.490
6.725,-0.920,-0.430
6.728,-0.900,-0.455
6.731,-0.895,-0.510
6.733,-0.890,-0.550
6.736,-0.875,-0.535
6.739,-0.895,-0.485
6.742,-0.920,-0.470
6.744,-0.945,-0.495
6.747,-0.965,-0.555
6.750,-0.985,-0.585
6.753,-1.005,-0.565
6.756,-1.055,-0.505
6.758,-1.100,-0.465
6.761,-1.105,-0.475
6.764,-1.060,-0.515
6.767,-0.985,-0.495
6.769,-0.840,-0.410
6.772,-0.690,-0.285
6.775,-0.500,-0.210
6.778,-0.300,-0.190
6.781,-0.105,-0.185
6.783,0.105,-0.175
6.786,0.295,-0.120
6.789,0.455,-0.045
6.792,0.620,-0.055
6.794,0.705,-0.125
6.797,0.775,-0.280
6.800,0.795,-0.400
6.803,0.750,-0.475
6.806,0.685,-0.475
6.808,0.575,-0.465
6.811,0.455,-0.440
6.814,0.275,-0.390
6.817,0.005,-0.320
6.819,-0.310,-0.290
6.822,-0.580,-0.340
6.825,-0.775,-0.475
6.828,-0.865,-0.585
6.831,-0.845,-0.615
6.833,-0.815,-0.600
6.836,-0.790,-0.520
6.839,-0.770,-0.475
6.842,-0.780,-0.505
6.844,-0.800,-0.545
6.847,-0.845,-0.590
6.850,-0.885,-0.555
6.853,-0.935,-0.515
6.856,-0.975,-0.475
6.858,-0.975,-0.505
6.861,-0.970,-0.540
6.864,-0.945,-0.550
6.867,-0.960,-0.510
6.869,-0.965,-0.455
6.872,-0.970,-0.445
6.875,-0.985,-0.485
6.878,-0.980,-0.550
6.881,-0.985,-0.570
6.883,-0.975,-0.535
6.886,-0.965,-0.470
6.889,-0.960,-0.425
6.892,-0.960,-0.440
6.894,-0.940,-0.485
6.897,-0.930,-0.495
6.900,-0.920,-0.475
6.903,-0.920,-0.425
6.906,-0.945,-0.395
6.908,-0.955,-0.450
6.911,-0.965,-0.510
6.914,-0.950,-0.520
6.917,-0.950,-0.495
6.919,-0.955,-0.450
6.922,-0.945,-0.390
6.925,-0.950,-0.420
6.928,-0.920,-0.455
6.931,-0.905,-0.475
6.933,-0.895,-0.445
6.936,-0.900,-0.405
6.939,-0.920,-0.400
6.942,-0.940,-0.415
6.944,-0.945,-0.470
6.947,-0.935,-0.485
6.950,-0.920,-0.435
6.953,-0.920,-0.375
6.956,-0.930,-0.350
6.958,-0.935,-0.355
6.961,-0.925,-0.395
6.964,-0.900,-0.420
6.967,-0.890,-0.375
6.969,-0.890,-0.325
6.972,-0.895,-0.300
6.975,-0.915,-0.345
6.978,-0.900,-0.400
6.981,-0.895,-0.415
6.983,-0.890,-0.390
6.986,-0.900,-0.335
6.989,-0.905,-0.300
6.992,-0.890,-0.330
6.994,-0.870,-0.365
6.997,-0.850,-0.360
7.000,-0.845,-0.330
7.003,-0.860,-0.295
7.006,-0.870,-0.295
7.008,-0.885,-0.335
7.011,-0.850,-0.400
7.014,-0.855,-0.405
7.017,-0.860,-0.355
7.019,-0.850,-0.335
7.022,-0.860,-0.330
7.025,-0.850,-0.380
7.028,-0.850,-0.400
7.031,-0.815,-0.380
7.033,-0.825,-0.330
7.036,-0.830,-0.340
7.039,-0.835,-0.375
7.042,-0.840,-0.445
7.044,-0.825,-0.455
7.047,-0.815,-0.425
7.050,-0.835,-0.395
7.053,-0.825,-0.380
7.056,-0.840,-0.395
7.058,-0.815,-0.465
7.061,-0.800,-0.495
7.064,-0.775,-0.470
7.067,-0.790,-0.410
7.069,-0.810,-0.375
7.072,-0.830,-0.410
7.075,-0.860,-0.485
7.078,-0.840,-0.565
7.081,-0.815,-0.580
7.083,-0.820,-0.510
7.086,-0.860,-0.445
7.089,-0.855,-0.410
7.092,-0.850,-0.450
7.094,-0.840,-0.515
7.097,-0.810,-0.510
7.100,-0.795,-0.490
7.103,-0.825,-0.440
7.106,-0.845,-0.430
7.108,-0.865,-0.475
7.111,-0.860,-0.545
7.114,-0.840,-0.590
7.117,-0.850,-0.570
7.119,-0.845,-0.500
7.122,-0.860,-0.455
7.125,-0.865,-0.445
7.128,-0.850,-0.505
7.131,-0.830,-0.545
7.133,-0.815,-0.535
7.136,-0.825,-0.495
7.139,-0.855,-0.455
7.142,-0.875,-0.460
7.144,-0.885,-0.535
7.147,-0.885,-0.565
7.150,-0.880,-0.595
7.153,-0.880,-0.540
7.156,-0.870,-0.475
7.158,-0.885,-0.450
7.161,-0.885,-0.490
7.164,-0.875,-0.530
7.167,-0.865,-0.555
7.169,-0.870,-0.520
7.172,-0.885,-0.480
7.175,-0.910,-0.465
7.178,-0.925,-0.490
7.181,-0.935,-0.555
7.183,-0.945,-0.610
7.186,-0.940,-0.575
7.189,-0.960,-0.515
7.192,-0.955,-0.460
7.194,-0.950,-0.465
7.197,-0.935,-0.515
7.200,-0.935,-0.565
7.203,-0.930,-0.575
7.206,-0.940,-0.535
7.208,-0.975,-0.495
7.211,-0.995,-0.505
7.214,-0.980,-0.555
7.217,-0.975,-0.600
7.219,-0.960,-0.575
7.222,-0.945,-0.520
7.225,-0.955,-0.485
7.228,-0.945,-0.490
7.231,-0.940,-0.520
7.233,-0.930,-0.565
7.236,-0.905,-0.545
7.239,-0.915,-0.490
7.242,-0.940,-0.470
7.244,-0.935,-0.520
7.247,-0.940,-0.570
7.250,-0.925,-0.590
7.253,-0.920,-0.570
7.256,-0.910,-0.505
7.258,-0.915,-0.440
7.261,-0.935,-0.455
7.264,-0.920,-0.510
7.267,-0.900,-0.575
7.269,-0.875,-0.575
7.272,-0.880,-0.540
7.275,-0.865,-0.485
7.278,-0.885,-0.485
7.281,-0.885,-0.555
7.283,-0.880,-0.580
7.286,-0.875,-0.595
7.289,-0.860,-0.540
7.292,-0.845,-0.475
7.294,-0.830,-0.485
7.297,-0.815,-0.510
7.300,-0.780,-0.540
7.303,-0.755,-0.540
7.306,-0.710,-0.490
7.308,-0.720,-0.465
7.311,-0.735,-0.440
7.314,-0.730,-0.495
7.317,-0.730,-0.545
7.319,-0.695,-0.515
7.322,-0.680,-0.460
7.325,-0.690,-0.390
7.328,-0.700,-0.375
7.331,-0.690,-0.415
7.333,-0.665,-0.480
7.336,-0.670,-0.495
7.339,-0.700,-0.470
7.342,-0.725,-0.435
7.344,-0.770,-0.440
7.347,-0.770,-0.460
7.350,-0.760,-0.520
7.353,-0.755,-0.525
7.356,-0.765,-0.470
7.358,-0.750,-0.425
7.361,-0.775,-0.445
7.364,-0.800,-0.490
7.367,-0.825,-0.555
7.369,-0.845,-0.565
7.372,-0.860,-0.535
7.375,-0.880,-0.505
7.378,-0.910,-0.500
7.381,-0.910,-0.540
7.383,-0.915,-0.600
7.386,-0.905,-0.615
7.389,-0.905,-0.550
7.392,-0.910,-0.490
7.394,-0.940,-0.455
7.397,-0.940,-0.500
7.400,-0.925,-0.575
7.403,-0.915,-0.605
7.406,-0.925,-0.580
7.408,-0.925,-0.540
7.411,-0.940,-0.535
7.414,-0.940,-0.580
7.417,-0.950,-0.610
7.419,-0.945,-0.620
7.422,-0.945,-0.570
7.425,-0.980,-0.530
7.428,-1.015,-0.530
7.431,-1.040,-0.560
7.433,-1.080,-0.610
7.436,-1.095,-0.595
7.439,-1.080,-0.535
7.442,-1.020,-0.465
7.444,-0.920,-0.425
7.447,-0.765,-0.425
7.450,-0.560,-0.405
7.453,-0.350,-0.350
7.456,-0.175,-0.245
7.458,0.015,-0.135
7.461,0.175,-0.085
7.464,0.315,-0.105
7.467,0.475,-0.140
7.469,0.605,-0.195
7.472,0.700,-0.225
7.475,0.760,-0.270
7.478,0.750,-0.335
7.481,0.725,-0.470
7.483,0.675,-0.600
7.486,0.645,-0.620
7.489,0.565,-0.560
7.492,0.470,-0.425
7.494,0.270,-0.300
7.497,-0.005,-0.275
7.500,-0.310,-0.370
7.503,-0.555,-0.480
7.506,-0.730,-0.550
7.508,-0.850,-0.570
7.511,-0.905,-0.565
7.514,-0.865,-0.605
7.517,-0.830,-0.630
7.519,-0.780,-0.630
7.522,-0.765,-0.585
7.525,-0.770,-0.505
7.528,-0.830,-0.465
7.531,-0.905,-0.450
7.533,-0.925,-0.520
7.536,-0.950,-0.595
7.539,-0.955,-0.605
7.542,-0.975,-0.560
7.544,-1.010,-0.525
7.547,-1.020,-0.510
7.550,-1.030,-0.540
7.553,-1.015,-0.595
7.556,-1.005,-0.590
7.558,-1.000,-0.530
7.561,-0.985,-0.470
7.564,-0.990,-0.435
7.567,-0.990,-0.475
7.569,-0.980,-0.545
7.572,-0.970,-0.575
7.575,-0.980,-0.530
7.578,-0.985,-0.465
7.581,-0.990,-0.445
7.583,-1.005,-0.495
7.586,-0.985,-0.560
7.589,-0.980,-0.575
7.592,-0.965,-0.530
7.594,-0.945,-0.445
7.597,-0.970,-0.420
7.600,-0.970,-0.440
7.603,-0.960,-0.495
7.606,-0.945,-0.525
7.608,-0.965,-0.495
7.611,-0.960,-0.455
7.614,-0.985,-0.425
7.617,-0.995,-0.480
7.619,-0.975,-0.535
7.622,-0.960,-0.500
7.625,-0.940,-0.465
7.628,-0.945,-0.395
7.631,-0.935,-0.390
7.633,-0.935,-0.425
7.636,-0.925,-0.465
7.639,-0.905,-0.445
7.642,-0.940,-0.415
7.644,-0.950,-0.380
7.647,-0.960,-0.430
7.650,-0.975,-0.460
7.653,-0.950,-0.465
7.656,-0.935,-0.430
7.658,-0.930,-0.365
7.661,-0.920,-0.340
7.664,-0.920,-0.345
7.667,-0.910,-0.400
7.669,-0.880,-0.440
7.672,-0.870,-0.405
7.675,-0.865,-0.365
7.678,-0.905,-0.340
7.681,-0.915,-0.355
7.683,-0.925,-0.430
7.686,-0.920,-0.465
7.689,-0.890,-0.445
7.692,-0.885,-0.395
7.694,-0.875,-0.345
7.697,-0.885,-0.345
7.700,-0.870,-0.395
7.703,-0.855,-0.445
7.706,-0.845,-0.420
7.708,-0.865,-0.390
7.711,-0.890,-0.375
7.714,-0.890,-0.410
7.717,-0.880,-0.440
7.719,-0.865,-0.495
7.722,-0.860,-0.470
7.725,-0.855,-0.395
7.728,-0.850,-0.360
7.731,-0.840,-0.390
7.733,-0.830,-0.455
7.736,-0.830,-0.515
7.739,-0.815,-0.505
7.742,-0.820,-0.480
7.744,-0.840,-0.435
7.747,-0.860,-0.450
7.750,-0.865,-0.520
7.753,-0.865,-0.570
7.756,-0.840,-0.570
7.758,-0.825,-0.520
7.761,-0.825,-0.455
7.764,-0.830,-0.445
7.767,-0.840,-0.500
7.769,-0.850,-0.560
7.772,-0.840,-0.560
7.775,-0.850,-0.540
7.778,-0.865,-0.500
7.781,-0.880,-0.500
7.783,-0.885,-0.550
7.786,-0.880,-0.610
7.789,-0.865,-0.595
7.792,-0.875,-0.545
7.794,-0.880,-0.495
7.797,-0.890,-0.485
7.800,-0.870,-0.555
7.803,-0.870,-0.590
7.806,-0.855,-0.600
7.808,-0.865,-0.545
7.811,-0.885,-0.505
7.814,-0.900,-0.530
7.817,-0.910,-0.580
7.819,-0.900,-0.630
7.822,-0.880,-0.605
7.825,-0.905,-0.540
7.828,-0.905,-0.495
7.831,-0.915,-0.530
7.833,-0.900,-0.570
7.836,-0.890,-0.600
7.839,-0.910,-0.575
7.842,-0.925,-0.550
7.844,-0.940,-0.550
7.847,-0.955,-0.595
7.850,-0.950,-0.640
7.853,-0.960,-0.635
7.856,-0.940,-0.575
7.858,-0.960,-0.520
7.861,-0.965,-0.510
7.864,-0.985,-0.550
7.867,-0.950,-0.610
7.869,-0.950,-0.600
7.872,-0.955,-0.590
7.875,-0.975,-0.535
7.878,-0.985,-0.535
7.881,-1.000,-0.580
7.883,-1.000,-0.640
7.886,-0.985,-0.675
7.889,-0.985,-0.620
7.892,-0.970,-0.550
7.894,-0.985,-0.515
7.897,-0.990,-0.550
7.900,-0.975,-0.600
7.903,-0.970,-0.620
7.906,-0.960,-0.600
7.908,-0.965,-0.555
7.911,-0.980,-0.545
7.914,-1.000,-0.585
7.917,-1.010,-0.630
7.919,-0.980,-0.665
7.922,-0.975,-0.625
7.925,-0.965,-0.565
7.928,-0.955,-0.510
7.931,-0.965,-0.525
7.933,-0.950,-0.580
7.936,-0.925,-0.635
7.939,-0.920,-0.625
7.942,-0.925,-0.565
7.944,-0.940,-0.530
7.947,-0.955,-0.550
7.950,-0.940,-0.615
7.953,-0.915,-0.630
7.956,-0.895,-0.610
7.958,-0.880,-0.550
7.961,-0.875,-0.510
7.964,-0.865,-0.530
7.967,-0.885,-0.585
7.969,-0.855,-0.605
7.972,-0.840,-0.580
7.975,-0.825,-0.540
7.978,-0.830,-0.520
7.981,-0.825,-0.555
7.983,-0.800,-0.605
7.986,-0.765,-0.615
7.989,-0.740,-0.580
7.992,-0.720,-0.500
7.994,-0.700,-0.450
7.997,-0.700,-0.455
8.000,-0.695,-0.505
8.003,-0.680,-0.525
8.006,-0.675,-0.505
8.008,-0.710,-0.460
8.011,-0.740,-0.470
8.014,-0.770,-0.520
8.017,-0.780,-0.555
8.019,-0.750,-0.560
8.022,-0.745,-0.505
8.025,-0.755,-0.480
8.028,-0.770,-0.490
8.031,-0.750,-0.530
8.033,-0.745,-0.530
8.036,-0.770,-0.515
8.039,-0.810,-0.495
8.042,-0.850,-0.515
8.044,-0.875,-0.600
8.047,-0.880,-0.650
8.050,-0.890,-0.635
8.053,-0.910,-0.585
8.056,-0.925,-0.535
8.058,-0.930,-0.535
8.061,-0.905,-0.575
8.064,-0.905,-0.605
8.067,-0.890,-0.595
8.069,-0.910,-0.540
8.072,-0.920,-0.515
8.075,-0.950,-0.535
8.078,-0.960,-0.595
8.081,-0.950,-0.640
8.083,-0.940,-0.635
8.086,-0.940,-0.600
8.089,-0.960,-0.540
8.092,-0.970,-0.550
8.094,-0.960,-0.585
8.097,-0.945,-0.620
8.100,-0.960,-0.610
8.103,-0.995,-0.565
8.106,-1.045,-0.550
8.108,-1.100,-0.555
8.111,-1.155,-0.615
8.114,-1.145,-0.645
8.117,-1.100,-0.610
8.119,-1.025,-0.515
8.122,-0.895,-0.410
8.125,-0.745,-0.320
8.128,-0.565,-0.310
8.131,-0.340,-0.315
8.133,-0.140,-0.275
8.136,0.055,-0.175
8.139,0.220,-0.095
8.142,0.360,-0.085
8.144,0.485,-0.125
8.147,0.615,-0.235
8.150,0.715,-0.335
8.153,0.760,-0.390
8.156,0.750,-0.435
8.158,0.710,-0.510
8.161,0.665,-0.565
8.164,0.605,-0.585
8.167,0.535,-0.535
8.169,0.390,-0.405
8.172,0.150,-0.290
8.175,-0.150,-0.280
8.178,-0.450,-0.395
8.181,-0.680,-0.555
8.183,-0.830,-0.670
8.186,-0.875,-0.695
8.189,-0.870,-0.635
8.192,-0.830,-0.545
8.194,-0.795,-0.530
8.197,-0.765,-0.550
8.200,-0.750,-0.585
8.203,-0.785,-0.605
8.206,-0.835,-0.570
8.208,-0.905,-0.535
8.211,-0.960,-0.540
8.214,-0.990,-0.595
8.217,-1.010,-0.630
8.219,-1.010,-0.640
8.222,-1.010,-0.585
8.225,-1.005,-0.520
8.228,-1.020,-0.520
8.231,-1.010,-0.560
8.233,-0.995,-0.590
8.236,-0.985,-0.555
8.239,-0.980,-0.515
8.242,-0.990,-0.485
8.244,-0.990,-0.515
8.247,-1.005,-0.590
8.250,-1.000,-0.635
8.253,-1.005,-0.615
8.256,-1.005,-0.550
8.258,-1.000,-0.485
8.261,-1.010,-0.500
8.264,-1.010,-0.540
8.267,-0.990,-0.580
8.269,-0.970,-0.570
8.272,-0.965,-0.515
8.275,-0.980,-0.480
8.278,-1.000,-0.480
8.281,-1.000,-0.530
8.283,-0.985,-0.585
8.286,-0.985,-0.595
8.289,-0.965,-0.535
8.292,-0.960,-0.465
8.294,-0.975,-0.430
8.297,-0.970,-0.470
8.300,-0.965,-0.505
8.303,-0.955,-0.545
8.306,-0.945,-0.520
8.308,-0.955,-0.450
8.311,-0.975,-0.410
8.314,-0.975,-0.450
8.317,-0.970,-0.495
8.319,-0.960,-0.535
8.322,-0.950,-0.515
8.325,-0.940,-0.430
8.328,-0.950,-0.375
8.331,-0.950,-0.360
8.333,-0.935,-0.410
8.336,-0.905,-0.480
8.339,-0.905,-0.465
8.342,-0.905,-0.410
8.344,-0.920,-0.380
8.347,-0.940,-0.375
8.350,-0.925,-0.420
8.353,-0.925,-0.475
8.356,-0.900,-0.450
8.358,-0.905,-0.385
8.361,-0.910,-0.335
8.364,-0.900,-0.340
8.367,-0.895,-0.400
8.369,-0.880,-0.430
8.372,-0.885,-0.440
8.375,-0.890,-0.400
8.378,-0.910,-0.385
8.381,-0.920,-0.410
8.383,-0.895,-0.470
8.386,-0.900,-0.500
8.389,-0.870,-0.480
8.392,-0.865,-0.400
8.394,-0.870,-0.370
8.397,-0.885,-0.380
8.400,-0.855,-0.430
8.403,-0.840,-0.495
8.406,-0.840,-0.510
8.408,-0.845,-0.450
8.411,-0.855,-0.425
8.414,-0.890,-0.450
8.417,-0.885,-0.510
8.419,-0.875,-0.545
8.422,-0.875,-0.540
8.425,-0.860,-0.490
8.428,-0.860,-0.435
8.431,-0.860,-0.435
8.433,-0.845,-0.495
8.436,-0.850,-0.560
8.439,-0.855,-0.535
8.442,-0.850,-0.520
8.444,-0.880,-0.485
8.447,-0.890,-0.500
8.450,-0.905,-0.565
8.453,-0.890,-0.595
8.456,-0.890,-0.575
8.458,-0.875,-0.535
8.461,-0.885,-0.500
8.464,-0.895,-0.500
8.467,-0.890,-0.560
8.469,-0.865,-0.590
8.472,-0.890,-0.580
8.475,-0.900,-0.545
8.478,-0.900,-0.495
8.481,-0.915,-0.520
8.483,-0.910,-0.585
8.486,-0.910,-0.635
8.489,-0.905,-0.635
8.492,-0.880,-0.555
8.494,-0.895,-0.505
8.497,-0.925,-0.475
8.500,-0.930,-0.515
8.503,-0.925,-0.575
8.506,-0.915,-0.620
8.508,-0.900,-0.605
8.511,-0.915,-0.555
8.514,-0.935,-0.555
8.517,-0.930,-0.580
8.519,-0.940,-0.630
8.522,-0.930,-0.625
8.525,-0.930,-0.580
8.528,-0.930,-0.525
8.531,-0.945,-0.485
8.533,-0.950,-0.535
8.536,-0.955,-0.605
8.539,-0.950,-0.640
8.542,-0.955,-0.615
8.544,-0.975,-0.570
8.547,-0.995,-0.555
8.550,-1.005,-0.600
8.553,-1.000,-0.640
8.556,-0.990,-0.660
8.558,-0.980,-0.625
8.561,-0.990,-0.550
8.564,-0.990,-0.530
8.567,-0.975,-0.575
8.569,-0.985,-0.625
8.572,-0.995,-0.640
8.575,-0.975,-0.610
8.578,-1.000,-0.570
8.581,-1.015,-0.565
8.583,-1.015,-0.630
8.586,-1.000,-0.665
8.589,-0.970,-0.645
8.592,-0.955,-0.600
8.594,-0.955,-0.565
8.597,-0.965,-0.545
8.600,-0.960,-0.595
8.603,-0.950,-0.660
8.606,-0.935,-0.660
8.608,-0.930,-0.630
8.611,-0.965,-0.585
8.614,-0.975,-0.570
8.617,-0.975,-0.620
8.619,-0.970,-0.670
8.622,-0.965,-0.670
8.625,-0.955,-0.595
8.628,-0.950,-0.560
8.631,-0.945,-0.555
8.633,-0.930,-0.580
8.636,-0.920,-0.620
8.639,-0.895,-0.620
8.642,-0.905,-0.590
8.644,-0.915,-0.565
8.647,-0.915,-0.595
8.650,-0.910,-0.635
8.653,-0.905,-0.655
8.656,-0.895,-0.615
8.658,-0.850,-0.540
8.661,-0.830,-0.520
8.664,-0.805,-0.545
8.667,-0.775,-0.575
8.669,-0.740,-0.620
8.672,-0.720,-0.580
8.675,-0.730,-0.515
8.678,-0.740,-0.460
8.681,-0.730,-0.490
8.683,-0.745,-0.545
8.686,-0.725,-0.575
8.689,-0.710,-0.570
8.692,-0.690,-0.505
8.694,-0.695,-0.460
8.697,-0.725,-0.430
8.700,-0.720,-0.475
8.703,-0.720,-0.545
8.706,-0.725,-0.575
8.708,-0.735,-0.535
8.711,-0.760,-0.475
8.714,-0.790,-0.480
8.717,-0.800,-0.515
8.719,-0.790,-0.580
8.722,-0.790,-0.630
8.725,-0.780,-0.585
8.728,-0.795,-0.515
8.731,-0.835,-0.470
8.733,-0.845,-0.495
8.736,-0.865,-0.570
8.739,-0.875,-0.660
8.742,-0.870,-0.670
8.744,-0.885,-0.625
8.747,-0.915,-0.560
8.750,-0.940,-0.550
8.753,-0.950,-0.585
8.756,-0.940,-0.645
8.758,-0.920,-0.630
8.761,-0.915,-0.585
8.764,-0.930,-0.545
8.767,-0.945,-0.525
8.769,-0.940,-0.585
8.772,-0.945,-0.635
8.775,-0.940,-0.640
8.778,-0.940,-0.620
8.781,-0.960,-0.580
8.783,-0.960,-0.565
8.786,-1.000,-0.625
8.789,-0.995,-0.665
8.792,-1.000,-0.660
8.794,-1.005,-0.590
8.797,-1.035,-0.540
8.800,-1.090,-0.515
8.803,-1.145,-0.560
8.806,-1.175,-0.635
8.808,-1.150,-0.660
8.811,-1.070,-0.610
8.814,-0.965,-0.500
8.817,-0.835,-0.395
8.819,-0.665,-0.345
8.822,-0.460,-0.330
8.825,-0.220,-0.310
8.828,-0.025,-0.235
8.831,0.165,-0.125
8.833,0.310,-0.090
8.836,0.465,-0.120
8.839,0.590,-0.220
8.842,0.690,-0.330
8.844,0.730,-0.420
8.847,0.725,-0.495
8.850,0.685,-0.545
8.853,0.605,-0.590
8.856,0.530,-0.595
8.858,0.425,-0.500
8.861,0.240,-0.385
8.864,-0.040,-0.285
8.867,-0.335,-0.330
8.869,-0.590,-0.470
8.872,-0.785,-0.605
8.875,-0.870,-0.680
8.878,-0.895,-0.680
8.881,-0.875,-0.635
8.883,-0.835,-0.595
8.886,-0.820,-0.610
8.889,-0.825,-0.640
8.892,-0.850,-0.630
8.894,-0.885,-0.565
8.897,-0.930,-0.540
8.900,-0.970,-0.535
8.903,-0.990,-0.590
8.906,-1.010,-0.645
8.908,-1.005,-0.645
8.911,-1.010,-0.615
8.914,-1.020,-0.565
8.917,-1.050,-0.565
8.919,-1.040,-0.615
8.922,-1.030,-0.655
8.925,-1.020,-0.645
8.928,-0.995,-0.575
8.931,-1.000,-0.500
8.933,-1.000,-0.485
8.936,-1.010,-0.530
8.939,-1.010,-0.600
8.942,-1.000,-0.640
8.944,-0.995,-0.615
8.947,-1.025,-0.575
8.950,-1.040,-0.535
8.953,-1.035,-0.550
8.956,-1.030,-0.600
8.958,-1.000,-0.620
8.961,-0.985,-0.585
8.964,-0.990,-0.515
8.967,-0.995,-0.480
8.969,-1.010,-0.490
8.972,-0.995,-0.560
8.975,-0.990,-0.590
8.978,-0.985,-0.575
8.981,-1.000,-0.530
8.983,-1.010,-0.500
8.986,-1.015,-0.515
8.989,-1.020,-0.540
8.992,-1.005,-0.560
8.994,-0.980,-0.525
8.997,-0.965,-0.445
9.000,-0.965,-0.420
9.003,-0.970,-0.440
9.006,-0.975,-0.490
9.008,-0.965,-0.535
9.011,-0.975,-0.530
9.014,-0.980,-0.480
9.017,-0.980,-0.430
9.019,-0.995,-0.450
9.022,-0.980,-0.485
9.025,-0.970,-0.505
9.028,-0.940,-0.475
9.031,-0.940,-0.410
9.033,-0.935,-0.375
9.036,-0.965,-0.395
9.039,-0.960,-0.460
9.042,-0.940,-0.490
9.044,-0.935,-0.455
9.047,-0.930,-0.410
9.050,-0.950,-0.405
9.053,-0.950,-0.430
9.056,-0.955,-0.490
9.058,-0.930,-0.485
9.061,-0.900,-0.450
9.064,-0.905,-0.370
9.067,-0.905,-0.360
9.069,-0.910,-0.400
9.072,-0.915,-0.470
9.075,-0.910,-0.510
9.078,-0.900,-0.490
9.081,-0.890,-0.460
9.083,-0.905,-0.430
9.086,-0.925,-0.450
9.089,-0.920,-0.525
9.092,-0.890,-0.550
9.094,-0.890,-0.515
9.097,-0.870,-0.450
9.100,-0.865,-0.410
9.103,-0.875,-0.420
9.106,-0.890,-0.485
9.108,-0.885,-0.555
9.111,-0.880,-0.600
9.114,-0.885,-0.570
9.117,-0.885,-0.535
9.119,-0.895,-0.515
9.122,-0.910,-0.535
9.125,-0.905,-0.600
9.128,-0.890,-0.610
9.131,-0.880,-0.600
9.133,-0.885,-0.540
9.136,-0.895,-0.495
9.139,-0.910,-0.530
9.142,-0.910,-0.610
9.144,-0.910,-0.665
9.147,-0.925,-0.670
9.150,-0.920,-0.625
9.153,-0.925,-0.575
9.156,-0.960,-0.560
9.158,-0.940,-0.600
9.161,-0.920,-0.665
9.164,-0.900,-0.660
9.167,-0.890,-0.610
9.169,-0.925,-0.555
9.172,-0.925,-0.540
9.175,-0.935,-0.595
9.178,-0.940,-0.660
9.181,-0.930,-0.695
9.183,-0.925,-0.665
9.186,-0.940,-0.600
9.189,-0.955,-0.575
9.192,-0.965,-0.590
9.194,-0.945,-0.630
9.197,-0.915,-0.660
9.200,-0.920,-0.615
9.203,-0.915,-0.560
9.206,-0.940,-0.535
9.208,-0.950,-0.570
9.211,-0.960,-0.640
9.214,-0.960,-0.695
9.217,-0.950,-0.695
9.219,-0.975,-0.635
9.222,-1.000,-0.565
9.225,-1.020,-0.550
9.228,-0.995,-0.620
9.231,-0.975,-0.645
9.233,-0.955,-0.665
9.236,-0.955,-0.625
9.239,-0.985,-0.560
9.242,-1.005,-0.580
9.244,-1.010,-0.645
9.247,-1.020,-0.690
9.250,-1.010,-0.710
9.253,-1.025,-0.640
9.256,-1.025,-0.605
9.258,-1.025,-0.595
9.261,-1.035,-0.635
9.264,-1.005,-0.665
9.267,-0.990,-0.645
9.269,-1.000,-0.605
9.272,-1.010,-0.585
9.275,-1.015,-0.590
9.278,-1.030,-0.650
9.281,-1.020,-0.710
9.283,-1.005,-0.695
9.286,-1.000,-0.625
9.289,-1.010,-0.585
9.292,-1.025,-0.570
9.294,-1.015,-0.610
9.297,-0.990,-0.655
9.300,-0.965,-0.680
9.303,-0.965,-0.640
9.306,-0.965,-0.565
9.308,-1.005,-0.545
9.311,-1.000,-0.585
9.314,-1.000,-0.650
9.317,-0.990,-0.700
9.319,-1.005,-0.690
9.322,-0.980,-0.625
9.325,-0.990,-0.585
9.328,-0.990,-0.600
9.331,-0.960,-0.620
9.333,-0.930,-0.645
9.336,-0.915,-0.610
9.339,-0.920,-0.580
9.342,-0.950,-0.555
9.344,-0.935,-0.605
9.347,-0.930,-0.675
9.350,-0.925,-0.715
9.353,-0.910,-0.700
9.356,-0.900,-0.620
9.358,-0.890,-0.545
9.361,-0.865,-0.545
9.364,-0.825,-0.585
9.367,-0.790,-0.630
9.369,-0.775,-0.620
9.372,-0.755,-0.580
9.375,-0.755,-0.535
9.378,-0.750,-0.530
9.381,-0.755,-0.585
9.383,-0.750,-0.610
9.386,-0.750,-0.575
9.389,-0.765,-0.525
9.392,-0.770,-0.490
9.394,-0.760,-0.510
9.397,-0.750,-0.565
9.400,-0.755,-0.600
9.403,-0.760,-0.580
9.406,-0.780,-0.525
9.408,-0.795,-0.485
9.411,-0.810,-0.510
9.414,-0.835,-0.590
9.417,-0.825,-0.640
9.419,-0.820,-0.650
9.422,-0.825,-0.595
9.425,-0.850,-0.545
9.428,-0.880,-0.545
9.431,-0.890,-0.610
9.433,-0.900,-0.645
9.436,-0.895,-0.665
9.439,-0.930,-0.605
9.442,-0.945,-0.585
9.444,-0.980,-0.600
9.447,-0.980,-0.645
9.450,-0.990,-0.690
9.453,-0.980,-0.670
9.456,-0.980,-0.615
9.458,-1.005,-0.575
9.461,-0.995,-0.600
9.464,-0.985,-0.660
9.467,-0.960,-0.655
9.469,-0.930,-0.645
9.472,-0.955,-0.580
9.475,-0.975,-0.580
9.478,-0.995,-0.610
9.481,-0.995,-0.695
9.483,-1.000,-0.725
9.486,-1.010,-0.700
9.489,-1.065,-0.630
9.492,-1.100,-0.575
9.494,-1.150,-0.590
9.497,-1.175,-0.635
9.500,-1.185,-0.690
9.503,-1.165,-0.685
9.506,-1.110,-0.615
9.508,-1.040,-0.520
9.511,-0.925,-0.435
9.514,-0.780,-0.435
9.517,-0.575,-0.440
9.519,-0.380,-0.405
9.522,-0.185,-0.320
9.525,-0.005,-0.220
9.528,0.145,-0.140
9.531,0.310,-0.165
9.533,0.480,-0.215
9.536,0.595,-0.305
9.539,0.685,-0.360
9.542,0.695,-0.410
9.544,0.695,-0.495
9.547,0.655,-0.590
9.550,0.585,-0.660
9.553,0.530,-0.670
9.556,0.445,-0.595
9.558,0.290,-0.450
9.561,0.060,-0.345
9.564,-0.240,-0.350
9.567,-0.515,-0.460
9.569,-0.725,-0.585
9.572,-0.855,-0.680
9.575,-0.915,-0.695
9.578,-0.915,-0.675
9.581,-0.905,-0.675
9.583,-0.865,-0.705
9.586,-0.840,-0.700
9.589,-0.845,-0.665
9.592,-0.890,-0.610
9.594,-0.940,-0.575
9.597,-0.995,-0.595
9.600,-1.020,-0.650
9.603,-1.035,-0.685
9.606,-1.035,-0.670
9.608,-1.045,-0.595
9.611,-1.065,-0.585
9.614,-1.085,-0.630
9.617,-1.085,-0.675
9.619,-1.070,-0.730
9.622,-1.065,-0.695
9.625,-1.050,-0.630
9.628,-1.055,-0.565
9.631,-1.060,-0.575
9.633,-1.030,-0.620
9.636,-1.025,-0.635
9.639,-1.025,-0.605
9.642,-1.035,-0.570
9.644,-1.060,-0.575
9.647,-1.070,-0.640
9.650,-1.055,-0.670
9.653,-1.055,-0.670
9.656,-1.055,-0.610
9.658,-1.055,-0.560
9.661,-1.050,-0.560
9.664,-1.040,-0.595
9.667,-1.020,-0.625
9.669,-1.020,-0.600
9.672,-1.010,-0.550
9.675,-1.020,-0.545
9.678,-1.030,-0.565
9.681,-1.025,-0.620
9.683,-1.025,-0.635
9.686,-1.025,-0.600
9.689,-1.030,-0.540
9.692,-1.025,-0.495
9.694,-1.010,-0.510
9.697,-1.000,-0.530
9.700,-0.975,-0.560
9.703,-0.970,-0.535
9.706,-0.985,-0.480
9.708,-1.005,-0.455
9.711,-1.025,-0.500
9.714,-1.005,-0.550
9.717,-1.010,-0.575
9.719,-0.995,-0.555
9.722,-0.995,-0.485
9.725,-1.000,-0.435
9.728,-0.985,-0.460
9.731,-0.965,-0.505
9.733,-0.955,-0.520
9.736,-0.950,-0.510
9.739,-0.950,-0.435
9.742,-0.960,-0.410
9.744,-0.970,-0.450
9.747,-0.980,-0.515
9.750,-0.970,-0.555
9.753,-0.970,-0.545
9.756,-0.975,-0.500
9.758,-0.970,-0.425
9.761,-0.960,-0.425
9.764,-0.950,-0.450
9.767,-0.935,-0.510
9.769,-0.905,-0.535
9.772,-0.905,-0.510
9.775,-0.910,-0.460
9.778,-0.935,-0.465
9.781,-0.935,-0.515
9.783,-0.960,-0.565
9.786,-0.940,-0.580
9.789,-0.930,-0.550
9.792,-0.925,-0.485
9.794,-0.920,-0.465
9.797,-0.930,-0.505
9.800,-0.890,-0.565
9.803,-0.880,-0.600
9.806,-0.880,-0.580
9.808,-0.895,-0.520
9.811,-0.910,-0.530
9.814,-0.915,-0.570
9.817,-0.940,-0.635
9.819,-0.935,-0.685
9.822,-0.920,-0.665
9.825,-0.905,-0.595
9.828,-0.920,-0.545
9.831,-0.930,-0.535
9.833,-0.925,-0.570
9.836,-0.915,-0.660
9.839,-0.920,-0.660
9.842,-0.920,-0.620
9.844,-0.935,-0.575
9.847,-0.950,-0.595
9.850,-0.985,-0.650
9.853,-0.965,-0.705
9.856,-0.940,-0.695
9.858,-0.940,-0.640
9.861,-0.930,-0.585
9.864,-0.940,-0.570
9.867,-0.925,-0.620
9.869,-0.925,-0.670
9.872,-0.920,-0.675
9.875,-0.925,-0.645
9.878,-0.940,-0.610
9.881,-0.955,-0.630
9.883,-0.965,-0.675
9.886,-0.945,-0.695
9.889,-0.950,-0.695
9.892,-0.955,-0.615
9.894,-0.965,-0.585
9.897,-0.975,-0.595
9.900,-0.975,-0.630
9.903,-0.955,-0.690
9.906,-0.945,-0.695
9.908,-0.945,-0.635
9.911,-0.985,-0.610
9.914,-1.005,-0.605
9.917,-1.020,-0.645
9.919,-1.010,-0.730
9.922,-1.015,-0.725
9.925,-1.000,-0.685
9.928,-1.010,-0.615
9.931,-1.025,-0.590
9.933,-1.025,-0.650
9.936,-1.020,-0.705
9.939,-1.020,-0.730
9.942,-1.025,-0.700
9.944,-1.045,-0.670
9.947,-1.060,-0.665
9.950,-1.075,-0.700
9.953,-1.055,-0.765
9.956,-1.035,-0.765
9.958,-1.035,-0.700
9.961,-1.040,-0.620
9.964,-1.045,-0.610
9.967,-1.040,-0.635
9.969,-1.025,-0.695
9.972,-1.020,-0.730
9.975,-1.020,-0.705
9.978,-1.030,-0.650
9.981,-1.045,-0.630
9.983,-1.060,-0.655
9.986,-1.045,-0.715
9.989,-1.035,-0.725
9.992,-1.005,-0.685
9.994,-1.000,-0.625
9.997,-1.010,-0.590
10.000,-0.995,-0.625
10.003,-0.985,-0.685
10.006,-0.985,-0.705
10.008,-0.990,-0.670
10.011,-1.000,-0.635
10.014,-1.020,-0.625
10.017,-1.035,-0.665
10.019,-1.030,-0.720
10.022,-1.010,-0.750
10.025,-0.965,-0.715
10.028,-0.960,-0.625
10.031,-0.970,-0.590
10.033,-0.950,-0.600
10.036,-0.930,-0.670
10.039,-0.910,-0.725
10.042,-0.900,-0.685
10.044,-0.915,-0.650
10.047,-0.915,-0.610
10.050,-0.915,-0.630
10.053,-0.890,-0.695
10.056,-0.855,-0.705
10.058,-0.820,-0.670
10.061,-0.800,-0.600
10.064,-0.780,-0.580
10.067,-0.780,-0.590
10.069,-0.775,-0.630
10.072,-0.735,-0.625
10.075,-0.730,-0.575
10.078,-0.750,-0.525
10.081,-0.765,-0.540
10.083,-0.785,-0.605
10.086,-0.790,-0.645
10.089,-0.790,-0.655
10.092,-0.790,-0.585
10.094,-0.810,-0.535
10.097,-0.815,-0.510
10.100,-0.820,-0.555
10.103,-0.810,-0.625
10.106,-0.795,-0.650
10.108,-0.800,-0.625
10.111,-0.825,-0.575
10.114,-0.865,-0.565
10.117,-0.890,-0.610
10.119,-0.905,-0.690
10.122,-0.920,-0.735
10.125,-0.925,-0.710
10.128,-0.945,-0.645
10.131,-0.955,-0.610
10.133,-0.955,-0.605
10.136,-0.975,-0.650
10.139,-0.960,-0.705
10.142,-0.975,-0.680
10.144,-1.000,-0.650
10.147,-1.010,-0.635
10.150,-1.025,-0.625
10.153,-1.035,-0.695
10.156,-1.030,-0.745
10.158,-1.010,-0.720
10.161,-0.990,-0.670
10.164,-0.990,-0.595
10.167,-1.005,-0.570
10.169,-1.005,-0.630
10.172,-0.990,-0.710
10.175,-0.990,-0.740
10.178,-1.005,-0.690
10.181,-1.040,-0.640
10.183,-1.075,-0.630
10.186,-1.125,-0.660
10.189,-1.155,-0.715
10.192,-1.170,-0.740
10.194,-1.185,-0.700
10.197,-1.185,-0.610
10.200,-1.150,-0.560
10.203,-1.085,-0.535
10.206,-0.945,-0.535
10.208,-0.775,-0.525
10.211,-0.590,-0.475
10.214,-0.395,-0.365
10.217,-0.230,-0.270
10.219,-0.075,-0.245
10.222,0.085,-0.245
10.225,0.220,-0.295
10.228,0.405,-0.295
10.231,0.535,-0.270
10.233,0.615,-0.260
10.236,0.665,-0.340
10.239,0.675,-0.480
10.242,0.670,-0.645
10.244,0.610,-0.720
10.247,0.540,-0.705
10.250,0.465,-0.575
10.253,0.315,-0.465
10.256,0.105,-0.420
10.258,-0.175,-0.465
10.261,-0.445,-0.525
10.264,-0.680,-0.575
10.267,-0.850,-0.610
10.269,-0.940,-0.665
10.272,-0.940,-0.725
10.275,-0.890,-0.755
10.278,-0.860,-0.740
10.281,-0.830,-0.655
10.283,-0.850,-0.615
10.286,-0.900,-0.610
10.289,-0.950,-0.645
10.292,-0.995,-0.715
10.294,-1.005,-0.740
10.297,-1.015,-0.685
10.300,-1.035,-0.615
10.303,-1.065,-0.585
10.306,-1.065,-0.625
10.308,-1.070,-0.675
10.311,-1.075,-0.745
10.314,-1.065,-0.735
10.317,-1.075,-0.685
10.319,-1.080,-0.620
10.322,-1.085,-0.595
10.325,-1.100,-0.650
10.328,-1.050,-0.695
10.331,-1.045,-0.705
10.333,-1.020,-0.655
10.336,-1.025,-0.590
10.339,-1.035,-0.555
10.342,-1.055,-0.600
10.344,-1.075,-0.675
10.347,-1.080,-0.720
10.350,-1.055,-0.700
10.353,-1.060,-0.640
10.356,-1.070,-0.585
10.358,-1.075,-0.590
10.361,-1.060,-0.620
10.364,-1.040,-0.665
10.367,-1.020,-0.640
10.369,-1.035,-0.580
10.372,-1.030,-0.540
10.375,-1.050,-0.545
10.378,-1.060,-0.580
10.381,-1.065,-0.645
10.383,-1.040,-0.665
10.386,-1.030,-0.605
10.389,-1.040,-0.545
10.392,-1.045,-0.490
10.394,-1.030,-0.510
10.397,-1.045,-0.560
10.400,-1.010,-0.580
10.403,-0.990,-0.575
10.406,-0.985,-0.505
10.408,-1.005,-0.460
10.411,-1.025,-0.470
10.414,-1.035,-0.535
10.417,-1.035,-0.600
10.419,-1.030,-0.600
10.422,-1.015,-0.535
10.425,-1.010,-0.460
10.428,-1.015,-0.425
10.431,-1.010,-0.435
10.433,-0.975,-0.490
10.436,-0.975,-0.540
10.439,-0.955,-0.535
10.442,-0.970,-0.470
10.444,-0.980,-0.430
10.447,-0.985,-0.435
10.450,-0.980,-0.485
10.453,-0.960,-0.530
10.456,-0.965,-0.510
10.458,-0.955,-0.475
10.461,-0.980,-0.435
10.464,-0.965,-0.455
10.467,-0.945,-0.500
10.469,-0.930,-0.510
10.472,-0.920,-0.485
10.475,-0.940,-0.450
10.478,-0.955,-0.465
10.481,-0.955,-0.520
10.483,-0.950,-0.570
10.486,-0.940,-0.565
10.489,-0.930,-0.535
10.492,-0.925,-0.465
10.494,-0.925,-0.475
10.497,-0.920,-0.530
10.500,-0.895,-0.575
10.503,-0.885,-0.555
10.506,-0.910,-0.530
10.508,-0.910,-0.510
10.511,-0.920,-0.535
10.514,-0.950,-0.605
10.517,-0.925,-0.655
10.519,-0.930,-0.645
10.522,-0.910,-0.600
10.525,-0.930,-0.535
10.528,-0.945,-0.545
10.531,-0.930,-0.605
10.533,-0.910,-0.635
10.536,-0.900,-0.645
10.539,-0.905,-0.590
10.542,-0.935,-0.565
10.544,-0.935,-0.575
10.547,-0.955,-0.635
10.550,-0.975,-0.700
10.553,-0.955,-0.695
10.556,-0.955,-0.650
10.558,-0.960,-0.585
10.561,-0.965,-0.570
10.564,-0.965,-0.620
10.567,-0.940,-0.660
10.569,-0.915,-0.670
10.572,-0.925,-0.620
10.575,-0.940,-0.590
10.578,-0.960,-0.580
10.581,-0.975,-0.635
10.583,-0.980,-0.695
10.586,-0.960,-0.705
10.589,-0.955,-0.695
10.592,-0.970,-0.610
10.594,-0.975,-0.575
10.597,-0.980,-0.600
10.600,-0.960,-0.655
10.603,-0.945,-0.685
10.606,-0.950,-0.665
10.608,-0.950,-0.605
10.611,-0.980,-0.590
10.614,-0.990,-0.625
10.617,-1.000,-0.700
10.619,-1.010,-0.740
10.622,-1.015,-0.695
10.625,-1.015,-0.635
10.628,-1.025,-0.605
10.631,-1.030,-0.630
10.633,-1.025,-0.685
10.636,-1.015,-0.700
10.639,-1.015,-0.685
10.642,-1.010,-0.630
10.644,-1.040,-0.620
10.647,-1.060,-0.650
10.650,-1.060,-0.700
10.653,-1.055,-0.740
10.656,-1.035,-0.700
10.658,-1.055,-0.655
10.661,-1.055,-0.615
10.664,-1.060,-0.635
10.667,-1.045,-0.670
10.669,-1.025,-0.690
10.672,-1.025,-0.660
10.675,-1.035,-0.635
10.678,-1.055,-0.640
10.681,-1.055,-0.700
10.683,-1.045,-0.720
10.686,-1.045,-0.690
10.689,-1.045,-0.665
10.692,-1.035,-0.655
10.694,-1.040,-0.675
10.697,-1.005,-0.705
10.700,-1.000,-0.675
10.703,-1.000,-0.635
10.706,-0.995,-0.605
10.708,-1.020,-0.620
10.711,-1.010,-0.705
10.714,-1.000,-0.740
10.717,-0.985,-0.745
10.719,-0.985,-0.690
10.722,-0.990,-0.630
10.725,-0.995,-0.625
10.728,-1.000,-0.660
10.731,-0.970,-0.700
10.733,-0.940,-0.695
10.736,-0.925,-0.660
10.739,-0.945,-0.610
10.742,-0.945,-0.600
10.744,-0.940,-0.635
10.747,-0.935,-0.700
10.750,-0.895,-0.720
10.753,-0.870,-0.670
10.756,-0.865,-0.615
10.758,-0.845,-0.615
10.761,-0.830,-0.615
10.764,-0.790,-0.650
10.767,-0.770,-0.635
10.769,-0.750,-0.570
10.772,-0.750,-0.510
10.775,-0.770,-0.510
10.778,-0.780,-0.565
10.781,-0.785,-0.640
10.783,-0.780,-0.655
10.786,-0.785,-0.625
10.789,-0.800,-0.560
10.792,-0.815,-0.535
10.794,-0.825,-0.565
10.797,-0.815,-0.605
10.800,-0.800,-0.620
10.803,-0.790,-0.605
10.806,-0.810,-0.550
10.808,-0.825,-0.545
10.811,-0.880,-0.615
10.814,-0.890,-0.670
10.817,-0.895,-0.725
10.819,-0.910,-0.705
10.822,-0.950,-0.665
10.825,-0.965,-0.625
10.828,-0.975,-0.670
10.831,-0.965,-0.715
10.833,-0.965,-0.735
10.836,-0.955,-0.705
10.839,-0.965,-0.640
10.842,-0.985,-0.585
10.844,-1.005,-0.585
10.847,-1.010,-0.650
10.850,-1.020,-0.715
10.853,-1.015,-0.725
10.856,-1.020,-0.685
10.858,-1.015,-0.620
10.861,-1.030,-0.600
10.864,-1.010,-0.625
10.867,-0.995,-0.680
10.869,-0.990,-0.680
10.872,-0.990,-0.645
10.875,-1.015,-0.625
10.878,-1.050,-0.645
10.881,-1.095,-0.715
10.883,-1.125,-0.735
10.886,-1.160,-0.720
10.889,-1.210,-0.640
10.892,-1.210,-0.625
10.894,-1.150,-0.620
10.897,-1.045,-0.585
10.900,-0.865,-0.525
10.903,-0.665,-0.415
10.906,-0.465,-0.305
10.908,-0.280,-0.255
10.911,-0.080,-0.280
10.914,0.100,-0.300
10.917,0.270,-0.300
10.919,0.410,-0.255
10.922,0.520,-0.220
10.925,0.600,-0.275
10.928,0.655,-0.405
10.931,0.695,-0.565
10.933,0.690,-0.640
10.936,0.640,-0.640
10.939,0.570,-0.565
10.942,0.455,-0.495
10.944,0.285,-0.480
10.947,0.040,-0.480
10.950,-0.245,-0.505
10.953,-0.530,-0.530
10.956,-0.770,-0.585
10.958,-0.925,-0.660
10.961,-0.965,-0.730
10.964,-0.955,-0.770
10.967,-0.890,-0.730
10.969,-0.845,-0.645
10.972,-0.845,-0.590
10.975,-0.860,-0.575
10.978,-0.940,-0.635
10.981,-0.975,-0.705
10.983,-1.015,-0.695
10.986,-1.045,-0.665
10.989,-1.100,-0.635
10.992,-1.105,-0.625
10.994,-1.105,-0.670
10.997,-1.085,-0.700
11.000,-1.055,-0.665
11.003,-1.065,-0.600
11.006,-1.070,-0.575
11.008,-1.095,-0.605
11.011,-1.090,-0.645
11.014,-1.080,-0.685
11.017,-1.075,-0.650
11.019,-1.080,-0.610
11.022,-1.090,-0.570
11.025,-1.100,-0.600
11.028,-1.080,-0.630
11.031,-1.055,-0.650
11.033,-1.060,-0.610
11.036,-1.055,-0.550
11.039,-1.075,-0.520
11.042,-1.085,-0.540
11.044,-1.085,-0.625
11.047,-1.075,-0.645
11.050,-1.065,-0.640
11.053,-1.080,-0.580
11.056,-1.090,-0.560
11.058,-1.095,-0.560
11.061,-1.075,-0.605
11.064,-1.060,-0.615
11.067,-1.035,-0.575
11.069,-1.030,-0.500
11.072,-1.045,-0.485
11.075,-1.045,-0.525
11.078,-1.045,-0.575
11.081,-1.035,-0.590
11.083,-1.030,-0.535
11.086,-1.020,-0.500
11.089,-1.070,-0.505
11.092,-1.050,-0.560
11.094,-1.035,-0.550
11.097,-1.015,-0.525
11.100,-1.010,-0.460
11.103,-1.020,-0.425
11.106,-1.030,-0.440
11.108,-1.015,-0.490
11.111,-1.020,-0.550
11.114,-1.000,-0.545
11.117,-0.995,-0.490
11.119,-1.005,-0.435
11.122,-1.030,-0.430
11.125,-1.020,-0.465
11.128,-1.005,-0.515
11.131,-0.960,-0.530
11.133,-0.970,-0.470
11.136,-0.955,-0.410
11.139,-0.970,-0.410
11.142,-0.980,-0.455
11.144,-0.985,-0.525
11.147,-0.985,-0.555
11.150,-0.970,-0.550
11.153,-0.965,-0.490
11.156,-0.995,-0.435
11.158,-0.990,-0.450
11.161,-0.975,-0.500
11.164,-0.950,-0.535
11.167,-0.945,-0.540
11.169,-0.940,-0.490
11.172,-0.950,-0.450
11.175,-0.955,-0.455
11.178,-0.965,-0.515
11.181,-0.950,-0.590
11.183,-0.945,-0.615
11.186,-0.940,-0.570
11.189,-0.935,-0.530
11.192,-0.965,-0.515
11.194,-0.965,-0.545
11.197,-0.940,-0.590
11.200,-0.915,-0.610
11.203,-0.910,-0.575
11.206,-0.920,-0.535
11.208,-0.965,-0.520
11.211,-0.960,-0.580
11.214,-0.970,-0.650
11.217,-0.955,-0.680
11.219,-0.945,-0.645
11.222,-0.960,-0.590
11.225,-0.965,-0.560
11.228,-0.985,-0.605
11.231,-0.975,-0.655
11.233,-0.950,-0.655
11.236,-0.930,-0.625
11.239,-0.940,-0.570
11.242,-0.955,-0.560
11.244,-0.965,-0.595
11.247,-0.970,-0.670
11.250,-0.955,-0.720
11.253,-0.945,-0.660
11.256,-0.960,-0.615
11.258,-0.970,-0.585
11.261,-0.980,-0.605
11.264,-0.975,-0.665
11.267,-0.950,-0.675
11.269,-0.940,-0.630
11.272,-0.955,-0.600
11.275,-0.980,-0.590
11.278,-0.990,-0.630
11.281,-0.995,-0.690
11.283,-1.000,-0.695
11.286,-0.990,-0.665
11.289,-0.995,-0.635
11.292,-1.015,-0.625
11.294,-1.020,-0.650
11.297,-1.005,-0.670
11.300,-0.995,-0.645
11.303,-0.990,-0.600
11.306,-1.025,-0.610
11.308,-1.035,-0.645
11.311,-1.015,-0.710
11.314,-1.030,-0.700
11.317,-1.045,-0.680
11.319,-1.055,-0.630
11.322,-1.075,-0.630
11.325,-1.085,-0.680
11.328,-1.080,-0.710
11.331,-1.060,-0.690
11.333,-1.040,-0.640
11.336,-1.040,-0.605
11.339,-1.060,-0.605
11.342,-1.055,-0.640
11.344,-1.075,-0.715
11.347,-1.060,-0.745
11.350,-1.060,-0.700
11.353,-1.055,-0.675
11.356,-1.065,-0.650
11.358,-1.080,-0.660
11.361,-1.060,-0.710
11.364,-1.045,-0.710
11.367,-1.005,-0.660
11.369,-1.000,-0.605
11.372,-1.025,-0.600
11.375,-1.020,-0.650
11.378,-1.030,-0.710
11.381,-1.040,-0.725
11.383,-1.040,-0.700
11.386,-1.030,-0.620
11.389,-1.045,-0.610
11.392,-1.035,-0.640
11.394,-1.015,-0.685
11.397,-0.990,-0.710
11.400,-0.975,-0.670
11.403,-0.975,-0.610
11.406,-0.980,-0.575
11.408,-0.995,-0.600
11.411,-1.000,-0.660
11.414,-1.000,-0.700
11.417,-0.980,-0.700
11.419,-0.980,-0.655
11.422,-0.985,-0.610
11.425,-0.990,-0.625
11.428,-0.960,-0.660
11.431,-0.945,-0.670
11.433,-0.925,-0.650
11.436,-0.890,-0.590
11.439,-0.885,-0.585
11.442,-0.880,-0.605
11.444,-0.845,-0.660
11.447,-0.830,-0.705
11.450,-0.805,-0.695
11.453,-0.815,-0.625
11.456,-0.810,-0.550
11.458,-0.805,-0.550
11.461,-0.790,-0.575
11.464,-0.765,-0.595
11.467,-0.755,-0.575
11.469,-0.750,-0.530
11.472,-0.765,-0.505
11.475,-0.800,-0.540
11.478,-0.815,-0.620
11.481,-0.830,-0.655
11.483,-0.840,-0.620
11.486,-0.845,-0.575
11.489,-0.870,-0.565
11.492,-0.870,-0.600
11.494,-0.850,-0.630
11.497,-0.845,-0.635
11.500,-0.850,-0.600
11.503,-0.875,-0.560
11.506,-0.915,-0.585
11.508,-0.940,-0.645
11.511,-0.955,-0.720
11.514,-0.965,-0.715
11.517,-0.980,-0.675
11.519,-0.990,-0.630
11.522,-1.015,-0.605
11.525,-1.015,-0.660
11.528,-1.015,-0.700
11.531,-1.010,-0.710
11.533,-1.005,-0.650
11.536,-1.015,-0.600
11.539,-1.035,-0.580
11.542,-1.045,-0.620
11.544,-1.050,-0.685
11.547,-1.045,-0.730
11.550,-1.035,-0.705
11.553,-1.045,-0.665
11.556,-1.065,-0.625
11.558,-1.075,-0.670
11.561,-1.065,-0.705
11.564,-1.060,-0.700
11.567,-1.080,-0.660
11.569,-1.115,-0.620
11.572,-1.170,-0.620
11.575,-1.230,-0.655
11.578,-1.240,-0.715
11.581,-1.220,-0.725
11.583,-1.160,-0.630
11.586,-1.035,-0.520
11.589,-0.905,-0.425
11.592,-0.715,-0.400
11.594,-0.505,-0.405
11.597,-0.315,-0.370
11.600,-0.135,-0.285
11.603,0.055,-0.200
11.606,0.190,-0.145
11.608,0.340,-0.185
11.611,0.475,-0.300
11.614,0.585,-0.405
11.617,0.640,-0.480
11.619,0.660,-0.550
11.622,0.615,-0.615
11.625,0.555,-0.660
11.628,0.500,-0.670
11.631,0.395,-0.585
11.633,0.215,-0.450
11.636,-0.035,-0.365
11.639,-0.340,-0.380
11.642,-0.630,-0.500
11.644,-0.825,-0.670
11.647,-0.925,-0.755
11.650,-0.955,-0.760
11.653,-0.950,-0.715
11.656,-0.930,-0.660
11.658,-0.905,-0.660
11.661,-0.870,-0.685
11.664,-0.880,-0.665
11.667,-0.930,-0.630
11.669,-0.985,-0.590
11.672,-1.055,-0.610
11.675,-1.085,-0.660
11.678,-1.100,-0.715
11.681,-1.100,-0.735
11.683,-1.110,-0.690
11.686,-1.115,-0.655
11.689,-1.135,-0.650
11.692,-1.120,-0.675
11.694,-1.090,-0.670
11.697,-1.085,-0.625
11.700,-1.080,-0.570
11.703,-1.065,-0.540
11.706,-1.080,-0.565
11.708,-1.080,-0.660
11.711,-1.075,-0.665
11.714,-1.070,-0.655
11.717,-1.100,-0.590
11.719,-1.105,-0.590
11.722,-1.115,-0.615
11.725,-1.105,-0.660
11.728,-1.085,-0.670
11.731,-1.055,-0.610
11.733,-1.065,-0.545
11.736,-1.065,-0.500
11.739,-1.075,-0.535
11.742,-1.085,-0.595
11.744,-1.070,-0.635
11.747,-1.055,-0.610
11.750,-1.055,-0.565
11.753,-1.070,-0.520
11.756,-1.085,-0.535
11.758,-1.070,-0.585
11.761,-1.065,-0.605
11.764,-1.055,-0.575
11.767,-1.050,-0.520
11.769,-1.050,-0.465
11.772,-1.060,-0.460
11.775,-1.070,-0.525
11.778,-1.050,-0.585
11.781,-1.045,-0.565
11.783,-1.060,-0.515
11.786,-1.060,-0.455
11.789,-1.070,-0.455
11.792,-1.075,-0.490
11.794,-1.035,-0.520
11.797,-1.015,-0.525
11.800,-0.985,-0.440
11.803,-0.995,-0.405
11.806,-1.020,-0.400
11.808,-1.020,-0.440
11.811,-1.025,-0.505
11.814,-1.015,-0.520
11.817,-0.990,-0.480
11.819,-0.990,-0.430
11.822,-1.000,-0.410
11.825,-1.005,-0.435
11.828,-0.990,-0.480
11.831,-0.970,-0.510
11.833,-0.955,-0.465
11.836,-0.950,-0.425
11.839,-0.960,-0.395
11.842,-0.960,-0.455
11.844,-0.975,-0.540
11.847,-0.975,-0.565
11.850,-0.965,-0.550
11.853,-0.970,-0.480
11.856,-0.980,-0.460
11.858,-0.980,-0.465
11.861,-0.955,-0.530
11.864,-0.940,-0.560
11.867,-0.910,-0.525
11.869,-0.900,-0.480
11.872,-0.910,-0.430
11.875,-0.930,-0.470
11.878,-0.935,-0.550
11.881,-0.930,-0.595
11.883,-0.935,-0.610
11.886,-0.935,-0.560
11.889,-0.955,-0.520
11.892,-0.960,-0.535
11.894,-0.940,-0.590
11.897,-0.925,-0.615
11.900,-0.920,-0.575
11.903,-0.905,-0.525
11.906,-0.930,-0.515
11.908,-0.935,-0.545
11.911,-0.945,-0.620
11.914,-0.935,-0.645
11.917,-0.935,-0.635
11.919,-0.935,-0.595
11.922,-0.955,-0.565
11.925,-0.960,-0.600
11.928,-0.950,-0.660
11.931,-0.940,-0.685
11.933,-0.925,-0.640
11.936,-0.930,-0.580
11.939,-0.930,-0.550
11.942,-0.965,-0.550
11.944,-0.950,-0.620
11.947,-0.960,-0.695
11.950,-0.940,-0.710
11.953,-0.945,-0.645
11.956,-0.970,-0.595
11.958,-0.955,-0.585
11.961,-0.970,-0.645
11.964,-0.955,-0.670
11.967,-0.945,-0.650
11.969,-0.950,-0.600
11.972,-0.955,-0.575
11.975,-0.970,-0.590
11.978,-0.975,-0.645
11.981,-0.980,-0.685
11.983,-0.970,-0.660
11.986,-0.995,-0.625
11.989,-1.020,-0.590
11.992,-1.025,-0.580
11.994,-1.010,-0.630
11.997,-0.990,-0.660
12.000,-0.985,-0.630
12.003,-0.965,-0.575
12.006,-0.995,-0.550
12.008,-1.025,-0.560
12.011,-1.030,-0.635
12.014,-1.035,-0.685
12.017,-1.035,-0.670
12.019,-1.035,-0.625
12.022,-1.070,-0.600
12.025,-1.075,-0.605
12.028,-1.070,-0.645
12.031,-1.045,-0.660
12.033,-1.030,-0.615
12.036,-1.030,-0.585
12.039,-1.035,-0.575
12.042,-1.035,-0.615
12.044,-1.025,-0.670
12.047,-1.040,-0.680
12.050,-1.030,-0.645
12.053,-1.035,-0.600
12.056,-1.045,-0.580
12.058,-1.035,-0.620
12.061,-1.025,-0.665
12.064,-1.005,-0.665
12.067,-0.985,-0.605
12.069,-0.990,-0.560
12.072,-0.995,-0.555
12.075,-1.005,-0.605
12.078,-1.000,-0.655
12.081,-0.980,-0.645
12.083,-0.985,-0.605
12.086,-1.010,-0.590
12.089,-1.005,-0.600
12.092,-0.975,-0.635
12.094,-0.945,-0.625
12.097,-0.925,-0.605
12.100,-0.925,-0.550
12.103,-0.920,-0.565
12.106,-0.910,-0.595
12.108,-0.915,-0.620
12.111,-0.905,-0.630
12.114,-0.895,-0.570
12.117,-0.885,-0.575
12.119,-0.880,-0.610
12.122,-0.860,-0.640
12.125,-0.840,-0.645
12.128,-0.800,-0.575
12.131,-0.775,-0.530
12.133,-0.760,-0.495
12.136,-0.765,-0.510
12.139,-0.735,-0.560
12.142,-0.740,-0.555
12.144,-0.725,-0.535
12.147,-0.725,-0.495
12.150,-0.775,-0.495
12.153,-0.780,-0.545
12.156,-0.785,-0.595
12.158,-0.775,-0.580
12.161,-0.780,-0.540
12.164,-0.785,-0.495
12.167,-0.795,-0.465
12.169,-0.780,-0.505
12.172,-0.785,-0.550
12.175,-0.780,-0.560
12.178,-0.795,-0.545
12.181,-0.830,-0.520
12.183,-0.875,-0.525
12.186,-0.905,-0.590
12.189,-0.945,-0.660
12.192,-0.925,-0.690
12.194,-0.935,-0.635
12.197,-0.940,-0.560
12.200,-0.960,-0.530
12.203,-0.965,-0.545
12.206,-0.950,-0.600
12.208,-0.940,-0.615
12.211,-0.945,-0.600
12.214,-0.960,-0.570
12.217,-0.995,-0.545
12.219,-1.005,-0.580
12.222,-1.015,-0.630
12.225,-0.995,-0.640
12.228,-1.000,-0.590
12.231,-0.980,-0.570
12.233,-0.985,-0.540
12.236,-0.990,-0.565
12.239,-0.980,-0.610
12.242,-0.985,-0.625
12.244,-1.010,-0.585
12.247,-1.050,-0.555
12.250,-1.105,-0.565
12.253,-1.165,-0.635
12.256,-1.210,-0.690
12.258,-1.200,-0.675
12.261,-1.160,-0.590
12.264,-1.085,-0.485
12.267,-0.995,-0.395
12.269,-0.835,-0.365
12.272,-0.625,-0.340
12.275,-0.415,-0.305
12.278,-0.215,-0.220
12.281,-0.045,-0.135
12.283,0.135,-0.115
12.286,0.310,-0.160
12.289,0.470,-0.230
12.292,0.605,-0.255
12.294,0.710,-0.305
12.297,0.755,-0.390
12.300,0.760,-0.510
12.303,0.735,-0.590
12.306,0.685,-0.600
12.308,0.575,-0.490
12.311,0.390,-0.370
12.314,0.115,-0.305
12.317,-0.205,-0.365
12.319,-0.495,-0.480
12.322,-0.715,-0.575
12.325,-0.860,-0.585
12.328,-0.915,-0.580
12.331,-0.890,-0.580
12.333,-0.835,-0.585
12.336,-0.775,-0.605
12.339,-0.775,-0.585
12.342,-0.785,-0.540
12.344,-0.840,-0.505
12.347,-0.930,-0.515
12.350,-0.985,-0.575
12.353,-1.030,-0.625
12.356,-1.040,-0.620
12.358,-1.045,-0.570
12.361,-1.050,-0.500
12.364,-1.050,-0.490
12.367,-1.055,-0.515
12.369,-1.040,-0.565
12.372,-1.025,-0.575
12.375,-1.025,-0.530
12.378,-1.035,-0.500
12.381,-1.040,-0.490
12.383,-1.030,-0.530
12.386,-1.035,-0.575
12.389,-1.025,-0.585
12.392,-1.010,-0.545
12.394,-1.030,-0.470
12.397,-1.020,-0.445
12.400,-1.025,-0.465
12.403,-1.030,-0.510
12.406,-1.000,-0.550
12.408,-1.000,-0.510
12.411,-1.005,-0.460
12.414,-1.020,-0.450
12.417,-1.055,-0.495
12.419,-1.040,-0.550
12.422,-1.030,-0.565
12.425,-1.005,-0.530
12.428,-1.005,-0.460
12.431,-1.000,-0.410
12.433,-1.020,-0.410
12.436,-1.000,-0.465
12.439,-0.985,-0.505
12.442,-0.965,-0.475
12.444,-0.990,-0.435
12.447,-1.015,-0.400
12.450,-1.020,-0.435
12.453,-1.010,-0.475
12.456,-0.995,-0.500
12.458,-0.980,-0.500
12.461,-0.980,-0.410
12.464,-0.990,-0.360
12.467,-0.995,-0.340
12.469,-0.990,-0.390
12.472,-0.965,-0.435
12.475,-0.945,-0.450
12.478,-0.945,-0.415
12.481,-0.960,-0.365
12.483,-0.985,-0.370
12.486,-0.975,-0.400
12.489,-0.975,-0.450
12.492,-0.945,-0.445
12.494,-0.955,-0.410
12.497,-0.945,-0.340
12.500,-0.945,-0.325
12.503,-0.925,-0.365
12.506,-0.920,-0.390
12.508,-0.900,-0.400
12.511,-0.910,-0.370
12.514,-0.935,-0.345
12.517,-0.940,-0.380
12.519,-0.955,-0.425
12.522,-0.930,-0.455
12.525,-0.915,-0.460
12.528,-0.905,-0.390
12.531,-0.905,-0.360
12.533,-0.925,-0.345
12.536,-0.910,-0.410
12.539,-0.895,-0.465
12.542,-0.865,-0.480
12.544,-0.855,-0.440
12.547,-0.880,-0.410
12.550,-0.900,-0.385
12.553,-0.920,-0.465
12.556,-0.925,-0.520
12.558,-0.895,-0.550
12.561,-0.885,-0.495
12.564,-0.865,-0.435
12.567,-0.870,-0.400
12.569,-0.875,-0.435
12.572,-0.860,-0.500
12.575,-0.870,-0.525
12.578,-0.855,-0.530
12.581,-0.870,-0.490
12.583,-0.885,-0.470
12.586,-0.890,-0.505
12.589,-0.910,-0.575
12.592,-0.905,-0.580
12.594,-0.895,-0.540
12.597,-0.890,-0.480
12.600,-0.890,-0.455
12.603,-0.895,-0.465
12.606,-0.885,-0.545
12.608,-0.885,-0.585
12.611,-0.870,-0.575
12.614,-0.875,-0.530
12.617,-0.890,-0.495
12.619,-0.920,-0.510
12.622,-0.915,-0.570
12.625,-0.895,-0.575
12.628,-0.895,-0.570
12.631,-0.880,-0.500
12.633,-0.880,-0.490
12.636,-0.890,-0.490
12.639,-0.880,-0.555
12.642,-0.880,-0.585
12.644,-0.900,-0.560
12.647,-0.910,-0.530
12.650,-0.935,-0.520
12.653,-0.950,-0.550
12.656,-0.945,-0.615
12.658,-0.940,-0.620
12.661,-0.940,-0.585
12.664,-0.935,-0.535
12.667,-0.940,-0.475
12.669,-0.955,-0.475
12.672,-0.960,-0.540
12.675,-0.965,-0.615
12.678,-0.945,-0.630
12.681,-0.940,-0.595
12.683,-0.965,-0.535
12.686,-1.005,-0.535
12.689,-1.010,-0.575
12.692,-1.000,-0.625
12.694,-0.995,-0.640
12.697,-0.995,-0.600
12.700,-0.975,-0.530
12.703,-0.995,-0.520
12.706,-1.010,-0.535
12.708,-1.020,-0.590
12.711,-1.015,-0.630
12.714,-1.010,-0.600
12.717,-1.035,-0.575
12.719,-1.025,-0.550
12.722,-1.025,-0.585
12.725,-1.025,-0.655
12.728,-1.005,-0.650
12.731,-0.990,-0.620
12.733,-0.980,-0.530
12.736,-0.985,-0.510
12.739,-0.985,-0.565
12.742,-0.985,-0.630
12.744,-0.985,-0.680
12.747,-0.970,-0.665
12.750,-0.970,-0.605
12.753,-0.980,-0.540
12.756,-1.005,-0.555
12.758,-1.000,-0.610
12.761,-0.995,-0.650
12.764,-0.960,-0.655
12.767,-0.960,-0.615
12.769,-0.940,-0.535
12.772,-0.945,-0.515
12.775,-0.965,-0.565
12.778,-0.955,-0.610
12.781,-0.950,-0.640
12.783,-0.950,-0.605
12.786,-0.945,-0.565
12.789,-0.945,-0.540
12.792,-0.950,-0.555
12.794,-0.950,-0.625
12.797,-0.910,-0.650
12.800,-0.880,-0.615
12.803,-0.895,-0.545
12.806,-0.890,-0.490
12.808,-0.890,-0.505
12.811,-0.880,-0.585
12.814,-0.860,-0.645
12.817,-0.835,-0.655
12.819,-0.810,-0.605
12.822,-0.800,-0.545
12.825,-0.805,-0.495
12.828,-0.795,-0.510
12.831,-0.765,-0.565
12.833,-0.745,-0.575
12.836,-0.715,-0.540
12.839,-0.705,-0.480
12.842,-0.710,-0.450
12.844,-0.735,-0.470
12.847,-0.735,-0.530
12.850,-0.745,-0.595
12.853,-0.750,-0.575
12.856,-0.755,-0.520
12.858,-0.770,-0.480
12.861,-0.790,-0.470
12.864,-0.780,-0.510
12.867,-0.780,-0.570
12.869,-0.785,-0.580
12.872,-0.785,-0.545
12.875,-0.790,-0.460
12.878,-0.800,-0.455
12.881,-0.840,-0.490
12.883,-0.850,-0.600
12.886,-0.875,-0.665
12.889,-0.895,-0.680
12.892,-0.900,-0.625
12.894,-0.930,-0.585
12.897,-0.935,-0.575
12.900,-0.950,-0.605
12.903,-0.935,-0.620
12.906,-0.930,-0.630
12.908,-0.940,-0.565
12.911,-0.950,-0.545
12.914,-0.975,-0.570
12.917,-0.985,-0.625
12.919,-0.975,-0.675
12.922,-0.985,-0.650
12.925,-0.990,-0.600
12.928,-1.000,-0.570
12.931,-0.995,-0.585
12.933,-1.005,-0.625
12.936,-0.975,-0.650
12.939,-0.970,-0.630
12.942,-0.975,-0.570
12.944,-1.005,-0.550
12.947,-1.025,-0.580
12.950,-1.065,-0.645
12.953,-1.105,-0.710
12.956,-1.115,-0.735
12.958,-1.145,-0.685
12.961,-1.185,-0.605
12.964,-1.210,-0.560
12.967,-1.170,-0.565
12.969,-1.075,-0.575
12.972,-0.950,-0.545
12.975,-0.790,-0.470
12.978,-0.590,-0.375
12.981,-0.400,-0.285
12.983,-0.240,-0.265
12.986,-0.060,-0.260
12.989,0.125,-0.270
12.992,0.300,-0.225
12.994,0.465,-0.175
12.997,0.585,-0.195
13.000,0.670,-0.310
13.003,0.715,-0.475
13.006,0.730,-0.605
13.008,0.710,-0.655
13.011,0.640,-0.610
13.014,0.530,-0.530
13.017,0.430,-0.480
13.019,0.265,-0.455
13.022,0.045,-0.475
13.025,-0.230,-0.470
13.028,-0.490,-0.475
13.031,-0.715,-0.500
13.033,-0.855,-0.560
13.036,-0.915,-0.660
13.039,-0.900,-0.720
13.042,-0.855,-0.720
13.044,-0.820,-0.660
13.047,-0.805,-0.575
13.050,-0.845,-0.565
13.053,-0.900,-0.600
13.056,-0.950,-0.670
13.058,-0.985,-0.690
13.061,-0.985,-0.675
13.064,-1.005,-0.585
13.067,-1.035,-0.540
13.069,-1.050,-0.555
13.072,-1.035,-0.625
13.075,-1.025,-0.680
13.078,-1.020,-0.675
13.081,-1.030,-0.635
13.083,-1.055,-0.585
13.086,-1.070,-0.555
13.089,-1.065,-0.605
13.092,-1.055,-0.650
13.094,-1.035,-0.675
13.097,-1.015,-0.615
13.100,-1.015,-0.560
13.103,-1.015,-0.510
13.106,-1.040,-0.550
13.108,-1.025,-0.600
13.111,-1.030,-0.640
13.114,-1.015,-0.620
13.117,-1.015,-0.575
13.119,-1.045,-0.550
13.122,-1.045,-0.595
13.125,-1.050,-0.635
13.128,-1.045,-0.630
13.131,-1.035,-0.570
13.133,-1.020,-0.515
13.136,-1.025,-0.485
13.139,-1.025,-0.540
13.142,-0.995,-0.595
13.144,-1.005,-0.605
13.147,-1.010,-0.550
13.150,-1.030,-0.505
13.153,-1.040,-0.505
13.156,-1.055,-0.540
13.158,-1.050,-0.585
13.161,-1.020,-0.600
13.164,-1.005,-0.555
13.167,-1.005,-0.475
13.169,-1.020,-0.420
13.172,-1.005,-0.465
13.175,-1.010,-0.515
13.178,-0.990,-0.575
13.181,-0.990,-0.550
13.183,-0.985,-0.510
13.186,-0.995,-0.450
13.189,-1.015,-0.475
13.192,-1.000,-0.515
13.194,-0.990,-0.535
13.197,-0.980,-0.500
13.200,-0.965,-0.440
13.203,-0.985,-0.405
13.206,-0.980,-0.430
13.208,-0.980,-0.475
13.211,-0.940,-0.535
13.214,-0.935,-0.520
13.217,-0.965,-0.470
13.219,-0.965,-0.430
13.222,-0.975,-0.430
13.225,-0.960,-0.505
13.228,-0.940,-0.550
13.231,-0.930,-0.555
13.233,-0.905,-0.515
13.236,-0.915,-0.425
13.239,-0.915,-0.400
13.242,-0.945,-0.440
13.244,-0.930,-0.530
13.247,-0.920,-0.575
13.250,-0.905,-0.565
13.253,-0.920,-0.515
13.256,-0.920,-0.485
13.258,-0.925,-0.485
13.261,-0.920,-0.550
13.264,-0.900,-0.595
13.267,-0.885,-0.590
13.269,-0.870,-0.520
13.272,-0.875,-0.475
13.275,-0.910,-0.500
13.278,-0.920,-0.565
13.281,-0.905,-0.640
13.283,-0.890,-0.655
13.286,-0.895,-0.620
13.289,-0.910,-0.565
13.292,-0.925,-0.565
13.294,-0.930,-0.595
13.297,-0.910,-0.640
13.300,-0.900,-0.635
13.303,-0.885,-0.595
13.306,-0.895,-0.550
13.308,-0.915,-0.545
13.311,-0.930,-0.600
13.314,-0.925,-0.680
13.317,-0.925,-0.680
13.319,-0.930,-0.635
13.322,-0.950,-0.600
13.325,-0.945,-0.620
13.328,-0.950,-0.650
13.331,-0.925,-0.660
13.333,-0.920,-0.625
13.336,-0.930,-0.565
13.339,-0.920,-0.575
13.342,-0.925,-0.615
13.344,-0.930,-0.675
13.347,-0.935,-0.690
13.350,-0.960,-0.630
13.353,-0.970,-0.605
13.356,-0.990,-0.615
13.358,-0.985,-0.675
13.361,-0.970,-0.700
13.364,-0.955,-0.690
13.367,-0.950,-0.620
13.369,-0.955,-0.555
13.372,-0.970,-0.565
13.375,-1.005,-0.630
13.378,-0.985,-0.695
13.381,-0.985,-0.735
13.383,-0.975,-0.680
13.386,-1.000,-0.635
13.389,-1.025,-0.620
13.392,-1.035,-0.675
13.394,-1.025,-0.710
13.397,-1.020,-0.710
13.400,-1.025,-0.665
13.403,-1.035,-0.615
13.406,-1.035,-0.595
13.408,-1.035,-0.660
13.411,-1.045,-0.700
13.414,-1.035,-0.725
13.417,-1.035,-0.690
13.419,-1.055,-0.650
13.422,-1.070,-0.650
13.425,-1.075,-0.690
13.428,-1.055,-0.750
13.431,-1.055,-0.740
13.433,-1.030,-0.700
13.436,-1.030,-0.620
13.439,-1.030,-0.610
13.442,-1.055,-0.645
13.444,-1.035,-0.715
13.447,-1.035,-0.755
13.450,-1.040,-0.760
13.453,-1.040,-0.690
13.456,-1.055,-0.675
13.458,-1.065,-0.680
13.461,-1.055,-0.720
13.464,-1.025,-0.750
13.467,-0.990,-0.705
13.469,-1.005,-0.650
13.472,-1.000,-0.625
13.475,-1.010,-0.645
13.478,-1.015,-0.690
13.481,-1.010,-0.755
13.483,-1.025,-0.760
13.486,-1.015,-0.710
13.489,-1.020,-0.650
13.492,-1.030,-0.625
13.494,-1.020,-0.635
13.497,-0.995,-0.695
13.500,-0.960,-0.740
13.503,-0.940,-0.695
13.506,-0.935,-0.640
13.508,-0.955,-0.610
13.511,-0.970,-0.615
13.514,-0.965,-0.700
13.517,-0.940,-0.735
13.519,-0.930,-0.720
13.522,-0.905,-0.675
13.525,-0.900,-0.655
13.528,-0.885,-0.680
13.531,-0.835,-0.685
13.533,-0.810,-0.680
13.536,-0.780,-0.610
13.539,-0.780,-0.580
13.542,-0.780,-0.565
13.544,-0.780,-0.630
13.547,-0.770,-0.650
13.550,-0.775,-0.625
13.553,-0.775,-0.570
13.556,-0.800,-0.575
13.558,-0.815,-0.610
13.561,-0.815,-0.650
13.564,-0.795,-0.675
13.567,-0.785,-0.625
13.569,-0.805,-0.550
13.572,-0.810,-0.515
13.575,-0.845,-0.555
13.578,-0.850,-0.615
13.581,-0.835,-0.675
13.583,-0.860,-0.680
13.586,-0.895,-0.650
13.589,-0.925,-0.640
13.592,-0.950,-0.660
13.594,-0.970,-0.730
13.597,-0.945,-0.730
13.600,-0.960,-0.700
13.603,-0.980,-0.630
13.606,-0.975,-0.610
13.608,-1.005,-0.670
13.611,-0.990,-0.710
13.614,-1.005,-0.740
13.617,-1.015,-0.680
13.619,-1.020,-0.640
13.622,-1.040,-0.635
13.625,-1.040,-0.675
13.628,-1.025,-0.735
13.631,-1.010,-0.735
13.633,-0.995,-0.700
13.636,-1.015,-0.635
13.639,-1.005,-0.595
13.642,-1.020,-0.640
13.644,-1.025,-0.705
13.647,-1.030,-0.735
13.650,-1.055,-0.705
13.653,-1.095,-0.680
13.656,-1.180,-0.655
13.658,-1.225,-0.705
13.661,-1.230,-0.730
13.664,-1.215,-0.705
13.667,-1.145,-0.610
13.669,-1.040,-0.505
13.672,-0.900,-0.445
13.675,-0.710,-0.440
13.678,-0.510,-0.450
13.681,-0.325,-0.435
13.683,-0.145,-0.360
13.686,0.015,-0.250
13.689,0.175,-0.215
13.692,0.315,-0.245
13.694,0.475,-0.320
13.697,0.605,-0.385
13.700,0.675,-0.450
13.703,0.705,-0.500
13.706,0.690,-0.585
13.708,0.635,-0.660
13.711,0.575,-0.685
13.714,0.455,-0.595
13.717,0.255,-0.500
13.719,-0.025,-0.460
13.722,-0.375,-0.510
13.725,-0.660,-0.620
13.728,-0.865,-0.685
13.731,-0.970,-0.700
13.733,-0.995,-0.675
13.736,-0.960,-0.685
13.739,-0.925,-0.710
13.742,-0.885,-0.730
13.744,-0.900,-0.690
13.747,-0.955,-0.650
13.750,-0.995,-0.650
13.753,-1.055,-0.700
13.756,-1.085,-0.765
13.758,-1.095,-0.765
13.761,-1.100,-0.695
13.764,-1.115,-0.625
13.767,-1.105,-0.600
13.769,-1.100,-0.620
13.772,-1.095,-0.680
13.775,-1.085,-0.690
13.778,-1.065,-0.665
13.781,-1.075,-0.625
13.783,-1.100,-0.605
13.786,-1.100,-0.650
13.789,-1.105,-0.690
13.792,-1.090,-0.730
13.794,-1.080,-0.680
13.797,-1.070,-0.610
13.800,-1.090,-0.580
13.803,-1.085,-0.600
13.806,-1.070,-0.655
13.808,-1.065,-0.675
13.811,-1.070,-0.635
13.814,-1.085,-0.580
13.817,-1.095,-0.585
13.819,-1.100,-0.615
13.822,-1.095,-0.670
13.825,-1.075,-0.685
13.828,-1.050,-0.660
13.831,-1.075,-0.585
13.833,-1.085,-0.535
13.836,-1.070,-0.530
13.839,-1.065,-0.585
13.842,-1.045,-0.630
13.844,-1.045,-0.640
13.847,-1.035,-0.600
13.850,-1.050,-0.545
13.853,-1.070,-0.545
13.856,-1.075,-0.605
13.858,-1.085,-0.640
13.861,-1.065,-0.640
13.864,-1.040,-0.575
13.867,-1.040,-0.485
13.869,-1.055,-0.455
13.872,-1.045,-0.500
13.875,-1.045,-0.570
13.878,-1.030,-0.620
13.881,-1.025,-0.580
13.883,-1.020,-0.525
13.886,-1.050,-0.485
13.889,-1.055,-0.490
13.892,-1.050,-0.545
13.894,-1.030,-0.600
13.897,-1.000,-0.575
13.900,-0.980,-0.530
13.903,-0.980,-0.450
13.906,-0.990,-0.420
13.908,-0.990,-0.475
13.911,-0.985,-0.545
13.914,-0.975,-0.585
13.917,-0.965,-0.565
13.919,-0.975,-0.500
13.922,-0.995,-0.490
13.925,-1.015,-0.510
13.928,-0.985,-0.570
13.931,-0.965,-0.585
13.933,-0.945,-0.530
13.936,-0.945,-0.500
13.939,-0.945,-0.510
13.942,-0.940,-0.555
13.944,-0.935,-0.590
13.947,-0.930,-0.590
13.950,-0.950,-0.565
13.953,-0.960,-0.550
13.956,-0.955,-0.590
13.958,-0.970,-0.635
13.961,-0.940,-0.670
13.964,-0.930,-0.630
13.967,-0.930,-0.560
13.969,-0.940,-0.535
13.972,-0.930,-0.565
13.975,-0.945,-0.650
13.978,-0.945,-0.685
13.981,-0.940,-0.675
13.983,-0.935,-0.635
13.986,-0.965,-0.615
13.989,-0.985,-0.635
13.992,-0.985,-0.685
13.994,-0.970,-0.725
13.997,-0.950,-0.710
14.000,-0.935,-0.655
14.003,-0.940,-0.600
14.006,-0.960,-0.605
14.008,-0.960,-0.675
14.011,-0.950,-0.715
14.014,-0.955,-0.700
14.017,-0.980,-0.665
14.019,-1.000,-0.640
14.022,-1.005,-0.660
14.025,-0.990,-0.725
14.028,-0.980,-0.750
14.031,-0.965,-0.725
14.033,-0.960,-0.670
14.036,-0.960,-0.615
14.039,-0.975,-0.640
14.042,-0.960,-0.705
14.044,-0.960,-0.760
14.047,-0.955,-0.735
14.050,-0.965,-0.700
14.053,-0.985,-0.660
14.056,-1.000,-0.665
14.058,-1.010,-0.710
14.061,-1.020,-0.750
14.064,-1.005,-0.755
14.067,-0.990,-0.705
14.069,-1.000,-0.620
14.072,-1.015,-0.640
14.075,-1.015,-0.690
14.078,-1.010,-0.750
14.081,-1.005,-0.760
14.083,-1.025,-0.715
14.086,-1.055,-0.675
14.089,-1.075,-0.680
14.092,-1.085,-0.730
14.094,-1.070,-0.770
14.097,-1.040,-0.770
14.100,-1.040,-0.720
14.103,-1.035,-0.650
14.106,-1.050,-0.635
14.108,-1.060,-0.685
14.111,-1.070,-0.740
14.114,-1.065,-0.785
14.117,-1.055,-0.745
14.119,-1.060,-0.695
14.122,-1.085,-0.695
14.125,-1.085,-0.715
14.128,-1.085,-0.740
14.131,-1.055,-0.750
14.133,-1.045,-0.690
14.136,-1.040,-0.660
14.139,-1.050,-0.655
14.142,-1.050,-0.705
14.144,-1.060,-0.730
14.147,-1.055,-0.735
14.150,-1.060,-0.695
14.153,-1.055,-0.690
14.156,-1.070,-0.720
14.158,-1.060,-0.760
14.161,-1.055,-0.780
14.164,-1.015,-0.735
14.167,-1.015,-0.690
14.169,-1.025,-0.635
14.172,-1.010,-0.660
14.175,-1.025,-0.735
14.178,-1.015,-0.775
14.181,-0.990,-0.765
14.183,-1.010,-0.710
14.186,-1.015,-0.685
14.189,-1.020,-0.700
14.192,-1.010,-0.755
14.194,-0.985,-0.785
14.197,-0.960,-0.755
14.200,-0.960,-0.700
14.203,-0.955,-0.650
14.206,-0.940,-0.670
14.208,-0.920,-0.700
14.211,-0.915,-0.735
14.214,-0.905,-0.725
14.217,-0.890,-0.700
14.219,-0.875,-0.670
14.222,-0.855,-0.705
14.225,-0.820,-0.740
14.228,-0.800,-0.730
14.231,-0.770,-0.665
14.233,-0.785,-0.600
14.236,-0.790,-0.540
14.239,-0.780,-0.590
14.242,-0.785,-0.660
14.244,-0.765,-0.695
14.247,-0.765,-0.690
14.250,-0.775,-0.635
14.253,-0.805,-0.610
14.256,-0.830,-0.615
14.258,-0.850,-0.665
14.261,-0.845,-0.700
14.264,-0.830,-0.685
14.267,-0.830,-0.630
14.269,-0.845,-0.575
14.272,-0.840,-0.580
14.275,-0.850,-0.645
14.278,-0.875,-0.730
14.281,-0.895,-0.745
14.283,-0.915,-0.730
14.286,-0.950,-0.685
14.289,-0.990,-0.665
14.292,-1.010,-0.710
14.294,-1.015,-0.775
14.297,-0.990,-0.780
14.300,-0.960,-0.745
14.303,-0.970,-0.665
14.306,-0.985,-0.630
14.308,-1.010,-0.635
14.311,-1.015,-0.700
14.314,-1.020,-0.750
14.317,-1.015,-0.755
14.319,-1.030,-0.725
14.322,-1.050,-0.685
14.325,-1.055,-0.690
14.328,-1.040,-0.720
14.331,-1.020,-0.740
14.333,-1.010,-0.715
14.336,-1.010,-0.660
14.339,-1.030,-0.650
14.342,-1.030,-0.685
14.344,-1.065,-0.740
14.347,-1.100,-0.750
14.350,-1.160,-0.730
14.353,-1.220,-0.700
14.356,-1.250,-0.690
14.358,-1.230,-0.715
14.361,-1.140,-0.705
14.364,-0.980,-0.615
14.367,-0.815,-0.490
14.369,-0.620,-0.395
14.372,-0.410,-0.360
14.375,-0.230,-0.365
14.378,-0.045,-0.380
14.381,0.125,-0.360
14.383,0.275,-0.295
14.386,0.410,-0.280
14.389,0.510,-0.325
14.392,0.575,-0.440
14.394,0.645,-0.570
14.397,0.685,-0.675
14.400,0.685,-0.680
14.403,0.655,-0.665
14.406,0.570,-0.615
14.408,0.475,-0.580
14.411,0.330,-0.570
14.414,0.100,-0.550
14.417,-0.205,-0.520
14.419,-0.520,-0.560
14.422,-0.770,-0.635
14.425,-0.935,-0.745
14.428,-0.990,-0.825
14.431,-0.965,-0.835
14.433,-0.910,-0.780
14.436,-0.865,-0.685
14.439,-0.855,-0.635
14.442,-0.885,-0.675
14.444,-0.915,-0.725
14.447,-0.950,-0.775
14.450,-1.000,-0.765
14.453,-1.030,-0.735
14.456,-1.080,-0.685
14.458,-1.110,-0.695
14.461,-1.120,-0.745
14.464,-1.095,-0.765
14.467,-1.065,-0.745
14.469,-1.075,-0.695
14.472,-1.075,-0.630
14.475,-1.100,-0.640
14.478,-1.100,-0.685
14.481,-1.110,-0.755
14.483,-1.105,-0.770
14.486,-1.100,-0.735
14.489,-1.095,-0.675
14.492,-1.120,-0.625
14.494,-1.095,-0.655
14.497,-1.100,-0.680
14.500,-1.060,-0.720
14.503,-1.050,-0.705
14.506,-1.040,-0.650
14.508,-1.075,-0.615
14.511,-1.080,-0.635
14.514,-1.080,-0.675
14.517,-1.075,-0.715
14.519,-1.070,-0.705
14.522,-1.090,-0.650
14.525,-1.110,-0.630
14.528,-1.105,-0.640
14.531,-1.090,-0.675
14.533,-1.060,-0.675
14.536,-1.055,-0.615
14.539,-1.040,-0.570
14.542,-1.060,-0.555
14.544,-1.055,-0.600
14.547,-1.065,-0.655
14.550,-1.065,-0.630
14.553,-1.070,-0.600
14.556,-1.075,-0.580
14.558,-1.070,-0.605
14.561,-1.070,-0.625
14.564,-1.035,-0.615
14.567,-1.030,-0.575
14.569,-1.030,-0.520
14.572,-1.025,-0.510
14.575,-1.025,-0.555
14.578,-1.010,-0.600
14.581,-1.005,-0.610
14.583,-0.995,-0.565
14.586,-1.020,-0.515
14.589,-1.020,-0.525
14.592,-1.035,-0.565
14.594,-1.020,-0.625
14.597,-0.985,-0.615
14.600,-0.970,-0.570
14.603,-0.970,-0.520
14.606,-0.980,-0.515
14.608,-0.985,-0.535
14.611,-0.970,-0.580
14.614,-0.960,-0.615
14.617,-0.970,-0.575
14.619,-0.980,-0.565
14.622,-0.975,-0.580
14.625,-0.975,-0.605
14.628,-0.965,-0.610
14.631,-0.945,-0.575
14.633,-0.950,-0.545
14.636,-0.950,-0.545
14.639,-0.950,-0.580
14.642,-0.940,-0.640
14.644,-0.925,-0.645
14.647,-0.915,-0.610
14.650,-0.935,-0.575
14.653,-0.960,-0.590
14.656,-0.970,-0.630
14.658,-0.955,-0.705
14.661,-0.950,-0.710
14.664,-0.940,-0.665
14.667,-0.930,-0.610
14.669,-0.940,-0.590
14.672,-0.935,-0.630
14.675,-0.935,-0.695
14.678,-0.930,-0.705
14.681,-0.940,-0.695
14.683,-0.955,-0.665
14.686,-0.965,-0.660
14.689,-0.970,-0.690
14.692,-0.965,-0.755
14.694,-0.960,-0.740
14.697,-0.940,-0.695
14.700,-0.950,-0.655
14.703,-0.945,-0.640
14.706,-0.960,-0.675
14.708,-0.945,-0.725
14.711,-0.935,-0.760
14.714,-0.930,-0.715
14.717,-0.955,-0.670
14.719,-0.975,-0.670
14.722,-0.980,-0.710
14.725,-0.975,-0.765
14.728,-0.965,-0.770
14.731,-0.955,-0.715
14.733,-0.965,-0.665
14.736,-0.970,-0.680
14.739,-0.960,-0.720
14.742,-0.960,-0.730
14.744,-0.970,-0.715
14.747,-0.985,-0.690
14.750,-1.000,-0.700
14.753,-1.000,-0.740
14.756,-0.995,-0.765
14.758,-1.005,-0.760
14.761,-1.015,-0.700
14.764,-1.025,-0.685
14.767,-1.030,-0.710
14.769,-1.010,-0.750
14.772,-1.010,-0.740
14.775,-1.015,-0.710
14.778,-1.025,-0.675
14.781,-1.045,-0.705
14.783,-1.060,-0.735
14.786,-1.065,-0.790
14.789,-1.060,-0.810
14.792,-1.055,-0.755
14.794,-1.065,-0.725
14.797,-1.080,-0.705
14.800,-1.075,-0.730
14.803,-1.070,-0.760
14.806,-1.050,-0.760
14.808,-1.050,-0.715
14.811,-1.055,-0.675
14.814,-1.070,-0.715
14.817,-1.075,-0.770
14.819,-1.060,-0.800
14.822,-1.050,-0.785
14.825,-1.060,-0.745
14.828,-1.065,-0.715
14.831,-1.060,-0.720
14.833,-1.035,-0.760
14.836,-1.020,-0.760
14.839,-1.005,-0.745
14.842,-1.000,-0.695
14.844,-1.005,-0.650
14.847,-1.030,-0.710
14.850,-1.040,-0.750
14.853,-1.020,-0.805
14.856,-1.020,-0.790
14.858,-1.015,-0.725
14.861,-1.015,-0.690
14.864,-1.015,-0.710
14.867,-1.000,-0.750
14.869,-0.975,-0.760
14.872,-0.945,-0.725
14.875,-0.955,-0.685
14.878,-0.970,-0.680
14.881,-0.985,-0.720
14.883,-0.955,-0.775
14.886,-0.955,-0.790
14.889,-0.945,-0.755
14.892,-0.940,-0.710
14.894,-0.950,-0.685
14.897,-0.925,-0.720
14.900,-0.900,-0.735
14.903,-0.825,-0.750
14.906,-0.805,-0.695
14.908,-0.795,-0.640
14.911,-0.785,-0.630
14.914,-0.785,-0.670
14.917,-0.780,-0.700
14.919,-0.780,-0.680
14.922,-0.765,-0.645
14.925,-0.795,-0.610
14.928,-0.805,-0.625
14.931,-0.785,-0.690
14.933,-0.770,-0.685
14.936,-0.770,-0.655
14.939,-0.790,-0.610
14.942,-0.790,-0.620
14.944,-0.820,-0.655
14.947,-0.830,-0.695
14.950,-0.840,-0.690
14.953,-0.840,-0.655
14.956,-0.875,-0.670
14.958,-0.915,-0.715
14.961,-0.920,-0.760
14.964,-0.935,-0.750
14.967,-0.950,-0.710
14.969,-0.965,-0.680
14.972,-0.970,-0.695
14.975,-0.975,-0.740
14.978,-0.990,-0.775
14.981,-1.000,-0.750
14.983,-1.000,-0.695
14.986,-1.015,-0.685
14.989,-1.025,-0.725
14.992,-1.035,-0.780
14.994,-1.035,-0.810
14.997,-1.005,-0.770
15.000,-1.010,-0.700
15.003,-0.995,-0.685
15.006,-0.990,-0.700
15.008,-0.985,-0.735
15.011,-0.990,-0.755
15.014,-0.995,-0.745
15.017,-1.015,-0.710
15.019,-1.055,-0.710
15.022,-1.110,-0.765
15.025,-1.150,-0.790
15.028,-1.200,-0.795
15.031,-1.195,-0.750
15.033,-1.180,-0.655
15.036,-1.135,-0.625
15.039,-1.005,-0.610
15.042,-0.850,-0.595
15.044,-0.650,-0.525
15.047,-0.460,-0.440
15.050,-0.265,-0.360
15.053,-0.080,-0.345
15.056,0.085,-0.370
15.058,0.255,-0.395
15.061,0.430,-0.385
15.064,0.560,-0.370
15.067,0.660,-0.415
15.069,0.700,-0.510
15.072,0.735,-0.670
15.075,0.720,-0.750
15.078,0.665,-0.740
15.081,0.585,-0.645
15.083,0.425,-0.555
15.086,0.220,-0.525
15.089,-0.075,-0.535
15.092,-0.365,-0.595
15.094,-0.625,-0.645
15.097,-0.815,-0.675
15.100,-0.925,-0.715
15.103,-0.955,-0.735
15.106,-0.905,-0.785
15.108,-0.850,-0.800
15.111,-0.810,-0.745
15.114,-0.830,-0.690
15.117,-0.870,-0.645
15.119,-0.935,-0.690
15.122,-0.985,-0.755
15.125,-1.025,-0.790
15.128,-1.050,-0.760
15.131,-1.070,-0.700
15.133,-1.090,-0.685
15.136,-1.080,-0.680
15.139,-1.055,-0.715
15.142,-1.060,-0.720
15.144,-1.070,-0.665
15.147,-1.070,-0.665
15.150,-1.095,-0.670
15.153,-1.085,-0.720
15.156,-1.065,-0.735
15.158,-1.045,-0.720
15.161,-1.060,-0.675
15.164,-1.050,-0.650
15.167,-1.060,-0.645
15.169,-1.060,-0.695
15.172,-1.045,-0.695
15.175,-1.050,-0.675
15.178,-1.045,-0.635
15.181,-1.050,-0.625
15.183,-1.065,-0.660
15.186,-1.060,-0.710
15.189,-1.050,-0.755
15.192,-1.045,-0.695
15.194,-1.055,-0.655
15.197,-1.065,-0.590
15.200,-1.060,-0.610
15.203,-1.050,-0.630
15.206,-1.040,-0.665
15.208,-1.020,-0.670
15.211,-1.020,-0.605
15.214,-1.045,-0.585
15.217,-1.060,-0.595
15.219,-1.060,-0.655
15.222,-1.040,-0.685
15.225,-1.045,-0.660
15.228,-1.035,-0.595
15.231,-1.030,-0.565
15.233,-1.040,-0.560
15.236,-1.030,-0.610
15.239,-1.010,-0.615
15.242,-1.000,-0.600
15.244,-0.985,-0.565
15.247,-1.005,-0.520
15.250,-1.030,-0.530
15.253,-1.010,-0.565
15.256,-1.015,-0.635
15.258,-0.995,-0.625
15.261,-0.985,-0.575
15.264,-1.000,-0.520
15.267,-0.985,-0.495
15.269,-0.970,-0.540
15.272,-0.960,-0.575
15.275,-0.950,-0.570
15.278,-0.945,-0.540
15.281,-0.945,-0.495
15.283,-0.965,-0.525
15.286,-0.975,-0.610
15.289,-0.965,-0.635
15.292,-0.945,-0.610
15.294,-0.955,-0.555
15.297,-0.950,-0.520
15.300,-0.955,-0.530
15.303,-0.940,-0.565
15.306,-0.925,-0.605
15.308,-0.915,-0.605
15.311,-0.905,-0.570
15.314,-0.920,-0.530
15.317,-0.945,-0.545
15.319,-0.940,-0.595
15.322,-0.935,-0.655
15.325,-0.935,-0.660
15.328,-0.910,-0.640
15.331,-0.920,-0.590
15.333,-0.930,-0.585
15.336,-0.925,-0.620
15.339,-0.885,-0.660
15.342,-0.875,-0.675
15.344,-0.880,-0.640
15.347,-0.925,-0.630
15.350,-0.925,-0.645
15.353,-0.935,-0.700
15.356,-0.920,-0.755
15.358,-0.925,-0.735
15.361,-0.935,-0.695
15.364,-0.945,-0.635
15.367,-0.950,-0.650
15.369,-0.935,-0.705
15.372,-0.915,-0.725
15.375,-0.900,-0.695
15.378,-0.900,-0.650
15.381,-0.930,-0.645
15.383,-0.955,-0.660
15.386,-0.960,-0.735
15.389,-0.935,-0.765
15.392,-0.945,-0.750
15.394,-0.950,-0.705
15.397,-0.955,-0.650
15.400,-0.960,-0.655
15.403,-0.945,-0.675
15.406,-0.925,-0.725
15.408,-0.915,-0.720
15.411,-0.915,-0.680
15.414,-0.930,-0.645
15.417,-0.955,-0.660
15.419,-0.970,-0.700
15.422,-0.970,-0.765
15.425,-0.945,-0.780
15.428,-0.960,-0.725
15.431,-0.960,-0.645
15.433,-0.985,-0.625
15.436,-0.970,-0.665
15.439,-0.945,-0.720
15.442,-0.945,-0.745
15.444,-0.930,-0.740
15.447,-0.945,-0.680
15.450,-0.985,-0.650
15.453,-0.995,-0.660
15.456,-1.000,-0.705
15.458,-1.010,-0.770
15.461,-0.995,-0.765
15.464,-1.000,-0.720
15.467,-1.000,-0.660
15.469,-1.015,-0.645
15.472,-1.020,-0.670
15.475,-1.015,-0.735
15.478,-1.015,-0.755
15.481,-1.010,-0.760
15.483,-1.020,-0.700
15.486,-1.035,-0.675
15.489,-1.055,-0.690
15.492,-1.050,-0.760
15.494,-1.040,-0.785
15.497,-1.015,-0.750
15.500,-1.000,-0.685
15.503,-1.005,-0.640
15.506,-1.010,-0.645
15.508,-1.005,-0.695
15.511,-1.005,-0.755
15.514,-1.000,-0.760
15.517,-1.005,-0.740
15.519,-1.005,-0.690
15.522,-1.010,-0.660
15.525,-1.010,-0.695
15.528,-1.010,-0.750
15.531,-0.990,-0.755
15.533,-0.975,-0.730
15.536,-0.970,-0.655
15.539,-0.980,-0.630
15.542,-0.990,-0.670
15.544,-0.980,-0.725
15.547,-0.985,-0.760
15.550,-0.980,-0.750
15.553,-0.980,-0.705
15.556,-1.010,-0.685
15.558,-1.010,-0.705
15.561,-0.975,-0.745
15.564,-0.960,-0.750
15.567,-0.925,-0.705
15.569,-0.920,-0.665
15.572,-0.915,-0.650
15.575,-0.915,-0.655
15.578,-0.900,-0.730
15.581,-0.885,-0.745
15.583,-0.885,-0.715
15.586,-0.880,-0.660
15.589,-0.875,-0.650
15.592,-0.860,-0.695
15.594,-0.840,-0.735
15.597,-0.805,-0.730
15.600,-0.780,-0.690
15.603,-0.770,-0.625
15.606,-0.770,-0.565
15.608,-0.770,-0.570
15.611,-0.745,-0.640
15.614,-0.740,-0.670
15.617,-0.735,-0.660
15.619,-0.750,-0.620
15.622,-0.770,-0.575
15.625,-0.780,-0.595
15.628,-0.800,-0.635
15.631,-0.775,-0.670
15.633,-0.785,-0.660
15.636,-0.780,-0.615
15.639,-0.805,-0.545
15.642,-0.805,-0.575
15.644,-0.820,-0.640
15.647,-0.795,-0.690
15.650,-0.805,-0.705
15.653,-0.830,-0.660
15.656,-0.870,-0.640
15.658,-0.910,-0.670
15.661,-0.920,-0.705
15.664,-0.920,-0.765
15.667,-0.920,-0.745
15.669,-0.930,-0.685
15.672,-0.935,-0.655
15.675,-0.955,-0.650
15.678,-0.955,-0.700
15.681,-0.955,-0.750
15.683,-0.950,-0.780
15.686,-0.965,-0.730
15.689,-0.990,-0.690
15.692,-1.030,-0.685
15.694,-1.025,-0.725
15.697,-1.025,-0.745
15.700,-0.995,-0.730
15.703,-0.985,-0.670
15.706,-0.990,-0.635
15.708,-1.000,-0.650
15.711,-1.000,-0.680
15.714,-1.010,-0.740
15.717,-1.005,-0.765
15.719,-0.995,-0.735
15.722,-1.045,-0.680
15.725,-1.115,-0.660
15.728,-1.150,-0.700
15.731,-1.210,-0.745
15.733,-1.185,-0.750
15.736,-1.175,-0.710
15.739,-1.120,-0.605
15.742,-1.030,-0.545
15.744,-0.905,-0.515
15.747,-0.715,-0.505
15.750,-0.505,-0.495
15.753,-0.320,-0.415
15.756,-0.125,-0.335
15.758,0.050,-0.285
15.761,0.235,-0.305
15.764,0.410,-0.345
15.767,0.580,-0.380
15.769,0.675,-0.400
15.772,0.740,-0.455
15.775,0.755,-0.585
15.778,0.735,-0.685
15.781,0.675,-0.725
15.783,0.565,-0.695
15.786,0.440,-0.570
15.789,0.245,-0.460
15.792,-0.045,-0.460
15.794,-0.340,-0.530
15.797,-0.590,-0.630
15.800,-0.770,-0.710
15.803,-0.860,-0.715
15.806,-0.890,-0.680
15.808,-0.895,-0.685
15.811,-0.860,-0.700
15.814,-0.820,-0.730
15.817,-0.800,-0.750
15.819,-0.810,-0.720
15.822,-0.875,-0.660
15.825,-0.970,-0.630
15.828,-1.015,-0.675
15.831,-1.040,-0.735
15.833,-1.040,-0.745
15.836,-1.020,-0.715
15.839,-1.030,-0.675
15.842,-1.035,-0.630
15.844,-1.055,-0.650
15.847,-1.065,-0.710
15.850,-1.045,-0.735
15.853,-1.045,-0.715
15.856,-1.055,-0.655
15.858,-1.075,-0.610
15.861,-1.080,-0.610
15.864,-1.080,-0.665
15.867,-1.060,-0.710
15.869,-1.020,-0.705
15.872,-1.010,-0.650
15.875,-1.025,-0.595
15.878,-1.045,-0.555
15.881,-1.055,-0.605
15.883,-1.065,-0.675
15.886,-1.055,-0.710
15.889,-1.050,-0.705
15.892,-1.045,-0.635
15.894,-1.060,-0.590
15.897,-1.065,-0.590
15.900,-1.040,-0.635
15.903,-1.020,-0.645
15.906,-1.000,-0.635
15.908,-0.990,-0.575
15.911,-1.005,-0.540
15.914,-1.040,-0.565
15.917,-1.055,-0.620
15.919,-1.030,-0.670
15.922,-1.020,-0.660
15.925,-1.010,-0.600
15.928,-1.030,-0.545
15.931,-1.030,-0.520
15.933,-1.020,-0.555
15.936,-1.010,-0.600
15.939,-0.975,-0.580
15.942,-0.980,-0.540
15.944,-1.000,-0.495
15.947,-1.005,-0.515
15.950,-1.005,-0.550
15.953,-1.005,-0.600
15.956,-0.995,-0.580
15.958,-0.990,-0.550
15.961,-1.005,-0.505
15.964,-1.015,-0.530
15.967,-1.010,-0.545
15.969,-0.965,-0.545
15.972,-0.945,-0.495
15.975,-0.940,-0.440
15.978,-0.950,-0.460
15.981,-0.945,-0.510
15.983,-0.935,-0.565
15.986,-0.945,-0.565
15.989,-0.955,-0.520
15.992,-0.960,-0.470
15.994,-0.975,-0.475
15.997,-0.970,-0.520
16.000,-0.945,-0.570
16.003,-0.910,-0.585
16.006,-0.890,-0.520
16.008,-0.905,-0.485
16.011,-0.910,-0.470
16.014,-0.925,-0.495
16.017,-0.910,-0.565
16.019,-0.910,-0.615
16.022,-0.890,-0.600
16.025,-0.905,-0.535
16.028,-0.915,-0.530
16.031,-0.905,-0.560
16.033,-0.905,-0.605
16.036,-0.870,-0.620
16.039,-0.850,-0.580
16.042,-0.855,-0.535
16.044,-0.885,-0.540
16.047,-0.915,-0.590
16.050,-0.910,-0.660
16.053,-0.900,-0.695
16.056,-0.900,-0.655
16.058,-0.915,-0.600
16.061,-0.915,-0.590
16.064,-0.900,-0.610
16.067,-0.890,-0.655
16.069,-0.875,-0.685
16.072,-0.865,-0.645
16.075,-0.875,-0.595
16.078,-0.895,-0.575
16.081,-0.910,-0.615
16.083,-0.915,-0.690
16.086,-0.910,-0.700
16.089,-0.915,-0.680
16.092,-0.930,-0.640
16.094,-0.945,-0.620
16.097,-0.955,-0.620
16.100,-0.925,-0.655
16.103,-0.910,-0.685
16.106,-0.890,-0.625
16.108,-0.895,-0.600
16.111,-0.910,-0.580
16.114,-0.925,-0.630
16.117,-0.945,-0.685
16.119,-0.930,-0.720
16.122,-0.945,-0.690
16.125,-0.940,-0.625
16.128,-0.960,-0.610
16.131,-0.960,-0.625
16.133,-0.955,-0.660
16.136,-0.925,-0.680
16.139,-0.920,-0.635
16.142,-0.925,-0.595
16.144,-0.940,-0.595
16.147,-0.950,-0.635
16.150,-0.945,-0.695
16.153,-0.950,-0.700
16.156,-0.970,-0.670
16.158,-1.005,-0.635
16.161,-1.005,-0.665
16.164,-1.005,-0.690
16.167,-1.000,-0.705
16.169,-0.985,-0.670
16.172,-0.985,-0.615
16.175,-1.005,-0.610
16.178,-1.020,-0.650
16.181,-1.000,-0.705
16.183,-1.030,-0.700
16.186,-1.025,-0.660
16.189,-1.050,-0.635
16.192,-1.055,-0.645
16.194,-1.045,-0.705
16.197,-1.025,-0.705
16.200,-1.015,-0.680
16.203,-1.015,-0.610
16.206,-1.025,-0.565
16.208,-1.010,-0.600
16.211,-1.005,-0.675
16.214,-0.990,-0.685
16.217,-0.995,-0.690
16.219,-0.985,-0.625
16.222,-1.005,-0.590
16.225,-1.010,-0.635
16.228,-1.020,-0.665
16.231,-0.990,-0.695
16.233,-0.990,-0.675
16.236,-0.975,-0.605
16.239,-0.980,-0.550
16.242,-0.970,-0.590
16.244,-0.980,-0.650
16.247,-0.985,-0.685
16.250,-0.965,-0.670
16.253,-0.970,-0.625
16.256,-0.985,-0.595
16.258,-0.985,-0.625
16.261,-0.980,-0.685
16.264,-0.945,-0.690
16.267,-0.910,-0.670
16.269,-0.900,-0.600
16.272,-0.930,-0.560
16.275,-0.915,-0.605
16.278,-0.905,-0.665
16.281,-0.890,-0.685
16.283,-0.860,-0.665
16.286,-0.855,-0.625
16.289,-0.860,-0.585
16.292,-0.840,-0.590
16.294,-0.825,-0.645
16.297,-0.780,-0.660
16.300,-0.745,-0.620
16.303,-0.725,-0.550
16.306,-0.720,-0.480
16.308,-0.715,-0.485
16.311,-0.750,-0.535
16.314,-0.735,-0.560
16.317,-0.740,-0.550
16.319,-0.755,-0.525
16.322,-0.775,-0.510
16.325,-0.765,-0.520
16.328,-0.760,-0.565
16.331,-0.760,-0.600
16.333,-0.755,-0.565
16.336,-0.760,-0.480
16.339,-0.775,-0.465
16.342,-0.785,-0.495
16.344,-0.785,-0.550
16.347,-0.800,-0.595
16.350,-0.795,-0.605
16.353,-0.830,-0.560
16.356,-0.880,-0.565
16.358,-0.895,-0.620
16.361,-0.910,-0.655
16.364,-0.915,-0.640
16.367,-0.930,-0.600
16.369,-0.945,-0.550
16.372,-0.945,-0.540
16.375,-0.935,-0.570
16.378,-0.945,-0.615
16.381,-0.940,-0.605
