'Elapsed time','MLII','V4'
'seconds','mV','mV'
0.000,-1.000,-0.685
0.003,-1.000,-0.685
0.006,-1.000,-0.685
0.008,-1.000,-0.685
0.011,-1.000,-0.685
0.014,-1.000,-0.685
0.017,-1.000,-0.685
0.019,-0.985,-0.680
0.022,-0.970,-0.680
0.025,-0.970,-0.695
0.028,-0.970,-0.695
0.031,-0.970,-0.695
0.033,-0.980,-0.705
0.036,-0.975,-0.705
0.039,-0.975,-0.695
0.042,-0.985,-0.690
0.044,-0.980,-0.690
0.047,-0.970,-0.670
0.050,-0.975,-0.675
0.053,-0.955,-0.665
0.056,-0.945,-0.675
0.058,-0.950,-0.675
0.061,-0.965,-0.680
0.064,-0.950,-0.680
0.067,-0.955,-0.685
0.069,-0.960,-0.690
0.072,-0.960,-0.690
0.075,-0.965,-0.680
0.078,-0.970,-0.670
0.081,-0.965,-0.665
0.083,-0.950,-0.660
0.086,-0.950,-0.650
0.089,-0.925,-0.655
0.092,-0.930,-0.660
0.094,-0.940,-0.660
0.097,-0.935,-0.665
0.100,-0.940,-0.665
0.103,-0.950,-0.670
0.106,-0.965,-0.675
0.108,-0.960,-0.675
0.111,-0.950,-0.665
0.114,-0.955,-0.660
0.117,-0.940,-0.655
0.119,-0.945,-0.650
0.122,-0.925,-0.660
0.125,-0.925,-0.660
0.128,-0.930,-0.665
0.131,-0.930,-0.680
0.133,-0.935,-0.675
0.136,-0.945,-0.675
0.139,-0.950,-0.675
0.142,-0.950,-0.675
0.144,-0.945,-0.660
0.147,-0.940,-0.660
0.150,-0.935,-0.655
0.153,-0.920,-0.655
0.156,-0.920,-0.640
0.158,-0.920,-0.650
0.161,-0.915,-0.645
0.164,-0.915,-0.655
0.167,-0.920,-0.660
0.169,-0.920,-0.690
0.172,-0.930,-0.675
0.175,-0.930,-0.675
0.178,-0.950,-0.665
0.181,-0.955,-0.660
0.183,-0.930,-0.650
0.186,-0.915,-0.645
0.189,-0.905,-0.640
0.192,-0.900,-0.650
0.194,-0.910,-0.655
0.197,-0.920,-0.655
0.200,-0.925,-0.660
0.203,-0.925,-0.680
0.206,-0.925,-0.690
0.208,-0.920,-0.680
0.211,-0.930,-0.685
0.214,-0.935,-0.670
0.217,-0.920,-0.655
0.219,-0.905,-0.635
0.222,-0.905,-0.640
0.225,-0.895,-0.640
0.228,-0.900,-0.655
0.231,-0.905,-0.675
0.233,-0.915,-0.690
0.236,-0.920,-0.700
0.239,-0.910,-0.680
0.242,-0.920,-0.675
0.244,-0.925,-0.675
0.247,-0.910,-0.655
0.250,-0.915,-0.650
0.253,-0.900,-0.645
0.256,-0.895,-0.635
0.258,-0.900,-0.650
0.261,-0.900,-0.660
0.264,-0.905,-0.670
0.267,-0.910,-0.675
0.269,-0.910,-0.680
0.272,-0.920,-0.675
0.275,-0.920,-0.655
0.278,-0.920,-0.660
0.281,-0.920,-0.655
0.283,-0.910,-0.645
0.286,-0.920,-0.655
0.289,-0.900,-0.640
0.292,-0.895,-0.660
0.294,-0.900,-0.665
0.297,-0.905,-0.670
0.300,-0.915,-0.680
0.303,-0.910,-0.670
0.306,-0.920,-0.680
0.308,-0.925,-0.675
0.311,-0.935,-0.670
0.314,-0.910,-0.655
0.317,-0.905,-0.660
0.319,-0.905,-0.655
0.322,-0.895,-0.655
0.325,-0.895,-0.660
0.328,-0.895,-0.675
0.331,-0.900,-0.670
0.333,-0.910,-0.675
0.336,-0.905,-0.685
0.339,-0.915,-0.675
0.342,-0.920,-0.680
0.344,-0.915,-0.685
0.347,-0.910,-0.670
0.350,-0.920,-0.665
0.353,-0.900,-0.660
0.356,-0.890,-0.660
0.358,-0.895,-0.665
0.361,-0.895,-0.655
0.364,-0.895,-0.665
0.367,-0.905,-0.665
0.369,-0.910,-0.680
0.372,-0.915,-0.685
0.375,-0.910,-0.680
0.378,-0.915,-0.680
0.381,-0.920,-0.660
0.383,-0.900,-0.655
0.386,-0.900,-0.650
0.389,-0.895,-0.650
0.392,-0.885,-0.665
0.394,-0.895,-0.660
0.397,-0.900,-0.675
0.400,-0.900,-0.680
0.403,-0.905,-0.680
0.406,-0.915,-0.690
0.408,-0.920,-0.680
0.411,-0.920,-0.670
0.414,-0.910,-0.670
0.417,-0.905,-0.660
0.419,-0.900,-0.655
0.422,-0.895,-0.655
0.425,-0.885,-0.645
0.428,-0.890,-0.660
0.431,-0.885,-0.670
0.433,-0.885,-0.685
0.436,-0.890,-0.680
0.439,-0.900,-0.680
0.442,-0.890,-0.675
0.444,-0.895,-0.690
0.447,-0.885,-0.675
0.450,-0.870,-0.670
0.453,-0.880,-0.670
0.456,-0.865,-0.650
0.458,-0.870,-0.670
0.461,-0.870,-0.660
0.464,-0.870,-0.680
0.467,-0.865,-0.685
0.469,-0.860,-0.685
0.472,-0.850,-0.685
0.475,-0.850,-0.675
0.478,-0.835,-0.680
0.481,-0.820,-0.665
0.483,-0.820,-0.660
0.486,-0.810,-0.645
0.489,-0.810,-0.640
0.492,-0.815,-0.650
0.494,-0.830,-0.640
0.497,-0.835,-0.665
0.500,-0.850,-0.665
0.503,-0.865,-0.665
0.506,-0.865,-0.655
0.508,-0.870,-0.655
0.511,-0.870,-0.650
0.514,-0.865,-0.640
0.517,-0.870,-0.635
0.519,-0.860,-0.640
0.522,-0.845,-0.620
0.525,-0.830,-0.605
0.528,-0.820,-0.605
0.531,-0.815,-0.615
0.533,-0.815,-0.605
0.536,-0.820,-0.615
0.539,-0.825,-0.620
0.542,-0.840,-0.630
0.544,-0.845,-0.640
0.547,-0.855,-0.640
0.550,-0.875,-0.630
0.553,-0.880,-0.625
0.556,-0.880,-0.635
0.558,-0.895,-0.645
0.561,-0.910,-0.670
0.564,-0.920,-0.675
0.567,-0.930,-0.685
0.569,-0.935,-0.690
0.572,-0.925,-0.690
0.575,-0.925,-0.695
0.578,-0.930,-0.680
0.581,-0.920,-0.665
0.583,-0.910,-0.670
0.586,-0.910,-0.665
0.589,-0.905,-0.680
0.592,-0.910,-0.690
0.594,-0.935,-0.735
0.597,-0.935,-0.750
0.600,-0.935,-0.745
0.603,-0.915,-0.690
0.606,-0.850,-0.615
0.608,-0.750,-0.480
0.611,-0.655,-0.360
0.614,-0.570,-0.270
0.617,-0.500,-0.245
0.619,-0.465,-0.260
0.622,-0.445,-0.345
0.625,-0.495,-0.515
0.628,-0.610,-0.780
0.631,-0.750,-1.065
0.633,-0.920,-1.330
0.636,-1.015,-1.495
0.639,-1.015,-1.535
0.642,-0.910,-1.455
0.644,-0.720,-1.300
0.647,-0.475,-1.105
0.650,-0.210,-0.920
0.653,0.035,-0.765
0.656,0.260,-0.635
0.658,0.490,-0.545
0.661,0.690,-0.490
0.664,0.880,-0.475
0.667,1.025,-0.465
0.669,1.130,-0.460
0.672,1.190,-0.475
0.675,1.195,-0.515
0.678,1.165,-0.580
0.681,1.085,-0.635
0.683,0.970,-0.670
0.686,0.815,-0.690
0.689,0.635,-0.685
0.692,0.425,-0.670
0.694,0.215,-0.660
0.697,0.000,-0.640
0.700,-0.215,-0.610
0.703,-0.430,-0.625
0.706,-0.645,-0.645
0.708,-0.835,-0.690
0.711,-0.980,-0.730
0.714,-1.070,-0.750
0.717,-1.125,-0.760
0.719,-1.140,-0.750
0.722,-1.130,-0.710
0.725,-1.120,-0.690
0.728,-1.095,-0.665
0.731,-1.080,-0.650
0.733,-1.085,-0.640
0.736,-1.070,-0.625
0.739,-1.070,-0.615
0.742,-1.060,-0.585
0.744,-1.045,-0.575
0.747,-1.035,-0.555
0.750,-1.020,-0.540
0.753,-1.015,-0.540
0.756,-1.000,-0.535
0.758,-1.000,-0.545
0.761,-1.005,-0.555
0.764,-1.020,-0.555
0.767,-1.025,-0.565
0.769,-1.040,-0.565
0.772,-1.040,-0.545
0.775,-1.050,-0.540
0.778,-1.045,-0.530
0.781,-1.040,-0.515
0.783,-1.030,-0.510
0.786,-1.025,-0.520
0.789,-1.015,-0.510
0.792,-1.010,-0.525
0.794,-1.025,-0.520
0.797,-1.025,-0.520
0.800,-1.035,-0.520
0.803,-1.045,-0.525
0.806,-1.040,-0.525
0.808,-1.045,-0.535
0.811,-1.040,-0.520
0.814,-1.040,-0.515
0.817,-1.025,-0.510
0.819,-1.020,-0.505
0.822,-1.015,-0.495
0.825,-1.020,-0.510
0.828,-1.020,-0.500
0.831,-1.035,-0.510
0.833,-1.045,-0.520
0.836,-1.050,-0.540
0.839,-1.060,-0.545
0.842,-1.060,-0.535
0.844,-1.060,-0.540
0.847,-1.055,-0.520
0.850,-1.060,-0.515
0.853,-1.045,-0.515
0.856,-1.050,-0.505
0.858,-1.055,-0.515
0.861,-1.055,-0.525
0.864,-1.070,-0.535
0.867,-1.075,-0.545
0.869,-1.075,-0.560
0.872,-1.080,-0.550
0.875,-1.090,-0.555
0.878,-1.090,-0.545
0.881,-1.085,-0.540
0.883,-1.090,-0.540
0.886,-1.080,-0.530
0.889,-1.085,-0.535
0.892,-1.080,-0.545
0.894,-1.085,-0.565
0.897,-1.090,-0.575
0.900,-1.110,-0.580
0.903,-1.125,-0.595
0.906,-1.125,-0.595
0.908,-1.135,-0.610
0.911,-1.150,-0.615
0.914,-1.150,-0.610
0.917,-1.140,-0.605
0.919,-1.140,-0.605
0.922,-1.135,-0.605
0.925,-1.155,-0.625
0.928,-1.170,-0.650
0.931,-1.175,-0.660
0.933,-1.195,-0.695
0.936,-1.190,-0.700
0.939,-1.185,-0.725
0.942,-1.200,-0.720
0.944,-1.200,-0.705
0.947,-1.195,-0.715
0.950,-1.200,-0.710
0.953,-1.210,-0.705
0.956,-1.195,-0.725
0.958,-1.205,-0.730
0.961,-1.195,-0.745
0.964,-1.205,-0.765
0.967,-1.210,-0.780
0.969,-1.210,-0.810
0.972,-1.220,-0.810
0.975,-1.210,-0.815
0.978,-1.210,-0.815
0.981,-1.205,-0.805
0.983,-1.180,-0.820
0.986,-1.180,-0.820
0.989,-1.165,-0.825
0.992,-1.160,-0.830
0.994,-1.160,-0.840
0.997,-1.155,-0.845
1.000,-1.145,-0.855
1.003,-1.140,-0.855
1.006,-1.120,-0.855
1.008,-1.115,-0.850
1.011,-1.105,-0.855
1.014,-1.090,-0.835
1.017,-1.070,-0.835
1.019,-1.050,-0.825
1.022,-1.020,-0.825
1.025,-1.005,-0.845
1.028,-0.995,-0.835
1.031,-0.970,-0.830
1.033,-0.965,-0.825
1.036,-0.950,-0.840
1.039,-0.935,-0.825
1.042,-0.935,-0.830
1.044,-0.920,-0.815
1.047,-0.900,-0.805
1.050,-0.885,-0.805
1.053,-0.850,-0.780
1.056,-0.845,-0.775
1.058,-0.840,-0.775
1.061,-0.845,-0.790
1.064,-0.825,-0.795
1.067,-0.835,-0.785
1.069,-0.835,-0.785
1.072,-0.830,-0.775
1.075,-0.830,-0.775
1.078,-0.820,-0.785
1.081,-0.820,-0.745
1.083,-0.820,-0.750
1.086,-0.810,-0.735
1.089,-0.810,-0.735
1.092,-0.815,-0.740
1.094,-0.825,-0.750
1.097,-0.845,-0.745
1.100,-0.860,-0.765
1.103,-0.875,-0.760
1.106,-0.885,-0.760
1.108,-0.900,-0.755
1.111,-0.905,-0.750
1.114,-0.905,-0.735
1.117,-0.905,-0.735
1.119,-0.915,-0.715
1.122,-0.900,-0.715
1.125,-0.920,-0.730
1.128,-0.925,-0.740
1.131,-0.940,-0.755
1.133,-0.940,-0.755
1.136,-0.965,-0.760
1.139,-0.960,-0.760
1.142,-0.970,-0.755
1.144,-0.970,-0.760
1.147,-0.970,-0.745
1.150,-0.960,-0.745
1.153,-0.960,-0.720
1.156,-0.960,-0.720
1.158,-0.970,-0.725
1.161,-0.970,-0.730
1.164,-0.960,-0.735
1.167,-0.975,-0.745
1.169,-0.980,-0.760
1.172,-0.975,-0.765
1.175,-0.990,-0.755
1.178,-0.980,-0.750
1.181,-0.970,-0.710
1.183,-0.965,-0.690
1.186,-0.955,-0.685
1.189,-0.950,-0.690
1.192,-0.950,-0.695
1.194,-0.955,-0.700
1.197,-0.955,-0.700
1.200,-0.945,-0.715
1.203,-0.940,-0.720
1.206,-0.955,-0.725
1.208,-0.950,-0.700
1.211,-0.935,-0.700
1.214,-0.935,-0.690
1.217,-0.930,-0.680
1.219,-0.925,-0.690
1.222,-0.915,-0.690
1.225,-0.915,-0.685
1.228,-0.920,-0.695
1.231,-0.910,-0.690
1.233,-0.925,-0.695
1.236,-0.925,-0.695
1.239,-0.930,-0.685
1.242,-0.930,-0.680
1.244,-0.930,-0.685
1.247,-0.920,-0.675
1.250,-0.925,-0.670
1.253,-0.905,-0.665
1.256,-0.910,-0.660
1.258,-0.905,-0.665
1.261,-0.900,-0.660
1.264,-0.895,-0.665
1.267,-0.910,-0.675
1.269,-0.910,-0.675
1.272,-0.905,-0.680
1.275,-0.910,-0.675
1.278,-0.910,-0.670
1.281,-0.905,-0.665
1.283,-0.895,-0.660
1.286,-0.890,-0.645
1.289,-0.875,-0.640
1.292,-0.885,-0.655
1.294,-0.885,-0.650
1.297,-0.895,-0.650
1.300,-0.890,-0.665
1.303,-0.905,-0.675
1.306,-0.900,-0.670
1.308,-0.905,-0.670
1.311,-0.895,-0.670
1.314,-0.895,-0.665
1.317,-0.890,-0.650
1.319,-0.890,-0.640
1.322,-0.875,-0.635
1.325,-0.870,-0.640
1.328,-0.880,-0.645
1.331,-0.880,-0.650
1.333,-0.880,-0.665
1.336,-0.895,-0.665
1.339,-0.900,-0.675
1.342,-0.900,-0.670
1.344,-0.900,-0.665
1.347,-0.895,-0.660
1.350,-0.885,-0.650
1.353,-0.875,-0.650
1.356,-0.860,-0.655
1.358,-0.860,-0.645
1.361,-0.860,-0.645
1.364,-0.865,-0.665
1.367,-0.870,-0.660
1.369,-0.865,-0.650
1.372,-0.880,-0.650
1.375,-0.870,-0.655
1.378,-0.875,-0.650
1.381,-0.865,-0.640
1.383,-0.860,-0.645
1.386,-0.860,-0.630
1.389,-0.855,-0.640
1.392,-0.855,-0.635
1.394,-0.855,-0.645
1.397,-0.865,-0.670
1.400,-0.865,-0.670
1.403,-0.865,-0.675
1.406,-0.880,-0.675
1.408,-0.870,-0.675
1.411,-0.865,-0.655
1.414,-0.870,-0.655
1.417,-0.860,-0.650
1.419,-0.865,-0.640
1.422,-0.845,-0.645
1.425,-0.845,-0.665
1.428,-0.845,-0.655
1.431,-0.845,-0.665
1.433,-0.860,-0.670
1.436,-0.860,-0.670
1.439,-0.865,-0.665
1.442,-0.875,-0.675
1.444,-0.875,-0.660
1.447,-0.865,-0.655
1.450,-0.865,-0.645
1.453,-0.860,-0.640
1.456,-0.860,-0.635
1.458,-0.845,-0.650
1.461,-0.840,-0.645
1.464,-0.850,-0.650
1.467,-0.860,-0.665
1.469,-0.860,-0.675
1.472,-0.875,-0.670
1.475,-0.860,-0.675
1.478,-0.860,-0.665
1.481,-0.860,-0.650
1.483,-0.860,-0.655
1.486,-0.845,-0.655
1.489,-0.840,-0.655
1.492,-0.840,-0.645
1.494,-0.850,-0.670
1.497,-0.845,-0.660
1.500,-0.865,-0.665
1.503,-0.860,-0.670
1.506,-0.870,-0.675
1.508,-0.875,-0.680
1.511,-0.880,-0.685
1.514,-0.885,-0.670
1.517,-0.860,-0.665
1.519,-0.855,-0.660
1.522,-0.845,-0.660
1.525,-0.835,-0.655
1.528,-0.845,-0.660
1.531,-0.855,-0.660
1.533,-0.860,-0.660
1.536,-0.865,-0.670
1.539,-0.865,-0.680
1.542,-0.870,-0.670
1.544,-0.860,-0.675
1.547,-0.865,-0.665
1.550,-0.845,-0.665
1.553,-0.855,-0.655
1.556,-0.835,-0.645
1.558,-0.850,-0.655
1.561,-0.860,-0.660
1.564,-0.840,-0.655
1.567,-0.855,-0.665
1.569,-0.855,-0.675
1.572,-0.860,-0.675
1.575,-0.855,-0.675
1.578,-0.860,-0.680
1.581,-0.855,-0.680
1.583,-0.845,-0.670
1.586,-0.840,-0.665
1.589,-0.840,-0.650
1.592,-0.835,-0.650
1.594,-0.845,-0.650
1.597,-0.845,-0.675
1.600,-0.840,-0.680
1.603,-0.860,-0.690
1.606,-0.855,-0.700
1.608,-0.855,-0.700
1.611,-0.860,-0.680
1.614,-0.860,-0.690
1.617,-0.855,-0.680
1.619,-0.860,-0.660
1.622,-0.850,-0.660
1.625,-0.845,-0.665
1.628,-0.840,-0.665
1.631,-0.860,-0.685
1.633,-0.860,-0.685
1.636,-0.870,-0.690
1.639,-0.880,-0.680
1.642,-0.855,-0.695
1.644,-0.865,-0.685
1.647,-0.850,-0.685
1.650,-0.850,-0.685
1.653,-0.845,-0.675
1.656,-0.840,-0.665
1.658,-0.835,-0.665
1.661,-0.835,-0.675
1.664,-0.835,-0.680
1.667,-0.855,-0.690
1.669,-0.850,-0.690
1.672,-0.855,-0.695
1.675,-0.855,-0.680
1.678,-0.845,-0.680
1.681,-0.850,-0.665
1.683,-0.835,-0.655
1.686,-0.840,-0.655
1.689,-0.830,-0.665
1.692,-0.835,-0.665
1.694,-0.825,-0.670
1.697,-0.820,-0.685
1.700,-0.825,-0.685
1.703,-0.835,-0.695
1.706,-0.835,-0.700
1.708,-0.830,-0.695
1.711,-0.825,-0.690
1.714,-0.820,-0.675
1.717,-0.830,-0.670
1.719,-0.825,-0.665
1.722,-0.820,-0.650
1.725,-0.805,-0.660
1.728,-0.795,-0.645
1.731,-0.795,-0.660
1.733,-0.790,-0.670
1.736,-0.790,-0.675
1.739,-0.795,-0.670
1.742,-0.790,-0.670
1.744,-0.780,-0.670
1.747,-0.780,-0.660
1.750,-0.785,-0.655
1.753,-0.790,-0.655
1.756,-0.790,-0.650
1.758,-0.800,-0.655
1.761,-0.805,-0.650
1.764,-0.820,-0.645
1.767,-0.820,-0.665
1.769,-0.815,-0.670
1.772,-0.820,-0.670
1.775,-0.815,-0.665
1.778,-0.795,-0.655
1.781,-0.775,-0.625
1.783,-0.770,-0.615
1.786,-0.755,-0.625
1.789,-0.750,-0.615
1.792,-0.755,-0.620
1.794,-0.775,-0.635
1.797,-0.785,-0.640
1.800,-0.785,-0.665
1.803,-0.815,-0.680
1.806,-0.845,-0.700
1.808,-0.855,-0.700
1.811,-0.870,-0.705
1.814,-0.865,-0.710
1.817,-0.860,-0.700
1.819,-0.865,-0.680
1.822,-0.850,-0.680
1.825,-0.845,-0.685
1.828,-0.850,-0.690
1.831,-0.845,-0.710
1.833,-0.860,-0.715
1.836,-0.860,-0.730
1.839,-0.865,-0.730
1.842,-0.865,-0.730
1.844,-0.865,-0.745
1.847,-0.875,-0.770
1.850,-0.875,-0.770
1.853,-0.875,-0.755
1.856,-0.840,-0.720
1.858,-0.800,-0.655
1.861,-0.725,-0.540
1.864,-0.640,-0.430
1.867,-0.565,-0.350
1.869,-0.495,-0.320
1.872,-0.460,-0.360
1.875,-0.475,-0.465
1.878,-0.510,-0.650
1.881,-0.610,-0.900
1.883,-0.740,-1.190
1.886,-0.850,-1.385
1.889,-0.905,-1.495
1.892,-0.845,-1.465
1.894,-0.690,-1.300
1.897,-0.455,-1.100
1.900,-0.205,-0.875
1.903,0.075,-0.695
1.906,0.345,-0.530
1.908,0.595,-0.425
1.911,0.840,-0.345
1.914,1.055,-0.310
1.917,1.230,-0.300
1.919,1.345,-0.330
1.922,1.400,-0.390
1.925,1.390,-0.485
1.928,1.295,-0.595
1.931,1.180,-0.660
1.933,1.015,-0.700
1.936,0.805,-0.710
1.939,0.565,-0.715
1.942,0.335,-0.690
1.944,0.110,-0.660
1.947,-0.125,-0.620
1.950,-0.345,-0.610
1.953,-0.580,-0.630
1.956,-0.775,-0.670
1.958,-0.930,-0.735
1.961,-1.045,-0.780
1.964,-1.110,-0.815
1.967,-1.145,-0.810
1.969,-1.135,-0.780
1.972,-1.120,-0.740
1.975,-1.100,-0.700
1.978,-1.075,-0.660
1.981,-1.050,-0.625
1.983,-1.020,-0.590
1.986,-1.020,-0.580
1.989,-0.990,-0.560
1.992,-0.965,-0.550
1.994,-0.970,-0.555
1.997,-0.980,-0.560
2.000,-0.980,-0.570
2.003,-0.995,-0.580
2.006,-1.010,-0.585
2.008,-1.015,-0.570
2.011,-1.005,-0.555
2.014,-0.995,-0.540
2.017,-0.980,-0.535
2.019,-0.980,-0.530
2.022,-0.975,-0.530
2.025,-0.980,-0.530
2.028,-0.980,-0.545
2.031,-0.990,-0.545
2.033,-0.995,-0.550
2.036,-1.005,-0.545
2.039,-1.005,-0.545
2.042,-1.015,-0.540
2.044,-1.010,-0.555
2.047,-1.000,-0.525
2.050,-0.995,-0.530
2.053,-0.985,-0.515
2.056,-0.980,-0.510
2.058,-0.980,-0.515
2.061,-0.980,-0.515
2.064,-0.995,-0.530
2.067,-1.005,-0.535
2.069,-1.010,-0.545
2.072,-1.035,-0.550
2.075,-1.030,-0.550
2.078,-1.030,-0.550
2.081,-1.025,-0.545
2.083,-1.015,-0.525
2.086,-1.005,-0.525
2.089,-1.000,-0.520
2.092,-1.000,-0.510
2.094,-1.005,-0.535
2.097,-1.025,-0.545
2.100,-1.045,-0.550
2.103,-1.055,-0.560
2.106,-1.055,-0.570
2.108,-1.065,-0.570
2.111,-1.075,-0.565
2.114,-1.080,-0.565
2.117,-1.065,-0.560
2.119,-1.075,-0.560
2.122,-1.060,-0.565
2.125,-1.080,-0.575
2.128,-1.075,-0.595
2.131,-1.080,-0.590
2.133,-1.090,-0.600
2.136,-1.105,-0.615
2.139,-1.110,-0.620
2.142,-1.120,-0.625
2.144,-1.130,-0.635
2.147,-1.130,-0.625
2.150,-1.120,-0.645
2.153,-1.120,-0.640
2.156,-1.110,-0.655
2.158,-1.120,-0.660
2.161,-1.120,-0.680
2.164,-1.135,-0.680
2.167,-1.135,-0.700
2.169,-1.160,-0.700
2.172,-1.160,-0.715
2.175,-1.165,-0.730
2.178,-1.170,-0.730
2.181,-1.165,-0.725
2.183,-1.160,-0.750
2.186,-1.150,-0.750
2.189,-1.135,-0.755
2.192,-1.145,-0.760
2.194,-1.145,-0.780
2.197,-1.140,-0.775
2.200,-1.145,-0.785
2.203,-1.145,-0.795
2.206,-1.140,-0.805
2.208,-1.140,-0.795
2.211,-1.110,-0.795
2.214,-1.100,-0.805
2.217,-1.070,-0.800
2.219,-1.060,-0.790
2.222,-1.035,-0.780
2.225,-1.015,-0.790
2.228,-1.010,-0.795
2.231,-1.005,-0.800
2.233,-0.990,-0.800
2.236,-0.985,-0.810
2.239,-0.970,-0.815
2.242,-0.955,-0.810
2.244,-0.940,-0.800
2.247,-0.925,-0.780
2.250,-0.890,-0.770
2.253,-0.875,-0.750
2.256,-0.860,-0.745
2.258,-0.845,-0.750
2.261,-0.825,-0.760
2.264,-0.820,-0.760
2.267,-0.815,-0.775
2.269,-0.800,-0.775
2.272,-0.810,-0.770
2.275,-0.805,-0.765
2.278,-0.800,-0.755
2.281,-0.795,-0.740
2.283,-0.770,-0.740
2.286,-0.775,-0.740
2.289,-0.765,-0.740
2.292,-0.770,-0.755
2.294,-0.770,-0.745
2.297,-0.790,-0.760
2.300,-0.795,-0.760
2.303,-0.815,-0.760
2.306,-0.830,-0.775
2.308,-0.830,-0.770
2.311,-0.850,-0.760
2.314,-0.870,-0.765
2.317,-0.875,-0.760
2.319,-0.870,-0.760
2.322,-0.870,-0.765
2.325,-0.885,-0.780
2.328,-0.900,-0.775
2.331,-0.910,-0.800
2.333,-0.930,-0.815
2.336,-0.930,-0.815
2.339,-0.970,-0.805
2.342,-0.985,-0.820
2.344,-0.960,-0.800
2.347,-0.975,-0.800
2.350,-0.970,-0.800
2.353,-0.965,-0.785
2.356,-0.970,-0.790
2.358,-0.965,-0.805
2.361,-0.975,-0.800
2.364,-0.975,-0.800
2.367,-0.995,-0.805
2.369,-1.000,-0.810
2.372,-1.000,-0.805
2.375,-1.005,-0.810
2.378,-1.005,-0.785
2.381,-1.000,-0.785
2.383,-0.995,-0.780
2.386,-0.975,-0.780
2.389,-0.980,-0.770
2.392,-0.975,-0.760
2.394,-0.980,-0.765
2.397,-0.970,-0.770
2.400,-0.985,-0.775
2.403,-0.985,-0.775
2.406,-0.980,-0.775
2.408,-0.980,-0.775
2.411,-0.970,-0.760
2.414,-0.955,-0.755
2.417,-0.945,-0.745
2.419,-0.930,-0.740
2.422,-0.920,-0.735
2.425,-0.915,-0.730
2.428,-0.925,-0.735
2.431,-0.925,-0.740
2.433,-0.930,-0.730
2.436,-0.920,-0.755
2.439,-0.935,-0.745
2.442,-0.940,-0.755
2.444,-0.930,-0.745
2.447,-0.925,-0.745
2.450,-0.910,-0.735
2.453,-0.905,-0.735
2.456,-0.900,-0.720
2.458,-0.900,-0.715
2.461,-0.905,-0.730
2.464,-0.905,-0.740
2.467,-0.910,-0.735
2.469,-0.905,-0.740
2.472,-0.910,-0.740
2.475,-0.915,-0.750
2.478,-0.920,-0.740
2.481,-0.900,-0.730
2.483,-0.885,-0.720
2.486,-0.880,-0.695
2.489,-0.870,-0.690
2.492,-0.875,-0.690
2.494,-0.870,-0.690
2.497,-0.880,-0.700
2.500,-0.890,-0.725
2.503,-0.900,-0.730
2.506,-0.910,-0.740
2.508,-0.900,-0.735
2.511,-0.895,-0.735
2.514,-0.880,-0.725
2.517,-0.880,-0.720
2.519,-0.875,-0.710
2.522,-0.870,-0.700
2.525,-0.865,-0.705
2.528,-0.870,-0.710
2.531,-0.870,-0.725
2.533,-0.870,-0.715
2.536,-0.880,-0.735
2.539,-0.885,-0.735
2.542,-0.880,-0.735
2.544,-0.880,-0.730
2.547,-0.880,-0.730
2.550,-0.870,-0.725
2.553,-0.860,-0.710
2.556,-0.855,-0.710
2.558,-0.855,-0.695
2.561,-0.855,-0.715
2.564,-0.850,-0.715
2.567,-0.865,-0.725
2.569,-0.870,-0.740
2.572,-0.875,-0.735
2.575,-0.870,-0.735
2.578,-0.865,-0.725
2.581,-0.865,-0.700
2.583,-0.860,-0.700
2.586,-0.855,-0.685
2.589,-0.840,-0.690
2.592,-0.840,-0.695
2.594,-0.840,-0.700
2.597,-0.845,-0.710
2.600,-0.850,-0.725
2.603,-0.865,-0.705
2.606,-0.860,-0.720
2.608,-0.870,-0.720
2.611,-0.870,-0.715
2.614,-0.855,-0.705
2.617,-0.855,-0.690
2.619,-0.860,-0.690
2.622,-0.845,-0.695
2.625,-0.840,-0.685
2.628,-0.845,-0.705
2.631,-0.835,-0.695
2.633,-0.850,-0.700
2.636,-0.855,-0.710
2.639,-0.870,-0.715
2.642,-0.875,-0.720
2.644,-0.875,-0.710
2.647,-0.860,-0.715
2.650,-0.865,-0.700
2.653,-0.850,-0.705
2.656,-0.840,-0.685
2.658,-0.840,-0.690
2.661,-0.840,-0.695
2.664,-0.850,-0.695
2.667,-0.840,-0.710
2.669,-0.860,-0.700
2.672,-0.865,-0.715
2.675,-0.865,-0.705
2.678,-0.865,-0.705
2.681,-0.850,-0.695
2.683,-0.845,-0.685
2.686,-0.840,-0.675
2.689,-0.825,-0.680
2.692,-0.820,-0.675
2.694,-0.820,-0.695
2.697,-0.825,-0.700
2.700,-0.840,-0.700
2.703,-0.850,-0.705
2.706,-0.845,-0.710
2.708,-0.855,-0.715
2.711,-0.865,-0.705
2.714,-0.865,-0.700
2.717,-0.840,-0.690
2.719,-0.840,-0.695
2.722,-0.825,-0.675
2.725,-0.820,-0.680
2.728,-0.825,-0.690
2.731,-0.830,-0.680
2.733,-0.830,-0.695
2.736,-0.835,-0.695
2.739,-0.840,-0.700
2.742,-0.845,-0.700
2.744,-0.845,-0.705
2.747,-0.850,-0.705
2.750,-0.835,-0.690
2.753,-0.840,-0.695
2.756,-0.835,-0.665
2.758,-0.835,-0.680
2.761,-0.820,-0.685
2.764,-0.825,-0.680
2.767,-0.835,-0.695
2.769,-0.835,-0.695
2.772,-0.855,-0.700
2.775,-0.845,-0.695
2.778,-0.845,-0.675
2.781,-0.840,-0.665
2.783,-0.825,-0.680
2.786,-0.820,-0.665
2.789,-0.825,-0.660
2.792,-0.815,-0.670
2.794,-0.825,-0.680
2.797,-0.825,-0.690
2.800,-0.835,-0.720
2.803,-0.840,-0.715
2.806,-0.835,-0.710
2.808,-0.835,-0.710
2.811,-0.835,-0.695
2.814,-0.840,-0.685
2.817,-0.835,-0.675
2.819,-0.830,-0.670
2.822,-0.815,-0.665
2.825,-0.810,-0.685
2.828,-0.805,-0.690
2.831,-0.815,-0.705
2.833,-0.830,-0.720
2.836,-0.840,-0.720
2.839,-0.830,-0.715
2.842,-0.830,-0.710
2.844,-0.830,-0.690
2.847,-0.820,-0.685
2.850,-0.820,-0.685
2.853,-0.805,-0.670
2.856,-0.800,-0.685
2.858,-0.810,-0.700
2.861,-0.815,-0.700
2.864,-0.810,-0.700
2.867,-0.830,-0.710
2.869,-0.825,-0.705
2.872,-0.840,-0.710
2.875,-0.840,-0.700
2.878,-0.835,-0.690
2.881,-0.825,-0.680
2.883,-0.810,-0.665
2.886,-0.795,-0.660
2.889,-0.790,-0.660
2.892,-0.785,-0.665
2.894,-0.800,-0.680
2.897,-0.805,-0.705
2.900,-0.815,-0.695
2.903,-0.820,-0.700
2.906,-0.815,-0.700
2.908,-0.815,-0.705
2.911,-0.830,-0.700
2.914,-0.810,-0.680
2.917,-0.790,-0.665
2.919,-0.755,-0.655
2.922,-0.740,-0.670
2.925,-0.730,-0.675
2.928,-0.730,-0.675
2.931,-0.735,-0.685
2.933,-0.735,-0.695
2.936,-0.750,-0.700
2.939,-0.750,-0.680
2.942,-0.750,-0.670
2.944,-0.770,-0.670
2.947,-0.780,-0.660
2.950,-0.780,-0.650
2.953,-0.770,-0.650
2.956,-0.765,-0.650
2.958,-0.770,-0.650
2.961,-0.770,-0.665
2.964,-0.765,-0.660
2.967,-0.775,-0.660
2.969,-0.775,-0.645
2.972,-0.765,-0.635
2.975,-0.750,-0.630
2.978,-0.750,-0.625
2.981,-0.735,-0.625
2.983,-0.735,-0.630
2.986,-0.735,-0.635
2.989,-0.750,-0.645
2.992,-0.765,-0.655
2.994,-0.775,-0.670
2.997,-0.800,-0.690
3.000,-0.825,-0.695
3.003,-0.835,-0.710
3.006,-0.845,-0.705
3.008,-0.840,-0.705
3.011,-0.835,-0.695
3.014,-0.830,-0.675
3.017,-0.825,-0.670
3.019,-0.810,-0.665
3.022,-0.805,-0.675
3.025,-0.820,-0.685
3.028,-0.825,-0.705
3.031,-0.830,-0.720
3.033,-0.845,-0.765
3.036,-0.860,-0.780
3.039,-0.870,-0.760
3.042,-0.835,-0.690
3.044,-0.755,-0.565
3.047,-0.660,-0.430
3.050,-0.550,-0.310
3.053,-0.460,-0.255
3.056,-0.390,-0.265
3.058,-0.375,-0.360
3.061,-0.410,-0.550
3.064,-0.515,-0.850
3.067,-0.685,-1.170
3.069,-0.840,-1.425
3.072,-0.925,-1.560
3.075,-0.915,-1.540
3.078,-0.755,-1.395
3.081,-0.515,-1.170
3.083,-0.220,-0.945
3.086,0.060,-0.755
3.089,0.335,-0.625
3.092,0.570,-0.570
3.094,0.780,-0.555
3.097,0.955,-0.545
3.100,1.090,-0.550
3.103,1.160,-0.575
3.106,1.185,-0.615
3.108,1.160,-0.655
3.111,1.105,-0.680
3.114,1.020,-0.685
3.117,0.910,-0.670
3.119,0.740,-0.665
3.122,0.555,-0.645
3.125,0.340,-0.630
3.128,0.145,-0.620
3.131,-0.065,-0.605
3.133,-0.295,-0.615
3.136,-0.515,-0.640
3.139,-0.695,-0.675
3.142,-0.875,-0.700
3.144,-0.965,-0.725
3.147,-1.025,-0.730
3.150,-1.045,-0.715
3.153,-1.035,-0.680
3.156,-1.025,-0.660
3.158,-1.000,-0.625
3.161,-0.975,-0.615
3.164,-0.970,-0.600
3.167,-0.965,-0.580
3.169,-0.950,-0.575
3.172,-0.935,-0.550
3.175,-0.925,-0.535
3.178,-0.930,-0.525
3.181,-0.920,-0.505
3.183,-0.915,-0.500
3.186,-0.910,-0.500
3.189,-0.920,-0.500
3.192,-0.915,-0.505
3.194,-0.920,-0.510
3.197,-0.925,-0.515
3.200,-0.935,-0.510
3.203,-0.940,-0.520
3.206,-0.940,-0.510
3.208,-0.945,-0.500
3.211,-0.940,-0.500
3.214,-0.935,-0.480
3.217,-0.935,-0.470
3.219,-0.925,-0.475
3.222,-0.915,-0.485
3.225,-0.925,-0.490
3.228,-0.940,-0.490
3.231,-0.930,-0.505
3.233,-0.930,-0.520
3.236,-0.940,-0.545
3.239,-0.940,-0.530
3.242,-0.950,-0.530
3.244,-0.945,-0.505
3.247,-0.945,-0.490
3.250,-0.955,-0.470
3.253,-0.940,-0.475
3.256,-0.945,-0.480
3.258,-0.945,-0.490
3.261,-0.940,-0.500
3.264,-0.960,-0.525
3.267,-0.955,-0.520
3.269,-0.970,-0.525
3.272,-0.975,-0.530
3.275,-0.985,-0.520
3.278,-0.980,-0.500
3.281,-0.970,-0.515
3.283,-0.975,-0.510
3.286,-0.970,-0.500
3.289,-0.965,-0.510
3.292,-0.970,-0.515
3.294,-0.995,-0.520
3.297,-1.000,-0.525
3.300,-1.005,-0.545
3.303,-1.010,-0.545
3.306,-1.015,-0.550
3.308,-1.020,-0.540
3.311,-1.020,-0.535
3.314,-1.020,-0.530
3.317,-1.015,-0.545
3.319,-1.025,-0.540
3.322,-1.025,-0.545
3.325,-1.035,-0.555
3.328,-1.040,-0.570
3.331,-1.020,-0.585
3.333,-1.050,-0.605
3.336,-1.055,-0.605
3.339,-1.060,-0.615
3.342,-1.075,-0.630
3.344,-1.075,-0.615
3.347,-1.070,-0.620
3.350,-1.070,-0.625
3.353,-1.060,-0.620
3.356,-1.065,-0.645
3.358,-1.065,-0.655
3.361,-1.075,-0.675
3.364,-1.090,-0.685
3.367,-1.105,-0.710
3.369,-1.125,-0.730
3.372,-1.120,-0.720
3.375,-1.125,-0.725
3.378,-1.125,-0.735
3.381,-1.120,-0.720
3.383,-1.115,-0.740
3.386,-1.110,-0.735
3.389,-1.110,-0.740
3.392,-1.110,-0.765
3.394,-1.125,-0.795
3.397,-1.130,-0.805
3.400,-1.125,-0.825
3.403,-1.115,-0.830
3.406,-1.115,-0.835
3.408,-1.110,-0.835
3.411,-1.090,-0.835
3.414,-1.080,-0.830
3.417,-1.055,-0.840
3.419,-1.050,-0.830
3.422,-1.035,-0.835
3.425,-1.030,-0.845
3.428,-1.010,-0.850
3.431,-1.000,-0.845
3.433,-0.985,-0.855
3.436,-0.980,-0.850
3.439,-0.965,-0.845
3.442,-0.950,-0.850
3.444,-0.935,-0.835
3.447,-0.910,-0.830
3.450,-0.885,-0.815
3.453,-0.865,-0.800
3.456,-0.845,-0.805
3.458,-0.830,-0.815
3.461,-0.815,-0.820
3.464,-0.800,-0.815
3.467,-0.800,-0.815
3.469,-0.785,-0.815
3.472,-0.785,-0.820
3.475,-0.785,-0.800
3.478,-0.765,-0.790
3.481,-0.750,-0.780
3.483,-0.735,-0.760
3.486,-0.725,-0.740
3.489,-0.720,-0.745
3.492,-0.720,-0.750
3.494,-0.720,-0.770
3.497,-0.740,-0.755
3.500,-0.755,-0.765
3.503,-0.750,-0.765
3.506,-0.750,-0.755
3.508,-0.745,-0.735
3.511,-0.750,-0.725
3.514,-0.765,-0.735
3.517,-0.755,-0.720
3.519,-0.760,-0.720
3.522,-0.765,-0.715
3.525,-0.775,-0.725
3.528,-0.785,-0.735
3.531,-0.810,-0.740
3.533,-0.820,-0.745
3.536,-0.830,-0.735
3.539,-0.835,-0.740
3.542,-0.840,-0.740
3.544,-0.855,-0.720
3.547,-0.845,-0.735
3.550,-0.850,-0.730
3.553,-0.850,-0.715
3.556,-0.845,-0.720
3.558,-0.855,-0.715
3.561,-0.850,-0.735
3.564,-0.860,-0.740
3.567,-0.875,-0.740
3.569,-0.870,-0.745
3.572,-0.875,-0.745
3.575,-0.875,-0.725
3.578,-0.880,-0.710
3.581,-0.875,-0.710
3.583,-0.860,-0.705
3.586,-0.855,-0.715
3.589,-0.850,-0.705
3.592,-0.840,-0.710
3.594,-0.845,-0.715
3.597,-0.850,-0.715
3.600,-0.850,-0.725
3.603,-0.855,-0.715
3.606,-0.850,-0.720
3.608,-0.855,-0.695
3.611,-0.845,-0.695
3.614,-0.835,-0.695
3.617,-0.830,-0.690
3.619,-0.830,-0.675
3.622,-0.810,-0.685
3.625,-0.805,-0.690
3.628,-0.815,-0.695
3.631,-0.835,-0.700
3.633,-0.845,-0.685
3.636,-0.835,-0.690
3.639,-0.840,-0.700
3.642,-0.830,-0.700
3.644,-0.810,-0.690
3.647,-0.810,-0.680
3.650,-0.805,-0.680
3.653,-0.780,-0.665
3.656,-0.790,-0.670
3.658,-0.780,-0.670
3.661,-0.795,-0.690
3.664,-0.795,-0.685
3.667,-0.785,-0.700
3.669,-0.795,-0.700
3.672,-0.810,-0.715
3.675,-0.800,-0.705
3.678,-0.790,-0.690
3.681,-0.795,-0.680
3.683,-0.795,-0.665
3.686,-0.775,-0.660
3.689,-0.765,-0.675
3.692,-0.765,-0.680
3.694,-0.760,-0.685
3.697,-0.765,-0.700
3.700,-0.760,-0.705
3.703,-0.770,-0.705
3.706,-0.780,-0.700
3.708,-0.775,-0.710
3.711,-0.760,-0.685
3.714,-0.765,-0.685
3.717,-0.755,-0.670
3.719,-0.755,-0.670
3.722,-0.740,-0.685
3.725,-0.745,-0.690
3.728,-0.745,-0.700
3.731,-0.750,-0.695
3.733,-0.760,-0.705
3.736,-0.765,-0.710
3.739,-0.770,-0.715
3.742,-0.755,-0.715
3.744,-0.755,-0.700
3.747,-0.750,-0.700
3.750,-0.745,-0.685
3.753,-0.740,-0.685
3.756,-0.745,-0.695
3.758,-0.750,-0.700
3.761,-0.745,-0.705
3.764,-0.750,-0.715
3.767,-0.740,-0.700
3.769,-0.735,-0.715
3.772,-0.745,-0.710
3.775,-0.750,-0.700
3.778,-0.755,-0.695
3.781,-0.745,-0.695
3.783,-0.730,-0.680
3.786,-0.730,-0.685
3.789,-0.720,-0.695
3.792,-0.725,-0.690
3.794,-0.715,-0.700
3.797,-0.725,-0.705
3.800,-0.730,-0.705
3.803,-0.735,-0.705
3.806,-0.730,-0.710
3.808,-0.730,-0.695
3.811,-0.735,-0.680
3.814,-0.715,-0.675
3.817,-0.705,-0.670
3.819,-0.705,-0.675
3.822,-0.695,-0.675
3.825,-0.695,-0.690
3.828,-0.690,-0.700
3.831,-0.700,-0.700
3.833,-0.705,-0.710
3.836,-0.705,-0.720
3.839,-0.710,-0.710
3.842,-0.720,-0.710
3.844,-0.720,-0.715
3.847,-0.720,-0.710
3.850,-0.690,-0.710
3.853,-0.680,-0.700
3.856,-0.685,-0.700
3.858,-0.685,-0.700
3.861,-0.685,-0.700
3.864,-0.690,-0.710
3.867,-0.690,-0.710
3.869,-0.695,-0.720
3.872,-0.705,-0.725
3.875,-0.700,-0.730
3.878,-0.695,-0.720
3.881,-0.680,-0.705
3.883,-0.670,-0.705
3.886,-0.660,-0.705
3.889,-0.670,-0.695
3.892,-0.655,-0.715
3.894,-0.655,-0.710
3.897,-0.680,-0.705
3.900,-0.675,-0.725
3.903,-0.685,-0.735
3.906,-0.680,-0.740
3.908,-0.690,-0.740
3.911,-0.680,-0.730
3.914,-0.680,-0.715
3.917,-0.670,-0.715
3.919,-0.655,-0.700
3.922,-0.660,-0.715
3.925,-0.670,-0.705
3.928,-0.665,-0.720
3.931,-0.675,-0.730
3.933,-0.680,-0.730
3.936,-0.680,-0.725
3.939,-0.670,-0.740
3.942,-0.665,-0.730
3.944,-0.665,-0.730
3.947,-0.650,-0.720
3.950,-0.645,-0.725
3.953,-0.630,-0.715
3.956,-0.630,-0.730
3.958,-0.635,-0.725
3.961,-0.645,-0.730
3.964,-0.655,-0.745
3.967,-0.655,-0.755
3.969,-0.660,-0.755
3.972,-0.665,-0.755
3.975,-0.650,-0.760
3.978,-0.650,-0.740
3.981,-0.640,-0.730
3.983,-0.650,-0.720
3.986,-0.635,-0.720
3.989,-0.620,-0.725
3.992,-0.630,-0.725
3.994,-0.635,-0.740
3.997,-0.650,-0.745
4.000,-0.655,-0.740
4.003,-0.655,-0.750
4.006,-0.655,-0.755
4.008,-0.650,-0.750
4.011,-0.640,-0.740
4.014,-0.630,-0.750
4.017,-0.625,-0.740
4.019,-0.625,-0.730
4.022,-0.630,-0.730
4.025,-0.630,-0.745
4.028,-0.615,-0.750
4.031,-0.630,-0.750
4.033,-0.630,-0.760
4.036,-0.630,-0.755
4.039,-0.640,-0.765
4.042,-0.645,-0.760
4.044,-0.620,-0.750
4.047,-0.620,-0.750
4.050,-0.595,-0.745
4.053,-0.605,-0.735
4.056,-0.590,-0.740
4.058,-0.600,-0.740
4.061,-0.595,-0.750
4.064,-0.610,-0.760
4.067,-0.625,-0.765
4.069,-0.625,-0.770
4.072,-0.610,-0.765
4.075,-0.605,-0.755
4.078,-0.605,-0.765
4.081,-0.595,-0.755
4.083,-0.585,-0.750
4.086,-0.575,-0.745
4.089,-0.555,-0.750
4.092,-0.560,-0.765
4.094,-0.555,-0.765
4.097,-0.560,-0.765
4.100,-0.565,-0.765
4.103,-0.580,-0.770
4.106,-0.580,-0.765
4.108,-0.575,-0.770
4.111,-0.565,-0.755
4.114,-0.560,-0.740
4.117,-0.530,-0.745
4.119,-0.505,-0.730
4.122,-0.490,-0.730
4.125,-0.495,-0.750
4.128,-0.485,-0.755
4.131,-0.500,-0.755
4.133,-0.510,-0.760
4.136,-0.520,-0.775
4.139,-0.535,-0.765
4.142,-0.555,-0.755
4.144,-0.545,-0.750
4.147,-0.535,-0.765
4.150,-0.535,-0.745
4.153,-0.525,-0.735
4.156,-0.525,-0.720
4.158,-0.520,-0.735
4.161,-0.535,-0.740
4.164,-0.535,-0.730
4.167,-0.525,-0.735
4.169,-0.510,-0.730
4.172,-0.485,-0.725
4.175,-0.490,-0.715
4.178,-0.480,-0.725
4.181,-0.480,-0.715
4.183,-0.480,-0.720
4.186,-0.485,-0.715
4.189,-0.505,-0.735
4.192,-0.530,-0.755
4.194,-0.540,-0.770
4.197,-0.565,-0.790
4.200,-0.575,-0.800
4.203,-0.595,-0.805
4.206,-0.595,-0.810
4.208,-0.595,-0.800
4.211,-0.585,-0.775
4.214,-0.580,-0.780
4.217,-0.570,-0.770
4.219,-0.560,-0.765
4.222,-0.555,-0.770
4.225,-0.555,-0.790
4.228,-0.565,-0.815
4.231,-0.570,-0.835
4.233,-0.585,-0.860
4.236,-0.610,-0.885
4.239,-0.600,-0.875
4.242,-0.570,-0.815
4.244,-0.515,-0.700
4.247,-0.440,-0.595
4.250,-0.350,-0.480
4.253,-0.260,-0.410
4.256,-0.185,-0.410
4.258,-0.165,-0.475
4.261,-0.165,-0.595
4.264,-0.230,-0.830
4.267,-0.325,-1.110
4.269,-0.460,-1.355
4.272,-0.560,-1.525
4.275,-0.570,-1.535
4.278,-0.470,-1.415
4.281,-0.275,-1.195
4.283,-0.020,-0.970
4.286,0.260,-0.760
4.289,0.520,-0.595
4.292,0.760,-0.495
4.294,0.980,-0.435
4.297,1.170,-0.400
4.300,1.345,-0.390
4.303,1.475,-0.400
4.306,1.555,-0.420
4.308,1.600,-0.470
4.311,1.615,-0.550
4.314,1.550,-0.655
4.317,1.480,-0.710
4.319,1.375,-0.750
4.322,1.210,-0.805
4.325,0.995,-0.810
4.328,0.795,-0.795
4.331,0.595,-0.790
4.333,0.400,-0.775
4.336,0.210,-0.755
4.339,0.000,-0.750
4.342,-0.190,-0.755
4.344,-0.380,-0.790
4.347,-0.550,-0.845
4.350,-0.675,-0.880
4.353,-0.760,-0.890
4.356,-0.800,-0.900
4.358,-0.810,-0.870
4.361,-0.815,-0.840
4.364,-0.800,-0.810
4.367,-0.780,-0.800
4.369,-0.765,-0.780
4.372,-0.755,-0.770
4.375,-0.740,-0.750
4.378,-0.720,-0.720
4.381,-0.705,-0.680
4.383,-0.675,-0.670
4.386,-0.670,-0.655
4.389,-0.655,-0.650
4.392,-0.660,-0.665
4.394,-0.665,-0.660
4.397,-0.670,-0.665
4.400,-0.680,-0.665
4.403,-0.695,-0.660
4.406,-0.705,-0.660
4.408,-0.705,-0.660
4.411,-0.705,-0.655
4.414,-0.695,-0.645
4.417,-0.670,-0.650
4.419,-0.665,-0.625
4.422,-0.660,-0.640
4.425,-0.665,-0.640
4.428,-0.680,-0.650
4.431,-0.690,-0.655
4.433,-0.685,-0.665
4.436,-0.695,-0.670
4.439,-0.700,-0.660
4.442,-0.700,-0.670
4.444,-0.700,-0.655
4.447,-0.695,-0.665
4.450,-0.690,-0.655
4.453,-0.690,-0.650
4.456,-0.675,-0.650
4.458,-0.680,-0.650
4.461,-0.690,-0.650
4.464,-0.690,-0.660
4.467,-0.700,-0.665
4.469,-0.705,-0.675
4.472,-0.715,-0.670
4.475,-0.710,-0.665
4.478,-0.715,-0.660
4.481,-0.700,-0.655
4.483,-0.695,-0.640
4.486,-0.700,-0.635
4.489,-0.690,-0.630
4.492,-0.690,-0.650
4.494,-0.705,-0.655
4.497,-0.710,-0.665
4.500,-0.720,-0.670
4.503,-0.730,-0.695
4.506,-0.745,-0.680
4.508,-0.745,-0.680
4.511,-0.745,-0.685
4.514,-0.730,-0.675
4.517,-0.740,-0.665
4.519,-0.745,-0.660
4.522,-0.720,-0.660
4.525,-0.725,-0.675
4.528,-0.750,-0.690
4.531,-0.750,-0.695
4.533,-0.755,-0.705
4.536,-0.765,-0.710
4.539,-0.770,-0.705
4.542,-0.770,-0.710
4.544,-0.780,-0.710
4.547,-0.775,-0.705
4.550,-0.785,-0.705
4.553,-0.775,-0.705
4.556,-0.775,-0.730
4.558,-0.780,-0.730
4.561,-0.795,-0.740
4.564,-0.805,-0.770
4.567,-0.820,-0.770
4.569,-0.825,-0.790
4.572,-0.820,-0.805
4.575,-0.825,-0.795
4.578,-0.835,-0.800
4.581,-0.825,-0.795
4.583,-0.815,-0.795
4.586,-0.820,-0.795
4.589,-0.815,-0.795
4.592,-0.825,-0.810
4.594,-0.840,-0.825
4.597,-0.830,-0.840
4.600,-0.835,-0.860
4.603,-0.845,-0.870
4.606,-0.840,-0.885
4.608,-0.840,-0.850
4.611,-0.830,-0.870
4.614,-0.830,-0.865
4.617,-0.815,-0.865
4.619,-0.800,-0.845
4.622,-0.790,-0.860
4.625,-0.790,-0.880
4.628,-0.780,-0.875
4.631,-0.785,-0.890
4.633,-0.780,-0.910
4.636,-0.775,-0.900
4.639,-0.765,-0.890
4.642,-0.745,-0.880
4.644,-0.725,-0.870
4.647,-0.705,-0.880
4.650,-0.675,-0.860
4.653,-0.660,-0.865
4.656,-0.650,-0.855
4.658,-0.640,-0.865
4.661,-0.620,-0.870
4.664,-0.595,-0.870
4.667,-0.585,-0.880
4.669,-0.580,-0.885
4.672,-0.580,-0.875
4.675,-0.555,-0.855
4.678,-0.540,-0.845
4.681,-0.535,-0.845
4.683,-0.520,-0.840
4.686,-0.490,-0.835
4.689,-0.470,-0.820
4.692,-0.465,-0.830
4.694,-0.455,-0.840
4.697,-0.455,-0.835
4.700,-0.460,-0.850
4.703,-0.475,-0.850
4.706,-0.455,-0.845
4.708,-0.465,-0.835
4.711,-0.455,-0.830
4.714,-0.450,-0.840
4.717,-0.445,-0.830
4.719,-0.450,-0.835
4.722,-0.450,-0.840
4.725,-0.450,-0.840
4.728,-0.455,-0.850
4.731,-0.480,-0.865
4.733,-0.505,-0.870
4.736,-0.510,-0.870
4.739,-0.520,-0.865
4.742,-0.535,-0.860
4.744,-0.545,-0.845
4.747,-0.550,-0.855
4.750,-0.555,-0.860
4.753,-0.555,-0.850
4.756,-0.565,-0.860
4.758,-0.580,-0.860
4.761,-0.585,-0.855
4.764,-0.615,-0.875
4.767,-0.620,-0.885
4.769,-0.645,-0.885
4.772,-0.655,-0.895
4.775,-0.655,-0.875
4.778,-0.665,-0.875
4.781,-0.660,-0.860
4.783,-0.655,-0.845
4.786,-0.645,-0.845
4.789,-0.650,-0.850
4.792,-0.655,-0.855
4.794,-0.665,-0.860
4.797,-0.675,-0.860
4.800,-0.680,-0.880
4.803,-0.690,-0.880
4.806,-0.695,-0.875
4.808,-0.690,-0.875
4.811,-0.680,-0.860
4.814,-0.675,-0.850
4.817,-0.665,-0.840
4.819,-0.650,-0.840
4.822,-0.635,-0.830
4.825,-0.650,-0.830
4.828,-0.640,-0.835
4.831,-0.650,-0.830
4.833,-0.650,-0.825
4.836,-0.655,-0.835
4.839,-0.650,-0.835
4.842,-0.645,-0.820
4.844,-0.650,-0.815
4.847,-0.635,-0.800
4.850,-0.615,-0.785
4.853,-0.620,-0.775
4.856,-0.605,-0.770
4.858,-0.620,-0.775
4.861,-0.615,-0.790
4.864,-0.625,-0.810
4.867,-0.610,-0.805
4.869,-0.620,-0.805
4.872,-0.620,-0.790
4.875,-0.625,-0.775
4.878,-0.630,-0.770
4.881,-0.615,-0.750
4.883,-0.595,-0.745
4.886,-0.595,-0.750
4.889,-0.575,-0.740
4.892,-0.590,-0.755
4.894,-0.580,-0.755
4.897,-0.580,-0.770
4.900,-0.590,-0.770
4.903,-0.595,-0.775
4.906,-0.590,-0.770
4.908,-0.590,-0.755
4.911,-0.580,-0.750
4.914,-0.570,-0.730
4.917,-0.565,-0.735
4.919,-0.560,-0.720
4.922,-0.550,-0.730
4.925,-0.565,-0.730
4.928,-0.575,-0.750
4.931,-0.570,-0.750
4.933,-0.580,-0.755
4.936,-0.575,-0.760
4.939,-0.595,-0.755
4.942,-0.595,-0.745
4.944,-0.580,-0.735
4.947,-0.575,-0.745
4.950,-0.570,-0.740
4.953,-0.565,-0.725
4.956,-0.560,-0.735
4.958,-0.550,-0.730
4.961,-0.555,-0.720
4.964,-0.570,-0.740
4.967,-0.565,-0.735
4.969,-0.580,-0.740
4.972,-0.575,-0.735
4.975,-0.585,-0.735
4.978,-0.580,-0.730
4.981,-0.580,-0.730
4.983,-0.565,-0.710
4.986,-0.555,-0.710
4.989,-0.550,-0.705
4.992,-0.555,-0.710
4.994,-0.555,-0.705
4.997,-0.565,-0.715
5.000,-0.560,-0.725
5.003,-0.570,-0.725
5.006,-0.570,-0.730
5.008,-0.575,-0.735
5.011,-0.570,-0.725
5.014,-0.575,-0.710
5.017,-0.555,-0.700
5.019,-0.560,-0.685
5.022,-0.555,-0.685
5.025,-0.550,-0.690
5.028,-0.560,-0.690
5.031,-0.570,-0.705
5.033,-0.565,-0.705
5.036,-0.575,-0.710
5.039,-0.580,-0.700
5.042,-0.565,-0.700
5.044,-0.560,-0.690
5.047,-0.555,-0.685
5.050,-0.555,-0.680
5.053,-0.545,-0.665
5.056,-0.550,-0.665
5.058,-0.550,-0.685
5.061,-0.550,-0.690
5.064,-0.575,-0.700
5.067,-0.565,-0.710
5.069,-0.565,-0.715
5.072,-0.570,-0.710
5.075,-0.565,-0.705
5.078,-0.565,-0.690
5.081,-0.555,-0.690
5.083,-0.540,-0.680
5.086,-0.555,-0.675
5.089,-0.550,-0.680
5.092,-0.560,-0.680
5.094,-0.560,-0.680
5.097,-0.555,-0.690
5.100,-0.575,-0.705
5.103,-0.570,-0.690
5.106,-0.575,-0.695
5.108,-0.580,-0.685
5.111,-0.570,-0.665
5.114,-0.565,-0.650
5.117,-0.550,-0.660
5.119,-0.545,-0.650
5.122,-0.535,-0.660
5.125,-0.545,-0.660
5.128,-0.540,-0.680
5.131,-0.555,-0.690
5.133,-0.555,-0.695
5.136,-0.565,-0.690
5.139,-0.560,-0.680
5.142,-0.560,-0.680
5.144,-0.560,-0.675
5.147,-0.555,-0.655
5.150,-0.565,-0.670
5.153,-0.555,-0.645
5.156,-0.550,-0.660
5.158,-0.555,-0.655
5.161,-0.555,-0.675
5.164,-0.550,-0.680
5.167,-0.555,-0.680
5.169,-0.565,-0.675
5.172,-0.560,-0.670
5.175,-0.550,-0.675
5.178,-0.555,-0.665
5.181,-0.560,-0.680
5.183,-0.570,-0.665
5.186,-0.565,-0.665
5.189,-0.560,-0.645
5.192,-0.550,-0.655
5.194,-0.555,-0.640
5.197,-0.555,-0.670
5.200,-0.550,-0.675
5.203,-0.570,-0.665
5.206,-0.565,-0.670
5.208,-0.570,-0.675
5.211,-0.565,-0.675
5.214,-0.560,-0.665
5.217,-0.555,-0.660
5.219,-0.550,-0.645
5.222,-0.545,-0.635
5.225,-0.550,-0.635
5.228,-0.555,-0.645
5.231,-0.555,-0.645
5.233,-0.565,-0.655
5.236,-0.565,-0.655
5.239,-0.570,-0.655
5.242,-0.585,-0.660
5.244,-0.575,-0.645
5.247,-0.570,-0.645
5.250,-0.550,-0.650
5.253,-0.550,-0.625
5.256,-0.535,-0.625
5.258,-0.550,-0.635
5.261,-0.560,-0.645
5.264,-0.555,-0.645
5.267,-0.565,-0.660
5.269,-0.565,-0.660
5.272,-0.565,-0.650
5.275,-0.570,-0.645
5.278,-0.560,-0.650
5.281,-0.565,-0.630
5.283,-0.550,-0.620
5.286,-0.540,-0.620
5.289,-0.535,-0.615
5.292,-0.540,-0.625
5.294,-0.550,-0.635
5.297,-0.550,-0.635
5.300,-0.570,-0.635
5.303,-0.565,-0.640
5.306,-0.565,-0.640
5.308,-0.560,-0.620
5.311,-0.550,-0.620
5.314,-0.530,-0.620
5.317,-0.540,-0.620
5.319,-0.530,-0.610
5.322,-0.525,-0.620
5.325,-0.535,-0.640
5.328,-0.535,-0.620
5.331,-0.550,-0.645
5.333,-0.540,-0.640
5.336,-0.540,-0.625
5.339,-0.530,-0.620
5.342,-0.520,-0.620
5.344,-0.510,-0.615
5.347,-0.495,-0.605
5.350,-0.485,-0.590
5.353,-0.480,-0.570
5.356,-0.485,-0.580
5.358,-0.490,-0.580
5.361,-0.500,-0.590
5.364,-0.515,-0.595
5.367,-0.530,-0.605
5.369,-0.530,-0.605
5.372,-0.550,-0.600
5.375,-0.545,-0.585
5.378,-0.555,-0.580
5.381,-0.545,-0.565
5.383,-0.530,-0.560
5.386,-0.505,-0.535
5.389,-0.490,-0.535
5.392,-0.480,-0.545
5.394,-0.495,-0.540
5.397,-0.490,-0.550
5.400,-0.505,-0.570
5.403,-0.525,-0.570
5.406,-0.535,-0.570
5.408,-0.545,-0.570
5.411,-0.555,-0.580
5.414,-0.565,-0.575
5.417,-0.560,-0.580
5.419,-0.565,-0.590
5.422,-0.570,-0.590
5.425,-0.585,-0.600
5.428,-0.580,-0.600
5.431,-0.590,-0.615
5.433,-0.600,-0.610
5.436,-0.600,-0.625
5.439,-0.600,-0.625
5.442,-0.595,-0.620
5.444,-0.600,-0.615
5.447,-0.580,-0.620
5.450,-0.595,-0.625
5.453,-0.585,-0.635
5.456,-0.600,-0.640
5.458,-0.590,-0.610
5.461,-0.550,-0.510
5.464,-0.475,-0.385
5.467,-0.380,-0.275
5.469,-0.300,-0.190
5.472,-0.230,-0.180
5.475,-0.185,-0.250
5.478,-0.185,-0.405
5.481,-0.260,-0.695
5.483,-0.420,-1.005
5.486,-0.590,-1.280
5.489,-0.690,-1.435
5.492,-0.685,-1.435
5.494,-0.570,-1.300
5.497,-0.360,-1.095
5.500,-0.110,-0.890
5.503,0.150,-0.720
5.506,0.390,-0.585
5.508,0.615,-0.515
5.511,0.820,-0.480
5.514,1.000,-0.470
5.517,1.140,-0.460
5.519,1.240,-0.460
5.522,1.285,-0.495
5.525,1.275,-0.550
5.528,1.225,-0.585
5.531,1.155,-0.595
5.533,1.035,-0.590
5.536,0.880,-0.575
5.539,0.695,-0.565
5.542,0.490,-0.535
5.544,0.300,-0.510
5.547,0.110,-0.495
5.550,-0.090,-0.495
5.553,-0.295,-0.520
5.556,-0.475,-0.575
5.558,-0.635,-0.605
5.561,-0.745,-0.630
5.564,-0.805,-0.640
5.567,-0.840,-0.620
5.569,-0.840,-0.590
5.572,-0.825,-0.545
5.575,-0.795,-0.515
5.578,-0.765,-0.490
5.581,-0.745,-0.485
5.583,-0.715,-0.450
5.586,-0.685,-0.440
5.589,-0.685,-0.430
5.592,-0.675,-0.430
5.594,-0.685,-0.425
5.597,-0.690,-0.415
5.600,-0.715,-0.430
5.603,-0.720,-0.425
5.606,-0.720,-0.435
5.608,-0.730,-0.435
5.611,-0.730,-0.410
5.614,-0.730,-0.415
5.617,-0.710,-0.405
5.619,-0.700,-0.385
5.622,-0.690,-0.375
5.625,-0.700,-0.380
5.628,-0.695,-0.385
5.631,-0.705,-0.390
5.633,-0.705,-0.405
5.636,-0.710,-0.405
5.639,-0.710,-0.405
5.642,-0.710,-0.390
5.644,-0.720,-0.390
5.647,-0.725,-0.380
5.650,-0.715,-0.365
5.653,-0.715,-0.345
5.656,-0.705,-0.360
5.658,-0.715,-0.370
5.661,-0.715,-0.370
5.664,-0.720,-0.390
5.667,-0.735,-0.385
5.669,-0.740,-0.395
5.672,-0.750,-0.395
5.675,-0.740,-0.395
5.678,-0.760,-0.385
5.681,-0.765,-0.380
5.683,-0.740,-0.365
5.686,-0.740,-0.355
5.689,-0.735,-0.350
5.692,-0.740,-0.355
5.694,-0.755,-0.380
5.697,-0.765,-0.395
5.700,-0.770,-0.400
5.703,-0.785,-0.410
5.706,-0.785,-0.405
5.708,-0.790,-0.400
5.711,-0.785,-0.385
5.714,-0.795,-0.385
5.717,-0.785,-0.385
5.719,-0.795,-0.380
5.722,-0.800,-0.395
5.725,-0.790,-0.395
5.728,-0.810,-0.410
5.731,-0.810,-0.425
5.733,-0.820,-0.440
5.736,-0.825,-0.445
5.739,-0.840,-0.455
5.742,-0.860,-0.440
5.744,-0.840,-0.445
5.747,-0.845,-0.450
5.750,-0.845,-0.450
5.753,-0.845,-0.455
5.756,-0.845,-0.460
5.758,-0.855,-0.470
5.761,-0.865,-0.485
5.764,-0.875,-0.500
5.767,-0.885,-0.515
5.769,-0.900,-0.525
5.772,-0.925,-0.520
5.775,-0.930,-0.535
5.778,-0.925,-0.550
5.781,-0.915,-0.545
5.783,-0.915,-0.550
5.786,-0.905,-0.550
5.789,-0.910,-0.570
5.792,-0.915,-0.575
5.794,-0.925,-0.585
5.797,-0.940,-0.600
5.800,-0.955,-0.615
5.803,-0.945,-0.615
5.806,-0.960,-0.620
5.808,-0.950,-0.630
5.811,-0.945,-0.640
5.814,-0.935,-0.630
5.817,-0.935,-0.635
5.819,-0.920,-0.635
5.822,-0.895,-0.640
5.825,-0.900,-0.655
5.828,-0.890,-0.655
5.831,-0.890,-0.675
5.833,-0.885,-0.675
5.836,-0.885,-0.680
5.839,-0.865,-0.690
5.842,-0.840,-0.695
5.844,-0.825,-0.685
5.847,-0.800,-0.675
5.850,-0.790,-0.670
5.853,-0.770,-0.665
5.856,-0.740,-0.655
5.858,-0.730,-0.665
5.861,-0.720,-0.665
5.864,-0.705,-0.665
5.867,-0.700,-0.670
5.869,-0.690,-0.665
5.872,-0.670,-0.650
5.875,-0.660,-0.650
5.878,-0.650,-0.635
5.881,-0.625,-0.630
5.883,-0.605,-0.615
5.886,-0.590,-0.605
5.889,-0.580,-0.610
5.892,-0.565,-0.605
5.894,-0.555,-0.610
5.897,-0.560,-0.615
5.900,-0.565,-0.610
5.903,-0.555,-0.620
5.906,-0.565,-0.605
5.908,-0.565,-0.605
5.911,-0.570,-0.585
5.914,-0.565,-0.585
5.917,-0.590,-0.565
5.919,-0.575,-0.570
5.922,-0.570,-0.560
5.925,-0.570,-0.555
5.928,-0.585,-0.575
5.931,-0.605,-0.590
5.933,-0.620,-0.595
5.936,-0.645,-0.585
5.939,-0.650,-0.585
5.942,-0.655,-0.585
5.944,-0.660,-0.565
5.947,-0.665,-0.550
5.950,-0.660,-0.555
5.953,-0.675,-0.550
5.956,-0.680,-0.545
5.958,-0.700,-0.550
5.961,-0.695,-0.555
5.964,-0.725,-0.560
5.967,-0.720,-0.575
5.969,-0.720,-0.560
5.972,-0.740,-0.570
5.975,-0.745,-0.560
5.978,-0.745,-0.545
5.981,-0.730,-0.545
5.983,-0.730,-0.545
5.986,-0.720,-0.530
5.989,-0.715,-0.545
5.992,-0.730,-0.530
5.994,-0.740,-0.540
5.997,-0.740,-0.555
6.000,-0.760,-0.565
6.003,-0.765,-0.555
6.006,-0.760,-0.565
6.008,-0.755,-0.550
6.011,-0.765,-0.535
6.014,-0.760,-0.520
6.017,-0.740,-0.520
6.019,-0.735,-0.510
6.022,-0.725,-0.525
6.025,-0.725,-0.520
6.028,-0.725,-0.525
6.031,-0.725,-0.525
6.033,-0.730,-0.530
6.036,-0.740,-0.540
6.039,-0.735,-0.530
6.042,-0.735,-0.520
6.044,-0.745,-0.510
6.047,-0.725,-0.510
6.050,-0.720,-0.510
6.053,-0.725,-0.495
6.056,-0.705,-0.475
6.058,-0.700,-0.480
6.061,-0.710,-0.490
6.064,-0.715,-0.485
6.067,-0.715,-0.495
6.069,-0.715,-0.490
6.072,-0.735,-0.495
6.075,-0.730,-0.505
6.078,-0.725,-0.480
6.081,-0.715,-0.475
6.083,-0.700,-0.470
6.086,-0.690,-0.465
6.089,-0.695,-0.455
6.092,-0.705,-0.460
6.094,-0.705,-0.460
6.097,-0.710,-0.480
6.100,-0.705,-0.480
6.103,-0.705,-0.490
6.106,-0.715,-0.485
6.108,-0.705,-0.485
6.111,-0.700,-0.495
6.114,-0.705,-0.480
6.117,-0.690,-0.455
6.119,-0.680,-0.450
6.122,-0.670,-0.455
6.125,-0.680,-0.450
6.128,-0.680,-0.450
6.131,-0.690,-0.465
6.133,-0.685,-0.460
6.136,-0.700,-0.475
6.139,-0.700,-0.485
6.142,-0.700,-0.460
6.144,-0.710,-0.465
6.147,-0.700,-0.455
6.150,-0.685,-0.450
6.153,-0.690,-0.445
6.156,-0.675,-0.425
6.158,-0.675,-0.420
6.161,-0.685,-0.440
6.164,-0.685,-0.440
6.167,-0.685,-0.445
6.169,-0.705,-0.450
6.172,-0.710,-0.450
6.175,-0.710,-0.460
6.178,-0.710,-0.445
6.181,-0.705,-0.440
6.183,-0.700,-0.430
6.186,-0.705,-0.425
6.189,-0.690,-0.425
6.192,-0.675,-0.420
6.194,-0.680,-0.430
6.197,-0.685,-0.440
6.200,-0.695,-0.450
6.203,-0.705,-0.460
6.206,-0.710,-0.455
6.208,-0.705,-0.450
6.211,-0.705,-0.435
6.214,-0.695,-0.430
6.217,-0.700,-0.415
6.219,-0.680,-0.410
6.222,-0.675,-0.415
6.225,-0.690,-0.410
6.228,-0.700,-0.420
6.231,-0.685,-0.420
6.233,-0.700,-0.425
6.236,-0.690,-0.430
6.239,-0.695,-0.445
6.242,-0.710,-0.440
6.244,-0.710,-0.425
6.247,-0.690,-0.425
6.250,-0.695,-0.425
6.253,-0.685,-0.415
6.256,-0.670,-0.400
6.258,-0.675,-0.410
6.261,-0.685,-0.415
6.264,-0.685,-0.425
6.267,-0.685,-0.440
6.269,-0.700,-0.440
6.272,-0.705,-0.440
6.275,-0.715,-0.425
6.278,-0.710,-0.435
6.281,-0.705,-0.420
6.283,-0.695,-0.400
6.286,-0.695,-0.400
6.289,-0.695,-0.400
6.292,-0.690,-0.415
6.294,-0.690,-0.415
6.297,-0.690,-0.430
6.300,-0.695,-0.435
6.303,-0.700,-0.435
6.306,-0.715,-0.430
6.308,-0.715,-0.430
6.311,-0.715,-0.420
6.314,-0.715,-0.405
6.317,-0.715,-0.410
6.319,-0.700,-0.410
6.322,-0.675,-0.410
6.325,-0.685,-0.420
6.328,-0.690,-0.420
6.331,-0.695,-0.435
6.333,-0.715,-0.440
6.336,-0.720,-0.445
6.339,-0.725,-0.445
6.342,-0.720,-0.440
6.344,-0.710,-0.425
6.347,-0.715,-0.425
6.350,-0.710,-0.400
6.353,-0.705,-0.395
6.356,-0.710,-0.410
6.358,-0.705,-0.425
6.361,-0.705,-0.435
6.364,-0.710,-0.435
6.367,-0.705,-0.445
6.369,-0.705,-0.435
6.372,-0.710,-0.430
6.375,-0.705,-0.425
6.378,-0.700,-0.415
6.381,-0.695,-0.415
6.383,-0.685,-0.405
6.386,-0.685,-0.395
6.389,-0.675,-0.410
6.392,-0.675,-0.425
6.394,-0.685,-0.410
6.397,-0.695,-0.425
6.400,-0.700,-0.435
6.403,-0.700,-0.440
6.406,-0.720,-0.435
6.408,-0.705,-0.425
6.411,-0.700,-0.420
6.414,-0.695,-0.420
6.417,-0.680,-0.420
6.419,-0.680,-0.405
6.422,-0.675,-0.400
6.425,-0.675,-0.415
6.428,-0.695,-0.425
6.431,-0.695,-0.430
6.433,-0.705,-0.435
6.436,-0.720,-0.435
6.439,-0.720,-0.425
6.442,-0.715,-0.425
6.444,-0.725,-0.425
6.447,-0.700,-0.410
6.450,-0.705,-0.410
6.453,-0.695,-0.405
6.456,-0.690,-0.405
6.458,-0.705,-0.410
6.461,-0.700,-0.420
6.464,-0.705,-0.425
6.467,-0.695,-0.430
6.469,-0.705,-0.430
6.472,-0.720,-0.440
6.475,-0.715,-0.440
6.478,-0.720,-0.420
6.481,-0.710,-0.405
6.483,-0.700,-0.410
6.486,-0.695,-0.400
6.489,-0.685,-0.415
6.492,-0.690,-0.400
6.494,-0.700,-0.420
6.497,-0.700,-0.410
6.500,-0.710,-0.425
6.503,-0.730,-0.430
6.506,-0.735,-0.425
6.508,-0.730,-0.415
6.511,-0.715,-0.410
6.514,-0.710,-0.405
6.517,-0.710,-0.415
6.519,-0.705,-0.405
6.522,-0.690,-0.410
6.525,-0.690,-0.415
6.528,-0.705,-0.420
6.531,-0.710,-0.440
6.533,-0.715,-0.430
6.536,-0.720,-0.430
6.539,-0.725,-0.435
6.542,-0.725,-0.425
6.544,-0.720,-0.415
6.547,-0.715,-0.425
6.550,-0.710,-0.405
6.553,-0.710,-0.400
6.556,-0.710,-0.395
6.558,-0.700,-0.410
6.561,-0.705,-0.395
6.564,-0.705,-0.410
6.567,-0.700,-0.425
6.569,-0.700,-0.425
6.572,-0.705,-0.435
6.575,-0.705,-0.425
6.578,-0.695,-0.420
6.581,-0.695,-0.420
6.583,-0.695,-0.405
6.586,-0.690,-0.390
6.589,-0.690,-0.405
6.592,-0.685,-0.400
6.594,-0.685,-0.405
6.597,-0.665,-0.405
6.600,-0.670,-0.410
6.603,-0.675,-0.425
6.606,-0.655,-0.430
6.608,-0.660,-0.435
6.611,-0.655,-0.425
6.614,-0.655,-0.410
6.617,-0.650,-0.400
6.619,-0.655,-0.390
6.622,-0.650,-0.385
6.625,-0.665,-0.385
6.628,-0.670,-0.390
6.631,-0.690,-0.390
6.633,-0.685,-0.410
6.636,-0.700,-0.425
6.639,-0.705,-0.415
6.642,-0.710,-0.405
6.644,-0.695,-0.390
6.647,-0.675,-0.375
6.650,-0.660,-0.340
6.653,-0.640,-0.335
6.656,-0.625,-0.320
6.658,-0.625,-0.340
6.661,-0.625,-0.360
6.664,-0.640,-0.365
6.667,-0.660,-0.375
6.669,-0.685,-0.385
6.672,-0.700,-0.400
6.675,-0.720,-0.405
6.678,-0.740,-0.415
6.681,-0.740,-0.415
6.683,-0.740,-0.400
6.686,-0.745,-0.395
6.689,-0.730,-0.395
6.692,-0.730,-0.400
6.694,-0.730,-0.420
6.697,-0.745,-0.420
6.700,-0.750,-0.425
6.703,-0.755,-0.435
6.706,-0.760,-0.440
6.708,-0.765,-0.450
6.711,-0.765,-0.450
6.714,-0.770,-0.455
6.717,-0.775,-0.470
6.719,-0.765,-0.450
6.722,-0.730,-0.380
6.725,-0.675,-0.270
6.728,-0.595,-0.160
6.731,-0.495,-0.080
6.733,-0.435,-0.025
6.736,-0.380,-0.050
6.739,-0.360,-0.160
6.742,-0.390,-0.335
6.744,-0.480,-0.600
6.747,-0.615,-0.885
6.750,-0.725,-1.095
6.753,-0.790,-1.190
6.756,-0.740,-1.130
6.758,-0.600,-0.945
6.761,-0.370,-0.720
6.764,-0.105,-0.485
6.767,0.170,-0.295
6.769,0.445,-0.160
6.772,0.690,-0.075
6.775,0.920,-0.035
6.778,1.120,-0.005
6.781,1.300,-0.010
6.783,1.395,-0.035
6.786,1.445,-0.085
6.789,1.430,-0.185
6.792,1.350,-0.280
6.794,1.230,-0.350
6.797,1.030,-0.420
6.800,0.790,-0.450
6.803,0.535,-0.435
6.806,0.295,-0.425
6.808,0.065,-0.385
6.811,-0.150,-0.360
6.814,-0.390,-0.355
6.817,-0.615,-0.400
6.819,-0.790,-0.440
6.822,-0.920,-0.480
6.825,-1.005,-0.505
6.828,-1.045,-0.495
6.831,-1.055,-0.480
6.833,-1.040,-0.445
6.836,-1.020,-0.420
6.839,-1.005,-0.390
6.842,-0.990,-0.350
6.844,-0.965,-0.310
6.847,-0.940,-0.310
6.850,-0.915,-0.270
6.853,-0.900,-0.265
6.856,-0.900,-0.270
6.858,-0.900,-0.285
6.861,-0.905,-0.295
6.864,-0.915,-0.290
6.867,-0.910,-0.310
6.869,-0.920,-0.305
6.872,-0.925,-0.305
6.875,-0.920,-0.305
6.878,-0.925,-0.285
6.881,-0.930,-0.285
6.883,-0.905,-0.260
6.886,-0.910,-0.265
6.889,-0.895,-0.265
6.892,-0.900,-0.265
6.894,-0.905,-0.270
6.897,-0.910,-0.285
6.900,-0.915,-0.285
6.903,-0.930,-0.295
6.906,-0.920,-0.285
6.908,-0.940,-0.285
6.911,-0.925,-0.275
6.914,-0.930,-0.270
6.917,-0.930,-0.250
6.919,-0.930,-0.255
6.922,-0.910,-0.240
6.925,-0.920,-0.255
6.928,-0.920,-0.260
6.931,-0.925,-0.270
6.933,-0.950,-0.275
6.936,-0.940,-0.270
6.939,-0.945,-0.270
6.942,-0.950,-0.270
6.944,-0.945,-0.245
6.947,-0.945,-0.255
6.950,-0.950,-0.250
6.953,-0.950,-0.255
6.956,-0.930,-0.250
6.958,-0.935,-0.255
6.961,-0.945,-0.260
6.964,-0.955,-0.280
6.967,-0.965,-0.275
6.969,-0.975,-0.285
6.972,-0.980,-0.280
6.975,-1.005,-0.295
6.978,-1.000,-0.290
6.981,-1.000,-0.285
6.983,-0.975,-0.290
6.986,-0.970,-0.290
6.989,-0.975,-0.295
6.992,-0.975,-0.295
6.994,-0.990,-0.295
6.997,-1.000,-0.310
7.000,-1.015,-0.325
7.003,-1.025,-0.335
7.006,-1.030,-0.350
7.008,-1.045,-0.355
7.011,-1.040,-0.345
7.014,-1.040,-0.345
7.017,-1.030,-0.340
7.019,-1.030,-0.340
7.022,-1.030,-0.345
7.025,-1.030,-0.350
7.028,-1.050,-0.370
7.031,-1.055,-0.395
7.033,-1.070,-0.415
7.036,-1.080,-0.430
7.039,-1.090,-0.445
7.042,-1.095,-0.445
7.044,-1.100,-0.450
7.047,-1.090,-0.445
7.050,-1.095,-0.435
7.053,-1.085,-0.430
7.056,-1.075,-0.445
7.058,-1.085,-0.450
7.061,-1.095,-0.465
7.064,-1.100,-0.465
7.067,-1.090,-0.490
7.069,-1.105,-0.500
7.072,-1.100,-0.510
7.075,-1.100,-0.520
7.078,-1.090,-0.530
7.081,-1.090,-0.520
7.083,-1.065,-0.510
7.086,-1.050,-0.500
7.089,-1.040,-0.495
7.092,-1.025,-0.505
7.094,-1.015,-0.515
7.097,-1.005,-0.520
7.100,-1.000,-0.530
7.103,-0.995,-0.535
7.106,-0.990,-0.535
7.108,-0.975,-0.535
7.111,-0.960,-0.515
7.114,-0.945,-0.510
7.117,-0.920,-0.495
7.119,-0.895,-0.480
7.122,-0.875,-0.480
7.125,-0.860,-0.485
7.128,-0.845,-0.490
7.131,-0.835,-0.495
7.133,-0.830,-0.500
7.136,-0.825,-0.505
7.139,-0.810,-0.505
7.142,-0.805,-0.485
7.144,-0.795,-0.480
7.147,-0.775,-0.470
7.150,-0.780,-0.470
7.153,-0.770,-0.460
7.156,-0.750,-0.455
7.158,-0.745,-0.475
7.161,-0.740,-0.480
7.164,-0.745,-0.480
7.167,-0.750,-0.500
7.169,-0.745,-0.480
7.172,-0.745,-0.495
7.175,-0.750,-0.480
7.178,-0.755,-0.485
7.181,-0.750,-0.465
7.183,-0.750,-0.465
7.186,-0.745,-0.470
7.189,-0.755,-0.460
7.192,-0.770,-0.480
7.194,-0.775,-0.480
7.197,-0.785,-0.490
7.200,-0.800,-0.505
7.203,-0.825,-0.510
7.206,-0.835,-0.505
7.208,-0.850,-0.505
7.211,-0.865,-0.505
7.214,-0.870,-0.485
7.217,-0.875,-0.480
7.219,-0.880,-0.485
7.222,-0.880,-0.485
7.225,-0.895,-0.500
7.228,-0.900,-0.505
7.231,-0.910,-0.520
7.233,-0.915,-0.530
7.236,-0.935,-0.535
7.239,-0.935,-0.540
7.242,-0.955,-0.540
7.244,-0.970,-0.530
7.247,-0.955,-0.530
7.250,-0.950,-0.515
7.253,-0.955,-0.505
7.256,-0.940,-0.525
7.258,-0.945,-0.510
7.261,-0.950,-0.510
7.264,-0.965,-0.530
7.267,-0.980,-0.520
7.269,-0.975,-0.530
7.272,-0.980,-0.515
7.275,-0.980,-0.520
7.278,-0.975,-0.505
7.281,-0.975,-0.505
7.283,-0.950,-0.490
7.286,-0.935,-0.490
7.289,-0.935,-0.480
7.292,-0.940,-0.490
7.294,-0.940,-0.495
7.297,-0.930,-0.505
7.300,-0.940,-0.515
7.303,-0.945,-0.515
7.306,-0.955,-0.505
7.308,-0.945,-0.495
7.311,-0.935,-0.475
7.314,-0.935,-0.485
7.317,-0.920,-0.485
7.319,-0.915,-0.465
7.322,-0.900,-0.460
7.325,-0.895,-0.470
7.328,-0.910,-0.455
7.331,-0.925,-0.460
7.333,-0.925,-0.475
7.336,-0.910,-0.470
7.339,-0.915,-0.470
7.342,-0.905,-0.455
7.344,-0.895,-0.450
7.347,-0.900,-0.435
7.350,-0.890,-0.440
7.353,-0.880,-0.435
7.356,-0.875,-0.435
7.358,-0.875,-0.435
7.361,-0.875,-0.430
7.364,-0.885,-0.440
7.367,-0.880,-0.440
7.369,-0.885,-0.450
7.372,-0.895,-0.445
7.375,-0.890,-0.435
7.378,-0.880,-0.430
7.381,-0.880,-0.435
7.383,-0.865,-0.440
7.386,-0.860,-0.430
7.389,-0.855,-0.430
7.392,-0.865,-0.430
7.394,-0.865,-0.425
7.397,-0.875,-0.430
7.400,-0.870,-0.425
7.403,-0.880,-0.435
7.406,-0.885,-0.445
7.408,-0.880,-0.445
7.411,-0.875,-0.440
7.414,-0.870,-0.430
7.417,-0.855,-0.420
7.419,-0.865,-0.430
7.422,-0.860,-0.420
7.425,-0.855,-0.420
7.428,-0.855,-0.415
7.431,-0.850,-0.425
7.433,-0.865,-0.425
7.436,-0.875,-0.440
7.439,-0.875,-0.455
7.442,-0.880,-0.450
7.444,-0.870,-0.435
7.447,-0.875,-0.435
7.450,-0.870,-0.430
7.453,-0.865,-0.410
7.456,-0.840,-0.400
7.458,-0.840,-0.390
7.461,-0.845,-0.390
7.464,-0.855,-0.405
7.467,-0.865,-0.415
7.469,-0.880,-0.435
7.472,-0.875,-0.440
7.475,-0.885,-0.425
7.478,-0.875,-0.415
7.481,-0.860,-0.400
7.483,-0.860,-0.410
7.486,-0.855,-0.395
7.489,-0.840,-0.385
7.492,-0.835,-0.410
7.494,-0.835,-0.410
7.497,-0.845,-0.410
7.500,-0.860,-0.435
7.503,-0.880,-0.445
7.506,-0.880,-0.440
7.508,-0.880,-0.435
7.511,-0.865,-0.420
7.514,-0.855,-0.405
7.517,-0.845,-0.395
7.519,-0.835,-0.395
7.522,-0.830,-0.390
7.525,-0.820,-0.400
7.528,-0.835,-0.400
7.531,-0.850,-0.415
7.533,-0.845,-0.415
7.536,-0.850,-0.415
7.539,-0.865,-0.410
7.542,-0.865,-0.405
7.544,-0.860,-0.405
7.547,-0.860,-0.395
7.550,-0.855,-0.385
7.553,-0.840,-0.385
7.556,-0.840,-0.380
7.558,-0.845,-0.395
7.561,-0.845,-0.415
7.564,-0.855,-0.415
7.567,-0.865,-0.420
7.569,-0.870,-0.425
7.572,-0.870,-0.415
7.575,-0.885,-0.405
7.578,-0.870,-0.395
7.581,-0.865,-0.390
7.583,-0.845,-0.385
7.586,-0.830,-0.380
7.589,-0.825,-0.380
7.592,-0.825,-0.380
7.594,-0.835,-0.380
7.597,-0.835,-0.385
7.600,-0.850,-0.400
7.603,-0.855,-0.395
7.606,-0.850,-0.410
7.608,-0.850,-0.415
7.611,-0.855,-0.395
7.614,-0.850,-0.395
7.617,-0.835,-0.395
7.619,-0.835,-0.400
7.622,-0.840,-0.400
7.625,-0.835,-0.395
7.628,-0.830,-0.380
7.631,-0.825,-0.385
7.633,-0.835,-0.380
7.636,-0.845,-0.405
7.639,-0.850,-0.405
7.642,-0.865,-0.395
7.644,-0.860,-0.405
7.647,-0.850,-0.400
7.650,-0.835,-0.395
7.653,-0.845,-0.380
7.656,-0.825,-0.370
7.658,-0.825,-0.390
7.661,-0.820,-0.360
7.664,-0.825,-0.380
7.667,-0.840,-0.390
7.669,-0.845,-0.385
7.672,-0.860,-0.390
7.675,-0.855,-0.405
7.678,-0.855,-0.395
7.681,-0.855,-0.385
7.683,-0.845,-0.370
7.686,-0.845,-0.365
7.689,-0.830,-0.360
7.692,-0.825,-0.370
7.694,-0.830,-0.380
7.697,-0.835,-0.385
7.700,-0.835,-0.400
7.703,-0.850,-0.405
7.706,-0.855,-0.400
7.708,-0.860,-0.390
7.711,-0.855,-0.375
7.714,-0.845,-0.365
7.717,-0.830,-0.355
7.719,-0.830,-0.350
7.722,-0.820,-0.355
7.725,-0.830,-0.365
7.728,-0.830,-0.360
7.731,-0.825,-0.370
7.733,-0.830,-0.380
7.736,-0.845,-0.385
7.739,-0.850,-0.390
7.742,-0.860,-0.380
7.744,-0.865,-0.385
7.747,-0.845,-0.355
7.750,-0.845,-0.345
7.753,-0.825,-0.355
7.756,-0.805,-0.360
7.758,-0.815,-0.370
7.761,-0.820,-0.375
7.764,-0.825,-0.380
7.767,-0.830,-0.390
7.769,-0.830,-0.385
7.772,-0.840,-0.400
7.775,-0.840,-0.390
7.778,-0.835,-0.385
7.781,-0.830,-0.390
7.783,-0.825,-0.375
7.786,-0.820,-0.370
7.789,-0.800,-0.370
7.792,-0.795,-0.375
7.794,-0.800,-0.385
7.797,-0.805,-0.390
7.800,-0.820,-0.405
7.803,-0.825,-0.410
7.806,-0.835,-0.405
7.808,-0.840,-0.390
7.811,-0.835,-0.385
7.814,-0.825,-0.380
7.817,-0.810,-0.380
7.819,-0.795,-0.375
7.822,-0.765,-0.360
7.825,-0.760,-0.370
7.828,-0.755,-0.375
7.831,-0.765,-0.385
7.833,-0.770,-0.385
7.836,-0.775,-0.390
7.839,-0.795,-0.390
7.842,-0.810,-0.390
7.844,-0.820,-0.375
7.847,-0.810,-0.380
7.850,-0.800,-0.355
7.853,-0.790,-0.350
7.856,-0.780,-0.335
7.858,-0.795,-0.335
7.861,-0.800,-0.335
7.864,-0.780,-0.330
7.867,-0.775,-0.345
7.869,-0.785,-0.345
7.872,-0.775,-0.355
7.875,-0.775,-0.360
7.878,-0.780,-0.370
7.881,-0.790,-0.355
7.883,-0.795,-0.365
7.886,-0.815,-0.365
7.889,-0.830,-0.365
7.892,-0.845,-0.390
7.894,-0.855,-0.405
7.897,-0.870,-0.430
7.900,-0.870,-0.430
7.903,-0.875,-0.420
7.906,-0.880,-0.440
7.908,-0.890,-0.420
7.911,-0.895,-0.420
7.914,-0.885,-0.415
7.917,-0.875,-0.415
7.919,-0.865,-0.405
7.922,-0.860,-0.425
7.925,-0.875,-0.425
7.928,-0.875,-0.440
7.931,-0.885,-0.470
7.933,-0.900,-0.485
7.936,-0.910,-0.485
7.939,-0.890,-0.440
7.942,-0.850,-0.350
7.944,-0.780,-0.230
7.947,-0.680,-0.110
7.950,-0.580,-0.020
7.953,-0.500,0.035
7.956,-0.445,0.035
7.958,-0.420,-0.030
7.961,-0.435,-0.190
7.964,-0.505,-0.420
7.967,-0.640,-0.700
7.969,-0.795,-0.975
7.972,-0.955,-1.195
7.975,-1.040,-1.310
7.978,-1.040,-1.280
7.981,-0.910,-1.160
7.983,-0.720,-0.980
7.986,-0.470,-0.805
7.989,-0.215,-0.635
7.992,0.000,-0.520
7.994,0.190,-0.435
7.997,0.390,-0.395
8.000,0.565,-0.365
8.003,0.730,-0.355
8.006,0.855,-0.345
8.008,0.965,-0.355
8.011,1.015,-0.375
8.014,1.010,-0.410
8.017,0.970,-0.425
8.019,0.910,-0.420
8.022,0.810,-0.395
8.025,0.655,-0.385
8.028,0.470,-0.380
8.031,0.285,-0.370
8.033,0.085,-0.360
8.036,-0.100,-0.360
8.039,-0.295,-0.370
8.042,-0.515,-0.400
8.044,-0.730,-0.430
8.047,-0.885,-0.455
8.050,-0.990,-0.480
8.053,-1.070,-0.490
8.056,-1.100,-0.470
8.058,-1.105,-0.445
8.061,-1.095,-0.420
8.064,-1.075,-0.390
8.067,-1.050,-0.365
8.069,-1.030,-0.345
8.072,-1.025,-0.335
8.075,-1.015,-0.320
8.078,-1.010,-0.310
8.081,-1.005,-0.280
8.083,-0.990,-0.265
8.086,-0.975,-0.260
8.089,-0.970,-0.270
8.092,-0.960,-0.265
8.094,-0.975,-0.275
8.097,-0.985,-0.285
8.100,-1.005,-0.295
8.103,-1.005,-0.295
8.106,-1.010,-0.300
8.108,-1.000,-0.295
8.111,-1.000,-0.295
8.114,-1.000,-0.280
8.117,-0.990,-0.280
8.119,-0.985,-0.270
8.122,-0.980,-0.260
8.125,-0.985,-0.250
8.128,-0.980,-0.265
8.131,-0.990,-0.275
8.133,-1.000,-0.280
8.136,-1.005,-0.295
8.139,-1.010,-0.295
8.142,-1.010,-0.300
8.144,-1.020,-0.280
8.147,-1.025,-0.270
8.150,-1.000,-0.260
8.153,-1.020,-0.255
8.156,-1.010,-0.245
8.158,-0.990,-0.245
8.161,-1.000,-0.265
8.164,-1.005,-0.280
8.167,-1.025,-0.290
8.169,-1.020,-0.295
8.172,-1.040,-0.285
8.175,-1.060,-0.285
8.178,-1.035,-0.280
8.181,-1.045,-0.270
8.183,-1.045,-0.270
8.186,-1.045,-0.280
8.189,-1.030,-0.280
8.192,-1.035,-0.285
8.194,-1.030,-0.275
8.197,-1.025,-0.290
8.200,-1.045,-0.295
8.203,-1.050,-0.305
8.206,-1.070,-0.315
8.208,-1.070,-0.310
8.211,-1.075,-0.295
8.214,-1.080,-0.290
8.217,-1.070,-0.290
8.219,-1.080,-0.285
8.222,-1.070,-0.275
8.225,-1.080,-0.300
8.228,-1.080,-0.320
8.231,-1.090,-0.335
8.233,-1.100,-0.340
8.236,-1.110,-0.345
8.239,-1.125,-0.355
8.242,-1.130,-0.355
8.244,-1.135,-0.355
8.247,-1.125,-0.340
8.250,-1.140,-0.350
8.253,-1.150,-0.355
8.256,-1.145,-0.385
8.258,-1.140,-0.380
8.261,-1.145,-0.395
8.264,-1.155,-0.410
8.267,-1.165,-0.430
8.269,-1.170,-0.440
8.272,-1.185,-0.455
8.275,-1.190,-0.470
8.278,-1.190,-0.460
8.281,-1.200,-0.465
8.283,-1.195,-0.470
8.286,-1.190,-0.475
8.289,-1.195,-0.485
8.292,-1.200,-0.500
8.294,-1.200,-0.515
8.297,-1.200,-0.540
8.300,-1.210,-0.545
8.303,-1.225,-0.570
8.306,-1.220,-0.565
8.308,-1.225,-0.580
8.311,-1.225,-0.580
8.314,-1.215,-0.580
8.317,-1.205,-0.590
8.319,-1.190,-0.595
8.322,-1.185,-0.600
8.325,-1.170,-0.600
8.328,-1.175,-0.620
8.331,-1.170,-0.640
8.333,-1.165,-0.645
8.336,-1.165,-0.655
8.339,-1.155,-0.650
8.342,-1.140,-0.650
8.344,-1.125,-0.640
8.347,-1.110,-0.650
8.350,-1.095,-0.640
8.353,-1.080,-0.640
8.356,-1.045,-0.630
8.358,-1.030,-0.640
8.361,-1.020,-0.640
8.364,-1.010,-0.655
8.367,-1.000,-0.665
8.369,-0.985,-0.655
8.372,-0.975,-0.660
8.375,-0.960,-0.655
8.378,-0.940,-0.660
8.381,-0.930,-0.630
8.383,-0.905,-0.625
8.386,-0.905,-0.620
8.389,-0.885,-0.605
8.392,-0.880,-0.610
8.394,-0.860,-0.610
8.397,-0.855,-0.605
8.400,-0.855,-0.620
8.403,-0.860,-0.620
8.406,-0.855,-0.610
8.408,-0.850,-0.605
8.411,-0.850,-0.595
8.414,-0.850,-0.580
8.417,-0.840,-0.570
8.419,-0.840,-0.555
8.422,-0.820,-0.555
8.425,-0.840,-0.570
8.428,-0.845,-0.570
8.431,-0.865,-0.580
8.433,-0.880,-0.575
8.436,-0.890,-0.585
8.439,-0.905,-0.600
8.442,-0.915,-0.585
8.444,-0.925,-0.585
8.447,-0.925,-0.565
8.450,-0.930,-0.560
8.453,-0.935,-0.550
8.456,-0.940,-0.545
8.458,-0.950,-0.550
8.461,-0.970,-0.565
8.464,-0.975,-0.565
8.467,-0.990,-0.585
8.469,-1.000,-0.575
8.472,-1.025,-0.580
8.475,-1.020,-0.575
8.478,-1.020,-0.570
8.481,-1.025,-0.555
8.483,-1.020,-0.560
8.486,-1.015,-0.555
8.489,-1.005,-0.550
8.492,-1.015,-0.550
8.494,-1.025,-0.545
8.497,-1.025,-0.570
8.500,-1.035,-0.585
8.503,-1.040,-0.585
8.506,-1.045,-0.570
8.508,-1.045,-0.580
8.511,-1.050,-0.565
8.514,-1.045,-0.555
8.517,-1.025,-0.570
8.519,-1.025,-0.560
8.522,-1.015,-0.555
8.525,-1.020,-0.555
8.528,-1.020,-0.555
8.531,-1.020,-0.575
8.533,-1.010,-0.570
8.536,-1.025,-0.575
8.539,-1.025,-0.570
8.542,-1.025,-0.560
8.544,-1.020,-0.555
8.547,-1.010,-0.545
8.550,-1.005,-0.535
8.553,-0.990,-0.540
8.556,-0.980,-0.530
8.558,-0.980,-0.515
8.561,-0.985,-0.520
8.564,-0.995,-0.540
8.567,-1.005,-0.530
8.569,-0.995,-0.535
8.572,-1.010,-0.545
8.575,-0.990,-0.540
8.578,-0.990,-0.535
8.581,-1.000,-0.525
8.583,-0.985,-0.530
8.586,-0.990,-0.530
8.589,-0.975,-0.515
8.592,-0.970,-0.520
8.594,-0.975,-0.515
8.597,-0.980,-0.520
8.600,-0.980,-0.535
8.603,-0.985,-0.540
8.606,-0.985,-0.550
8.608,-0.990,-0.545
8.611,-0.995,-0.530
8.614,-0.980,-0.535
8.617,-0.975,-0.520
8.619,-0.965,-0.510
8.622,-0.960,-0.505
8.625,-0.960,-0.510
8.628,-0.965,-0.505
8.631,-0.970,-0.525
8.633,-0.980,-0.540
8.636,-0.985,-0.550
8.639,-0.995,-0.550
8.642,-0.995,-0.545
8.644,-1.000,-0.535
8.647,-0.980,-0.525
8.650,-0.970,-0.530
8.653,-0.965,-0.520
8.656,-0.955,-0.510
8.658,-0.950,-0.515
8.661,-0.970,-0.520
8.664,-0.975,-0.530
8.667,-0.970,-0.535
8.669,-1.000,-0.540
8.672,-0.985,-0.555
8.675,-0.985,-0.550
8.678,-0.990,-0.545
8.681,-0.985,-0.530
8.683,-0.970,-0.520
8.686,-0.965,-0.510
8.689,-0.950,-0.515
8.692,-0.960,-0.515
8.694,-0.955,-0.535
8.697,-0.965,-0.530
8.700,-0.970,-0.540
8.703,-0.985,-0.545
8.706,-0.985,-0.540
8.708,-0.980,-0.550
8.711,-0.995,-0.540
8.714,-0.970,-0.530
8.717,-0.960,-0.540
8.719,-0.960,-0.515
8.722,-0.960,-0.520
8.725,-0.965,-0.515
8.728,-0.980,-0.535
8.731,-0.975,-0.535
8.733,-0.975,-0.545
8.736,-0.980,-0.560
8.739,-0.980,-0.555
8.742,-0.980,-0.545
8.744,-0.975,-0.540
8.747,-0.985,-0.535
8.750,-0.980,-0.530
8.753,-0.970,-0.530
8.756,-0.965,-0.530
8.758,-0.955,-0.525
8.761,-0.960,-0.530
8.764,-0.970,-0.545
8.767,-0.975,-0.540
8.769,-0.980,-0.555
8.772,-0.980,-0.560
8.775,-0.980,-0.550
8.778,-0.980,-0.540
8.781,-0.980,-0.545
8.783,-0.970,-0.545
8.786,-0.965,-0.530
8.789,-0.960,-0.535
8.792,-0.960,-0.545
8.794,-0.960,-0.555
8.797,-0.970,-0.545
8.800,-0.975,-0.555
8.803,-0.975,-0.560
8.806,-0.985,-0.560
8.808,-0.995,-0.565
8.811,-0.980,-0.555
8.814,-0.975,-0.555
8.817,-0.985,-0.540
8.819,-0.975,-0.540
8.822,-0.965,-0.540
8.825,-0.960,-0.540
8.828,-0.965,-0.550
8.831,-0.980,-0.555
8.833,-0.975,-0.550
8.836,-0.990,-0.560
8.839,-1.000,-0.565
8.842,-1.000,-0.565
8.844,-0.970,-0.570
8.847,-0.975,-0.560
8.850,-0.975,-0.545
8.853,-0.955,-0.540
8.856,-0.960,-0.525
8.858,-0.955,-0.530
8.861,-0.970,-0.530
8.864,-0.975,-0.545
8.867,-0.985,-0.530
8.869,-0.995,-0.555
8.872,-0.995,-0.560
8.875,-0.995,-0.570
8.878,-1.005,-0.560
8.881,-0.985,-0.545
8.883,-0.980,-0.530
8.886,-0.975,-0.535
8.889,-0.955,-0.520
8.892,-0.950,-0.525
8.894,-0.970,-0.545
8.897,-0.970,-0.550
8.900,-0.970,-0.550
8.903,-0.980,-0.560
8.906,-0.985,-0.565
8.908,-0.980,-0.565
8.911,-0.990,-0.550
8.914,-0.970,-0.535
8.917,-0.965,-0.535
8.919,-0.960,-0.525
8.922,-0.950,-0.525
8.925,-0.955,-0.535
8.928,-0.955,-0.535
8.931,-0.960,-0.545
8.933,-0.970,-0.555
8.936,-0.975,-0.555
8.939,-0.985,-0.555
8.942,-0.985,-0.550
8.944,-0.970,-0.555
8.947,-0.970,-0.540
8.950,-0.970,-0.530
8.953,-0.955,-0.520
8.956,-0.945,-0.530
8.958,-0.940,-0.540
8.961,-0.945,-0.555
8.964,-0.950,-0.555
8.967,-0.950,-0.560
8.969,-0.965,-0.565
8.972,-0.960,-0.565
8.975,-0.965,-0.560
8.978,-0.950,-0.550
8.981,-0.960,-0.555
8.983,-0.960,-0.545
8.986,-0.950,-0.545
8.989,-0.935,-0.530
8.992,-0.925,-0.535
8.994,-0.920,-0.525
8.997,-0.925,-0.535
9.000,-0.920,-0.535
9.003,-0.915,-0.535
9.006,-0.915,-0.540
9.008,-0.910,-0.545
9.011,-0.910,-0.530
9.014,-0.905,-0.540
9.017,-0.905,-0.535
9.019,-0.905,-0.530
9.022,-0.900,-0.525
9.025,-0.900,-0.535
9.028,-0.910,-0.535
9.031,-0.930,-0.540
9.033,-0.940,-0.540
9.036,-0.940,-0.540
9.039,-0.955,-0.530
9.042,-0.960,-0.535
9.044,-0.945,-0.535
9.047,-0.935,-0.510
9.050,-0.915,-0.495
9.053,-0.900,-0.485
9.056,-0.870,-0.485
9.058,-0.865,-0.470
9.061,-0.870,-0.490
9.064,-0.890,-0.490
9.067,-0.890,-0.520
9.069,-0.910,-0.520
9.072,-0.940,-0.550
9.075,-0.965,-0.555
9.078,-0.980,-0.555
9.081,-0.985,-0.550
9.083,-0.990,-0.570
9.086,-1.000,-0.560
9.089,-0.985,-0.555
9.092,-0.985,-0.565
9.094,-0.995,-0.565
9.097,-0.980,-0.570
9.100,-0.995,-0.570
9.103,-0.990,-0.595
9.106,-0.995,-0.595
9.108,-1.010,-0.615
9.111,-1.015,-0.625
9.114,-1.025,-0.630
9.117,-1.025,-0.610
9.119,-1.005,-0.560
9.122,-0.950,-0.455
9.125,-0.880,-0.350
9.128,-0.770,-0.250
9.131,-0.690,-0.190
9.133,-0.635,-0.190
9.136,-0.590,-0.250
9.139,-0.605,-0.410
9.142,-0.655,-0.655
9.144,-0.790,-0.945
9.147,-0.930,-1.185
9.150,-1.015,-1.310
9.153,-1.010,-1.275
9.156,-0.880,-1.125
9.158,-0.665,-0.890
9.161,-0.390,-0.665
9.164,-0.105,-0.465
9.167,0.165,-0.330
9.169,0.435,-0.225
9.172,0.660,-0.190
9.175,0.855,-0.160
9.178,1.035,-0.150
9.181,1.165,-0.160
9.183,1.250,-0.200
9.186,1.260,-0.290
9.189,1.210,-0.385
9.192,1.115,-0.480
9.194,0.955,-0.535
9.197,0.750,-0.585
9.200,0.510,-0.595
9.203,0.260,-0.580
9.206,0.015,-0.550
9.208,-0.220,-0.510
9.211,-0.440,-0.495
9.214,-0.660,-0.515
9.217,-0.850,-0.540
9.219,-1.005,-0.600
9.222,-1.125,-0.640
9.225,-1.205,-0.645
9.228,-1.245,-0.650
9.231,-1.250,-0.610
9.233,-1.255,-0.600
9.236,-1.250,-0.565
9.239,-1.225,-0.530
9.242,-1.205,-0.515
9.244,-1.185,-0.495
9.247,-1.165,-0.470
9.250,-1.145,-0.445
9.253,-1.125,-0.435
9.256,-1.110,-0.415
9.258,-1.100,-0.415
9.261,-1.105,-0.420
9.264,-1.115,-0.420
9.267,-1.130,-0.425
9.269,-1.150,-0.425
9.272,-1.150,-0.425
9.275,-1.155,-0.430
9.278,-1.145,-0.410
9.281,-1.140,-0.405
9.283,-1.135,-0.405
9.286,-1.140,-0.400
9.289,-1.130,-0.380
9.292,-1.120,-0.395
9.294,-1.115,-0.390
9.297,-1.125,-0.395
9.300,-1.140,-0.405
9.303,-1.135,-0.405
9.306,-1.160,-0.405
9.308,-1.165,-0.410
9.311,-1.170,-0.400
9.314,-1.150,-0.400
9.317,-1.150,-0.375
9.319,-1.140,-0.375
9.322,-1.130,-0.365
9.325,-1.135,-0.370
9.328,-1.140,-0.375
9.331,-1.140,-0.390
9.333,-1.155,-0.405
9.336,-1.165,-0.415
9.339,-1.170,-0.420
9.342,-1.175,-0.410
9.344,-1.175,-0.405
9.347,-1.175,-0.390
9.350,-1.170,-0.395
9.353,-1.150,-0.390
9.356,-1.145,-0.375
9.358,-1.150,-0.390
9.361,-1.160,-0.395
9.364,-1.165,-0.415
9.367,-1.180,-0.425
9.369,-1.180,-0.435
9.372,-1.185,-0.445
9.375,-1.200,-0.440
9.378,-1.205,-0.440
9.381,-1.205,-0.430
9.383,-1.195,-0.430
9.386,-1.205,-0.415
9.389,-1.190,-0.415
9.392,-1.190,-0.430
9.394,-1.200,-0.445
9.397,-1.205,-0.460
9.400,-1.215,-0.465
9.403,-1.235,-0.470
9.406,-1.250,-0.485
9.408,-1.245,-0.495
9.411,-1.265,-0.480
9.414,-1.245,-0.480
9.417,-1.255,-0.485
9.419,-1.255,-0.485
9.422,-1.250,-0.475
9.425,-1.250,-0.490
9.428,-1.245,-0.500
9.431,-1.265,-0.525
9.433,-1.275,-0.530
9.436,-1.275,-0.535
9.439,-1.300,-0.555
9.442,-1.300,-0.565
9.444,-1.300,-0.565
9.447,-1.305,-0.560
9.450,-1.305,-0.555
9.453,-1.295,-0.560
9.456,-1.295,-0.575
9.458,-1.305,-0.585
9.461,-1.295,-0.590
9.464,-1.300,-0.610
9.467,-1.310,-0.625
9.469,-1.310,-0.635
9.472,-1.315,-0.640
9.475,-1.315,-0.645
9.478,-1.310,-0.635
9.481,-1.300,-0.640
9.483,-1.295,-0.640
9.486,-1.280,-0.625
9.489,-1.270,-0.625
9.492,-1.250,-0.640
9.494,-1.225,-0.655
9.497,-1.230,-0.655
9.500,-1.205,-0.665
9.503,-1.210,-0.665
9.506,-1.190,-0.665
9.508,-1.170,-0.660
9.511,-1.170,-0.660
9.514,-1.150,-0.645
9.517,-1.120,-0.630
9.519,-1.115,-0.615
9.522,-1.080,-0.605
9.525,-1.070,-0.605
9.528,-1.055,-0.610
9.531,-1.050,-0.615
9.533,-1.035,-0.620
9.536,-1.020,-0.625
9.539,-1.015,-0.620
9.542,-1.005,-0.630
9.544,-1.010,-0.620
9.547,-0.985,-0.615
9.550,-0.975,-0.590
9.553,-0.960,-0.590
9.556,-0.935,-0.590
9.558,-0.930,-0.585
9.561,-0.940,-0.600
9.564,-0.935,-0.605
9.567,-0.935,-0.610
9.569,-0.940,-0.615
9.572,-0.950,-0.625
9.575,-0.950,-0.620
9.578,-0.965,-0.610
9.581,-0.960,-0.605
9.583,-0.970,-0.605
9.586,-0.970,-0.610
9.589,-0.965,-0.610
9.592,-0.975,-0.625
9.594,-0.990,-0.630
9.597,-0.990,-0.645
9.600,-1.015,-0.640
9.603,-1.025,-0.655
9.606,-1.045,-0.650
9.608,-1.060,-0.645
9.611,-1.060,-0.635
9.614,-1.065,-0.625
9.617,-1.075,-0.620
9.619,-1.070,-0.625
9.622,-1.075,-0.630
9.625,-1.075,-0.630
9.628,-1.095,-0.630
9.631,-1.090,-0.645
9.633,-1.095,-0.660
9.636,-1.120,-0.655
9.639,-1.125,-0.655
9.642,-1.125,-0.660
9.644,-1.125,-0.650
9.647,-1.130,-0.640
9.650,-1.125,-0.630
9.653,-1.130,-0.630
9.656,-1.120,-0.620
9.658,-1.115,-0.620
9.661,-1.120,-0.615
9.664,-1.115,-0.615
9.667,-1.125,-0.635
9.669,-1.125,-0.635
9.672,-1.135,-0.645
9.675,-1.140,-0.645
9.678,-1.135,-0.645
9.681,-1.130,-0.615
9.683,-1.120,-0.620
9.686,-1.115,-0.605
9.689,-1.105,-0.605
9.692,-1.105,-0.605
9.694,-1.110,-0.605
9.697,-1.100,-0.610
9.700,-1.100,-0.610
9.703,-1.095,-0.625
9.706,-1.095,-0.630
9.708,-1.090,-0.610
9.711,-1.085,-0.590
9.714,-1.075,-0.580
9.717,-1.065,-0.565
9.719,-1.055,-0.570
9.722,-1.055,-0.570
9.725,-1.060,-0.565
9.728,-1.070,-0.580
9.731,-1.045,-0.585
9.733,-1.060,-0.585
9.736,-1.065,-0.595
9.739,-1.060,-0.590
9.742,-1.060,-0.575
9.744,-1.065,-0.565
9.747,-1.050,-0.540
9.750,-1.040,-0.545
9.753,-1.035,-0.535
9.756,-1.030,-0.530
9.758,-1.025,-0.545
9.761,-1.025,-0.555
9.764,-1.025,-0.570
9.767,-1.030,-0.565
9.769,-1.030,-0.570
9.772,-1.050,-0.565
9.775,-1.050,-0.550
9.778,-1.050,-0.560
9.781,-1.045,-0.545
9.783,-1.030,-0.535
9.786,-1.030,-0.540
9.789,-1.020,-0.525
9.792,-1.020,-0.525
9.794,-1.020,-0.545
9.797,-1.030,-0.545
9.800,-1.040,-0.545
9.803,-1.030,-0.560
9.806,-1.040,-0.550
9.808,-1.045,-0.555
9.811,-1.040,-0.555
9.814,-1.040,-0.545
9.817,-1.030,-0.520
9.819,-1.025,-0.510
9.822,-1.010,-0.500
9.825,-1.000,-0.515
9.828,-1.000,-0.510
9.831,-1.005,-0.515
9.833,-1.015,-0.530
9.836,-1.025,-0.540
9.839,-1.030,-0.545
9.842,-1.035,-0.540
9.844,-1.030,-0.530
9.847,-1.025,-0.520
9.850,-1.015,-0.510
9.853,-1.010,-0.500
9.856,-1.000,-0.490
9.858,-0.990,-0.500
9.861,-0.995,-0.505
9.864,-0.995,-0.500
9.867,-1.005,-0.515
9.869,-1.010,-0.530
9.872,-1.010,-0.525
9.875,-1.015,-0.535
9.878,-1.025,-0.540
9.881,-1.015,-0.530
9.883,-1.005,-0.520
9.886,-1.010,-0.505
9.889,-1.000,-0.500
9.892,-1.005,-0.490
9.894,-1.000,-0.495
9.897,-1.015,-0.510
9.900,-1.035,-0.510
9.903,-1.025,-0.525
9.906,-1.035,-0.545
9.908,-1.030,-0.550
9.911,-1.010,-0.530
9.914,-1.010,-0.530
9.917,-1.020,-0.505
9.919,-1.015,-0.510
9.922,-0.995,-0.505
9.925,-0.980,-0.510
9.928,-0.980,-0.510
9.931,-0.980,-0.530
9.933,-0.995,-0.540
9.936,-1.000,-0.535
9.939,-1.000,-0.545
9.942,-1.005,-0.540
9.944,-1.005,-0.525
9.947,-1.000,-0.520
9.950,-0.985,-0.520
9.953,-0.980,-0.525
9.956,-0.975,-0.505
9.958,-0.975,-0.530
9.961,-0.970,-0.515
9.964,-0.980,-0.530
9.967,-0.990,-0.545
9.969,-1.000,-0.540
9.972,-0.995,-0.545
9.975,-1.000,-0.545
9.978,-1.000,-0.535
9.981,-0.990,-0.525
9.983,-0.985,-0.520
9.986,-0.970,-0.520
9.989,-0.955,-0.510
9.992,-0.970,-0.520
9.994,-0.970,-0.515
9.997,-0.970,-0.525
10.000,-0.985,-0.525
10.003,-0.985,-0.550
10.006,-0.980,-0.535
10.008,-0.990,-0.525
10.011,-0.985,-0.520
10.014,-0.985,-0.515
10.017,-0.975,-0.510
10.019,-0.965,-0.490
10.022,-0.965,-0.495
10.025,-0.955,-0.495
10.028,-0.965,-0.515
10.031,-0.965,-0.520
10.033,-0.970,-0.535
10.036,-0.980,-0.550
10.039,-0.975,-0.535
10.042,-0.985,-0.545
10.044,-0.985,-0.535
10.047,-0.975,-0.520
10.050,-0.970,-0.520
10.053,-0.965,-0.505
10.056,-0.950,-0.495
10.058,-0.950,-0.505
10.061,-0.950,-0.510
10.064,-0.960,-0.525
10.067,-0.970,-0.540
10.069,-0.970,-0.540
10.072,-0.980,-0.540
10.075,-0.965,-0.530
10.078,-0.975,-0.530
10.081,-0.965,-0.515
10.083,-0.960,-0.495
10.086,-0.950,-0.485
10.089,-0.950,-0.485
10.092,-0.950,-0.500
10.094,-0.955,-0.495
10.097,-0.950,-0.510
10.100,-0.960,-0.520
10.103,-0.970,-0.525
10.106,-0.965,-0.520
10.108,-0.960,-0.530
10.111,-0.960,-0.515
10.114,-0.955,-0.510
10.117,-0.955,-0.500
10.119,-0.955,-0.515
10.122,-0.950,-0.500
10.125,-0.940,-0.510
10.128,-0.935,-0.500
10.131,-0.945,-0.510
10.133,-0.945,-0.505
10.136,-0.950,-0.510
10.139,-0.960,-0.505
10.142,-0.950,-0.515
10.144,-0.960,-0.520
10.147,-0.955,-0.510
10.150,-0.960,-0.515
10.153,-0.945,-0.505
10.156,-0.930,-0.500
10.158,-0.935,-0.515
10.161,-0.925,-0.520
10.164,-0.930,-0.525
10.167,-0.930,-0.510
10.169,-0.925,-0.530
10.172,-0.930,-0.530
10.175,-0.930,-0.525
10.178,-0.925,-0.520
10.181,-0.925,-0.530
10.183,-0.920,-0.520
10.186,-0.925,-0.505
10.189,-0.915,-0.505
10.192,-0.920,-0.510
10.194,-0.915,-0.500
10.197,-0.890,-0.505
10.200,-0.900,-0.505
10.203,-0.885,-0.520
10.206,-0.895,-0.520
10.208,-0.885,-0.515
10.211,-0.875,-0.510
10.214,-0.875,-0.515
10.217,-0.860,-0.505
10.219,-0.855,-0.500
10.222,-0.865,-0.480
10.225,-0.860,-0.490
10.228,-0.885,-0.500
10.231,-0.885,-0.495
10.233,-0.890,-0.495
10.236,-0.895,-0.490
10.239,-0.900,-0.490
10.242,-0.905,-0.485
10.244,-0.900,-0.475
10.247,-0.895,-0.475
10.250,-0.885,-0.465
10.253,-0.860,-0.450
10.256,-0.850,-0.445
10.258,-0.835,-0.440
10.261,-0.830,-0.445
10.264,-0.835,-0.450
10.267,-0.865,-0.465
10.269,-0.870,-0.470
10.272,-0.885,-0.490
10.275,-0.900,-0.490
10.278,-0.910,-0.490
10.281,-0.930,-0.495
10.283,-0.940,-0.510
10.286,-0.940,-0.505
10.289,-0.935,-0.485
10.292,-0.930,-0.475
10.294,-0.960,-0.490
10.297,-0.960,-0.515
10.300,-0.965,-0.515
10.303,-0.960,-0.525
10.306,-0.970,-0.530
10.308,-0.955,-0.535
10.311,-0.965,-0.525
10.314,-0.950,-0.530
10.317,-0.935,-0.530
10.319,-0.935,-0.535
10.322,-0.945,-0.550
10.325,-0.945,-0.575
10.328,-0.960,-0.565
10.331,-0.950,-0.530
10.333,-0.920,-0.445
10.336,-0.860,-0.335
10.339,-0.780,-0.215
10.342,-0.685,-0.130
10.344,-0.600,-0.095
10.347,-0.535,-0.105
10.350,-0.500,-0.215
10.353,-0.535,-0.435
10.356,-0.640,-0.715
10.358,-0.810,-1.040
10.361,-0.970,-1.285
10.364,-1.070,-1.390
10.367,-1.035,-1.340
10.369,-0.915,-1.170
10.372,-0.705,-0.980
10.375,-0.430,-0.785
10.378,-0.155,-0.615
10.381,0.090,-0.500
10.383,0.330,-0.430
10.386,0.530,-0.415
10.389,0.710,-0.410
10.392,0.850,-0.405
10.394,0.935,-0.425
10.397,0.985,-0.460
10.400,0.980,-0.505
10.403,0.945,-0.535
10.406,0.860,-0.525
10.408,0.750,-0.510
10.411,0.605,-0.485
10.414,0.405,-0.465
10.417,0.205,-0.430
10.419,0.015,-0.425
10.422,-0.190,-0.420
10.425,-0.400,-0.435
10.428,-0.650,-0.485
10.431,-0.825,-0.525
10.433,-0.985,-0.565
10.436,-1.100,-0.595
10.439,-1.165,-0.595
10.442,-1.190,-0.575
10.444,-1.175,-0.525
10.447,-1.135,-0.480
10.450,-1.095,-0.445
10.453,-1.065,-0.425
10.456,-1.040,-0.400
10.458,-1.020,-0.400
10.461,-1.020,-0.390
10.464,-1.015,-0.380
10.467,-1.015,-0.380
10.469,-1.040,-0.375
10.472,-1.040,-0.380
10.475,-1.050,-0.375
10.478,-1.060,-0.375
10.481,-1.050,-0.355
10.483,-1.025,-0.340
10.486,-1.020,-0.355
10.489,-1.010,-0.350
10.492,-1.005,-0.340
10.494,-1.010,-0.340
10.497,-1.015,-0.345
10.500,-1.030,-0.345
10.503,-1.040,-0.355
10.506,-1.035,-0.335
10.508,-1.040,-0.350
10.511,-1.035,-0.350
10.514,-1.030,-0.350
10.517,-1.030,-0.340
10.519,-1.030,-0.325
10.522,-1.020,-0.320
10.525,-1.005,-0.320
10.528,-1.025,-0.320
10.531,-1.020,-0.330
10.533,-1.030,-0.345
10.536,-1.040,-0.355
10.539,-1.050,-0.350
10.542,-1.055,-0.365
10.544,-1.055,-0.350
10.547,-1.055,-0.335
10.550,-1.045,-0.340
10.553,-1.055,-0.325
10.556,-1.050,-0.325
10.558,-1.045,-0.330
10.561,-1.045,-0.335
10.564,-1.055,-0.345
10.567,-1.060,-0.350
10.569,-1.070,-0.360
10.572,-1.080,-0.360
10.575,-1.075,-0.375
10.578,-1.085,-0.375
10.581,-1.085,-0.375
10.583,-1.080,-0.375
10.586,-1.075,-0.365
10.589,-1.075,-0.375
10.592,-1.070,-0.375
10.594,-1.085,-0.390
10.597,-1.095,-0.405
10.600,-1.125,-0.420
10.603,-1.145,-0.410
10.606,-1.135,-0.435
10.608,-1.135,-0.425
10.611,-1.135,-0.425
10.614,-1.145,-0.430
10.617,-1.145,-0.430
10.619,-1.140,-0.430
10.622,-1.150,-0.435
10.625,-1.140,-0.455
10.628,-1.160,-0.460
10.631,-1.155,-0.470
10.633,-1.165,-0.500
10.636,-1.170,-0.510
10.639,-1.190,-0.515
10.642,-1.195,-0.520
10.644,-1.195,-0.525
10.647,-1.195,-0.525
10.650,-1.200,-0.530
10.653,-1.190,-0.540
10.656,-1.190,-0.535
10.658,-1.200,-0.560
10.661,-1.210,-0.575
10.664,-1.225,-0.590
10.667,-1.215,-0.600
10.669,-1.220,-0.610
10.672,-1.240,-0.625
10.675,-1.235,-0.625
10.678,-1.230,-0.620
10.681,-1.225,-0.620
10.683,-1.220,-0.625
10.686,-1.205,-0.635
10.689,-1.200,-0.645
10.692,-1.185,-0.655
10.694,-1.180,-0.665
10.697,-1.185,-0.675
10.700,-1.180,-0.685
10.703,-1.175,-0.685
10.706,-1.180,-0.705
10.708,-1.175,-0.700
10.711,-1.165,-0.705
10.714,-1.135,-0.715
10.717,-1.130,-0.700
10.719,-1.100,-0.700
10.722,-1.080,-0.705
10.725,-1.050,-0.700
10.728,-1.035,-0.695
10.731,-1.035,-0.705
10.733,-1.020,-0.705
10.736,-1.015,-0.715
10.739,-1.005,-0.700
10.742,-0.980,-0.710
10.744,-0.960,-0.705
10.747,-0.945,-0.675
10.750,-0.935,-0.670
10.753,-0.915,-0.650
10.756,-0.885,-0.650
10.758,-0.875,-0.640
10.761,-0.880,-0.650
10.764,-0.860,-0.645
10.767,-0.865,-0.640
10.769,-0.860,-0.650
10.772,-0.870,-0.645
10.775,-0.875,-0.650
10.778,-0.870,-0.645
10.781,-0.860,-0.635
10.783,-0.860,-0.620
10.786,-0.855,-0.615
10.789,-0.850,-0.605
10.792,-0.845,-0.595
10.794,-0.860,-0.605
10.797,-0.875,-0.620
10.800,-0.885,-0.620
10.803,-0.895,-0.630
10.806,-0.905,-0.625
10.808,-0.920,-0.620
10.811,-0.935,-0.600
10.814,-0.945,-0.610
10.817,-0.945,-0.600
10.819,-0.950,-0.600
10.822,-0.945,-0.575
10.825,-0.945,-0.585
10.828,-0.965,-0.600
10.831,-0.985,-0.605
10.833,-0.995,-0.620
10.836,-0.995,-0.625
10.839,-1.010,-0.625
10.842,-1.020,-0.610
10.844,-1.030,-0.610
10.847,-1.020,-0.610
10.850,-1.010,-0.595
10.853,-1.010,-0.600
10.856,-1.010,-0.590
10.858,-1.005,-0.595
10.861,-0.995,-0.605
10.864,-1.010,-0.615
10.867,-1.015,-0.625
10.869,-1.015,-0.620
10.872,-1.035,-0.620
10.875,-1.025,-0.625
10.878,-1.030,-0.605
10.881,-1.035,-0.595
10.883,-1.030,-0.590
10.886,-1.015,-0.590
10.889,-1.000,-0.575
10.892,-0.995,-0.585
10.894,-1.000,-0.585
10.897,-0.990,-0.600
10.900,-1.005,-0.600
10.903,-1.000,-0.605
10.906,-0.995,-0.610
10.908,-0.995,-0.605
10.911,-1.010,-0.600
10.914,-1.000,-0.585
10.917,-0.975,-0.570
10.919,-0.975,-0.560
10.922,-0.965,-0.560
10.925,-0.960,-0.565
10.928,-0.960,-0.570
10.931,-0.960,-0.575
10.933,-0.970,-0.580
10.936,-0.975,-0.570
10.939,-0.995,-0.575
10.942,-0.975,-0.575
10.944,-0.980,-0.580
10.947,-0.970,-0.550
10.950,-0.965,-0.550
10.953,-0.960,-0.545
10.956,-0.945,-0.535
10.958,-0.945,-0.545
10.961,-0.945,-0.555
10.964,-0.940,-0.550
10.967,-0.955,-0.560
10.969,-0.945,-0.560
10.972,-0.955,-0.570
10.975,-0.965,-0.565
10.978,-0.950,-0.560
10.981,-0.950,-0.555
10.983,-0.940,-0.555
10.986,-0.935,-0.535
10.989,-0.920,-0.535
10.992,-0.915,-0.530
10.994,-0.915,-0.535
10.997,-0.925,-0.535
11.000,-0.930,-0.545
11.003,-0.925,-0.550
11.006,-0.930,-0.575
11.008,-0.935,-0.560
11.011,-0.940,-0.555
11.014,-0.940,-0.550
11.017,-0.935,-0.540
11.019,-0.925,-0.545
11.022,-0.925,-0.540
11.025,-0.920,-0.535
11.028,-0.920,-0.545
11.031,-0.920,-0.545
11.033,-0.925,-0.555
11.036,-0.930,-0.550
11.039,-0.925,-0.555
11.042,-0.935,-0.560
11.044,-0.930,-0.555
11.047,-0.945,-0.545
11.050,-0.940,-0.545
11.053,-0.920,-0.540
11.056,-0.915,-0.525
11.058,-0.925,-0.525
11.061,-0.930,-0.535
11.064,-0.920,-0.545
11.067,-0.930,-0.555
11.069,-0.940,-0.560
11.072,-0.950,-0.570
11.075,-0.940,-0.565
11.078,-0.945,-0.550
11.081,-0.945,-0.545
11.083,-0.930,-0.530
11.086,-0.925,-0.535
11.089,-0.930,-0.525
11.092,-0.900,-0.540
11.094,-0.910,-0.535
11.097,-0.910,-0.545
11.100,-0.915,-0.550
11.103,-0.920,-0.560
11.106,-0.930,-0.550
11.108,-0.925,-0.560
11.111,-0.925,-0.570
11.114,-0.925,-0.545
11.117,-0.925,-0.535
11.119,-0.915,-0.535
11.122,-0.905,-0.530
11.125,-0.895,-0.540
11.128,-0.910,-0.545
11.131,-0.915,-0.555
11.133,-0.915,-0.555
11.136,-0.910,-0.560
11.139,-0.930,-0.555
11.142,-0.935,-0.560
11.144,-0.930,-0.565
11.147,-0.925,-0.555
11.150,-0.930,-0.555
11.153,-0.920,-0.525
11.156,-0.915,-0.530
11.158,-0.905,-0.530
11.161,-0.905,-0.545
11.164,-0.895,-0.560
11.167,-0.900,-0.550
11.169,-0.910,-0.560
11.172,-0.910,-0.555
11.175,-0.910,-0.555
11.178,-0.925,-0.550
11.181,-0.915,-0.540
11.183,-0.905,-0.535
11.186,-0.890,-0.520
11.189,-0.890,-0.525
11.192,-0.880,-0.515
11.194,-0.890,-0.535
11.197,-0.890,-0.535
11.200,-0.900,-0.525
11.203,-0.905,-0.540
11.206,-0.915,-0.545
11.208,-0.910,-0.545
11.211,-0.920,-0.545
11.214,-0.890,-0.525
11.217,-0.895,-0.525
11.219,-0.900,-0.520
11.222,-0.895,-0.515
11.225,-0.880,-0.515
11.228,-0.880,-0.510
11.231,-0.890,-0.535
11.233,-0.900,-0.525
11.236,-0.915,-0.540
11.239,-0.910,-0.540
11.242,-0.910,-0.540
11.244,-0.910,-0.535
11.247,-0.910,-0.530
11.250,-0.900,-0.520
11.253,-0.895,-0.510
11.256,-0.895,-0.505
11.258,-0.895,-0.510
11.261,-0.880,-0.510
11.264,-0.885,-0.515
11.267,-0.885,-0.535
11.269,-0.890,-0.535
11.272,-0.895,-0.545
11.275,-0.895,-0.540
11.278,-0.900,-0.535
11.281,-0.905,-0.520
11.283,-0.895,-0.520
11.286,-0.885,-0.510
11.289,-0.880,-0.505
11.292,-0.870,-0.505
11.294,-0.875,-0.520
11.297,-0.880,-0.525
11.300,-0.875,-0.530
11.303,-0.890,-0.540
11.306,-0.885,-0.540
11.308,-0.890,-0.535
11.311,-0.905,-0.530
11.314,-0.900,-0.535
11.317,-0.890,-0.520
11.319,-0.890,-0.510
11.322,-0.880,-0.510
11.325,-0.865,-0.515
11.328,-0.865,-0.525
11.331,-0.860,-0.530
11.333,-0.855,-0.535
11.336,-0.860,-0.540
11.339,-0.875,-0.545
11.342,-0.885,-0.540
11.344,-0.880,-0.545
11.347,-0.870,-0.525
11.350,-0.860,-0.500
11.353,-0.855,-0.490
11.356,-0.840,-0.485
11.358,-0.830,-0.505
11.361,-0.815,-0.505
11.364,-0.805,-0.505
11.367,-0.810,-0.510
11.369,-0.815,-0.505
11.372,-0.830,-0.525
11.375,-0.835,-0.530
11.378,-0.840,-0.515
11.381,-0.850,-0.500
11.383,-0.850,-0.505
11.386,-0.855,-0.485
11.389,-0.850,-0.485
11.392,-0.845,-0.480
11.394,-0.830,-0.480
11.397,-0.840,-0.485
11.400,-0.840,-0.475
11.403,-0.825,-0.470
11.406,-0.825,-0.455
11.408,-0.805,-0.450
11.411,-0.805,-0.460
11.414,-0.800,-0.455
11.417,-0.800,-0.455
11.419,-0.810,-0.465
11.422,-0.805,-0.460
11.425,-0.810,-0.475
11.428,-0.830,-0.490
11.431,-0.850,-0.510
11.433,-0.870,-0.510
11.436,-0.900,-0.520
11.439,-0.890,-0.520
11.442,-0.915,-0.520
11.444,-0.920,-0.510
11.447,-0.910,-0.525
11.450,-0.895,-0.510
11.453,-0.890,-0.500
11.456,-0.890,-0.495
11.458,-0.885,-0.505
11.461,-0.880,-0.515
11.464,-0.880,-0.530
11.467,-0.900,-0.560
11.469,-0.910,-0.580
11.472,-0.930,-0.600
11.475,-0.925,-0.590
11.478,-0.910,-0.535
11.481,-0.865,-0.445
11.483,-0.790,-0.325
11.486,-0.705,-0.200
11.489,-0.610,-0.120
11.492,-0.530,-0.120
11.494,-0.475,-0.165
11.497,-0.475,-0.295
11.500,-0.530,-0.545
11.503,-0.630,-0.820
11.506,-0.765,-1.100
11.508,-0.885,-1.255
11.511,-0.925,-1.270
11.514,-0.835,-1.120
11.517,-0.640,-0.880
11.519,-0.355,-0.620
11.522,-0.040,-0.375
11.525,0.270,-0.215
11.528,0.580,-0.105
11.531,0.855,-0.065
11.533,1.100,-0.050
11.536,1.270,-0.075
11.539,1.380,-0.130
11.542,1.395,-0.235
11.544,1.355,-0.330
11.547,1.260,-0.395
11.550,1.115,-0.450
11.553,0.925,-0.480
11.556,0.700,-0.495
11.558,0.460,-0.475
11.561,0.210,-0.460
11.564,-0.030,-0.435
11.567,-0.250,-0.435
11.569,-0.495,-0.460
11.572,-0.715,-0.505
11.575,-0.895,-0.550
11.578,-1.040,-0.590
11.581,-1.130,-0.585
11.583,-1.165,-0.580
11.586,-1.145,-0.545
11.589,-1.135,-0.505
11.592,-1.115,-0.480
11.594,-1.080,-0.455
11.597,-1.075,-0.430
11.600,-1.040,-0.420
11.603,-1.040,-0.405
11.606,-1.020,-0.385
11.608,-1.035,-0.365
11.611,-1.025,-0.365
11.614,-1.015,-0.350
11.617,-1.010,-0.355
11.619,-1.015,-0.340
11.622,-1.005,-0.325
11.625,-1.010,-0.330
11.628,-1.000,-0.335
11.631,-1.000,-0.345
11.633,-1.020,-0.330
11.636,-1.015,-0.330
11.639,-1.025,-0.345
11.642,-1.030,-0.345
11.644,-1.030,-0.335
11.647,-1.035,-0.320
11.650,-1.030,-0.325
11.653,-1.010,-0.310
11.656,-1.005,-0.320
11.658,-1.000,-0.305
11.661,-1.005,-0.315
11.664,-1.015,-0.300
11.667,-1.015,-0.320
11.669,-1.020,-0.315
11.672,-1.030,-0.320
11.675,-1.040,-0.315
11.678,-1.030,-0.310
11.681,-1.030,-0.315
11.683,-1.020,-0.305
11.686,-1.020,-0.305
11.689,-1.020,-0.295
11.692,-1.015,-0.295
11.694,-1.015,-0.295
11.697,-1.030,-0.305
11.700,-1.030,-0.315
11.703,-1.040,-0.320
11.706,-1.045,-0.330
11.708,-1.045,-0.330
11.711,-1.045,-0.320
11.714,-1.055,-0.320
11.717,-1.050,-0.310
11.719,-1.050,-0.310
11.722,-1.050,-0.320
11.725,-1.030,-0.310
11.728,-1.050,-0.310
11.731,-1.045,-0.320
11.733,-1.060,-0.320
11.736,-1.070,-0.335
11.739,-1.070,-0.345
11.742,-1.085,-0.350
11.744,-1.090,-0.355
11.747,-1.095,-0.345
11.750,-1.095,-0.340
11.753,-1.095,-0.345
11.756,-1.090,-0.340
11.758,-1.090,-0.345
11.761,-1.100,-0.355
11.764,-1.105,-0.360
11.767,-1.125,-0.385
11.769,-1.130,-0.395
11.772,-1.145,-0.400
11.775,-1.145,-0.415
11.778,-1.140,-0.400
11.781,-1.140,-0.415
11.783,-1.135,-0.410
11.786,-1.130,-0.410
11.789,-1.120,-0.405
11.792,-1.130,-0.430
11.794,-1.125,-0.440
11.797,-1.135,-0.455
11.800,-1.160,-0.485
11.803,-1.165,-0.495
11.806,-1.170,-0.505
11.808,-1.180,-0.500
11.811,-1.175,-0.500
11.814,-1.170,-0.495
11.817,-1.155,-0.495
11.819,-1.160,-0.485
11.822,-1.145,-0.490
11.825,-1.160,-0.485
11.828,-1.150,-0.500
11.831,-1.155,-0.515
11.833,-1.170,-0.525
11.836,-1.175,-0.540
11.839,-1.175,-0.545
11.842,-1.185,-0.555
11.844,-1.175,-0.545
11.847,-1.155,-0.535
11.850,-1.150,-0.525
11.853,-1.130,-0.535
11.856,-1.115,-0.530
11.858,-1.095,-0.535
11.861,-1.100,-0.535
11.864,-1.090,-0.535
11.867,-1.080,-0.550
11.869,-1.070,-0.570
11.872,-1.065,-0.560
11.875,-1.055,-0.555
11.878,-1.040,-0.545
11.881,-1.030,-0.550
11.883,-1.010,-0.520
11.886,-0.985,-0.515
11.889,-0.955,-0.510
11.892,-0.940,-0.515
11.894,-0.940,-0.515
11.897,-0.915,-0.520
11.900,-0.905,-0.525
11.903,-0.905,-0.540
11.906,-0.895,-0.550
11.908,-0.885,-0.525
11.911,-0.885,-0.525
11.914,-0.860,-0.500
11.917,-0.850,-0.505
11.919,-0.835,-0.485
11.922,-0.820,-0.485
11.925,-0.800,-0.485
11.928,-0.785,-0.485
11.931,-0.785,-0.505
11.933,-0.795,-0.520
11.936,-0.795,-0.515
11.939,-0.800,-0.525
11.942,-0.815,-0.530
11.944,-0.805,-0.520
11.947,-0.815,-0.510
11.950,-0.815,-0.505
11.953,-0.815,-0.510
11.956,-0.820,-0.495
11.958,-0.815,-0.505
11.961,-0.835,-0.515
11.964,-0.845,-0.520
11.967,-0.860,-0.535
11.969,-0.865,-0.540
11.972,-0.910,-0.560
11.975,-0.930,-0.560
11.978,-0.935,-0.555
11.981,-0.935,-0.565
11.983,-0.930,-0.540
11.986,-0.940,-0.550
11.989,-0.930,-0.555
11.992,-0.940,-0.560
11.994,-0.945,-0.565
11.997,-0.955,-0.570
12.000,-0.965,-0.570
12.003,-0.980,-0.575
12.006,-0.995,-0.580
12.008,-1.010,-0.585
12.011,-1.010,-0.575
12.014,-1.005,-0.570
12.017,-1.005,-0.570
12.019,-1.000,-0.555
12.022,-0.995,-0.540
12.025,-0.990,-0.530
12.028,-0.990,-0.545
12.031,-0.995,-0.545
12.033,-1.005,-0.550
12.036,-1.010,-0.565
12.039,-1.010,-0.560
12.042,-1.015,-0.560
12.044,-1.015,-0.555
12.047,-1.020,-0.545
12.050,-1.010,-0.540
12.053,-1.005,-0.530
12.056,-1.005,-0.530
12.058,-0.980,-0.505
12.061,-0.970,-0.510
12.064,-0.970,-0.520
12.067,-0.975,-0.510
12.069,-0.975,-0.510
12.072,-0.980,-0.515
12.075,-0.975,-0.515
12.078,-0.975,-0.515
12.081,-0.980,-0.510
12.083,-0.960,-0.515
12.086,-0.950,-0.500
12.089,-0.940,-0.510
12.092,-0.935,-0.500
12.094,-0.935,-0.495
12.097,-0.925,-0.490
12.100,-0.930,-0.515
12.103,-0.925,-0.500
12.106,-0.925,-0.500
12.108,-0.935,-0.500
12.111,-0.930,-0.490
12.114,-0.940,-0.490
12.117,-0.915,-0.485
12.119,-0.925,-0.480
12.122,-0.930,-0.475
12.125,-0.910,-0.465
12.128,-0.910,-0.470
12.131,-0.900,-0.475
12.133,-0.895,-0.480
12.136,-0.905,-0.480
12.139,-0.915,-0.505
12.142,-0.920,-0.490
12.144,-0.925,-0.485
12.147,-0.900,-0.470
12.150,-0.895,-0.465
12.153,-0.890,-0.455
12.156,-0.890,-0.450
12.158,-0.880,-0.450
12.161,-0.900,-0.445
12.164,-0.890,-0.470
12.167,-0.900,-0.475
12.169,-0.905,-0.485
12.172,-0.885,-0.475
12.175,-0.895,-0.470
12.178,-0.895,-0.475
12.181,-0.890,-0.470
12.183,-0.885,-0.455
12.186,-0.885,-0.450
12.189,-0.880,-0.430
12.192,-0.880,-0.430
12.194,-0.860,-0.455
12.197,-0.865,-0.455
12.200,-0.875,-0.460
12.203,-0.880,-0.475
12.206,-0.890,-0.480
12.208,-0.885,-0.465
12.211,-0.885,-0.455
12.214,-0.870,-0.445
12.217,-0.870,-0.435
12.219,-0.865,-0.435
12.222,-0.860,-0.420
12.225,-0.860,-0.425
12.228,-0.855,-0.435
12.231,-0.870,-0.450
12.233,-0.880,-0.450
12.236,-0.880,-0.455
12.239,-0.880,-0.450
12.242,-0.885,-0.455
12.244,-0.895,-0.455
12.247,-0.880,-0.450
12.250,-0.880,-0.440
12.253,-0.860,-0.435
12.256,-0.855,-0.425
12.258,-0.850,-0.440
12.261,-0.860,-0.435
12.264,-0.850,-0.455
12.267,-0.860,-0.460
12.269,-0.870,-0.455
12.272,-0.865,-0.460
12.275,-0.870,-0.465
12.278,-0.870,-0.460
12.281,-0.870,-0.455
12.283,-0.855,-0.455
12.286,-0.855,-0.440
12.289,-0.850,-0.430
12.292,-0.840,-0.440
12.294,-0.850,-0.455
12.297,-0.855,-0.460
12.300,-0.855,-0.470
12.303,-0.855,-0.470
12.306,-0.875,-0.470
12.308,-0.860,-0.465
12.311,-0.865,-0.460
12.314,-0.850,-0.445
12.317,-0.845,-0.445
12.319,-0.845,-0.435
12.322,-0.845,-0.450
12.325,-0.825,-0.455
12.328,-0.840,-0.445
12.331,-0.835,-0.450
12.333,-0.840,-0.450
12.336,-0.835,-0.445
12.339,-0.840,-0.460
12.342,-0.845,-0.450
12.344,-0.850,-0.445
12.347,-0.850,-0.435
12.350,-0.840,-0.425
12.353,-0.835,-0.415
12.356,-0.830,-0.415
12.358,-0.825,-0.425
12.361,-0.830,-0.425
12.364,-0.835,-0.440
12.367,-0.835,-0.445
12.369,-0.865,-0.450
12.372,-0.850,-0.455
12.375,-0.855,-0.445
12.378,-0.855,-0.440
12.381,-0.855,-0.445
12.383,-0.840,-0.425
12.386,-0.835,-0.435
12.389,-0.830,-0.410
12.392,-0.815,-0.420
12.394,-0.825,-0.430
12.397,-0.825,-0.430
12.400,-0.825,-0.445
12.403,-0.820,-0.455
12.406,-0.835,-0.455
12.408,-0.840,-0.460
12.411,-0.830,-0.455
12.414,-0.835,-0.440
12.417,-0.820,-0.425
12.419,-0.820,-0.410
12.422,-0.810,-0.400
12.425,-0.800,-0.400
12.428,-0.800,-0.410
12.431,-0.805,-0.425
12.433,-0.810,-0.440
12.436,-0.820,-0.440
12.439,-0.825,-0.445
12.442,-0.830,-0.440
12.444,-0.825,-0.440
12.447,-0.825,-0.425
12.450,-0.825,-0.420
12.453,-0.825,-0.405
12.456,-0.810,-0.410
12.458,-0.805,-0.420
12.461,-0.805,-0.420
12.464,-0.805,-0.430
12.467,-0.820,-0.425
12.469,-0.820,-0.425
12.472,-0.820,-0.430
12.475,-0.810,-0.435
12.478,-0.815,-0.430
12.481,-0.810,-0.415
12.483,-0.820,-0.405
12.486,-0.805,-0.415
12.489,-0.800,-0.410
12.492,-0.800,-0.410
12.494,-0.800,-0.420
12.497,-0.795,-0.435
12.500,-0.805,-0.435
12.503,-0.805,-0.435
12.506,-0.810,-0.435
12.508,-0.815,-0.435
12.511,-0.805,-0.425
12.514,-0.810,-0.410
12.517,-0.810,-0.410
12.519,-0.795,-0.400
12.522,-0.785,-0.395
12.525,-0.785,-0.400
12.528,-0.780,-0.410
12.531,-0.780,-0.420
12.533,-0.785,-0.430
12.536,-0.785,-0.435
12.539,-0.790,-0.450
12.542,-0.780,-0.430
12.544,-0.795,-0.445
12.547,-0.790,-0.430
12.550,-0.785,-0.440
12.553,-0.780,-0.430
12.556,-0.770,-0.420
12.558,-0.745,-0.410
12.561,-0.740,-0.410
12.564,-0.740,-0.430
12.567,-0.745,-0.425
12.569,-0.745,-0.445
12.572,-0.735,-0.435
12.575,-0.740,-0.440
12.578,-0.735,-0.440
12.581,-0.745,-0.425
12.583,-0.745,-0.425
12.586,-0.745,-0.420
12.589,-0.735,-0.410
12.592,-0.735,-0.405
12.594,-0.745,-0.405
12.597,-0.745,-0.395
12.600,-0.750,-0.405
12.603,-0.745,-0.405
12.606,-0.755,-0.410
12.608,-0.765,-0.405
12.611,-0.730,-0.405
12.614,-0.720,-0.380
12.617,-0.710,-0.370
12.619,-0.705,-0.380
12.622,-0.715,-0.375
12.625,-0.715,-0.360
12.628,-0.725,-0.375
12.631,-0.740,-0.380
12.633,-0.755,-0.410
12.636,-0.775,-0.425
12.639,-0.785,-0.455
12.642,-0.800,-0.455
12.644,-0.810,-0.455
12.647,-0.815,-0.445
12.650,-0.815,-0.435
12.653,-0.815,-0.430
12.656,-0.805,-0.420
12.658,-0.795,-0.425
12.661,-0.795,-0.420
12.664,-0.795,-0.435
12.667,-0.800,-0.445
12.669,-0.810,-0.455
12.672,-0.820,-0.445
12.675,-0.830,-0.455
12.678,-0.815,-0.450
12.681,-0.820,-0.465
12.683,-0.820,-0.470
12.686,-0.835,-0.475
12.689,-0.815,-0.440
12.692,-0.785,-0.365
12.694,-0.720,-0.275
12.697,-0.650,-0.170
12.700,-0.560,-0.070
12.703,-0.485,-0.040
12.706,-0.430,-0.055
12.708,-0.400,-0.115
12.711,-0.410,-0.245
12.714,-0.470,-0.470
12.717,-0.585,-0.765
12.719,-0.730,-1.030
12.722,-0.870,-1.225
12.725,-0.940,-1.290
12.728,-0.880,-1.230
12.731,-0.740,-1.075
12.733,-0.535,-0.885
12.736,-0.295,-0.710
12.739,-0.040,-0.555
12.742,0.200,-0.440
12.744,0.430,-0.370
12.747,0.645,-0.345
12.750,0.835,-0.315
12.753,0.990,-0.305
12.756,1.100,-0.320
12.758,1.150,-0.370
12.761,1.140,-0.395
12.764,1.085,-0.430
12.767,0.985,-0.420
12.769,0.845,-0.405
12.772,0.655,-0.390
12.775,0.460,-0.370
12.778,0.260,-0.350
12.781,0.065,-0.345
12.783,-0.140,-0.345
12.786,-0.365,-0.370
12.789,-0.565,-0.405
12.792,-0.735,-0.460
12.794,-0.890,-0.490
12.797,-0.975,-0.500
12.800,-1.020,-0.505
12.803,-1.035,-0.480
12.806,-1.025,-0.445
12.808,-0.985,-0.400
12.811,-0.960,-0.385
12.814,-0.930,-0.355
12.817,-0.905,-0.320
12.819,-0.900,-0.305
12.822,-0.875,-0.285
12.825,-0.855,-0.280
12.828,-0.870,-0.275
12.831,-0.865,-0.280
12.833,-0.875,-0.285
12.836,-0.875,-0.290
12.839,-0.890,-0.300
12.842,-0.890,-0.295
12.844,-0.890,-0.285
12.847,-0.895,-0.290
12.850,-0.895,-0.265
12.853,-0.880,-0.265
12.856,-0.875,-0.260
12.858,-0.860,-0.265
12.861,-0.865,-0.260
12.864,-0.885,-0.270
12.867,-0.875,-0.265
12.869,-0.895,-0.260
12.872,-0.905,-0.265
12.875,-0.910,-0.275
12.878,-0.915,-0.260
12.881,-0.915,-0.260
12.883,-0.895,-0.250
12.886,-0.890,-0.245
12.889,-0.880,-0.245
12.892,-0.875,-0.240
12.894,-0.870,-0.250
12.897,-0.870,-0.240
12.900,-0.875,-0.260
12.903,-0.895,-0.270
12.906,-0.895,-0.265
12.908,-0.905,-0.270
12.911,-0.910,-0.275
12.914,-0.910,-0.280
12.917,-0.900,-0.245
12.919,-0.915,-0.245
12.922,-0.905,-0.245
12.925,-0.900,-0.245
12.928,-0.915,-0.260
12.931,-0.910,-0.260
12.933,-0.915,-0.265
12.936,-0.925,-0.270
12.939,-0.940,-0.290
12.942,-0.960,-0.285
12.944,-0.955,-0.295
12.947,-0.945,-0.295
12.950,-0.940,-0.280
12.953,-0.940,-0.290
12.956,-0.930,-0.275
12.958,-0.935,-0.275
12.961,-0.945,-0.290
12.964,-0.950,-0.295
12.967,-0.965,-0.295
12.969,-0.970,-0.320
12.972,-0.980,-0.320
12.975,-0.990,-0.325
12.978,-0.985,-0.330
12.981,-0.990,-0.315
12.983,-0.995,-0.325
12.986,-0.995,-0.330
12.989,-0.990,-0.335
12.992,-0.990,-0.340
12.994,-0.995,-0.340
12.997,-1.005,-0.360
13.000,-1.010,-0.390
13.003,-1.020,-0.395
13.006,-1.035,-0.425
13.008,-1.055,-0.425
13.011,-1.050,-0.430
13.014,-1.065,-0.425
13.017,-1.060,-0.435
13.019,-1.045,-0.430
13.022,-1.055,-0.440
13.025,-1.050,-0.455
13.028,-1.065,-0.475
13.031,-1.065,-0.480
13.033,-1.075,-0.500
13.036,-1.090,-0.515
13.039,-1.075,-0.535
13.042,-1.085,-0.540
13.044,-1.080,-0.545
13.047,-1.085,-0.535
13.050,-1.075,-0.540
13.053,-1.080,-0.545
13.056,-1.065,-0.550
13.058,-1.045,-0.560
13.061,-1.040,-0.580
13.064,-1.045,-0.575
13.067,-1.040,-0.595
13.069,-1.035,-0.610
13.072,-1.040,-0.615
13.075,-1.035,-0.620
13.078,-1.025,-0.620
13.081,-1.000,-0.610
13.083,-1.005,-0.620
13.086,-0.975,-0.610
13.089,-0.950,-0.605
13.092,-0.935,-0.605
13.094,-0.915,-0.605
13.097,-0.920,-0.615
13.100,-0.885,-0.615
13.103,-0.875,-0.615
13.106,-0.880,-0.610
13.108,-0.865,-0.610
13.111,-0.840,-0.605
13.114,-0.830,-0.595
13.117,-0.800,-0.590
13.119,-0.780,-0.595
13.122,-0.755,-0.570
13.125,-0.740,-0.570
13.128,-0.720,-0.585
13.131,-0.710,-0.570
13.133,-0.710,-0.580
13.136,-0.710,-0.565
13.139,-0.715,-0.575
13.142,-0.710,-0.575
13.144,-0.705,-0.565
13.147,-0.695,-0.550
13.150,-0.700,-0.535
13.153,-0.705,-0.545
13.156,-0.695,-0.535
13.158,-0.690,-0.520
13.161,-0.705,-0.520
13.164,-0.710,-0.520
13.167,-0.730,-0.535
13.169,-0.750,-0.535
13.172,-0.765,-0.545
13.175,-0.785,-0.540
13.178,-0.790,-0.535
13.181,-0.795,-0.535
13.183,-0.815,-0.525
13.186,-0.810,-0.520
13.189,-0.820,-0.510
13.192,-0.810,-0.505
13.194,-0.835,-0.510
13.197,-0.840,-0.530
13.200,-0.860,-0.525
13.203,-0.865,-0.560
13.206,-0.880,-0.560
13.208,-0.890,-0.555
13.211,-0.900,-0.550
13.214,-0.900,-0.535
13.217,-0.895,-0.515
13.219,-0.885,-0.515
13.222,-0.880,-0.500
13.225,-0.880,-0.510
13.228,-0.885,-0.520
13.231,-0.875,-0.530
13.233,-0.885,-0.535
13.236,-0.890,-0.530
13.239,-0.895,-0.540
13.242,-0.890,-0.535
13.244,-0.895,-0.525
13.247,-0.900,-0.515
13.250,-0.890,-0.520
13.253,-0.860,-0.510
13.256,-0.850,-0.505
13.258,-0.835,-0.515
13.261,-0.840,-0.495
13.264,-0.845,-0.510
13.267,-0.855,-0.515
13.269,-0.860,-0.525
13.272,-0.875,-0.525
13.275,-0.865,-0.520
13.278,-0.860,-0.510
13.281,-0.855,-0.505
13.283,-0.845,-0.510
13.286,-0.835,-0.480
13.289,-0.830,-0.485
13.292,-0.810,-0.485
13.294,-0.810,-0.485
13.297,-0.815,-0.500
13.300,-0.815,-0.495
13.303,-0.820,-0.500
13.306,-0.830,-0.505
13.308,-0.835,-0.510
13.311,-0.835,-0.500
13.314,-0.830,-0.495
13.317,-0.835,-0.490
13.319,-0.820,-0.475
13.322,-0.815,-0.465
13.325,-0.795,-0.455
13.328,-0.795,-0.465
13.331,-0.800,-0.465
13.333,-0.800,-0.475
13.336,-0.805,-0.485
13.339,-0.820,-0.500
13.342,-0.820,-0.500
13.344,-0.820,-0.485
13.347,-0.820,-0.495
13.350,-0.830,-0.480
13.353,-0.815,-0.475
13.356,-0.810,-0.465
13.358,-0.800,-0.460
13.361,-0.790,-0.455
13.364,-0.800,-0.470
13.367,-0.800,-0.465
13.369,-0.810,-0.470
13.372,-0.810,-0.480
13.375,-0.820,-0.490
13.378,-0.815,-0.475
13.381,-0.820,-0.475
13.383,-0.805,-0.470
13.386,-0.800,-0.475
13.389,-0.795,-0.455
13.392,-0.800,-0.460
13.394,-0.785,-0.465
13.397,-0.795,-0.470
13.400,-0.795,-0.485
13.403,-0.795,-0.485
13.406,-0.805,-0.495
13.408,-0.805,-0.480
13.411,-0.815,-0.475
13.414,-0.810,-0.475
13.417,-0.805,-0.470
13.419,-0.800,-0.470
13.422,-0.790,-0.455
13.425,-0.790,-0.465
13.428,-0.795,-0.450
13.431,-0.795,-0.460
13.433,-0.800,-0.460
13.436,-0.800,-0.470
13.439,-0.805,-0.480
13.442,-0.810,-0.480
13.444,-0.815,-0.475
13.447,-0.810,-0.475
13.450,-0.795,-0.455
13.453,-0.790,-0.450
13.456,-0.780,-0.435
13.458,-0.770,-0.435
13.461,-0.775,-0.455
13.464,-0.790,-0.465
13.467,-0.795,-0.460
13.469,-0.805,-0.485
13.472,-0.805,-0.490
13.475,-0.800,-0.480
13.478,-0.805,-0.465
13.481,-0.810,-0.465
13.483,-0.800,-0.455
13.486,-0.795,-0.450
13.489,-0.780,-0.435
13.492,-0.780,-0.445
13.494,-0.775,-0.450
13.497,-0.775,-0.455
13.500,-0.795,-0.470
13.503,-0.805,-0.470
13.506,-0.810,-0.480
13.508,-0.800,-0.480
13.511,-0.810,-0.475
13.514,-0.800,-0.465
13.517,-0.790,-0.455
13.519,-0.785,-0.445
13.522,-0.785,-0.435
13.525,-0.790,-0.435
13.528,-0.775,-0.445
13.531,-0.780,-0.445
13.533,-0.780,-0.460
13.536,-0.800,-0.480
13.539,-0.800,-0.495
13.542,-0.800,-0.485
13.544,-0.815,-0.480
13.547,-0.810,-0.465
13.550,-0.805,-0.465
13.553,-0.800,-0.460
13.556,-0.795,-0.455
13.558,-0.775,-0.445
13.561,-0.775,-0.460
13.564,-0.785,-0.455
13.567,-0.790,-0.470
13.569,-0.795,-0.475
13.572,-0.810,-0.480
13.575,-0.810,-0.485
13.578,-0.805,-0.480
13.581,-0.795,-0.455
13.583,-0.805,-0.455
13.586,-0.790,-0.465
13.589,-0.785,-0.470
13.592,-0.780,-0.460
13.594,-0.780,-0.465
13.597,-0.780,-0.465
13.600,-0.800,-0.475
13.603,-0.800,-0.485
13.606,-0.805,-0.490
13.608,-0.790,-0.485
13.611,-0.805,-0.480
13.614,-0.795,-0.465
13.617,-0.795,-0.465
13.619,-0.790,-0.470
13.622,-0.785,-0.460
13.625,-0.765,-0.475
13.628,-0.775,-0.465
13.631,-0.775,-0.475
13.633,-0.785,-0.480
13.636,-0.785,-0.490
13.639,-0.795,-0.495
13.642,-0.790,-0.485
13.644,-0.805,-0.475
13.647,-0.800,-0.480
13.650,-0.790,-0.470
13.653,-0.790,-0.460
13.656,-0.780,-0.450
13.658,-0.775,-0.455
13.661,-0.780,-0.465
13.664,-0.770,-0.465
13.667,-0.770,-0.460
13.669,-0.785,-0.470
13.672,-0.790,-0.475
13.675,-0.795,-0.470
13.678,-0.800,-0.480
13.681,-0.800,-0.465
13.683,-0.785,-0.455
13.686,-0.785,-0.455
13.689,-0.770,-0.460
13.692,-0.755,-0.450
13.694,-0.760,-0.445
13.697,-0.760,-0.455
13.700,-0.755,-0.460
13.703,-0.785,-0.465
13.706,-0.790,-0.465
13.708,-0.780,-0.475
13.711,-0.775,-0.470
13.714,-0.775,-0.465
13.717,-0.770,-0.450
13.719,-0.780,-0.455
13.722,-0.760,-0.460
13.725,-0.745,-0.460
13.728,-0.740,-0.460
13.731,-0.750,-0.460
13.733,-0.750,-0.475
13.736,-0.750,-0.475
13.739,-0.740,-0.465
13.742,-0.730,-0.470
13.744,-0.745,-0.460
13.747,-0.735,-0.460
13.750,-0.710,-0.450
13.753,-0.705,-0.445
13.756,-0.700,-0.435
13.758,-0.700,-0.435
13.761,-0.700,-0.445
13.764,-0.710,-0.460
13.767,-0.730,-0.455
13.769,-0.745,-0.460
13.772,-0.755,-0.485
13.775,-0.750,-0.470
13.778,-0.750,-0.465
13.781,-0.760,-0.460
13.783,-0.755,-0.440
13.786,-0.730,-0.415
13.789,-0.705,-0.405
13.792,-0.685,-0.395
13.794,-0.685,-0.405
13.797,-0.675,-0.410
13.800,-0.695,-0.430
13.803,-0.710,-0.445
13.806,-0.735,-0.465
13.808,-0.740,-0.455
13.811,-0.760,-0.470
13.814,-0.760,-0.455
13.817,-0.780,-0.465
13.819,-0.785,-0.465
13.822,-0.780,-0.450
13.825,-0.785,-0.465
13.828,-0.780,-0.460
13.831,-0.785,-0.465
13.833,-0.790,-0.490
13.836,-0.790,-0.505
13.839,-0.805,-0.500
13.842,-0.795,-0.490
13.844,-0.800,-0.495
13.847,-0.795,-0.495
13.850,-0.795,-0.480
13.853,-0.790,-0.495
13.856,-0.785,-0.520
13.858,-0.790,-0.530
13.861,-0.790,-0.540
13.864,-0.790,-0.530
13.867,-0.760,-0.455
13.869,-0.710,-0.360
13.872,-0.650,-0.255
13.875,-0.575,-0.170
13.878,-0.490,-0.120
13.881,-0.440,-0.140
13.883,-0.400,-0.205
13.886,-0.420,-0.395
13.889,-0.490,-0.645
13.892,-0.600,-0.925
13.894,-0.720,-1.145
13.897,-0.785,-1.235
13.900,-0.775,-1.185
13.903,-0.635,-1.020
13.906,-0.430,-0.810
13.908,-0.185,-0.580
13.911,0.085,-0.380
13.914,0.355,-0.220
13.917,0.600,-0.125
13.919,0.835,-0.070
13.922,1.040,-0.045
13.925,1.215,-0.045
13.928,1.340,-0.055
13.931,1.405,-0.125
13.933,1.420,-0.200
13.936,1.370,-0.305
13.939,1.285,-0.390
13.942,1.165,-0.435
13.944,1.005,-0.470
13.947,0.815,-0.480
13.950,0.610,-0.475
13.953,0.395,-0.450
13.956,0.180,-0.405
13.958,-0.020,-0.390
13.961,-0.250,-0.405
13.964,-0.480,-0.445
13.967,-0.700,-0.490
13.969,-0.885,-0.555
13.972,-1.015,-0.585
13.975,-1.075,-0.580
13.978,-1.095,-0.550
13.981,-1.070,-0.520
13.983,-1.040,-0.470
13.986,-1.005,-0.420
13.989,-0.985,-0.390
13.992,-0.940,-0.370
13.994,-0.925,-0.355
13.997,-0.920,-0.355
14.000,-0.915,-0.360
14.003,-0.930,-0.350
14.006,-0.950,-0.360
14.008,-0.945,-0.345
14.011,-0.955,-0.355
14.014,-0.945,-0.340
14.017,-0.950,-0.340
14.019,-0.935,-0.325
14.022,-0.940,-0.315
14.025,-0.935,-0.310
14.028,-0.935,-0.305
14.031,-0.935,-0.305
14.033,-0.935,-0.325
14.036,-0.945,-0.325
14.039,-0.955,-0.335
14.042,-0.960,-0.340
14.044,-0.955,-0.320
14.047,-0.970,-0.330
14.050,-0.970,-0.310
14.053,-0.965,-0.310
14.056,-0.960,-0.310
14.058,-0.955,-0.320
14.061,-0.945,-0.320
14.064,-0.965,-0.325
14.067,-0.970,-0.340
14.069,-0.980,-0.345
14.072,-0.985,-0.350
14.075,-0.985,-0.350
14.078,-0.990,-0.350
14.081,-0.995,-0.340
14.083,-0.985,-0.335
14.086,-0.990,-0.320
14.089,-0.980,-0.325
14.092,-0.980,-0.325
14.094,-0.985,-0.330
14.097,-0.985,-0.335
14.100,-0.980,-0.365
14.103,-1.000,-0.365
14.106,-1.010,-0.375
14.108,-1.020,-0.385
14.111,-1.020,-0.365
14.114,-1.025,-0.360
14.117,-1.025,-0.360
14.119,-1.005,-0.350
14.122,-1.020,-0.350
14.125,-1.015,-0.355
14.128,-1.010,-0.375
14.131,-1.015,-0.375
14.133,-1.025,-0.400
14.136,-1.030,-0.410
14.139,-1.045,-0.410
14.142,-1.055,-0.410
14.144,-1.055,-0.415
14.147,-1.060,-0.420
14.150,-1.065,-0.400
14.153,-1.065,-0.415
14.156,-1.075,-0.410
14.158,-1.070,-0.410
14.161,-1.070,-0.425
14.164,-1.075,-0.455
14.167,-1.085,-0.465
14.169,-1.095,-0.480
14.172,-1.115,-0.495
14.175,-1.115,-0.500
14.178,-1.125,-0.500
14.181,-1.125,-0.505
14.183,-1.125,-0.505
14.186,-1.125,-0.500
14.189,-1.125,-0.505
14.192,-1.125,-0.510
14.194,-1.105,-0.520
14.197,-1.105,-0.530
14.200,-1.115,-0.545
14.203,-1.120,-0.565
14.206,-1.120,-0.575
14.208,-1.130,-0.580
14.211,-1.130,-0.575
14.214,-1.110,-0.565
14.217,-1.105,-0.565
14.219,-1.095,-0.560
14.222,-1.080,-0.560
14.225,-1.055,-0.560
14.228,-1.050,-0.550
14.231,-1.055,-0.555
14.233,-1.035,-0.565
14.236,-1.035,-0.570
14.239,-1.020,-0.575
14.242,-1.005,-0.575
14.244,-1.000,-0.565
14.247,-0.980,-0.560
14.250,-0.955,-0.545
14.253,-0.940,-0.535
14.256,-0.910,-0.535
14.258,-0.890,-0.530
14.261,-0.885,-0.525
14.264,-0.870,-0.525
14.267,-0.875,-0.540
14.269,-0.860,-0.545
14.272,-0.840,-0.545
14.275,-0.835,-0.535
14.278,-0.815,-0.535
14.281,-0.805,-0.520
14.283,-0.800,-0.515
14.286,-0.770,-0.500
14.289,-0.765,-0.500
14.292,-0.745,-0.495
14.294,-0.740,-0.500
14.297,-0.735,-0.510
14.300,-0.735,-0.515
14.303,-0.750,-0.535
14.306,-0.755,-0.530
14.308,-0.770,-0.545
14.311,-0.765,-0.520
14.314,-0.775,-0.525
14.317,-0.770,-0.505
14.319,-0.765,-0.505
14.322,-0.770,-0.525
14.325,-0.765,-0.515
14.328,-0.790,-0.525
14.331,-0.790,-0.540
14.333,-0.805,-0.550
14.336,-0.820,-0.555
14.339,-0.835,-0.575
14.342,-0.855,-0.560
14.344,-0.865,-0.565
14.347,-0.875,-0.550
14.350,-0.880,-0.545
14.353,-0.890,-0.550
14.356,-0.890,-0.535
14.358,-0.905,-0.550
14.361,-0.900,-0.560
14.364,-0.925,-0.555
14.367,-0.925,-0.570
14.369,-0.925,-0.575
14.372,-0.945,-0.595
14.375,-0.935,-0.585
14.378,-0.950,-0.580
14.381,-0.960,-0.590
14.383,-0.965,-0.555
14.386,-0.950,-0.560
14.389,-0.950,-0.555
14.392,-0.945,-0.545
14.394,-0.940,-0.560
14.397,-0.945,-0.560
14.400,-0.940,-0.570
14.403,-0.950,-0.570
14.406,-0.945,-0.565
14.408,-0.935,-0.560
14.411,-0.935,-0.555
14.414,-0.940,-0.555
14.417,-0.930,-0.540
14.419,-0.935,-0.545
14.422,-0.940,-0.530
14.425,-0.920,-0.530
14.428,-0.900,-0.540
14.431,-0.900,-0.530
14.433,-0.900,-0.525
14.436,-0.900,-0.520
14.439,-0.905,-0.520
14.442,-0.905,-0.530
14.444,-0.900,-0.520
14.447,-0.895,-0.510
14.450,-0.890,-0.505
14.453,-0.885,-0.510
14.456,-0.885,-0.495
14.458,-0.870,-0.490
14.461,-0.865,-0.500
14.464,-0.885,-0.495
14.467,-0.865,-0.495
14.469,-0.880,-0.505
14.472,-0.885,-0.510
14.475,-0.865,-0.515
14.478,-0.870,-0.520
14.481,-0.875,-0.505
14.483,-0.880,-0.510
14.486,-0.870,-0.500
14.489,-0.865,-0.480
14.492,-0.850,-0.475
14.494,-0.855,-0.475
14.497,-0.845,-0.470
14.500,-0.860,-0.485
14.503,-0.850,-0.500
14.506,-0.855,-0.510
14.508,-0.850,-0.500
14.511,-0.860,-0.500
14.514,-0.855,-0.490
14.517,-0.850,-0.485
14.519,-0.845,-0.475
14.522,-0.840,-0.480
14.525,-0.835,-0.465
14.528,-0.830,-0.480
14.531,-0.830,-0.495
14.533,-0.840,-0.505
14.536,-0.840,-0.500
14.539,-0.845,-0.505
14.542,-0.850,-0.505
14.544,-0.850,-0.510
14.547,-0.840,-0.495
14.550,-0.845,-0.470
14.553,-0.830,-0.465
14.556,-0.820,-0.460
14.558,-0.825,-0.455
14.561,-0.815,-0.460
14.564,-0.825,-0.470
14.567,-0.830,-0.480
14.569,-0.835,-0.500
14.572,-0.840,-0.500
14.575,-0.840,-0.495
14.578,-0.840,-0.500
14.581,-0.835,-0.480
14.583,-0.835,-0.465
14.586,-0.825,-0.475
14.589,-0.825,-0.460
14.592,-0.825,-0.460
14.594,-0.825,-0.465
14.597,-0.820,-0.480
14.600,-0.810,-0.480
14.603,-0.830,-0.480
14.606,-0.825,-0.505
14.608,-0.830,-0.495
14.611,-0.825,-0.495
14.614,-0.820,-0.490
14.617,-0.820,-0.470
14.619,-0.820,-0.470
14.622,-0.810,-0.460
14.625,-0.795,-0.470
14.628,-0.810,-0.460
14.631,-0.815,-0.470
14.633,-0.815,-0.485
14.636,-0.825,-0.500
14.639,-0.800,-0.505
14.642,-0.815,-0.500
14.644,-0.830,-0.505
14.647,-0.825,-0.495
14.650,-0.820,-0.475
14.653,-0.815,-0.475
14.656,-0.815,-0.470
14.658,-0.790,-0.445
14.661,-0.800,-0.460
14.664,-0.800,-0.475
14.667,-0.805,-0.490
14.669,-0.810,-0.495
14.672,-0.810,-0.505
14.675,-0.825,-0.495
14.678,-0.825,-0.490
14.681,-0.825,-0.475
14.683,-0.820,-0.470
14.686,-0.820,-0.475
14.689,-0.810,-0.485
14.692,-0.795,-0.485
14.694,-0.805,-0.475
14.697,-0.810,-0.490
14.700,-0.810,-0.485
14.703,-0.815,-0.495
14.706,-0.810,-0.490
14.708,-0.815,-0.500
14.711,-0.825,-0.485
14.714,-0.810,-0.490
14.717,-0.800,-0.470
14.719,-0.800,-0.455
14.722,-0.790,-0.465
14.725,-0.805,-0.465
14.728,-0.800,-0.475
14.731,-0.800,-0.480
14.733,-0.790,-0.495
14.736,-0.800,-0.495
14.739,-0.805,-0.515
14.742,-0.810,-0.515
14.744,-0.810,-0.500
14.747,-0.805,-0.485
14.750,-0.805,-0.475
14.753,-0.795,-0.470
14.756,-0.800,-0.465
14.758,-0.780,-0.465
14.761,-0.790,-0.470
14.764,-0.795,-0.490
14.767,-0.800,-0.505
14.769,-0.800,-0.510
14.772,-0.810,-0.505
14.775,-0.800,-0.495
14.778,-0.810,-0.480
14.781,-0.805,-0.475
14.783,-0.800,-0.470
14.786,-0.805,-0.480
14.789,-0.780,-0.470
14.792,-0.785,-0.475
14.794,-0.790,-0.465
14.797,-0.790,-0.460
14.800,-0.785,-0.485
14.803,-0.800,-0.485
14.806,-0.790,-0.500
14.808,-0.800,-0.490
14.811,-0.805,-0.490
14.814,-0.810,-0.485
14.817,-0.810,-0.480
14.819,-0.800,-0.480
14.822,-0.790,-0.465
14.825,-0.785,-0.460
14.828,-0.780,-0.470
14.831,-0.790,-0.470
14.833,-0.795,-0.485
14.836,-0.800,-0.500
14.839,-0.795,-0.505
14.842,-0.800,-0.510
14.844,-0.810,-0.505
14.847,-0.800,-0.505
14.850,-0.800,-0.485
14.853,-0.800,-0.485
14.856,-0.795,-0.470
14.858,-0.775,-0.470
14.861,-0.785,-0.470
14.864,-0.805,-0.470
14.867,-0.785,-0.485
14.869,-0.790,-0.500
14.872,-0.790,-0.500
14.875,-0.800,-0.490
14.878,-0.810,-0.500
14.881,-0.805,-0.500
14.883,-0.800,-0.480
14.886,-0.790,-0.490
14.889,-0.790,-0.490
14.892,-0.770,-0.490
14.894,-0.770,-0.470
14.897,-0.790,-0.485
14.900,-0.785,-0.495
14.903,-0.795,-0.490
14.906,-0.795,-0.505
14.908,-0.795,-0.510
14.911,-0.790,-0.500
14.914,-0.800,-0.495
14.917,-0.785,-0.490
14.919,-0.775,-0.485
14.922,-0.760,-0.470
14.925,-0.760,-0.470
14.928,-0.765,-0.475
14.931,-0.765,-0.490
14.933,-0.760,-0.490
14.936,-0.765,-0.505
14.939,-0.765,-0.515
14.942,-0.765,-0.500
14.944,-0.760,-0.515
14.947,-0.770,-0.510
14.950,-0.765,-0.505
14.953,-0.760,-0.500
14.956,-0.755,-0.485
14.958,-0.740,-0.480
14.961,-0.735,-0.485
14.964,-0.730,-0.485
14.967,-0.715,-0.500
14.969,-0.715,-0.520
14.972,-0.720,-0.520
14.975,-0.715,-0.520
14.978,-0.720,-0.515
14.981,-0.725,-0.505
14.983,-0.740,-0.495
14.986,-0.730,-0.480
14.989,-0.740,-0.480
14.992,-0.730,-0.470
14.994,-0.730,-0.480
14.997,-0.740,-0.480
15.000,-0.730,-0.495
15.003,-0.740,-0.485
15.006,-0.745,-0.505
15.008,-0.730,-0.490
15.011,-0.715,-0.460
15.014,-0.705,-0.460
15.017,-0.685,-0.435
15.019,-0.685,-0.435
15.022,-0.695,-0.435
15.025,-0.700,-0.445
15.028,-0.705,-0.460
15.031,-0.720,-0.470
15.033,-0.740,-0.505
15.036,-0.760,-0.510
15.039,-0.780,-0.535
15.042,-0.780,-0.530
15.044,-0.805,-0.525
15.047,-0.805,-0.525
15.050,-0.790,-0.515
15.053,-0.790,-0.495
15.056,-0.785,-0.495
15.058,-0.780,-0.495
15.061,-0.780,-0.505
15.064,-0.780,-0.515
15.067,-0.785,-0.530
15.069,-0.785,-0.530
15.072,-0.805,-0.550
15.075,-0.810,-0.575
15.078,-0.805,-0.580
15.081,-0.820,-0.585
15.083,-0.825,-0.585
15.086,-0.805,-0.530
15.089,-0.775,-0.455
15.092,-0.705,-0.335
15.094,-0.615,-0.225
15.097,-0.520,-0.145
15.100,-0.455,-0.105
15.103,-0.405,-0.120
15.106,-0.375,-0.190
15.108,-0.385,-0.350
15.111,-0.460,-0.575
15.114,-0.585,-0.865
15.117,-0.730,-1.135
15.119,-0.865,-1.335
15.122,-0.915,-1.390
15.125,-0.855,-1.310
15.128,-0.710,-1.145
15.131,-0.490,-0.940
15.133,-0.235,-0.735
15.136,0.000,-0.585
15.139,0.220,-0.465
15.142,0.420,-0.415
15.144,0.610,-0.395
15.147,0.795,-0.385
15.150,0.955,-0.380
15.153,1.075,-0.385
15.156,1.155,-0.410
15.158,1.185,-0.460
15.161,1.170,-0.490
15.164,1.120,-0.480
15.167,1.010,-0.465
15.169,0.850,-0.470
15.172,0.650,-0.455
15.175,0.435,-0.440
15.178,0.195,-0.445
15.181,-0.065,-0.445
15.183,-0.315,-0.485
15.186,-0.585,-0.520
15.189,-0.785,-0.555
15.192,-0.925,-0.595
15.194,-1.015,-0.595
15.197,-1.040,-0.580
15.200,-1.035,-0.550
15.203,-1.010,-0.520
15.206,-0.990,-0.500
15.208,-0.960,-0.475
15.211,-0.935,-0.455
15.214,-0.920,-0.440
15.217,-0.910,-0.425
15.219,-0.900,-0.405
15.222,-0.900,-0.405
15.225,-0.885,-0.400
15.228,-0.895,-0.405
15.231,-0.900,-0.415
15.233,-0.910,-0.420
15.236,-0.925,-0.425
15.239,-0.935,-0.425
15.242,-0.935,-0.425
15.244,-0.935,-0.425
15.247,-0.930,-0.420
15.250,-0.915,-0.405
15.253,-0.915,-0.400
15.256,-0.915,-0.390
15.258,-0.900,-0.390
15.261,-0.920,-0.405
15.264,-0.910,-0.395
15.267,-0.915,-0.405
15.269,-0.920,-0.415
15.272,-0.935,-0.420
15.275,-0.925,-0.420
15.278,-0.925,-0.410
15.281,-0.935,-0.405
15.283,-0.945,-0.385
15.286,-0.930,-0.380
15.289,-0.930,-0.390
15.292,-0.910,-0.365
15.294,-0.915,-0.405
15.297,-0.915,-0.395
15.300,-0.925,-0.405
15.303,-0.930,-0.420
15.306,-0.950,-0.415
15.308,-0.960,-0.425
15.311,-0.950,-0.410
15.314,-0.950,-0.415
15.317,-0.940,-0.395
15.319,-0.945,-0.390
15.322,-0.935,-0.395
15.325,-0.930,-0.390
15.328,-0.935,-0.405
15.331,-0.940,-0.405
15.333,-0.950,-0.415
15.336,-0.970,-0.420
15.339,-0.975,-0.425
15.342,-0.970,-0.430
15.344,-0.970,-0.420
15.347,-0.975,-0.415
15.350,-0.965,-0.410
15.353,-0.975,-0.410
15.356,-0.960,-0.415
15.358,-0.960,-0.410
15.361,-0.960,-0.415
15.364,-0.985,-0.430
15.367,-0.985,-0.445
15.369,-0.985,-0.450
15.372,-0.985,-0.465
15.375,-0.995,-0.475
15.378,-1.020,-0.470
15.381,-1.005,-0.470
15.383,-1.025,-0.470
15.386,-1.020,-0.475
15.389,-1.025,-0.470
15.392,-1.015,-0.475
15.394,-1.005,-0.500
15.397,-1.030,-0.500
15.400,-1.035,-0.525
15.403,-1.045,-0.525
15.406,-1.040,-0.545
15.408,-1.055,-0.555
15.411,-1.070,-0.560
15.414,-1.065,-0.560
15.417,-1.060,-0.560
15.419,-1.055,-0.570
15.422,-1.060,-0.570
15.425,-1.065,-0.570
15.428,-1.040,-0.585
15.431,-1.050,-0.595
15.433,-1.055,-0.625
15.436,-1.075,-0.640
15.439,-1.080,-0.655
15.442,-1.080,-0.660
15.444,-1.090,-0.670
15.447,-1.080,-0.665
15.450,-1.060,-0.655
15.453,-1.050,-0.655
15.456,-1.035,-0.650
15.458,-1.025,-0.645
15.461,-1.020,-0.660
15.464,-1.015,-0.665
15.467,-1.025,-0.675
15.469,-1.015,-0.680
15.472,-1.025,-0.700
15.475,-1.015,-0.715
15.478,-0.995,-0.705
15.481,-0.985,-0.700
15.483,-0.965,-0.685
15.486,-0.945,-0.680
15.489,-0.925,-0.665
15.492,-0.910,-0.665
15.494,-0.895,-0.670
15.497,-0.870,-0.665
15.500,-0.875,-0.680
15.503,-0.875,-0.680
15.506,-0.865,-0.700
15.508,-0.845,-0.695
15.511,-0.840,-0.690
15.514,-0.820,-0.675
15.517,-0.800,-0.650
15.519,-0.785,-0.640
15.522,-0.765,-0.630
15.525,-0.760,-0.615
15.528,-0.760,-0.625
15.531,-0.750,-0.625
15.533,-0.740,-0.635
15.536,-0.725,-0.630
15.539,-0.725,-0.645
15.542,-0.735,-0.645
15.544,-0.730,-0.635
15.547,-0.720,-0.630
15.550,-0.720,-0.615
15.553,-0.710,-0.610
15.556,-0.705,-0.595
15.558,-0.690,-0.600
15.561,-0.700,-0.595
15.564,-0.710,-0.605
15.567,-0.710,-0.625
15.569,-0.715,-0.640
15.572,-0.725,-0.650
15.575,-0.760,-0.645
15.578,-0.770,-0.645
15.581,-0.785,-0.635
15.583,-0.785,-0.635
15.586,-0.795,-0.615
15.589,-0.800,-0.610
15.592,-0.805,-0.615
15.594,-0.815,-0.625
15.597,-0.825,-0.635
15.600,-0.850,-0.645
15.603,-0.875,-0.660
15.606,-0.895,-0.665
15.608,-0.905,-0.660
15.611,-0.900,-0.650
15.614,-0.910,-0.645
15.617,-0.910,-0.635
15.619,-0.900,-0.630
15.622,-0.900,-0.615
15.625,-0.895,-0.620
15.628,-0.910,-0.625
15.631,-0.915,-0.640
15.633,-0.910,-0.650
15.636,-0.920,-0.650
15.639,-0.920,-0.650
15.642,-0.925,-0.660
15.644,-0.935,-0.650
15.647,-0.935,-0.640
15.650,-0.930,-0.625
15.653,-0.925,-0.610
15.656,-0.920,-0.620
15.658,-0.915,-0.625
15.661,-0.905,-0.630
15.664,-0.905,-0.630
15.667,-0.920,-0.645
15.669,-0.910,-0.640
15.672,-0.910,-0.640
15.675,-0.910,-0.625
15.678,-0.905,-0.615
15.681,-0.905,-0.600
15.683,-0.900,-0.605
15.686,-0.895,-0.590
15.689,-0.890,-0.580
15.692,-0.875,-0.600
15.694,-0.875,-0.610
15.697,-0.875,-0.600
15.700,-0.875,-0.605
15.703,-0.875,-0.625
15.706,-0.885,-0.605
15.708,-0.880,-0.605
15.711,-0.890,-0.610
15.714,-0.880,-0.590
15.717,-0.870,-0.590
15.719,-0.870,-0.585
15.722,-0.865,-0.585
15.725,-0.855,-0.585
15.728,-0.850,-0.585
15.731,-0.860,-0.590
15.733,-0.850,-0.590
15.736,-0.860,-0.600
15.739,-0.865,-0.590
15.742,-0.870,-0.595
15.744,-0.860,-0.590
15.747,-0.870,-0.590
15.750,-0.860,-0.585
15.753,-0.840,-0.585
15.756,-0.855,-0.570
15.758,-0.845,-0.570
15.761,-0.840,-0.555
15.764,-0.845,-0.580
15.767,-0.855,-0.575
15.769,-0.865,-0.585
15.772,-0.860,-0.595
15.775,-0.855,-0.585
15.778,-0.855,-0.600
15.781,-0.850,-0.595
15.783,-0.845,-0.590
15.786,-0.840,-0.585
15.789,-0.835,-0.575
15.792,-0.825,-0.575
15.794,-0.825,-0.575
15.797,-0.830,-0.580
15.800,-0.835,-0.580
15.803,-0.845,-0.580
15.806,-0.845,-0.605
15.808,-0.850,-0.600
15.811,-0.855,-0.600
15.814,-0.850,-0.590
15.817,-0.840,-0.585
15.819,-0.830,-0.580
15.822,-0.830,-0.575
15.825,-0.825,-0.580
15.828,-0.820,-0.570
15.831,-0.820,-0.585
15.833,-0.820,-0.585
15.836,-0.835,-0.600
15.839,-0.830,-0.605
15.842,-0.830,-0.600
15.844,-0.835,-0.600
15.847,-0.830,-0.590
15.850,-0.830,-0.585
15.853,-0.830,-0.575
15.856,-0.820,-0.575
15.858,-0.800,-0.575
15.861,-0.810,-0.570
15.864,-0.810,-0.580
15.867,-0.810,-0.590
15.869,-0.830,-0.595
15.872,-0.825,-0.605
15.875,-0.840,-0.605
15.878,-0.830,-0.615
15.881,-0.835,-0.600
15.883,-0.835,-0.580
15.886,-0.815,-0.570
15.889,-0.830,-0.560
15.892,-0.810,-0.560
15.894,-0.815,-0.575
15.897,-0.820,-0.580
15.900,-0.820,-0.600
15.903,-0.825,-0.600
15.906,-0.835,-0.610
15.908,-0.830,-0.610
15.911,-0.830,-0.590
15.914,-0.835,-0.585
15.917,-0.830,-0.585
15.919,-0.825,-0.585
15.922,-0.810,-0.575
15.925,-0.805,-0.575
15.928,-0.805,-0.585
15.931,-0.810,-0.580
15.933,-0.805,-0.590
15.936,-0.815,-0.600
15.939,-0.820,-0.590
15.942,-0.835,-0.600
15.944,-0.815,-0.590
15.947,-0.820,-0.600
15.950,-0.810,-0.590
15.953,-0.805,-0.585
15.956,-0.805,-0.570
15.958,-0.795,-0.575
15.961,-0.785,-0.560
15.964,-0.795,-0.580
15.967,-0.800,-0.580
15.969,-0.810,-0.595
15.972,-0.810,-0.595
15.975,-0.820,-0.595
15.978,-0.815,-0.595
15.981,-0.810,-0.595
15.983,-0.815,-0.585
15.986,-0.810,-0.590
15.989,-0.815,-0.580
15.992,-0.805,-0.570
15.994,-0.800,-0.580
15.997,-0.790,-0.575
16.000,-0.790,-0.585
16.003,-0.805,-0.605
16.006,-0.815,-0.600
16.008,-0.810,-0.595
16.011,-0.815,-0.600
16.014,-0.815,-0.610
16.017,-0.815,-0.595
16.019,-0.820,-0.590
16.022,-0.810,-0.585
16.025,-0.795,-0.580
16.028,-0.795,-0.575
16.031,-0.795,-0.575
16.033,-0.805,-0.585
16.036,-0.805,-0.585
16.039,-0.805,-0.605
16.042,-0.820,-0.610
16.044,-0.820,-0.615
16.047,-0.835,-0.615
16.050,-0.825,-0.595
16.053,-0.810,-0.570
16.056,-0.815,-0.575
16.058,-0.805,-0.585
16.061,-0.805,-0.580
16.064,-0.805,-0.585
16.067,-0.805,-0.610
16.069,-0.815,-0.605
16.072,-0.815,-0.615
16.075,-0.820,-0.615
16.078,-0.835,-0.610
16.081,-0.830,-0.590
16.083,-0.830,-0.580
16.086,-0.810,-0.580
16.089,-0.800,-0.575
16.092,-0.800,-0.575
16.094,-0.805,-0.580
16.097,-0.805,-0.580
16.100,-0.815,-0.590
16.103,-0.815,-0.595
16.106,-0.820,-0.605
16.108,-0.815,-0.615
16.111,-0.820,-0.615
16.114,-0.820,-0.605
16.117,-0.815,-0.595
16.119,-0.800,-0.600
16.122,-0.805,-0.575
16.125,-0.805,-0.585
16.128,-0.805,-0.580
16.131,-0.795,-0.590
16.133,-0.790,-0.565
16.136,-0.780,-0.565
16.139,-0.785,-0.570
16.142,-0.770,-0.585
16.144,-0.765,-0.580
16.147,-0.765,-0.575
16.150,-0.755,-0.570
16.153,-0.745,-0.565
16.156,-0.735,-0.550
16.158,-0.735,-0.545
16.161,-0.750,-0.550
16.164,-0.760,-0.545
16.167,-0.770,-0.570
16.169,-0.780,-0.575
16.172,-0.795,-0.575
16.175,-0.795,-0.575
16.178,-0.795,-0.580
16.181,-0.790,-0.570
16.183,-0.795,-0.545
16.186,-0.785,-0.530
16.189,-0.775,-0.525
16.192,-0.745,-0.510
16.194,-0.735,-0.510
16.197,-0.720,-0.500
16.200,-0.715,-0.515
16.203,-0.735,-0.540
16.206,-0.750,-0.545
16.208,-0.775,-0.570
16.211,-0.795,-0.580
16.214,-0.825,-0.585
16.217,-0.830,-0.570
16.219,-0.830,-0.575
16.222,-0.840,-0.565
16.225,-0.840,-0.565
16.228,-0.830,-0.575
16.231,-0.825,-0.570
16.233,-0.840,-0.585
16.236,-0.840,-0.595
16.239,-0.840,-0.605
16.242,-0.840,-0.605
16.244,-0.855,-0.620
16.247,-0.855,-0.620
16.250,-0.845,-0.630
16.253,-0.865,-0.640
16.256,-0.850,-0.620
16.258,-0.830,-0.565
16.261,-0.785,-0.490
16.264,-0.725,-0.385
16.267,-0.650,-0.290
16.269,-0.570,-0.215
16.272,-0.495,-0.210
16.275,-0.450,-0.260
16.278,-0.445,-0.385
16.281,-0.490,-0.605
16.283,-0.590,-0.875
16.286,-0.720,-1.115
16.289,-0.825,-1.275
16.292,-0.850,-1.310
16.294,-0.785,-1.210
16.297,-0.635,-1.020
16.300,-0.405,-0.810
16.303,-0.150,-0.600
16.306,0.100,-0.450
16.308,0.355,-0.345
16.311,0.585,-0.255
16.314,0.800,-0.225
16.317,1.000,-0.200
16.319,1.165,-0.175
16.322,1.295,-0.170
16.325,1.375,-0.205
16.328,1.395,-0.275
16.331,1.355,-0.380
16.333,1.260,-0.470
16.336,1.125,-0.545
16.339,0.940,-0.605
16.342,0.710,-0.630
16.344,0.475,-0.600
16.347,0.250,-0.570
16.350,0.035,-0.520
16.353,-0.175,-0.505
16.356,-0.375,-0.495
16.358,-0.570,-0.540
16.361,-0.745,-0.590
16.364,-0.890,-0.645
16.367,-1.005,-0.675
16.369,-1.065,-0.675
