'Elapsed time','MLII','V1'
'seconds','mV','mV'
0.000,0.350,0.105
0.003,0.350,0.105
0.006,0.350,0.105
0.008,0.350,0.105
0.011,0.350,0.105
0.014,0.350,0.105
0.017,0.350,0.105
0.019,0.350,0.105
0.022,0.350,0.105
0.025,0.020,0.115
0.028,-0.210,0.090
0.031,-0.330,0.075
0.033,-0.370,0.095
0.036,-0.335,0.115
0.039,-0.285,0.090
0.042,-0.230,0.085
0.044,-0.215,0.090
0.047,-0.200,0.085
0.050,-0.190,0.070
0.053,-0.200,0.075
0.056,-0.200,0.090
0.058,-0.210,0.095
0.061,-0.230,0.070
0.064,-0.250,0.030
0.067,-0.255,0.040
0.069,-0.245,0.070
0.072,-0.240,0.065
0.075,-0.215,0.040
0.078,-0.235,0.040
0.081,-0.230,0.045
0.083,-0.230,0.040
0.086,-0.205,0.015
0.089,-0.180,0.040
0.092,-0.165,0.050
0.094,-0.195,0.060
0.097,-0.210,0.040
0.100,-0.215,0.030
0.103,-0.195,0.060
0.106,-0.170,0.085
0.108,-0.155,0.070
0.111,-0.175,0.045
0.114,-0.195,0.050
0.117,-0.210,0.065
0.119,-0.200,0.090
0.122,-0.200,0.080
0.125,-0.195,0.075
0.128,-0.185,0.075
0.131,-0.185,0.050
0.133,-0.180,0.045
0.136,-0.175,0.065
0.139,-0.175,0.070
0.142,-0.165,0.085
0.144,-0.140,0.075
0.147,-0.120,0.045
0.150,-0.115,0.060
0.153,-0.130,0.075
0.156,-0.155,0.060
0.158,-0.190,0.035
0.161,-0.190,0.040
0.164,-0.185,0.055
0.167,-0.180,0.070
0.169,-0.160,0.060
0.172,-0.140,0.070
0.175,-0.130,0.070
0.178,-0.110,0.070
0.181,-0.120,0.055
0.183,-0.130,0.040
0.186,-0.130,0.050
0.189,-0.125,0.080
0.192,-0.095,0.085
0.194,-0.095,0.060
0.197,-0.090,0.050
0.200,-0.080,0.065
0.203,-0.075,0.080
0.206,-0.070,0.070
0.208,-0.075,0.050
0.211,-0.065,0.065
0.214,-0.055,0.060
0.217,-0.060,0.075
0.219,-0.055,0.055
0.222,-0.040,0.060
0.225,-0.030,0.080
0.228,-0.020,0.065
0.231,-0.015,0.050
0.233,-0.015,0.040
0.236,-0.010,0.065
0.239,0.015,0.095
0.242,0.035,0.075
0.244,0.025,0.050
0.247,0.015,0.065
0.250,0.015,0.070
0.253,0.025,0.060
0.256,0.025,0.055
0.258,0.040,0.050
0.261,0.040,0.070
0.264,0.030,0.065
0.267,0.015,0.065
0.269,0.020,0.070
0.272,0.035,0.085
0.275,0.045,0.090
0.278,0.050,0.060
0.281,0.025,0.035
0.283,0.020,0.055
0.286,0.020,0.085
0.289,0.010,0.095
0.292,0.010,0.080
0.294,0.000,0.080
0.297,-0.005,0.075
0.300,-0.025,0.075
0.303,-0.020,0.070
0.306,-0.030,0.070
0.308,-0.030,0.085
0.311,-0.035,0.075
0.314,-0.045,0.060
0.317,-0.055,0.055
0.319,-0.060,0.085
0.322,-0.065,0.105
0.325,-0.075,0.085
0.328,-0.080,0.060
0.331,-0.075,0.045
0.333,-0.075,0.060
0.336,-0.075,0.085
0.339,-0.070,0.090
0.342,-0.075,0.075
0.344,-0.080,0.085
0.347,-0.090,0.090
0.350,-0.100,0.095
0.353,-0.095,0.080
0.356,-0.095,0.075
0.358,-0.085,0.080
0.361,-0.095,0.095
0.364,-0.100,0.080
0.367,-0.100,0.085
0.369,-0.115,0.085
0.372,-0.115,0.095
0.375,-0.130,0.090
0.378,-0.140,0.060
0.381,-0.150,0.050
0.383,-0.160,0.085
0.386,-0.145,0.100
0.389,-0.155,0.095
0.392,-0.160,0.080
0.394,-0.170,0.090
0.397,-0.185,0.085
0.400,-0.175,0.085
0.403,-0.170,0.080
0.406,-0.165,0.075
0.408,-0.170,0.090
0.411,-0.170,0.105
0.414,-0.165,0.070
0.417,-0.180,0.075
0.419,-0.180,0.080
0.422,-0.200,0.105
0.425,-0.200,0.095
0.428,-0.215,0.075
0.431,-0.205,0.045
0.433,-0.210,0.065
0.436,-0.205,0.100
0.439,-0.210,0.090
0.442,-0.220,0.075
0.444,-0.225,0.080
0.447,-0.225,0.080
0.450,-0.240,0.075
0.453,-0.225,0.060
0.456,-0.210,0.055
0.458,-0.205,0.085
0.461,-0.195,0.095
0.464,-0.190,0.070
0.467,-0.200,0.065
0.469,-0.190,0.090
0.472,-0.190,0.105
0.475,-0.185,0.115
0.478,-0.170,0.075
0.481,-0.170,0.070
0.483,-0.175,0.090
0.486,-0.165,0.110
0.489,-0.165,0.105
0.492,-0.185,0.090
0.494,-0.185,0.085
0.497,-0.205,0.090
0.500,-0.205,0.085
0.503,-0.210,0.080
0.506,-0.195,0.060
0.508,-0.195,0.090
0.511,-0.190,0.090
0.514,-0.195,0.060
0.517,-0.195,0.065
0.519,-0.195,0.065
0.522,-0.185,0.090
0.525,-0.175,0.085
0.528,-0.175,0.045
0.531,-0.200,0.025
0.533,-0.225,0.040
0.536,-0.250,0.070
0.539,-0.240,0.055
0.542,-0.240,0.030
0.544,-0.240,0.020
0.547,-0.250,0.020
0.550,-0.260,0.030
0.553,-0.270,0.015
0.556,-0.280,-0.015
0.558,-0.305,0.000
0.561,-0.335,0.015
0.564,-0.350,0.000
0.567,-0.340,-0.025
0.569,-0.285,-0.030
0.572,-0.205,-0.020
0.575,-0.135,-0.020
0.578,-0.095,-0.055
0.581,-0.045,-0.080
0.583,0.010,-0.070
0.586,0.075,-0.040
0.589,0.140,-0.055
0.592,0.175,-0.065
0.594,0.135,-0.095
0.597,0.045,-0.080
0.600,-0.155,-0.065
0.603,-0.425,-0.070
0.606,-0.710,-0.085
0.608,-0.915,-0.065
0.611,-1.090,-0.050
0.614,-1.255,-0.060
0.617,-1.395,-0.080
0.619,-1.465,-0.080
0.622,-1.505,-0.030
0.625,-1.490,-0.020
0.628,-1.450,-0.025
0.631,-1.390,-0.050
0.633,-1.340,-0.005
0.636,-1.270,0.030
0.639,-1.155,0.045
0.642,-1.025,0.045
0.644,-0.950,0.025
0.647,-0.930,0.030
0.650,-0.930,0.050
0.653,-0.910,0.040
0.656,-0.885,0.030
0.658,-0.865,0.015
0.661,-0.840,0.040
0.664,-0.800,0.040
0.667,-0.755,0.025
0.669,-0.715,0.020
0.672,-0.660,0.035
0.675,-0.630,0.055
0.678,-0.580,0.040
0.681,-0.540,0.010
0.683,-0.510,0.015
0.686,-0.465,0.040
0.689,-0.435,0.070
0.692,-0.395,0.070
0.694,-0.365,0.045
0.697,-0.315,0.055
0.700,-0.265,0.080
0.703,-0.200,0.090
0.706,-0.155,0.090
0.708,-0.090,0.080
0.711,-0.040,0.090
0.714,-0.015,0.100
0.717,-0.010,0.105
0.719,0.005,0.100
0.722,0.030,0.100
0.725,0.055,0.130
0.728,0.080,0.130
0.731,0.085,0.095
0.733,0.090,0.090
0.736,0.110,0.090
0.739,0.110,0.135
0.742,0.130,0.140
0.744,0.150,0.115
0.747,0.155,0.100
0.750,0.150,0.115
0.753,0.180,0.150
0.756,0.185,0.135
0.758,0.205,0.115
0.761,0.220,0.110
0.764,0.235,0.125
0.767,0.235,0.150
0.769,0.255,0.135
0.772,0.270,0.125
0.775,0.290,0.150
0.778,0.290,0.140
0.781,0.300,0.125
0.783,0.300,0.105
0.786,0.305,0.115
0.789,0.325,0.155
0.792,0.315,0.165
0.794,0.310,0.130
0.797,0.315,0.120
0.800,0.315,0.145
0.803,0.345,0.160
0.806,0.360,0.155
0.808,0.370,0.125
0.811,0.375,0.125
0.814,0.375,0.130
0.817,0.365,0.155
0.819,0.375,0.140
0.822,0.385,0.130
0.825,0.410,0.145
0.828,0.405,0.140
0.831,0.400,0.125
0.833,0.400,0.100
0.836,0.405,0.130
0.839,0.400,0.160
0.842,0.410,0.150
0.844,0.395,0.130
0.847,0.400,0.105
0.850,0.385,0.140
0.853,0.390,0.150
0.856,0.395,0.140
0.858,0.385,0.120
0.861,0.380,0.135
0.864,0.355,0.125
0.867,0.355,0.130
0.869,0.355,0.110
0.872,0.350,0.125
0.875,0.325,0.140
0.878,0.300,0.120
0.881,0.280,0.090
0.883,0.250,0.100
0.886,0.250,0.110
0.889,0.250,0.135
0.892,0.250,0.130
0.894,0.235,0.100
0.897,0.210,0.095
0.900,0.175,0.115
0.903,0.165,0.130
0.906,0.160,0.115
0.908,0.145,0.095
0.911,0.140,0.105
0.914,0.145,0.120
0.917,0.130,0.110
0.919,0.100,0.100
0.922,0.080,0.110
0.925,0.040,0.125
0.928,0.015,0.120
0.931,-0.010,0.085
0.933,-0.025,0.080
0.936,-0.025,0.105
0.939,-0.030,0.125
0.942,-0.040,0.100
0.944,-0.045,0.085
0.947,-0.070,0.100
0.950,-0.105,0.105
0.953,-0.080,0.100
0.956,-0.075,0.090
0.958,-0.085,0.090
0.961,-0.090,0.115
0.964,-0.110,0.100
0.967,-0.130,0.085
0.969,-0.120,0.105
0.972,-0.115,0.120
0.975,-0.125,0.115
0.978,-0.150,0.090
0.981,-0.170,0.075
0.983,-0.160,0.095
0.986,-0.160,0.105
0.989,-0.150,0.100
0.992,-0.155,0.090
0.994,-0.160,0.095
0.997,-0.170,0.090
1.000,-0.185,0.080
1.003,-0.180,0.070
1.006,-0.180,0.100
1.008,-0.190,0.100
1.011,-0.180,0.110
1.014,-0.170,0.060
1.017,-0.160,0.075
1.019,-0.140,0.105
1.022,-0.140,0.115
1.025,-0.145,0.080
1.028,-0.170,0.070
1.031,-0.180,0.075
1.033,-0.175,0.100
1.036,-0.160,0.095
1.039,-0.155,0.090
1.042,-0.155,0.100
1.044,-0.165,0.120
1.047,-0.150,0.095
1.050,-0.155,0.065
1.053,-0.150,0.090
1.056,-0.145,0.115
1.058,-0.145,0.105
1.061,-0.165,0.090
1.064,-0.195,0.075
1.067,-0.205,0.100
1.069,-0.190,0.105
1.072,-0.180,0.090
1.075,-0.165,0.075
1.078,-0.170,0.100
1.081,-0.160,0.090
1.083,-0.170,0.080
1.086,-0.165,0.085
1.089,-0.170,0.100
1.092,-0.170,0.110
1.094,-0.170,0.075
1.097,-0.170,0.035
1.100,-0.185,0.070
1.103,-0.190,0.095
1.106,-0.180,0.095
1.108,-0.180,0.070
1.111,-0.180,0.090
1.114,-0.175,0.080
1.117,-0.200,0.070
1.119,-0.210,0.055
1.122,-0.200,0.075
1.125,-0.200,0.105
1.128,-0.210,0.080
1.131,-0.215,0.055
1.133,-0.210,0.060
1.136,-0.200,0.090
1.139,-0.175,0.075
1.142,-0.160,0.060
1.144,-0.145,0.050
1.147,-0.145,0.070
1.150,-0.135,0.085
1.153,-0.140,0.075
1.156,-0.135,0.060
1.158,-0.130,0.080
1.161,-0.120,0.095
1.164,-0.115,0.070
1.167,-0.110,0.060
1.169,-0.105,0.075
1.172,-0.100,0.105
1.175,-0.095,0.105
1.178,-0.110,0.065
1.181,-0.140,0.070
1.183,-0.175,0.095
1.186,-0.180,0.105
1.189,-0.180,0.090
1.192,-0.180,0.075
1.194,-0.165,0.095
1.197,-0.175,0.090
1.200,-0.175,0.070
1.203,-0.175,0.070
1.206,-0.165,0.090
1.208,-0.165,0.110
1.211,-0.165,0.080
1.214,-0.175,0.030
1.217,-0.165,0.060
1.219,-0.160,0.085
1.222,-0.155,0.090
1.225,-0.150,0.070
1.228,-0.155,0.075
1.231,-0.160,0.080
1.233,-0.160,0.080
1.236,-0.155,0.060
1.239,-0.145,0.075
1.242,-0.150,0.095
1.244,-0.150,0.090
1.247,-0.185,0.075
1.250,-0.200,0.060
1.253,-0.200,0.090
1.256,-0.195,0.105
1.258,-0.190,0.085
1.261,-0.190,0.065
1.264,-0.195,0.075
1.267,-0.200,0.100
1.269,-0.195,0.095
1.272,-0.185,0.080
1.275,-0.175,0.080
1.278,-0.175,0.095
1.281,-0.155,0.090
1.283,-0.170,0.060
1.286,-0.170,0.070
1.289,-0.165,0.090
1.292,-0.150,0.105
1.294,-0.160,0.075
1.297,-0.165,0.050
1.300,-0.175,0.075
1.303,-0.170,0.105
1.306,-0.170,0.105
1.308,-0.185,0.085
1.311,-0.215,0.070
1.314,-0.225,0.085
1.317,-0.190,0.090
1.319,-0.125,0.075
1.322,-0.040,0.080
1.325,0.050,0.100
1.328,0.125,0.105
1.331,0.215,0.065
1.333,0.320,0.055
1.336,0.415,0.100
1.339,0.500,0.110
1.342,0.605,0.105
1.344,0.725,0.090
1.347,0.845,0.095
1.350,0.940,0.110
1.353,1.060,0.125
1.356,1.110,0.120
1.358,1.100,0.100
1.361,1.005,0.115
1.364,0.860,0.120
1.367,0.615,0.115
1.369,0.240,0.120
1.372,-0.110,0.150
1.375,-0.335,0.175
1.378,-0.460,0.155
1.381,-0.515,0.135
1.383,-0.540,0.135
1.386,-0.510,0.160
1.389,-0.440,0.170
1.392,-0.385,0.140
1.394,-0.360,0.130
1.397,-0.350,0.125
1.400,-0.335,0.145
1.403,-0.320,0.140
1.406,-0.295,0.130
1.408,-0.300,0.115
1.411,-0.300,0.135
1.414,-0.325,0.120
1.417,-0.335,0.100
1.419,-0.335,0.090
1.422,-0.335,0.115
1.425,-0.325,0.130
1.428,-0.310,0.115
1.431,-0.300,0.080
1.433,-0.280,0.085
1.436,-0.260,0.110
1.439,-0.240,0.120
1.442,-0.245,0.095
1.444,-0.260,0.080
1.447,-0.270,0.085
1.450,-0.280,0.100
1.453,-0.280,0.110
1.456,-0.275,0.085
1.458,-0.270,0.090
1.461,-0.275,0.085
1.464,-0.280,0.095
1.467,-0.255,0.090
1.469,-0.250,0.080
1.472,-0.240,0.075
1.475,-0.235,0.105
1.478,-0.235,0.090
1.481,-0.235,0.070
1.483,-0.240,0.055
1.486,-0.235,0.075
1.489,-0.235,0.105
1.492,-0.230,0.095
1.494,-0.240,0.070
1.497,-0.225,0.055
1.500,-0.230,0.085
1.503,-0.225,0.105
1.506,-0.210,0.110
1.508,-0.195,0.085
1.511,-0.215,0.085
1.514,-0.220,0.095
1.517,-0.240,0.090
1.519,-0.230,0.080
1.522,-0.230,0.080
1.525,-0.215,0.095
1.528,-0.210,0.100
1.531,-0.210,0.080
1.533,-0.220,0.065
1.536,-0.205,0.075
1.539,-0.180,0.090
1.542,-0.185,0.100
1.544,-0.190,0.085
1.547,-0.190,0.050
1.550,-0.195,0.065
1.553,-0.160,0.090
1.556,-0.140,0.120
1.558,-0.130,0.090
1.561,-0.125,0.070
1.564,-0.130,0.070
1.567,-0.140,0.095
1.569,-0.130,0.095
1.572,-0.120,0.090
1.575,-0.125,0.080
1.578,-0.125,0.080
1.581,-0.145,0.095
1.583,-0.125,0.100
1.586,-0.120,0.085
1.589,-0.125,0.085
1.592,-0.115,0.095
1.594,-0.120,0.100
1.597,-0.140,0.090
1.600,-0.150,0.060
1.603,-0.145,0.065
1.606,-0.135,0.095
1.608,-0.110,0.105
1.611,-0.105,0.085
1.614,-0.100,0.055
1.617,-0.085,0.060
1.619,-0.095,0.085
1.622,-0.080,0.095
1.625,-0.065,0.090
1.628,-0.070,0.060
1.631,-0.070,0.065
1.633,-0.075,0.105
1.636,-0.070,0.095
1.639,-0.060,0.085
1.642,-0.055,0.080
1.644,-0.050,0.090
1.647,-0.075,0.100
1.650,-0.065,0.100
1.653,-0.065,0.080
1.656,-0.070,0.100
1.658,-0.080,0.110
1.661,-0.080,0.110
1.664,-0.080,0.070
1.667,-0.080,0.065
1.669,-0.080,0.100
1.672,-0.080,0.110
1.675,-0.075,0.105
1.678,-0.090,0.085
1.681,-0.090,0.070
1.683,-0.085,0.100
1.686,-0.090,0.120
1.689,-0.075,0.110
1.692,-0.075,0.070
1.694,-0.070,0.080
1.697,-0.075,0.100
1.700,-0.090,0.105
1.703,-0.075,0.085
1.706,-0.065,0.090
1.708,-0.070,0.090
1.711,-0.070,0.100
1.714,-0.085,0.100
1.717,-0.090,0.095
1.719,-0.090,0.065
1.722,-0.080,0.090
1.725,-0.100,0.100
1.728,-0.105,0.105
1.731,-0.115,0.075
1.733,-0.120,0.060
1.736,-0.115,0.085
1.739,-0.100,0.120
1.742,-0.105,0.115
1.744,-0.120,0.075
1.747,-0.140,0.065
1.750,-0.140,0.100
1.753,-0.115,0.115
1.756,-0.070,0.105
1.758,-0.075,0.090
1.761,-0.090,0.100
1.764,-0.105,0.100
1.767,-0.115,0.110
1.769,-0.110,0.105
1.772,-0.110,0.110
1.775,-0.130,0.115
1.778,-0.135,0.115
1.781,-0.150,0.090
1.783,-0.130,0.080
1.786,-0.125,0.090
1.789,-0.125,0.120
1.792,-0.140,0.110
1.794,-0.155,0.085
1.797,-0.155,0.075
1.800,-0.155,0.095
1.803,-0.155,0.095
1.806,-0.145,0.100
1.808,-0.130,0.090
1.811,-0.130,0.080
1.814,-0.130,0.090
1.817,-0.120,0.105
1.819,-0.110,0.090
1.822,-0.090,0.085
1.825,-0.070,0.100
1.828,-0.060,0.105
1.831,-0.080,0.085
1.833,-0.075,0.075
1.836,-0.050,0.085
1.839,-0.015,0.120
1.842,0.005,0.115
1.844,0.020,0.100
1.847,0.020,0.080
1.850,0.040,0.090
1.853,0.060,0.095
1.856,0.080,0.100
1.858,0.105,0.085
1.861,0.110,0.070
1.864,0.095,0.065
1.867,0.120,0.065
1.869,0.200,0.065
1.872,0.265,0.045
1.875,0.265,0.040
1.878,0.220,0.045
1.881,0.200,0.015
1.883,0.190,0.005
1.886,0.150,0.010
1.889,0.035,0.040
1.892,-0.225,0.030
1.894,-0.625,0.020
1.897,-1.090,-0.005
1.900,-1.475,0.010
1.903,-1.745,0.025
1.906,-1.895,0.025
1.908,-1.955,0.015
1.911,-1.995,0.010
1.914,-2.010,0.020
1.917,-2.000,0.025
1.919,-1.965,0.030
1.922,-1.905,0.040
1.925,-1.845,0.050
1.928,-1.750,0.065
1.931,-1.605,0.050
1.933,-1.475,0.050
1.936,-1.350,0.075
1.939,-1.275,0.120
1.942,-1.235,0.105
1.944,-1.180,0.090
1.947,-1.105,0.085
1.950,-1.035,0.105
1.953,-0.940,0.110
1.956,-0.830,0.095
1.958,-0.770,0.105
1.961,-0.715,0.105
1.964,-0.665,0.110
1.967,-0.605,0.100
1.969,-0.520,0.100
1.972,-0.465,0.110
1.975,-0.420,0.115
1.978,-0.400,0.100
1.981,-0.390,0.090
1.983,-0.375,0.090
1.986,-0.340,0.115
1.989,-0.305,0.130
1.992,-0.270,0.115
1.994,-0.190,0.115
1.997,-0.125,0.120
2.000,-0.060,0.120
2.003,-0.005,0.125
2.006,0.050,0.125
2.008,0.110,0.145
2.011,0.150,0.155
2.014,0.185,0.145
2.017,0.210,0.135
2.019,0.230,0.155
2.022,0.260,0.170
2.025,0.285,0.165
2.028,0.325,0.145
2.031,0.330,0.140
2.033,0.325,0.150
2.036,0.350,0.175
2.039,0.390,0.175
2.042,0.430,0.170
2.044,0.470,0.170
2.047,0.465,0.170
2.050,0.485,0.145
2.053,0.505,0.150
2.056,0.520,0.165
2.058,0.540,0.175
2.061,0.560,0.150
2.064,0.585,0.140
2.067,0.600,0.160
2.069,0.620,0.160
2.072,0.645,0.160
2.075,0.655,0.150
2.078,0.675,0.165
2.081,0.680,0.170
2.083,0.695,0.160
2.086,0.715,0.175
2.089,0.755,0.190
2.092,0.785,0.195
2.094,0.805,0.175
2.097,0.795,0.155
2.100,0.805,0.170
2.103,0.820,0.195
2.106,0.840,0.195
2.108,0.865,0.180
2.111,0.855,0.170
2.114,0.850,0.170
2.117,0.835,0.170
2.119,0.830,0.165
2.122,0.835,0.190
2.125,0.825,0.190
2.128,0.800,0.180
2.131,0.790,0.160
2.133,0.770,0.170
2.136,0.780,0.185
2.139,0.770,0.185
2.142,0.755,0.160
2.144,0.715,0.165
2.147,0.680,0.165
2.150,0.665,0.180
2.153,0.640,0.185
2.156,0.615,0.190
2.158,0.605,0.190
2.161,0.585,0.180
2.164,0.560,0.155
2.167,0.530,0.165
2.169,0.495,0.195
2.172,0.460,0.200
2.175,0.435,0.190
2.178,0.400,0.180
2.181,0.360,0.165
2.183,0.325,0.175
2.186,0.290,0.170
2.189,0.275,0.170
2.192,0.245,0.185
2.194,0.205,0.180
2.197,0.185,0.160
2.200,0.185,0.170
2.203,0.175,0.180
2.206,0.165,0.185
2.208,0.155,0.175
2.211,0.140,0.165
2.214,0.130,0.160
2.217,0.110,0.175
2.219,0.095,0.160
2.222,0.075,0.175
2.225,0.055,0.185
2.228,0.035,0.155
2.231,0.015,0.125
2.233,-0.005,0.135
2.236,0.010,0.165
2.239,0.015,0.175
2.242,0.000,0.155
2.244,-0.020,0.155
2.247,-0.040,0.155
2.250,-0.055,0.145
2.253,-0.035,0.125
2.256,-0.005,0.140
2.258,0.005,0.165
2.261,-0.005,0.150
2.264,-0.025,0.130
2.267,-0.020,0.145
2.269,-0.010,0.150
2.272,-0.015,0.150
2.275,-0.020,0.135
2.278,-0.030,0.130
2.281,-0.045,0.145
2.283,-0.060,0.140
2.286,-0.065,0.125
2.289,-0.060,0.140
2.292,-0.050,0.150
2.294,-0.060,0.125
2.297,-0.085,0.100
2.300,-0.090,0.125
2.303,-0.110,0.145
2.306,-0.105,0.145
2.308,-0.095,0.140
2.311,-0.085,0.140
2.314,-0.075,0.130
2.317,-0.080,0.120
2.319,-0.095,0.120
2.322,-0.095,0.150
2.325,-0.090,0.160
2.328,-0.095,0.135
2.331,-0.115,0.120
2.333,-0.115,0.150
2.336,-0.120,0.140
2.339,-0.110,0.130
2.342,-0.095,0.125
2.344,-0.105,0.145
2.347,-0.110,0.135
2.350,-0.125,0.130
2.353,-0.115,0.130
2.356,-0.090,0.160
2.358,-0.095,0.155
2.361,-0.110,0.135
2.364,-0.125,0.115
2.367,-0.135,0.150
2.369,-0.130,0.150
2.372,-0.125,0.145
2.375,-0.125,0.135
2.378,-0.135,0.155
2.381,-0.145,0.130
2.383,-0.155,0.115
2.386,-0.145,0.120
2.389,-0.130,0.150
2.392,-0.135,0.160
2.394,-0.140,0.135
2.397,-0.155,0.125
2.400,-0.155,0.140
2.403,-0.135,0.140
2.406,-0.125,0.140
2.408,-0.130,0.130
2.411,-0.135,0.145
2.414,-0.145,0.140
2.417,-0.165,0.135
2.419,-0.190,0.140
2.422,-0.175,0.160
2.425,-0.150,0.155
2.428,-0.135,0.135
2.431,-0.125,0.115
2.433,-0.145,0.145
2.436,-0.110,0.160
2.439,-0.090,0.160
2.442,-0.070,0.145
2.444,-0.075,0.155
2.447,-0.090,0.145
2.450,-0.135,0.135
2.453,-0.150,0.130
2.456,-0.155,0.150
2.458,-0.155,0.170
2.461,-0.120,0.175
2.464,-0.100,0.140
2.467,-0.080,0.140
2.469,-0.065,0.165
2.472,-0.075,0.170
2.475,-0.095,0.155
2.478,-0.100,0.145
2.481,-0.095,0.160
2.483,-0.085,0.175
2.486,-0.080,0.180
2.489,-0.080,0.180
2.492,-0.080,0.190
2.494,-0.095,0.180
2.497,-0.120,0.170
2.500,-0.125,0.145
2.503,-0.125,0.165
2.506,-0.125,0.190
2.508,-0.130,0.185
2.511,-0.135,0.155
2.514,-0.130,0.155
2.517,-0.130,0.165
2.519,-0.120,0.190
2.522,-0.115,0.185
2.525,-0.105,0.155
2.528,-0.120,0.150
2.531,-0.145,0.145
2.533,-0.135,0.170
2.536,-0.110,0.175
2.539,-0.110,0.180
2.542,-0.110,0.190
2.544,-0.125,0.185
2.547,-0.105,0.185
2.550,-0.100,0.160
2.553,-0.080,0.175
2.556,-0.050,0.200
2.558,-0.030,0.205
2.561,-0.070,0.185
2.564,-0.120,0.165
2.567,-0.185,0.185
2.569,-0.215,0.185
2.572,-0.220,0.180
2.575,-0.185,0.150
2.578,-0.160,0.155
2.581,-0.160,0.165
2.583,-0.145,0.170
2.586,-0.150,0.160
2.589,-0.130,0.170
2.592,-0.140,0.180
2.594,-0.150,0.170
2.597,-0.170,0.150
2.600,-0.190,0.145
2.603,-0.185,0.165
2.606,-0.170,0.185
2.608,-0.175,0.180
2.611,-0.165,0.155
2.614,-0.160,0.160
2.617,-0.180,0.175
2.619,-0.175,0.180
2.622,-0.185,0.170
2.625,-0.185,0.160
2.628,-0.190,0.165
2.631,-0.205,0.160
2.633,-0.210,0.150
2.636,-0.215,0.150
2.639,-0.215,0.165
2.642,-0.180,0.170
2.644,-0.125,0.160
2.647,-0.075,0.140
2.650,0.000,0.130
2.653,0.085,0.150
2.656,0.190,0.175
2.658,0.290,0.170
2.661,0.360,0.145
2.664,0.440,0.140
2.667,0.535,0.160
2.669,0.680,0.165
2.672,0.800,0.160
2.675,0.905,0.145
2.678,0.995,0.165
2.681,1.025,0.170
2.683,1.005,0.165
2.686,0.920,0.155
2.689,0.790,0.175
2.692,0.570,0.205
2.694,0.225,0.195
2.697,-0.120,0.185
2.700,-0.335,0.180
2.703,-0.430,0.190
2.706,-0.505,0.215
2.708,-0.520,0.205
2.711,-0.495,0.190
2.714,-0.440,0.190
2.717,-0.400,0.190
2.719,-0.365,0.175
2.722,-0.370,0.160
2.725,-0.385,0.155
2.728,-0.360,0.180
2.731,-0.370,0.175
2.733,-0.380,0.135
2.736,-0.390,0.135
2.739,-0.415,0.145
2.742,-0.405,0.155
2.744,-0.405,0.110
2.747,-0.405,0.090
2.750,-0.415,0.105
2.753,-0.410,0.130
2.756,-0.395,0.145
2.758,-0.385,0.110
2.761,-0.385,0.095
2.764,-0.385,0.105
2.767,-0.365,0.120
2.769,-0.355,0.090
2.772,-0.345,0.090
2.775,-0.335,0.115
2.778,-0.355,0.090
2.781,-0.390,0.070
2.783,-0.400,0.075
2.786,-0.390,0.115
2.789,-0.360,0.110
2.792,-0.330,0.075
2.794,-0.340,0.050
2.797,-0.380,0.070
2.800,-0.395,0.110
2.803,-0.405,0.105
2.806,-0.390,0.075
2.808,-0.395,0.080
2.811,-0.390,0.090
2.814,-0.400,0.080
2.817,-0.400,0.070
2.819,-0.395,0.070
2.822,-0.390,0.090
2.825,-0.385,0.090
2.828,-0.390,0.065
2.831,-0.385,0.060
2.833,-0.385,0.075
2.836,-0.380,0.100
2.839,-0.370,0.070
2.842,-0.340,0.045
2.844,-0.335,0.065
2.847,-0.335,0.095
2.850,-0.330,0.095
2.853,-0.325,0.085
2.856,-0.350,0.095
2.858,-0.365,0.100
2.861,-0.355,0.085
2.864,-0.345,0.055
2.867,-0.340,0.085
2.869,-0.340,0.110
2.872,-0.360,0.100
2.875,-0.350,0.090
2.878,-0.345,0.090
2.881,-0.350,0.095
2.883,-0.355,0.080
2.886,-0.345,0.080
2.889,-0.340,0.080
2.892,-0.335,0.090
2.894,-0.345,0.075
2.897,-0.365,0.055
2.900,-0.350,0.075
2.903,-0.350,0.095
2.906,-0.335,0.075
2.908,-0.330,0.055
2.911,-0.310,0.045
2.914,-0.290,0.075
2.917,-0.285,0.090
2.919,-0.265,0.075
2.922,-0.275,0.080
2.925,-0.280,0.080
2.928,-0.300,0.080
2.931,-0.305,0.065
2.933,-0.305,0.070
2.936,-0.295,0.100
2.939,-0.285,0.100
2.942,-0.305,0.085
2.944,-0.320,0.060
2.947,-0.320,0.085
2.950,-0.305,0.100
2.953,-0.275,0.100
2.956,-0.265,0.070
2.958,-0.275,0.080
2.961,-0.285,0.095
2.964,-0.280,0.090
2.967,-0.270,0.095
2.969,-0.260,0.115
2.972,-0.250,0.135
2.975,-0.255,0.095
2.978,-0.255,0.070
2.981,-0.265,0.090
2.983,-0.265,0.125
2.986,-0.250,0.125
2.989,-0.260,0.105
2.992,-0.245,0.110
2.994,-0.260,0.115
2.997,-0.285,0.095
3.000,-0.290,0.080
3.003,-0.290,0.105
3.006,-0.280,0.130
3.008,-0.285,0.105
3.011,-0.285,0.095
3.014,-0.280,0.095
3.017,-0.310,0.120
3.019,-0.310,0.115
3.022,-0.300,0.090
3.025,-0.285,0.095
3.028,-0.275,0.100
3.031,-0.295,0.110
3.033,-0.305,0.100
3.036,-0.300,0.095
3.039,-0.300,0.115
3.042,-0.320,0.115
3.044,-0.300,0.085
3.047,-0.305,0.060
3.050,-0.315,0.095
3.053,-0.305,0.120
3.056,-0.295,0.110
3.058,-0.295,0.075
3.061,-0.305,0.095
3.064,-0.335,0.110
3.067,-0.335,0.105
3.069,-0.340,0.080
3.072,-0.335,0.095
3.075,-0.335,0.100
3.078,-0.345,0.100
3.081,-0.360,0.075
3.083,-0.365,0.085
3.086,-0.355,0.120
3.089,-0.335,0.105
3.092,-0.330,0.075
3.094,-0.320,0.075
3.097,-0.310,0.105
3.100,-0.295,0.095
3.103,-0.275,0.090
3.106,-0.250,0.115
3.108,-0.230,0.105
3.111,-0.210,0.075
3.114,-0.200,0.070
3.117,-0.175,0.095
3.119,-0.150,0.115
3.122,-0.140,0.090
3.125,-0.145,0.080
3.128,-0.155,0.075
3.131,-0.155,0.085
3.133,-0.130,0.060
3.136,-0.130,0.030
3.139,-0.115,0.030
3.142,-0.105,0.040
3.144,-0.060,0.025
3.147,-0.040,-0.010
3.150,-0.045,0.000
3.153,-0.085,0.020
3.156,-0.160,0.015
3.158,-0.260,-0.040
3.161,-0.430,-0.050
3.164,-0.690,-0.030
3.167,-1.060,-0.005
3.169,-1.425,-0.015
3.172,-1.730,-0.035
3.175,-1.930,-0.020
3.178,-2.035,0.015
3.181,-2.065,0.005
3.183,-2.060,-0.020
3.186,-2.080,0.005
3.189,-2.055,0.035
3.192,-1.995,0.040
3.194,-1.900,0.025
3.197,-1.805,0.035
3.200,-1.705,0.085
3.203,-1.635,0.110
3.206,-1.540,0.105
3.208,-1.440,0.090
3.211,-1.325,0.110
3.214,-1.235,0.125
3.217,-1.145,0.140
3.219,-1.065,0.130
3.222,-0.995,0.140
3.225,-0.940,0.145
3.228,-0.915,0.135
3.231,-0.870,0.100
3.233,-0.830,0.095
3.236,-0.760,0.130
3.239,-0.690,0.135
3.242,-0.655,0.115
3.244,-0.625,0.080
3.247,-0.610,0.100
3.250,-0.585,0.120
3.253,-0.565,0.115
3.256,-0.530,0.085
3.258,-0.490,0.090
3.261,-0.470,0.110
3.264,-0.420,0.105
3.267,-0.350,0.090
3.269,-0.275,0.100
3.272,-0.205,0.120
3.275,-0.155,0.135
3.278,-0.120,0.110
3.281,-0.090,0.100
3.283,-0.030,0.115
3.286,0.020,0.150
3.289,0.060,0.145
3.292,0.080,0.125
3.294,0.095,0.120
3.297,0.130,0.150
3.300,0.150,0.140
3.303,0.170,0.135
3.306,0.180,0.135
3.308,0.185,0.155
3.311,0.210,0.150
3.314,0.225,0.125
3.317,0.245,0.130
3.319,0.270,0.155
3.322,0.300,0.155
3.325,0.315,0.130
3.328,0.310,0.115
3.331,0.315,0.125
3.333,0.350,0.165
3.336,0.370,0.160
3.339,0.365,0.135
3.342,0.370,0.145
3.344,0.385,0.150
3.347,0.400,0.160
3.350,0.425,0.155
3.353,0.470,0.145
3.356,0.490,0.165
3.358,0.505,0.175
3.361,0.505,0.175
3.364,0.530,0.145
3.367,0.530,0.165
3.369,0.535,0.195
3.372,0.540,0.185
3.375,0.545,0.155
3.378,0.545,0.140
3.381,0.570,0.145
3.383,0.580,0.175
3.386,0.570,0.175
3.389,0.575,0.150
3.392,0.560,0.160
3.394,0.550,0.175
3.397,0.545,0.180
3.400,0.555,0.165
3.403,0.550,0.155
3.406,0.560,0.155
3.408,0.550,0.180
3.411,0.530,0.155
3.414,0.500,0.140
3.417,0.480,0.165
3.419,0.465,0.190
3.422,0.465,0.165
3.425,0.440,0.145
3.428,0.405,0.135
3.431,0.395,0.155
3.433,0.375,0.165
3.436,0.360,0.165
3.439,0.355,0.140
3.442,0.345,0.150
3.444,0.290,0.160
3.447,0.250,0.145
3.450,0.220,0.130
3.453,0.195,0.140
3.456,0.175,0.160
3.458,0.150,0.155
3.461,0.120,0.125
3.464,0.095,0.125
3.467,0.065,0.135
3.469,0.055,0.165
3.472,0.035,0.155
3.475,0.020,0.125
3.478,-0.005,0.115
3.481,-0.025,0.135
3.483,-0.040,0.150
3.486,-0.065,0.150
3.489,-0.070,0.130
3.492,-0.080,0.140
3.494,-0.100,0.150
3.497,-0.115,0.145
3.500,-0.135,0.125
3.503,-0.130,0.135
3.506,-0.140,0.150
3.508,-0.155,0.145
3.511,-0.160,0.115
3.514,-0.170,0.115
3.517,-0.170,0.135
3.519,-0.175,0.155
3.522,-0.180,0.145
3.525,-0.205,0.115
3.528,-0.210,0.115
3.531,-0.225,0.140
3.533,-0.215,0.145
3.536,-0.200,0.140
3.539,-0.185,0.135
3.542,-0.200,0.125
3.544,-0.220,0.140
3.547,-0.230,0.145
3.550,-0.230,0.120
3.553,-0.210,0.120
3.556,-0.195,0.145
3.558,-0.205,0.135
3.561,-0.215,0.120
3.564,-0.225,0.110
3.567,-0.210,0.130
3.569,-0.200,0.155
3.572,-0.195,0.155
3.575,-0.200,0.110
3.578,-0.220,0.115
3.581,-0.230,0.130
3.583,-0.235,0.140
3.586,-0.230,0.130
3.589,-0.230,0.110
3.592,-0.225,0.120
3.594,-0.240,0.120
3.597,-0.255,0.140
3.600,-0.250,0.115
3.603,-0.230,0.125
3.606,-0.225,0.125
3.608,-0.240,0.130
3.611,-0.240,0.115
3.614,-0.260,0.120
3.617,-0.250,0.125
3.619,-0.245,0.155
3.622,-0.230,0.150
3.625,-0.215,0.115
3.628,-0.220,0.105
3.631,-0.225,0.125
3.633,-0.225,0.140
3.636,-0.230,0.145
3.639,-0.215,0.125
3.642,-0.215,0.125
3.644,-0.245,0.140
3.647,-0.250,0.135
3.650,-0.245,0.120
3.653,-0.240,0.135
3.656,-0.240,0.140
3.658,-0.230,0.135
3.661,-0.230,0.105
3.664,-0.245,0.115
3.667,-0.240,0.140
3.669,-0.245,0.155
3.672,-0.240,0.135
3.675,-0.245,0.120
3.678,-0.245,0.130
3.681,-0.250,0.135
3.683,-0.250,0.125
3.686,-0.225,0.120
3.689,-0.240,0.115
3.692,-0.240,0.135
3.694,-0.235,0.115
3.697,-0.240,0.100
3.700,-0.240,0.105
3.703,-0.240,0.135
3.706,-0.240,0.135
3.708,-0.255,0.095
3.711,-0.255,0.080
3.714,-0.260,0.105
3.717,-0.225,0.125
3.719,-0.225,0.110
3.722,-0.220,0.090
3.725,-0.215,0.090
3.728,-0.225,0.110
3.731,-0.235,0.095
3.733,-0.250,0.090
3.736,-0.245,0.115
3.739,-0.245,0.130
3.742,-0.250,0.115
3.744,-0.255,0.080
3.747,-0.240,0.090
3.750,-0.215,0.125
3.753,-0.210,0.125
3.756,-0.215,0.105
3.758,-0.225,0.090
3.761,-0.230,0.105
3.764,-0.230,0.110
3.767,-0.225,0.100
3.769,-0.225,0.105
3.772,-0.230,0.120
3.775,-0.225,0.110
3.778,-0.220,0.085
3.781,-0.220,0.090
3.783,-0.210,0.105
3.786,-0.190,0.140
3.789,-0.175,0.125
3.792,-0.165,0.105
3.794,-0.170,0.115
3.797,-0.175,0.120
3.800,-0.170,0.115
3.803,-0.155,0.130
3.806,-0.145,0.130
3.808,-0.140,0.140
3.811,-0.135,0.110
3.814,-0.135,0.100
3.817,-0.135,0.120
3.819,-0.140,0.130
3.822,-0.145,0.110
3.825,-0.155,0.095
3.828,-0.160,0.095
3.831,-0.180,0.110
3.833,-0.185,0.105
3.836,-0.185,0.095
3.839,-0.180,0.110
3.842,-0.195,0.105
3.844,-0.205,0.085
3.847,-0.215,0.085
3.850,-0.220,0.095
3.853,-0.220,0.125
3.856,-0.225,0.095
3.858,-0.220,0.085
3.861,-0.215,0.095
3.864,-0.210,0.095
3.867,-0.210,0.090
3.869,-0.205,0.090
3.872,-0.195,0.115
3.875,-0.200,0.120
3.878,-0.200,0.105
3.881,-0.200,0.100
3.883,-0.185,0.120
3.886,-0.185,0.130
3.889,-0.190,0.105
3.892,-0.185,0.095
3.894,-0.190,0.095
3.897,-0.200,0.100
3.900,-0.210,0.105
3.903,-0.215,0.110
3.906,-0.225,0.115
3.908,-0.250,0.105
3.911,-0.245,0.090
3.914,-0.230,0.110
3.917,-0.235,0.120
3.919,-0.235,0.115
3.922,-0.220,0.110
3.925,-0.215,0.105
3.928,-0.210,0.105
3.931,-0.205,0.075
3.933,-0.195,0.105
3.936,-0.200,0.130
3.939,-0.215,0.120
3.942,-0.235,0.105
3.944,-0.235,0.110
3.947,-0.225,0.100
3.950,-0.170,0.115
3.953,-0.085,0.110
3.956,0.015,0.115
3.958,0.115,0.130
3.961,0.205,0.115
3.964,0.295,0.100
3.967,0.405,0.115
3.969,0.535,0.135
3.972,0.685,0.115
3.975,0.825,0.115
3.978,0.950,0.125
3.981,1.050,0.135
3.983,1.115,0.145
3.986,1.110,0.150
3.989,0.995,0.160
3.992,0.755,0.155
3.994,0.325,0.140
3.997,-0.135,0.145
4.000,-0.420,0.165
4.003,-0.540,0.190
4.006,-0.545,0.175
4.008,-0.520,0.165
4.011,-0.460,0.165
4.014,-0.410,0.165
4.017,-0.370,0.145
4.019,-0.365,0.140
4.022,-0.340,0.160
4.025,-0.350,0.165
4.028,-0.350,0.140
4.031,-0.375,0.130
4.033,-0.380,0.145
4.036,-0.380,0.155
4.039,-0.355,0.130
4.042,-0.330,0.105
4.044,-0.340,0.120
4.047,-0.345,0.125
4.050,-0.325,0.120
4.053,-0.300,0.115
4.056,-0.275,0.125
4.058,-0.280,0.135
4.061,-0.290,0.115
4.064,-0.310,0.105
4.067,-0.310,0.120
4.069,-0.300,0.140
4.072,-0.295,0.140
4.075,-0.300,0.115
4.078,-0.315,0.110
4.081,-0.340,0.120
4.083,-0.335,0.115
4.086,-0.305,0.120
4.089,-0.285,0.125
4.092,-0.280,0.130
4.094,-0.295,0.125
4.097,-0.300,0.120
4.100,-0.295,0.120
4.103,-0.285,0.140
4.106,-0.275,0.120
4.108,-0.285,0.110
4.111,-0.280,0.125
4.114,-0.285,0.115
4.117,-0.270,0.110
4.119,-0.265,0.125
4.122,-0.270,0.125
4.125,-0.270,0.125
4.128,-0.270,0.100
4.131,-0.260,0.100
4.133,-0.240,0.115
4.136,-0.255,0.140
4.139,-0.255,0.125
4.142,-0.255,0.100
4.144,-0.255,0.105
4.147,-0.265,0.105
4.150,-0.260,0.110
4.153,-0.250,0.105
4.156,-0.255,0.120
4.158,-0.255,0.130
4.161,-0.260,0.105
4.164,-0.270,0.100
4.167,-0.255,0.110
4.169,-0.260,0.130
4.172,-0.275,0.115
4.175,-0.260,0.090
4.178,-0.250,0.085
4.181,-0.235,0.115
4.183,-0.225,0.120
4.186,-0.225,0.115
4.189,-0.230,0.095
4.192,-0.220,0.115
4.194,-0.215,0.095
4.197,-0.205,0.075
4.200,-0.195,0.085
4.203,-0.200,0.120
4.206,-0.205,0.115
4.208,-0.220,0.105
4.211,-0.210,0.095
4.214,-0.220,0.110
4.217,-0.210,0.105
4.219,-0.205,0.100
4.222,-0.185,0.085
4.225,-0.195,0.110
4.228,-0.195,0.125
4.231,-0.195,0.105
4.233,-0.175,0.100
4.236,-0.150,0.120
4.239,-0.140,0.130
4.242,-0.145,0.090
4.244,-0.160,0.070
4.247,-0.160,0.090
4.250,-0.145,0.100
4.253,-0.135,0.105
4.256,-0.125,0.075
4.258,-0.125,0.090
4.261,-0.140,0.095
4.264,-0.130,0.080
4.267,-0.110,0.075
4.269,-0.105,0.100
4.272,-0.110,0.115
4.275,-0.130,0.100
4.278,-0.135,0.080
4.281,-0.140,0.095
4.283,-0.140,0.110
4.286,-0.140,0.115
4.289,-0.125,0.090
4.292,-0.125,0.085
4.294,-0.110,0.105
4.297,-0.105,0.110
4.300,-0.125,0.095
4.303,-0.120,0.120
4.306,-0.110,0.125
4.308,-0.110,0.125
4.311,-0.130,0.085
4.314,-0.145,0.095
4.317,-0.145,0.130
4.319,-0.140,0.120
4.322,-0.140,0.110
4.325,-0.135,0.120
4.328,-0.160,0.110
4.331,-0.165,0.105
4.333,-0.165,0.110
4.336,-0.155,0.110
4.339,-0.145,0.120
4.342,-0.155,0.130
4.344,-0.170,0.125
4.347,-0.175,0.110
4.350,-0.160,0.125
4.353,-0.155,0.135
4.356,-0.150,0.120
4.358,-0.165,0.090
4.361,-0.185,0.095
4.364,-0.190,0.125
4.367,-0.180,0.145
4.369,-0.160,0.130
4.372,-0.160,0.130
4.375,-0.160,0.130
4.378,-0.170,0.125
4.381,-0.190,0.110
4.383,-0.175,0.100
4.386,-0.180,0.130
4.389,-0.180,0.140
4.392,-0.165,0.120
4.394,-0.155,0.110
4.397,-0.145,0.120
4.400,-0.110,0.150
4.403,-0.070,0.150
4.406,-0.050,0.125
4.408,-0.025,0.120
4.411,-0.005,0.145
4.414,0.000,0.140
4.417,0.030,0.145
4.419,0.060,0.140
4.422,0.075,0.145
4.425,0.085,0.140
4.428,0.075,0.105
4.431,0.090,0.090
4.433,0.135,0.095
4.436,0.155,0.110
4.439,0.145,0.060
4.442,0.090,0.045
4.444,-0.025,0.030
4.447,-0.240,0.020
4.450,-0.580,-0.005
4.453,-0.965,-0.015
4.456,-1.340,-0.005
4.458,-1.695,0.015
4.461,-1.980,0.005
4.464,-2.125,-0.010
4.467,-2.135,0.015
4.469,-2.125,0.030
4.472,-2.090,0.030
4.475,-2.075,0.010
4.478,-2.015,0.000
4.481,-1.950,0.030
4.483,-1.850,0.070
4.486,-1.735,0.090
4.489,-1.645,0.090
4.492,-1.550,0.095
4.494,-1.425,0.125
4.497,-1.290,0.135
4.500,-1.185,0.120
4.503,-1.105,0.115
4.506,-1.035,0.135
4.508,-0.965,0.140
4.511,-0.900,0.125
4.514,-0.830,0.125
4.517,-0.765,0.140
4.519,-0.705,0.155
4.522,-0.660,0.130
4.525,-0.635,0.100
4.528,-0.575,0.120
4.531,-0.520,0.130
4.533,-0.460,0.130
4.536,-0.405,0.135
4.539,-0.350,0.120
4.542,-0.290,0.145
4.544,-0.215,0.140
4.547,-0.160,0.125
4.550,-0.095,0.130
4.553,-0.025,0.155
4.556,0.020,0.180
4.558,0.075,0.170
4.561,0.120,0.140
4.564,0.135,0.150
4.567,0.180,0.175
4.569,0.200,0.190
4.572,0.220,0.155
4.575,0.250,0.150
4.578,0.270,0.150
4.581,0.280,0.165
4.583,0.295,0.175
4.586,0.315,0.165
4.589,0.345,0.165
4.592,0.360,0.170
4.594,0.375,0.155
4.597,0.370,0.150
4.600,0.390,0.160
4.603,0.405,0.200
4.606,0.435,0.195
4.608,0.455,0.180
4.611,0.470,0.170
4.614,0.490,0.185
4.617,0.520,0.185
4.619,0.545,0.185
4.622,0.555,0.160
4.625,0.585,0.165
4.628,0.600,0.180
4.631,0.620,0.180
4.633,0.635,0.180
4.636,0.670,0.185
4.639,0.680,0.195
4.642,0.690,0.175
4.644,0.685,0.150
4.647,0.695,0.150
4.650,0.725,0.185
4.653,0.740,0.200
4.656,0.755,0.180
4.658,0.765,0.165
4.661,0.765,0.170
4.664,0.765,0.185
4.667,0.780,0.185
4.669,0.800,0.160
4.672,0.815,0.165
4.675,0.790,0.175
4.678,0.790,0.175
4.681,0.765,0.160
4.683,0.765,0.160
4.686,0.780,0.190
4.689,0.780,0.185
4.692,0.780,0.160
4.694,0.745,0.135
4.697,0.715,0.150
4.700,0.710,0.170
4.703,0.710,0.175
4.706,0.700,0.155
4.708,0.670,0.155
4.711,0.630,0.150
4.714,0.580,0.130
4.717,0.535,0.130
4.719,0.495,0.160
4.722,0.465,0.175
4.725,0.445,0.155
4.728,0.410,0.145
4.731,0.395,0.135
4.733,0.375,0.170
4.736,0.365,0.165
4.739,0.345,0.135
4.742,0.320,0.140
4.744,0.280,0.160
4.747,0.245,0.160
4.750,0.215,0.145
4.753,0.195,0.155
4.756,0.180,0.150
4.758,0.150,0.145
4.761,0.120,0.130
4.764,0.095,0.125
4.767,0.095,0.150
4.769,0.095,0.160
4.772,0.080,0.145
4.775,0.065,0.130
4.778,0.040,0.140
4.781,0.020,0.135
4.783,0.000,0.120
4.786,0.000,0.115
4.789,0.000,0.140
4.792,-0.020,0.145
4.794,-0.020,0.120
4.797,-0.030,0.115
4.800,-0.035,0.135
4.803,-0.030,0.140
4.806,-0.030,0.125
4.808,-0.040,0.090
4.811,-0.070,0.120
4.814,-0.080,0.135
4.817,-0.065,0.120
4.819,-0.070,0.125
4.822,-0.055,0.135
4.825,-0.070,0.125
4.828,-0.085,0.100
4.831,-0.090,0.085
4.833,-0.090,0.115
4.836,-0.060,0.135
4.839,-0.055,0.110
4.842,-0.065,0.100
4.844,-0.095,0.105
4.847,-0.105,0.110
4.850,-0.105,0.080
4.853,-0.090,0.095
4.856,-0.080,0.105
4.858,-0.075,0.105
4.861,-0.085,0.080
4.864,-0.100,0.080
4.867,-0.075,0.115
4.869,-0.080,0.115
4.872,-0.080,0.090
4.875,-0.085,0.080
4.878,-0.110,0.100
4.881,-0.120,0.105
4.883,-0.110,0.085
4.886,-0.095,0.100
4.889,-0.080,0.110
4.892,-0.090,0.105
4.894,-0.090,0.080
4.897,-0.105,0.080
4.900,-0.115,0.120
4.903,-0.100,0.120
4.906,-0.095,0.100
4.908,-0.110,0.095
4.911,-0.125,0.115
4.914,-0.145,0.095
4.917,-0.160,0.085
4.919,-0.155,0.110
4.922,-0.150,0.130
4.925,-0.135,0.115
4.928,-0.125,0.080
4.931,-0.130,0.110
4.933,-0.110,0.125
4.936,-0.125,0.120
4.939,-0.120,0.100
4.942,-0.130,0.115
4.944,-0.145,0.115
4.947,-0.150,0.100
4.950,-0.145,0.100
4.953,-0.140,0.130
4.956,-0.145,0.120
4.958,-0.150,0.090
4.961,-0.160,0.075
4.964,-0.170,0.095
4.967,-0.160,0.120
4.969,-0.155,0.115
4.972,-0.155,0.095
4.975,-0.155,0.110
4.978,-0.150,0.125
4.981,-0.160,0.100
4.983,-0.160,0.095
4.986,-0.160,0.125
4.989,-0.145,0.140
4.992,-0.150,0.115
4.994,-0.155,0.075
4.997,-0.180,0.105
5.000,-0.175,0.120
5.003,-0.165,0.105
5.006,-0.155,0.090
5.008,-0.145,0.105
5.011,-0.165,0.125
5.014,-0.180,0.115
5.017,-0.170,0.100
5.019,-0.160,0.120
5.022,-0.165,0.135
5.025,-0.165,0.135
5.028,-0.160,0.095
5.031,-0.155,0.095
5.033,-0.145,0.130
5.036,-0.135,0.150
5.039,-0.115,0.125
5.042,-0.105,0.125
5.044,-0.095,0.135
5.047,-0.090,0.145
5.050,-0.085,0.110
5.053,-0.090,0.120
5.056,-0.095,0.135
5.058,-0.120,0.125
5.061,-0.150,0.115
5.064,-0.170,0.100
5.067,-0.165,0.125
5.069,-0.170,0.140
5.072,-0.170,0.110
5.075,-0.170,0.095
5.078,-0.180,0.100
5.081,-0.180,0.115
5.083,-0.170,0.100
5.086,-0.175,0.100
5.089,-0.180,0.125
5.092,-0.185,0.125
5.094,-0.190,0.100
5.097,-0.200,0.095
5.100,-0.175,0.115
5.103,-0.175,0.140
5.106,-0.165,0.120
5.108,-0.140,0.090
5.111,-0.140,0.105
5.114,-0.155,0.115
5.117,-0.155,0.110
5.119,-0.155,0.105
5.122,-0.160,0.105
5.125,-0.175,0.125
5.128,-0.190,0.105
5.131,-0.205,0.095
5.133,-0.205,0.095
5.136,-0.200,0.130
5.139,-0.190,0.120
5.142,-0.200,0.090
5.144,-0.210,0.080
5.147,-0.220,0.100
5.150,-0.210,0.120
5.153,-0.210,0.105
5.156,-0.205,0.110
5.158,-0.205,0.125
5.161,-0.200,0.120
5.164,-0.200,0.090
5.167,-0.185,0.090
5.169,-0.185,0.120
5.172,-0.185,0.135
5.175,-0.190,0.120
5.178,-0.205,0.100
5.181,-0.210,0.105
5.183,-0.215,0.125
5.186,-0.220,0.120
5.189,-0.250,0.080
5.192,-0.260,0.080
5.194,-0.235,0.095
5.197,-0.195,0.095
5.200,-0.135,0.095
5.203,-0.030,0.100
5.206,0.095,0.110
5.208,0.195,0.115
5.211,0.285,0.100
5.214,0.360,0.090
5.217,0.460,0.125
5.219,0.580,0.145
5.222,0.695,0.135
5.225,0.810,0.115
5.228,0.895,0.130
5.231,0.945,0.145
5.233,0.940,0.135
5.236,0.845,0.130
5.239,0.725,0.120
5.242,0.545,0.145
5.244,0.285,0.160
5.247,-0.025,0.140
5.250,-0.270,0.155
5.253,-0.405,0.190
5.256,-0.470,0.185
5.258,-0.490,0.160
5.261,-0.465,0.135
5.264,-0.425,0.165
5.267,-0.385,0.175
5.269,-0.350,0.160
5.272,-0.340,0.145
5.275,-0.315,0.150
5.278,-0.315,0.145
5.281,-0.330,0.125
5.283,-0.350,0.115
5.286,-0.360,0.130
5.289,-0.375,0.130
5.292,-0.380,0.115
5.294,-0.380,0.085
5.297,-0.380,0.070
5.300,-0.360,0.105
5.303,-0.345,0.100
5.306,-0.320,0.080
5.308,-0.310,0.075
5.311,-0.320,0.090
5.314,-0.335,0.100
5.317,-0.335,0.075
5.319,-0.330,0.090
5.322,-0.330,0.105
5.325,-0.325,0.105
5.328,-0.345,0.070
5.331,-0.335,0.055
5.333,-0.335,0.070
5.336,-0.340,0.115
5.339,-0.320,0.085
5.342,-0.325,0.055
5.344,-0.325,0.050
5.347,-0.325,0.080
5.350,-0.310,0.085
5.353,-0.305,0.070
5.356,-0.310,0.070
5.358,-0.315,0.085
5.361,-0.315,0.085
5.364,-0.305,0.070
5.367,-0.300,0.060
5.369,-0.295,0.105
5.372,-0.285,0.110
5.375,-0.295,0.075
5.378,-0.300,0.055
5.381,-0.310,0.075
5.383,-0.300,0.100
5.386,-0.275,0.095
5.389,-0.275,0.080
5.392,-0.280,0.085
5.394,-0.280,0.095
5.397,-0.290,0.095
5.400,-0.295,0.075
5.403,-0.280,0.100
5.406,-0.290,0.110
5.408,-0.285,0.105
5.411,-0.295,0.070
5.414,-0.300,0.065
5.417,-0.285,0.095
5.419,-0.260,0.115
5.422,-0.245,0.095
5.425,-0.225,0.070
5.428,-0.240,0.070
5.431,-0.265,0.100
5.433,-0.270,0.095
5.436,-0.260,0.085
5.439,-0.265,0.080
5.442,-0.235,0.105
5.444,-0.245,0.090
5.447,-0.250,0.070
5.450,-0.240,0.065
5.453,-0.240,0.100
5.456,-0.225,0.120
5.458,-0.220,0.095
5.461,-0.235,0.080
5.464,-0.235,0.080
5.467,-0.225,0.105
5.469,-0.220,0.120
5.472,-0.235,0.085
5.475,-0.250,0.080
5.478,-0.240,0.090
5.481,-0.230,0.110
5.483,-0.185,0.090
5.486,-0.175,0.085
5.489,-0.160,0.100
5.492,-0.170,0.115
5.494,-0.190,0.095
5.497,-0.205,0.070
5.500,-0.200,0.085
5.503,-0.215,0.100
5.506,-0.210,0.120
5.508,-0.190,0.095
5.511,-0.200,0.070
5.514,-0.205,0.090
5.517,-0.180,0.120
5.519,-0.175,0.105
5.522,-0.175,0.085
5.525,-0.180,0.080
5.528,-0.190,0.090
5.531,-0.205,0.090
5.533,-0.190,0.080
5.536,-0.185,0.095
5.539,-0.160,0.115
5.542,-0.175,0.115
5.544,-0.200,0.100
5.547,-0.220,0.085
5.550,-0.220,0.110
5.553,-0.200,0.130
5.556,-0.190,0.125
5.558,-0.170,0.090
5.561,-0.175,0.090
5.564,-0.185,0.115
5.567,-0.180,0.130
5.569,-0.180,0.115
5.572,-0.170,0.095
5.575,-0.170,0.110
5.578,-0.170,0.120
5.581,-0.225,0.110
5.583,-0.205,0.100
5.586,-0.215,0.125
5.589,-0.225,0.130
5.592,-0.225,0.135
5.594,-0.220,0.110
5.597,-0.215,0.095
5.600,-0.195,0.125
5.603,-0.195,0.145
5.606,-0.195,0.120
5.608,-0.215,0.115
5.611,-0.235,0.115
5.614,-0.220,0.140
5.617,-0.210,0.110
5.619,-0.180,0.110
5.622,-0.190,0.125
5.625,-0.180,0.125
5.628,-0.195,0.110
5.631,-0.215,0.100
5.633,-0.210,0.120
5.636,-0.210,0.135
5.639,-0.210,0.130
5.642,-0.225,0.105
5.644,-0.240,0.080
5.647,-0.260,0.115
5.650,-0.250,0.110
5.653,-0.240,0.100
5.656,-0.230,0.090
5.658,-0.220,0.105
5.661,-0.250,0.105
5.664,-0.270,0.080
5.667,-0.265,0.075
5.669,-0.275,0.100
5.672,-0.260,0.095
5.675,-0.255,0.090
5.678,-0.250,0.055
5.681,-0.250,0.070
5.683,-0.235,0.100
5.686,-0.220,0.110
5.689,-0.210,0.075
5.692,-0.210,0.065
5.694,-0.205,0.070
5.697,-0.210,0.075
5.700,-0.190,0.065
5.703,-0.175,0.055
5.706,-0.155,0.050
5.708,-0.080,0.045
5.711,0.015,0.030
5.714,0.085,0.000
5.717,0.120,0.010
5.719,0.115,0.040
5.722,0.100,0.025
5.725,0.090,0.000
5.728,0.020,-0.005
5.731,-0.110,0.010
5.733,-0.395,0.015
5.736,-0.790,-0.005
5.739,-1.175,-0.005
5.742,-1.450,0.015
5.744,-1.645,0.015
5.747,-1.770,0.000
5.750,-1.845,0.020
5.753,-1.905,0.045
5.756,-1.915,0.045
5.758,-1.890,0.025
5.761,-1.875,0.020
5.764,-1.860,0.055
5.767,-1.775,0.070
5.769,-1.610,0.080
5.772,-1.445,0.090
5.775,-1.305,0.100
5.778,-1.210,0.105
5.781,-1.150,0.095
5.783,-1.050,0.110
5.786,-0.960,0.130
5.789,-0.910,0.125
5.792,-0.885,0.115
5.794,-0.860,0.095
5.797,-0.825,0.125
5.800,-0.790,0.115
5.803,-0.725,0.120
5.806,-0.670,0.105
5.808,-0.590,0.110
5.811,-0.575,0.105
5.814,-0.540,0.090
5.817,-0.495,0.085
5.819,-0.435,0.110
5.822,-0.360,0.130
5.825,-0.280,0.110
5.828,-0.220,0.095
5.831,-0.160,0.110
5.833,-0.100,0.135
5.836,-0.045,0.120
5.839,0.000,0.115
5.842,0.035,0.135
5.844,0.055,0.135
5.847,0.060,0.100
5.850,0.080,0.115
5.853,0.095,0.140
5.856,0.105,0.135
5.858,0.105,0.105
5.861,0.115,0.095
5.864,0.165,0.130
5.867,0.195,0.140
5.869,0.215,0.115
5.872,0.230,0.120
5.875,0.230,0.135
5.878,0.225,0.120
5.881,0.225,0.095
5.883,0.250,0.110
5.886,0.280,0.150
5.889,0.310,0.145
5.892,0.330,0.105
5.894,0.350,0.110
5.897,0.345,0.120
5.900,0.370,0.125
5.903,0.400,0.120
5.906,0.415,0.125
5.908,0.435,0.140
5.911,0.425,0.110
5.914,0.425,0.105
5.917,0.435,0.120
5.919,0.450,0.135
5.922,0.465,0.115
5.925,0.495,0.100
5.928,0.520,0.120
5.931,0.525,0.105
5.933,0.525,0.110
5.936,0.545,0.125
5.939,0.560,0.115
5.942,0.565,0.105
5.944,0.555,0.090
5.947,0.525,0.105
5.950,0.530,0.125
5.953,0.530,0.120
5.956,0.520,0.100
5.958,0.510,0.095
5.961,0.480,0.105
5.964,0.455,0.090
5.967,0.460,0.085
5.969,0.455,0.130
5.972,0.440,0.125
5.975,0.435,0.100
5.978,0.395,0.090
5.981,0.355,0.105
5.983,0.345,0.110
5.986,0.340,0.090
5.989,0.335,0.100
5.992,0.305,0.120
5.994,0.260,0.110
5.997,0.205,0.080
6.000,0.155,0.105
6.003,0.130,0.105
6.006,0.095,0.105
6.008,0.095,0.080
6.011,0.060,0.085
6.014,0.040,0.095
6.017,0.010,0.095
6.019,0.010,0.100
6.022,-0.015,0.110
6.025,-0.040,0.105
6.028,-0.060,0.090
6.031,-0.075,0.085
6.033,-0.065,0.100
6.036,-0.060,0.120
6.039,-0.060,0.110
6.042,-0.075,0.090
6.044,-0.100,0.090
6.047,-0.095,0.095
6.050,-0.100,0.095
6.053,-0.110,0.100
6.056,-0.120,0.110
6.058,-0.145,0.115
6.061,-0.155,0.095
6.064,-0.175,0.090
6.067,-0.170,0.100
6.069,-0.150,0.120
6.072,-0.155,0.100
6.075,-0.160,0.090
6.078,-0.185,0.095
6.081,-0.215,0.095
6.083,-0.220,0.100
6.086,-0.185,0.105
6.089,-0.180,0.110
6.092,-0.165,0.090
6.094,-0.180,0.085
6.097,-0.180,0.090
6.100,-0.175,0.125
6.103,-0.160,0.130
6.106,-0.135,0.110
6.108,-0.145,0.110
6.111,-0.145,0.105
6.114,-0.150,0.100
6.117,-0.130,0.095
6.119,-0.120,0.120
6.122,-0.135,0.125
6.125,-0.140,0.110
6.128,-0.145,0.085
6.131,-0.145,0.095
6.133,-0.145,0.125
6.136,-0.140,0.115
6.139,-0.160,0.100
6.142,-0.150,0.105
6.144,-0.155,0.120
6.147,-0.160,0.085
6.150,-0.155,0.100
6.153,-0.180,0.120
6.156,-0.180,0.125
6.158,-0.165,0.100
6.161,-0.170,0.080
6.164,-0.180,0.100
6.167,-0.200,0.115
6.169,-0.195,0.125
6.172,-0.185,0.110
6.175,-0.185,0.100
6.178,-0.195,0.105
6.181,-0.225,0.085
6.183,-0.215,0.085
6.186,-0.195,0.105
6.189,-0.160,0.135
6.192,-0.150,0.105
6.194,-0.175,0.090
6.197,-0.190,0.095
6.200,-0.205,0.095
6.203,-0.195,0.115
6.206,-0.180,0.095
6.208,-0.175,0.090
6.211,-0.170,0.110
6.214,-0.190,0.110
6.217,-0.160,0.105
6.219,-0.145,0.115
6.222,-0.135,0.125
6.225,-0.140,0.120
6.228,-0.145,0.085
6.231,-0.170,0.095
6.233,-0.160,0.135
6.236,-0.135,0.150
6.239,-0.125,0.125
6.242,-0.165,0.110
6.244,-0.200,0.105
6.247,-0.225,0.100
6.250,-0.215,0.110
6.253,-0.190,0.110
6.256,-0.170,0.120
6.258,-0.175,0.120
6.261,-0.185,0.100
6.264,-0.185,0.110
6.267,-0.155,0.110
6.269,-0.150,0.130
6.272,-0.135,0.115
6.275,-0.130,0.090
6.278,-0.125,0.115
6.281,-0.135,0.115
6.283,-0.120,0.135
6.286,-0.100,0.120
6.289,-0.090,0.130
6.292,-0.080,0.125
6.294,-0.080,0.110
6.297,-0.095,0.095
6.300,-0.090,0.115
6.303,-0.085,0.130
6.306,-0.110,0.125
6.308,-0.120,0.105
6.311,-0.130,0.095
6.314,-0.155,0.100
6.317,-0.135,0.100
6.319,-0.135,0.085
6.322,-0.125,0.105
6.325,-0.140,0.105
6.328,-0.155,0.095
6.331,-0.175,0.075
6.333,-0.150,0.075
6.336,-0.165,0.110
6.339,-0.165,0.105
6.342,-0.160,0.070
6.344,-0.185,0.055
6.347,-0.215,0.070
6.350,-0.210,0.095
6.353,-0.175,0.095
6.356,-0.145,0.080
6.358,-0.150,0.090
6.361,-0.170,0.090
6.364,-0.180,0.085
6.367,-0.150,0.065
6.369,-0.150,0.090
6.372,-0.135,0.110
6.375,-0.155,0.095
6.378,-0.170,0.070
6.381,-0.195,0.070
6.383,-0.185,0.095
6.386,-0.185,0.090
6.389,-0.170,0.060
6.392,-0.170,0.070
6.394,-0.180,0.075
6.397,-0.185,0.090
6.400,-0.185,0.085
6.403,-0.195,0.080
6.406,-0.210,0.100
6.408,-0.210,0.100
6.411,-0.200,0.075
6.414,-0.175,0.060
6.417,-0.165,0.080
6.419,-0.165,0.110
6.422,-0.185,0.095
6.425,-0.210,0.075
6.428,-0.240,0.075
6.431,-0.245,0.080
6.433,-0.245,0.085
6.436,-0.240,0.075
6.439,-0.215,0.075
6.442,-0.185,0.080
6.444,-0.125,0.090
6.447,-0.050,0.070
6.450,0.035,0.070
6.453,0.145,0.105
6.456,0.235,0.100
6.458,0.325,0.075
6.461,0.440,0.065
6.464,0.555,0.090
6.467,0.695,0.130
6.469,0.830,0.135
6.472,0.965,0.115
6.475,1.095,0.120
6.478,1.155,0.125
6.481,1.145,0.110
6.483,1.065,0.090
6.486,0.920,0.110
6.489,0.660,0.140
6.492,0.215,0.140
6.494,-0.185,0.120
6.497,-0.405,0.135
6.500,-0.480,0.155
6.503,-0.490,0.150
6.506,-0.460,0.130
6.508,-0.420,0.120
6.511,-0.370,0.130
6.514,-0.350,0.130
6.517,-0.340,0.130
6.519,-0.340,0.120
6.522,-0.340,0.120
6.525,-0.355,0.130
6.528,-0.385,0.100
6.531,-0.390,0.085
6.533,-0.375,0.095
6.536,-0.365,0.120
6.539,-0.370,0.120
6.542,-0.360,0.090
6.544,-0.355,0.085
6.547,-0.370,0.080
6.550,-0.335,0.095
6.553,-0.315,0.090
6.556,-0.305,0.070
6.558,-0.295,0.080
6.561,-0.310,0.100
6.564,-0.320,0.085
6.567,-0.305,0.090
6.569,-0.290,0.105
6.572,-0.275,0.100
6.575,-0.275,0.085
6.578,-0.265,0.060
6.581,-0.275,0.065
6.583,-0.285,0.090
6.586,-0.280,0.110
6.589,-0.275,0.090
6.592,-0.265,0.085
6.594,-0.270,0.085
6.597,-0.265,0.095
6.600,-0.250,0.080
6.603,-0.255,0.085
6.606,-0.265,0.100
6.608,-0.275,0.105
6.611,-0.300,0.095
6.614,-0.310,0.070
6.617,-0.300,0.095
6.619,-0.270,0.115
6.622,-0.255,0.100
6.625,-0.260,0.080
6.628,-0.265,0.065
6.631,-0.275,0.095
6.633,-0.245,0.110
6.636,-0.235,0.105
6.639,-0.260,0.100
6.642,-0.290,0.110
6.644,-0.305,0.110
6.647,-0.315,0.090
6.650,-0.305,0.080
6.653,-0.285,0.110
6.656,-0.265,0.125
6.658,-0.245,0.125
6.661,-0.240,0.105
6.664,-0.235,0.100
6.667,-0.235,0.115
6.669,-0.220,0.135
6.672,-0.200,0.105
6.675,-0.210,0.090
6.678,-0.225,0.105
6.681,-0.255,0.120
6.683,-0.235,0.110
6.686,-0.220,0.105
6.689,-0.205,0.125
6.692,-0.200,0.120
6.694,-0.200,0.100
6.697,-0.210,0.095
6.700,-0.235,0.110
6.703,-0.250,0.130
6.706,-0.250,0.125
6.708,-0.235,0.115
6.711,-0.215,0.110
6.714,-0.210,0.110
6.717,-0.200,0.105
6.719,-0.195,0.115
6.722,-0.180,0.115
6.725,-0.185,0.125
6.728,-0.180,0.120
6.731,-0.185,0.095
6.733,-0.155,0.125
6.736,-0.140,0.140
6.739,-0.120,0.125
6.742,-0.145,0.095
6.744,-0.185,0.095
6.747,-0.235,0.115
6.750,-0.225,0.140
6.753,-0.195,0.125
6.756,-0.155,0.125
6.758,-0.145,0.135
6.761,-0.125,0.130
6.764,-0.125,0.110
6.767,-0.120,0.105
6.769,-0.120,0.145
6.772,-0.125,0.140
6.775,-0.135,0.115
6.778,-0.135,0.120
6.781,-0.150,0.120
6.783,-0.135,0.115
6.786,-0.125,0.105
6.789,-0.120,0.120
6.792,-0.105,0.130
6.794,-0.100,0.110
6.797,-0.105,0.095
6.800,-0.120,0.110
6.803,-0.140,0.120
6.806,-0.135,0.100
6.808,-0.150,0.075
6.811,-0.150,0.085
6.814,-0.165,0.105
6.817,-0.160,0.105
6.819,-0.150,0.080
6.822,-0.165,0.100
6.825,-0.185,0.110
6.828,-0.185,0.070
6.831,-0.195,0.070
6.833,-0.190,0.095
6.836,-0.190,0.110
6.839,-0.200,0.095
6.842,-0.210,0.075
6.844,-0.230,0.075
6.847,-0.230,0.090
6.850,-0.205,0.080
6.853,-0.180,0.060
6.856,-0.185,0.070
6.858,-0.175,0.090
6.861,-0.175,0.085
6.864,-0.190,0.060
6.867,-0.190,0.075
6.869,-0.230,0.105
6.872,-0.275,0.085
6.875,-0.295,0.065
6.878,-0.290,0.060
6.881,-0.275,0.075
6.883,-0.250,0.095
6.886,-0.215,0.075
6.889,-0.180,0.080
6.892,-0.185,0.085
6.894,-0.170,0.065
6.897,-0.170,0.060
6.900,-0.130,0.075
6.903,-0.100,0.095
6.906,-0.065,0.090
6.908,-0.045,0.065
6.911,-0.055,0.070
6.914,-0.045,0.070
6.917,-0.030,0.060
6.919,-0.025,0.040
6.922,0.000,0.040
6.925,0.020,0.045
6.928,0.010,0.020
6.931,-0.030,0.000
6.933,-0.085,0.000
6.936,-0.195,0.005
6.939,-0.445,-0.030
6.942,-0.835,-0.060
6.944,-1.260,-0.055
6.947,-1.635,-0.035
6.950,-1.945,-0.040
6.953,-2.130,-0.045
6.956,-2.175,-0.030
6.958,-2.175,-0.015
6.961,-2.155,-0.045
6.964,-2.130,-0.055
6.967,-2.070,-0.010
6.969,-1.985,0.025
6.972,-1.880,0.020
6.975,-1.770,0.015
6.978,-1.660,0.045
6.981,-1.545,0.065
6.983,-1.395,0.065
6.986,-1.210,0.070
6.989,-1.085,0.080
6.992,-1.005,0.105
6.994,-0.950,0.085
6.997,-0.900,0.070
7.000,-0.845,0.100
7.003,-0.775,0.115
7.006,-0.710,0.095
7.008,-0.670,0.080
7.011,-0.635,0.080
7.014,-0.590,0.105
7.017,-0.520,0.095
7.019,-0.455,0.085
7.022,-0.400,0.100
7.025,-0.345,0.115
7.028,-0.250,0.090
7.031,-0.165,0.070
7.033,-0.090,0.110
7.036,-0.030,0.145
7.039,0.040,0.130
7.042,0.095,0.115
7.044,0.140,0.125
7.047,0.160,0.135
7.050,0.175,0.130
7.053,0.215,0.130
7.056,0.240,0.140
7.058,0.275,0.155
7.061,0.275,0.135
7.064,0.285,0.135
7.067,0.315,0.165
7.069,0.320,0.180
7.072,0.340,0.140
7.075,0.355,0.140
7.078,0.380,0.150
7.081,0.385,0.145
7.083,0.400,0.145
7.086,0.425,0.150
7.089,0.465,0.170
7.092,0.495,0.165
7.094,0.505,0.130
7.097,0.515,0.140
7.100,0.555,0.170
7.103,0.600,0.185
7.106,0.625,0.155
7.108,0.630,0.165
7.111,0.630,0.165
7.114,0.645,0.150
7.117,0.655,0.140
7.119,0.690,0.165
7.122,0.710,0.170
7.125,0.720,0.165
7.128,0.720,0.140
7.131,0.715,0.145
7.133,0.720,0.180
7.136,0.735,0.180
7.139,0.735,0.165
7.142,0.755,0.155
7.144,0.740,0.170
7.147,0.730,0.160
7.150,0.740,0.160
7.153,0.760,0.175
7.156,0.770,0.195
7.158,0.750,0.175
7.161,0.730,0.145
7.164,0.710,0.155
7.167,0.700,0.175
7.169,0.690,0.190
7.172,0.680,0.165
7.175,0.660,0.170
7.178,0.635,0.170
7.181,0.600,0.155
7.183,0.575,0.150
7.186,0.545,0.165
7.189,0.495,0.170
7.192,0.455,0.165
7.194,0.440,0.140
7.197,0.420,0.155
7.200,0.395,0.175
7.203,0.380,0.160
7.206,0.365,0.140
7.208,0.355,0.140
7.211,0.315,0.160
7.214,0.280,0.145
7.217,0.250,0.135
7.219,0.240,0.155
7.222,0.230,0.170
7.225,0.215,0.145
7.228,0.195,0.115
7.231,0.180,0.125
7.233,0.160,0.150
7.236,0.150,0.165
7.239,0.125,0.140
7.242,0.115,0.140
7.244,0.090,0.150
7.247,0.055,0.135
7.250,0.040,0.125
7.253,0.010,0.125
7.256,-0.015,0.145
7.258,-0.035,0.145
7.261,-0.040,0.110
7.264,-0.045,0.125
7.267,-0.045,0.150
7.269,-0.030,0.145
7.272,-0.040,0.115
7.275,-0.030,0.120
7.278,-0.040,0.130
7.281,-0.050,0.135
7.283,-0.050,0.115
7.286,-0.055,0.135
7.289,-0.065,0.150
7.292,-0.065,0.145
7.294,-0.065,0.110
7.297,-0.070,0.100
7.300,-0.080,0.125
7.303,-0.105,0.150
7.306,-0.105,0.130
7.308,-0.105,0.100
7.311,-0.115,0.115
7.314,-0.105,0.115
7.317,-0.085,0.105
7.319,-0.085,0.100
7.322,-0.095,0.120
7.325,-0.090,0.125
7.328,-0.110,0.100
7.331,-0.120,0.085
7.333,-0.120,0.110
7.336,-0.120,0.125
7.339,-0.105,0.110
7.342,-0.110,0.090
7.344,-0.115,0.100
7.347,-0.135,0.105
7.350,-0.140,0.110
7.353,-0.125,0.115
7.356,-0.120,0.110
7.358,-0.110,0.105
7.361,-0.130,0.085
7.364,-0.140,0.065
7.367,-0.155,0.095
7.369,-0.155,0.120
7.372,-0.155,0.115
7.375,-0.160,0.080
7.378,-0.175,0.065
7.381,-0.195,0.095
7.383,-0.180,0.105
7.386,-0.170,0.085
7.389,-0.155,0.075
7.392,-0.140,0.095
7.394,-0.130,0.095
7.397,-0.140,0.080
7.400,-0.160,0.070
7.403,-0.175,0.090
7.406,-0.190,0.105
7.408,-0.210,0.095
7.411,-0.200,0.055
7.414,-0.180,0.070
7.417,-0.170,0.120
7.419,-0.180,0.110
7.422,-0.170,0.095
7.425,-0.185,0.085
7.428,-0.180,0.100
7.431,-0.195,0.100
7.433,-0.185,0.075
7.436,-0.180,0.085
7.439,-0.175,0.100
7.442,-0.185,0.105
7.444,-0.200,0.075
7.447,-0.225,0.075
7.450,-0.225,0.090
7.453,-0.205,0.130
7.456,-0.185,0.100
7.458,-0.190,0.075
7.461,-0.195,0.075
7.464,-0.185,0.100
7.467,-0.170,0.105
7.469,-0.170,0.085
7.472,-0.190,0.075
7.475,-0.210,0.115
7.478,-0.220,0.110
7.481,-0.225,0.085
7.483,-0.200,0.075
7.486,-0.185,0.100
7.489,-0.180,0.115
7.492,-0.210,0.105
7.494,-0.215,0.075
7.497,-0.210,0.080
7.500,-0.195,0.100
7.503,-0.205,0.115
7.506,-0.215,0.080
7.508,-0.205,0.085
7.511,-0.195,0.095
7.514,-0.200,0.115
7.517,-0.210,0.100
7.519,-0.215,0.095
7.522,-0.215,0.110
7.525,-0.205,0.125
7.528,-0.195,0.105
7.531,-0.205,0.080
7.533,-0.180,0.095
7.536,-0.165,0.135
7.539,-0.160,0.130
7.542,-0.130,0.115
7.544,-0.130,0.100
7.547,-0.135,0.125
7.550,-0.125,0.130
7.553,-0.145,0.105
7.556,-0.155,0.115
7.558,-0.185,0.115
7.561,-0.200,0.110
7.564,-0.210,0.110
7.567,-0.205,0.100
7.569,-0.195,0.110
7.572,-0.190,0.125
7.575,-0.190,0.105
7.578,-0.185,0.075
7.581,-0.185,0.080
7.583,-0.170,0.110
7.586,-0.180,0.115
7.589,-0.180,0.090
7.592,-0.185,0.075
7.594,-0.180,0.090
7.597,-0.190,0.105
7.600,-0.220,0.095
7.603,-0.255,0.095
7.606,-0.260,0.095
7.608,-0.270,0.120
7.611,-0.265,0.115
7.614,-0.240,0.090
7.617,-0.230,0.095
7.619,-0.205,0.110
7.622,-0.210,0.120
7.625,-0.240,0.100
7.628,-0.260,0.085
7.631,-0.265,0.085
7.633,-0.270,0.110
7.636,-0.255,0.115
7.639,-0.260,0.090
7.642,-0.265,0.100
7.644,-0.275,0.105
7.647,-0.265,0.115
7.650,-0.255,0.085
7.653,-0.235,0.090
7.656,-0.245,0.110
7.658,-0.260,0.110
7.661,-0.260,0.090
7.664,-0.270,0.080
7.667,-0.255,0.095
7.669,-0.230,0.130
7.672,-0.230,0.115
7.675,-0.245,0.075
7.678,-0.240,0.085
7.681,-0.260,0.080
7.683,-0.270,0.105
7.686,-0.280,0.090
7.689,-0.285,0.070
7.692,-0.290,0.085
7.694,-0.295,0.095
7.697,-0.290,0.080
7.700,-0.255,0.065
7.703,-0.200,0.075
7.706,-0.120,0.090
7.708,-0.050,0.100
7.711,0.015,0.070
7.714,0.090,0.070
7.717,0.180,0.075
7.719,0.265,0.115
7.722,0.370,0.110
7.725,0.480,0.085
7.728,0.595,0.080
7.731,0.705,0.110
7.733,0.790,0.120
7.736,0.850,0.105
7.739,0.855,0.095
7.742,0.795,0.115
7.744,0.685,0.125
7.747,0.515,0.120
7.750,0.280,0.120
7.753,0.015,0.140
7.756,-0.215,0.165
7.758,-0.390,0.155
7.761,-0.495,0.125
7.764,-0.555,0.140
7.767,-0.540,0.175
7.769,-0.485,0.165
7.772,-0.450,0.135
7.775,-0.440,0.115
7.778,-0.430,0.120
7.781,-0.445,0.125
7.783,-0.430,0.120
7.786,-0.415,0.105
7.789,-0.400,0.110
7.792,-0.400,0.115
7.794,-0.405,0.100
7.797,-0.420,0.075
7.800,-0.405,0.075
7.803,-0.395,0.105
7.806,-0.385,0.105
7.808,-0.375,0.070
7.811,-0.395,0.050
7.814,-0.410,0.050
7.817,-0.405,0.090
7.819,-0.365,0.105
7.822,-0.335,0.075
7.825,-0.320,0.060
7.828,-0.335,0.075
7.831,-0.340,0.090
7.833,-0.340,0.085
7.836,-0.335,0.075
7.839,-0.340,0.075
7.842,-0.335,0.090
7.844,-0.345,0.095
7.847,-0.350,0.070
7.850,-0.345,0.060
7.853,-0.335,0.075
7.856,-0.330,0.090
7.858,-0.320,0.080
7.861,-0.330,0.050
7.864,-0.335,0.050
7.867,-0.330,0.085
7.869,-0.330,0.100
7.872,-0.320,0.090
7.875,-0.310,0.055
7.878,-0.305,0.045
7.881,-0.305,0.070
7.883,-0.310,0.080
7.886,-0.310,0.075
7.889,-0.295,0.055
7.892,-0.300,0.080
7.894,-0.315,0.080
7.897,-0.320,0.065
7.900,-0.330,0.065
7.903,-0.315,0.070
7.906,-0.320,0.075
7.908,-0.320,0.060
7.911,-0.325,0.035
7.914,-0.310,0.030
7.917,-0.295,0.065
7.919,-0.285,0.080
7.922,-0.280,0.070
7.925,-0.300,0.050
7.928,-0.300,0.035
7.931,-0.285,0.055
7.933,-0.270,0.070
7.936,-0.245,0.075
7.939,-0.240,0.055
7.942,-0.260,0.070
7.944,-0.265,0.080
7.947,-0.280,0.080
7.950,-0.270,0.070
7.953,-0.280,0.075
7.956,-0.290,0.090
7.958,-0.290,0.080
7.961,-0.295,0.070
7.964,-0.270,0.055
7.967,-0.250,0.080
7.969,-0.235,0.105
7.972,-0.225,0.100
7.975,-0.245,0.085
7.978,-0.280,0.080
7.981,-0.285,0.085
7.983,-0.280,0.085
7.986,-0.260,0.080
7.989,-0.245,0.080
7.992,-0.240,0.095
7.994,-0.250,0.090
7.997,-0.255,0.095
8.000,-0.240,0.075
8.003,-0.225,0.095
8.006,-0.225,0.105
8.008,-0.230,0.105
8.011,-0.240,0.075
8.014,-0.235,0.060
8.017,-0.230,0.080
8.019,-0.205,0.100
8.022,-0.195,0.110
8.025,-0.195,0.085
8.028,-0.190,0.070
8.031,-0.195,0.080
8.033,-0.200,0.095
8.036,-0.205,0.090
8.039,-0.190,0.080
8.042,-0.210,0.080
8.044,-0.215,0.090
8.047,-0.220,0.105
8.050,-0.225,0.110
8.053,-0.205,0.090
8.056,-0.190,0.105
8.058,-0.195,0.105
8.061,-0.195,0.100
8.064,-0.205,0.075
8.067,-0.215,0.090
8.069,-0.180,0.105
8.072,-0.180,0.115
8.075,-0.190,0.120
8.078,-0.190,0.095
8.081,-0.190,0.095
8.083,-0.185,0.100
8.086,-0.165,0.120
8.089,-0.165,0.130
8.092,-0.190,0.100
8.094,-0.220,0.085
8.097,-0.230,0.090
8.100,-0.200,0.120
8.103,-0.205,0.130
8.106,-0.185,0.110
8.108,-0.200,0.110
8.111,-0.215,0.115
8.114,-0.240,0.115
8.117,-0.220,0.125
8.119,-0.210,0.110
8.122,-0.195,0.110
8.125,-0.220,0.115
8.128,-0.270,0.120
8.131,-0.270,0.105
8.133,-0.265,0.110
8.136,-0.245,0.130
8.139,-0.245,0.125
8.142,-0.240,0.115
8.144,-0.255,0.095
8.147,-0.265,0.085
8.150,-0.265,0.115
8.153,-0.260,0.140
8.156,-0.255,0.130
8.158,-0.230,0.105
8.161,-0.250,0.110
8.164,-0.260,0.115
8.167,-0.265,0.120
8.169,-0.260,0.115
8.172,-0.255,0.100
8.175,-0.265,0.110
8.178,-0.265,0.110
8.181,-0.275,0.120
8.183,-0.275,0.115
8.186,-0.270,0.120
8.189,-0.285,0.120
8.192,-0.295,0.110
8.194,-0.295,0.100
8.197,-0.295,0.080
8.200,-0.290,0.095
8.203,-0.250,0.125
8.206,-0.215,0.125
8.208,-0.210,0.110
8.211,-0.210,0.090
8.214,-0.225,0.095
8.217,-0.205,0.120
8.219,-0.185,0.125
8.222,-0.160,0.100
8.225,-0.130,0.085
8.228,-0.130,0.085
8.231,-0.135,0.110
8.233,-0.130,0.105
8.236,-0.110,0.100
8.239,-0.070,0.095
8.242,-0.060,0.080
8.244,-0.055,0.075
8.247,-0.035,0.070
8.250,0.030,0.045
8.253,0.115,0.045
8.256,0.160,0.065
8.258,0.160,0.055
8.261,0.120,0.035
8.264,0.110,0.035
8.267,0.100,0.030
8.269,0.075,0.050
8.272,-0.005,0.045
8.275,-0.160,0.010
8.278,-0.430,-0.020
8.281,-0.820,-0.005
8.283,-1.200,0.030
8.286,-1.525,0.055
8.289,-1.745,0.035
8.292,-1.865,0.020
8.294,-1.910,0.010
8.297,-1.955,0.040
8.300,-1.965,0.040
8.303,-1.940,0.035
8.306,-1.910,0.035
8.308,-1.900,0.030
8.311,-1.890,0.060
8.314,-1.870,0.075
8.317,-1.785,0.070
8.319,-1.670,0.095
8.322,-1.525,0.100
8.325,-1.455,0.105
8.328,-1.420,0.090
8.331,-1.370,0.075
8.333,-1.300,0.090
8.336,-1.190,0.120
8.339,-1.075,0.135
8.342,-0.990,0.125
8.344,-0.945,0.105
8.347,-0.890,0.095
8.350,-0.825,0.110
8.353,-0.780,0.135
8.356,-0.735,0.095
8.358,-0.700,0.080
8.361,-0.650,0.075
8.364,-0.605,0.090
8.367,-0.550,0.105
8.369,-0.525,0.095
8.372,-0.510,0.075
8.375,-0.510,0.095
8.378,-0.500,0.090
8.381,-0.490,0.085
8.383,-0.450,0.080
8.386,-0.415,0.070
8.389,-0.390,0.075
8.392,-0.335,0.085
8.394,-0.290,0.090
8.397,-0.230,0.085
8.400,-0.160,0.080
8.403,-0.095,0.100
8.406,-0.030,0.115
8.408,0.010,0.105
8.411,0.030,0.075
8.414,0.055,0.065
8.417,0.090,0.095
8.419,0.120,0.110
8.422,0.145,0.115
8.425,0.160,0.110
8.428,0.175,0.115
8.431,0.165,0.110
8.433,0.175,0.095
8.436,0.195,0.090
8.439,0.235,0.100
8.442,0.250,0.110
8.444,0.255,0.115
8.447,0.240,0.105
8.450,0.270,0.110
8.453,0.280,0.115
8.456,0.300,0.130
8.458,0.330,0.115
8.461,0.355,0.085
8.464,0.370,0.075
8.467,0.390,0.110
8.469,0.395,0.140
8.472,0.410,0.135
8.475,0.425,0.105
8.478,0.430,0.095
8.481,0.470,0.100
8.483,0.485,0.130
8.486,0.520,0.130
8.489,0.540,0.100
8.492,0.535,0.095
8.494,0.535,0.120
8.497,0.545,0.140
8.500,0.570,0.130
8.503,0.590,0.115
8.506,0.615,0.115
8.508,0.610,0.130
8.511,0.620,0.125
8.514,0.610,0.120
8.517,0.615,0.105
8.519,0.630,0.100
8.522,0.635,0.110
8.525,0.635,0.125
8.528,0.655,0.130
8.531,0.660,0.100
8.533,0.660,0.100
8.536,0.660,0.120
8.539,0.655,0.140
8.542,0.645,0.125
8.544,0.610,0.090
8.547,0.590,0.085
8.550,0.605,0.115
8.553,0.615,0.135
8.556,0.625,0.140
8.558,0.620,0.110
8.561,0.590,0.105
8.564,0.560,0.135
8.567,0.565,0.150
8.569,0.560,0.140
8.572,0.560,0.105
8.575,0.530,0.085
8.578,0.495,0.110
8.581,0.475,0.125
8.583,0.465,0.115
8.586,0.475,0.115
8.589,0.470,0.110
8.592,0.440,0.120
8.594,0.420,0.125
8.597,0.390,0.110
8.600,0.385,0.105
8.603,0.360,0.110
8.606,0.350,0.120
8.608,0.315,0.125
8.611,0.280,0.100
8.614,0.245,0.105
8.617,0.225,0.110
8.619,0.215,0.140
8.622,0.190,0.135
8.625,0.165,0.120
8.628,0.150,0.085
8.631,0.120,0.090
8.633,0.110,0.130
8.636,0.085,0.150
8.639,0.080,0.125
8.642,0.050,0.095
8.644,0.030,0.090
8.647,0.010,0.110
8.650,0.005,0.135
8.653,0.005,0.125
8.656,0.000,0.105
8.658,0.005,0.085
8.661,-0.015,0.085
8.664,-0.050,0.110
8.667,-0.075,0.115
8.669,-0.100,0.110
8.672,-0.105,0.095
8.675,-0.085,0.105
8.678,-0.060,0.115
8.681,-0.060,0.120
8.683,-0.045,0.110
8.686,-0.050,0.100
8.689,-0.050,0.100
8.692,-0.050,0.120
8.694,-0.070,0.125
8.697,-0.075,0.100
8.700,-0.080,0.100
8.703,-0.095,0.120
8.706,-0.105,0.140
8.708,-0.085,0.135
8.711,-0.090,0.110
8.714,-0.105,0.090
8.717,-0.100,0.105
8.719,-0.100,0.140
8.722,-0.085,0.135
8.725,-0.090,0.115
8.728,-0.110,0.090
8.731,-0.120,0.100
8.733,-0.110,0.130
8.736,-0.085,0.145
8.739,-0.075,0.120
8.742,-0.085,0.090
8.744,-0.100,0.095
8.747,-0.130,0.120
8.750,-0.130,0.125
8.753,-0.140,0.120
8.756,-0.145,0.115
8.758,-0.145,0.125
8.761,-0.145,0.120
8.764,-0.150,0.115
8.767,-0.150,0.100
8.769,-0.150,0.100
8.772,-0.135,0.100
8.775,-0.130,0.110
8.778,-0.135,0.085
8.781,-0.140,0.095
8.783,-0.130,0.125
8.786,-0.120,0.140
8.789,-0.120,0.120
8.792,-0.120,0.100
8.794,-0.120,0.100
8.797,-0.135,0.115
8.800,-0.140,0.110
8.803,-0.150,0.115
8.806,-0.130,0.110
8.808,-0.120,0.115
8.811,-0.120,0.115
8.814,-0.125,0.120
8.817,-0.140,0.095
8.819,-0.160,0.105
8.822,-0.180,0.105
8.825,-0.205,0.115
8.828,-0.230,0.100
8.831,-0.205,0.090
8.833,-0.200,0.090
8.836,-0.190,0.120
8.839,-0.195,0.125
8.842,-0.190,0.110
8.844,-0.210,0.090
8.847,-0.240,0.090
8.850,-0.240,0.120
8.853,-0.235,0.135
8.856,-0.210,0.105
8.858,-0.190,0.095
8.861,-0.185,0.100
8.864,-0.200,0.115
8.867,-0.200,0.120
8.869,-0.200,0.105
8.872,-0.175,0.100
8.875,-0.170,0.115
8.878,-0.185,0.110
8.881,-0.210,0.090
8.883,-0.220,0.090
8.886,-0.215,0.115
8.889,-0.220,0.125
8.892,-0.230,0.115
8.894,-0.240,0.075
8.897,-0.235,0.080
8.900,-0.225,0.105
8.903,-0.200,0.115
8.906,-0.175,0.090
8.908,-0.175,0.080
8.911,-0.175,0.090
8.914,-0.185,0.100
8.917,-0.185,0.105
8.919,-0.175,0.090
8.922,-0.175,0.090
8.925,-0.195,0.100
8.928,-0.225,0.100
8.931,-0.245,0.075
8.933,-0.230,0.075
8.936,-0.210,0.100
8.939,-0.200,0.115
8.942,-0.190,0.100
8.944,-0.200,0.075
8.947,-0.205,0.065
8.950,-0.210,0.100
8.953,-0.215,0.100
8.956,-0.215,0.085
8.958,-0.220,0.070
8.961,-0.210,0.090
8.964,-0.175,0.100
8.967,-0.145,0.100
8.969,-0.125,0.090
8.972,-0.135,0.095
8.975,-0.140,0.100
8.978,-0.145,0.085
8.981,-0.155,0.065
8.983,-0.150,0.095
8.986,-0.150,0.120
8.989,-0.145,0.120
8.992,-0.140,0.085
8.994,-0.165,0.080
8.997,-0.180,0.085
9.000,-0.165,0.090
9.003,-0.160,0.085
9.006,-0.155,0.075
9.008,-0.175,0.100
9.011,-0.205,0.095
9.014,-0.225,0.075
9.017,-0.210,0.075
9.019,-0.185,0.105
9.022,-0.175,0.100
9.025,-0.175,0.090
9.028,-0.200,0.060
9.031,-0.225,0.065
9.033,-0.230,0.095
9.036,-0.215,0.105
9.039,-0.210,0.075
9.042,-0.210,0.075
9.044,-0.205,0.085
9.047,-0.200,0.080
9.050,-0.170,0.070
9.053,-0.150,0.065
9.056,-0.150,0.090
9.058,-0.170,0.110
9.061,-0.190,0.070
9.064,-0.220,0.070
9.067,-0.205,0.080
9.069,-0.210,0.095
9.072,-0.205,0.085
9.075,-0.200,0.075
9.078,-0.210,0.080
9.081,-0.220,0.100
9.083,-0.235,0.085
9.086,-0.250,0.080
9.089,-0.245,0.090
9.092,-0.260,0.095
9.094,-0.285,0.075
9.097,-0.285,0.075
9.100,-0.270,0.080
9.103,-0.255,0.100
9.106,-0.230,0.095
9.108,-0.195,0.085
9.111,-0.180,0.080
9.114,-0.185,0.090
9.117,-0.180,0.085
9.119,-0.200,0.090
9.122,-0.195,0.090
9.125,-0.190,0.095
9.128,-0.210,0.085
9.131,-0.230,0.065
9.133,-0.205,0.080
9.136,-0.155,0.095
9.139,-0.075,0.090
9.142,0.010,0.070
9.144,0.095,0.055
9.147,0.180,0.080
9.150,0.270,0.100
9.153,0.355,0.095
9.156,0.455,0.080
9.158,0.560,0.095
9.161,0.675,0.100
9.164,0.785,0.090
9.167,0.905,0.090
9.169,1.005,0.120
9.172,1.030,0.135
9.175,0.995,0.125
9.178,0.875,0.100
9.181,0.625,0.120
9.183,0.220,0.155
9.186,-0.170,0.155
9.189,-0.390,0.150
9.192,-0.445,0.155
9.194,-0.475,0.180
9.197,-0.475,0.165
9.200,-0.420,0.155
9.203,-0.370,0.165
9.206,-0.345,0.155
9.208,-0.335,0.155
9.211,-0.340,0.125
9.214,-0.365,0.130
9.217,-0.380,0.150
9.219,-0.390,0.150
9.222,-0.400,0.130
9.225,-0.395,0.110
9.228,-0.380,0.115
9.231,-0.385,0.095
9.233,-0.385,0.080
9.236,-0.395,0.090
9.239,-0.375,0.105
9.242,-0.330,0.105
9.244,-0.300,0.085
9.247,-0.295,0.080
9.250,-0.325,0.095
9.253,-0.345,0.100
9.256,-0.350,0.090
9.258,-0.340,0.080
9.261,-0.320,0.075
9.264,-0.285,0.090
9.267,-0.270,0.110
9.269,-0.265,0.100
9.272,-0.270,0.105
9.275,-0.260,0.095
9.278,-0.295,0.085
9.281,-0.315,0.080
9.283,-0.320,0.090
9.286,-0.315,0.115
9.289,-0.295,0.115
9.292,-0.285,0.090
9.294,-0.275,0.090
9.297,-0.285,0.085
9.300,-0.275,0.095
9.303,-0.270,0.090
9.306,-0.265,0.085
9.308,-0.265,0.095
9.311,-0.270,0.095
9.314,-0.275,0.080
9.317,-0.280,0.085
9.319,-0.260,0.095
9.322,-0.260,0.100
9.325,-0.255,0.090
9.328,-0.260,0.070
9.331,-0.275,0.070
9.333,-0.260,0.095
9.336,-0.255,0.105
9.339,-0.250,0.095
9.342,-0.260,0.080
9.344,-0.265,0.080
9.347,-0.265,0.075
9.350,-0.280,0.065
9.353,-0.275,0.075
9.356,-0.265,0.100
9.358,-0.250,0.095
9.361,-0.240,0.055
9.364,-0.220,0.065
9.367,-0.190,0.080
9.369,-0.180,0.090
9.372,-0.210,0.055
9.375,-0.280,0.055
9.378,-0.355,0.060
9.381,-0.355,0.080
9.383,-0.300,0.085
9.386,-0.265,0.080
9.389,-0.250,0.080
9.392,-0.290,0.075
9.394,-0.330,0.045
9.397,-0.325,0.040
9.400,-0.280,0.070
9.403,-0.265,0.095
9.406,-0.250,0.085
9.408,-0.250,0.065
9.411,-0.245,0.060
9.414,-0.250,0.070
9.417,-0.250,0.060
9.419,-0.250,0.055
9.422,-0.240,0.060
9.425,-0.235,0.075
9.428,-0.235,0.070
9.431,-0.230,0.060
9.433,-0.195,0.055
9.436,-0.185,0.090
9.439,-0.165,0.085
9.442,-0.160,0.060
9.444,-0.175,0.040
9.447,-0.185,0.060
9.450,-0.165,0.080
9.453,-0.135,0.075
9.456,-0.135,0.055
9.458,-0.120,0.055
9.461,-0.140,0.075
9.464,-0.150,0.055
9.467,-0.140,0.045
9.469,-0.135,0.040
9.472,-0.150,0.070
9.475,-0.170,0.080
9.478,-0.165,0.055
9.481,-0.180,0.050
9.483,-0.175,0.070
9.486,-0.160,0.085
9.489,-0.150,0.080
9.492,-0.165,0.050
9.494,-0.155,0.045
9.497,-0.155,0.065
9.500,-0.150,0.090
9.503,-0.145,0.105
9.506,-0.145,0.075
9.508,-0.145,0.075
9.511,-0.145,0.075
9.514,-0.150,0.070
9.517,-0.165,0.060
9.519,-0.175,0.075
9.522,-0.160,0.080
9.525,-0.165,0.105
9.528,-0.190,0.075
9.531,-0.185,0.070
9.533,-0.190,0.100
9.536,-0.190,0.095
9.539,-0.185,0.085
9.542,-0.180,0.075
9.544,-0.205,0.060
9.547,-0.205,0.080
9.550,-0.210,0.085
9.553,-0.210,0.075
9.556,-0.205,0.075
9.558,-0.220,0.095
9.561,-0.215,0.070
9.564,-0.220,0.055
9.567,-0.200,0.050
9.569,-0.200,0.070
9.572,-0.195,0.090
9.575,-0.205,0.080
9.578,-0.230,0.060
9.581,-0.235,0.065
9.583,-0.230,0.090
9.586,-0.210,0.085
9.589,-0.220,0.075
9.592,-0.225,0.055
9.594,-0.235,0.070
9.597,-0.240,0.085
9.600,-0.210,0.080
9.603,-0.190,0.090
9.606,-0.130,0.085
9.608,-0.105,0.080
9.611,-0.080,0.075
9.614,-0.070,0.070
9.617,-0.055,0.070
9.619,-0.025,0.090
9.622,-0.005,0.105
9.625,0.010,0.075
9.628,0.000,0.055
9.631,-0.020,0.060
9.633,-0.010,0.070
9.636,0.030,0.060
9.639,0.060,0.020
9.642,0.055,-0.005
9.644,-0.015,0.005
9.647,-0.125,-0.005
9.650,-0.265,-0.020
9.653,-0.530,-0.030
9.656,-0.905,-0.035
9.658,-1.310,-0.035
9.661,-1.685,-0.060
9.664,-1.990,-0.090
9.667,-2.185,-0.060
9.669,-2.260,-0.030
9.672,-2.260,-0.035
9.675,-2.250,-0.040
9.678,-2.245,-0.040
9.681,-2.205,-0.030
9.683,-2.140,-0.010
9.686,-2.080,-0.025
9.689,-2.005,-0.025
9.692,-1.905,-0.005
9.694,-1.815,0.015
9.697,-1.720,0.050
9.700,-1.640,0.050
9.703,-1.500,0.060
9.706,-1.330,0.070
9.708,-1.200,0.100
9.711,-1.075,0.070
9.714,-1.015,0.050
9.717,-0.945,0.060
9.719,-0.905,0.085
9.722,-0.840,0.095
9.725,-0.770,0.070
9.728,-0.725,0.050
9.731,-0.690,0.070
9.733,-0.650,0.085
9.736,-0.610,0.080
9.739,-0.540,0.065
9.742,-0.480,0.055
9.744,-0.445,0.065
9.747,-0.395,0.065
9.750,-0.340,0.070
9.753,-0.255,0.090
9.756,-0.160,0.085
9.758,-0.095,0.065
9.761,-0.045,0.050
9.764,-0.005,0.060
9.767,0.050,0.090
9.769,0.100,0.115
9.772,0.145,0.100
9.775,0.165,0.090
9.778,0.170,0.095
9.781,0.195,0.100
9.783,0.220,0.090
9.786,0.235,0.085
9.789,0.260,0.105
9.792,0.285,0.110
9.794,0.310,0.090
9.797,0.315,0.095
9.800,0.335,0.120
9.803,0.345,0.135
9.806,0.360,0.110
9.808,0.370,0.095
9.811,0.385,0.090
9.814,0.395,0.115
9.817,0.405,0.125
9.819,0.440,0.120
9.822,0.470,0.125
9.825,0.490,0.130
9.828,0.500,0.110
9.831,0.520,0.095
9.833,0.525,0.110
9.836,0.540,0.125
9.839,0.580,0.130
9.842,0.605,0.120
9.844,0.610,0.100
9.847,0.615,0.105
9.850,0.640,0.130
9.853,0.660,0.125
9.856,0.675,0.110
9.858,0.685,0.105
9.861,0.685,0.125
9.864,0.670,0.115
9.867,0.685,0.100
9.869,0.700,0.125
9.872,0.705,0.140
9.875,0.705,0.125
9.878,0.700,0.095
9.881,0.700,0.100
9.883,0.705,0.130
9.886,0.695,0.130
9.889,0.700,0.120
9.892,0.700,0.110
9.894,0.685,0.120
9.897,0.655,0.110
9.900,0.655,0.090
9.903,0.635,0.090
9.906,0.630,0.115
9.908,0.620,0.110
9.911,0.580,0.095
9.914,0.545,0.090
9.917,0.525,0.110
9.919,0.490,0.115
9.922,0.470,0.095
9.925,0.430,0.085
9.928,0.385,0.095
9.931,0.345,0.095
9.933,0.305,0.095
9.936,0.290,0.095
9.939,0.270,0.115
9.942,0.250,0.100
9.944,0.205,0.075
9.947,0.165,0.060
9.950,0.140,0.090
9.953,0.125,0.110
9.956,0.130,0.090
9.958,0.115,0.085
9.961,0.100,0.085
9.964,0.060,0.085
9.967,0.040,0.065
9.969,0.040,0.075
9.972,0.035,0.090
9.975,0.025,0.095
9.978,-0.005,0.070
9.981,-0.060,0.065
9.983,-0.080,0.095
9.986,-0.085,0.105
9.989,-0.075,0.080
9.992,-0.090,0.070
9.994,-0.110,0.080
9.997,-0.130,0.095
10.000,-0.120,0.080
10.003,-0.150,0.085
10.006,-0.145,0.090
10.008,-0.145,0.100
10.011,-0.160,0.085
10.014,-0.160,0.085
10.017,-0.150,0.090
10.019,-0.150,0.085
10.022,-0.150,0.060
10.025,-0.160,0.075
10.028,-0.190,0.070
10.031,-0.185,0.055
10.033,-0.185,0.040
10.036,-0.180,0.065
10.039,-0.175,0.070
10.042,-0.180,0.050
10.044,-0.190,0.025
10.047,-0.220,0.045
10.050,-0.220,0.070
10.053,-0.225,0.060
10.056,-0.215,0.030
10.058,-0.195,0.040
10.061,-0.195,0.065
10.064,-0.210,0.050
10.067,-0.215,0.040
10.069,-0.230,0.060
10.072,-0.220,0.075
10.075,-0.220,0.055
10.078,-0.215,0.030
10.081,-0.240,0.045
10.083,-0.240,0.065
10.086,-0.240,0.060
10.089,-0.245,0.040
10.092,-0.245,0.050
10.094,-0.245,0.040
10.097,-0.255,0.030
10.100,-0.250,0.035
10.103,-0.250,0.060
10.106,-0.245,0.065
10.108,-0.240,0.050
10.111,-0.255,0.040
10.114,-0.270,0.055
10.117,-0.275,0.050
10.119,-0.275,0.045
10.122,-0.275,0.035
10.125,-0.285,0.060
10.128,-0.280,0.035
10.131,-0.280,0.010
10.133,-0.275,0.030
10.136,-0.280,0.060
10.139,-0.300,0.040
10.142,-0.305,0.005
10.144,-0.285,0.015
10.147,-0.280,0.035
10.150,-0.280,0.035
10.153,-0.290,0.025
10.156,-0.280,0.040
10.158,-0.295,0.050
10.161,-0.290,0.030
10.164,-0.295,0.005
10.167,-0.280,0.020
10.169,-0.290,0.055
10.172,-0.285,0.045
10.175,-0.290,0.025
10.178,-0.290,0.020
10.181,-0.305,0.040
10.183,-0.290,0.035
10.186,-0.295,0.025
10.189,-0.275,0.035
10.192,-0.280,0.050
10.194,-0.300,0.020
10.197,-0.310,0.020
10.200,-0.305,0.055
10.203,-0.300,0.065
10.206,-0.300,0.040
10.208,-0.295,0.030
10.211,-0.310,0.045
10.214,-0.315,0.045
10.217,-0.300,0.030
10.219,-0.275,0.050
10.222,-0.270,0.055
10.225,-0.250,0.055
10.228,-0.255,0.035
10.231,-0.265,0.040
10.233,-0.250,0.075
10.236,-0.230,0.080
10.239,-0.220,0.060
10.242,-0.225,0.060
10.244,-0.245,0.080
10.247,-0.255,0.055
10.250,-0.250,0.060
10.253,-0.250,0.075
10.256,-0.235,0.080
10.258,-0.260,0.075
10.261,-0.265,0.055
10.264,-0.280,0.065
10.267,-0.290,0.070
10.269,-0.280,0.060
10.272,-0.285,0.075
10.275,-0.305,0.065
10.278,-0.320,0.055
10.281,-0.320,0.040
10.283,-0.325,0.060
10.286,-0.320,0.090
10.289,-0.310,0.060
10.292,-0.285,0.045
10.294,-0.290,0.065
10.297,-0.315,0.070
10.300,-0.340,0.060
10.303,-0.345,0.060
10.306,-0.310,0.090
10.308,-0.310,0.070
10.311,-0.325,0.055
10.314,-0.340,0.045
10.317,-0.330,0.080
10.319,-0.330,0.085
10.322,-0.310,0.070
10.325,-0.305,0.055
10.328,-0.320,0.065
10.331,-0.330,0.065
10.333,-0.335,0.045
10.336,-0.335,0.070
10.339,-0.335,0.075
10.342,-0.330,0.065
10.344,-0.370,0.045
10.347,-0.390,0.055
10.350,-0.395,0.075
10.353,-0.375,0.060
10.356,-0.325,0.050
10.358,-0.250,0.050
10.361,-0.180,0.055
10.364,-0.090,0.040
10.367,0.000,0.050
10.369,0.135,0.075
10.372,0.230,0.075
10.375,0.335,0.050
10.378,0.425,0.045
10.381,0.515,0.060
10.383,0.605,0.065
10.386,0.625,0.065
10.389,0.565,0.075
10.392,0.460,0.100
10.394,0.330,0.075
10.397,0.110,0.070
10.400,-0.175,0.105
10.403,-0.410,0.135
10.406,-0.545,0.125
10.408,-0.630,0.115
10.411,-0.650,0.120
10.414,-0.630,0.130
10.417,-0.570,0.110
10.419,-0.520,0.105
10.422,-0.480,0.110
10.425,-0.485,0.115
10.428,-0.480,0.100
10.431,-0.460,0.090
10.433,-0.440,0.110
10.436,-0.440,0.120
10.439,-0.450,0.085
10.442,-0.465,0.070
10.444,-0.480,0.075
10.447,-0.490,0.055
10.450,-0.470,0.040
10.453,-0.445,0.060
10.456,-0.420,0.080
10.458,-0.405,0.070
10.461,-0.415,0.030
10.464,-0.415,0.040
10.467,-0.415,0.065
10.469,-0.410,0.060
10.472,-0.400,0.040
10.475,-0.375,0.030
10.478,-0.400,0.050
10.481,-0.400,0.050
10.483,-0.405,0.035
10.486,-0.380,0.060
10.489,-0.375,0.075
10.492,-0.350,0.070
10.494,-0.360,0.030
10.497,-0.375,0.045
10.500,-0.370,0.065
10.503,-0.370,0.075
10.506,-0.365,0.050
10.508,-0.365,0.055
10.511,-0.385,0.060
10.514,-0.400,0.045
10.517,-0.400,0.025
10.519,-0.380,0.060
10.522,-0.380,0.070
10.525,-0.380,0.065
10.528,-0.370,0.035
10.531,-0.365,0.030
10.533,-0.360,0.070
10.536,-0.370,0.070
10.539,-0.355,0.050
10.542,-0.345,0.035
10.544,-0.360,0.055
10.547,-0.360,0.070
10.550,-0.355,0.055
10.553,-0.345,0.040
10.556,-0.330,0.045
10.558,-0.330,0.055
10.561,-0.330,0.035
10.564,-0.335,0.025
10.567,-0.340,0.045
10.569,-0.330,0.065
10.572,-0.335,0.055
10.575,-0.350,0.050
10.578,-0.350,0.035
10.581,-0.360,0.055
10.583,-0.345,0.060
10.586,-0.315,0.045
10.589,-0.290,0.040
10.592,-0.295,0.050
10.594,-0.305,0.055
10.597,-0.310,0.035
10.600,-0.320,0.040
10.603,-0.305,0.055
10.606,-0.300,0.055
10.608,-0.295,0.040
10.611,-0.295,0.025
10.614,-0.295,0.045
10.617,-0.295,0.075
10.619,-0.295,0.070
10.622,-0.290,0.055
10.625,-0.295,0.045
10.628,-0.295,0.045
10.631,-0.295,0.050
10.633,-0.270,0.045
10.636,-0.270,0.070
10.639,-0.260,0.080
10.642,-0.260,0.070
10.644,-0.280,0.040
10.647,-0.280,0.040
10.650,-0.265,0.060
10.653,-0.245,0.080
10.656,-0.230,0.070
10.658,-0.230,0.050
10.661,-0.235,0.060
10.664,-0.240,0.080
10.667,-0.240,0.080
10.669,-0.245,0.080
10.672,-0.240,0.065
10.675,-0.235,0.090
10.678,-0.240,0.070
10.681,-0.250,0.055
10.683,-0.250,0.060
10.686,-0.235,0.105
10.689,-0.240,0.105
10.692,-0.245,0.090
10.694,-0.255,0.070
10.697,-0.265,0.075
10.700,-0.280,0.090
10.703,-0.270,0.090
10.706,-0.270,0.075
10.708,-0.245,0.090
10.711,-0.260,0.085
10.714,-0.275,0.085
10.717,-0.290,0.085
10.719,-0.285,0.110
10.722,-0.285,0.105
10.725,-0.290,0.090
10.728,-0.300,0.075
10.731,-0.295,0.080
10.733,-0.275,0.100
10.736,-0.260,0.105
10.739,-0.260,0.090
10.742,-0.260,0.100
10.744,-0.275,0.095
10.747,-0.290,0.085
10.750,-0.285,0.080
10.753,-0.280,0.080
10.756,-0.290,0.100
10.758,-0.290,0.100
10.761,-0.310,0.080
10.764,-0.335,0.070
10.767,-0.325,0.085
10.769,-0.320,0.085
10.772,-0.320,0.060
10.775,-0.330,0.060
10.778,-0.335,0.075
10.781,-0.350,0.075
10.783,-0.340,0.065
10.786,-0.335,0.065
10.789,-0.330,0.075
10.792,-0.325,0.065
10.794,-0.325,0.040
10.797,-0.330,0.030
10.800,-0.335,0.055
10.803,-0.330,0.070
10.806,-0.340,0.065
10.808,-0.350,0.040
10.811,-0.345,0.045
10.814,-0.355,0.045
10.817,-0.345,0.055
10.819,-0.335,0.050
10.822,-0.335,0.070
10.825,-0.330,0.070
10.828,-0.345,0.040
10.831,-0.350,0.040
10.833,-0.350,0.055
10.836,-0.340,0.065
10.839,-0.325,0.045
10.842,-0.325,0.040
10.844,-0.330,0.050
10.847,-0.330,0.065
10.850,-0.310,0.075
10.853,-0.305,0.060
10.856,-0.310,0.070
10.858,-0.300,0.070
10.861,-0.295,0.045
10.864,-0.290,0.045
10.867,-0.280,0.070
10.869,-0.265,0.085
10.872,-0.255,0.070
10.875,-0.250,0.060
10.878,-0.245,0.050
10.881,-0.240,0.065
10.883,-0.235,0.070
10.886,-0.235,0.065
10.889,-0.240,0.070
10.892,-0.260,0.085
10.894,-0.275,0.040
10.897,-0.295,0.045
10.900,-0.290,0.065
10.903,-0.295,0.060
10.906,-0.290,0.040
10.908,-0.280,0.040
10.911,-0.285,0.055
10.914,-0.290,0.055
10.917,-0.305,0.040
10.919,-0.310,0.045
10.922,-0.305,0.040
10.925,-0.300,0.035
10.928,-0.310,0.000
10.931,-0.315,0.015
10.933,-0.305,0.025
10.936,-0.295,0.025
10.939,-0.275,0.025
10.942,-0.285,0.030
10.944,-0.295,0.015
10.947,-0.310,-0.005
10.950,-0.315,0.000
10.953,-0.340,0.020
10.956,-0.345,0.020
10.958,-0.345,0.000
10.961,-0.335,-0.010
10.964,-0.340,0.000
10.967,-0.325,-0.010
10.969,-0.315,-0.020
10.972,-0.305,-0.005
10.975,-0.320,0.020
10.978,-0.330,0.000
10.981,-0.345,-0.020
10.983,-0.335,-0.005
10.986,-0.300,0.030
10.989,-0.295,0.005
10.992,-0.285,0.000
10.994,-0.290,-0.005
10.997,-0.305,0.015
11.000,-0.295,0.005
11.003,-0.310,0.015
11.006,-0.330,0.020
11.008,-0.350,0.005
11.011,-0.350,-0.015
11.014,-0.315,-0.020
11.017,-0.250,0.010
11.019,-0.150,0.010
11.022,-0.040,0.000
11.025,0.080,-0.005
11.028,0.195,0.000
11.031,0.285,-0.025
11.033,0.385,-0.015
11.036,0.495,0.015
11.039,0.625,0.040
11.042,0.725,0.035
11.044,0.790,0.005
11.047,0.740,0.020
11.050,0.630,0.035
11.053,0.525,0.025
11.056,0.335,0.020
11.058,0.025,0.050
11.061,-0.290,0.075
11.064,-0.510,0.050
11.067,-0.595,0.075
11.069,-0.605,0.110
11.072,-0.570,0.100
11.075,-0.505,0.060
11.078,-0.460,0.040
11.081,-0.465,0.060
11.083,-0.440,0.070
11.086,-0.415,0.080
11.089,-0.400,0.075
11.092,-0.395,0.065
11.094,-0.410,0.055
11.097,-0.435,0.030
11.100,-0.445,0.020
11.103,-0.445,0.065
11.106,-0.440,0.040
11.108,-0.450,0.030
11.111,-0.445,0.020
11.114,-0.445,0.045
11.117,-0.410,0.030
11.119,-0.375,0.025
11.122,-0.365,0.025
11.125,-0.385,0.045
11.128,-0.400,0.030
11.131,-0.430,0.020
11.133,-0.415,0.030
11.136,-0.400,0.040
11.139,-0.390,0.020
11.142,-0.395,0.010
11.144,-0.400,0.010
11.147,-0.405,0.030
11.150,-0.390,0.020
11.153,-0.380,0.020
11.156,-0.380,0.025
11.158,-0.375,0.035
11.161,-0.380,0.015
11.164,-0.395,-0.010
11.167,-0.385,0.015
11.169,-0.370,0.040
11.172,-0.375,0.035
11.175,-0.375,0.035
11.178,-0.390,0.020
11.181,-0.385,0.030
11.183,-0.365,0.035
11.186,-0.350,0.015
11.189,-0.335,0.020
11.192,-0.340,0.040
11.194,-0.350,0.050
11.197,-0.335,0.025
11.200,-0.315,0.030
11.203,-0.300,0.060
11.206,-0.270,0.045
11.208,-0.265,0.020
11.211,-0.290,0.020
11.214,-0.305,0.030
11.217,-0.290,0.050
11.219,-0.280,0.040
11.222,-0.260,0.040
11.225,-0.265,0.050
11.228,-0.280,0.030
11.231,-0.265,0.005
11.233,-0.250,0.020
11.236,-0.230,0.050
11.239,-0.225,0.060
11.242,-0.240,0.045
11.244,-0.255,0.040
11.247,-0.245,0.040
11.250,-0.230,0.045
11.253,-0.210,0.040
11.256,-0.210,0.030
11.258,-0.220,0.050
11.261,-0.220,0.050
11.264,-0.225,0.040
11.267,-0.210,0.035
11.269,-0.175,0.070
11.272,-0.140,0.060
11.275,-0.135,0.035
11.278,-0.140,0.015
11.281,-0.135,0.015
11.283,-0.130,0.055
11.286,-0.135,0.065
11.289,-0.140,0.040
11.292,-0.135,0.055
11.294,-0.135,0.050
11.297,-0.155,0.045
11.300,-0.165,0.035
11.303,-0.165,0.040
11.306,-0.165,0.070
11.308,-0.175,0.075
11.311,-0.180,0.055
11.314,-0.195,0.050
11.317,-0.200,0.075
11.319,-0.200,0.075
11.322,-0.205,0.040
11.325,-0.200,0.040
11.328,-0.225,0.060
11.331,-0.220,0.055
11.333,-0.225,0.050
11.336,-0.235,0.045
11.339,-0.240,0.080
11.342,-0.240,0.075
11.344,-0.250,0.035
11.347,-0.255,0.020
11.350,-0.240,0.045
11.353,-0.240,0.075
11.356,-0.245,0.060
11.358,-0.255,0.035
11.361,-0.270,0.030
11.364,-0.285,0.050
11.367,-0.295,0.045
11.369,-0.295,0.035
11.372,-0.290,0.025
11.375,-0.290,0.055
11.378,-0.290,0.030
11.381,-0.305,0.025
11.383,-0.300,0.015
11.386,-0.300,0.050
11.389,-0.285,0.060
11.392,-0.300,0.035
11.394,-0.295,0.010
11.397,-0.305,0.025
11.400,-0.315,0.065
11.403,-0.305,0.065
11.406,-0.310,0.030
11.408,-0.320,0.035
11.411,-0.330,0.045
11.414,-0.340,0.040
11.417,-0.335,0.030
11.419,-0.330,0.035
11.422,-0.335,0.055
11.425,-0.345,0.060
11.428,-0.350,0.025
11.431,-0.360,0.035
11.433,-0.365,0.060
11.436,-0.365,0.070
11.439,-0.355,0.040
11.442,-0.370,0.040
11.444,-0.365,0.055
11.447,-0.390,0.050
11.450,-0.385,0.050
11.453,-0.375,0.040
11.456,-0.365,0.070
11.458,-0.365,0.060
11.461,-0.355,0.035
11.464,-0.355,0.020
11.467,-0.355,0.040
11.469,-0.355,0.075
11.472,-0.350,0.060
11.475,-0.345,0.050
11.478,-0.340,0.045
11.481,-0.345,0.070
11.483,-0.335,0.075
11.486,-0.330,0.065
11.489,-0.340,0.045
11.492,-0.350,0.065
11.494,-0.365,0.060
11.497,-0.375,0.055
11.500,-0.385,0.040
11.503,-0.390,0.060
11.506,-0.380,0.080
11.508,-0.380,0.075
11.511,-0.375,0.020
11.514,-0.375,0.025
11.517,-0.375,0.050
11.519,-0.370,0.075
11.522,-0.370,0.060
11.525,-0.365,0.050
11.528,-0.375,0.060
11.531,-0.385,0.065
11.533,-0.365,0.055
11.536,-0.355,0.035
11.539,-0.340,0.040
11.542,-0.340,0.070
11.544,-0.325,0.055
11.547,-0.310,0.040
11.550,-0.295,0.065
11.553,-0.300,0.085
11.556,-0.300,0.075
11.558,-0.330,0.055
11.561,-0.350,0.030
11.564,-0.385,0.050
11.567,-0.395,0.080
11.569,-0.390,0.080
11.572,-0.390,0.065
11.575,-0.390,0.065
11.578,-0.420,0.080
11.581,-0.420,0.065
11.583,-0.400,0.045
11.586,-0.380,0.055
11.589,-0.375,0.070
11.592,-0.375,0.085
11.594,-0.385,0.055
11.597,-0.380,0.060
11.600,-0.375,0.075
11.603,-0.365,0.085
11.606,-0.350,0.055
11.608,-0.350,0.040
11.611,-0.350,0.050
11.614,-0.365,0.060
11.617,-0.360,0.060
11.619,-0.360,0.055
11.622,-0.375,0.075
11.625,-0.385,0.080
11.628,-0.405,0.055
11.631,-0.415,0.020
11.633,-0.420,0.040
11.636,-0.380,0.065
11.639,-0.325,0.065
11.642,-0.255,0.040
11.644,-0.205,0.040
11.647,-0.125,0.055
11.650,-0.015,0.065
11.653,0.090,0.045
11.656,0.195,0.045
11.658,0.290,0.060
11.661,0.390,0.070
11.664,0.500,0.045
11.667,0.615,0.055
11.669,0.665,0.085
11.672,0.645,0.075
11.675,0.540,0.060
11.678,0.425,0.050
11.681,0.320,0.060
11.683,0.175,0.105
11.686,-0.055,0.125
11.689,-0.295,0.100
11.692,-0.465,0.115
11.694,-0.585,0.125
11.697,-0.640,0.115
11.700,-0.620,0.105
11.703,-0.580,0.115
11.706,-0.520,0.130
11.708,-0.490,0.120
11.711,-0.485,0.100
11.714,-0.475,0.090
11.717,-0.445,0.115
11.719,-0.425,0.125
11.722,-0.415,0.100
11.725,-0.435,0.085
11.728,-0.455,0.085
11.731,-0.460,0.095
11.733,-0.470,0.075
11.736,-0.490,0.075
11.739,-0.470,0.080
11.742,-0.455,0.075
11.744,-0.445,0.045
11.747,-0.430,0.030
11.750,-0.430,0.065
11.753,-0.440,0.080
11.756,-0.425,0.055
11.758,-0.425,0.045
11.761,-0.425,0.065
11.764,-0.425,0.050
11.767,-0.415,0.040
11.769,-0.415,0.050
11.772,-0.410,0.070
11.775,-0.400,0.065
11.778,-0.410,0.040
11.781,-0.410,0.040
11.783,-0.405,0.055
11.786,-0.390,0.040
11.789,-0.385,0.015
11.792,-0.365,0.025
11.794,-0.365,0.040
11.797,-0.375,0.020
11.800,-0.380,0.025
11.803,-0.390,0.045
11.806,-0.370,0.035
11.808,-0.365,0.025
11.811,-0.370,0.010
11.814,-0.385,0.030
11.817,-0.380,0.035
11.819,-0.375,0.010
11.822,-0.365,0.015
11.825,-0.365,0.055
11.828,-0.365,0.030
11.831,-0.360,0.010
11.833,-0.330,0.025
11.836,-0.335,0.060
11.839,-0.315,0.035
11.842,-0.305,0.020
11.844,-0.300,0.030
11.847,-0.300,0.040
11.850,-0.285,0.020
11.853,-0.260,0.030
11.856,-0.250,0.045
11.858,-0.245,0.030
11.861,-0.245,0.005
11.864,-0.245,0.015
11.867,-0.230,0.040
11.869,-0.210,0.035
11.872,-0.200,0.020
11.875,-0.195,0.040
11.878,-0.205,0.035
11.881,-0.220,0.010
11.883,-0.200,0.015
11.886,-0.180,0.050
11.889,-0.135,0.035
11.892,-0.135,0.015
11.894,-0.125,0.015
11.897,-0.140,0.030
11.900,-0.165,0.025
11.903,-0.170,0.020
11.906,-0.185,0.040
11.908,-0.155,0.050
11.911,-0.135,0.005
11.914,-0.160,0.005
11.917,-0.190,0.030
11.919,-0.215,0.035
11.922,-0.235,0.030
11.925,-0.230,0.045
11.928,-0.230,0.045
11.931,-0.245,0.025
11.933,-0.240,0.035
11.936,-0.245,0.065
11.939,-0.245,0.055
11.942,-0.245,0.030
11.944,-0.240,0.025
11.947,-0.260,0.050
11.950,-0.255,0.040
11.953,-0.250,0.030
11.956,-0.255,0.040
11.958,-0.265,0.040
11.961,-0.285,0.030
11.964,-0.295,0.010
11.967,-0.280,0.045
11.969,-0.275,0.065
11.972,-0.255,0.045
11.975,-0.250,0.030
11.978,-0.265,0.040
11.981,-0.285,0.035
11.983,-0.290,0.025
11.986,-0.285,0.025
11.989,-0.280,0.045
11.992,-0.290,0.060
11.994,-0.300,0.020
11.997,-0.305,0.025
12.000,-0.305,0.055
12.003,-0.295,0.065
12.006,-0.285,0.045
12.008,-0.280,0.040
12.011,-0.285,0.055
12.014,-0.310,0.055
12.017,-0.325,0.035
12.019,-0.315,0.055
12.022,-0.295,0.065
12.025,-0.295,0.055
12.028,-0.310,0.025
12.031,-0.330,0.040
12.033,-0.340,0.045
12.036,-0.340,0.055
12.039,-0.345,0.045
12.042,-0.355,0.065
12.044,-0.355,0.055
12.047,-0.360,0.035
12.050,-0.355,0.040
12.053,-0.335,0.075
12.056,-0.325,0.075
12.058,-0.320,0.040
12.061,-0.315,0.045
12.064,-0.315,0.050
12.067,-0.310,0.065
12.069,-0.300,0.070
12.072,-0.290,0.060
12.075,-0.300,0.085
12.078,-0.310,0.080
12.081,-0.315,0.045
12.083,-0.295,0.050
12.086,-0.290,0.075
12.089,-0.265,0.075
12.092,-0.280,0.045
12.094,-0.280,0.050
12.097,-0.290,0.065
12.100,-0.295,0.070
12.103,-0.305,0.050
12.106,-0.300,0.065
12.108,-0.320,0.065
12.111,-0.315,0.060
12.114,-0.320,0.040
12.117,-0.305,0.050
12.119,-0.290,0.085
12.122,-0.280,0.065
12.125,-0.280,0.040
12.128,-0.280,0.030
12.131,-0.295,0.040
12.133,-0.290,0.055
12.136,-0.290,0.045
12.139,-0.280,0.045
12.142,-0.280,0.055
12.144,-0.285,0.050
12.147,-0.275,0.025
12.150,-0.250,0.030
12.153,-0.235,0.055
12.156,-0.230,0.065
12.158,-0.235,0.045
12.161,-0.255,0.030
12.164,-0.275,0.050
12.167,-0.290,0.060
12.169,-0.295,0.035
12.172,-0.290,0.040
12.175,-0.275,0.030
12.178,-0.275,0.025
12.181,-0.295,0.015
12.183,-0.300,0.015
12.186,-0.300,0.050
12.189,-0.295,0.055
12.192,-0.275,0.035
12.194,-0.265,0.015
12.197,-0.275,0.015
12.200,-0.260,0.030
12.203,-0.255,0.025
12.206,-0.270,0.025
12.208,-0.250,0.030
12.211,-0.255,0.025
12.214,-0.265,0.010
12.217,-0.265,0.010
12.219,-0.260,0.020
12.222,-0.265,0.035
12.225,-0.260,0.015
12.228,-0.275,-0.005
12.231,-0.290,0.000
12.233,-0.285,0.010
12.236,-0.235,0.015
12.239,-0.155,0.005
12.242,-0.065,0.010
12.244,0.015,0.005
12.247,0.095,-0.005
12.250,0.195,-0.010
12.253,0.295,0.020
12.256,0.405,0.035
12.258,0.515,0.025
12.261,0.630,0.010
12.264,0.745,0.020
12.267,0.825,0.045
12.269,0.870,0.030
12.272,0.845,0.010
12.275,0.745,0.030
12.278,0.615,0.045
12.281,0.410,0.050
12.283,0.080,0.040
12.286,-0.230,0.065
12.289,-0.425,0.090
12.292,-0.535,0.075
12.294,-0.585,0.065
12.297,-0.615,0.060
12.300,-0.560,0.080
12.303,-0.490,0.100
12.306,-0.425,0.075
12.308,-0.405,0.050
12.311,-0.405,0.055
12.314,-0.405,0.055
12.317,-0.380,0.065
12.319,-0.360,0.055
12.322,-0.340,0.045
12.325,-0.355,0.055
12.328,-0.390,0.050
12.331,-0.405,0.025
12.333,-0.405,0.020
12.336,-0.400,0.045
12.339,-0.390,0.035
12.342,-0.385,0.010
12.344,-0.375,0.005
12.347,-0.365,0.000
12.350,-0.340,0.025
12.353,-0.330,0.030
12.356,-0.340,0.015
12.358,-0.345,0.020
12.361,-0.340,0.015
12.364,-0.345,0.000
12.367,-0.335,0.010
12.369,-0.320,0.030
12.372,-0.310,0.020
12.375,-0.310,0.025
12.378,-0.305,0.005
12.381,-0.330,0.000
12.383,-0.315,0.020
12.386,-0.300,0.025
12.389,-0.280,0.000
12.392,-0.285,-0.005
12.394,-0.295,0.010
12.397,-0.290,0.015
12.400,-0.290,0.025
12.403,-0.275,0.025
12.406,-0.270,0.020
12.408,-0.265,0.035
12.411,-0.275,0.000
12.414,-0.280,0.000
12.417,-0.275,0.005
12.419,-0.275,0.030
12.422,-0.265,0.035
12.425,-0.270,0.015
12.428,-0.265,0.010
12.431,-0.265,0.015
12.433,-0.250,0.020
12.436,-0.235,0.010
12.439,-0.205,0.005
12.442,-0.190,0.020
12.444,-0.190,0.030
12.447,-0.200,0.025
12.450,-0.210,0.015
12.453,-0.190,0.015
12.456,-0.150,0.030
12.458,-0.145,0.030
12.461,-0.145,0.005
12.464,-0.160,0.005
12.467,-0.150,0.020
12.469,-0.135,0.035
12.472,-0.110,0.040
12.475,-0.120,0.020
12.478,-0.125,0.015
12.481,-0.120,0.030
12.483,-0.120,0.025
12.486,-0.115,0.035
12.489,-0.100,0.025
12.492,-0.100,0.035
12.494,-0.095,0.030
12.497,-0.100,0.025
12.500,-0.100,0.020
12.503,-0.090,0.035
12.506,-0.065,0.040
12.508,-0.060,0.040
12.511,-0.050,0.020
12.514,-0.055,0.010
12.517,-0.040,0.040
12.519,-0.010,0.055
12.522,0.010,0.050
12.525,0.000,0.020
12.528,-0.010,0.025
12.531,-0.005,0.040
12.533,-0.015,0.030
12.536,-0.010,0.040
12.539,-0.020,0.035
12.542,-0.020,0.045
12.544,-0.025,0.040
12.547,-0.045,0.030
12.550,-0.065,0.035
12.553,-0.065,0.055
12.556,-0.075,0.045
12.558,-0.095,0.045
12.561,-0.100,0.025
12.564,-0.085,0.035
12.567,-0.060,0.045
12.569,-0.035,0.055
12.572,-0.045,0.050
12.575,-0.050,0.030
12.578,-0.055,0.030
12.581,-0.060,0.040
12.583,-0.060,0.045
12.586,-0.050,0.035
12.589,-0.050,0.045
12.592,-0.050,0.050
12.594,-0.060,0.050
12.597,-0.080,0.050
12.600,-0.080,0.040
12.603,-0.075,0.070
12.606,-0.060,0.070
12.608,-0.075,0.065
12.611,-0.085,0.055
12.614,-0.095,0.060
12.617,-0.090,0.095
12.619,-0.090,0.085
12.622,-0.095,0.055
12.625,-0.090,0.060
12.628,-0.100,0.070
12.631,-0.115,0.055
12.633,-0.110,0.050
12.636,-0.095,0.070
12.639,-0.095,0.080
12.642,-0.090,0.080
12.644,-0.120,0.045
12.647,-0.145,0.055
12.650,-0.145,0.060
12.653,-0.140,0.075
12.656,-0.130,0.050
12.658,-0.125,0.045
12.661,-0.130,0.035
12.664,-0.145,0.055
12.667,-0.150,0.050
12.669,-0.150,0.050
12.672,-0.155,0.060
12.675,-0.155,0.065
12.678,-0.160,0.050
12.681,-0.160,0.030
12.683,-0.165,0.035
12.686,-0.155,0.055
12.689,-0.150,0.065
12.692,-0.155,0.045
12.694,-0.160,0.030
12.697,-0.185,0.050
12.700,-0.180,0.065
12.703,-0.180,0.065
12.706,-0.170,0.045
12.708,-0.135,0.055
12.711,-0.130,0.060
12.714,-0.110,0.060
12.717,-0.100,0.050
12.719,-0.095,0.060
12.722,-0.085,0.080
12.725,-0.105,0.065
12.728,-0.115,0.045
12.731,-0.125,0.030
12.733,-0.130,0.050
12.736,-0.145,0.065
12.739,-0.140,0.060
12.742,-0.160,0.055
12.744,-0.175,0.045
12.747,-0.190,0.050
12.750,-0.195,0.050
12.753,-0.175,0.035
12.756,-0.165,0.035
12.758,-0.150,0.060
12.761,-0.165,0.045
12.764,-0.170,0.030
12.767,-0.170,0.045
12.769,-0.145,0.060
12.772,-0.130,0.050
12.775,-0.135,0.015
12.778,-0.145,0.015
12.781,-0.160,0.035
12.783,-0.150,0.060
12.786,-0.140,0.060
12.789,-0.115,0.050
12.792,-0.120,0.060
12.794,-0.135,0.045
12.797,-0.145,0.020
12.800,-0.150,0.020
12.803,-0.145,0.055
12.806,-0.140,0.070
12.808,-0.140,0.045
12.811,-0.150,0.035
12.814,-0.170,0.050
12.817,-0.165,0.055
12.819,-0.155,0.050
12.822,-0.140,0.050
12.825,-0.140,0.060
12.828,-0.155,0.065
12.831,-0.155,0.050
12.833,-0.155,0.045
12.836,-0.150,0.065
12.839,-0.125,0.070
12.842,-0.130,0.050
12.844,-0.135,0.030
12.847,-0.145,0.030
12.850,-0.155,0.055
12.853,-0.150,0.065
12.856,-0.140,0.060
12.858,-0.145,0.060
12.861,-0.170,0.055
12.864,-0.190,0.035
12.867,-0.200,0.025
12.869,-0.175,0.035
12.872,-0.130,0.050
12.875,-0.045,0.050
12.878,0.030,0.030
12.881,0.085,0.015
12.883,0.195,0.030
12.886,0.310,0.050
12.889,0.410,0.030
12.892,0.505,0.020
12.894,0.595,0.030
12.897,0.715,0.050
12.900,0.840,0.055
12.903,0.965,0.075
12.906,1.075,0.060
12.908,1.125,0.070
12.911,1.085,0.070
12.914,0.980,0.050
12.917,0.835,0.045
12.919,0.605,0.065
12.922,0.240,0.090
12.925,-0.080,0.095
12.928,-0.295,0.085
12.931,-0.385,0.095
12.933,-0.400,0.120
12.936,-0.390,0.120
12.939,-0.355,0.085
12.942,-0.320,0.095
12.944,-0.280,0.085
12.947,-0.255,0.100
12.950,-0.215,0.095
12.953,-0.210,0.095
12.956,-0.205,0.105
12.958,-0.210,0.105
12.961,-0.235,0.065
12.964,-0.255,0.055
12.967,-0.260,0.075
12.969,-0.275,0.080
12.972,-0.275,0.085
12.975,-0.265,0.065
12.978,-0.245,0.055
12.981,-0.235,0.055
12.983,-0.230,0.075
12.986,-0.190,0.060
12.989,-0.185,0.040
12.992,-0.185,0.050
12.994,-0.200,0.060
12.997,-0.210,0.060
13.000,-0.195,0.060
13.003,-0.210,0.075
13.006,-0.195,0.075
13.008,-0.195,0.070
13.011,-0.195,0.040
13.014,-0.210,0.035
13.017,-0.210,0.050
13.019,-0.210,0.070
13.022,-0.210,0.070
13.025,-0.190,0.055
13.028,-0.200,0.045
13.031,-0.205,0.055
13.033,-0.200,0.065
13.036,-0.200,0.045
13.039,-0.195,0.040
13.042,-0.195,0.060
13.044,-0.190,0.055
13.047,-0.205,0.050
13.050,-0.180,0.050
13.053,-0.175,0.055
13.056,-0.175,0.065
13.058,-0.175,0.065
13.061,-0.165,0.025
13.064,-0.170,0.010
13.067,-0.165,0.040
13.069,-0.170,0.060
13.072,-0.155,0.060
13.075,-0.150,0.040
13.078,-0.165,0.035
13.081,-0.170,0.040
13.083,-0.155,0.050
13.086,-0.140,0.050
13.089,-0.140,0.040
13.092,-0.125,0.040
13.094,-0.140,0.040
13.097,-0.150,0.035
13.100,-0.135,0.040
13.103,-0.115,0.060
13.106,-0.090,0.065
13.108,-0.085,0.050
13.111,-0.085,0.025
13.114,-0.095,0.025
13.117,-0.095,0.050
13.119,-0.070,0.070
13.122,-0.045,0.055
13.125,-0.035,0.040
13.128,-0.040,0.045
13.131,-0.040,0.055
13.133,-0.025,0.055
13.136,-0.005,0.045
13.139,0.020,0.040
13.142,0.025,0.065
13.144,0.030,0.060
13.147,0.010,0.055
13.150,0.005,0.050
13.153,0.020,0.065
13.156,0.015,0.080
13.158,0.015,0.075
13.161,0.030,0.050
13.164,0.035,0.040
13.167,0.045,0.060
13.169,0.040,0.090
13.172,0.055,0.080
13.175,0.050,0.060
13.178,0.045,0.060
13.181,0.025,0.065
13.183,0.030,0.075
13.186,0.035,0.075
13.189,0.045,0.045
13.192,0.045,0.050
13.194,0.025,0.050
13.197,0.000,0.065
13.200,0.005,0.055
13.203,0.005,0.045
13.206,0.005,0.070
13.208,0.005,0.070
13.211,-0.015,0.050
13.214,-0.025,0.025
13.217,-0.025,0.015
13.219,-0.025,0.060
13.222,-0.020,0.075
13.225,-0.030,0.055
13.228,-0.055,0.030
13.231,-0.060,0.055
13.233,-0.060,0.075
13.236,-0.060,0.070
13.239,-0.045,0.055
13.242,-0.045,0.040
13.244,-0.035,0.030
13.247,-0.045,0.060
13.250,-0.055,0.055
13.253,-0.050,0.035
13.256,-0.055,0.045
13.258,-0.060,0.065
13.261,-0.060,0.065
13.264,-0.070,0.025
13.267,-0.070,0.025
13.269,-0.080,0.055
13.272,-0.085,0.075
13.275,-0.080,0.070
13.278,-0.100,0.035
13.281,-0.110,0.025
13.283,-0.115,0.060
13.286,-0.135,0.080
13.289,-0.150,0.055
13.292,-0.170,0.025
13.294,-0.145,0.030
13.297,-0.150,0.050
13.300,-0.130,0.055
13.303,-0.120,0.045
13.306,-0.105,0.050
13.308,-0.100,0.060
13.311,-0.120,0.055
13.314,-0.130,0.035
13.317,-0.135,0.030
13.319,-0.130,0.040
13.322,-0.125,0.070
13.325,-0.135,0.075
13.328,-0.125,0.045
13.331,-0.125,0.025
13.333,-0.120,0.060
13.336,-0.115,0.080
13.339,-0.120,0.060
13.342,-0.120,0.045
13.344,-0.130,0.035
13.347,-0.145,0.045
13.350,-0.135,0.075
13.353,-0.120,0.070
13.356,-0.125,0.055
13.358,-0.115,0.060
13.361,-0.110,0.075
13.364,-0.115,0.060
13.367,-0.125,0.050
13.369,-0.125,0.055
13.372,-0.140,0.080
13.375,-0.140,0.090
13.378,-0.155,0.075
13.381,-0.180,0.050
13.383,-0.175,0.065
13.386,-0.165,0.090
13.389,-0.155,0.090
13.392,-0.145,0.070
13.394,-0.125,0.040
13.397,-0.140,0.055
13.400,-0.135,0.080
13.403,-0.130,0.085
13.406,-0.130,0.070
13.408,-0.155,0.055
13.411,-0.155,0.055
13.414,-0.180,0.075
13.417,-0.180,0.070
13.419,-0.185,0.055
13.422,-0.180,0.045
13.425,-0.200,0.070
13.428,-0.210,0.085
13.431,-0.210,0.070
13.433,-0.215,0.070
13.436,-0.195,0.075
13.439,-0.210,0.095
13.442,-0.205,0.090
13.444,-0.210,0.065
13.447,-0.215,0.040
13.450,-0.200,0.065
13.453,-0.185,0.095
13.456,-0.195,0.100
13.458,-0.185,0.085
13.461,-0.200,0.055
13.464,-0.195,0.070
13.467,-0.185,0.095
13.469,-0.165,0.100
13.472,-0.155,0.060
13.475,-0.155,0.060
13.478,-0.155,0.065
13.481,-0.165,0.085
13.483,-0.150,0.080
13.486,-0.145,0.075
13.489,-0.135,0.080
13.492,-0.145,0.105
13.494,-0.145,0.085
13.497,-0.150,0.070
13.500,-0.150,0.055
13.503,-0.130,0.085
13.506,-0.135,0.105
13.508,-0.165,0.080
13.511,-0.200,0.075
13.514,-0.230,0.045
13.517,-0.220,0.070
13.519,-0.175,0.090
13.522,-0.095,0.075
13.525,-0.020,0.045
13.528,0.040,0.030
13.531,0.095,0.045
13.533,0.185,0.075
13.536,0.275,0.090
13.539,0.370,0.070
13.542,0.455,0.055
13.544,0.545,0.070
13.547,0.655,0.095
13.550,0.770,0.080
13.553,0.875,0.075
13.556,0.960,0.080
13.558,0.955,0.090
13.561,0.900,0.090
13.564,0.810,0.075
13.567,0.725,0.070
13.569,0.620,0.085
13.572,0.465,0.120
13.575,0.220,0.130
13.578,-0.020,0.115
13.581,-0.195,0.110
13.583,-0.320,0.125
13.586,-0.380,0.170
13.589,-0.400,0.155
13.592,-0.405,0.135
13.594,-0.390,0.110
13.597,-0.355,0.130
13.600,-0.315,0.145
13.603,-0.275,0.155
13.606,-0.255,0.115
13.608,-0.250,0.100
13.611,-0.250,0.110
13.614,-0.250,0.105
13.617,-0.245,0.115
13.619,-0.260,0.095
13.622,-0.265,0.085
13.625,-0.300,0.095
13.628,-0.305,0.100
13.631,-0.320,0.070
13.633,-0.305,0.050
13.636,-0.290,0.060
13.639,-0.270,0.080
13.642,-0.260,0.080
13.644,-0.270,0.050
13.647,-0.290,0.040
13.650,-0.275,0.050
13.653,-0.260,0.075
13.656,-0.255,0.075
13.658,-0.250,0.060
13.661,-0.245,0.030
13.664,-0.275,0.040
13.667,-0.255,0.075
13.669,-0.255,0.080
13.672,-0.260,0.055
13.675,-0.260,0.040
13.678,-0.245,0.065
13.681,-0.255,0.060
13.683,-0.255,0.055
13.686,-0.240,0.040
13.689,-0.230,0.045
13.692,-0.215,0.050
13.694,-0.215,0.065
13.697,-0.225,0.040
13.700,-0.220,0.015
13.703,-0.220,0.030
13.706,-0.215,0.065
13.708,-0.195,0.060
13.711,-0.175,0.015
13.714,-0.175,-0.005
13.717,-0.185,0.025
13.719,-0.215,0.045
13.722,-0.215,0.050
13.725,-0.225,0.025
13.728,-0.230,0.010
13.731,-0.225,0.025
13.733,-0.190,0.055
13.736,-0.175,0.050
13.739,-0.170,0.025
13.742,-0.170,0.015
13.744,-0.185,0.030
13.747,-0.180,0.040
13.750,-0.155,0.025
13.753,-0.145,0.015
13.756,-0.140,0.030
13.758,-0.120,0.040
13.761,-0.125,0.030
13.764,-0.115,-0.005
13.767,-0.105,0.000
13.769,-0.095,0.025
13.772,-0.070,0.045
13.775,-0.080,0.015
13.778,-0.075,0.010
13.781,-0.075,0.015
13.783,-0.050,0.035
13.786,-0.030,0.020
13.789,-0.025,0.005
13.792,-0.030,0.020
13.794,-0.030,0.035
13.797,-0.050,0.020
13.800,-0.025,0.000
13.803,-0.025,0.020
13.806,-0.015,0.045
13.808,0.015,0.045
13.811,0.015,0.005
13.814,0.015,-0.005
13.817,0.005,0.025
13.819,0.025,0.050
13.822,0.060,0.045
13.825,0.075,0.025
13.828,0.065,0.010
13.831,0.030,0.035
13.833,0.030,0.040
13.836,0.055,0.035
13.839,0.050,0.020
13.842,0.055,0.035
13.844,0.045,0.050
13.847,0.015,0.030
13.850,-0.005,0.025
13.853,-0.010,0.050
13.856,-0.015,0.055
13.858,-0.015,0.055
13.861,-0.030,0.030
13.864,-0.050,0.015
13.867,-0.050,0.050
13.869,-0.035,0.065
13.872,-0.030,0.050
13.875,-0.040,0.035
13.878,-0.055,0.050
13.881,-0.075,0.055
13.883,-0.095,0.045
13.886,-0.090,0.040
13.889,-0.070,0.050
13.892,-0.070,0.065
13.894,-0.090,0.045
13.897,-0.105,0.035
13.900,-0.105,0.050
13.903,-0.095,0.075
13.906,-0.095,0.070
13.908,-0.105,0.050
13.911,-0.115,0.035
13.914,-0.125,0.060
13.917,-0.125,0.050
13.919,-0.120,0.055
13.922,-0.115,0.045
13.925,-0.115,0.060
13.928,-0.130,0.065
13.931,-0.170,0.040
13.933,-0.170,0.035
13.936,-0.160,0.070
13.939,-0.140,0.070
13.942,-0.135,0.065
13.944,-0.155,0.035
13.947,-0.165,0.050
13.950,-0.170,0.070
13.953,-0.165,0.055
13.956,-0.155,0.055
13.958,-0.135,0.060
13.961,-0.150,0.050
13.964,-0.190,0.050
13.967,-0.200,0.040
13.969,-0.210,0.050
13.972,-0.180,0.075
13.975,-0.165,0.070
13.978,-0.185,0.040
13.981,-0.205,0.035
13.983,-0.220,0.075
13.986,-0.235,0.080
13.989,-0.230,0.055
13.992,-0.215,0.050
13.994,-0.210,0.060
13.997,-0.200,0.075
14.000,-0.190,0.065
14.003,-0.185,0.065
14.006,-0.185,0.075
14.008,-0.200,0.090
14.011,-0.200,0.075
14.014,-0.215,0.065
14.017,-0.210,0.075
14.019,-0.215,0.095
14.022,-0.205,0.095
14.025,-0.205,0.075
14.028,-0.215,0.070
14.031,-0.230,0.075
14.033,-0.215,0.090
14.036,-0.200,0.090
14.039,-0.185,0.090
14.042,-0.195,0.095
14.044,-0.200,0.095
14.047,-0.190,0.090
14.050,-0.180,0.095
14.053,-0.175,0.100
14.056,-0.145,0.075
14.058,-0.140,0.090
14.061,-0.135,0.100
14.064,-0.140,0.090
14.067,-0.130,0.085
14.069,-0.120,0.105
14.072,-0.115,0.120
14.075,-0.105,0.105
14.078,-0.110,0.080
14.081,-0.110,0.080
14.083,-0.090,0.100
14.086,-0.085,0.115
14.089,-0.095,0.105
14.092,-0.120,0.095
14.094,-0.140,0.095
14.097,-0.150,0.090
14.100,-0.155,0.080
14.103,-0.140,0.075
14.106,-0.155,0.095
14.108,-0.175,0.110
14.111,-0.190,0.090
14.114,-0.185,0.085
14.117,-0.155,0.100
14.119,-0.145,0.115
14.122,-0.150,0.110
14.125,-0.155,0.080
14.128,-0.135,0.070
14.131,-0.125,0.100
14.133,-0.115,0.100
14.136,-0.115,0.095
14.139,-0.120,0.075
14.142,-0.105,0.090
14.144,-0.095,0.090
14.147,-0.100,0.050
14.150,-0.110,0.045
14.153,-0.120,0.055
14.156,-0.140,0.085
14.158,-0.150,0.075
14.161,-0.175,0.045
14.164,-0.205,0.045
14.167,-0.190,0.065
14.169,-0.165,0.060
14.172,-0.145,0.030
14.175,-0.150,0.025
14.178,-0.180,0.035
14.181,-0.165,0.060
14.183,-0.145,0.045
14.186,-0.120,0.040
14.189,-0.100,0.040
14.192,-0.115,0.055
14.194,-0.135,0.030
14.197,-0.145,0.005
14.200,-0.135,0.030
14.203,-0.115,0.065
14.206,-0.105,0.055
14.208,-0.100,0.035
14.211,-0.105,0.040
14.214,-0.135,0.045
14.217,-0.155,0.055
14.219,-0.170,0.030
14.222,-0.165,0.025
14.225,-0.155,0.040
14.228,-0.120,0.045
14.231,-0.085,0.035
14.233,-0.025,0.025
14.236,0.055,0.050
14.239,0.160,0.060
14.242,0.265,0.055
14.244,0.355,0.020
14.247,0.405,0.030
14.250,0.475,0.070
14.253,0.595,0.085
14.256,0.720,0.070
14.258,0.845,0.065
14.261,0.945,0.075
14.264,1.005,0.085
14.267,0.980,0.080
14.269,0.925,0.065
14.272,0.820,0.075
14.275,0.685,0.100
14.278,0.460,0.110
14.281,0.140,0.115
14.283,-0.145,0.110
14.286,-0.320,0.135
14.289,-0.415,0.135
14.292,-0.430,0.125
14.294,-0.425,0.100
14.297,-0.390,0.100
14.300,-0.350,0.125
14.303,-0.295,0.135
14.306,-0.270,0.115
14.308,-0.255,0.115
14.311,-0.245,0.120
14.314,-0.225,0.115
14.317,-0.210,0.085
14.319,-0.215,0.085
14.322,-0.220,0.090
14.325,-0.230,0.105
14.328,-0.240,0.080
14.331,-0.265,0.065
14.333,-0.280,0.075
14.336,-0.275,0.085
14.339,-0.270,0.075
14.342,-0.220,0.065
14.344,-0.205,0.040
14.347,-0.215,0.075
14.350,-0.215,0.095
14.353,-0.205,0.080
14.356,-0.195,0.070
14.358,-0.200,0.085
14.361,-0.200,0.085
14.364,-0.205,0.070
14.367,-0.205,0.040
14.369,-0.205,0.070
14.372,-0.205,0.075
14.375,-0.210,0.095
14.378,-0.220,0.070
14.381,-0.215,0.055
14.383,-0.190,0.075
14.386,-0.180,0.105
14.389,-0.170,0.085
14.392,-0.170,0.065
14.394,-0.165,0.040
14.397,-0.165,0.065
14.400,-0.170,0.090
14.403,-0.160,0.095
14.406,-0.180,0.085
14.408,-0.175,0.070
14.411,-0.170,0.080
14.414,-0.155,0.075
14.417,-0.145,0.065
14.419,-0.135,0.050
14.422,-0.150,0.065
14.425,-0.165,0.080
14.428,-0.175,0.060
14.431,-0.185,0.060
14.433,-0.160,0.070
14.436,-0.150,0.090
14.439,-0.135,0.100
14.442,-0.140,0.080
14.444,-0.135,0.050
14.447,-0.150,0.060
14.450,-0.145,0.095
14.453,-0.135,0.105
14.456,-0.110,0.085
14.458,-0.105,0.090
14.461,-0.115,0.090
14.464,-0.090,0.100
14.467,-0.080,0.090
14.469,-0.040,0.085
14.472,-0.015,0.090
14.475,-0.025,0.100
14.478,-0.040,0.090
14.481,-0.060,0.070
14.483,-0.050,0.070
14.486,-0.035,0.105
14.489,-0.015,0.100
14.492,0.000,0.090
14.494,0.000,0.050
14.497,-0.015,0.060
14.500,0.000,0.085
14.503,0.020,0.090
14.506,0.035,0.075
14.508,0.035,0.070
14.511,0.015,0.070
14.514,0.000,0.080
14.517,-0.015,0.075
14.519,0.005,0.070
14.522,0.020,0.050
14.525,0.020,0.055
14.528,0.005,0.080
14.531,0.015,0.075
14.533,0.035,0.065
14.536,0.050,0.080
14.539,0.065,0.090
14.542,0.090,0.100
14.544,0.095,0.075
14.547,0.085,0.060
14.550,0.085,0.065
14.553,0.090,0.095
14.556,0.085,0.115
14.558,0.075,0.100
14.561,0.060,0.085
14.564,0.065,0.085
14.567,0.070,0.110
14.569,0.065,0.110
14.572,0.040,0.090
14.575,0.015,0.085
14.578,0.010,0.080
14.581,0.005,0.095
14.583,0.025,0.095
14.586,0.055,0.090
14.589,0.065,0.105
14.592,0.035,0.105
14.594,-0.030,0.085
14.597,-0.070,0.065
14.600,-0.065,0.070
14.603,-0.050,0.100
14.606,-0.015,0.115
14.608,-0.010,0.090
14.611,-0.005,0.075
14.614,-0.030,0.085
14.617,-0.025,0.110
14.619,-0.010,0.115
14.622,-0.005,0.095
14.625,0.000,0.070
14.628,-0.020,0.080
14.631,-0.045,0.090
14.633,-0.045,0.095
14.636,-0.060,0.075
14.639,-0.045,0.080
14.642,-0.050,0.085
14.644,-0.065,0.065
14.647,-0.075,0.050
14.650,-0.075,0.040
14.653,-0.050,0.050
14.656,-0.025,0.080
14.658,-0.020,0.080
14.661,-0.040,0.050
14.664,-0.080,0.040
14.667,-0.065,0.080
14.669,-0.055,0.085
14.672,-0.050,0.055
14.675,-0.040,0.030
14.678,-0.060,0.030
14.681,-0.080,0.035
14.683,-0.095,0.045
14.686,-0.085,0.025
14.689,-0.075,0.015
14.692,-0.070,0.025
14.694,-0.075,0.020
14.697,-0.090,-0.005
14.700,-0.090,-0.005
14.703,-0.090,0.000
14.706,-0.080,0.030
14.708,-0.080,0.045
14.711,-0.075,-0.005
14.714,-0.095,-0.010
14.717,-0.105,0.020
14.719,-0.120,0.040
14.722,-0.125,0.025
14.725,-0.125,0.010
14.728,-0.130,0.005
14.731,-0.135,0.030
14.733,-0.125,0.045
14.736,-0.130,0.035
14.739,-0.115,0.020
14.742,-0.090,0.030
14.744,-0.065,0.045
14.747,-0.080,0.035
14.750,-0.075,0.015
14.753,-0.045,0.010
14.756,-0.040,0.040
14.758,-0.055,0.055
14.761,-0.065,0.040
14.764,-0.065,0.020
14.767,-0.045,0.035
14.769,-0.045,0.055
14.772,-0.060,0.055
14.775,-0.065,0.025
14.778,-0.075,0.000
14.781,-0.085,0.020
14.783,-0.095,0.035
14.786,-0.090,0.035
14.789,-0.090,0.015
14.792,-0.095,0.030
14.794,-0.100,0.035
14.797,-0.095,0.045
14.800,-0.100,0.015
14.803,-0.095,0.035
14.806,-0.095,0.055
14.808,-0.095,0.065
14.811,-0.090,0.035
14.814,-0.090,0.020
14.817,-0.075,0.040
14.819,-0.060,0.075
14.822,-0.055,0.055
14.825,-0.050,0.040
14.828,-0.055,0.020
14.831,-0.060,0.040
14.833,-0.065,0.070
14.836,-0.070,0.060
14.839,-0.060,0.055
14.842,-0.075,0.065
14.844,-0.085,0.065
14.847,-0.100,0.050
14.850,-0.095,0.035
14.853,-0.095,0.055
14.856,-0.110,0.070
14.858,-0.110,0.080
14.861,-0.120,0.050
14.864,-0.135,0.045
14.867,-0.125,0.085
14.869,-0.110,0.100
14.872,-0.080,0.075
14.875,-0.060,0.060
14.878,-0.045,0.060
14.881,-0.060,0.095
14.883,-0.065,0.095
14.886,-0.070,0.085
14.889,-0.040,0.095
14.892,-0.020,0.115
14.894,-0.030,0.095
14.897,-0.055,0.070
14.900,-0.070,0.065
14.903,-0.035,0.095
14.906,-0.035,0.105
14.908,-0.045,0.070
14.911,-0.075,0.050
14.914,-0.085,0.075
14.917,-0.055,0.080
14.919,0.015,0.065
14.922,0.095,0.050
14.925,0.175,0.070
14.928,0.270,0.080
14.931,0.370,0.065
14.933,0.475,0.060
14.936,0.600,0.095
14.939,0.770,0.125
14.942,0.925,0.105
14.944,1.065,0.075
14.947,1.190,0.075
14.950,1.290,0.120
14.953,1.300,0.115
14.956,1.240,0.100
14.958,1.100,0.100
14.961,0.820,0.120
14.964,0.375,0.120
14.967,-0.020,0.105
14.969,-0.230,0.125
14.972,-0.305,0.120
14.975,-0.320,0.145
14.978,-0.330,0.110
14.981,-0.325,0.120
14.983,-0.260,0.135
14.986,-0.180,0.135
14.989,-0.125,0.100
14.992,-0.130,0.100
14.994,-0.125,0.125
14.997,-0.135,0.105
15.000,-0.155,0.100
15.003,-0.165,0.100
15.006,-0.175,0.110
15.008,-0.185,0.100
15.011,-0.200,0.070
15.014,-0.225,0.050
15.017,-0.220,0.070
15.019,-0.185,0.090
15.022,-0.140,0.070
15.025,-0.140,0.060
15.028,-0.115,0.055
15.031,-0.125,0.065
15.033,-0.150,0.050
15.036,-0.170,0.035
15.039,-0.195,0.055
15.042,-0.190,0.075
15.044,-0.175,0.065
15.047,-0.170,0.040
15.050,-0.155,0.065
15.053,-0.140,0.085
15.056,-0.125,0.080
15.058,-0.125,0.055
15.061,-0.145,0.050
15.064,-0.155,0.080
15.067,-0.150,0.075
15.069,-0.135,0.065
15.072,-0.120,0.070
15.075,-0.120,0.085
15.078,-0.110,0.040
15.081,-0.125,0.030
15.083,-0.110,0.035
15.086,-0.110,0.060
15.089,-0.065,0.070
15.092,-0.055,0.050
15.094,-0.060,0.035
15.097,-0.085,0.040
15.100,-0.080,0.035
15.103,-0.080,0.030
15.106,-0.095,0.030
15.108,-0.100,0.050
15.111,-0.105,0.030
15.114,-0.105,0.020
15.117,-0.075,0.025
15.119,-0.045,0.055
15.122,-0.035,0.045
15.125,-0.020,0.035
15.128,-0.010,0.020
15.131,0.000,0.050
15.133,0.010,0.040
15.136,0.005,0.030
15.139,0.005,0.030
15.142,0.025,0.045
15.144,0.040,0.025
15.147,0.065,0.010
15.150,0.085,0.010
15.153,0.090,0.050
15.156,0.095,0.040
15.158,0.095,0.010
15.161,0.095,0.005
15.164,0.100,0.020
15.167,0.110,0.025
15.169,0.085,0.000
15.172,0.070,0.020
15.175,0.080,0.030
15.178,0.110,0.020
15.181,0.145,-0.005
15.183,0.165,0.005
15.186,0.190,0.045
15.189,0.190,0.055
15.192,0.175,0.030
15.194,0.150,0.010
15.197,0.130,0.020
15.200,0.115,0.045
15.203,0.115,0.035
15.206,0.120,0.015
15.208,0.105,0.055
15.211,0.120,0.045
15.214,0.130,0.020
15.217,0.130,0.020
15.219,0.130,0.045
15.222,0.100,0.070
15.225,0.085,0.055
15.228,0.085,0.015
15.231,0.080,0.030
15.233,0.060,0.060
15.236,0.055,0.040
15.239,0.050,0.025
15.242,0.050,0.045
15.244,0.050,0.045
15.247,0.040,0.030
15.250,0.045,0.035
15.253,0.060,0.070
15.256,0.055,0.080
15.258,0.035,0.050
15.261,-0.010,0.025
15.264,-0.015,0.045
15.267,0.000,0.065
15.269,0.030,0.050
15.272,0.040,0.040
15.275,0.035,0.060
15.278,0.010,0.050
15.281,-0.030,0.020
15.283,-0.020,0.040
15.286,-0.005,0.070
15.289,0.015,0.080
15.292,0.010,0.055
15.294,0.000,0.035
15.297,-0.040,0.065
15.300,-0.040,0.075
15.303,-0.040,0.050
15.306,-0.030,0.055
15.308,-0.020,0.080
15.311,-0.010,0.075
15.314,0.000,0.055
15.317,-0.005,0.060
15.319,0.005,0.080
15.322,0.020,0.110
15.325,0.010,0.075
15.328,-0.005,0.045
15.331,-0.020,0.070
15.333,-0.030,0.080
15.336,-0.025,0.085
15.339,-0.020,0.070
15.342,0.010,0.075
15.344,0.005,0.090
15.347,0.000,0.070
15.350,-0.005,0.060
15.353,-0.010,0.085
15.356,-0.015,0.095
15.358,-0.030,0.095
15.361,-0.005,0.060
15.364,0.020,0.075
15.367,0.010,0.100
15.369,0.010,0.105
15.372,0.025,0.085
15.375,0.020,0.085
15.378,0.055,0.100
15.381,0.070,0.095
15.383,0.075,0.085
15.386,0.085,0.095
15.389,0.090,0.115
15.392,0.090,0.120
15.394,0.070,0.080
15.397,0.035,0.065
15.400,0.000,0.090
15.403,-0.010,0.105
15.406,0.010,0.100
15.408,0.030,0.080
15.411,0.035,0.075
15.414,0.020,0.090
15.417,0.005,0.085
15.419,-0.020,0.065
15.422,-0.025,0.080
15.425,-0.035,0.085
15.428,-0.025,0.080
15.431,-0.030,0.050
15.433,-0.055,0.055
15.436,-0.035,0.085
15.439,-0.010,0.100
15.442,0.010,0.065
15.444,0.015,0.050
15.447,-0.005,0.055
15.450,0.000,0.070
15.453,0.005,0.085
15.456,0.005,0.065
15.458,0.010,0.055
15.461,0.005,0.085
15.464,-0.015,0.075
15.467,-0.020,0.060
15.469,-0.035,0.055
15.472,-0.030,0.085
15.475,-0.010,0.075
15.478,-0.020,0.055
15.481,-0.035,0.045
15.483,-0.040,0.090
15.486,-0.060,0.085
15.489,-0.020,0.065
15.492,-0.010,0.055
15.494,-0.015,0.065
15.497,-0.070,0.060
15.500,-0.085,0.055
15.503,-0.085,0.060
15.506,-0.055,0.080
15.508,-0.035,0.085
15.511,-0.050,0.060
15.514,-0.070,0.035
15.517,-0.060,0.060
15.519,-0.040,0.085
15.522,-0.025,0.085
15.525,-0.010,0.055
15.528,-0.030,0.045
15.531,-0.070,0.060
15.533,-0.090,0.065
15.536,-0.070,0.055
15.539,0.000,0.035
15.542,0.075,0.055
15.544,0.165,0.045
15.547,0.235,0.040
15.550,0.325,0.035
15.553,0.415,0.055
15.556,0.535,0.075
15.558,0.650,0.060
15.561,0.770,0.045
15.564,0.920,0.045
15.567,1.035,0.075
15.569,1.160,0.075
15.572,1.245,0.065
15.575,1.265,0.055
15.578,1.220,0.070
15.581,1.080,0.075
15.583,0.870,0.070
15.586,0.520,0.070
15.589,0.170,0.100
15.592,-0.055,0.105
15.594,-0.165,0.090
15.597,-0.225,0.060
15.600,-0.260,0.080
15.603,-0.255,0.105
15.606,-0.200,0.100
15.608,-0.145,0.070
15.611,-0.080,0.060
15.614,-0.050,0.075
15.617,-0.070,0.070
15.619,-0.080,0.055
15.622,-0.100,0.050
15.625,-0.120,0.065
15.628,-0.145,0.060
15.631,-0.150,0.040
15.633,-0.150,0.020
15.636,-0.160,0.045
15.639,-0.165,0.060
15.642,-0.160,0.050
15.644,-0.140,0.010
15.647,-0.125,0.005
15.650,-0.105,0.040
15.653,-0.095,0.070
15.656,-0.085,0.045
15.658,-0.085,0.030
15.661,-0.090,0.035
15.664,-0.085,0.040
15.667,-0.080,0.025
15.669,-0.090,0.030
15.672,-0.085,0.020
15.675,-0.100,0.045
15.678,-0.120,0.040
15.681,-0.145,0.010
15.683,-0.125,0.020
15.686,-0.090,0.045
15.689,-0.085,0.030
15.692,-0.120,0.015
15.694,-0.160,0.005
15.697,-0.170,0.025
15.700,-0.150,0.045
15.703,-0.125,0.040
15.706,-0.095,0.020
15.708,-0.065,0.030
15.711,-0.050,0.030
15.714,-0.060,0.005
15.717,-0.085,0.005
15.719,-0.085,0.025
15.722,-0.080,0.035
15.725,-0.075,0.015
15.728,-0.065,0.005
15.731,-0.060,0.005
15.733,-0.075,0.020
15.736,-0.085,0.025
15.739,-0.115,0.010
15.742,-0.115,0.005
15.744,-0.085,0.025
15.747,-0.050,0.015
15.750,-0.040,0.005
15.753,-0.050,0.000
15.756,-0.070,0.025
15.758,-0.070,0.030
15.761,-0.045,0.010
15.764,-0.035,-0.020
15.767,-0.045,0.020
15.769,-0.035,0.040
15.772,-0.015,0.040
15.775,-0.010,0.010
15.778,0.005,0.005
15.781,-0.010,0.020
15.783,-0.005,0.010
15.786,0.005,0.005
15.789,0.015,0.015
15.792,0.020,0.030
15.794,0.035,0.015
15.797,0.070,0.000
15.800,0.110,0.025
15.803,0.120,0.025
15.806,0.120,0.020
15.808,0.095,0.005
15.811,0.050,-0.005
15.814,0.015,0.010
15.817,-0.005,0.015
15.819,0.025,0.015
15.822,0.075,0.010
15.825,0.085,0.010
15.828,0.075,0.005
15.831,0.070,-0.020
15.833,0.075,-0.015
15.836,0.085,0.010
15.839,0.075,0.030
15.842,0.035,0.015
15.844,0.015,-0.005
15.847,0.000,-0.005
15.850,-0.010,0.015
15.853,0.005,0.010
15.856,0.010,-0.005
15.858,0.010,-0.005
15.861,-0.005,0.000
15.864,-0.020,0.000
15.867,-0.035,0.000
15.869,-0.060,0.000
15.872,-0.065,0.020
15.875,-0.055,0.020
15.878,-0.055,-0.005
15.881,-0.060,-0.015
15.883,-0.065,0.010
15.886,-0.080,0.020
15.889,-0.085,0.025
15.892,-0.075,0.025
15.894,-0.065,0.000
15.897,-0.060,0.020
15.900,-0.095,0.030
15.903,-0.120,0.010
15.906,-0.115,0.030
15.908,-0.090,0.060
15.911,-0.075,0.030
15.914,-0.095,0.030
15.917,-0.085,0.040
15.919,-0.085,0.055
15.922,-0.095,0.070
15.925,-0.100,0.055
15.928,-0.120,0.045
15.931,-0.150,0.065
15.933,-0.145,0.075
15.936,-0.130,0.065
15.939,-0.085,0.075
15.942,-0.070,0.085
15.944,-0.090,0.070
15.947,-0.145,0.040
15.950,-0.175,0.050
15.953,-0.170,0.085
15.956,-0.135,0.095
15.958,-0.105,0.070
15.961,-0.085,0.055
15.964,-0.090,0.060
15.967,-0.085,0.065
15.969,-0.075,0.065
15.972,-0.075,0.080
15.975,-0.070,0.095
15.978,-0.065,0.085
15.981,-0.075,0.065
15.983,-0.045,0.085
15.986,-0.045,0.095
15.989,-0.025,0.080
15.992,-0.020,0.060
15.994,-0.030,0.045
15.997,-0.040,0.065
16.000,-0.075,0.070
16.003,-0.070,0.055
16.006,-0.080,0.060
16.008,-0.080,0.070
16.011,-0.075,0.060
16.014,-0.080,0.030
16.017,-0.085,0.025
16.019,-0.065,0.050
16.022,-0.045,0.075
16.025,-0.035,0.070
16.028,-0.035,0.035
16.031,-0.055,0.035
16.033,-0.085,0.050
16.036,-0.100,0.060
16.039,-0.080,0.040
16.042,-0.070,0.025
16.044,-0.080,0.045
16.047,-0.085,0.040
16.050,-0.105,0.035
16.053,-0.120,0.035
16.056,-0.125,0.060
16.058,-0.130,0.055
16.061,-0.120,0.035
16.064,-0.115,0.005
16.067,-0.115,0.030
16.069,-0.115,0.060
16.072,-0.100,0.060
16.075,-0.095,0.035
16.078,-0.100,0.020
16.081,-0.115,0.040
16.083,-0.125,0.045
16.086,-0.105,0.020
16.089,-0.100,0.020
16.092,-0.090,0.050
16.094,-0.105,0.055
16.097,-0.120,0.020
16.100,-0.120,0.015
16.103,-0.120,0.035
16.106,-0.105,0.045
16.108,-0.105,0.025
16.111,-0.100,0.005
16.114,-0.110,0.015
16.117,-0.110,0.050
16.119,-0.100,0.050
16.122,-0.115,0.030
16.125,-0.130,0.020
16.128,-0.145,0.030
16.131,-0.140,0.020
16.133,-0.105,-0.005
16.136,-0.080,0.000
16.139,-0.050,0.025
16.142,-0.015,0.035
16.144,0.020,0.000
16.147,0.080,-0.010
16.150,0.205,0.020
16.153,0.345,0.060
16.156,0.465,0.035
16.158,0.575,0.015
16.161,0.675,0.010
16.164,0.810,0.025
16.167,0.930,0.035
16.169,1.030,0.035
16.172,1.075,0.040
16.175,1.035,0.045
16.178,0.935,0.060
16.181,0.815,0.035
16.183,0.645,0.020
16.186,0.400,0.050
16.189,0.105,0.090
16.192,-0.110,0.100
16.194,-0.245,0.070
16.197,-0.330,0.080
16.200,-0.350,0.105
16.203,-0.335,0.115
16.206,-0.290,0.080
16.208,-0.255,0.070
16.211,-0.250,0.075
16.214,-0.245,0.085
16.217,-0.220,0.085
16.219,-0.190,0.080
16.222,-0.205,0.090
16.225,-0.240,0.095
16.228,-0.305,0.070
16.231,-0.320,0.030
16.233,-0.310,0.035
16.236,-0.280,0.070
16.239,-0.275,0.070
16.242,-0.285,0.055
16.244,-0.285,0.035
16.247,-0.295,0.055
16.250,-0.260,0.070
16.253,-0.245,0.045
16.256,-0.240,0.045
16.258,-0.240,0.060
16.261,-0.250,0.070
16.264,-0.250,0.055
16.267,-0.245,0.050
16.269,-0.220,0.055
16.272,-0.205,0.090
16.275,-0.205,0.080
16.278,-0.205,0.050
16.281,-0.220,0.025
16.283,-0.225,0.055
16.286,-0.210,0.075
16.289,-0.190,0.060
16.292,-0.200,0.040
16.294,-0.215,0.050
16.297,-0.200,0.055
16.300,-0.180,0.060
16.303,-0.180,0.040
16.306,-0.185,0.045
16.308,-0.195,0.065
16.311,-0.195,0.060
16.314,-0.190,0.030
16.317,-0.180,0.025
16.319,-0.170,0.060
16.322,-0.185,0.070
16.325,-0.185,0.045
16.328,-0.195,0.015
16.331,-0.175,0.035
16.333,-0.155,0.065
16.336,-0.135,0.070
16.339,-0.115,0.050
16.342,-0.095,0.065
16.344,-0.085,0.065
16.347,-0.120,0.055
16.350,-0.155,0.040
16.353,-0.165,0.035
16.356,-0.175,0.060
16.358,-0.145,0.075
16.361,-0.110,0.060
16.364,-0.105,0.025
16.367,-0.095,0.050
16.369,-0.100,0.075
16.372,-0.070,0.070
16.375,-0.050,0.040
16.378,-0.065,0.030
16.381,-0.060,0.050
16.383,-0.045,0.065
16.386,-0.030,0.065
16.389,-0.020,0.055
16.392,-0.020,0.065
16.394,-0.040,0.070
16.397,-0.055,0.065
16.400,-0.040,0.035
16.403,0.000,0.045
16.406,0.015,0.075
16.408,0.010,0.075
16.411,0.025,0.045
16.414,0.030,0.040
16.417,0.045,0.075
16.419,0.060,0.075
16.422,0.060,0.075
16.425,0.050,0.040
16.428,0.035,0.025
16.431,0.015,0.055
16.433,0.010,0.075
16.436,0.005,0.060
16.439,0.005,0.050
16.442,0.015,0.070
16.444,0.015,0.065
16.447,0.015,0.045
16.450,-0.005,0.025
16.453,-0.015,0.055
16.456,-0.020,0.070
16.458,-0.025,0.060
16.461,-0.045,0.030
16.464,-0.065,0.030
16.467,-0.065,0.070
16.469,-0.065,0.085
16.472,-0.050,0.060
16.475,-0.045,0.030
16.478,-0.065,0.040
16.481,-0.065,0.060
16.483,-0.070,0.060
16.486,-0.060,0.030
16.489,-0.040,0.035
16.492,-0.035,0.060
16.494,-0.030,0.060
16.497,-0.045,0.035
16.500,-0.050,0.020
16.503,-0.090,0.050
16.506,-0.105,0.075
16.508,-0.115,0.065
16.511,-0.110,0.020
16.514,-0.115,0.020
16.517,-0.130,0.060
16.519,-0.155,0.065
16.522,-0.175,0.040
16.525,-0.210,0.030
16.528,-0.215,0.045
16.531,-0.200,0.055
16.533,-0.175,0.045
16.536,-0.150,0.035
16.539,-0.140,0.055
16.542,-0.140,0.065
16.544,-0.150,0.065
16.547,-0.170,0.035
16.550,-0.165,0.025
16.553,-0.160,0.045
16.556,-0.165,0.070
16.558,-0.165,0.060
16.561,-0.185,0.035
16.564,-0.200,0.025
16.567,-0.205,0.055
16.569,-0.200,0.080
16.572,-0.195,0.060
16.575,-0.200,0.045
16.578,-0.200,0.045
16.581,-0.210,0.060
16.583,-0.210,0.065
16.586,-0.220,0.050
16.589,-0.225,0.055
16.592,-0.245,0.075
16.594,-0.255,0.075
16.597,-0.255,0.045
16.600,-0.250,0.035
16.603,-0.230,0.070
16.606,-0.220,0.080
16.608,-0.230,0.075
16.611,-0.235,0.045
16.614,-0.245,0.060
16.617,-0.250,0.085
16.619,-0.240,0.090
16.622,-0.240,0.060
16.625,-0.225,0.040
16.628,-0.235,0.055
16.631,-0.220,0.080
16.633,-0.230,0.065
16.636,-0.225,0.055
16.639,-0.215,0.065
16.642,-0.200,0.085
16.644,-0.210,0.070
16.647,-0.235,0.045
16.650,-0.275,0.040
16.653,-0.285,0.070
16.656,-0.275,0.080
16.658,-0.250,0.070
16.661,-0.250,0.045
16.664,-0.265,0.050
16.667,-0.260,0.080
16.669,-0.240,0.100
16.672,-0.240,0.075
16.675,-0.230,0.060
16.678,-0.230,0.060
16.681,-0.235,0.080
16.683,-0.220,0.075
16.686,-0.200,0.075
16.689,-0.180,0.065
16.692,-0.170,0.085
16.694,-0.155,0.100
16.697,-0.165,0.075
16.700,-0.175,0.060
16.703,-0.180,0.075
16.706,-0.170,0.105
16.708,-0.165,0.100
16.711,-0.150,0.075
16.714,-0.155,0.070
16.717,-0.150,0.095
16.719,-0.140,0.120
16.722,-0.145,0.120
16.725,-0.145,0.085
16.728,-0.150,0.075
16.731,-0.160,0.095
16.733,-0.150,0.115
16.736,-0.165,0.135
16.739,-0.170,0.135
16.742,-0.185,0.140
16.744,-0.180,0.110
16.747,-0.190,0.090
16.750,-0.195,0.105
16.753,-0.180,0.110
16.756,-0.160,0.110
16.758,-0.170,0.095
16.761,-0.175,0.080
16.764,-0.205,0.080
16.767,-0.195,0.105
16.769,-0.185,0.110
16.772,-0.170,0.105
16.775,-0.170,0.110
16.778,-0.180,0.100
16.781,-0.185,0.090
16.783,-0.175,0.080
16.786,-0.155,0.095
16.789,-0.155,0.110
16.792,-0.150,0.120
16.794,-0.170,0.095
16.797,-0.190,0.070
16.800,-0.200,0.100
16.803,-0.190,0.110
16.806,-0.190,0.120
16.808,-0.190,0.090
16.811,-0.205,0.090
16.814,-0.210,0.105
16.817,-0.200,0.115
16.819,-0.170,0.110
16.822,-0.150,0.100
16.825,-0.145,0.100
16.828,-0.150,0.100
16.831,-0.190,0.085
16.833,-0.215,0.075
16.836,-0.230,0.080
16.839,-0.235,0.105
16.842,-0.210,0.115
16.844,-0.205,0.090
16.847,-0.235,0.075
16.850,-0.245,0.095
16.853,-0.225,0.100
16.856,-0.200,0.080
16.858,-0.195,0.055
16.861,-0.215,0.065
16.864,-0.230,0.085
16.867,-0.240,0.085
16.869,-0.250,0.065
16.872,-0.240,0.065
16.875,-0.235,0.075
16.878,-0.190,0.060
16.881,-0.130,0.040
16.883,-0.050,0.030
16.886,0.040,0.055
16.889,0.130,0.075
16.892,0.205,0.070
16.894,0.300,0.040
16.897,0.390,0.045
16.900,0.510,0.065
16.903,0.635,0.080
16.906,0.755,0.070
16.908,0.845,0.055
16.911,0.915,0.075
16.914,0.920,0.080
16.917,0.840,0.075
16.919,0.705,0.085
16.922,0.520,0.105
16.925,0.250,0.120
16.928,-0.065,0.105
16.931,-0.300,0.085
16.933,-0.430,0.115
16.936,-0.495,0.145
16.939,-0.520,0.130
16.942,-0.495,0.115
16.944,-0.450,0.105
16.947,-0.410,0.115
16.950,-0.385,0.095
16.953,-0.360,0.080
16.956,-0.330,0.085
16.958,-0.300,0.105
16.961,-0.280,0.095
16.964,-0.300,0.065
16.967,-0.330,0.065
16.969,-0.335,0.090
16.972,-0.340,0.065
16.975,-0.350,0.040
16.978,-0.340,0.040
16.981,-0.345,0.055
16.983,-0.345,0.060
16.986,-0.335,0.060
16.989,-0.325,0.055
16.992,-0.315,0.065
16.994,-0.310,0.050
16.997,-0.325,0.035
17.000,-0.325,0.035
17.003,-0.305,0.060
17.006,-0.290,0.080
17.008,-0.300,0.075
17.011,-0.310,0.050
17.014,-0.310,0.065
17.017,-0.290,0.075
17.019,-0.295,0.060
17.022,-0.295,0.040
17.025,-0.305,0.050
17.028,-0.310,0.065
17.031,-0.305,0.045
17.033,-0.310,0.050
17.036,-0.270,0.070
17.039,-0.245,0.070
17.042,-0.240,0.060
17.044,-0.265,0.030
17.047,-0.295,0.050
17.050,-0.305,0.065
17.053,-0.300,0.075
17.056,-0.285,0.075
17.058,-0.280,0.085
17.061,-0.285,0.075
17.064,-0.275,0.055
17.067,-0.255,0.040
17.069,-0.210,0.070
17.072,-0.190,0.085
17.075,-0.195,0.080
17.078,-0.220,0.060
17.081,-0.250,0.070
17.083,-0.250,0.085
17.086,-0.220,0.085
17.089,-0.190,0.070
17.092,-0.175,0.070
17.094,-0.175,0.080
17.097,-0.180,0.075
17.100,-0.180,0.070
17.103,-0.190,0.080
17.106,-0.175,0.095
17.108,-0.180,0.080
17.111,-0.180,0.055
17.114,-0.175,0.065
17.117,-0.165,0.080
17.119,-0.155,0.090
17.122,-0.140,0.085
17.125,-0.150,0.090
17.128,-0.150,0.080
17.131,-0.165,0.055
17.133,-0.160,0.060
17.136,-0.145,0.085
17.139,-0.125,0.105
17.142,-0.130,0.100
17.144,-0.125,0.075
17.147,-0.130,0.090
17.150,-0.110,0.100
17.153,-0.075,0.095
17.156,-0.065,0.085
17.158,-0.095,0.100
17.161,-0.095,0.105
17.164,-0.090,0.100
17.167,-0.080,0.100
17.169,-0.085,0.125
17.172,-0.095,0.120
17.175,-0.115,0.100
17.178,-0.130,0.075
17.181,-0.135,0.090
17.183,-0.120,0.110
17.186,-0.105,0.110
17.189,-0.115,0.100
17.192,-0.125,0.110
17.194,-0.130,0.110
17.197,-0.120,0.085
17.200,-0.110,0.075
17.203,-0.100,0.105
17.206,-0.105,0.125
17.208,-0.140,0.115
17.211,-0.190,0.095
17.214,-0.215,0.100
17.217,-0.215,0.105
17.219,-0.200,0.100
17.222,-0.185,0.080
17.225,-0.185,0.085
17.228,-0.195,0.105
17.231,-0.210,0.095
17.233,-0.215,0.085
17.236,-0.225,0.100
17.239,-0.205,0.115
17.242,-0.205,0.085
17.244,-0.195,0.070
17.247,-0.205,0.085
17.250,-0.220,0.110
17.253,-0.230,0.110
17.256,-0.230,0.095
17.258,-0.215,0.100
17.261,-0.205,0.095
17.264,-0.225,0.060
17.267,-0.205,0.060
17.269,-0.200,0.080
17.272,-0.190,0.100
17.275,-0.195,0.085
17.278,-0.220,0.070
17.281,-0.260,0.085
17.283,-0.270,0.090
17.286,-0.255,0.085
17.289,-0.225,0.060
17.292,-0.235,0.085
17.294,-0.235,0.085
17.297,-0.260,0.065
17.300,-0.270,0.060
17.303,-0.270,0.075
17.306,-0.250,0.085
17.308,-0.230,0.065
