'Elapsed time','MLII','V1'
'seconds','mV','mV'
0.000,-0.260,-0.210
0.003,-0.260,-0.210
0.006,-0.260,-0.210
0.008,-0.260,-0.210
0.011,-0.260,-0.210
0.014,-0.260,-0.210
0.017,-0.260,-0.210
0.019,-0.260,-0.210
0.022,-0.260,-0.195
0.025,-0.250,-0.185
0.028,-0.240,-0.175
0.031,-0.225,-0.170
0.033,-0.210,-0.180
0.036,-0.200,-0.180
0.039,-0.200,-0.190
0.042,-0.200,-0.170
0.044,-0.180,-0.180
0.047,-0.170,-0.185
0.050,-0.155,-0.185
0.053,-0.165,-0.190
0.056,-0.170,-0.195
0.058,-0.175,-0.195
0.061,-0.170,-0.175
0.064,-0.165,-0.165
0.067,-0.160,-0.160
0.069,-0.170,-0.205
0.072,-0.175,-0.260
0.075,-0.185,-0.295
0.078,-0.175,-0.295
0.081,-0.170,-0.255
0.083,-0.165,-0.240
0.086,-0.175,-0.245
0.089,-0.200,-0.260
0.092,-0.205,-0.295
0.094,-0.210,-0.300
0.097,-0.210,-0.290
0.100,-0.210,-0.280
0.103,-0.225,-0.285
0.106,-0.240,-0.285
0.108,-0.250,-0.275
0.111,-0.245,-0.265
0.114,-0.245,-0.245
0.117,-0.250,-0.245
0.119,-0.255,-0.255
0.122,-0.270,-0.255
0.125,-0.290,-0.245
0.128,-0.305,-0.230
0.131,-0.310,-0.215
0.133,-0.305,-0.200
0.136,-0.305,-0.190
0.139,-0.310,-0.200
0.142,-0.310,-0.185
0.144,-0.310,-0.180
0.147,-0.295,-0.165
0.150,-0.300,-0.175
0.153,-0.320,-0.160
0.156,-0.325,-0.155
0.158,-0.325,-0.130
0.161,-0.320,-0.125
0.164,-0.305,-0.140
0.167,-0.290,-0.155
0.169,-0.295,-0.155
0.172,-0.290,-0.160
0.175,-0.305,-0.140
0.178,-0.295,-0.120
0.181,-0.285,-0.090
0.183,-0.295,-0.115
0.186,-0.295,-0.130
0.189,-0.300,-0.135
0.192,-0.305,-0.125
0.194,-0.285,-0.100
0.197,-0.285,-0.085
0.200,-0.280,-0.095
0.203,-0.285,-0.110
0.206,-0.290,-0.115
0.208,-0.295,-0.095
0.211,-0.295,-0.085
0.214,-0.280,-0.075
0.217,-0.275,-0.065
0.219,-0.265,-0.065
0.222,-0.255,-0.085
0.225,-0.260,-0.085
0.228,-0.245,-0.100
0.231,-0.235,-0.105
0.233,-0.235,-0.110
0.236,-0.240,-0.140
0.239,-0.240,-0.155
0.242,-0.255,-0.165
0.244,-0.250,-0.175
0.247,-0.245,-0.190
0.250,-0.245,-0.200
0.253,-0.255,-0.210
0.256,-0.260,-0.230
0.258,-0.265,-0.220
0.261,-0.260,-0.215
0.264,-0.270,-0.205
0.267,-0.275,-0.195
0.269,-0.290,-0.205
0.272,-0.300,-0.230
0.275,-0.305,-0.235
0.278,-0.310,-0.220
0.281,-0.305,-0.215
0.283,-0.290,-0.235
0.286,-0.285,-0.260
0.289,-0.300,-0.265
0.292,-0.300,-0.265
0.294,-0.295,-0.245
0.297,-0.285,-0.225
0.300,-0.285,-0.220
0.303,-0.280,-0.230
0.306,-0.290,-0.260
0.308,-0.305,-0.260
0.311,-0.300,-0.245
0.314,-0.300,-0.230
0.317,-0.305,-0.225
0.319,-0.315,-0.235
0.322,-0.335,-0.230
0.325,-0.345,-0.200
0.328,-0.340,-0.170
0.331,-0.330,-0.155
0.333,-0.325,-0.145
0.336,-0.325,-0.145
0.339,-0.330,-0.165
0.342,-0.325,-0.175
0.344,-0.315,-0.175
0.347,-0.300,-0.155
0.350,-0.305,-0.150
0.353,-0.315,-0.145
0.356,-0.335,-0.120
0.358,-0.335,-0.100
0.361,-0.325,-0.075
0.364,-0.310,-0.080
0.367,-0.305,-0.110
0.369,-0.320,-0.145
0.372,-0.330,-0.170
0.375,-0.330,-0.170
0.378,-0.310,-0.150
0.381,-0.305,-0.140
0.383,-0.310,-0.135
0.386,-0.320,-0.135
0.389,-0.335,-0.135
0.392,-0.330,-0.115
0.394,-0.315,-0.075
0.397,-0.305,-0.050
0.400,-0.265,-0.050
0.403,-0.240,-0.090
0.406,-0.210,-0.170
0.408,-0.190,-0.235
0.411,-0.170,-0.300
0.414,-0.130,-0.355
0.417,-0.080,-0.440
0.419,0.005,-0.535
0.422,0.100,-0.640
0.425,0.185,-0.740
0.428,0.305,-0.840
0.431,0.430,-0.870
0.433,0.580,-0.860
0.436,0.705,-0.845
0.439,0.765,-0.815
0.442,0.835,-0.755
0.444,0.890,-0.625
0.447,0.870,-0.485
0.450,0.750,-0.360
0.453,0.575,-0.275
0.456,0.375,-0.255
0.458,0.150,-0.260
0.461,-0.030,-0.280
0.464,-0.130,-0.280
0.467,-0.180,-0.265
0.469,-0.220,-0.255
0.472,-0.230,-0.230
0.475,-0.235,-0.205
0.478,-0.215,-0.175
0.481,-0.215,-0.175
0.483,-0.220,-0.160
0.486,-0.235,-0.175
0.489,-0.255,-0.175
0.492,-0.265,-0.165
0.494,-0.275,-0.145
0.497,-0.275,-0.125
0.500,-0.295,-0.110
0.503,-0.300,-0.090
0.506,-0.305,-0.070
0.508,-0.310,-0.050
0.511,-0.300,-0.035
0.514,-0.315,-0.020
0.517,-0.325,-0.075
0.519,-0.345,-0.170
0.522,-0.335,-0.255
0.525,-0.340,-0.270
0.528,-0.320,-0.240
0.531,-0.295,-0.200
0.533,-0.285,-0.190
0.536,-0.295,-0.185
0.539,-0.315,-0.185
0.542,-0.320,-0.185
0.544,-0.325,-0.175
0.547,-0.325,-0.160
0.550,-0.325,-0.150
0.553,-0.335,-0.145
0.556,-0.325,-0.155
0.558,-0.335,-0.145
0.561,-0.320,-0.115
0.564,-0.320,-0.105
0.567,-0.310,-0.095
0.569,-0.310,-0.080
0.572,-0.300,-0.085
0.575,-0.280,-0.080
0.578,-0.255,-0.070
0.581,-0.235,-0.065
0.583,-0.210,-0.070
0.586,-0.205,-0.080
0.589,-0.200,-0.080
0.592,-0.205,-0.070
0.594,-0.215,-0.070
0.597,-0.195,-0.045
0.600,-0.195,-0.060
0.603,-0.205,-0.115
0.606,-0.210,-0.175
0.608,-0.215,-0.180
0.611,-0.210,-0.160
0.614,-0.195,-0.150
0.617,-0.175,-0.190
0.619,-0.165,-0.230
0.622,-0.175,-0.235
0.625,-0.165,-0.230
0.628,-0.160,-0.210
0.631,-0.160,-0.210
0.633,-0.160,-0.205
0.636,-0.165,-0.220
0.639,-0.170,-0.255
0.642,-0.185,-0.300
0.644,-0.200,-0.315
0.647,-0.190,-0.325
0.650,-0.180,-0.320
0.653,-0.175,-0.325
0.656,-0.165,-0.315
0.658,-0.175,-0.295
0.661,-0.170,-0.290
0.664,-0.165,-0.260
0.667,-0.170,-0.260
0.669,-0.175,-0.260
0.672,-0.190,-0.255
0.675,-0.195,-0.245
0.678,-0.205,-0.210
0.681,-0.195,-0.165
0.683,-0.210,-0.160
0.686,-0.205,-0.175
0.689,-0.215,-0.195
0.692,-0.225,-0.195
0.694,-0.225,-0.145
0.697,-0.220,-0.105
0.700,-0.230,-0.110
0.703,-0.250,-0.150
0.706,-0.265,-0.135
0.708,-0.290,-0.060
0.711,-0.285,0.005
0.714,-0.275,0.030
0.717,-0.275,-0.030
0.719,-0.300,-0.140
0.722,-0.330,-0.210
0.725,-0.335,-0.230
0.728,-0.310,-0.210
0.731,-0.280,-0.165
0.733,-0.265,-0.135
0.736,-0.255,-0.115
0.739,-0.250,-0.120
0.742,-0.255,-0.090
0.744,-0.270,-0.080
0.747,-0.260,-0.075
0.750,-0.250,-0.075
0.753,-0.240,-0.090
0.756,-0.240,-0.095
0.758,-0.240,-0.080
0.761,-0.215,-0.075
0.764,-0.215,-0.040
0.767,-0.220,-0.055
0.769,-0.235,-0.080
0.772,-0.240,-0.120
0.775,-0.260,-0.150
0.778,-0.255,-0.125
0.781,-0.255,-0.120
0.783,-0.260,-0.125
0.786,-0.255,-0.115
0.789,-0.260,-0.110
0.792,-0.265,-0.085
0.794,-0.255,-0.065
0.797,-0.255,-0.090
0.800,-0.265,-0.145
0.803,-0.270,-0.220
0.806,-0.275,-0.230
0.808,-0.280,-0.225
0.811,-0.265,-0.200
0.814,-0.270,-0.170
0.817,-0.265,-0.140
0.819,-0.275,-0.155
0.822,-0.275,-0.190
0.825,-0.290,-0.225
0.828,-0.295,-0.245
0.831,-0.300,-0.255
0.833,-0.290,-0.250
0.836,-0.295,-0.245
0.839,-0.305,-0.240
0.842,-0.315,-0.220
0.844,-0.315,-0.185
0.847,-0.310,-0.160
0.850,-0.305,-0.150
0.853,-0.305,-0.160
0.856,-0.295,-0.165
0.858,-0.320,-0.160
0.861,-0.330,-0.140
0.864,-0.330,-0.130
0.867,-0.330,-0.120
0.869,-0.335,-0.080
0.872,-0.350,-0.035
0.875,-0.340,-0.005
0.878,-0.325,0.005
0.881,-0.305,0.020
0.883,-0.295,0.055
0.886,-0.300,0.045
0.889,-0.320,-0.020
0.892,-0.350,-0.065
0.894,-0.360,-0.045
0.897,-0.345,0.010
0.900,-0.315,0.015
0.903,-0.290,-0.030
0.906,-0.290,-0.085
0.908,-0.295,-0.150
0.911,-0.335,-0.165
0.914,-0.335,-0.175
0.917,-0.320,-0.170
0.919,-0.295,-0.170
0.922,-0.290,-0.170
0.925,-0.285,-0.175
0.928,-0.275,-0.165
0.931,-0.280,-0.150
0.933,-0.270,-0.130
0.936,-0.265,-0.115
0.939,-0.285,-0.090
0.942,-0.285,-0.070
0.944,-0.270,-0.060
0.947,-0.275,-0.070
0.950,-0.290,-0.070
0.953,-0.300,-0.050
0.956,-0.310,-0.075
0.958,-0.315,-0.150
0.961,-0.320,-0.215
0.964,-0.305,-0.245
0.967,-0.290,-0.200
0.969,-0.280,-0.145
0.972,-0.285,-0.115
0.975,-0.290,-0.100
0.978,-0.290,-0.135
0.981,-0.290,-0.200
0.983,-0.295,-0.240
0.986,-0.305,-0.250
0.989,-0.310,-0.255
0.992,-0.290,-0.250
0.994,-0.270,-0.235
0.997,-0.255,-0.200
1.000,-0.250,-0.165
1.003,-0.280,-0.160
1.006,-0.315,-0.175
1.008,-0.350,-0.200
1.011,-0.365,-0.180
1.014,-0.360,-0.165
1.017,-0.345,-0.140
1.019,-0.335,-0.130
1.022,-0.345,-0.125
1.025,-0.325,-0.085
1.028,-0.310,-0.070
1.031,-0.295,-0.055
1.033,-0.300,-0.025
1.036,-0.285,0.040
1.039,-0.270,0.120
1.042,-0.265,0.150
1.044,-0.260,0.100
1.047,-0.290,0.030
1.050,-0.290,-0.045
1.053,-0.285,-0.110
1.056,-0.265,-0.140
1.058,-0.265,-0.125
1.061,-0.240,-0.090
1.064,-0.230,-0.115
1.067,-0.240,-0.185
1.069,-0.270,-0.235
1.072,-0.280,-0.255
1.075,-0.285,-0.235
1.078,-0.270,-0.230
1.081,-0.245,-0.225
1.083,-0.225,-0.210
1.086,-0.215,-0.215
1.089,-0.215,-0.230
1.092,-0.235,-0.230
1.094,-0.245,-0.215
1.097,-0.255,-0.200
1.100,-0.260,-0.195
1.103,-0.275,-0.190
1.106,-0.295,-0.180
1.108,-0.300,-0.145
1.111,-0.280,-0.130
1.114,-0.265,-0.125
1.117,-0.235,-0.155
1.119,-0.210,-0.240
1.122,-0.195,-0.350
1.125,-0.180,-0.445
1.128,-0.120,-0.545
1.131,-0.040,-0.630
1.133,0.100,-0.735
1.136,0.235,-0.845
1.139,0.350,-0.905
1.142,0.475,-0.855
1.144,0.620,-0.740
1.147,0.735,-0.610
1.150,0.850,-0.545
1.153,0.945,-0.505
1.156,0.980,-0.430
1.158,0.890,-0.300
1.161,0.720,-0.145
1.164,0.500,-0.020
1.167,0.270,0.065
1.169,0.045,0.090
1.172,-0.120,0.010
1.175,-0.245,-0.095
1.178,-0.330,-0.160
1.181,-0.350,-0.175
1.183,-0.300,-0.175
1.186,-0.235,-0.175
1.189,-0.205,-0.225
1.192,-0.195,-0.245
1.194,-0.200,-0.235
1.197,-0.195,-0.200
1.200,-0.200,-0.190
1.203,-0.210,-0.205
1.206,-0.215,-0.220
1.208,-0.230,-0.215
1.211,-0.235,-0.225
1.214,-0.230,-0.230
1.217,-0.220,-0.220
1.219,-0.225,-0.240
1.222,-0.240,-0.250
1.225,-0.250,-0.250
1.228,-0.235,-0.235
1.231,-0.240,-0.230
1.233,-0.245,-0.235
1.236,-0.245,-0.240
1.239,-0.255,-0.260
1.242,-0.255,-0.245
1.244,-0.255,-0.235
1.247,-0.250,-0.220
1.250,-0.250,-0.195
1.253,-0.250,-0.195
1.256,-0.240,-0.190
1.258,-0.240,-0.175
1.261,-0.235,-0.190
1.264,-0.220,-0.205
1.267,-0.225,-0.270
1.269,-0.230,-0.325
1.272,-0.220,-0.320
1.275,-0.205,-0.270
1.278,-0.190,-0.245
1.281,-0.180,-0.235
1.283,-0.180,-0.270
1.286,-0.185,-0.315
1.289,-0.215,-0.350
1.292,-0.210,-0.335
1.294,-0.180,-0.305
1.297,-0.165,-0.295
1.300,-0.140,-0.285
1.303,-0.125,-0.270
1.306,-0.130,-0.265
1.308,-0.120,-0.255
1.311,-0.120,-0.245
1.314,-0.110,-0.235
1.317,-0.110,-0.240
1.319,-0.105,-0.245
1.322,-0.100,-0.255
1.325,-0.095,-0.260
1.328,-0.090,-0.240
1.331,-0.085,-0.245
1.333,-0.075,-0.250
1.336,-0.085,-0.260
1.339,-0.085,-0.275
1.342,-0.090,-0.260
1.344,-0.065,-0.255
1.347,-0.050,-0.235
1.350,-0.045,-0.235
1.353,-0.055,-0.240
1.356,-0.060,-0.280
1.358,-0.060,-0.305
1.361,-0.045,-0.315
1.364,-0.045,-0.300
1.367,-0.025,-0.290
1.369,-0.025,-0.290
1.372,-0.030,-0.320
1.375,-0.025,-0.335
1.378,-0.025,-0.345
1.381,-0.010,-0.350
1.383,-0.005,-0.350
1.386,0.000,-0.360
1.389,-0.010,-0.355
1.392,-0.005,-0.345
1.394,-0.005,-0.320
1.397,-0.010,-0.305
1.400,-0.015,-0.290
1.403,-0.030,-0.305
1.406,-0.050,-0.300
1.408,-0.075,-0.290
1.411,-0.060,-0.280
1.414,-0.070,-0.255
1.417,-0.070,-0.255
1.419,-0.080,-0.260
1.422,-0.090,-0.265
1.425,-0.110,-0.270
1.428,-0.090,-0.245
1.431,-0.095,-0.230
1.433,-0.095,-0.210
1.436,-0.110,-0.205
1.439,-0.140,-0.220
1.442,-0.145,-0.215
1.444,-0.160,-0.210
1.447,-0.145,-0.210
1.450,-0.155,-0.210
1.453,-0.150,-0.205
1.456,-0.160,-0.200
1.458,-0.160,-0.205
1.461,-0.160,-0.210
1.464,-0.150,-0.195
1.467,-0.140,-0.195
1.469,-0.150,-0.190
1.472,-0.155,-0.195
1.475,-0.170,-0.185
1.478,-0.150,-0.185
1.481,-0.140,-0.165
1.483,-0.125,-0.160
1.486,-0.130,-0.170
1.489,-0.140,-0.175
1.492,-0.155,-0.175
1.494,-0.140,-0.160
1.497,-0.125,-0.160
1.500,-0.130,-0.175
1.503,-0.135,-0.185
1.506,-0.145,-0.195
1.508,-0.155,-0.185
1.511,-0.145,-0.190
1.514,-0.130,-0.180
1.517,-0.125,-0.185
1.519,-0.135,-0.205
1.522,-0.135,-0.215
1.525,-0.135,-0.200
1.528,-0.125,-0.165
1.531,-0.110,-0.160
1.533,-0.110,-0.160
1.536,-0.095,-0.155
1.539,-0.115,-0.165
1.542,-0.115,-0.165
1.544,-0.110,-0.180
1.547,-0.095,-0.185
1.550,-0.105,-0.180
1.553,-0.115,-0.165
1.556,-0.130,-0.160
1.558,-0.135,-0.180
1.561,-0.125,-0.185
1.564,-0.130,-0.205
1.567,-0.125,-0.205
1.569,-0.140,-0.205
1.572,-0.150,-0.210
1.575,-0.150,-0.205
1.578,-0.145,-0.195
1.581,-0.135,-0.205
1.583,-0.135,-0.230
1.586,-0.155,-0.245
1.589,-0.160,-0.245
1.592,-0.175,-0.235
1.594,-0.155,-0.205
1.597,-0.150,-0.195
1.600,-0.155,-0.195
1.603,-0.160,-0.200
1.606,-0.175,-0.215
1.608,-0.175,-0.195
1.611,-0.160,-0.175
1.614,-0.160,-0.180
1.617,-0.160,-0.170
1.619,-0.160,-0.180
1.622,-0.160,-0.185
1.625,-0.170,-0.185
1.628,-0.155,-0.170
1.631,-0.145,-0.175
1.633,-0.155,-0.190
1.636,-0.175,-0.195
1.639,-0.170,-0.210
1.642,-0.170,-0.210
1.644,-0.155,-0.205
1.647,-0.140,-0.195
1.650,-0.145,-0.205
1.653,-0.160,-0.225
1.656,-0.180,-0.230
1.658,-0.180,-0.235
1.661,-0.175,-0.220
1.664,-0.155,-0.210
1.667,-0.155,-0.215
1.669,-0.155,-0.225
1.672,-0.155,-0.230
1.675,-0.165,-0.215
1.678,-0.160,-0.200
1.681,-0.145,-0.200
1.683,-0.145,-0.195
1.686,-0.155,-0.205
1.689,-0.150,-0.210
1.692,-0.155,-0.185
1.694,-0.140,-0.180
1.697,-0.135,-0.180
1.700,-0.135,-0.200
1.703,-0.150,-0.220
1.706,-0.160,-0.230
1.708,-0.175,-0.200
1.711,-0.165,-0.190
1.714,-0.145,-0.170
1.717,-0.140,-0.170
1.719,-0.155,-0.200
1.722,-0.175,-0.210
1.725,-0.190,-0.200
1.728,-0.175,-0.195
1.731,-0.165,-0.195
1.733,-0.160,-0.200
1.736,-0.180,-0.200
1.739,-0.195,-0.195
1.742,-0.200,-0.180
1.744,-0.185,-0.165
1.747,-0.175,-0.155
1.750,-0.180,-0.170
1.753,-0.185,-0.195
1.756,-0.190,-0.215
1.758,-0.190,-0.200
1.761,-0.180,-0.210
1.764,-0.180,-0.175
1.767,-0.170,-0.170
1.769,-0.165,-0.175
1.772,-0.180,-0.180
1.775,-0.190,-0.170
1.778,-0.170,-0.145
1.781,-0.160,-0.135
1.783,-0.165,-0.145
1.786,-0.175,-0.155
1.789,-0.175,-0.180
1.792,-0.175,-0.185
1.794,-0.170,-0.175
1.797,-0.170,-0.165
1.800,-0.170,-0.170
1.803,-0.175,-0.190
1.806,-0.180,-0.195
1.808,-0.190,-0.190
1.811,-0.170,-0.190
1.814,-0.160,-0.180
1.817,-0.155,-0.200
1.819,-0.160,-0.215
1.822,-0.170,-0.220
1.825,-0.165,-0.210
1.828,-0.150,-0.200
1.831,-0.135,-0.200
1.833,-0.145,-0.200
1.836,-0.170,-0.205
1.839,-0.185,-0.235
1.842,-0.185,-0.235
1.844,-0.165,-0.220
1.847,-0.170,-0.225
1.850,-0.160,-0.220
1.853,-0.170,-0.235
1.856,-0.180,-0.225
1.858,-0.195,-0.195
1.861,-0.180,-0.145
1.864,-0.140,-0.090
1.867,-0.125,-0.110
1.869,-0.105,-0.190
1.872,-0.095,-0.330
1.875,-0.075,-0.430
1.878,-0.035,-0.500
1.881,0.025,-0.545
1.883,0.115,-0.610
1.886,0.220,-0.705
1.889,0.325,-0.815
1.892,0.440,-0.885
1.894,0.585,-0.905
1.897,0.710,-0.845
1.900,0.820,-0.780
1.903,0.915,-0.705
1.906,1.005,-0.620
1.908,1.055,-0.490
1.911,1.040,-0.355
1.914,0.935,-0.240
1.917,0.760,-0.145
1.919,0.555,-0.095
1.922,0.330,-0.080
1.925,0.135,-0.100
1.928,0.000,-0.140
1.931,-0.095,-0.175
1.933,-0.155,-0.200
1.936,-0.195,-0.210
1.939,-0.190,-0.210
1.942,-0.155,-0.205
1.944,-0.115,-0.175
1.947,-0.105,-0.170
1.950,-0.105,-0.170
1.953,-0.130,-0.175
1.956,-0.145,-0.185
1.958,-0.165,-0.190
1.961,-0.165,-0.175
1.964,-0.160,-0.175
1.967,-0.160,-0.170
1.969,-0.170,-0.190
1.972,-0.190,-0.215
1.975,-0.190,-0.200
1.978,-0.180,-0.215
1.981,-0.170,-0.225
1.983,-0.175,-0.235
1.986,-0.185,-0.260
1.989,-0.180,-0.290
1.992,-0.190,-0.290
1.994,-0.185,-0.275
1.997,-0.175,-0.265
2.000,-0.175,-0.265
2.003,-0.170,-0.260
2.006,-0.175,-0.270
2.008,-0.185,-0.255
2.011,-0.180,-0.230
2.014,-0.155,-0.225
2.017,-0.150,-0.220
2.019,-0.160,-0.230
2.022,-0.165,-0.235
2.025,-0.170,-0.235
2.028,-0.160,-0.225
2.031,-0.145,-0.225
2.033,-0.155,-0.235
2.036,-0.160,-0.240
2.039,-0.170,-0.255
2.042,-0.165,-0.245
2.044,-0.160,-0.230
2.047,-0.150,-0.235
2.050,-0.145,-0.235
2.053,-0.145,-0.240
2.056,-0.150,-0.255
2.058,-0.155,-0.240
2.061,-0.145,-0.225
2.064,-0.140,-0.225
2.067,-0.135,-0.225
2.069,-0.145,-0.230
2.072,-0.145,-0.235
2.075,-0.150,-0.225
2.078,-0.135,-0.210
2.081,-0.120,-0.205
2.083,-0.125,-0.205
2.086,-0.125,-0.225
2.089,-0.135,-0.230
2.092,-0.140,-0.215
2.094,-0.125,-0.210
2.097,-0.115,-0.205
2.100,-0.130,-0.205
2.103,-0.125,-0.225
2.106,-0.135,-0.260
2.108,-0.130,-0.255
2.111,-0.125,-0.245
2.114,-0.105,-0.220
2.117,-0.100,-0.225
2.119,-0.100,-0.225
2.122,-0.090,-0.235
2.125,-0.080,-0.235
2.128,-0.055,-0.235
2.131,-0.040,-0.235
2.133,-0.030,-0.245
2.136,-0.040,-0.240
2.139,-0.045,-0.250
2.142,-0.040,-0.240
2.144,-0.025,-0.240
2.147,-0.020,-0.240
2.150,-0.010,-0.225
2.153,-0.015,-0.230
2.156,-0.025,-0.230
2.158,-0.035,-0.225
2.161,-0.025,-0.225
2.164,-0.030,-0.205
2.167,-0.040,-0.205
2.169,-0.055,-0.210
2.172,-0.075,-0.210
2.175,-0.085,-0.195
2.178,-0.085,-0.175
2.181,-0.075,-0.165
2.183,-0.090,-0.170
2.186,-0.100,-0.180
2.189,-0.130,-0.185
2.192,-0.135,-0.170
2.194,-0.140,-0.140
2.197,-0.140,-0.130
2.200,-0.145,-0.135
2.203,-0.150,-0.150
2.206,-0.165,-0.190
2.208,-0.170,-0.205
2.211,-0.165,-0.210
2.214,-0.155,-0.205
2.217,-0.170,-0.185
2.219,-0.170,-0.180
2.222,-0.175,-0.180
2.225,-0.175,-0.165
2.228,-0.170,-0.160
2.231,-0.155,-0.145
2.233,-0.160,-0.145
2.236,-0.165,-0.160
2.239,-0.175,-0.165
2.242,-0.170,-0.160
2.244,-0.160,-0.150
2.247,-0.160,-0.145
2.250,-0.170,-0.155
2.253,-0.170,-0.165
2.256,-0.190,-0.180
2.258,-0.185,-0.165
2.261,-0.190,-0.160
2.264,-0.185,-0.150
2.267,-0.190,-0.170
2.269,-0.185,-0.180
2.272,-0.195,-0.195
2.275,-0.200,-0.200
2.278,-0.195,-0.210
2.281,-0.195,-0.200
2.283,-0.185,-0.205
2.286,-0.180,-0.215
2.289,-0.180,-0.225
2.292,-0.165,-0.215
2.294,-0.170,-0.195
2.297,-0.160,-0.200
2.300,-0.165,-0.185
2.303,-0.160,-0.210
2.306,-0.160,-0.230
2.308,-0.160,-0.205
2.311,-0.150,-0.190
2.314,-0.140,-0.185
2.317,-0.145,-0.195
2.319,-0.145,-0.205
2.322,-0.160,-0.205
2.325,-0.175,-0.195
2.328,-0.165,-0.185
2.331,-0.160,-0.180
2.333,-0.165,-0.195
2.336,-0.175,-0.205
2.339,-0.170,-0.255
2.342,-0.185,-0.245
2.344,-0.175,-0.235
2.347,-0.170,-0.220
2.350,-0.175,-0.220
2.353,-0.180,-0.220
2.356,-0.195,-0.240
2.358,-0.195,-0.235
2.361,-0.185,-0.250
2.364,-0.180,-0.245
2.367,-0.165,-0.245
2.369,-0.180,-0.235
2.372,-0.190,-0.250
2.375,-0.195,-0.235
2.378,-0.195,-0.220
2.381,-0.185,-0.205
2.383,-0.180,-0.200
2.386,-0.190,-0.200
2.389,-0.195,-0.215
2.392,-0.210,-0.200
2.394,-0.195,-0.185
2.397,-0.190,-0.180
2.400,-0.190,-0.180
2.403,-0.205,-0.180
2.406,-0.190,-0.180
2.408,-0.210,-0.170
2.411,-0.190,-0.155
2.414,-0.190,-0.150
2.417,-0.195,-0.140
2.419,-0.205,-0.140
2.422,-0.205,-0.155
2.425,-0.215,-0.145
2.428,-0.210,-0.135
2.431,-0.195,-0.130
2.433,-0.195,-0.140
2.436,-0.205,-0.135
2.439,-0.205,-0.145
2.442,-0.215,-0.140
2.444,-0.220,-0.115
2.447,-0.210,-0.100
2.450,-0.220,-0.105
2.453,-0.220,-0.135
2.456,-0.230,-0.160
2.458,-0.220,-0.155
2.461,-0.200,-0.145
2.464,-0.185,-0.135
2.467,-0.165,-0.135
2.469,-0.150,-0.150
2.472,-0.140,-0.185
2.475,-0.120,-0.255
2.478,-0.100,-0.335
2.481,-0.085,-0.420
2.483,-0.060,-0.475
2.486,0.000,-0.540
2.489,0.075,-0.610
2.492,0.165,-0.680
2.494,0.270,-0.790
2.497,0.365,-0.880
2.500,0.475,-0.955
2.503,0.600,-0.980
2.506,0.690,-0.935
2.508,0.770,-0.880
2.511,0.850,-0.800
2.514,0.910,-0.700
2.517,0.910,-0.555
2.519,0.835,-0.435
2.522,0.725,-0.365
2.525,0.590,-0.280
2.528,0.430,-0.245
2.531,0.250,-0.245
2.533,0.100,-0.260
2.536,0.000,-0.275
2.539,-0.065,-0.275
2.542,-0.105,-0.245
2.544,-0.120,-0.235
2.547,-0.115,-0.220
2.550,-0.105,-0.205
2.553,-0.110,-0.210
2.556,-0.135,-0.205
2.558,-0.155,-0.195
2.561,-0.165,-0.190
2.564,-0.170,-0.185
2.567,-0.165,-0.195
2.569,-0.180,-0.190
2.572,-0.195,-0.190
2.575,-0.200,-0.185
2.578,-0.200,-0.175
2.581,-0.200,-0.180
2.583,-0.210,-0.200
2.586,-0.215,-0.205
2.589,-0.210,-0.200
2.592,-0.215,-0.190
2.594,-0.215,-0.170
2.597,-0.210,-0.175
2.600,-0.225,-0.170
2.603,-0.225,-0.170
2.606,-0.240,-0.175
2.608,-0.240,-0.165
2.611,-0.245,-0.160
2.614,-0.240,-0.135
2.617,-0.240,-0.145
2.619,-0.250,-0.160
2.622,-0.260,-0.160
2.625,-0.260,-0.160
2.628,-0.250,-0.160
2.631,-0.255,-0.155
2.633,-0.255,-0.165
2.636,-0.265,-0.180
2.639,-0.275,-0.190
2.642,-0.290,-0.195
2.644,-0.285,-0.175
2.647,-0.285,-0.175
2.650,-0.295,-0.170
2.653,-0.310,-0.185
2.656,-0.315,-0.205
2.658,-0.300,-0.210
2.661,-0.265,-0.205
2.664,-0.250,-0.200
2.667,-0.235,-0.215
2.669,-0.235,-0.215
2.672,-0.235,-0.230
2.675,-0.225,-0.210
2.678,-0.205,-0.220
2.681,-0.180,-0.205
2.683,-0.170,-0.220
2.686,-0.170,-0.220
2.689,-0.175,-0.230
2.692,-0.180,-0.230
2.694,-0.165,-0.235
2.697,-0.145,-0.245
2.700,-0.150,-0.260
2.703,-0.145,-0.275
2.706,-0.135,-0.270
2.708,-0.140,-0.280
2.711,-0.140,-0.245
2.714,-0.135,-0.255
2.717,-0.125,-0.260
2.719,-0.125,-0.260
2.722,-0.120,-0.265
2.725,-0.115,-0.255
2.728,-0.115,-0.260
2.731,-0.105,-0.255
2.733,-0.100,-0.250
2.736,-0.105,-0.270
2.739,-0.105,-0.270
2.742,-0.110,-0.265
2.744,-0.100,-0.245
2.747,-0.095,-0.255
2.750,-0.085,-0.275
2.753,-0.100,-0.265
2.756,-0.100,-0.275
2.758,-0.105,-0.255
2.761,-0.095,-0.260
2.764,-0.090,-0.250
2.767,-0.095,-0.260
2.769,-0.105,-0.245
2.772,-0.115,-0.255
2.775,-0.125,-0.250
2.778,-0.120,-0.240
2.781,-0.120,-0.210
2.783,-0.140,-0.210
2.786,-0.150,-0.210
2.789,-0.175,-0.200
2.792,-0.185,-0.190
2.794,-0.185,-0.180
2.797,-0.190,-0.190
2.800,-0.210,-0.190
2.803,-0.220,-0.205
2.806,-0.230,-0.195
2.808,-0.230,-0.200
2.811,-0.240,-0.185
2.814,-0.255,-0.200
2.817,-0.260,-0.210
2.819,-0.285,-0.205
2.822,-0.300,-0.210
2.825,-0.290,-0.215
2.828,-0.280,-0.230
2.831,-0.280,-0.230
2.833,-0.265,-0.225
2.836,-0.285,-0.230
2.839,-0.260,-0.215
2.842,-0.225,-0.200
2.844,-0.200,-0.200
2.847,-0.180,-0.200
2.850,-0.165,-0.200
2.853,-0.160,-0.200
2.856,-0.170,-0.180
2.858,-0.160,-0.165
2.861,-0.155,-0.170
2.864,-0.155,-0.170
2.867,-0.155,-0.175
2.869,-0.160,-0.190
2.872,-0.160,-0.170
2.875,-0.150,-0.160
2.878,-0.150,-0.150
2.881,-0.155,-0.155
2.883,-0.165,-0.165
2.886,-0.175,-0.170
2.889,-0.180,-0.165
2.892,-0.160,-0.155
2.894,-0.160,-0.150
2.897,-0.150,-0.160
2.900,-0.165,-0.180
2.903,-0.165,-0.185
2.906,-0.165,-0.180
2.908,-0.170,-0.180
2.911,-0.165,-0.170
2.914,-0.170,-0.170
2.917,-0.180,-0.170
2.919,-0.180,-0.190
2.922,-0.180,-0.175
2.925,-0.170,-0.160
2.928,-0.170,-0.155
2.931,-0.185,-0.160
2.933,-0.200,-0.170
2.936,-0.220,-0.190
2.939,-0.220,-0.185
2.942,-0.220,-0.180
2.944,-0.210,-0.170
2.947,-0.215,-0.170
2.950,-0.225,-0.170
2.953,-0.240,-0.175
2.956,-0.245,-0.150
2.958,-0.235,-0.135
2.961,-0.230,-0.140
2.964,-0.245,-0.160
2.967,-0.265,-0.175
2.969,-0.280,-0.195
2.972,-0.285,-0.205
2.975,-0.285,-0.205
2.978,-0.280,-0.215
2.981,-0.295,-0.235
2.983,-0.305,-0.260
2.986,-0.305,-0.280
2.989,-0.310,-0.270
2.992,-0.295,-0.255
2.994,-0.285,-0.240
2.997,-0.275,-0.235
3.000,-0.265,-0.230
3.003,-0.265,-0.230
3.006,-0.250,-0.215
3.008,-0.225,-0.190
3.011,-0.195,-0.185
3.014,-0.190,-0.190
3.017,-0.195,-0.200
3.019,-0.200,-0.205
3.022,-0.210,-0.195
3.025,-0.210,-0.165
3.028,-0.200,-0.135
3.031,-0.200,-0.120
3.033,-0.205,-0.120
3.036,-0.215,-0.150
3.039,-0.215,-0.185
3.042,-0.195,-0.210
3.044,-0.200,-0.210
3.047,-0.180,-0.225
3.050,-0.190,-0.230
3.053,-0.190,-0.235
3.056,-0.195,-0.210
3.058,-0.195,-0.200
3.061,-0.195,-0.195
3.064,-0.205,-0.190
3.067,-0.200,-0.195
3.069,-0.210,-0.205
3.072,-0.215,-0.185
3.075,-0.210,-0.180
3.078,-0.205,-0.175
3.081,-0.205,-0.170
3.083,-0.210,-0.185
3.086,-0.225,-0.205
3.089,-0.220,-0.185
3.092,-0.215,-0.175
3.094,-0.205,-0.165
3.097,-0.215,-0.170
3.100,-0.230,-0.180
3.103,-0.230,-0.185
3.106,-0.230,-0.170
3.108,-0.230,-0.155
3.111,-0.230,-0.160
3.114,-0.235,-0.150
3.117,-0.250,-0.160
3.119,-0.265,-0.175
3.122,-0.260,-0.175
3.125,-0.255,-0.165
3.128,-0.250,-0.170
3.131,-0.255,-0.185
3.133,-0.265,-0.195
3.136,-0.275,-0.205
3.139,-0.285,-0.205
3.142,-0.275,-0.195
3.144,-0.270,-0.175
3.147,-0.260,-0.175
3.150,-0.275,-0.175
3.153,-0.280,-0.180
3.156,-0.275,-0.175
3.158,-0.265,-0.175
3.161,-0.250,-0.165
3.164,-0.240,-0.155
3.167,-0.230,-0.165
3.169,-0.220,-0.170
3.172,-0.210,-0.160
3.175,-0.190,-0.185
3.178,-0.180,-0.200
3.181,-0.175,-0.220
3.183,-0.190,-0.240
3.186,-0.180,-0.245
3.189,-0.175,-0.245
3.192,-0.175,-0.235
3.194,-0.170,-0.235
3.197,-0.175,-0.230
3.200,-0.180,-0.240
3.203,-0.185,-0.250
3.206,-0.190,-0.245
3.208,-0.180,-0.225
3.211,-0.175,-0.230
3.214,-0.175,-0.230
3.217,-0.175,-0.235
3.219,-0.200,-0.240
3.222,-0.190,-0.235
3.225,-0.175,-0.220
3.228,-0.170,-0.225
3.231,-0.175,-0.225
3.233,-0.185,-0.225
3.236,-0.180,-0.240
3.239,-0.185,-0.230
3.242,-0.165,-0.230
3.244,-0.160,-0.215
3.247,-0.170,-0.195
3.250,-0.175,-0.195
3.253,-0.180,-0.195
3.256,-0.180,-0.175
3.258,-0.155,-0.160
3.261,-0.135,-0.175
3.264,-0.125,-0.230
3.267,-0.100,-0.320
3.269,-0.095,-0.410
3.272,-0.080,-0.470
3.275,-0.035,-0.535
3.278,0.035,-0.585
3.281,0.135,-0.645
3.283,0.240,-0.740
3.286,0.340,-0.835
3.289,0.465,-0.880
3.292,0.610,-0.860
3.294,0.735,-0.800
3.297,0.845,-0.715
3.300,0.940,-0.655
3.303,1.010,-0.580
3.306,1.025,-0.450
3.308,0.940,-0.325
3.311,0.775,-0.210
3.314,0.550,-0.120
3.317,0.310,-0.080
3.319,0.100,-0.075
3.322,-0.040,-0.105
3.325,-0.135,-0.135
3.328,-0.210,-0.175
3.331,-0.280,-0.205
3.333,-0.315,-0.220
3.336,-0.305,-0.225
3.339,-0.270,-0.205
3.342,-0.235,-0.195
3.344,-0.230,-0.180
3.347,-0.230,-0.185
3.350,-0.235,-0.205
3.353,-0.245,-0.220
3.356,-0.245,-0.200
3.358,-0.245,-0.190
3.361,-0.240,-0.205
3.364,-0.250,-0.210
3.367,-0.250,-0.235
3.369,-0.250,-0.240
3.372,-0.245,-0.245
3.375,-0.235,-0.230
3.378,-0.225,-0.215
3.381,-0.220,-0.225
3.383,-0.230,-0.240
3.386,-0.240,-0.245
3.389,-0.250,-0.250
3.392,-0.245,-0.235
3.394,-0.235,-0.225
3.397,-0.235,-0.225
3.400,-0.250,-0.230
3.403,-0.250,-0.235
3.406,-0.250,-0.230
3.408,-0.235,-0.225
3.411,-0.240,-0.215
3.414,-0.235,-0.210
3.417,-0.230,-0.240
3.419,-0.245,-0.245
3.422,-0.250,-0.235
3.425,-0.235,-0.245
3.428,-0.235,-0.235
3.431,-0.235,-0.245
3.433,-0.230,-0.250
3.436,-0.235,-0.255
3.439,-0.235,-0.255
3.442,-0.220,-0.260
3.444,-0.215,-0.255
3.447,-0.215,-0.240
3.450,-0.225,-0.255
3.453,-0.230,-0.265
3.456,-0.225,-0.275
3.458,-0.215,-0.260
3.461,-0.210,-0.260
3.464,-0.205,-0.260
3.467,-0.210,-0.255
3.469,-0.215,-0.260
3.472,-0.210,-0.250
3.475,-0.195,-0.235
3.478,-0.175,-0.225
3.481,-0.170,-0.220
3.483,-0.175,-0.220
3.486,-0.170,-0.225
3.489,-0.185,-0.210
3.492,-0.155,-0.200
3.494,-0.155,-0.200
3.497,-0.155,-0.210
3.500,-0.155,-0.220
3.503,-0.150,-0.235
3.506,-0.140,-0.225
3.508,-0.135,-0.220
3.511,-0.135,-0.215
3.514,-0.130,-0.220
3.517,-0.140,-0.240
3.519,-0.135,-0.255
3.522,-0.135,-0.260
3.525,-0.130,-0.250
3.528,-0.130,-0.240
3.531,-0.130,-0.235
3.533,-0.135,-0.245
3.536,-0.130,-0.250
3.539,-0.115,-0.240
3.542,-0.090,-0.225
3.544,-0.070,-0.240
3.547,-0.065,-0.255
3.550,-0.065,-0.270
3.553,-0.080,-0.290
3.556,-0.085,-0.295
3.558,-0.065,-0.305
3.561,-0.065,-0.315
3.564,-0.065,-0.315
3.567,-0.080,-0.315
3.569,-0.080,-0.330
3.572,-0.080,-0.310
3.575,-0.085,-0.310
3.578,-0.075,-0.305
3.581,-0.085,-0.300
3.583,-0.105,-0.295
3.586,-0.120,-0.295
3.589,-0.130,-0.290
3.592,-0.120,-0.270
3.594,-0.125,-0.275
3.597,-0.135,-0.250
3.600,-0.140,-0.245
3.603,-0.155,-0.270
3.606,-0.165,-0.270
3.608,-0.170,-0.255
3.611,-0.170,-0.265
3.614,-0.165,-0.265
3.617,-0.175,-0.270
3.619,-0.190,-0.275
3.622,-0.205,-0.245
3.625,-0.205,-0.230
3.628,-0.190,-0.230
3.631,-0.205,-0.225
3.633,-0.205,-0.230
3.636,-0.210,-0.230
3.639,-0.210,-0.235
3.642,-0.195,-0.210
3.644,-0.195,-0.185
3.647,-0.195,-0.180
3.650,-0.200,-0.170
3.653,-0.220,-0.180
3.656,-0.235,-0.175
3.658,-0.215,-0.165
3.661,-0.190,-0.175
3.664,-0.180,-0.180
3.667,-0.180,-0.180
3.669,-0.195,-0.185
3.672,-0.200,-0.175
3.675,-0.190,-0.165
3.678,-0.170,-0.155
3.681,-0.160,-0.175
3.683,-0.165,-0.185
3.686,-0.180,-0.200
3.689,-0.175,-0.175
3.692,-0.160,-0.175
3.694,-0.160,-0.160
3.697,-0.165,-0.170
3.700,-0.175,-0.190
3.703,-0.195,-0.190
3.706,-0.200,-0.180
3.708,-0.200,-0.165
3.711,-0.195,-0.145
3.714,-0.200,-0.150
3.717,-0.205,-0.160
3.719,-0.225,-0.170
3.722,-0.230,-0.150
3.725,-0.220,-0.140
3.728,-0.190,-0.135
3.731,-0.180,-0.155
3.733,-0.185,-0.170
3.736,-0.190,-0.190
3.739,-0.200,-0.190
3.742,-0.190,-0.195
3.744,-0.180,-0.185
3.747,-0.180,-0.200
3.750,-0.185,-0.210
3.753,-0.205,-0.235
3.756,-0.210,-0.225
3.758,-0.205,-0.220
3.761,-0.210,-0.225
3.764,-0.215,-0.235
3.767,-0.220,-0.260
3.769,-0.240,-0.270
3.772,-0.245,-0.265
3.775,-0.240,-0.255
3.778,-0.220,-0.250
3.781,-0.220,-0.250
3.783,-0.215,-0.260
3.786,-0.225,-0.260
3.789,-0.230,-0.245
3.792,-0.225,-0.230
3.794,-0.225,-0.225
3.797,-0.220,-0.220
3.800,-0.225,-0.220
3.803,-0.240,-0.245
3.806,-0.245,-0.240
3.808,-0.225,-0.225
3.811,-0.220,-0.210
3.814,-0.215,-0.225
3.817,-0.210,-0.220
3.819,-0.215,-0.230
3.822,-0.235,-0.220
3.825,-0.215,-0.205
3.828,-0.215,-0.200
3.831,-0.210,-0.195
3.833,-0.215,-0.200
3.836,-0.215,-0.200
3.839,-0.220,-0.195
3.842,-0.215,-0.190
3.844,-0.205,-0.180
3.847,-0.190,-0.190
3.850,-0.195,-0.190
3.853,-0.190,-0.200
3.856,-0.205,-0.195
3.858,-0.185,-0.185
3.861,-0.180,-0.185
3.864,-0.185,-0.180
3.867,-0.190,-0.200
3.869,-0.195,-0.200
3.872,-0.205,-0.205
3.875,-0.215,-0.195
3.878,-0.205,-0.195
3.881,-0.210,-0.185
3.883,-0.210,-0.190
3.886,-0.225,-0.195
3.889,-0.215,-0.170
3.892,-0.205,-0.170
3.894,-0.205,-0.160
3.897,-0.205,-0.155
3.900,-0.220,-0.140
3.903,-0.240,-0.145
3.906,-0.240,-0.125
3.908,-0.215,-0.125
3.911,-0.200,-0.140
3.914,-0.180,-0.215
3.917,-0.150,-0.320
3.919,-0.130,-0.425
3.922,-0.080,-0.500
3.925,-0.005,-0.590
3.928,0.115,-0.655
3.931,0.230,-0.760
3.933,0.315,-0.875
3.936,0.405,-0.950
3.939,0.515,-0.980
3.942,0.650,-0.930
3.944,0.740,-0.880
3.947,0.810,-0.820
3.950,0.890,-0.745
3.953,0.925,-0.625
3.956,0.885,-0.475
3.958,0.765,-0.345
3.961,0.640,-0.265
3.964,0.460,-0.220
3.967,0.255,-0.215
3.969,0.085,-0.245
3.972,-0.025,-0.255
3.975,-0.085,-0.260
3.978,-0.135,-0.230
3.981,-0.155,-0.220
3.983,-0.145,-0.225
3.986,-0.140,-0.225
3.989,-0.130,-0.215
3.992,-0.120,-0.205
3.994,-0.130,-0.200
3.997,-0.155,-0.200
4.000,-0.170,-0.205
4.003,-0.185,-0.210
4.006,-0.200,-0.200
4.008,-0.215,-0.205
4.011,-0.200,-0.190
4.014,-0.205,-0.195
4.017,-0.205,-0.205
4.019,-0.220,-0.205
4.022,-0.225,-0.210
4.025,-0.225,-0.190
4.028,-0.205,-0.175
4.031,-0.215,-0.185
4.033,-0.215,-0.195
4.036,-0.225,-0.205
4.039,-0.225,-0.190
4.042,-0.225,-0.180
4.044,-0.215,-0.180
4.047,-0.215,-0.175
4.050,-0.225,-0.175
4.053,-0.235,-0.190
4.056,-0.250,-0.175
4.058,-0.240,-0.175
4.061,-0.235,-0.170
4.064,-0.230,-0.160
4.067,-0.235,-0.175
4.069,-0.235,-0.170
4.072,-0.250,-0.165
4.075,-0.250,-0.160
4.078,-0.255,-0.155
4.081,-0.250,-0.165
4.083,-0.255,-0.160
4.086,-0.265,-0.175
4.089,-0.270,-0.160
4.092,-0.265,-0.155
4.094,-0.245,-0.145
4.097,-0.245,-0.150
4.100,-0.240,-0.155
4.103,-0.240,-0.170
4.106,-0.240,-0.170
4.108,-0.235,-0.185
4.111,-0.225,-0.195
4.114,-0.210,-0.195
4.117,-0.220,-0.200
4.119,-0.225,-0.215
4.122,-0.220,-0.215
4.125,-0.200,-0.215
4.128,-0.185,-0.210
4.131,-0.165,-0.225
4.133,-0.165,-0.250
4.136,-0.170,-0.265
4.139,-0.150,-0.245
4.142,-0.145,-0.245
4.144,-0.135,-0.235
4.147,-0.135,-0.240
4.150,-0.125,-0.245
4.153,-0.135,-0.265
4.156,-0.135,-0.255
4.158,-0.140,-0.245
4.161,-0.125,-0.245
4.164,-0.120,-0.240
4.167,-0.130,-0.245
4.169,-0.140,-0.275
4.172,-0.150,-0.270
4.175,-0.140,-0.260
4.178,-0.115,-0.245
4.181,-0.105,-0.245
4.183,-0.115,-0.255
4.186,-0.115,-0.260
4.189,-0.125,-0.260
4.192,-0.115,-0.245
4.194,-0.110,-0.235
4.197,-0.125,-0.235
4.200,-0.140,-0.245
4.203,-0.150,-0.240
4.206,-0.155,-0.245
4.208,-0.160,-0.230
4.211,-0.170,-0.215
4.214,-0.170,-0.210
4.217,-0.185,-0.210
4.219,-0.200,-0.215
4.222,-0.220,-0.205
4.225,-0.225,-0.200
4.228,-0.225,-0.190
4.231,-0.235,-0.185
4.233,-0.240,-0.200
4.236,-0.255,-0.195
4.239,-0.265,-0.190
4.242,-0.275,-0.185
4.244,-0.270,-0.175
4.247,-0.270,-0.180
4.250,-0.275,-0.175
4.253,-0.285,-0.175
4.256,-0.290,-0.170
4.258,-0.290,-0.165
4.261,-0.280,-0.160
4.264,-0.295,-0.165
4.267,-0.295,-0.160
4.269,-0.305,-0.160
4.272,-0.305,-0.150
4.275,-0.310,-0.125
4.278,-0.290,-0.115
4.281,-0.275,-0.110
4.283,-0.260,-0.115
4.286,-0.265,-0.135
4.289,-0.250,-0.135
4.292,-0.225,-0.135
4.294,-0.215,-0.135
4.297,-0.200,-0.165
4.300,-0.190,-0.195
4.303,-0.200,-0.190
4.306,-0.190,-0.180
4.308,-0.170,-0.175
4.311,-0.155,-0.180
4.314,-0.150,-0.205
4.317,-0.155,-0.205
4.319,-0.170,-0.215
4.322,-0.165,-0.205
4.325,-0.155,-0.195
4.328,-0.150,-0.195
4.331,-0.155,-0.195
4.333,-0.160,-0.205
4.336,-0.175,-0.210
4.339,-0.170,-0.220
4.342,-0.165,-0.200
4.344,-0.170,-0.190
4.347,-0.175,-0.200
4.350,-0.165,-0.210
4.353,-0.165,-0.210
4.356,-0.180,-0.200
4.358,-0.185,-0.190
4.361,-0.170,-0.190
4.364,-0.185,-0.195
4.367,-0.190,-0.220
4.369,-0.200,-0.225
4.372,-0.205,-0.220
4.375,-0.205,-0.200
4.378,-0.215,-0.200
4.381,-0.210,-0.195
4.383,-0.215,-0.200
4.386,-0.220,-0.220
4.389,-0.230,-0.210
4.392,-0.225,-0.200
4.394,-0.220,-0.180
4.397,-0.220,-0.190
4.400,-0.225,-0.205
4.403,-0.235,-0.210
4.406,-0.250,-0.205
4.408,-0.245,-0.185
4.411,-0.240,-0.185
4.414,-0.250,-0.185
4.417,-0.260,-0.195
4.419,-0.275,-0.205
4.422,-0.290,-0.205
4.425,-0.290,-0.205
4.428,-0.285,-0.195
4.431,-0.290,-0.205
4.433,-0.300,-0.210
4.436,-0.305,-0.225
4.439,-0.315,-0.215
4.442,-0.310,-0.210
4.444,-0.310,-0.190
4.447,-0.300,-0.180
4.450,-0.320,-0.170
4.453,-0.315,-0.170
4.456,-0.320,-0.150
4.458,-0.310,-0.135
4.461,-0.285,-0.150
4.464,-0.255,-0.225
4.467,-0.210,-0.315
4.469,-0.175,-0.400
4.472,-0.135,-0.460
4.475,-0.075,-0.505
4.478,0.010,-0.550
4.481,0.090,-0.615
4.483,0.160,-0.705
4.486,0.230,-0.825
4.489,0.315,-0.900
4.492,0.420,-0.945
4.494,0.525,-0.925
4.497,0.600,-0.885
4.500,0.660,-0.830
4.503,0.715,-0.750
4.506,0.725,-0.610
4.508,0.700,-0.455
4.511,0.620,-0.320
4.514,0.500,-0.255
4.517,0.325,-0.235
4.519,0.135,-0.255
4.522,-0.020,-0.265
4.525,-0.095,-0.265
4.528,-0.135,-0.240
4.531,-0.175,-0.225
4.533,-0.210,-0.220
4.536,-0.220,-0.210
4.539,-0.215,-0.185
4.542,-0.205,-0.175
4.544,-0.215,-0.180
4.547,-0.225,-0.185
4.550,-0.250,-0.180
4.553,-0.265,-0.185
4.556,-0.275,-0.175
4.558,-0.275,-0.170
4.561,-0.280,-0.155
4.564,-0.270,-0.160
4.567,-0.285,-0.160
4.569,-0.295,-0.170
4.572,-0.300,-0.160
4.575,-0.300,-0.155
4.578,-0.295,-0.150
4.581,-0.300,-0.170
4.583,-0.320,-0.175
4.586,-0.320,-0.190
4.589,-0.315,-0.185
4.592,-0.300,-0.160
4.594,-0.300,-0.165
4.597,-0.310,-0.180
4.600,-0.310,-0.185
4.603,-0.330,-0.195
4.606,-0.320,-0.195
4.608,-0.315,-0.175
4.611,-0.315,-0.180
4.614,-0.315,-0.195
4.617,-0.320,-0.215
4.619,-0.325,-0.235
4.622,-0.315,-0.225
4.625,-0.320,-0.215
4.628,-0.300,-0.220
4.631,-0.290,-0.220
4.633,-0.300,-0.245
4.636,-0.310,-0.255
4.639,-0.315,-0.240
4.642,-0.300,-0.235
4.644,-0.290,-0.240
4.647,-0.300,-0.240
4.650,-0.295,-0.245
4.653,-0.290,-0.255
4.656,-0.280,-0.240
4.658,-0.255,-0.245
4.661,-0.230,-0.230
4.664,-0.225,-0.240
4.667,-0.235,-0.260
4.669,-0.245,-0.270
4.672,-0.235,-0.250
4.675,-0.220,-0.245
4.678,-0.215,-0.245
4.681,-0.215,-0.240
4.683,-0.225,-0.240
4.686,-0.225,-0.250
4.689,-0.210,-0.230
4.692,-0.200,-0.220
4.694,-0.195,-0.225
4.697,-0.190,-0.235
4.700,-0.195,-0.245
4.703,-0.190,-0.260
4.706,-0.195,-0.245
4.708,-0.190,-0.220
4.711,-0.170,-0.215
4.714,-0.175,-0.225
4.717,-0.165,-0.235
4.719,-0.160,-0.245
4.722,-0.150,-0.240
4.725,-0.130,-0.220
4.728,-0.130,-0.215
4.731,-0.135,-0.215
4.733,-0.130,-0.220
4.736,-0.135,-0.210
4.739,-0.140,-0.200
4.742,-0.125,-0.200
4.744,-0.115,-0.185
4.747,-0.120,-0.200
4.750,-0.135,-0.190
4.753,-0.150,-0.200
4.756,-0.160,-0.195
4.758,-0.160,-0.190
4.761,-0.165,-0.185
4.764,-0.175,-0.175
4.767,-0.200,-0.200
4.769,-0.210,-0.205
4.772,-0.225,-0.190
4.775,-0.215,-0.185
4.778,-0.210,-0.185
4.781,-0.215,-0.190
4.783,-0.245,-0.205
4.786,-0.260,-0.215
4.789,-0.260,-0.210
4.792,-0.275,-0.200
4.794,-0.265,-0.200
4.797,-0.275,-0.215
4.800,-0.285,-0.230
4.803,-0.295,-0.250
4.806,-0.300,-0.235
4.808,-0.295,-0.220
4.811,-0.285,-0.215
4.814,-0.290,-0.225
4.817,-0.290,-0.245
4.819,-0.295,-0.260
4.822,-0.285,-0.255
4.825,-0.280,-0.235
4.828,-0.260,-0.200
4.831,-0.270,-0.185
4.833,-0.270,-0.195
4.836,-0.285,-0.215
4.839,-0.285,-0.210
4.842,-0.275,-0.205
4.844,-0.270,-0.200
4.847,-0.275,-0.195
4.850,-0.285,-0.195
4.853,-0.300,-0.215
4.856,-0.300,-0.205
4.858,-0.290,-0.195
4.861,-0.275,-0.185
4.864,-0.285,-0.185
4.867,-0.290,-0.190
4.869,-0.295,-0.195
4.872,-0.285,-0.190
4.875,-0.270,-0.170
4.878,-0.265,-0.160
4.881,-0.275,-0.160
4.883,-0.275,-0.155
4.886,-0.280,-0.165
4.889,-0.275,-0.150
4.892,-0.275,-0.150
4.894,-0.260,-0.150
4.897,-0.260,-0.160
4.900,-0.275,-0.180
4.903,-0.290,-0.185
4.906,-0.275,-0.165
4.908,-0.260,-0.145
4.911,-0.255,-0.150
4.914,-0.255,-0.150
4.917,-0.265,-0.145
4.919,-0.270,-0.145
4.922,-0.260,-0.135
4.925,-0.270,-0.120
4.928,-0.265,-0.110
4.931,-0.260,-0.115
4.933,-0.280,-0.125
4.936,-0.295,-0.135
4.939,-0.275,-0.130
4.942,-0.265,-0.105
4.944,-0.255,-0.105
4.947,-0.260,-0.120
4.950,-0.280,-0.145
4.953,-0.300,-0.140
4.956,-0.295,-0.145
4.958,-0.290,-0.135
4.961,-0.280,-0.155
4.964,-0.290,-0.155
4.967,-0.295,-0.175
4.969,-0.305,-0.205
4.972,-0.295,-0.205
4.975,-0.295,-0.205
4.978,-0.275,-0.195
4.981,-0.285,-0.200
4.983,-0.290,-0.225
4.986,-0.295,-0.250
4.989,-0.295,-0.245
4.992,-0.280,-0.235
4.994,-0.280,-0.220
4.997,-0.280,-0.225
5.000,-0.280,-0.230
5.003,-0.280,-0.250
5.006,-0.285,-0.235
5.008,-0.265,-0.220
5.011,-0.255,-0.220
5.014,-0.265,-0.225
5.017,-0.275,-0.240
5.019,-0.290,-0.245
5.022,-0.305,-0.235
5.025,-0.285,-0.200
5.028,-0.280,-0.185
5.031,-0.280,-0.195
5.033,-0.285,-0.210
5.036,-0.290,-0.230
5.039,-0.305,-0.235
5.042,-0.290,-0.230
5.044,-0.275,-0.225
5.047,-0.275,-0.225
5.050,-0.280,-0.220
5.053,-0.285,-0.230
5.056,-0.290,-0.230
5.058,-0.290,-0.220
5.061,-0.270,-0.220
5.064,-0.280,-0.225
5.067,-0.275,-0.220
5.069,-0.285,-0.220
5.072,-0.290,-0.215
5.075,-0.275,-0.195
5.078,-0.265,-0.180
5.081,-0.275,-0.180
5.083,-0.265,-0.175
5.086,-0.270,-0.180
5.089,-0.270,-0.175
5.092,-0.265,-0.165
5.094,-0.260,-0.175
5.097,-0.270,-0.165
5.100,-0.270,-0.175
5.103,-0.285,-0.175
5.106,-0.295,-0.165
5.108,-0.290,-0.160
5.111,-0.290,-0.165
5.114,-0.290,-0.150
5.117,-0.300,-0.160
5.119,-0.305,-0.165
5.122,-0.310,-0.165
5.125,-0.310,-0.175
5.128,-0.310,-0.165
5.131,-0.310,-0.170
5.133,-0.305,-0.180
5.136,-0.315,-0.175
5.139,-0.315,-0.170
5.142,-0.315,-0.165
5.144,-0.310,-0.160
5.147,-0.310,-0.155
5.150,-0.320,-0.170
5.153,-0.320,-0.190
5.156,-0.325,-0.185
5.158,-0.320,-0.160
5.161,-0.315,-0.165
5.164,-0.325,-0.175
5.167,-0.320,-0.200
5.169,-0.335,-0.210
5.172,-0.320,-0.200
5.175,-0.300,-0.190
5.178,-0.290,-0.185
5.181,-0.280,-0.185
5.183,-0.255,-0.200
5.186,-0.270,-0.215
5.189,-0.265,-0.220
5.192,-0.265,-0.225
5.194,-0.255,-0.235
5.197,-0.270,-0.235
5.200,-0.270,-0.255
5.203,-0.285,-0.270
5.206,-0.280,-0.255
5.208,-0.275,-0.250
5.211,-0.270,-0.245
5.214,-0.280,-0.250
5.217,-0.285,-0.255
5.219,-0.290,-0.265
5.222,-0.300,-0.275
5.225,-0.300,-0.260
5.228,-0.300,-0.255
5.231,-0.295,-0.250
5.233,-0.295,-0.265
5.236,-0.300,-0.265
5.239,-0.315,-0.250
5.242,-0.305,-0.240
5.244,-0.300,-0.230
5.247,-0.285,-0.225
5.250,-0.290,-0.225
5.253,-0.295,-0.235
5.256,-0.310,-0.235
5.258,-0.300,-0.230
5.261,-0.290,-0.225
5.264,-0.290,-0.225
5.267,-0.295,-0.240
5.269,-0.300,-0.230
5.272,-0.300,-0.225
5.275,-0.300,-0.205
5.278,-0.300,-0.195
5.281,-0.310,-0.200
5.283,-0.305,-0.210
5.286,-0.315,-0.220
5.289,-0.315,-0.210
5.292,-0.315,-0.205
5.294,-0.310,-0.195
5.297,-0.300,-0.200
5.300,-0.305,-0.215
5.303,-0.310,-0.215
5.306,-0.310,-0.210
5.308,-0.295,-0.190
5.311,-0.295,-0.175
5.314,-0.295,-0.180
5.317,-0.295,-0.190
5.319,-0.300,-0.190
5.322,-0.290,-0.180
5.325,-0.285,-0.175
5.328,-0.270,-0.165
5.331,-0.275,-0.165
5.333,-0.270,-0.170
5.336,-0.280,-0.180
5.339,-0.275,-0.180
5.342,-0.270,-0.180
5.344,-0.275,-0.155
5.347,-0.285,-0.160
5.350,-0.275,-0.160
5.353,-0.275,-0.180
5.356,-0.270,-0.195
5.358,-0.270,-0.205
5.361,-0.265,-0.195
5.364,-0.270,-0.190
5.367,-0.265,-0.195
5.369,-0.260,-0.195
5.372,-0.255,-0.210
5.375,-0.230,-0.210
5.378,-0.220,-0.220
5.381,-0.225,-0.225
5.383,-0.240,-0.240
5.386,-0.245,-0.250
5.389,-0.240,-0.245
5.392,-0.245,-0.240
5.394,-0.235,-0.240
5.397,-0.230,-0.225
5.400,-0.225,-0.245
5.403,-0.220,-0.260
5.406,-0.225,-0.240
5.408,-0.205,-0.215
5.411,-0.200,-0.205
5.414,-0.200,-0.205
5.417,-0.190,-0.215
5.419,-0.180,-0.250
5.422,-0.140,-0.290
5.425,-0.125,-0.380
5.428,-0.110,-0.470
5.431,-0.080,-0.540
5.433,-0.045,-0.625
5.436,0.030,-0.690
5.439,0.125,-0.775
5.442,0.245,-0.855
5.444,0.350,-0.950
5.447,0.465,-0.985
5.450,0.565,-0.980
5.453,0.660,-0.925
5.456,0.740,-0.845
5.458,0.820,-0.770
5.461,0.885,-0.660
5.464,0.875,-0.525
5.467,0.750,-0.395
5.469,0.580,-0.295
5.472,0.370,-0.200
5.475,0.165,-0.160
5.478,-0.005,-0.165
5.481,-0.125,-0.225
5.483,-0.205,-0.275
5.486,-0.270,-0.295
5.489,-0.290,-0.275
5.492,-0.285,-0.240
5.494,-0.245,-0.230
5.497,-0.220,-0.225
5.500,-0.220,-0.225
5.503,-0.230,-0.220
5.506,-0.245,-0.205
5.508,-0.245,-0.190
5.511,-0.260,-0.180
5.514,-0.260,-0.180
5.517,-0.290,-0.190
5.519,-0.285,-0.195
5.522,-0.305,-0.185
5.525,-0.300,-0.170
5.528,-0.300,-0.180
5.531,-0.315,-0.175
5.533,-0.335,-0.190
5.536,-0.335,-0.190
5.539,-0.350,-0.190
5.542,-0.360,-0.175
5.544,-0.355,-0.160
5.547,-0.370,-0.145
5.550,-0.370,-0.165
5.553,-0.360,-0.165
5.556,-0.335,-0.155
5.558,-0.300,-0.160
5.561,-0.285,-0.160
5.564,-0.280,-0.175
5.567,-0.275,-0.190
5.569,-0.285,-0.205
5.572,-0.295,-0.210
5.575,-0.290,-0.235
5.578,-0.285,-0.255
5.581,-0.275,-0.285
5.583,-0.285,-0.305
5.586,-0.285,-0.320
5.589,-0.280,-0.310
5.592,-0.285,-0.295
5.594,-0.275,-0.295
5.597,-0.280,-0.290
5.600,-0.270,-0.290
5.603,-0.265,-0.305
5.606,-0.255,-0.305
5.608,-0.250,-0.295
5.611,-0.240,-0.290
5.614,-0.235,-0.295
5.617,-0.245,-0.315
5.619,-0.250,-0.320
5.622,-0.245,-0.295
5.625,-0.230,-0.295
5.628,-0.205,-0.280
5.631,-0.205,-0.290
5.633,-0.200,-0.305
5.636,-0.210,-0.315
5.639,-0.205,-0.305
5.642,-0.205,-0.300
5.644,-0.200,-0.290
5.647,-0.205,-0.295
5.650,-0.210,-0.295
5.653,-0.205,-0.310
5.656,-0.215,-0.300
5.658,-0.205,-0.295
5.661,-0.180,-0.285
5.664,-0.175,-0.290
5.667,-0.180,-0.285
5.669,-0.180,-0.280
5.672,-0.175,-0.275
5.675,-0.170,-0.265
5.678,-0.165,-0.270
5.681,-0.175,-0.290
5.683,-0.180,-0.295
5.686,-0.190,-0.310
5.689,-0.180,-0.295
5.692,-0.160,-0.285
5.694,-0.155,-0.280
5.697,-0.155,-0.290
5.700,-0.150,-0.295
5.703,-0.150,-0.310
5.706,-0.140,-0.315
5.708,-0.135,-0.305
5.711,-0.130,-0.295
5.714,-0.125,-0.285
5.717,-0.140,-0.290
5.719,-0.150,-0.295
5.722,-0.155,-0.275
5.725,-0.150,-0.270
5.728,-0.155,-0.250
5.731,-0.155,-0.250
5.733,-0.165,-0.240
5.736,-0.170,-0.240
5.739,-0.165,-0.230
5.742,-0.140,-0.235
5.744,-0.140,-0.260
5.747,-0.140,-0.280
5.750,-0.150,-0.300
5.753,-0.170,-0.315
5.756,-0.160,-0.310
5.758,-0.175,-0.285
5.761,-0.170,-0.280
5.764,-0.175,-0.280
5.767,-0.190,-0.295
5.769,-0.205,-0.295
5.772,-0.220,-0.285
5.775,-0.210,-0.280
5.778,-0.200,-0.270
5.781,-0.200,-0.270
5.783,-0.210,-0.280
5.786,-0.215,-0.270
5.789,-0.220,-0.265
5.792,-0.210,-0.240
5.794,-0.205,-0.235
5.797,-0.200,-0.225
5.800,-0.215,-0.245
5.803,-0.210,-0.240
5.806,-0.210,-0.225
5.808,-0.200,-0.205
5.811,-0.200,-0.210
5.814,-0.205,-0.210
5.817,-0.215,-0.215
5.819,-0.220,-0.220
5.822,-0.225,-0.215
5.825,-0.225,-0.195
5.828,-0.215,-0.190
5.831,-0.225,-0.200
5.833,-0.230,-0.195
5.836,-0.245,-0.190
5.839,-0.235,-0.170
5.842,-0.225,-0.160
5.844,-0.225,-0.160
5.847,-0.230,-0.175
5.850,-0.230,-0.195
5.853,-0.230,-0.190
5.856,-0.220,-0.175
5.858,-0.215,-0.165
5.861,-0.205,-0.155
5.864,-0.210,-0.165
5.867,-0.220,-0.175
5.869,-0.230,-0.195
5.872,-0.245,-0.200
5.875,-0.235,-0.200
5.878,-0.240,-0.200
5.881,-0.255,-0.190
5.883,-0.265,-0.190
5.886,-0.280,-0.195
5.889,-0.285,-0.195
5.892,-0.280,-0.195
5.894,-0.275,-0.185
5.897,-0.280,-0.190
5.900,-0.275,-0.205
5.903,-0.275,-0.205
5.906,-0.265,-0.205
5.908,-0.255,-0.200
5.911,-0.250,-0.195
5.914,-0.255,-0.200
5.917,-0.260,-0.220
5.919,-0.265,-0.225
5.922,-0.260,-0.240
5.925,-0.245,-0.240
5.928,-0.250,-0.240
5.931,-0.240,-0.230
5.933,-0.245,-0.225
5.936,-0.255,-0.215
5.939,-0.265,-0.210
5.942,-0.240,-0.220
5.944,-0.240,-0.240
5.947,-0.240,-0.245
5.950,-0.235,-0.250
5.953,-0.240,-0.260
5.956,-0.240,-0.245
5.958,-0.245,-0.235
5.961,-0.240,-0.240
5.964,-0.245,-0.235
5.967,-0.255,-0.245
5.969,-0.260,-0.250
5.972,-0.260,-0.225
5.975,-0.255,-0.220
5.978,-0.245,-0.200
5.981,-0.245,-0.195
5.983,-0.240,-0.200
5.986,-0.255,-0.200
5.989,-0.265,-0.180
5.992,-0.260,-0.160
5.994,-0.265,-0.145
5.997,-0.255,-0.150
6.000,-0.260,-0.150
6.003,-0.260,-0.160
6.006,-0.270,-0.185
6.008,-0.260,-0.190
6.011,-0.260,-0.190
6.014,-0.265,-0.190
6.017,-0.275,-0.195
6.019,-0.295,-0.195
6.022,-0.300,-0.195
6.025,-0.295,-0.185
6.028,-0.285,-0.180
6.031,-0.290,-0.185
6.033,-0.295,-0.200
6.036,-0.325,-0.200
6.039,-0.330,-0.180
6.042,-0.325,-0.170
6.044,-0.320,-0.160
6.047,-0.320,-0.155
6.050,-0.310,-0.165
6.053,-0.330,-0.180
6.056,-0.335,-0.170
6.058,-0.305,-0.160
6.061,-0.285,-0.170
6.064,-0.270,-0.175
6.067,-0.275,-0.195
6.069,-0.290,-0.210
6.072,-0.285,-0.185
6.075,-0.275,-0.185
6.078,-0.265,-0.175
6.081,-0.260,-0.190
6.083,-0.265,-0.200
6.086,-0.275,-0.215
6.089,-0.270,-0.200
6.092,-0.260,-0.190
6.094,-0.250,-0.190
6.097,-0.245,-0.210
6.100,-0.245,-0.210
6.103,-0.255,-0.230
6.106,-0.240,-0.220
6.108,-0.235,-0.210
6.111,-0.230,-0.205
6.114,-0.235,-0.210
6.117,-0.240,-0.205
6.119,-0.245,-0.210
6.122,-0.245,-0.205
6.125,-0.235,-0.195
6.128,-0.225,-0.185
6.131,-0.235,-0.190
6.133,-0.240,-0.185
6.136,-0.245,-0.200
6.139,-0.250,-0.180
6.142,-0.235,-0.170
6.144,-0.225,-0.180
6.147,-0.230,-0.195
6.150,-0.235,-0.215
6.153,-0.235,-0.210
6.156,-0.235,-0.195
6.158,-0.240,-0.170
6.161,-0.240,-0.155
6.164,-0.235,-0.160
6.167,-0.230,-0.150
6.169,-0.235,-0.150
6.172,-0.220,-0.150
6.175,-0.215,-0.150
6.178,-0.190,-0.185
6.181,-0.165,-0.290
6.183,-0.150,-0.410
6.186,-0.130,-0.515
6.189,-0.085,-0.600
6.192,0.020,-0.675
6.194,0.145,-0.775
6.197,0.255,-0.880
6.200,0.365,-0.960
6.203,0.475,-0.955
6.206,0.595,-0.880
6.208,0.705,-0.780
6.211,0.810,-0.680
6.214,0.865,-0.570
6.217,0.860,-0.425
6.219,0.755,-0.310
6.222,0.575,-0.215
6.225,0.360,-0.125
6.228,0.155,-0.085
6.231,-0.025,-0.110
6.233,-0.165,-0.170
6.236,-0.270,-0.220
6.239,-0.310,-0.230
6.242,-0.300,-0.210
6.244,-0.260,-0.195
6.247,-0.205,-0.200
6.250,-0.190,-0.215
6.253,-0.195,-0.220
6.256,-0.215,-0.215
6.258,-0.220,-0.210
6.261,-0.215,-0.195
6.264,-0.225,-0.195
6.267,-0.235,-0.210
6.269,-0.245,-0.205
6.272,-0.255,-0.190
6.275,-0.240,-0.180
6.278,-0.230,-0.190
6.281,-0.240,-0.190
6.283,-0.255,-0.210
6.286,-0.260,-0.215
6.289,-0.275,-0.225
6.292,-0.265,-0.215
6.294,-0.255,-0.205
6.297,-0.250,-0.205
6.300,-0.265,-0.210
6.303,-0.275,-0.235
6.306,-0.280,-0.225
6.308,-0.270,-0.210
6.311,-0.265,-0.215
6.314,-0.275,-0.215
6.317,-0.285,-0.240
6.319,-0.300,-0.240
6.322,-0.295,-0.240
6.325,-0.280,-0.235
6.328,-0.275,-0.220
6.331,-0.275,-0.220
6.333,-0.275,-0.235
6.336,-0.290,-0.240
6.339,-0.280,-0.235
6.342,-0.275,-0.220
6.344,-0.265,-0.205
6.347,-0.270,-0.220
6.350,-0.275,-0.235
6.353,-0.285,-0.240
6.356,-0.280,-0.235
6.358,-0.270,-0.225
6.361,-0.260,-0.235
6.364,-0.260,-0.235
6.367,-0.260,-0.240
6.369,-0.270,-0.245
6.372,-0.265,-0.225
6.375,-0.250,-0.215
6.378,-0.235,-0.205
6.381,-0.240,-0.200
6.383,-0.235,-0.210
6.386,-0.240,-0.195
6.389,-0.220,-0.180
6.392,-0.210,-0.175
6.394,-0.195,-0.180
6.397,-0.190,-0.180
6.400,-0.185,-0.205
6.403,-0.185,-0.215
6.406,-0.175,-0.205
6.408,-0.165,-0.210
6.411,-0.145,-0.210
6.414,-0.150,-0.220
6.417,-0.145,-0.235
6.419,-0.150,-0.250
6.422,-0.140,-0.250
6.425,-0.130,-0.270
6.428,-0.135,-0.275
6.431,-0.130,-0.300
6.433,-0.135,-0.310
6.436,-0.140,-0.320
6.439,-0.130,-0.305
6.442,-0.120,-0.290
6.444,-0.110,-0.305
6.447,-0.120,-0.305
6.450,-0.130,-0.300
6.453,-0.135,-0.305
6.456,-0.140,-0.290
6.458,-0.140,-0.270
6.461,-0.130,-0.265
6.464,-0.140,-0.260
6.467,-0.155,-0.265
6.469,-0.165,-0.275
6.472,-0.175,-0.255
6.475,-0.180,-0.240
6.478,-0.180,-0.240
6.481,-0.190,-0.230
6.483,-0.200,-0.250
6.486,-0.215,-0.250
6.489,-0.225,-0.240
6.492,-0.225,-0.235
6.494,-0.225,-0.240
6.497,-0.230,-0.250
6.500,-0.245,-0.260
6.503,-0.260,-0.270
6.506,-0.260,-0.250
6.508,-0.250,-0.235
6.511,-0.250,-0.240
6.514,-0.265,-0.230
6.517,-0.275,-0.230
6.519,-0.285,-0.230
6.522,-0.280,-0.220
6.525,-0.265,-0.205
6.528,-0.270,-0.220
6.531,-0.270,-0.215
6.533,-0.290,-0.240
6.536,-0.295,-0.235
6.539,-0.300,-0.225
6.542,-0.295,-0.220
6.544,-0.300,-0.210
6.547,-0.295,-0.200
6.550,-0.305,-0.200
6.553,-0.300,-0.215
6.556,-0.300,-0.195
6.558,-0.295,-0.175
6.561,-0.275,-0.165
6.564,-0.280,-0.155
6.567,-0.280,-0.155
6.569,-0.280,-0.150
6.572,-0.280,-0.145
6.575,-0.275,-0.140
6.578,-0.265,-0.145
6.581,-0.275,-0.125
6.583,-0.270,-0.135
6.586,-0.285,-0.130
6.589,-0.285,-0.115
6.592,-0.280,-0.105
6.594,-0.270,-0.110
6.597,-0.260,-0.115
6.600,-0.255,-0.130
6.603,-0.250,-0.140
6.606,-0.250,-0.150
6.608,-0.235,-0.145
6.611,-0.235,-0.150
6.614,-0.240,-0.160
6.617,-0.240,-0.170
6.619,-0.260,-0.190
6.622,-0.260,-0.185
6.625,-0.240,-0.205
6.628,-0.245,-0.205
6.631,-0.245,-0.230
6.633,-0.255,-0.240
6.636,-0.255,-0.240
6.639,-0.265,-0.240
6.642,-0.255,-0.225
6.644,-0.250,-0.225
6.647,-0.255,-0.220
6.650,-0.250,-0.235
6.653,-0.260,-0.235
6.656,-0.260,-0.220
6.658,-0.265,-0.220
6.661,-0.260,-0.215
6.664,-0.265,-0.215
6.667,-0.275,-0.215
6.669,-0.280,-0.225
6.672,-0.280,-0.230
6.675,-0.270,-0.220
6.678,-0.265,-0.210
6.681,-0.270,-0.220
6.683,-0.280,-0.215
6.686,-0.280,-0.215
6.689,-0.285,-0.200
6.692,-0.280,-0.210
6.694,-0.275,-0.210
6.697,-0.280,-0.230
6.700,-0.285,-0.245
6.703,-0.305,-0.250
6.706,-0.310,-0.235
6.708,-0.300,-0.225
6.711,-0.290,-0.205
6.714,-0.290,-0.200
6.717,-0.290,-0.210
6.719,-0.290,-0.210
6.722,-0.310,-0.205
6.725,-0.290,-0.190
6.728,-0.290,-0.185
6.731,-0.295,-0.170
6.733,-0.305,-0.185
6.736,-0.310,-0.190
6.739,-0.305,-0.185
6.742,-0.310,-0.170
6.744,-0.300,-0.160
6.747,-0.305,-0.165
6.750,-0.310,-0.175
6.753,-0.320,-0.175
6.756,-0.330,-0.160
6.758,-0.320,-0.155
6.761,-0.310,-0.160
6.764,-0.305,-0.155
6.767,-0.320,-0.160
6.769,-0.340,-0.160
6.772,-0.350,-0.150
6.775,-0.340,-0.140
6.778,-0.325,-0.130
6.781,-0.335,-0.110
6.783,-0.325,-0.125
6.786,-0.315,-0.125
6.789,-0.295,-0.135
6.792,-0.250,-0.130
6.794,-0.225,-0.130
6.797,-0.220,-0.145
6.800,-0.225,-0.165
6.803,-0.240,-0.175
6.806,-0.240,-0.160
6.808,-0.235,-0.165
6.811,-0.220,-0.165
6.814,-0.230,-0.190
6.817,-0.230,-0.210
6.819,-0.240,-0.225
6.822,-0.240,-0.225
6.825,-0.230,-0.210
6.828,-0.225,-0.215
6.831,-0.220,-0.220
6.833,-0.245,-0.230
6.836,-0.240,-0.240
6.839,-0.255,-0.225
6.842,-0.245,-0.215
6.844,-0.235,-0.215
6.847,-0.245,-0.210
6.850,-0.255,-0.215
6.853,-0.255,-0.220
6.856,-0.265,-0.210
6.858,-0.255,-0.200
6.861,-0.260,-0.190
6.864,-0.265,-0.200
6.867,-0.275,-0.210
6.869,-0.280,-0.205
6.872,-0.270,-0.205
6.875,-0.270,-0.200
6.878,-0.255,-0.200
6.881,-0.250,-0.205
6.883,-0.240,-0.190
6.886,-0.245,-0.185
6.889,-0.235,-0.155
6.892,-0.240,-0.135
6.894,-0.215,-0.145
6.897,-0.190,-0.205
6.900,-0.155,-0.305
6.903,-0.145,-0.390
6.906,-0.110,-0.485
6.908,-0.045,-0.550
6.911,0.060,-0.635
6.914,0.165,-0.745
6.917,0.260,-0.875
6.919,0.350,-0.975
6.922,0.470,-0.990
6.925,0.590,-0.945
6.928,0.670,-0.875
6.931,0.725,-0.810
6.933,0.755,-0.735
6.936,0.750,-0.590
6.939,0.680,-0.415
6.942,0.560,-0.265
6.944,0.425,-0.190
6.947,0.235,-0.185
6.950,0.040,-0.220
6.953,-0.095,-0.245
6.956,-0.150,-0.235
6.958,-0.165,-0.210
6.961,-0.170,-0.195
6.964,-0.170,-0.205
6.967,-0.180,-0.200
6.969,-0.175,-0.210
6.972,-0.195,-0.185
6.975,-0.200,-0.175
6.978,-0.205,-0.170
6.981,-0.230,-0.195
6.983,-0.250,-0.205
6.986,-0.270,-0.235
6.989,-0.270,-0.215
6.992,-0.265,-0.210
6.994,-0.265,-0.205
6.997,-0.285,-0.205
7.000,-0.300,-0.220
7.003,-0.305,-0.210
7.006,-0.305,-0.200
7.008,-0.295,-0.195
7.011,-0.280,-0.190
7.014,-0.290,-0.180
7.017,-0.290,-0.185
7.019,-0.295,-0.200
7.022,-0.295,-0.205
7.025,-0.295,-0.205
7.028,-0.285,-0.190
7.031,-0.275,-0.195
7.033,-0.270,-0.200
7.036,-0.285,-0.205
7.039,-0.290,-0.195
7.042,-0.285,-0.185
7.044,-0.275,-0.175
7.047,-0.285,-0.175
7.050,-0.280,-0.170
7.053,-0.280,-0.175
7.056,-0.280,-0.175
7.058,-0.275,-0.165
7.061,-0.270,-0.145
7.064,-0.275,-0.145
7.067,-0.285,-0.140
7.069,-0.295,-0.155
7.072,-0.290,-0.155
7.075,-0.280,-0.135
7.078,-0.275,-0.140
7.081,-0.275,-0.165
7.083,-0.280,-0.180
7.086,-0.285,-0.185
7.089,-0.280,-0.205
7.092,-0.275,-0.200
7.094,-0.265,-0.210
7.097,-0.255,-0.235
7.100,-0.265,-0.250
7.103,-0.255,-0.255
7.106,-0.235,-0.265
7.108,-0.210,-0.245
7.111,-0.195,-0.245
7.114,-0.190,-0.265
7.117,-0.180,-0.285
7.119,-0.185,-0.300
7.122,-0.185,-0.290
7.125,-0.165,-0.270
7.128,-0.155,-0.275
7.131,-0.160,-0.270
7.133,-0.170,-0.285
7.136,-0.175,-0.295
7.139,-0.165,-0.285
7.142,-0.155,-0.275
7.144,-0.145,-0.265
7.147,-0.145,-0.255
7.150,-0.140,-0.260
7.153,-0.140,-0.250
7.156,-0.140,-0.225
7.158,-0.135,-0.235
7.161,-0.125,-0.230
7.164,-0.130,-0.230
7.167,-0.140,-0.235
7.169,-0.165,-0.235
7.172,-0.175,-0.225
7.175,-0.175,-0.215
7.178,-0.180,-0.210
7.181,-0.200,-0.210
7.183,-0.215,-0.210
7.186,-0.230,-0.215
7.189,-0.240,-0.185
7.192,-0.235,-0.175
7.194,-0.235,-0.165
7.197,-0.250,-0.160
7.200,-0.270,-0.160
7.203,-0.270,-0.155
7.206,-0.265,-0.145
7.208,-0.270,-0.145
7.211,-0.275,-0.145
7.214,-0.290,-0.155
7.217,-0.295,-0.155
7.219,-0.290,-0.165
7.222,-0.295,-0.160
7.225,-0.285,-0.135
7.228,-0.275,-0.135
7.231,-0.285,-0.130
7.233,-0.285,-0.135
7.236,-0.295,-0.145
7.239,-0.290,-0.145
7.242,-0.280,-0.135
7.244,-0.280,-0.145
7.247,-0.285,-0.150
7.250,-0.290,-0.150
7.253,-0.290,-0.170
7.256,-0.295,-0.160
7.258,-0.295,-0.160
7.261,-0.290,-0.175
7.264,-0.285,-0.180
7.267,-0.275,-0.195
7.269,-0.275,-0.185
7.272,-0.260,-0.195
7.275,-0.250,-0.195
7.278,-0.235,-0.210
7.281,-0.235,-0.215
7.283,-0.240,-0.215
7.286,-0.240,-0.230
7.289,-0.255,-0.225
7.292,-0.245,-0.215
7.294,-0.245,-0.210
7.297,-0.250,-0.210
7.300,-0.250,-0.215
7.303,-0.245,-0.225
7.306,-0.245,-0.210
7.308,-0.240,-0.200
7.311,-0.235,-0.200
7.314,-0.250,-0.205
7.317,-0.245,-0.205
7.319,-0.255,-0.215
7.322,-0.255,-0.215
7.325,-0.255,-0.215
7.328,-0.250,-0.205
7.331,-0.260,-0.210
7.333,-0.265,-0.230
7.336,-0.270,-0.230
7.339,-0.270,-0.220
7.342,-0.270,-0.210
7.344,-0.270,-0.195
7.347,-0.270,-0.185
7.350,-0.270,-0.205
7.353,-0.270,-0.195
7.356,-0.290,-0.175
7.358,-0.290,-0.165
7.361,-0.270,-0.165
7.364,-0.270,-0.155
7.367,-0.290,-0.165
7.369,-0.285,-0.160
7.372,-0.285,-0.150
7.375,-0.285,-0.145
7.378,-0.280,-0.150
7.381,-0.285,-0.165
7.383,-0.285,-0.165
7.386,-0.295,-0.170
7.389,-0.290,-0.160
7.392,-0.290,-0.135
7.394,-0.285,-0.140
7.397,-0.295,-0.130
7.400,-0.295,-0.140
7.403,-0.305,-0.145
7.406,-0.300,-0.145
7.408,-0.305,-0.130
7.411,-0.295,-0.135
7.414,-0.295,-0.150
7.417,-0.300,-0.160
7.419,-0.315,-0.170
7.422,-0.315,-0.170
7.425,-0.320,-0.165
7.428,-0.310,-0.175
7.431,-0.300,-0.170
7.433,-0.310,-0.160
7.436,-0.305,-0.165
7.439,-0.290,-0.160
7.442,-0.275,-0.170
7.444,-0.265,-0.170
7.447,-0.270,-0.190
7.450,-0.275,-0.200
7.453,-0.280,-0.200
7.456,-0.285,-0.215
7.458,-0.280,-0.205
7.461,-0.275,-0.225
7.464,-0.285,-0.235
7.467,-0.285,-0.245
7.469,-0.290,-0.260
7.472,-0.290,-0.240
7.475,-0.290,-0.225
7.478,-0.280,-0.225
7.481,-0.280,-0.225
7.483,-0.290,-0.230
7.486,-0.305,-0.235
7.489,-0.310,-0.240
7.492,-0.295,-0.235
7.494,-0.280,-0.240
7.497,-0.285,-0.240
7.500,-0.295,-0.245
7.503,-0.300,-0.240
7.506,-0.300,-0.220
7.508,-0.305,-0.200
7.511,-0.290,-0.170
7.514,-0.295,-0.155
7.517,-0.270,-0.145
7.519,-0.265,-0.165
7.522,-0.235,-0.190
7.525,-0.200,-0.260
7.528,-0.180,-0.355
7.531,-0.165,-0.430
7.533,-0.135,-0.520
7.536,-0.070,-0.580
7.539,0.020,-0.665
7.542,0.130,-0.765
7.544,0.235,-0.885
7.547,0.350,-0.980
7.550,0.485,-0.990
7.553,0.585,-0.930
7.556,0.680,-0.830
7.558,0.760,-0.715
7.561,0.815,-0.540
7.564,0.760,-0.365
7.567,0.605,-0.255
7.569,0.400,-0.165
7.572,0.160,-0.120
7.575,-0.040,-0.130
7.578,-0.165,-0.175
7.581,-0.235,-0.185
7.583,-0.285,-0.195
7.586,-0.295,-0.190
7.589,-0.285,-0.180
7.592,-0.250,-0.160
7.594,-0.235,-0.160
7.597,-0.240,-0.150
7.600,-0.265,-0.170
7.603,-0.295,-0.180
7.606,-0.300,-0.170
7.608,-0.295,-0.175
7.611,-0.270,-0.180
7.614,-0.265,-0.190
7.617,-0.265,-0.205
7.619,-0.275,-0.220
7.622,-0.280,-0.205
7.625,-0.270,-0.205
7.628,-0.270,-0.215
7.631,-0.275,-0.225
7.633,-0.280,-0.235
7.636,-0.300,-0.245
7.639,-0.300,-0.245
7.642,-0.310,-0.245
7.644,-0.300,-0.250
7.647,-0.310,-0.260
7.650,-0.320,-0.275
7.653,-0.340,-0.280
7.656,-0.340,-0.275
7.658,-0.325,-0.255
7.661,-0.315,-0.255
7.664,-0.320,-0.265
7.667,-0.320,-0.275
7.669,-0.315,-0.275
7.672,-0.310,-0.275
7.675,-0.295,-0.255
7.678,-0.285,-0.245
7.681,-0.290,-0.255
7.683,-0.295,-0.265
7.686,-0.300,-0.255
7.689,-0.295,-0.260
7.692,-0.290,-0.240
7.694,-0.280,-0.240
7.697,-0.290,-0.245
7.700,-0.290,-0.250
7.703,-0.300,-0.265
7.706,-0.280,-0.255
7.708,-0.275,-0.240
7.711,-0.265,-0.240
7.714,-0.265,-0.240
7.717,-0.265,-0.255
7.719,-0.265,-0.265
7.722,-0.260,-0.245
7.725,-0.250,-0.240
7.728,-0.240,-0.225
7.731,-0.255,-0.245
7.733,-0.255,-0.250
7.736,-0.245,-0.265
7.739,-0.240,-0.265
7.742,-0.230,-0.245
7.744,-0.220,-0.260
7.747,-0.215,-0.255
7.750,-0.215,-0.255
7.753,-0.205,-0.260
7.756,-0.200,-0.245
7.758,-0.195,-0.245
7.761,-0.180,-0.250
7.764,-0.165,-0.250
7.767,-0.150,-0.245
7.769,-0.145,-0.265
7.772,-0.130,-0.270
7.775,-0.110,-0.250
7.778,-0.105,-0.250
7.781,-0.100,-0.260
7.783,-0.110,-0.280
7.786,-0.125,-0.280
7.789,-0.140,-0.270
7.792,-0.125,-0.260
7.794,-0.130,-0.265
7.797,-0.130,-0.265
7.800,-0.145,-0.260
7.803,-0.160,-0.265
7.806,-0.175,-0.250
7.808,-0.175,-0.245
7.811,-0.170,-0.245
7.814,-0.190,-0.245
7.817,-0.220,-0.250
7.819,-0.240,-0.250
7.822,-0.245,-0.245
7.825,-0.245,-0.235
7.828,-0.250,-0.230
7.831,-0.255,-0.225
7.833,-0.270,-0.230
7.836,-0.295,-0.255
7.839,-0.295,-0.245
7.842,-0.285,-0.235
7.844,-0.270,-0.220
7.847,-0.275,-0.220
7.850,-0.280,-0.225
7.853,-0.290,-0.235
7.856,-0.300,-0.230
7.858,-0.280,-0.210
7.861,-0.280,-0.205
7.864,-0.280,-0.210
7.867,-0.290,-0.210
7.869,-0.305,-0.220
7.872,-0.305,-0.220
7.875,-0.300,-0.190
7.878,-0.290,-0.195
7.881,-0.295,-0.195
7.883,-0.300,-0.210
7.886,-0.305,-0.225
7.889,-0.310,-0.200
7.892,-0.310,-0.195
7.894,-0.300,-0.190
7.897,-0.305,-0.195
7.900,-0.310,-0.200
7.903,-0.330,-0.205
7.906,-0.335,-0.195
7.908,-0.325,-0.190
7.911,-0.315,-0.195
7.914,-0.315,-0.200
7.917,-0.310,-0.225
7.919,-0.315,-0.240
7.922,-0.315,-0.240
7.925,-0.320,-0.225
7.928,-0.310,-0.220
7.931,-0.320,-0.220
7.933,-0.330,-0.230
7.936,-0.345,-0.230
7.939,-0.345,-0.200
7.942,-0.345,-0.175
7.944,-0.315,-0.160
7.947,-0.315,-0.165
7.950,-0.305,-0.160
7.953,-0.300,-0.190
7.956,-0.285,-0.170
7.958,-0.260,-0.180
7.961,-0.245,-0.175
7.964,-0.250,-0.180
7.967,-0.255,-0.195
7.969,-0.270,-0.200
7.972,-0.270,-0.210
7.975,-0.270,-0.205
7.978,-0.265,-0.195
7.981,-0.270,-0.195
7.983,-0.280,-0.205
7.986,-0.275,-0.210
7.989,-0.270,-0.195
7.992,-0.260,-0.185
7.994,-0.255,-0.180
7.997,-0.265,-0.170
8.000,-0.270,-0.190
8.003,-0.285,-0.205
8.006,-0.285,-0.205
8.008,-0.270,-0.195
8.011,-0.255,-0.200
8.014,-0.255,-0.200
8.017,-0.270,-0.200
8.019,-0.275,-0.215
8.022,-0.275,-0.210
8.025,-0.265,-0.190
8.028,-0.255,-0.200
8.031,-0.260,-0.205
8.033,-0.265,-0.230
8.036,-0.275,-0.235
8.039,-0.275,-0.220
8.042,-0.280,-0.205
8.044,-0.265,-0.200
8.047,-0.270,-0.210
8.050,-0.270,-0.220
8.053,-0.290,-0.225
8.056,-0.290,-0.210
8.058,-0.285,-0.200
8.061,-0.280,-0.210
8.064,-0.285,-0.230
8.067,-0.300,-0.220
8.069,-0.305,-0.235
8.072,-0.315,-0.230
8.075,-0.305,-0.220
8.078,-0.290,-0.215
8.081,-0.290,-0.210
8.083,-0.305,-0.215
8.086,-0.315,-0.220
8.089,-0.305,-0.210
8.092,-0.285,-0.190
8.094,-0.275,-0.185
8.097,-0.280,-0.185
8.100,-0.300,-0.210
8.103,-0.310,-0.215
8.106,-0.305,-0.210
8.108,-0.300,-0.195
8.111,-0.285,-0.195
8.114,-0.295,-0.195
8.117,-0.300,-0.210
8.119,-0.305,-0.215
8.122,-0.310,-0.225
8.125,-0.310,-0.225
8.128,-0.290,-0.210
8.131,-0.280,-0.220
8.133,-0.295,-0.225
8.136,-0.285,-0.225
8.139,-0.275,-0.215
8.142,-0.255,-0.215
8.144,-0.225,-0.210
8.147,-0.230,-0.220
8.150,-0.235,-0.240
8.153,-0.245,-0.250
8.156,-0.245,-0.230
8.158,-0.240,-0.210
8.161,-0.220,-0.180
8.164,-0.220,-0.160
8.167,-0.215,-0.175
8.169,-0.215,-0.180
8.172,-0.205,-0.220
8.175,-0.170,-0.300
8.178,-0.135,-0.395
8.181,-0.105,-0.490
8.183,-0.065,-0.580
8.186,0.030,-0.660
8.189,0.130,-0.740
8.192,0.255,-0.825
8.194,0.385,-0.905
8.197,0.520,-0.940
8.200,0.640,-0.925
8.203,0.740,-0.865
8.206,0.825,-0.780
8.208,0.915,-0.700
8.211,0.990,-0.590
8.214,0.965,-0.445
8.217,0.850,-0.340
8.219,0.655,-0.240
8.222,0.425,-0.150
8.225,0.190,-0.115
8.228,-0.005,-0.120
8.231,-0.145,-0.170
8.233,-0.235,-0.230
8.236,-0.305,-0.255
8.239,-0.335,-0.240
8.242,-0.325,-0.220
8.244,-0.280,-0.210
8.247,-0.260,-0.200
8.250,-0.245,-0.205
8.253,-0.250,-0.215
8.256,-0.265,-0.225
8.258,-0.260,-0.205
8.261,-0.250,-0.215
8.264,-0.265,-0.210
8.267,-0.275,-0.205
8.269,-0.285,-0.210
8.272,-0.305,-0.200
8.275,-0.295,-0.185
8.278,-0.295,-0.185
8.281,-0.310,-0.195
8.283,-0.305,-0.195
8.286,-0.310,-0.195
8.289,-0.325,-0.190
8.292,-0.325,-0.175
8.294,-0.315,-0.175
8.297,-0.320,-0.165
8.300,-0.320,-0.170
8.303,-0.320,-0.170
8.306,-0.320,-0.155
8.308,-0.320,-0.155
8.311,-0.310,-0.160
8.314,-0.315,-0.160
8.317,-0.310,-0.180
8.319,-0.300,-0.195
8.322,-0.305,-0.200
8.325,-0.290,-0.195
8.328,-0.265,-0.215
8.331,-0.280,-0.215
8.333,-0.285,-0.235
8.336,-0.295,-0.250
8.339,-0.295,-0.250
8.342,-0.275,-0.255
8.344,-0.270,-0.265
8.347,-0.270,-0.280
8.350,-0.265,-0.280
8.353,-0.270,-0.285
8.356,-0.265,-0.280
8.358,-0.260,-0.260
8.361,-0.260,-0.275
8.364,-0.255,-0.280
8.367,-0.265,-0.300
8.369,-0.260,-0.320
8.372,-0.255,-0.310
8.375,-0.250,-0.290
8.378,-0.255,-0.300
8.381,-0.235,-0.305
8.383,-0.240,-0.315
8.386,-0.245,-0.320
8.389,-0.240,-0.325
8.392,-0.235,-0.320
8.394,-0.215,-0.325
8.397,-0.215,-0.330
8.400,-0.215,-0.335
8.403,-0.220,-0.335
8.406,-0.210,-0.330
8.408,-0.195,-0.330
8.411,-0.175,-0.325
8.414,-0.175,-0.320
8.417,-0.175,-0.320
8.419,-0.175,-0.315
8.422,-0.180,-0.325
8.425,-0.165,-0.310
8.428,-0.155,-0.300
8.431,-0.155,-0.300
8.433,-0.150,-0.315
8.436,-0.155,-0.315
8.439,-0.155,-0.310
8.442,-0.155,-0.290
8.444,-0.150,-0.300
8.447,-0.145,-0.300
8.450,-0.145,-0.295
8.453,-0.155,-0.300
8.456,-0.155,-0.290
8.458,-0.155,-0.270
8.461,-0.155,-0.270
8.464,-0.160,-0.280
8.467,-0.170,-0.280
8.469,-0.185,-0.280
8.472,-0.195,-0.250
8.475,-0.200,-0.230
8.478,-0.215,-0.225
8.481,-0.225,-0.225
8.483,-0.230,-0.215
8.486,-0.255,-0.205
8.489,-0.265,-0.190
8.492,-0.270,-0.180
8.494,-0.260,-0.165
8.497,-0.270,-0.155
8.500,-0.275,-0.160
8.503,-0.275,-0.175
8.506,-0.275,-0.160
8.508,-0.255,-0.170
8.511,-0.245,-0.175
8.514,-0.245,-0.180
8.517,-0.245,-0.195
8.519,-0.255,-0.210
8.522,-0.240,-0.210
8.525,-0.235,-0.200
8.528,-0.225,-0.215
8.531,-0.230,-0.230
8.533,-0.245,-0.240
8.536,-0.255,-0.255
8.539,-0.250,-0.250
8.542,-0.250,-0.260
8.544,-0.245,-0.265
8.547,-0.250,-0.270
8.550,-0.250,-0.270
8.553,-0.255,-0.270
8.556,-0.255,-0.240
8.558,-0.255,-0.250
8.561,-0.240,-0.240
8.564,-0.225,-0.245
8.567,-0.235,-0.240
8.569,-0.240,-0.240
8.572,-0.235,-0.235
8.575,-0.220,-0.220
8.578,-0.220,-0.225
8.581,-0.230,-0.220
8.583,-0.240,-0.230
8.586,-0.250,-0.230
8.589,-0.240,-0.225
8.592,-0.230,-0.215
8.594,-0.225,-0.225
8.597,-0.225,-0.220
8.600,-0.240,-0.230
8.603,-0.245,-0.225
8.606,-0.255,-0.220
8.608,-0.240,-0.210
8.611,-0.245,-0.205
8.614,-0.240,-0.200
8.617,-0.250,-0.210
8.619,-0.255,-0.215
8.622,-0.255,-0.205
8.625,-0.240,-0.210
8.628,-0.230,-0.205
8.631,-0.235,-0.200
8.633,-0.245,-0.205
8.636,-0.260,-0.215
8.639,-0.260,-0.215
8.642,-0.250,-0.190
8.644,-0.245,-0.190
8.647,-0.250,-0.205
8.650,-0.265,-0.210
8.653,-0.270,-0.220
8.656,-0.275,-0.205
8.658,-0.275,-0.220
8.661,-0.290,-0.210
8.664,-0.275,-0.210
8.667,-0.300,-0.225
8.669,-0.320,-0.235
8.672,-0.325,-0.225
8.675,-0.320,-0.215
8.678,-0.305,-0.210
8.681,-0.315,-0.200
8.683,-0.335,-0.215
8.686,-0.345,-0.205
8.689,-0.345,-0.190
8.692,-0.320,-0.190
8.694,-0.290,-0.190
8.697,-0.285,-0.190
8.700,-0.285,-0.210
8.703,-0.275,-0.215
8.706,-0.270,-0.230
8.708,-0.250,-0.220
8.711,-0.240,-0.230
8.714,-0.210,-0.245
8.717,-0.200,-0.245
8.719,-0.205,-0.235
8.722,-0.200,-0.225
8.725,-0.190,-0.205
8.728,-0.180,-0.200
8.731,-0.195,-0.220
8.733,-0.210,-0.220
8.736,-0.210,-0.230
8.739,-0.220,-0.220
8.742,-0.220,-0.220
8.744,-0.200,-0.215
8.747,-0.205,-0.225
8.750,-0.230,-0.230
8.753,-0.250,-0.245
8.756,-0.250,-0.220
8.758,-0.240,-0.210
8.761,-0.235,-0.210
8.764,-0.235,-0.205
8.767,-0.245,-0.215
8.769,-0.270,-0.240
8.772,-0.275,-0.230
8.775,-0.270,-0.220
8.778,-0.265,-0.215
8.781,-0.260,-0.230
8.783,-0.270,-0.235
8.786,-0.275,-0.235
8.789,-0.275,-0.220
8.792,-0.265,-0.225
8.794,-0.245,-0.230
8.797,-0.255,-0.215
8.800,-0.265,-0.230
8.803,-0.280,-0.245
8.806,-0.275,-0.230
8.808,-0.270,-0.230
8.811,-0.260,-0.220
8.814,-0.260,-0.235
8.817,-0.265,-0.235
8.819,-0.285,-0.250
8.822,-0.285,-0.245
8.825,-0.275,-0.235
8.828,-0.260,-0.230
8.831,-0.260,-0.215
8.833,-0.265,-0.220
8.836,-0.270,-0.205
8.839,-0.260,-0.210
8.842,-0.230,-0.240
8.844,-0.195,-0.325
8.847,-0.175,-0.410
8.850,-0.155,-0.485
8.853,-0.120,-0.545
8.856,-0.040,-0.620
8.858,0.065,-0.675
8.861,0.160,-0.785
8.864,0.255,-0.915
8.867,0.345,-1.025
8.869,0.450,-1.070
8.872,0.545,-1.050
8.875,0.610,-1.005
8.878,0.675,-0.930
8.881,0.730,-0.830
8.883,0.745,-0.710
8.886,0.680,-0.555
8.889,0.585,-0.405
8.892,0.460,-0.305
8.894,0.320,-0.250
8.897,0.155,-0.230
8.900,0.015,-0.255
8.903,-0.055,-0.285
8.906,-0.105,-0.275
8.908,-0.135,-0.265
8.911,-0.130,-0.255
8.914,-0.135,-0.235
8.917,-0.140,-0.245
8.919,-0.155,-0.245
8.922,-0.175,-0.235
8.925,-0.185,-0.230
8.928,-0.185,-0.225
8.931,-0.200,-0.235
8.933,-0.215,-0.260
8.936,-0.235,-0.255
8.939,-0.245,-0.240
8.942,-0.245,-0.235
8.944,-0.240,-0.230
8.947,-0.250,-0.230
8.950,-0.250,-0.245
8.953,-0.280,-0.245
8.956,-0.285,-0.250
8.958,-0.275,-0.240
8.961,-0.275,-0.230
8.964,-0.275,-0.230
8.967,-0.275,-0.240
8.969,-0.285,-0.245
8.972,-0.290,-0.240
8.975,-0.280,-0.235
8.978,-0.275,-0.235
8.981,-0.285,-0.260
8.983,-0.285,-0.265
8.986,-0.295,-0.275
8.989,-0.290,-0.270
8.992,-0.280,-0.255
8.994,-0.285,-0.250
8.997,-0.290,-0.260
9.000,-0.295,-0.265
9.003,-0.295,-0.270
9.006,-0.310,-0.260
9.008,-0.300,-0.255
9.011,-0.280,-0.245
9.014,-0.285,-0.245
9.017,-0.285,-0.255
9.019,-0.290,-0.255
9.022,-0.290,-0.260
9.025,-0.290,-0.250
9.028,-0.275,-0.265
9.031,-0.285,-0.260
9.033,-0.265,-0.270
9.036,-0.275,-0.265
9.039,-0.270,-0.260
9.042,-0.255,-0.245
9.044,-0.240,-0.255
9.047,-0.245,-0.250
9.050,-0.230,-0.245
9.053,-0.235,-0.230
9.056,-0.235,-0.235
9.058,-0.215,-0.225
9.061,-0.205,-0.220
9.064,-0.205,-0.225
9.067,-0.220,-0.235
9.069,-0.245,-0.245
9.072,-0.230,-0.230
9.075,-0.210,-0.215
9.078,-0.205,-0.225
9.081,-0.205,-0.230
9.083,-0.215,-0.240
9.086,-0.210,-0.250
9.089,-0.195,-0.240
9.092,-0.180,-0.245
9.094,-0.165,-0.270
9.097,-0.155,-0.275
9.100,-0.155,-0.305
9.103,-0.140,-0.300
9.106,-0.125,-0.295
9.108,-0.105,-0.285
9.111,-0.105,-0.290
9.114,-0.100,-0.295
9.117,-0.115,-0.315
9.119,-0.135,-0.305
9.122,-0.125,-0.290
9.125,-0.110,-0.290
9.128,-0.100,-0.285
9.131,-0.110,-0.275
9.133,-0.115,-0.295
9.136,-0.125,-0.285
9.139,-0.130,-0.275
9.142,-0.125,-0.265
9.144,-0.115,-0.270
9.147,-0.130,-0.265
9.150,-0.145,-0.290
9.153,-0.160,-0.285
9.156,-0.165,-0.275
9.158,-0.170,-0.265
9.161,-0.165,-0.250
9.164,-0.170,-0.255
9.167,-0.195,-0.260
9.169,-0.215,-0.265
9.172,-0.215,-0.250
9.175,-0.215,-0.235
9.178,-0.220,-0.240
9.181,-0.215,-0.235
9.183,-0.230,-0.250
9.186,-0.240,-0.255
9.189,-0.255,-0.245
9.192,-0.245,-0.230
9.194,-0.245,-0.225
9.197,-0.240,-0.225
9.200,-0.250,-0.240
9.203,-0.265,-0.240
9.206,-0.260,-0.230
9.208,-0.235,-0.210
9.211,-0.225,-0.210
9.214,-0.225,-0.200
9.217,-0.235,-0.230
9.219,-0.260,-0.245
9.222,-0.265,-0.230
9.225,-0.250,-0.210
9.228,-0.240,-0.210
9.231,-0.260,-0.210
9.233,-0.260,-0.230
9.236,-0.270,-0.215
9.239,-0.270,-0.230
9.242,-0.265,-0.205
9.244,-0.250,-0.215
9.247,-0.250,-0.230
9.250,-0.255,-0.250
9.253,-0.270,-0.255
9.256,-0.285,-0.260
9.258,-0.275,-0.240
9.261,-0.265,-0.240
9.264,-0.280,-0.240
9.267,-0.280,-0.255
9.269,-0.285,-0.255
9.272,-0.285,-0.250
9.275,-0.280,-0.235
9.278,-0.270,-0.235
9.281,-0.270,-0.240
9.283,-0.260,-0.245
9.286,-0.255,-0.240
9.289,-0.250,-0.230
9.292,-0.235,-0.220
9.294,-0.220,-0.215
9.297,-0.215,-0.215
9.300,-0.225,-0.220
9.303,-0.240,-0.215
9.306,-0.235,-0.210
9.308,-0.230,-0.215
9.311,-0.220,-0.210
9.314,-0.220,-0.215
9.317,-0.225,-0.230
9.319,-0.240,-0.230
9.322,-0.235,-0.235
9.325,-0.235,-0.235
9.328,-0.220,-0.235
9.331,-0.235,-0.245
9.333,-0.245,-0.250
9.336,-0.245,-0.250
9.339,-0.255,-0.220
9.342,-0.245,-0.215
9.344,-0.230,-0.200
9.347,-0.245,-0.205
9.350,-0.245,-0.210
9.353,-0.255,-0.220
9.356,-0.240,-0.205
9.358,-0.235,-0.200
9.361,-0.230,-0.205
9.364,-0.235,-0.205
9.367,-0.250,-0.210
9.369,-0.255,-0.215
9.372,-0.255,-0.215
9.375,-0.250,-0.210
9.378,-0.245,-0.215
9.381,-0.240,-0.225
9.383,-0.260,-0.245
9.386,-0.265,-0.250
9.389,-0.280,-0.250
9.392,-0.270,-0.240
9.394,-0.270,-0.235
9.397,-0.275,-0.245
9.400,-0.280,-0.255
9.403,-0.280,-0.255
9.406,-0.280,-0.255
9.408,-0.280,-0.245
9.411,-0.270,-0.240
9.414,-0.280,-0.250
9.417,-0.285,-0.275
9.419,-0.290,-0.275
9.422,-0.285,-0.270
9.425,-0.285,-0.265
9.428,-0.280,-0.250
9.431,-0.280,-0.275
9.433,-0.285,-0.280
9.436,-0.295,-0.290
9.439,-0.295,-0.295
9.442,-0.280,-0.275
9.444,-0.270,-0.290
9.447,-0.270,-0.285
9.450,-0.280,-0.290
9.453,-0.285,-0.300
9.456,-0.270,-0.280
9.458,-0.270,-0.260
9.461,-0.260,-0.250
9.464,-0.265,-0.240
9.467,-0.265,-0.250
9.469,-0.265,-0.245
9.472,-0.270,-0.240
9.475,-0.265,-0.240
9.478,-0.255,-0.240
9.481,-0.255,-0.240
9.483,-0.265,-0.250
9.486,-0.275,-0.250
9.489,-0.265,-0.245
9.492,-0.270,-0.230
9.494,-0.260,-0.225
9.497,-0.260,-0.225
9.500,-0.270,-0.230
9.503,-0.275,-0.230
9.506,-0.265,-0.220
9.508,-0.250,-0.205
9.511,-0.225,-0.200
9.514,-0.235,-0.195
9.517,-0.245,-0.205
9.519,-0.270,-0.210
9.522,-0.260,-0.200
9.525,-0.260,-0.205
9.528,-0.245,-0.200
9.531,-0.250,-0.205
9.533,-0.255,-0.215
9.536,-0.280,-0.225
9.539,-0.275,-0.215
9.542,-0.275,-0.210
9.544,-0.265,-0.210
9.547,-0.280,-0.210
9.550,-0.285,-0.225
9.553,-0.290,-0.215
9.556,-0.285,-0.215
9.558,-0.275,-0.195
9.561,-0.270,-0.200
9.564,-0.265,-0.220
9.567,-0.290,-0.230
9.569,-0.295,-0.245
9.572,-0.300,-0.240
9.575,-0.290,-0.225
9.578,-0.270,-0.230
9.581,-0.275,-0.230
9.583,-0.290,-0.235
9.586,-0.295,-0.250
9.589,-0.290,-0.235
9.592,-0.270,-0.195
9.594,-0.255,-0.195
9.597,-0.250,-0.220
9.600,-0.230,-0.295
9.603,-0.220,-0.375
9.606,-0.200,-0.465
9.608,-0.160,-0.520
9.611,-0.130,-0.590
9.614,-0.060,-0.670
9.617,0.025,-0.750
9.619,0.105,-0.850
9.622,0.195,-0.950
9.625,0.295,-1.035
9.628,0.420,-1.090
9.631,0.550,-1.095
9.633,0.635,-1.065
9.636,0.675,-1.020
9.639,0.745,-0.935
9.642,0.795,-0.810
9.644,0.785,-0.640
9.647,0.695,-0.490
9.650,0.560,-0.380
9.653,0.390,-0.330
9.656,0.190,-0.300
9.658,0.040,-0.300
9.661,-0.055,-0.305
9.664,-0.100,-0.305
9.667,-0.135,-0.310
9.669,-0.180,-0.300
9.672,-0.195,-0.270
9.675,-0.185,-0.250
9.678,-0.165,-0.250
9.681,-0.165,-0.245
9.683,-0.185,-0.265
9.686,-0.210,-0.255
9.689,-0.220,-0.240
9.692,-0.220,-0.215
9.694,-0.225,-0.220
9.697,-0.235,-0.225
9.700,-0.235,-0.225
9.703,-0.255,-0.245
9.706,-0.265,-0.225
9.708,-0.260,-0.220
9.711,-0.260,-0.210
9.714,-0.260,-0.210
9.717,-0.270,-0.220
9.719,-0.290,-0.215
9.722,-0.285,-0.220
9.725,-0.285,-0.210
9.728,-0.280,-0.215
9.731,-0.295,-0.215
9.733,-0.295,-0.220
9.736,-0.315,-0.235
9.739,-0.310,-0.210
9.742,-0.305,-0.220
9.744,-0.300,-0.230
9.747,-0.295,-0.230
9.750,-0.305,-0.240
9.753,-0.315,-0.245
9.756,-0.310,-0.230
9.758,-0.310,-0.240
9.761,-0.300,-0.230
9.764,-0.300,-0.245
9.767,-0.290,-0.250
9.769,-0.310,-0.270
9.772,-0.310,-0.270
9.775,-0.300,-0.270
9.778,-0.290,-0.280
9.781,-0.280,-0.285
9.783,-0.285,-0.285
9.786,-0.295,-0.295
9.789,-0.275,-0.290
9.792,-0.265,-0.290
9.794,-0.250,-0.295
9.797,-0.245,-0.305
9.800,-0.250,-0.320
9.803,-0.245,-0.330
9.806,-0.245,-0.315
9.808,-0.240,-0.315
9.811,-0.225,-0.315
9.814,-0.215,-0.310
9.817,-0.200,-0.310
9.819,-0.200,-0.300
9.822,-0.170,-0.285
9.825,-0.170,-0.270
9.828,-0.160,-0.270
9.831,-0.160,-0.270
9.833,-0.155,-0.275
9.836,-0.160,-0.290
9.839,-0.150,-0.290
9.842,-0.140,-0.285
9.844,-0.135,-0.295
9.847,-0.130,-0.290
9.850,-0.145,-0.300
9.853,-0.140,-0.295
9.856,-0.135,-0.285
9.858,-0.125,-0.270
9.861,-0.120,-0.280
9.864,-0.125,-0.285
9.867,-0.130,-0.285
9.869,-0.140,-0.285
9.872,-0.120,-0.270
9.875,-0.120,-0.260
9.878,-0.115,-0.265
9.881,-0.110,-0.275
9.883,-0.125,-0.285
9.886,-0.130,-0.285
9.889,-0.125,-0.270
9.892,-0.120,-0.260
9.894,-0.115,-0.260
9.897,-0.110,-0.265
9.900,-0.130,-0.265
9.903,-0.150,-0.270
9.906,-0.145,-0.265
9.908,-0.145,-0.250
9.911,-0.140,-0.240
9.914,-0.150,-0.245
9.917,-0.165,-0.260
9.919,-0.190,-0.255
9.922,-0.195,-0.250
9.925,-0.200,-0.250
9.928,-0.195,-0.240
9.931,-0.200,-0.235
9.933,-0.215,-0.240
9.936,-0.220,-0.245
9.939,-0.225,-0.235
9.942,-0.215,-0.235
9.944,-0.220,-0.230
9.947,-0.220,-0.245
9.950,-0.225,-0.265
9.953,-0.230,-0.270
9.956,-0.235,-0.270
9.958,-0.230,-0.255
9.961,-0.225,-0.250
9.964,-0.220,-0.260
9.967,-0.230,-0.255
9.969,-0.245,-0.270
9.972,-0.240,-0.265
9.975,-0.230,-0.265
9.978,-0.225,-0.265
9.981,-0.225,-0.275
9.983,-0.240,-0.285
9.986,-0.250,-0.270
9.989,-0.250,-0.270
9.992,-0.250,-0.260
9.994,-0.245,-0.265
9.997,-0.245,-0.260
10.000,-0.260,-0.265
10.003,-0.270,-0.260
10.006,-0.260,-0.245
10.008,-0.255,-0.230
10.011,-0.245,-0.240
10.014,-0.250,-0.235
10.017,-0.255,-0.235
10.019,-0.270,-0.230
10.022,-0.260,-0.220
10.025,-0.250,-0.205
10.028,-0.245,-0.220
10.031,-0.245,-0.220
10.033,-0.255,-0.220
10.036,-0.265,-0.220
10.039,-0.255,-0.205
10.042,-0.260,-0.190
10.044,-0.250,-0.190
10.047,-0.260,-0.190
10.050,-0.250,-0.190
10.053,-0.265,-0.180
10.056,-0.260,-0.180
10.058,-0.265,-0.190
10.061,-0.260,-0.200
10.064,-0.260,-0.200
10.067,-0.265,-0.215
10.069,-0.285,-0.225
10.072,-0.275,-0.210
10.075,-0.265,-0.210
10.078,-0.260,-0.215
10.081,-0.255,-0.215
10.083,-0.255,-0.230
10.086,-0.255,-0.235
10.089,-0.255,-0.215
10.092,-0.235,-0.205
10.094,-0.220,-0.200
10.097,-0.225,-0.215
10.100,-0.230,-0.225
10.103,-0.245,-0.220
10.106,-0.230,-0.220
10.108,-0.225,-0.210
10.111,-0.220,-0.215
10.114,-0.220,-0.225
10.117,-0.230,-0.245
10.119,-0.245,-0.250
10.122,-0.240,-0.250
10.125,-0.230,-0.240
10.128,-0.230,-0.245
10.131,-0.230,-0.255
10.133,-0.230,-0.265
10.136,-0.245,-0.270
10.139,-0.245,-0.255
10.142,-0.240,-0.245
10.144,-0.235,-0.250
10.147,-0.235,-0.260
10.150,-0.245,-0.265
10.153,-0.260,-0.260
10.156,-0.275,-0.265
10.158,-0.270,-0.255
10.161,-0.250,-0.250
10.164,-0.250,-0.250
10.167,-0.260,-0.265
10.169,-0.270,-0.245
10.172,-0.275,-0.240
10.175,-0.265,-0.235
10.178,-0.265,-0.225
10.181,-0.260,-0.225
10.183,-0.280,-0.240
10.186,-0.300,-0.235
10.189,-0.290,-0.230
10.192,-0.270,-0.210
10.194,-0.260,-0.210
10.197,-0.265,-0.205
10.200,-0.280,-0.220
10.203,-0.300,-0.235
10.206,-0.285,-0.220
10.208,-0.285,-0.220
10.211,-0.265,-0.215
10.214,-0.270,-0.210
10.217,-0.270,-0.215
10.219,-0.280,-0.215
10.222,-0.280,-0.215
10.225,-0.280,-0.205
10.228,-0.275,-0.205
10.231,-0.275,-0.215
10.233,-0.280,-0.230
10.236,-0.295,-0.220
10.239,-0.290,-0.205
10.242,-0.275,-0.195
10.244,-0.260,-0.185
10.247,-0.265,-0.175
10.250,-0.265,-0.180
10.253,-0.265,-0.185
10.256,-0.260,-0.180
10.258,-0.250,-0.180
10.261,-0.240,-0.185
10.264,-0.250,-0.190
10.267,-0.255,-0.220
10.269,-0.255,-0.220
10.272,-0.250,-0.210
10.275,-0.240,-0.210
10.278,-0.235,-0.205
10.281,-0.230,-0.205
10.283,-0.235,-0.225
10.286,-0.245,-0.230
10.289,-0.245,-0.235
10.292,-0.240,-0.220
10.294,-0.235,-0.225
10.297,-0.245,-0.230
10.300,-0.255,-0.250
10.303,-0.270,-0.255
10.306,-0.270,-0.260
10.308,-0.275,-0.245
10.311,-0.265,-0.250
10.314,-0.270,-0.255
10.317,-0.285,-0.270
10.319,-0.290,-0.270
10.322,-0.280,-0.260
10.325,-0.270,-0.235
10.328,-0.265,-0.235
10.331,-0.270,-0.235
10.333,-0.270,-0.245
10.336,-0.275,-0.250
10.339,-0.265,-0.230
10.342,-0.240,-0.230
10.344,-0.240,-0.235
10.347,-0.255,-0.230
10.350,-0.260,-0.250
10.353,-0.270,-0.245
10.356,-0.265,-0.245
10.358,-0.255,-0.235
10.361,-0.255,-0.235
10.364,-0.255,-0.245
10.367,-0.265,-0.250
10.369,-0.275,-0.260
10.372,-0.280,-0.255
10.375,-0.280,-0.250
10.378,-0.275,-0.245
10.381,-0.275,-0.245
10.383,-0.280,-0.265
10.386,-0.295,-0.250
10.389,-0.295,-0.245
10.392,-0.285,-0.240
10.394,-0.280,-0.240
10.397,-0.280,-0.230
10.400,-0.285,-0.230
10.403,-0.300,-0.220
10.406,-0.285,-0.210
10.408,-0.280,-0.195
10.411,-0.260,-0.200
10.414,-0.260,-0.190
10.417,-0.265,-0.200
10.419,-0.280,-0.185
10.422,-0.260,-0.180
10.425,-0.250,-0.170
10.428,-0.240,-0.185
10.431,-0.245,-0.210
10.433,-0.240,-0.225
10.436,-0.260,-0.235
10.439,-0.255,-0.220
10.442,-0.245,-0.210
10.444,-0.235,-0.205
10.447,-0.240,-0.225
10.450,-0.245,-0.230
10.453,-0.240,-0.245
10.456,-0.235,-0.230
10.458,-0.225,-0.245
10.461,-0.230,-0.240
10.464,-0.235,-0.245
10.467,-0.255,-0.265
10.469,-0.255,-0.265
10.472,-0.245,-0.275
10.475,-0.230,-0.270
10.478,-0.225,-0.275
10.481,-0.235,-0.290
10.483,-0.235,-0.300
10.486,-0.260,-0.300
10.489,-0.245,-0.280
10.492,-0.235,-0.265
10.494,-0.220,-0.270
10.497,-0.225,-0.270
10.500,-0.230,-0.265
10.503,-0.240,-0.240
10.506,-0.245,-0.215
10.508,-0.225,-0.215
10.511,-0.190,-0.195
10.514,-0.175,-0.260
10.517,-0.140,-0.345
10.519,-0.140,-0.450
10.522,-0.110,-0.535
10.525,-0.065,-0.600
10.528,0.025,-0.670
10.531,0.135,-0.750
10.533,0.235,-0.850
10.536,0.325,-0.940
10.539,0.445,-0.995
10.542,0.580,-0.980
10.544,0.685,-0.940
10.547,0.780,-0.855
10.550,0.855,-0.795
10.553,0.925,-0.695
10.556,0.925,-0.540
10.558,0.845,-0.395
10.561,0.690,-0.285
10.564,0.470,-0.195
10.567,0.245,-0.160
10.569,0.040,-0.150
10.572,-0.105,-0.180
10.575,-0.200,-0.225
10.578,-0.245,-0.260
10.581,-0.295,-0.275
10.583,-0.315,-0.270
10.586,-0.290,-0.270
10.589,-0.255,-0.250
10.592,-0.230,-0.230
10.594,-0.235,-0.220
10.597,-0.230,-0.225
10.600,-0.255,-0.235
10.603,-0.275,-0.230
10.606,-0.270,-0.220
10.608,-0.270,-0.210
10.611,-0.280,-0.200
10.614,-0.280,-0.195
10.617,-0.270,-0.210
10.619,-0.280,-0.195
10.622,-0.280,-0.175
10.625,-0.265,-0.170
10.628,-0.250,-0.165
10.631,-0.250,-0.165
10.633,-0.245,-0.200
10.636,-0.260,-0.220
10.639,-0.255,-0.230
10.642,-0.245,-0.220
10.644,-0.240,-0.225
10.647,-0.240,-0.240
10.650,-0.245,-0.265
10.653,-0.260,-0.265
10.656,-0.255,-0.265
10.658,-0.250,-0.250
10.661,-0.240,-0.260
10.664,-0.250,-0.275
10.667,-0.260,-0.305
10.669,-0.265,-0.310
10.672,-0.260,-0.315
10.675,-0.260,-0.310
10.678,-0.245,-0.305
10.681,-0.250,-0.305
10.683,-0.255,-0.320
10.686,-0.270,-0.310
10.689,-0.265,-0.315
10.692,-0.255,-0.305
10.694,-0.250,-0.305
10.697,-0.240,-0.310
10.700,-0.255,-0.315
10.703,-0.265,-0.325
10.706,-0.255,-0.325
10.708,-0.250,-0.315
10.711,-0.245,-0.325
10.714,-0.255,-0.340
10.717,-0.245,-0.350
10.719,-0.250,-0.350
10.722,-0.250,-0.335
10.725,-0.240,-0.335
10.728,-0.225,-0.320
10.731,-0.215,-0.335
10.733,-0.220,-0.340
10.736,-0.225,-0.350
10.739,-0.205,-0.335
10.742,-0.195,-0.320
10.744,-0.180,-0.320
10.747,-0.185,-0.315
10.750,-0.190,-0.335
10.753,-0.190,-0.335
10.756,-0.185,-0.330
10.758,-0.175,-0.330
10.761,-0.160,-0.340
10.764,-0.165,-0.340
10.767,-0.170,-0.350
10.769,-0.170,-0.365
10.772,-0.155,-0.340
10.775,-0.150,-0.330
10.778,-0.140,-0.305
10.781,-0.145,-0.310
10.783,-0.150,-0.320
10.786,-0.150,-0.310
10.789,-0.145,-0.295
10.792,-0.130,-0.290
10.794,-0.125,-0.295
10.797,-0.125,-0.300
10.800,-0.130,-0.305
10.803,-0.145,-0.290
10.806,-0.150,-0.270
10.808,-0.125,-0.250
10.811,-0.105,-0.240
10.814,-0.100,-0.235
10.817,-0.105,-0.245
10.819,-0.120,-0.250
10.822,-0.110,-0.235
10.825,-0.110,-0.245
10.828,-0.110,-0.250
10.831,-0.125,-0.265
10.833,-0.140,-0.280
10.836,-0.165,-0.275
10.839,-0.175,-0.270
10.842,-0.180,-0.265
10.844,-0.170,-0.280
10.847,-0.190,-0.265
10.850,-0.200,-0.290
10.853,-0.220,-0.280
10.856,-0.220,-0.275
10.858,-0.210,-0.270
10.861,-0.210,-0.280
10.864,-0.230,-0.275
10.867,-0.235,-0.295
10.869,-0.245,-0.290
10.872,-0.245,-0.270
10.875,-0.240,-0.260
10.878,-0.250,-0.280
10.881,-0.255,-0.285
10.883,-0.265,-0.300
10.886,-0.280,-0.305
10.889,-0.270,-0.290
10.892,-0.265,-0.275
10.894,-0.260,-0.270
10.897,-0.245,-0.265
10.900,-0.265,-0.270
10.903,-0.260,-0.265
10.906,-0.255,-0.250
10.908,-0.250,-0.240
10.911,-0.250,-0.245
10.914,-0.250,-0.245
10.917,-0.255,-0.260
10.919,-0.270,-0.255
10.922,-0.280,-0.250
10.925,-0.265,-0.235
10.928,-0.255,-0.240
10.931,-0.270,-0.235
10.933,-0.265,-0.250
10.936,-0.285,-0.245
10.939,-0.270,-0.235
10.942,-0.265,-0.220
10.944,-0.255,-0.230
10.947,-0.265,-0.240
10.950,-0.260,-0.250
10.953,-0.285,-0.245
10.956,-0.285,-0.240
10.958,-0.285,-0.235
10.961,-0.275,-0.235
10.964,-0.275,-0.235
10.967,-0.275,-0.220
10.969,-0.300,-0.190
10.972,-0.275,-0.180
10.975,-0.255,-0.145
10.978,-0.235,-0.155
10.981,-0.235,-0.175
10.983,-0.230,-0.195
10.986,-0.235,-0.200
10.989,-0.220,-0.190
10.992,-0.215,-0.175
10.994,-0.210,-0.185
10.997,-0.205,-0.195
11.000,-0.220,-0.210
11.003,-0.220,-0.215
11.006,-0.210,-0.200
11.008,-0.205,-0.190
11.011,-0.200,-0.205
11.014,-0.205,-0.205
11.017,-0.215,-0.215
11.019,-0.230,-0.220
11.022,-0.220,-0.215
11.025,-0.210,-0.200
11.028,-0.210,-0.200
11.031,-0.230,-0.205
11.033,-0.235,-0.225
11.036,-0.250,-0.235
11.039,-0.235,-0.230
11.042,-0.235,-0.230
11.044,-0.225,-0.240
11.047,-0.230,-0.240
11.050,-0.245,-0.255
11.053,-0.255,-0.245
11.056,-0.250,-0.230
11.058,-0.255,-0.210
11.061,-0.250,-0.215
11.064,-0.230,-0.225
11.067,-0.230,-0.220
11.069,-0.235,-0.225
11.072,-0.225,-0.210
11.075,-0.220,-0.195
11.078,-0.215,-0.200
11.081,-0.230,-0.205
11.083,-0.245,-0.220
11.086,-0.255,-0.230
11.089,-0.250,-0.225
11.092,-0.255,-0.215
11.094,-0.250,-0.215
11.097,-0.255,-0.225
11.100,-0.275,-0.235
11.103,-0.285,-0.230
11.106,-0.280,-0.230
11.108,-0.275,-0.225
11.111,-0.275,-0.235
11.114,-0.285,-0.245
11.117,-0.300,-0.255
11.119,-0.310,-0.250
11.122,-0.310,-0.255
11.125,-0.305,-0.230
11.128,-0.305,-0.230
11.131,-0.310,-0.225
11.133,-0.330,-0.235
11.136,-0.330,-0.225
11.139,-0.325,-0.210
11.142,-0.315,-0.215
11.144,-0.290,-0.215
11.147,-0.265,-0.210
11.150,-0.260,-0.230
11.153,-0.265,-0.230
11.156,-0.255,-0.225
11.158,-0.255,-0.215
11.161,-0.240,-0.210
11.164,-0.240,-0.205
11.167,-0.245,-0.215
11.169,-0.275,-0.210
11.172,-0.255,-0.205
11.175,-0.245,-0.200
11.178,-0.245,-0.195
11.181,-0.250,-0.220
11.183,-0.260,-0.230
11.186,-0.275,-0.235
11.189,-0.275,-0.230
11.192,-0.260,-0.220
11.194,-0.260,-0.225
11.197,-0.255,-0.215
11.200,-0.275,-0.230
11.203,-0.295,-0.240
11.206,-0.285,-0.235
11.208,-0.280,-0.225
11.211,-0.275,-0.230
11.214,-0.285,-0.220
11.217,-0.290,-0.220
11.219,-0.295,-0.205
11.222,-0.280,-0.185
11.225,-0.280,-0.170
11.228,-0.255,-0.170
11.231,-0.260,-0.195
11.233,-0.260,-0.195
11.236,-0.275,-0.215
11.239,-0.280,-0.185
11.242,-0.270,-0.175
11.244,-0.265,-0.185
11.247,-0.280,-0.185
11.250,-0.285,-0.200
11.253,-0.290,-0.205
11.256,-0.285,-0.190
11.258,-0.275,-0.180
11.261,-0.270,-0.180
11.264,-0.265,-0.200
11.267,-0.280,-0.200
11.269,-0.290,-0.210
11.272,-0.285,-0.195
11.275,-0.275,-0.185
11.278,-0.270,-0.175
11.281,-0.275,-0.195
11.283,-0.280,-0.205
11.286,-0.290,-0.200
11.289,-0.285,-0.195
11.292,-0.280,-0.175
11.294,-0.280,-0.200
11.297,-0.285,-0.215
11.300,-0.290,-0.210
11.303,-0.285,-0.220
11.306,-0.285,-0.200
11.308,-0.280,-0.200
11.311,-0.270,-0.220
11.314,-0.275,-0.235
11.317,-0.285,-0.255
11.319,-0.285,-0.275
11.322,-0.280,-0.260
11.325,-0.280,-0.240
11.328,-0.270,-0.235
11.331,-0.270,-0.235
11.333,-0.285,-0.250
11.336,-0.275,-0.255
11.339,-0.270,-0.240
11.342,-0.260,-0.230
11.344,-0.250,-0.235
11.347,-0.260,-0.245
11.350,-0.265,-0.255
11.353,-0.275,-0.255
11.356,-0.275,-0.250
11.358,-0.250,-0.255
11.361,-0.255,-0.255
11.364,-0.260,-0.255
11.367,-0.265,-0.250
11.369,-0.255,-0.220
11.372,-0.240,-0.195
11.375,-0.210,-0.190
11.378,-0.185,-0.230
11.381,-0.155,-0.330
11.383,-0.140,-0.420
11.386,-0.125,-0.490
11.389,-0.075,-0.560
11.392,0.010,-0.615
11.394,0.115,-0.695
11.397,0.210,-0.795
11.400,0.280,-0.915
11.403,0.375,-0.990
11.406,0.485,-1.005
11.408,0.600,-0.985
11.411,0.690,-0.935
11.414,0.760,-0.875
11.417,0.810,-0.780
11.419,0.830,-0.625
11.422,0.765,-0.445
11.425,0.610,-0.295
11.428,0.430,-0.230
11.431,0.195,-0.210
11.433,0.000,-0.250
11.436,-0.125,-0.280
11.439,-0.175,-0.275
11.442,-0.225,-0.265
11.444,-0.220,-0.250
11.447,-0.215,-0.235
11.450,-0.205,-0.225
11.453,-0.225,-0.225
11.456,-0.215,-0.220
11.458,-0.225,-0.215
11.461,-0.230,-0.210
11.464,-0.240,-0.210
11.467,-0.250,-0.200
11.469,-0.260,-0.210
11.472,-0.260,-0.195
11.475,-0.260,-0.190
11.478,-0.250,-0.180
11.481,-0.260,-0.175
11.483,-0.255,-0.195
11.486,-0.260,-0.185
11.489,-0.250,-0.175
11.492,-0.260,-0.185
11.494,-0.255,-0.195
11.497,-0.255,-0.200
11.500,-0.260,-0.215
11.503,-0.285,-0.220
11.506,-0.275,-0.215
11.508,-0.280,-0.215
11.511,-0.270,-0.220
11.514,-0.270,-0.205
11.517,-0.270,-0.215
11.519,-0.280,-0.210
11.522,-0.275,-0.195
11.525,-0.275,-0.200
11.528,-0.260,-0.205
11.531,-0.265,-0.205
11.533,-0.275,-0.205
11.536,-0.285,-0.210
11.539,-0.285,-0.205
11.542,-0.285,-0.205
11.544,-0.275,-0.220
11.547,-0.280,-0.220
11.550,-0.275,-0.250
11.553,-0.285,-0.250
11.556,-0.280,-0.240
11.558,-0.270,-0.245
11.561,-0.255,-0.240
11.564,-0.260,-0.250
11.567,-0.265,-0.250
11.569,-0.275,-0.250
11.572,-0.270,-0.240
11.575,-0.255,-0.215
11.578,-0.255,-0.225
11.581,-0.240,-0.230
11.583,-0.245,-0.240
11.586,-0.260,-0.250
11.589,-0.250,-0.250
11.592,-0.245,-0.230
11.594,-0.235,-0.235
11.597,-0.225,-0.245
11.600,-0.230,-0.260
11.603,-0.235,-0.260
11.606,-0.240,-0.250
11.608,-0.225,-0.245
11.611,-0.215,-0.235
11.614,-0.210,-0.240
11.617,-0.220,-0.245
11.619,-0.220,-0.250
11.622,-0.215,-0.235
11.625,-0.190,-0.220
11.628,-0.185,-0.210
11.631,-0.180,-0.225
11.633,-0.175,-0.230
11.636,-0.185,-0.225
11.639,-0.175,-0.195
11.642,-0.160,-0.175
11.644,-0.135,-0.180
11.647,-0.125,-0.160
11.650,-0.105,-0.180
11.653,-0.100,-0.175
11.656,-0.095,-0.165
11.658,-0.085,-0.145
11.661,-0.080,-0.155
11.664,-0.080,-0.155
11.667,-0.095,-0.165
11.669,-0.120,-0.160
11.672,-0.115,-0.165
11.675,-0.125,-0.165
11.678,-0.140,-0.190
11.681,-0.150,-0.210
11.683,-0.170,-0.240
11.686,-0.195,-0.245
11.689,-0.195,-0.235
11.692,-0.215,-0.230
11.694,-0.210,-0.235
11.697,-0.230,-0.235
11.700,-0.265,-0.245
11.703,-0.275,-0.245
11.706,-0.270,-0.255
11.708,-0.260,-0.245
11.711,-0.260,-0.245
11.714,-0.265,-0.255
11.717,-0.290,-0.265
11.719,-0.295,-0.265
11.722,-0.295,-0.260
11.725,-0.280,-0.235
11.728,-0.290,-0.245
11.731,-0.295,-0.245
11.733,-0.295,-0.265
11.736,-0.310,-0.265
11.739,-0.295,-0.250
11.742,-0.300,-0.240
11.744,-0.290,-0.245
11.747,-0.300,-0.240
11.750,-0.310,-0.255
11.753,-0.315,-0.240
11.756,-0.310,-0.230
11.758,-0.305,-0.225
11.761,-0.300,-0.230
11.764,-0.300,-0.240
11.767,-0.310,-0.250
11.769,-0.310,-0.240
11.772,-0.290,-0.215
11.775,-0.290,-0.210
11.778,-0.285,-0.205
11.781,-0.285,-0.200
11.783,-0.285,-0.195
11.786,-0.285,-0.190
11.789,-0.275,-0.175
11.792,-0.265,-0.165
11.794,-0.250,-0.160
11.797,-0.245,-0.150
11.800,-0.250,-0.155
11.803,-0.245,-0.150
11.806,-0.250,-0.140
11.808,-0.250,-0.135
11.811,-0.255,-0.140
11.814,-0.255,-0.135
11.817,-0.275,-0.155
11.819,-0.285,-0.155
11.822,-0.290,-0.155
11.825,-0.290,-0.140
11.828,-0.295,-0.135
11.831,-0.305,-0.125
11.833,-0.310,-0.140
11.836,-0.315,-0.140
11.839,-0.305,-0.125
11.842,-0.290,-0.115
11.844,-0.260,-0.120
11.847,-0.245,-0.140
11.850,-0.235,-0.165
11.853,-0.240,-0.185
11.856,-0.240,-0.195
11.858,-0.225,-0.180
11.861,-0.215,-0.195
11.864,-0.215,-0.210
11.867,-0.225,-0.205
11.869,-0.240,-0.225
11.872,-0.245,-0.220
11.875,-0.250,-0.210
11.878,-0.240,-0.220
11.881,-0.250,-0.225
11.883,-0.260,-0.250
11.886,-0.270,-0.245
11.889,-0.265,-0.245
11.892,-0.265,-0.235
11.894,-0.265,-0.235
11.897,-0.265,-0.245
11.900,-0.280,-0.270
11.903,-0.295,-0.260
11.906,-0.285,-0.245
11.908,-0.290,-0.220
11.911,-0.275,-0.220
11.914,-0.285,-0.210
11.917,-0.285,-0.220
11.919,-0.285,-0.205
11.922,-0.265,-0.190
11.925,-0.255,-0.180
11.928,-0.250,-0.180
11.931,-0.270,-0.185
11.933,-0.280,-0.195
11.936,-0.270,-0.190
11.939,-0.250,-0.170
11.942,-0.255,-0.145
11.944,-0.250,-0.155
11.947,-0.255,-0.160
11.950,-0.265,-0.165
11.953,-0.275,-0.180
11.956,-0.265,-0.165
11.958,-0.265,-0.160
11.961,-0.260,-0.170
11.964,-0.275,-0.170
11.967,-0.290,-0.175
11.969,-0.295,-0.170
11.972,-0.295,-0.170
11.975,-0.290,-0.160
11.978,-0.295,-0.165
11.981,-0.300,-0.175
11.983,-0.320,-0.180
11.986,-0.320,-0.175
11.989,-0.315,-0.160
11.992,-0.320,-0.170
11.994,-0.315,-0.195
11.997,-0.330,-0.190
12.000,-0.335,-0.200
12.003,-0.345,-0.200
12.006,-0.345,-0.200
12.008,-0.340,-0.195
12.011,-0.345,-0.190
12.014,-0.340,-0.190
12.017,-0.345,-0.210
12.019,-0.355,-0.220
12.022,-0.335,-0.205
12.025,-0.310,-0.200
12.028,-0.280,-0.195
12.031,-0.265,-0.195
12.033,-0.255,-0.195
12.036,-0.255,-0.205
12.039,-0.245,-0.200
12.042,-0.245,-0.180
12.044,-0.235,-0.165
12.047,-0.230,-0.165
12.050,-0.235,-0.170
12.053,-0.210,-0.205
12.056,-0.185,-0.280
12.058,-0.145,-0.350
12.061,-0.130,-0.430
12.064,-0.090,-0.510
12.067,-0.025,-0.585
12.069,0.060,-0.670
12.072,0.160,-0.780
12.075,0.265,-0.900
12.078,0.365,-1.005
12.081,0.500,-1.055
12.083,0.610,-1.035
12.086,0.655,-0.975
12.089,0.730,-0.885
12.092,0.795,-0.770
12.094,0.815,-0.625
12.097,0.730,-0.465
12.100,0.590,-0.360
12.103,0.400,-0.285
12.106,0.195,-0.245
12.108,0.020,-0.240
12.111,-0.080,-0.250
12.114,-0.130,-0.245
12.117,-0.175,-0.230
12.119,-0.215,-0.220
12.122,-0.225,-0.210
12.125,-0.225,-0.190
12.128,-0.215,-0.185
12.131,-0.220,-0.185
12.133,-0.250,-0.195
12.136,-0.275,-0.190
12.139,-0.295,-0.175
12.142,-0.295,-0.155
12.144,-0.295,-0.165
12.147,-0.300,-0.185
12.150,-0.310,-0.205
12.153,-0.325,-0.210
12.156,-0.325,-0.210
12.158,-0.310,-0.200
12.161,-0.300,-0.195
12.164,-0.305,-0.210
12.167,-0.325,-0.210
12.169,-0.330,-0.225
12.172,-0.330,-0.225
12.175,-0.320,-0.225
12.178,-0.310,-0.220
12.181,-0.315,-0.215
12.183,-0.325,-0.230
12.186,-0.325,-0.235
12.189,-0.310,-0.220
12.192,-0.285,-0.215
12.194,-0.275,-0.220
12.197,-0.270,-0.240
12.200,-0.290,-0.250
12.203,-0.295,-0.230
12.206,-0.290,-0.205
12.208,-0.260,-0.180
12.211,-0.255,-0.175
12.214,-0.250,-0.180
12.217,-0.260,-0.180
12.219,-0.270,-0.180
12.222,-0.255,-0.180
12.225,-0.255,-0.180
12.228,-0.260,-0.185
12.231,-0.260,-0.200
12.233,-0.275,-0.215
12.236,-0.295,-0.215
12.239,-0.275,-0.205
12.242,-0.265,-0.195
12.244,-0.260,-0.210
12.247,-0.255,-0.230
12.250,-0.270,-0.235
12.253,-0.265,-0.245
12.256,-0.255,-0.240
12.258,-0.255,-0.225
12.261,-0.250,-0.240
12.264,-0.240,-0.245
12.267,-0.250,-0.250
12.269,-0.260,-0.260
12.272,-0.240,-0.240
12.275,-0.230,-0.240
12.278,-0.230,-0.245
12.281,-0.210,-0.250
12.283,-0.225,-0.255
12.286,-0.230,-0.275
12.289,-0.215,-0.265
12.292,-0.205,-0.250
12.294,-0.200,-0.260
12.297,-0.190,-0.275
12.300,-0.195,-0.275
12.303,-0.200,-0.275
12.306,-0.190,-0.265
12.308,-0.175,-0.250
12.311,-0.165,-0.265
12.314,-0.160,-0.270
12.317,-0.165,-0.285
12.319,-0.160,-0.270
12.322,-0.150,-0.255
12.325,-0.135,-0.250
12.328,-0.135,-0.260
12.331,-0.140,-0.260
12.333,-0.160,-0.265
12.336,-0.175,-0.255
12.339,-0.170,-0.240
12.342,-0.175,-0.225
12.344,-0.180,-0.230
12.347,-0.195,-0.220
12.350,-0.200,-0.210
12.353,-0.220,-0.200
12.356,-0.210,-0.175
12.358,-0.215,-0.155
12.361,-0.215,-0.160
12.364,-0.215,-0.170
12.367,-0.220,-0.190
12.369,-0.235,-0.195
12.372,-0.250,-0.175
12.375,-0.250,-0.175
12.378,-0.255,-0.160
12.381,-0.270,-0.160
12.383,-0.290,-0.165
12.386,-0.295,-0.160
12.389,-0.295,-0.160
12.392,-0.290,-0.155
12.394,-0.300,-0.165
12.397,-0.300,-0.185
12.400,-0.305,-0.190
12.403,-0.330,-0.200
12.406,-0.330,-0.190
12.408,-0.320,-0.180
12.411,-0.320,-0.180
12.414,-0.315,-0.190
12.417,-0.325,-0.200
12.419,-0.325,-0.200
12.422,-0.320,-0.185
12.425,-0.305,-0.195
12.428,-0.300,-0.190
12.431,-0.305,-0.200
12.433,-0.315,-0.195
12.436,-0.320,-0.200
12.439,-0.310,-0.190
12.442,-0.310,-0.190
12.444,-0.295,-0.210
12.447,-0.300,-0.220
12.450,-0.310,-0.225
12.453,-0.315,-0.220
12.456,-0.310,-0.220
12.458,-0.305,-0.215
12.461,-0.295,-0.225
12.464,-0.300,-0.225
12.467,-0.300,-0.240
12.469,-0.310,-0.245
12.472,-0.305,-0.245
12.475,-0.300,-0.240
12.478,-0.290,-0.235
12.481,-0.300,-0.240
12.483,-0.300,-0.235
12.486,-0.305,-0.225
12.489,-0.295,-0.215
12.492,-0.285,-0.205
12.494,-0.290,-0.200
12.497,-0.285,-0.200
12.500,-0.285,-0.200
12.503,-0.305,-0.205
12.506,-0.300,-0.195
12.508,-0.290,-0.190
12.511,-0.285,-0.190
12.514,-0.285,-0.190
12.517,-0.290,-0.185
12.519,-0.295,-0.180
12.522,-0.295,-0.165
12.525,-0.290,-0.150
12.528,-0.280,-0.140
12.531,-0.280,-0.150
12.533,-0.280,-0.155
12.536,-0.295,-0.145
12.539,-0.295,-0.135
12.542,-0.290,-0.125
12.544,-0.285,-0.130
12.547,-0.285,-0.140
12.550,-0.295,-0.150
12.553,-0.300,-0.150
12.556,-0.290,-0.145
12.558,-0.290,-0.130
12.561,-0.275,-0.130
12.564,-0.285,-0.140
12.567,-0.290,-0.140
12.569,-0.305,-0.160
12.572,-0.300,-0.160
12.575,-0.285,-0.150
12.578,-0.290,-0.165
12.581,-0.290,-0.175
12.583,-0.300,-0.195
12.586,-0.305,-0.200
12.589,-0.300,-0.190
12.592,-0.305,-0.180
12.594,-0.295,-0.185
12.597,-0.290,-0.185
12.600,-0.300,-0.210
12.603,-0.320,-0.205
12.606,-0.310,-0.205
12.608,-0.305,-0.195
12.611,-0.300,-0.200
12.614,-0.285,-0.205
12.617,-0.305,-0.200
12.619,-0.310,-0.205
12.622,-0.305,-0.205
12.625,-0.290,-0.210
12.628,-0.285,-0.220
12.631,-0.290,-0.225
12.633,-0.295,-0.230
12.636,-0.310,-0.235
12.639,-0.300,-0.225
12.642,-0.300,-0.215
12.644,-0.285,-0.220
12.647,-0.280,-0.230
12.650,-0.305,-0.225
12.653,-0.305,-0.220
12.656,-0.305,-0.200
12.658,-0.295,-0.195
12.661,-0.290,-0.195
12.664,-0.295,-0.195
12.667,-0.300,-0.200
12.669,-0.305,-0.195
12.672,-0.300,-0.165
12.675,-0.300,-0.145
12.678,-0.295,-0.140
12.681,-0.290,-0.150
12.683,-0.290,-0.170
12.686,-0.285,-0.160
12.689,-0.270,-0.155
12.692,-0.275,-0.150
12.694,-0.270,-0.145
12.697,-0.260,-0.140
12.700,-0.275,-0.145
12.703,-0.285,-0.130
12.706,-0.290,-0.110
12.708,-0.275,-0.085
12.711,-0.255,-0.100
12.714,-0.240,-0.155
12.717,-0.225,-0.235
12.719,-0.215,-0.355
12.722,-0.195,-0.460
12.725,-0.145,-0.535
12.728,-0.065,-0.610
12.731,0.025,-0.700
12.733,0.110,-0.810
12.736,0.200,-0.925
12.739,0.325,-1.000
12.742,0.465,-1.010
12.744,0.590,-0.950
12.747,0.700,-0.880
12.750,0.785,-0.800
12.753,0.850,-0.695
12.756,0.870,-0.530
12.758,0.795,-0.350
12.761,0.625,-0.230
12.764,0.405,-0.155
12.767,0.180,-0.130
12.769,-0.035,-0.160
12.772,-0.165,-0.185
12.775,-0.260,-0.230
12.778,-0.300,-0.260
12.781,-0.330,-0.270
12.783,-0.340,-0.270
12.786,-0.320,-0.250
12.789,-0.285,-0.235
12.792,-0.270,-0.220
12.794,-0.275,-0.220
12.797,-0.285,-0.225
12.800,-0.290,-0.235
12.803,-0.295,-0.235
12.806,-0.305,-0.230
12.808,-0.305,-0.200
12.811,-0.305,-0.195
12.814,-0.310,-0.195
12.817,-0.325,-0.190
12.819,-0.335,-0.185
12.822,-0.330,-0.170
12.825,-0.320,-0.150
12.828,-0.315,-0.160
12.831,-0.320,-0.165
12.833,-0.320,-0.180
12.836,-0.340,-0.190
12.839,-0.335,-0.185
12.842,-0.340,-0.180
12.844,-0.330,-0.180
12.847,-0.335,-0.195
12.850,-0.350,-0.210
12.853,-0.370,-0.200
12.856,-0.360,-0.205
12.858,-0.350,-0.195
12.861,-0.350,-0.210
12.864,-0.350,-0.225
12.867,-0.340,-0.230
12.869,-0.350,-0.225
12.872,-0.350,-0.205
12.875,-0.345,-0.200
12.878,-0.330,-0.210
12.881,-0.330,-0.240
12.883,-0.320,-0.255
12.886,-0.345,-0.275
12.889,-0.340,-0.270
12.892,-0.320,-0.260
12.894,-0.300,-0.270
12.897,-0.310,-0.285
12.900,-0.315,-0.305
12.903,-0.325,-0.310
12.906,-0.300,-0.310
12.908,-0.295,-0.305
12.911,-0.270,-0.300
12.914,-0.275,-0.310
12.917,-0.285,-0.320
12.919,-0.280,-0.325
12.922,-0.255,-0.310
12.925,-0.255,-0.295
12.928,-0.230,-0.300
12.931,-0.220,-0.305
12.933,-0.235,-0.325
12.936,-0.235,-0.320
12.939,-0.225,-0.315
12.942,-0.215,-0.300
12.944,-0.190,-0.310
12.947,-0.185,-0.320
12.950,-0.180,-0.330
12.953,-0.195,-0.325
12.956,-0.180,-0.310
12.958,-0.170,-0.295
12.961,-0.150,-0.285
12.964,-0.150,-0.285
12.967,-0.150,-0.280
12.969,-0.140,-0.275
12.972,-0.140,-0.270
12.975,-0.115,-0.275
12.978,-0.115,-0.280
12.981,-0.125,-0.280
12.983,-0.145,-0.285
12.986,-0.150,-0.290
12.989,-0.145,-0.275
12.992,-0.145,-0.260
12.994,-0.150,-0.260
12.997,-0.155,-0.250
13.000,-0.170,-0.250
13.003,-0.185,-0.250
13.006,-0.190,-0.240
13.008,-0.185,-0.220
13.011,-0.200,-0.215
13.014,-0.215,-0.215
13.017,-0.230,-0.230
13.019,-0.255,-0.225
13.022,-0.255,-0.210
13.025,-0.265,-0.195
13.028,-0.260,-0.200
13.031,-0.260,-0.205
13.033,-0.275,-0.220
13.036,-0.295,-0.230
13.039,-0.300,-0.230
13.042,-0.305,-0.230
13.044,-0.305,-0.250
13.047,-0.315,-0.240
13.050,-0.315,-0.265
13.053,-0.330,-0.265
13.056,-0.330,-0.260
13.058,-0.325,-0.250
13.061,-0.315,-0.250
13.064,-0.320,-0.250
13.067,-0.320,-0.265
13.069,-0.335,-0.260
13.072,-0.335,-0.240
13.075,-0.325,-0.230
13.078,-0.315,-0.225
13.081,-0.315,-0.235
13.083,-0.315,-0.235
13.086,-0.330,-0.230
13.089,-0.320,-0.220
13.092,-0.320,-0.205
13.094,-0.315,-0.215
13.097,-0.320,-0.225
13.100,-0.325,-0.245
13.103,-0.330,-0.240
13.106,-0.325,-0.235
13.108,-0.320,-0.200
13.111,-0.305,-0.185
13.114,-0.305,-0.185
13.117,-0.310,-0.195
13.119,-0.325,-0.185
13.122,-0.315,-0.185
13.125,-0.300,-0.170
13.128,-0.290,-0.160
13.131,-0.300,-0.160
13.133,-0.305,-0.170
13.136,-0.320,-0.160
13.139,-0.315,-0.160
13.142,-0.305,-0.155
13.144,-0.300,-0.155
13.147,-0.305,-0.155
13.150,-0.320,-0.165
13.153,-0.325,-0.170
13.156,-0.320,-0.150
13.158,-0.315,-0.140
13.161,-0.315,-0.155
13.164,-0.330,-0.155
13.167,-0.325,-0.170
13.169,-0.330,-0.155
13.172,-0.330,-0.150
13.175,-0.325,-0.130
13.178,-0.300,-0.125
13.181,-0.305,-0.120
13.183,-0.310,-0.130
13.186,-0.310,-0.125
13.189,-0.310,-0.115
13.192,-0.305,-0.110
13.194,-0.290,-0.110
13.197,-0.300,-0.130
13.200,-0.305,-0.140
13.203,-0.325,-0.150
13.206,-0.320,-0.155
13.208,-0.305,-0.145
13.211,-0.290,-0.150
13.214,-0.290,-0.165
13.217,-0.295,-0.175
13.219,-0.300,-0.180
13.222,-0.290,-0.165
13.225,-0.285,-0.165
13.228,-0.280,-0.170
13.231,-0.275,-0.180
13.233,-0.290,-0.200
13.236,-0.290,-0.210
13.239,-0.290,-0.205
13.242,-0.290,-0.200
13.244,-0.290,-0.215
13.247,-0.290,-0.230
13.250,-0.310,-0.245
13.253,-0.315,-0.245
13.256,-0.330,-0.240
13.258,-0.320,-0.245
13.261,-0.315,-0.245
13.264,-0.310,-0.240
13.267,-0.320,-0.235
13.269,-0.330,-0.230
13.272,-0.325,-0.210
13.275,-0.315,-0.195
13.278,-0.305,-0.190
13.281,-0.315,-0.190
13.283,-0.315,-0.210
13.286,-0.325,-0.220
13.289,-0.335,-0.210
13.292,-0.325,-0.205
13.294,-0.315,-0.205
13.297,-0.325,-0.225
13.300,-0.335,-0.230
13.303,-0.350,-0.240
13.306,-0.350,-0.220
13.308,-0.340,-0.215
13.311,-0.340,-0.215
13.314,-0.350,-0.220
13.317,-0.365,-0.225
13.319,-0.365,-0.230
13.322,-0.365,-0.220
13.325,-0.355,-0.190
13.328,-0.340,-0.190
13.331,-0.345,-0.205
13.333,-0.355,-0.215
13.336,-0.370,-0.215
13.339,-0.365,-0.205
13.342,-0.350,-0.195
13.344,-0.345,-0.195
13.347,-0.350,-0.200
13.350,-0.360,-0.220
13.353,-0.365,-0.210
13.356,-0.365,-0.215
13.358,-0.350,-0.200
13.361,-0.345,-0.210
13.364,-0.340,-0.205
13.367,-0.360,-0.215
13.369,-0.360,-0.215
13.372,-0.345,-0.195
13.375,-0.335,-0.175
13.378,-0.335,-0.185
13.381,-0.340,-0.160
13.383,-0.350,-0.165
13.386,-0.345,-0.150
13.389,-0.345,-0.145
13.392,-0.325,-0.135
13.394,-0.315,-0.145
13.397,-0.300,-0.150
13.400,-0.305,-0.155
13.403,-0.295,-0.160
13.406,-0.270,-0.160
13.408,-0.265,-0.165
13.411,-0.250,-0.170
13.414,-0.255,-0.160
13.417,-0.275,-0.150
13.419,-0.270,-0.115
13.422,-0.230,-0.095
13.425,-0.200,-0.090
13.428,-0.170,-0.140
13.431,-0.145,-0.235
13.433,-0.135,-0.345
13.436,-0.130,-0.465
13.439,-0.085,-0.555
13.442,0.005,-0.635
13.444,0.100,-0.730
13.447,0.205,-0.855
13.450,0.295,-0.975
13.453,0.410,-1.035
13.456,0.545,-1.005
13.458,0.665,-0.920
13.461,0.760,-0.855
13.464,0.845,-0.760
13.467,0.885,-0.635
13.469,0.825,-0.460
13.472,0.670,-0.305
13.475,0.470,-0.210
13.478,0.260,-0.160
13.481,0.030,-0.165
13.483,-0.135,-0.220
13.486,-0.245,-0.265
13.489,-0.320,-0.275
13.492,-0.350,-0.265
13.494,-0.330,-0.255
13.497,-0.300,-0.260
13.500,-0.280,-0.260
13.503,-0.295,-0.255
13.506,-0.290,-0.245
13.508,-0.300,-0.230
13.511,-0.300,-0.225
13.514,-0.310,-0.235
13.517,-0.330,-0.245
13.519,-0.335,-0.245
13.522,-0.340,-0.245
13.525,-0.345,-0.230
13.528,-0.350,-0.230
13.531,-0.355,-0.220
13.533,-0.355,-0.220
13.536,-0.360,-0.225
13.539,-0.360,-0.200
13.542,-0.350,-0.195
13.544,-0.340,-0.195
13.547,-0.335,-0.170
13.550,-0.340,-0.170
13.553,-0.350,-0.160
13.556,-0.340,-0.140
13.558,-0.325,-0.130
13.561,-0.315,-0.130
13.564,-0.310,-0.125
13.567,-0.310,-0.135
13.569,-0.325,-0.130
13.572,-0.320,-0.115
13.575,-0.315,-0.100
13.578,-0.310,-0.100
13.581,-0.300,-0.100
13.583,-0.305,-0.110
13.586,-0.300,-0.130
13.589,-0.285,-0.125
13.592,-0.275,-0.125
13.594,-0.260,-0.140
13.597,-0.260,-0.160
13.600,-0.270,-0.165
13.603,-0.280,-0.170
13.606,-0.275,-0.175
13.608,-0.255,-0.200
13.611,-0.245,-0.220
13.614,-0.245,-0.245
13.617,-0.245,-0.260
13.619,-0.255,-0.270
13.622,-0.250,-0.260
13.625,-0.245,-0.255
13.628,-0.230,-0.265
13.631,-0.230,-0.280
13.633,-0.235,-0.285
13.636,-0.235,-0.290
13.639,-0.235,-0.285
13.642,-0.235,-0.280
13.644,-0.220,-0.285
13.647,-0.230,-0.290
13.650,-0.225,-0.305
13.653,-0.235,-0.320
13.656,-0.220,-0.310
13.658,-0.220,-0.305
13.661,-0.215,-0.300
13.664,-0.210,-0.305
13.667,-0.200,-0.320
13.669,-0.220,-0.315
13.672,-0.200,-0.310
13.675,-0.195,-0.305
13.678,-0.180,-0.285
13.681,-0.175,-0.285
13.683,-0.180,-0.295
13.686,-0.180,-0.290
13.689,-0.175,-0.275
13.692,-0.145,-0.260
13.694,-0.140,-0.245
13.697,-0.145,-0.245
13.700,-0.155,-0.240
13.703,-0.170,-0.225
13.706,-0.175,-0.190
13.708,-0.180,-0.180
13.711,-0.200,-0.175
13.714,-0.200,-0.185
13.717,-0.210,-0.190
13.719,-0.230,-0.185
13.722,-0.235,-0.170
13.725,-0.235,-0.160
13.728,-0.240,-0.150
13.731,-0.250,-0.155
13.733,-0.275,-0.165
13.736,-0.290,-0.155
13.739,-0.285,-0.135
13.742,-0.265,-0.125
13.744,-0.260,-0.135
13.747,-0.275,-0.140
13.750,-0.270,-0.145
13.753,-0.275,-0.135
13.756,-0.275,-0.130
13.758,-0.255,-0.125
13.761,-0.255,-0.140
13.764,-0.265,-0.155
13.767,-0.270,-0.165
13.769,-0.275,-0.185
13.772,-0.270,-0.170
13.775,-0.260,-0.180
13.778,-0.255,-0.210
13.781,-0.265,-0.225
13.783,-0.270,-0.240
13.786,-0.270,-0.240
13.789,-0.265,-0.240
13.792,-0.270,-0.240
13.794,-0.265,-0.250
13.797,-0.265,-0.245
13.800,-0.275,-0.255
13.803,-0.280,-0.255
13.806,-0.270,-0.250
13.808,-0.265,-0.235
13.811,-0.255,-0.255
13.814,-0.260,-0.265
13.817,-0.245,-0.270
13.819,-0.240,-0.280
13.822,-0.215,-0.300
13.825,-0.180,-0.360
13.828,-0.160,-0.465
13.831,-0.130,-0.555
13.833,-0.095,-0.625
13.836,-0.025,-0.660
13.839,0.105,-0.685
13.842,0.230,-0.725
13.844,0.340,-0.790
13.847,0.420,-0.860
13.850,0.530,-0.925
13.853,0.645,-0.925
13.856,0.755,-0.895
13.858,0.820,-0.825
13.861,0.820,-0.745
13.864,0.760,-0.645
13.867,0.645,-0.525
13.869,0.510,-0.365
13.872,0.355,-0.270
13.875,0.165,-0.245
13.878,-0.005,-0.240
13.881,-0.120,-0.210
13.883,-0.150,-0.185
13.886,-0.175,-0.185
13.889,-0.215,-0.165
13.892,-0.250,-0.160
13.894,-0.255,-0.165
13.897,-0.270,-0.140
13.900,-0.275,-0.145
13.903,-0.285,-0.145
13.906,-0.285,-0.145
13.908,-0.285,-0.130
13.911,-0.285,-0.130
13.914,-0.295,-0.145
13.917,-0.315,-0.150
13.919,-0.315,-0.150
13.922,-0.320,-0.150
13.925,-0.315,-0.140
13.928,-0.310,-0.160
13.931,-0.315,-0.165
13.933,-0.315,-0.180
13.936,-0.325,-0.180
13.939,-0.310,-0.160
13.942,-0.305,-0.165
13.944,-0.300,-0.180
13.947,-0.300,-0.185
13.950,-0.305,-0.205
13.953,-0.315,-0.200
13.956,-0.305,-0.205
13.958,-0.305,-0.200
13.961,-0.300,-0.205
13.964,-0.305,-0.195
13.967,-0.315,-0.205
13.969,-0.315,-0.205
13.972,-0.310,-0.185
13.975,-0.300,-0.185
13.978,-0.295,-0.185
13.981,-0.295,-0.195
13.983,-0.310,-0.195
13.986,-0.310,-0.200
13.989,-0.310,-0.170
13.992,-0.300,-0.170
13.994,-0.290,-0.175
13.997,-0.290,-0.175
14.000,-0.305,-0.200
14.003,-0.310,-0.190
14.006,-0.295,-0.185
14.008,-0.280,-0.165
14.011,-0.280,-0.175
14.014,-0.285,-0.175
14.017,-0.280,-0.185
14.019,-0.305,-0.180
14.022,-0.295,-0.160
14.025,-0.295,-0.170
14.028,-0.280,-0.175
14.031,-0.275,-0.185
14.033,-0.275,-0.190
14.036,-0.280,-0.185
14.039,-0.265,-0.175
14.042,-0.250,-0.160
14.044,-0.250,-0.170
14.047,-0.240,-0.170
14.050,-0.255,-0.190
14.053,-0.255,-0.195
14.056,-0.240,-0.195
14.058,-0.235,-0.180
14.061,-0.225,-0.200
14.064,-0.225,-0.205
14.067,-0.230,-0.225
14.069,-0.230,-0.220
14.072,-0.225,-0.215
14.075,-0.220,-0.195
14.078,-0.210,-0.190
14.081,-0.220,-0.185
14.083,-0.220,-0.195
14.086,-0.220,-0.190
14.089,-0.205,-0.160
14.092,-0.185,-0.150
14.094,-0.170,-0.160
14.097,-0.160,-0.160
14.100,-0.155,-0.170
14.103,-0.175,-0.175
14.106,-0.165,-0.170
14.108,-0.155,-0.165
14.111,-0.155,-0.160
14.114,-0.155,-0.160
14.117,-0.165,-0.170
14.119,-0.180,-0.185
14.122,-0.190,-0.180
14.125,-0.170,-0.185
14.128,-0.170,-0.190
14.131,-0.180,-0.205
14.133,-0.210,-0.225
14.136,-0.225,-0.215
14.139,-0.225,-0.215
14.142,-0.230,-0.190
14.144,-0.235,-0.200
14.147,-0.240,-0.200
14.150,-0.250,-0.210
14.153,-0.255,-0.220
14.156,-0.255,-0.220
14.158,-0.255,-0.195
14.161,-0.255,-0.190
14.164,-0.255,-0.195
14.167,-0.270,-0.215
14.169,-0.275,-0.210
14.172,-0.280,-0.200
14.175,-0.280,-0.195
14.178,-0.275,-0.190
14.181,-0.265,-0.195
14.183,-0.280,-0.205
14.186,-0.290,-0.200
14.189,-0.290,-0.190
14.192,-0.290,-0.185
14.194,-0.280,-0.185
14.197,-0.285,-0.200
14.200,-0.290,-0.205
14.203,-0.300,-0.200
14.206,-0.300,-0.180
14.208,-0.285,-0.190
14.211,-0.290,-0.180
14.214,-0.280,-0.185
14.217,-0.290,-0.195
14.219,-0.300,-0.200
14.222,-0.300,-0.190
14.225,-0.280,-0.160
14.228,-0.290,-0.165
14.231,-0.285,-0.160
14.233,-0.290,-0.165
14.236,-0.305,-0.155
14.239,-0.290,-0.150
14.242,-0.285,-0.150
14.244,-0.280,-0.155
14.247,-0.285,-0.170
14.250,-0.290,-0.175
14.253,-0.310,-0.190
14.256,-0.315,-0.175
14.258,-0.310,-0.155
14.261,-0.305,-0.165
14.264,-0.325,-0.160
14.267,-0.335,-0.170
14.269,-0.350,-0.160
14.272,-0.345,-0.125
14.275,-0.335,-0.100
14.278,-0.310,-0.115
14.281,-0.280,-0.105
14.283,-0.275,-0.125
14.286,-0.285,-0.135
14.289,-0.270,-0.140
14.292,-0.265,-0.130
14.294,-0.260,-0.140
14.297,-0.260,-0.155
14.300,-0.280,-0.155
14.303,-0.285,-0.175
14.306,-0.285,-0.160
14.308,-0.275,-0.155
14.311,-0.280,-0.170
14.314,-0.265,-0.185
14.317,-0.285,-0.190
14.319,-0.295,-0.205
14.322,-0.280,-0.190
14.325,-0.285,-0.185
14.328,-0.280,-0.190
14.331,-0.300,-0.200
14.333,-0.310,-0.235
14.336,-0.325,-0.235
14.339,-0.320,-0.225
14.342,-0.320,-0.205
14.344,-0.315,-0.215
14.347,-0.325,-0.220
14.350,-0.340,-0.225
14.353,-0.345,-0.225
14.356,-0.345,-0.220
14.358,-0.340,-0.205
14.361,-0.330,-0.210
14.364,-0.330,-0.215
14.367,-0.345,-0.240
14.369,-0.345,-0.240
14.372,-0.340,-0.230
14.375,-0.330,-0.205
14.378,-0.315,-0.210
14.381,-0.320,-0.210
14.383,-0.330,-0.215
14.386,-0.350,-0.210
14.389,-0.350,-0.195
14.392,-0.345,-0.170
14.394,-0.345,-0.185
14.397,-0.345,-0.190
14.400,-0.355,-0.190
14.403,-0.370,-0.195
14.406,-0.370,-0.170
14.408,-0.365,-0.150
14.411,-0.350,-0.160
14.414,-0.360,-0.160
14.417,-0.370,-0.180
14.419,-0.390,-0.175
14.422,-0.395,-0.160
14.425,-0.395,-0.150
14.428,-0.385,-0.140
14.431,-0.375,-0.150
14.433,-0.400,-0.150
14.436,-0.400,-0.155
14.439,-0.390,-0.125
14.442,-0.355,-0.095
14.444,-0.325,-0.080
14.447,-0.320,-0.075
14.450,-0.320,-0.090
14.453,-0.310,-0.090
14.456,-0.295,-0.070
14.458,-0.275,-0.065
14.461,-0.250,-0.060
14.464,-0.230,-0.100
14.467,-0.215,-0.175
14.469,-0.200,-0.275
14.472,-0.170,-0.370
14.475,-0.125,-0.435
14.478,-0.050,-0.540
14.481,0.055,-0.645
14.483,0.155,-0.765
14.486,0.250,-0.895
14.489,0.370,-1.005
14.492,0.505,-1.050
14.494,0.630,-1.030
14.497,0.705,-0.970
14.500,0.760,-0.915
14.503,0.815,-0.790
14.506,0.820,-0.615
14.508,0.745,-0.455
14.511,0.615,-0.360
14.514,0.445,-0.305
14.517,0.240,-0.285
14.519,0.060,-0.295
14.522,-0.055,-0.295
14.525,-0.120,-0.290
14.528,-0.165,-0.265
14.531,-0.205,-0.250
14.533,-0.230,-0.250
14.536,-0.235,-0.255
14.539,-0.225,-0.225
14.542,-0.225,-0.205
14.544,-0.225,-0.225
14.547,-0.255,-0.215
14.550,-0.275,-0.215
14.553,-0.290,-0.215
14.556,-0.290,-0.215
14.558,-0.305,-0.205
14.561,-0.305,-0.215
14.564,-0.310,-0.230
14.567,-0.330,-0.230
14.569,-0.345,-0.235
14.572,-0.340,-0.205
14.575,-0.345,-0.195
14.578,-0.350,-0.195
14.581,-0.365,-0.195
14.583,-0.375,-0.205
14.586,-0.385,-0.200
14.589,-0.370,-0.200
14.592,-0.360,-0.180
14.594,-0.350,-0.180
14.597,-0.360,-0.175
14.600,-0.375,-0.175
14.603,-0.370,-0.180
14.606,-0.365,-0.160
14.608,-0.365,-0.150
14.611,-0.360,-0.155
14.614,-0.370,-0.155
14.617,-0.385,-0.150
14.619,-0.390,-0.140
14.622,-0.385,-0.115
14.625,-0.385,-0.115
14.628,-0.370,-0.115
14.631,-0.375,-0.115
14.633,-0.355,-0.115
14.636,-0.350,-0.105
14.639,-0.315,-0.105
14.642,-0.290,-0.110
14.644,-0.280,-0.125
14.647,-0.280,-0.150
14.650,-0.280,-0.165
14.653,-0.290,-0.160
14.656,-0.270,-0.155
14.658,-0.260,-0.155
14.661,-0.245,-0.165
14.664,-0.245,-0.185
14.667,-0.260,-0.195
14.669,-0.255,-0.195
14.672,-0.245,-0.190
14.675,-0.240,-0.210
14.678,-0.235,-0.225
14.681,-0.240,-0.260
14.683,-0.245,-0.275
14.686,-0.260,-0.285
14.689,-0.255,-0.280
14.692,-0.245,-0.270
14.694,-0.250,-0.285
14.697,-0.245,-0.285
14.700,-0.255,-0.300
14.703,-0.260,-0.300
14.706,-0.250,-0.285
14.708,-0.245,-0.285
14.711,-0.245,-0.290
14.714,-0.245,-0.300
14.717,-0.255,-0.295
14.719,-0.255,-0.295
14.722,-0.230,-0.290
14.725,-0.235,-0.285
14.728,-0.230,-0.295
14.731,-0.225,-0.310
14.733,-0.220,-0.320
14.736,-0.215,-0.305
14.739,-0.215,-0.295
14.742,-0.215,-0.265
14.744,-0.210,-0.270
14.747,-0.220,-0.265
14.750,-0.225,-0.270
14.753,-0.230,-0.270
14.756,-0.235,-0.270
14.758,-0.230,-0.245
14.761,-0.230,-0.240
14.764,-0.245,-0.230
14.767,-0.240,-0.240
14.769,-0.250,-0.230
14.772,-0.250,-0.205
14.775,-0.250,-0.195
14.778,-0.250,-0.195
14.781,-0.270,-0.195
14.783,-0.280,-0.195
14.786,-0.285,-0.190
14.789,-0.290,-0.160
14.792,-0.275,-0.150
14.794,-0.275,-0.165
14.797,-0.275,-0.170
14.800,-0.290,-0.180
14.803,-0.295,-0.170
14.806,-0.290,-0.165
14.808,-0.290,-0.160
14.811,-0.285,-0.170
14.814,-0.275,-0.185
14.817,-0.275,-0.185
14.819,-0.280,-0.185
14.822,-0.255,-0.180
14.825,-0.240,-0.175
14.828,-0.225,-0.175
14.831,-0.230,-0.195
14.833,-0.230,-0.205
14.836,-0.235,-0.225
14.839,-0.230,-0.220
14.842,-0.220,-0.200
14.844,-0.225,-0.225
14.847,-0.225,-0.235
14.850,-0.235,-0.255
14.853,-0.240,-0.270
14.856,-0.235,-0.255
14.858,-0.225,-0.250
14.861,-0.230,-0.265
14.864,-0.225,-0.265
14.867,-0.245,-0.265
14.869,-0.260,-0.290
14.872,-0.255,-0.270
14.875,-0.250,-0.275
14.878,-0.245,-0.290
14.881,-0.255,-0.295
14.883,-0.265,-0.305
14.886,-0.285,-0.290
14.889,-0.270,-0.270
14.892,-0.260,-0.245
14.894,-0.265,-0.255
14.897,-0.270,-0.260
14.900,-0.280,-0.270
14.903,-0.280,-0.250
14.906,-0.285,-0.240
14.908,-0.280,-0.240
14.911,-0.280,-0.235
14.914,-0.290,-0.235
14.917,-0.300,-0.235
14.919,-0.305,-0.230
14.922,-0.310,-0.220
14.925,-0.310,-0.205
14.928,-0.295,-0.205
14.931,-0.300,-0.195
14.933,-0.310,-0.205
14.936,-0.325,-0.195
14.939,-0.310,-0.185
14.942,-0.310,-0.170
14.944,-0.290,-0.165
14.947,-0.295,-0.165
14.950,-0.305,-0.175
14.953,-0.310,-0.180
14.956,-0.305,-0.165
14.958,-0.300,-0.145
14.961,-0.290,-0.150
14.964,-0.295,-0.150
14.967,-0.305,-0.160
14.969,-0.295,-0.165
14.972,-0.290,-0.145
14.975,-0.280,-0.145
14.978,-0.275,-0.145
14.981,-0.280,-0.165
14.983,-0.290,-0.170
14.986,-0.300,-0.170
14.989,-0.295,-0.145
14.992,-0.280,-0.130
14.994,-0.260,-0.120
14.997,-0.260,-0.130
15.000,-0.255,-0.140
15.003,-0.255,-0.150
15.006,-0.245,-0.145
15.008,-0.235,-0.155
15.011,-0.230,-0.165
15.014,-0.230,-0.180
15.017,-0.245,-0.195
15.019,-0.255,-0.205
15.022,-0.260,-0.205
15.025,-0.260,-0.215
15.028,-0.260,-0.235
15.031,-0.265,-0.255
15.033,-0.270,-0.265
15.036,-0.290,-0.280
15.039,-0.285,-0.280
15.042,-0.290,-0.275
15.044,-0.295,-0.270
15.047,-0.295,-0.270
15.050,-0.305,-0.280
15.053,-0.310,-0.275
15.056,-0.315,-0.265
15.058,-0.315,-0.255
15.061,-0.305,-0.260
15.064,-0.300,-0.260
15.067,-0.310,-0.265
15.069,-0.315,-0.260
15.072,-0.305,-0.260
15.075,-0.310,-0.240
15.078,-0.300,-0.240
15.081,-0.315,-0.250
15.083,-0.315,-0.250
15.086,-0.310,-0.250
15.089,-0.315,-0.240
15.092,-0.315,-0.235
15.094,-0.305,-0.245
15.097,-0.310,-0.245
15.100,-0.315,-0.250
15.103,-0.320,-0.240
15.106,-0.320,-0.235
15.108,-0.325,-0.220
15.111,-0.310,-0.210
15.114,-0.310,-0.215
15.117,-0.315,-0.220
15.119,-0.315,-0.230
15.122,-0.305,-0.215
15.125,-0.305,-0.210
15.128,-0.290,-0.210
15.131,-0.290,-0.210
15.133,-0.295,-0.215
15.136,-0.295,-0.200
15.139,-0.300,-0.190
15.142,-0.290,-0.180
15.144,-0.290,-0.200
15.147,-0.290,-0.205
15.150,-0.295,-0.200
15.153,-0.305,-0.205
15.156,-0.295,-0.195
15.158,-0.290,-0.190
15.161,-0.280,-0.195
15.164,-0.290,-0.180
15.167,-0.290,-0.170
15.169,-0.295,-0.150
15.172,-0.280,-0.145
15.175,-0.255,-0.145
15.178,-0.235,-0.200
15.181,-0.225,-0.280
15.183,-0.215,-0.390
15.186,-0.195,-0.500
15.189,-0.135,-0.580
15.192,-0.045,-0.665
15.194,0.070,-0.760
15.197,0.195,-0.895
15.200,0.310,-1.010
15.203,0.420,-1.065
15.206,0.550,-1.055
15.208,0.680,-0.985
15.211,0.760,-0.925
15.214,0.840,-0.840
15.217,0.895,-0.750
15.219,0.890,-0.595
15.222,0.815,-0.430
15.225,0.665,-0.305
15.228,0.475,-0.220
15.231,0.250,-0.165
15.233,0.030,-0.170
15.236,-0.135,-0.225
15.239,-0.230,-0.270
15.242,-0.285,-0.270
15.244,-0.315,-0.275
15.247,-0.325,-0.270
15.250,-0.315,-0.255
15.253,-0.285,-0.245
15.256,-0.260,-0.225
15.258,-0.260,-0.220
15.261,-0.275,-0.225
15.264,-0.280,-0.225
15.267,-0.290,-0.225
15.269,-0.315,-0.215
15.272,-0.305,-0.190
15.275,-0.300,-0.175
15.278,-0.295,-0.175
15.281,-0.300,-0.170
15.283,-0.300,-0.190
15.286,-0.305,-0.195
15.289,-0.310,-0.190
15.292,-0.305,-0.185
15.294,-0.300,-0.195
15.297,-0.310,-0.195
15.300,-0.315,-0.205
15.303,-0.315,-0.205
15.306,-0.315,-0.210
15.308,-0.315,-0.200
15.311,-0.310,-0.225
15.314,-0.320,-0.240
15.317,-0.325,-0.260
15.319,-0.325,-0.245
15.322,-0.330,-0.260
15.325,-0.320,-0.255
15.328,-0.325,-0.260
15.331,-0.325,-0.260
15.333,-0.325,-0.275
15.336,-0.330,-0.270
15.339,-0.320,-0.265
15.342,-0.320,-0.265
15.344,-0.320,-0.280
15.347,-0.320,-0.290
15.350,-0.320,-0.300
15.353,-0.315,-0.300
15.356,-0.305,-0.300
15.358,-0.305,-0.295
15.361,-0.300,-0.310
15.364,-0.300,-0.300
15.367,-0.300,-0.305
15.369,-0.305,-0.290
15.372,-0.290,-0.290
15.375,-0.280,-0.270
15.378,-0.265,-0.265
15.381,-0.255,-0.280
15.383,-0.250,-0.270
15.386,-0.250,-0.275
15.389,-0.250,-0.280
15.392,-0.230,-0.270
15.394,-0.220,-0.280
15.397,-0.225,-0.290
15.400,-0.240,-0.305
15.403,-0.250,-0.295
15.406,-0.240,-0.285
15.408,-0.240,-0.280
15.411,-0.230,-0.275
15.414,-0.225,-0.285
15.417,-0.250,-0.275
15.419,-0.235,-0.270
15.422,-0.215,-0.265
15.425,-0.210,-0.240
15.428,-0.195,-0.265
15.431,-0.200,-0.275
15.433,-0.200,-0.285
15.436,-0.205,-0.290
15.439,-0.190,-0.280
15.442,-0.180,-0.265
15.444,-0.170,-0.270
15.447,-0.160,-0.280
15.450,-0.170,-0.290
15.453,-0.165,-0.290
15.456,-0.160,-0.275
15.458,-0.165,-0.275
15.461,-0.150,-0.280
15.464,-0.160,-0.285
15.467,-0.170,-0.285
15.469,-0.170,-0.295
15.472,-0.175,-0.300
15.475,-0.170,-0.300
15.478,-0.175,-0.295
15.481,-0.185,-0.295
15.483,-0.220,-0.300
15.486,-0.225,-0.315
15.489,-0.225,-0.300
15.492,-0.230,-0.290
15.494,-0.225,-0.285
15.497,-0.235,-0.295
15.500,-0.250,-0.295
15.503,-0.250,-0.280
15.506,-0.255,-0.275
15.508,-0.250,-0.265
15.511,-0.255,-0.280
15.514,-0.260,-0.280
15.517,-0.270,-0.300
15.519,-0.295,-0.285
15.522,-0.285,-0.265
15.525,-0.285,-0.240
15.528,-0.280,-0.255
15.531,-0.285,-0.260
15.533,-0.290,-0.275
15.536,-0.280,-0.250
15.539,-0.275,-0.230
15.542,-0.270,-0.210
15.544,-0.265,-0.215
15.547,-0.275,-0.215
15.550,-0.275,-0.215
15.553,-0.280,-0.210
15.556,-0.280,-0.190
15.558,-0.275,-0.200
15.561,-0.255,-0.215
15.564,-0.270,-0.205
15.567,-0.285,-0.215
15.569,-0.295,-0.200
15.572,-0.290,-0.195
15.575,-0.290,-0.170
15.578,-0.280,-0.180
15.581,-0.280,-0.180
15.583,-0.280,-0.185
15.586,-0.290,-0.175
15.589,-0.270,-0.180
15.592,-0.265,-0.175
15.594,-0.255,-0.175
15.597,-0.260,-0.190
15.600,-0.265,-0.200
15.603,-0.270,-0.200
15.606,-0.265,-0.195
15.608,-0.260,-0.185
15.611,-0.260,-0.205
15.614,-0.275,-0.200
15.617,-0.275,-0.210
15.619,-0.280,-0.205
15.622,-0.265,-0.200
15.625,-0.265,-0.180
15.628,-0.260,-0.190
15.631,-0.265,-0.205
15.633,-0.275,-0.230
15.636,-0.280,-0.230
15.639,-0.270,-0.230
15.642,-0.265,-0.230
15.644,-0.255,-0.230
15.647,-0.265,-0.230
15.650,-0.285,-0.250
15.653,-0.295,-0.255
15.656,-0.290,-0.240
15.658,-0.285,-0.250
15.661,-0.280,-0.250
15.664,-0.285,-0.270
15.667,-0.290,-0.280
15.669,-0.290,-0.270
15.672,-0.285,-0.255
15.675,-0.260,-0.240
15.678,-0.255,-0.245
15.681,-0.250,-0.250
15.683,-0.265,-0.275
15.686,-0.275,-0.275
15.689,-0.275,-0.270
15.692,-0.275,-0.255
15.694,-0.265,-0.250
15.697,-0.265,-0.260
15.700,-0.280,-0.280
15.703,-0.285,-0.265
15.706,-0.285,-0.250
15.708,-0.275,-0.225
15.711,-0.265,-0.215
15.714,-0.270,-0.220
15.717,-0.280,-0.225
15.719,-0.290,-0.215
15.722,-0.280,-0.210
15.725,-0.265,-0.190
15.728,-0.260,-0.175
15.731,-0.270,-0.190
15.733,-0.280,-0.190
15.736,-0.285,-0.175
15.739,-0.265,-0.170
15.742,-0.255,-0.150
15.744,-0.245,-0.150
15.747,-0.245,-0.125
15.750,-0.255,-0.120
15.753,-0.255,-0.110
15.756,-0.235,-0.100
15.758,-0.220,-0.120
15.761,-0.200,-0.205
15.764,-0.215,-0.315
15.767,-0.195,-0.420
15.769,-0.180,-0.500
15.772,-0.125,-0.560
15.775,-0.040,-0.615
15.778,0.050,-0.695
15.781,0.135,-0.795
15.783,0.220,-0.895
15.786,0.325,-0.935
15.789,0.460,-0.925
15.792,0.575,-0.850
15.794,0.675,-0.775
15.797,0.780,-0.685
15.800,0.845,-0.595
15.803,0.855,-0.455
15.806,0.790,-0.305
15.808,0.660,-0.190
15.811,0.480,-0.125
15.814,0.265,-0.100
15.817,0.050,-0.125
15.819,-0.115,-0.170
15.822,-0.230,-0.225
15.825,-0.295,-0.265
15.828,-0.340,-0.275
15.831,-0.345,-0.275
15.833,-0.310,-0.280
15.836,-0.280,-0.285
15.839,-0.245,-0.270
15.842,-0.235,-0.255
15.844,-0.255,-0.255
15.847,-0.265,-0.255
15.850,-0.285,-0.260
15.853,-0.295,-0.265
15.856,-0.300,-0.260
15.858,-0.305,-0.255
15.861,-0.295,-0.250
15.864,-0.310,-0.260
15.867,-0.315,-0.260
15.869,-0.315,-0.260
15.872,-0.310,-0.240
15.875,-0.310,-0.235
15.878,-0.310,-0.225
15.881,-0.310,-0.230
15.883,-0.315,-0.240
15.886,-0.320,-0.240
15.889,-0.320,-0.240
15.892,-0.320,-0.215
15.894,-0.315,-0.225
15.897,-0.325,-0.220
15.900,-0.335,-0.225
15.903,-0.345,-0.220
15.906,-0.320,-0.220
15.908,-0.320,-0.200
15.911,-0.310,-0.205
15.914,-0.310,-0.205
15.917,-0.320,-0.200
15.919,-0.320,-0.180
15.922,-0.315,-0.175
15.925,-0.310,-0.160
15.928,-0.295,-0.175
15.931,-0.295,-0.185
15.933,-0.300,-0.185
15.936,-0.300,-0.180
15.939,-0.290,-0.180
15.942,-0.285,-0.160
15.944,-0.280,-0.170
15.947,-0.280,-0.170
15.950,-0.285,-0.175
15.953,-0.290,-0.190
15.956,-0.285,-0.185
15.958,-0.275,-0.175
15.961,-0.275,-0.185
15.964,-0.270,-0.200
15.967,-0.275,-0.205
15.969,-0.285,-0.200
15.972,-0.265,-0.185
15.975,-0.255,-0.160
15.978,-0.245,-0.185
15.981,-0.240,-0.185
15.983,-0.250,-0.200
15.986,-0.255,-0.215
15.989,-0.245,-0.205
15.992,-0.235,-0.205
15.994,-0.235,-0.200
15.997,-0.230,-0.205
16.000,-0.235,-0.215
16.003,-0.225,-0.210
16.006,-0.215,-0.200
16.008,-0.200,-0.190
16.011,-0.195,-0.195
16.014,-0.205,-0.185
16.017,-0.215,-0.200
16.019,-0.235,-0.195
16.022,-0.225,-0.190
16.025,-0.215,-0.195
16.028,-0.210,-0.205
16.031,-0.210,-0.210
16.033,-0.215,-0.225
16.036,-0.220,-0.235
16.039,-0.215,-0.215
16.042,-0.210,-0.205
16.044,-0.200,-0.225
16.047,-0.210,-0.230
16.050,-0.230,-0.240
16.053,-0.240,-0.250
16.056,-0.230,-0.235
16.058,-0.230,-0.225
16.061,-0.225,-0.235
16.064,-0.240,-0.255
16.067,-0.245,-0.250
16.069,-0.255,-0.250
16.072,-0.245,-0.240
16.075,-0.245,-0.240
16.078,-0.245,-0.250
16.081,-0.250,-0.275
16.083,-0.265,-0.275
16.086,-0.285,-0.285
16.089,-0.275,-0.255
16.092,-0.275,-0.245
16.094,-0.265,-0.270
16.097,-0.275,-0.280
16.100,-0.295,-0.300
16.103,-0.310,-0.295
16.106,-0.305,-0.290
16.108,-0.295,-0.265
16.111,-0.300,-0.245
16.114,-0.295,-0.255
16.117,-0.285,-0.255
16.119,-0.285,-0.245
16.122,-0.285,-0.240
16.125,-0.270,-0.215
16.128,-0.250,-0.225
16.131,-0.255,-0.225
16.133,-0.260,-0.220
16.136,-0.275,-0.225
16.139,-0.280,-0.225
16.142,-0.260,-0.210
16.144,-0.270,-0.230
16.147,-0.270,-0.235
16.150,-0.280,-0.240
16.153,-0.280,-0.235
16.156,-0.275,-0.225
16.158,-0.270,-0.200
16.161,-0.270,-0.200
16.164,-0.260,-0.210
16.167,-0.270,-0.225
16.169,-0.275,-0.225
16.172,-0.265,-0.210
16.175,-0.255,-0.205
16.178,-0.240,-0.205
16.181,-0.260,-0.210
16.183,-0.270,-0.225
16.186,-0.275,-0.210
16.189,-0.275,-0.210
16.192,-0.270,-0.190
16.194,-0.275,-0.200
16.197,-0.270,-0.205
16.200,-0.270,-0.220
16.203,-0.270,-0.215
16.206,-0.260,-0.195
16.208,-0.255,-0.180
16.211,-0.255,-0.185
16.214,-0.260,-0.195
16.217,-0.265,-0.200
16.219,-0.280,-0.220
16.222,-0.280,-0.210
16.225,-0.280,-0.185
16.228,-0.265,-0.195
16.231,-0.265,-0.200
16.233,-0.275,-0.220
16.236,-0.295,-0.225
16.239,-0.290,-0.210
16.242,-0.280,-0.200
16.244,-0.285,-0.200
16.247,-0.280,-0.215
16.250,-0.295,-0.215
16.253,-0.300,-0.205
16.256,-0.300,-0.200
16.258,-0.285,-0.195
16.261,-0.285,-0.205
16.264,-0.275,-0.215
16.267,-0.290,-0.230
16.269,-0.295,-0.220
16.272,-0.295,-0.215
16.275,-0.295,-0.200
16.278,-0.290,-0.215
16.281,-0.290,-0.230
16.283,-0.300,-0.230
16.286,-0.310,-0.240
16.289,-0.300,-0.245
16.292,-0.295,-0.235
16.294,-0.285,-0.255
16.297,-0.285,-0.275
16.300,-0.285,-0.290
16.303,-0.290,-0.290
16.306,-0.285,-0.285
16.308,-0.280,-0.250
16.311,-0.275,-0.250
16.314,-0.270,-0.240
16.317,-0.275,-0.235
16.319,-0.275,-0.230
16.322,-0.245,-0.215
16.325,-0.225,-0.195
16.328,-0.230,-0.195
16.331,-0.245,-0.205
16.333,-0.255,-0.210
16.336,-0.280,-0.205
16.339,-0.260,-0.210
16.342,-0.260,-0.190
16.344,-0.260,-0.200
16.347,-0.265,-0.215
16.350,-0.265,-0.220
16.353,-0.265,-0.220
16.356,-0.265,-0.205
16.358,-0.255,-0.195
16.361,-0.250,-0.195
16.364,-0.245,-0.205
16.367,-0.260,-0.220
16.369,-0.260,-0.215
16.372,-0.250,-0.200
16.375,-0.235,-0.200
16.378,-0.235,-0.210
16.381,-0.240,-0.210
16.383,-0.250,-0.220
16.386,-0.255,-0.225
16.389,-0.260,-0.205
