'Elapsed time','MLII','V1'
'seconds','mV','mV'
0.000,0.000,0.125
0.003,0.000,0.125
0.006,0.000,0.125
0.008,0.000,0.125
0.011,0.000,0.125
0.014,0.000,0.125
0.017,0.000,0.125
0.019,0.000,0.125
0.022,0.000,0.125
0.025,0.005,0.130
0.028,0.015,0.145
0.031,0.025,0.170
0.033,0.035,0.160
0.036,0.035,0.140
0.039,0.015,0.135
0.042,0.015,0.130
0.044,0.025,0.140
0.047,0.050,0.145
0.050,0.060,0.140
0.053,0.055,0.120
0.056,0.040,0.115
0.058,0.045,0.125
0.061,0.065,0.130
0.064,0.085,0.125
0.067,0.095,0.110
0.069,0.085,0.105
0.072,0.085,0.080
0.075,0.085,0.090
0.078,0.105,0.105
0.081,0.125,0.100
0.083,0.135,0.085
0.086,0.135,0.070
0.089,0.135,0.060
0.092,0.145,0.060
0.094,0.150,0.060
0.097,0.175,0.070
0.100,0.195,0.045
0.103,0.200,0.020
0.106,0.180,0.015
0.108,0.190,0.015
0.111,0.215,0.030
0.114,0.255,0.035
0.117,0.270,0.025
0.119,0.275,0.005
0.122,0.265,0.005
0.125,0.270,-0.005
0.128,0.280,0.000
0.131,0.305,0.015
0.133,0.325,0.000
0.136,0.320,0.000
0.139,0.325,-0.015
0.142,0.320,0.005
0.144,0.335,0.005
0.147,0.350,0.030
0.150,0.355,0.015
0.153,0.335,0.010
0.156,0.325,0.015
0.158,0.315,0.030
0.161,0.315,0.040
0.164,0.310,0.080
0.167,0.290,0.075
0.169,0.265,0.070
0.172,0.235,0.075
0.175,0.215,0.090
0.178,0.195,0.120
0.181,0.180,0.130
0.183,0.170,0.110
0.186,0.140,0.090
0.189,0.105,0.095
0.192,0.085,0.105
0.194,0.090,0.110
0.197,0.085,0.120
0.200,0.075,0.125
0.203,0.045,0.105
0.206,0.010,0.110
0.208,-0.010,0.120
0.211,-0.010,0.135
0.214,0.005,0.145
0.217,0.005,0.130
0.219,-0.015,0.115
0.222,-0.030,0.115
0.225,-0.045,0.125
0.228,-0.045,0.125
0.231,-0.025,0.140
0.233,-0.030,0.135
0.236,-0.030,0.110
0.239,-0.050,0.105
0.242,-0.070,0.115
0.244,-0.050,0.125
0.247,-0.040,0.145
0.250,-0.035,0.135
0.253,-0.050,0.120
0.256,-0.070,0.120
0.258,-0.070,0.120
0.261,-0.060,0.140
0.264,-0.045,0.145
0.267,-0.045,0.130
0.269,-0.060,0.115
0.272,-0.060,0.115
0.275,-0.075,0.115
0.278,-0.050,0.130
0.281,-0.040,0.140
0.283,-0.030,0.145
0.286,-0.035,0.130
0.289,-0.060,0.130
0.292,-0.085,0.145
0.294,-0.065,0.150
0.297,-0.045,0.170
0.300,-0.045,0.165
0.303,-0.050,0.155
0.306,-0.065,0.140
0.308,-0.075,0.140
0.311,-0.060,0.150
0.314,-0.055,0.155
0.317,-0.050,0.150
0.319,-0.060,0.145
0.322,-0.080,0.140
0.325,-0.085,0.155
0.328,-0.075,0.175
0.331,-0.045,0.175
0.333,-0.040,0.165
0.336,-0.055,0.155
0.339,-0.060,0.140
0.342,-0.075,0.140
0.344,-0.065,0.165
0.347,-0.060,0.185
0.350,-0.055,0.165
0.353,-0.055,0.155
0.356,-0.075,0.135
0.358,-0.070,0.145
0.361,-0.050,0.155
0.364,-0.045,0.165
0.367,-0.045,0.155
0.369,-0.055,0.140
0.372,-0.070,0.135
0.375,-0.080,0.135
0.378,-0.075,0.160
0.381,-0.055,0.185
0.383,-0.045,0.160
0.386,-0.060,0.160
0.389,-0.070,0.155
0.392,-0.085,0.150
0.394,-0.065,0.160
0.397,-0.050,0.175
0.400,-0.050,0.165
0.403,-0.050,0.155
0.406,-0.065,0.135
0.408,-0.075,0.160
0.411,-0.060,0.170
0.414,-0.050,0.180
0.417,-0.040,0.185
0.419,-0.050,0.165
0.422,-0.070,0.155
0.425,-0.065,0.150
0.428,-0.060,0.165
0.431,-0.065,0.170
0.433,-0.055,0.165
0.436,-0.055,0.150
0.439,-0.080,0.150
0.442,-0.080,0.155
0.444,-0.065,0.175
0.447,-0.055,0.175
0.450,-0.040,0.185
0.453,-0.045,0.155
0.456,-0.065,0.145
0.458,-0.080,0.150
0.461,-0.070,0.160
0.464,-0.060,0.165
0.467,-0.060,0.175
0.469,-0.070,0.165
0.472,-0.065,0.150
0.475,-0.085,0.155
0.478,-0.050,0.175
0.481,-0.045,0.175
0.483,-0.050,0.165
0.486,-0.055,0.145
0.489,-0.070,0.145
0.492,-0.070,0.140
0.494,-0.050,0.155
0.497,-0.050,0.170
0.500,-0.035,0.180
0.503,-0.045,0.160
0.506,-0.065,0.150
0.508,-0.065,0.160
0.511,-0.060,0.170
0.514,-0.055,0.175
0.517,-0.055,0.175
0.519,-0.055,0.155
0.522,-0.065,0.155
0.525,-0.055,0.155
0.528,-0.050,0.185
0.531,-0.040,0.190
0.533,-0.035,0.185
0.536,-0.040,0.165
0.539,-0.060,0.155
0.542,-0.065,0.160
0.544,-0.065,0.170
0.547,-0.045,0.180
0.550,-0.055,0.175
0.553,-0.055,0.155
0.556,-0.060,0.140
0.558,-0.065,0.160
0.561,-0.070,0.180
0.564,-0.050,0.195
0.567,-0.040,0.175
0.569,-0.050,0.165
0.572,-0.060,0.145
0.575,-0.065,0.155
0.578,-0.050,0.150
0.581,-0.025,0.175
0.583,-0.030,0.170
0.586,-0.045,0.150
0.589,-0.055,0.160
0.592,-0.065,0.160
0.594,-0.050,0.170
0.597,-0.045,0.170
0.600,-0.040,0.155
0.603,-0.045,0.140
0.606,-0.050,0.150
0.608,-0.065,0.145
0.611,-0.055,0.170
0.614,-0.030,0.190
0.617,-0.040,0.180
0.619,-0.035,0.165
0.622,-0.040,0.135
0.625,-0.055,0.160
0.628,-0.050,0.165
0.631,-0.020,0.170
0.633,-0.030,0.165
0.636,-0.045,0.145
0.639,-0.050,0.150
0.642,-0.050,0.145
0.644,-0.040,0.160
0.647,-0.025,0.180
0.650,-0.030,0.165
0.653,-0.035,0.145
0.656,-0.055,0.140
0.658,-0.035,0.140
0.661,-0.030,0.170
0.664,-0.020,0.175
0.667,-0.025,0.180
0.669,-0.025,0.155
0.672,-0.035,0.155
0.675,-0.040,0.160
0.678,-0.025,0.180
0.681,-0.015,0.170
0.683,-0.020,0.170
0.686,-0.030,0.165
0.689,-0.035,0.160
0.692,-0.050,0.165
0.694,-0.025,0.180
0.697,-0.015,0.185
0.700,-0.020,0.190
0.703,-0.020,0.150
0.706,-0.040,0.135
0.708,-0.050,0.135
0.711,-0.025,0.150
0.714,-0.020,0.145
0.717,-0.005,0.145
0.719,-0.020,0.135
0.722,-0.025,0.120
0.725,-0.025,0.135
0.728,-0.020,0.150
0.731,-0.005,0.170
0.733,-0.010,0.155
0.736,-0.010,0.145
0.739,-0.040,0.140
0.742,-0.025,0.140
0.744,-0.015,0.155
0.747,-0.005,0.165
0.750,0.005,0.155
0.753,-0.010,0.135
0.756,-0.030,0.130
0.758,-0.030,0.130
0.761,-0.020,0.140
0.764,-0.005,0.155
0.767,-0.010,0.135
0.769,-0.025,0.125
0.772,-0.035,0.105
0.775,-0.035,0.120
0.778,-0.010,0.125
0.781,-0.005,0.150
0.783,0.000,0.140
0.786,-0.005,0.135
0.789,-0.025,0.130
0.792,-0.020,0.150
0.794,-0.020,0.170
0.797,-0.010,0.195
0.800,0.000,0.185
0.803,-0.020,0.170
0.806,-0.035,0.165
0.808,-0.045,0.185
0.811,-0.040,0.200
0.814,-0.015,0.215
0.817,0.000,0.180
0.819,0.015,0.170
0.822,0.025,0.135
0.825,0.015,0.145
0.828,0.045,0.160
0.831,0.045,0.175
0.833,0.060,0.165
0.836,0.050,0.155
0.839,0.025,0.140
0.842,0.040,0.155
0.844,0.045,0.160
0.847,0.050,0.160
0.850,0.040,0.145
0.853,0.020,0.135
0.856,0.005,0.140
0.858,0.000,0.145
0.861,-0.010,0.150
0.864,0.010,0.160
0.867,-0.005,0.145
0.869,-0.015,0.135
0.872,-0.035,0.110
0.875,-0.035,0.110
0.878,-0.040,0.130
0.881,-0.025,0.145
0.883,-0.005,0.145
0.886,-0.005,0.125
0.889,-0.005,0.120
0.892,-0.025,0.125
0.894,-0.020,0.130
0.897,-0.005,0.145
0.900,-0.010,0.135
0.903,-0.005,0.125
0.906,-0.025,0.115
0.908,-0.015,0.120
0.911,-0.020,0.140
0.914,0.015,0.145
0.917,0.015,0.165
0.919,0.025,0.175
0.922,0.025,0.185
0.925,0.030,0.205
0.928,0.070,0.200
0.931,0.100,0.155
0.933,0.140,0.045
0.936,0.150,-0.090
0.939,0.175,-0.225
0.942,0.235,-0.355
0.944,0.325,-0.480
0.947,0.465,-0.630
0.950,0.590,-0.810
0.953,0.740,-0.940
0.956,0.875,-1.020
0.958,1.005,-0.970
0.961,1.140,-0.885
0.964,1.290,-0.780
0.967,1.415,-0.670
0.969,1.465,-0.500
0.972,1.440,-0.330
0.975,1.300,-0.170
0.978,1.105,-0.030
0.981,0.880,0.075
0.983,0.670,0.110
0.986,0.470,0.095
0.989,0.285,0.055
0.992,0.135,0.025
0.994,0.065,0.040
0.997,0.050,0.085
1.000,0.055,0.105
1.003,0.065,0.100
1.006,0.060,0.100
1.008,0.045,0.130
1.011,0.030,0.135
1.014,0.030,0.140
1.017,0.020,0.140
1.019,0.000,0.130
1.022,-0.030,0.115
1.025,-0.045,0.135
1.028,-0.045,0.150
1.031,-0.035,0.165
1.033,-0.035,0.160
1.036,-0.055,0.150
1.039,-0.065,0.150
1.042,-0.070,0.150
1.044,-0.065,0.155
1.047,-0.055,0.160
1.050,-0.065,0.165
1.053,-0.055,0.150
1.056,-0.080,0.145
1.058,-0.075,0.160
1.061,-0.085,0.180
1.064,-0.060,0.180
1.067,-0.055,0.165
1.069,-0.065,0.145
1.072,-0.085,0.120
1.075,-0.110,0.120
1.078,-0.080,0.135
1.081,-0.070,0.145
1.083,-0.055,0.125
1.086,-0.080,0.115
1.089,-0.090,0.115
1.092,-0.095,0.110
1.094,-0.080,0.125
1.097,-0.065,0.155
1.100,-0.050,0.135
1.103,-0.065,0.115
1.106,-0.065,0.100
1.108,-0.070,0.110
1.111,-0.065,0.120
1.114,-0.045,0.125
1.117,-0.040,0.115
1.119,-0.050,0.105
1.122,-0.055,0.100
1.125,-0.070,0.090
1.128,-0.055,0.100
1.131,-0.025,0.120
1.133,-0.015,0.125
1.136,-0.015,0.100
1.139,-0.030,0.085
1.142,-0.025,0.115
1.144,-0.030,0.100
1.147,0.010,0.120
1.150,0.020,0.105
1.153,0.025,0.090
1.156,0.000,0.090
1.158,0.005,0.080
1.161,0.030,0.075
1.164,0.055,0.080
1.167,0.055,0.065
1.169,0.065,0.035
1.172,0.060,0.020
1.175,0.070,0.025
1.178,0.090,0.030
1.181,0.120,0.030
1.183,0.130,0.020
1.186,0.130,-0.005
1.189,0.130,-0.005
1.192,0.150,0.000
1.194,0.160,0.000
1.197,0.175,0.010
1.200,0.200,-0.015
1.203,0.205,-0.010
1.206,0.200,-0.030
1.208,0.215,-0.035
1.211,0.230,-0.040
1.214,0.260,-0.025
1.217,0.290,-0.030
1.219,0.275,-0.055
1.222,0.285,-0.055
1.225,0.285,-0.050
1.228,0.310,-0.035
1.231,0.335,-0.015
1.233,0.320,-0.010
1.236,0.335,-0.010
1.239,0.310,-0.020
1.242,0.310,0.000
1.244,0.315,0.020
1.247,0.305,0.045
1.250,0.295,0.035
1.253,0.265,0.035
1.256,0.235,0.035
1.258,0.200,0.050
1.261,0.210,0.070
1.264,0.205,0.075
1.267,0.185,0.080
1.269,0.155,0.075
1.272,0.120,0.065
1.275,0.090,0.080
1.278,0.100,0.095
1.281,0.080,0.110
1.283,0.075,0.110
1.286,0.055,0.090
1.289,0.020,0.090
1.292,0.015,0.105
1.294,0.010,0.115
1.297,0.015,0.135
1.300,0.010,0.120
1.303,-0.010,0.125
1.306,-0.030,0.130
1.308,-0.040,0.140
1.311,-0.050,0.155
1.314,-0.035,0.155
1.317,-0.035,0.130
1.319,-0.045,0.100
1.322,-0.075,0.075
1.325,-0.060,0.070
1.328,-0.055,0.070
1.331,-0.045,0.080
1.333,-0.040,0.085
1.336,-0.045,0.085
1.339,-0.055,0.075
1.342,-0.060,0.080
1.344,-0.070,0.100
1.347,-0.040,0.115
1.350,-0.045,0.095
1.353,-0.050,0.095
1.356,-0.065,0.080
1.358,-0.075,0.085
1.361,-0.065,0.110
1.364,-0.040,0.125
1.367,-0.035,0.120
1.369,-0.050,0.110
1.372,-0.055,0.110
1.375,-0.060,0.115
1.378,-0.045,0.125
1.381,-0.050,0.130
1.383,-0.025,0.125
1.386,-0.040,0.105
1.389,-0.055,0.110
1.392,-0.060,0.120
1.394,-0.050,0.140
1.397,-0.025,0.145
1.400,-0.025,0.145
1.403,-0.025,0.140
1.406,-0.040,0.130
1.408,-0.050,0.135
1.411,-0.040,0.150
1.414,-0.030,0.155
1.417,-0.020,0.130
1.419,-0.035,0.120
1.422,-0.045,0.115
1.425,-0.045,0.115
1.428,-0.045,0.125
1.431,-0.025,0.140
1.433,-0.020,0.150
1.436,-0.025,0.130
1.439,-0.040,0.130
1.442,-0.040,0.120
1.444,-0.035,0.130
1.447,-0.025,0.135
1.450,-0.020,0.130
1.453,-0.030,0.120
1.456,-0.040,0.105
1.458,-0.035,0.115
1.461,-0.035,0.130
1.464,-0.030,0.140
1.467,-0.025,0.130
1.469,-0.040,0.115
1.472,-0.060,0.115
1.475,-0.070,0.120
1.478,-0.045,0.130
1.481,-0.040,0.140
1.483,-0.030,0.135
1.486,-0.040,0.125
1.489,-0.055,0.110
1.492,-0.055,0.110
1.494,-0.050,0.125
1.497,-0.030,0.135
1.500,-0.035,0.125
1.503,-0.040,0.110
1.506,-0.055,0.120
1.508,-0.055,0.120
1.511,-0.055,0.145
1.514,-0.030,0.155
1.517,-0.040,0.150
1.519,-0.050,0.135
1.522,-0.055,0.125
1.525,-0.055,0.120
1.528,-0.050,0.125
1.531,-0.040,0.140
1.533,-0.055,0.130
1.536,-0.050,0.120
1.539,-0.060,0.115
1.542,-0.060,0.110
1.544,-0.065,0.120
1.547,-0.050,0.140
1.550,-0.050,0.125
1.553,-0.050,0.110
1.556,-0.070,0.095
1.558,-0.075,0.115
1.561,-0.060,0.120
1.564,-0.045,0.120
1.567,-0.050,0.105
1.569,-0.070,0.100
1.572,-0.075,0.090
1.575,-0.065,0.110
1.578,-0.050,0.120
1.581,-0.045,0.145
1.583,-0.030,0.135
1.586,-0.050,0.120
1.589,-0.060,0.120
1.592,-0.060,0.110
1.594,-0.060,0.125
1.597,-0.035,0.135
1.600,-0.035,0.140
1.603,-0.045,0.120
1.606,-0.070,0.105
1.608,-0.065,0.115
1.611,-0.050,0.130
1.614,-0.040,0.155
1.617,-0.040,0.140
1.619,-0.040,0.120
1.622,-0.060,0.115
1.625,-0.055,0.125
1.628,-0.060,0.140
1.631,-0.040,0.145
1.633,-0.040,0.150
1.636,-0.040,0.130
1.639,-0.055,0.120
1.642,-0.065,0.130
1.644,-0.055,0.135
1.647,-0.035,0.145
1.650,-0.035,0.135
1.653,-0.045,0.125
1.656,-0.055,0.135
1.658,-0.050,0.130
1.661,-0.045,0.135
1.664,-0.035,0.140
1.667,-0.030,0.125
1.669,-0.040,0.095
1.672,-0.050,0.105
1.675,-0.050,0.105
1.678,-0.045,0.115
1.681,-0.025,0.130
1.683,-0.030,0.125
1.686,-0.030,0.120
1.689,-0.045,0.115
1.692,-0.055,0.115
1.694,-0.055,0.125
1.697,-0.020,0.140
1.700,-0.025,0.120
1.703,-0.030,0.120
1.706,-0.050,0.100
1.708,-0.065,0.105
1.711,-0.035,0.125
1.714,-0.020,0.130
1.717,-0.030,0.130
1.719,-0.030,0.105
1.722,-0.035,0.100
1.725,-0.040,0.115
1.728,-0.035,0.130
1.731,-0.030,0.140
1.733,-0.030,0.140
1.736,-0.055,0.125
1.739,-0.055,0.115
1.742,-0.065,0.120
1.744,-0.040,0.135
1.747,-0.015,0.155
1.750,-0.030,0.155
1.753,-0.030,0.130
1.756,-0.035,0.130
1.758,-0.045,0.115
1.761,-0.035,0.135
1.764,-0.025,0.145
1.767,-0.010,0.125
1.769,-0.025,0.095
1.772,-0.040,0.095
1.775,-0.035,0.100
1.778,-0.025,0.110
1.781,-0.015,0.125
1.783,-0.025,0.130
1.786,-0.020,0.105
1.789,-0.030,0.100
1.792,-0.035,0.095
1.794,-0.025,0.110
1.797,-0.015,0.115
1.800,0.005,0.125
1.803,-0.015,0.120
1.806,-0.030,0.110
1.808,-0.030,0.120
1.811,-0.020,0.130
1.814,-0.010,0.140
1.817,0.000,0.135
1.819,-0.010,0.115
1.822,-0.020,0.115
1.825,-0.025,0.110
1.828,-0.010,0.130
1.831,0.000,0.130
1.833,0.005,0.130
1.836,-0.005,0.120
1.839,-0.025,0.100
1.842,-0.030,0.110
1.844,-0.010,0.125
1.847,0.005,0.150
1.850,-0.015,0.135
1.853,-0.010,0.115
1.856,-0.025,0.100
1.858,-0.020,0.105
1.861,-0.015,0.110
1.864,-0.015,0.110
1.867,0.005,0.110
1.869,0.005,0.095
1.872,-0.005,0.100
1.875,-0.005,0.100
1.878,0.015,0.115
1.881,0.005,0.130
1.883,0.030,0.135
1.886,0.000,0.135
1.889,0.000,0.135
1.892,-0.005,0.145
1.894,-0.005,0.160
1.897,0.010,0.170
1.900,0.015,0.170
1.903,0.000,0.150
1.906,0.010,0.145
1.908,0.025,0.155
1.911,0.040,0.155
1.914,0.075,0.150
1.917,0.070,0.135
1.919,0.070,0.120
1.922,0.070,0.105
1.925,0.070,0.125
1.928,0.065,0.135
1.931,0.085,0.145
1.933,0.080,0.130
1.936,0.075,0.120
1.939,0.045,0.105
1.942,0.020,0.095
1.944,0.030,0.110
1.947,0.035,0.130
1.950,0.035,0.120
1.953,0.035,0.115
1.956,0.000,0.105
1.958,-0.005,0.120
1.961,0.000,0.110
1.964,0.020,0.120
1.967,0.030,0.115
1.969,0.020,0.100
1.972,0.010,0.095
1.975,0.005,0.090
1.978,0.015,0.125
1.981,0.030,0.130
1.983,0.040,0.125
1.986,0.035,0.115
1.989,-0.005,0.110
1.992,0.015,0.105
1.994,0.040,0.115
1.997,0.050,0.135
2.000,0.055,0.125
2.003,0.050,0.115
2.006,0.045,0.100
2.008,0.040,0.125
2.011,0.050,0.150
2.014,0.090,0.190
2.017,0.105,0.195
2.019,0.110,0.165
2.022,0.135,0.110
2.025,0.155,0.035
2.028,0.210,-0.065
2.031,0.245,-0.160
2.033,0.305,-0.285
2.036,0.405,-0.440
2.039,0.500,-0.610
2.042,0.630,-0.765
2.044,0.770,-0.885
2.047,0.925,-0.920
2.050,1.050,-0.915
2.053,1.160,-0.865
2.056,1.270,-0.800
2.058,1.375,-0.665
2.061,1.465,-0.480
2.064,1.465,-0.290
2.067,1.370,-0.150
2.069,1.200,-0.045
2.072,0.985,0.020
2.075,0.780,0.050
2.078,0.615,0.045
2.081,0.475,0.040
2.083,0.345,0.035
2.086,0.240,0.040
2.089,0.165,0.060
2.092,0.155,0.090
2.094,0.150,0.115
2.097,0.160,0.125
2.100,0.150,0.125
2.103,0.110,0.125
2.106,0.070,0.140
2.108,0.055,0.135
2.111,0.040,0.160
2.114,0.045,0.170
2.117,0.040,0.160
2.119,0.020,0.145
2.122,0.000,0.140
2.125,0.010,0.140
2.128,-0.010,0.160
2.131,0.000,0.170
2.133,0.005,0.160
2.136,-0.010,0.140
2.139,-0.005,0.135
2.142,-0.020,0.155
2.144,-0.010,0.155
2.147,0.005,0.170
2.150,-0.010,0.170
2.153,-0.010,0.160
2.156,-0.015,0.150
2.158,-0.020,0.160
2.161,-0.030,0.170
2.164,0.010,0.175
2.167,0.015,0.165
2.169,0.000,0.150
2.172,-0.005,0.145
2.175,-0.020,0.155
2.178,0.000,0.165
2.181,0.010,0.180
2.183,0.020,0.180
2.186,0.005,0.165
2.189,-0.015,0.155
2.192,-0.010,0.145
2.194,0.010,0.160
2.197,0.030,0.175
2.200,0.025,0.170
2.203,0.030,0.165
2.206,0.010,0.135
2.208,0.015,0.145
2.211,0.015,0.160
2.214,0.030,0.165
2.217,0.050,0.155
2.219,0.045,0.150
2.222,0.035,0.135
2.225,0.045,0.145
2.228,0.055,0.150
2.231,0.080,0.160
2.233,0.070,0.160
2.236,0.060,0.135
2.239,0.060,0.125
2.242,0.055,0.135
2.244,0.095,0.140
2.247,0.110,0.145
2.250,0.125,0.130
2.253,0.100,0.110
2.256,0.105,0.090
2.258,0.115,0.095
2.261,0.130,0.110
2.264,0.145,0.115
2.267,0.170,0.110
2.269,0.160,0.090
2.272,0.175,0.080
2.275,0.175,0.080
2.278,0.195,0.080
2.281,0.220,0.085
2.283,0.230,0.075
2.286,0.230,0.045
2.289,0.230,0.040
2.292,0.230,0.045
2.294,0.255,0.050
2.297,0.275,0.055
2.300,0.290,0.035
2.303,0.295,0.030
2.306,0.285,0.005
2.308,0.280,0.015
2.311,0.310,0.025
2.314,0.330,0.025
2.317,0.340,0.025
2.319,0.335,0.005
2.322,0.350,0.000
2.325,0.355,-0.005
2.328,0.355,0.015
2.331,0.375,0.045
2.333,0.375,0.040
2.336,0.360,0.030
2.339,0.340,0.020
2.342,0.330,0.050
2.344,0.335,0.060
2.347,0.335,0.085
2.350,0.325,0.090
2.353,0.310,0.085
2.356,0.270,0.080
2.358,0.240,0.095
2.361,0.235,0.115
2.364,0.230,0.120
2.367,0.195,0.115
2.369,0.180,0.110
2.372,0.145,0.110
2.375,0.110,0.110
2.378,0.115,0.130
2.381,0.110,0.145
2.383,0.110,0.130
2.386,0.075,0.110
2.389,0.050,0.095
2.392,0.020,0.120
2.394,0.020,0.140
2.397,0.025,0.155
2.400,0.010,0.160
2.403,0.000,0.140
2.406,-0.020,0.115
2.408,-0.025,0.125
2.411,-0.005,0.140
2.414,-0.005,0.145
2.417,-0.005,0.140
2.419,-0.010,0.135
2.422,-0.035,0.110
2.425,-0.025,0.130
2.428,-0.015,0.140
2.431,-0.015,0.145
2.433,-0.005,0.140
2.436,-0.010,0.120
2.439,-0.035,0.110
2.442,-0.035,0.130
2.444,-0.020,0.145
2.447,-0.015,0.140
2.450,-0.010,0.130
2.453,-0.020,0.140
2.456,-0.040,0.115
2.458,-0.045,0.130
2.461,-0.045,0.150
2.464,-0.025,0.155
2.467,-0.015,0.165
2.469,-0.030,0.155
2.472,-0.045,0.135
2.475,-0.055,0.130
2.478,-0.035,0.140
2.481,-0.025,0.160
2.483,-0.030,0.155
2.486,-0.030,0.145
2.489,-0.045,0.140
2.492,-0.060,0.150
2.494,-0.045,0.175
2.497,-0.020,0.180
2.500,-0.040,0.170
2.503,-0.030,0.150
2.506,-0.040,0.145
2.508,-0.050,0.155
2.511,-0.035,0.160
2.514,-0.015,0.180
2.517,-0.015,0.165
2.519,-0.030,0.155
2.522,-0.040,0.150
2.525,-0.045,0.145
2.528,-0.040,0.160
2.531,-0.030,0.160
2.533,-0.015,0.155
2.536,-0.040,0.145
2.539,-0.035,0.135
2.542,-0.040,0.145
2.544,-0.035,0.155
2.547,-0.030,0.165
2.550,-0.030,0.150
2.553,-0.040,0.140
2.556,-0.050,0.135
2.558,-0.055,0.140
2.561,-0.045,0.145
2.564,-0.025,0.150
2.567,-0.030,0.145
2.569,-0.035,0.130
2.572,-0.050,0.130
2.575,-0.055,0.130
2.578,-0.065,0.155
2.581,-0.040,0.160
2.583,-0.035,0.150
2.586,-0.050,0.120
2.589,-0.060,0.125
2.592,-0.060,0.135
2.594,-0.055,0.145
2.597,-0.040,0.145
2.600,-0.035,0.145
2.603,-0.060,0.130
2.606,-0.050,0.125
2.608,-0.055,0.135
2.611,-0.065,0.155
2.614,-0.030,0.160
2.617,-0.040,0.155
2.619,-0.050,0.140
2.622,-0.065,0.140
2.625,-0.055,0.130
2.628,-0.040,0.145
2.631,-0.020,0.150
2.633,-0.030,0.145
2.636,-0.040,0.135
2.639,-0.050,0.130
2.642,-0.060,0.140
2.644,-0.075,0.145
2.647,-0.050,0.155
2.650,-0.040,0.145
2.653,-0.035,0.135
2.656,-0.050,0.140
2.658,-0.065,0.140
2.661,-0.040,0.150
2.664,-0.045,0.150
2.667,-0.020,0.150
2.669,-0.030,0.130
2.672,-0.050,0.125
2.675,-0.050,0.125
2.678,-0.050,0.135
2.681,-0.025,0.135
2.683,-0.025,0.145
2.686,-0.025,0.125
2.689,-0.045,0.120
2.692,-0.045,0.125
2.694,-0.040,0.135
2.697,-0.025,0.155
2.700,-0.025,0.130
2.703,-0.035,0.130
2.706,-0.050,0.120
2.708,-0.055,0.115
2.711,-0.040,0.135
2.714,-0.025,0.140
2.717,-0.015,0.140
2.719,-0.015,0.135
2.722,-0.040,0.125
2.725,-0.045,0.125
2.728,-0.040,0.145
2.731,-0.025,0.155
2.733,-0.015,0.145
2.736,-0.030,0.130
2.739,-0.060,0.120
2.742,-0.065,0.135
2.744,-0.040,0.140
2.747,-0.020,0.155
2.750,-0.015,0.155
2.753,-0.020,0.140
2.756,-0.035,0.125
2.758,-0.040,0.125
2.761,-0.030,0.140
2.764,-0.025,0.140
2.767,-0.015,0.140
2.769,-0.020,0.130
2.772,-0.035,0.120
2.775,-0.035,0.140
2.778,-0.005,0.140
2.781,-0.005,0.135
2.783,-0.025,0.120
2.786,-0.040,0.105
2.789,-0.040,0.135
2.792,-0.025,0.135
2.794,-0.015,0.140
2.797,-0.015,0.130
2.800,-0.015,0.120
2.803,-0.035,0.105
2.806,-0.030,0.110
2.808,-0.030,0.115
2.811,-0.015,0.130
2.814,-0.010,0.130
2.817,-0.005,0.115
2.819,-0.025,0.100
2.822,-0.030,0.115
2.825,-0.030,0.135
2.828,-0.020,0.140
2.831,-0.020,0.130
2.833,-0.030,0.115
2.836,-0.035,0.110
2.839,-0.035,0.115
2.842,-0.040,0.125
2.844,-0.025,0.135
2.847,-0.020,0.120
2.850,-0.020,0.120
2.853,-0.035,0.115
2.856,-0.025,0.125
2.858,-0.025,0.135
2.861,-0.005,0.150
2.864,-0.010,0.145
2.867,-0.015,0.130
2.869,-0.025,0.115
2.872,-0.025,0.110
2.875,-0.015,0.125
2.878,-0.005,0.130
2.881,-0.005,0.115
2.883,-0.005,0.090
2.886,-0.015,0.090
2.889,-0.030,0.095
2.892,-0.010,0.100
2.894,-0.010,0.130
2.897,-0.010,0.110
2.900,-0.020,0.100
2.903,-0.020,0.095
2.906,-0.020,0.095
2.908,-0.010,0.110
2.911,0.015,0.120
2.914,0.020,0.135
2.917,0.000,0.100
2.919,-0.010,0.105
2.922,-0.015,0.110
2.925,0.000,0.120
2.928,0.010,0.125
2.931,0.005,0.125
2.933,0.005,0.110
2.936,-0.015,0.100
2.939,-0.015,0.110
2.942,0.000,0.110
2.944,0.010,0.145
2.947,0.015,0.135
2.950,0.000,0.110
2.953,-0.005,0.105
2.956,-0.005,0.120
2.958,0.000,0.130
2.961,0.005,0.120
2.964,0.010,0.130
2.967,-0.010,0.110
2.969,-0.015,0.095
2.972,-0.020,0.110
2.975,0.005,0.120
2.978,0.005,0.135
2.981,0.015,0.125
2.983,0.025,0.105
2.986,0.010,0.095
2.989,-0.020,0.100
2.992,0.015,0.120
2.994,0.030,0.115
2.997,0.030,0.115
3.000,0.005,0.100
3.003,0.005,0.085
3.006,0.005,0.090
3.008,0.005,0.100
3.011,0.025,0.125
3.014,0.020,0.130
3.017,0.020,0.125
3.019,0.000,0.130
3.022,0.010,0.145
3.025,-0.005,0.165
3.028,0.020,0.165
3.031,0.015,0.160
3.033,-0.010,0.160
3.036,-0.010,0.155
3.039,-0.010,0.155
3.042,0.025,0.165
3.044,0.035,0.185
3.047,0.065,0.155
3.050,0.060,0.130
3.053,0.055,0.120
3.056,0.060,0.125
3.058,0.065,0.130
3.061,0.080,0.135
3.064,0.080,0.130
3.067,0.065,0.125
3.069,0.060,0.110
3.072,0.050,0.110
3.075,0.050,0.130
3.078,0.050,0.125
3.081,0.040,0.120
3.083,0.030,0.115
3.086,0.025,0.105
3.089,0.005,0.110
3.092,0.015,0.115
3.094,0.025,0.130
3.097,0.015,0.115
3.100,0.005,0.110
3.103,0.000,0.100
3.106,-0.020,0.105
3.108,0.005,0.125
3.111,0.020,0.130
3.114,0.015,0.120
3.117,0.015,0.105
3.119,0.005,0.090
3.122,-0.005,0.095
3.125,0.010,0.110
3.128,0.010,0.115
3.131,0.030,0.115
3.133,0.030,0.095
3.136,0.010,0.095
3.139,0.005,0.095
3.142,0.010,0.110
3.144,0.025,0.125
3.147,0.055,0.110
3.150,0.025,0.135
3.153,0.020,0.130
3.156,0.035,0.165
3.158,0.050,0.170
3.161,0.065,0.190
3.164,0.100,0.160
3.167,0.115,0.100
3.169,0.140,-0.005
3.172,0.145,-0.085
3.175,0.195,-0.180
3.178,0.265,-0.275
3.181,0.360,-0.405
3.183,0.455,-0.560
3.186,0.540,-0.715
3.189,0.660,-0.865
3.192,0.795,-0.955
3.194,0.935,-0.975
3.197,1.050,-0.940
3.200,1.145,-0.890
3.203,1.235,-0.830
3.206,1.345,-0.710
3.208,1.410,-0.530
3.211,1.410,-0.355
3.214,1.335,-0.215
3.217,1.180,-0.085
3.219,0.990,-0.020
3.222,0.790,0.045
3.225,0.625,0.050
3.228,0.475,0.050
3.231,0.335,0.010
3.233,0.220,0.005
3.236,0.140,0.020
3.239,0.115,0.060
3.242,0.120,0.085
3.244,0.120,0.110
3.247,0.120,0.110
3.250,0.100,0.110
3.253,0.075,0.105
3.256,0.065,0.125
3.258,0.045,0.135
3.261,0.045,0.160
3.264,0.030,0.140
3.267,0.015,0.130
3.269,-0.010,0.130
3.272,-0.005,0.150
3.275,-0.005,0.155
3.278,0.005,0.175
3.281,-0.005,0.165
3.283,-0.015,0.155
3.286,-0.025,0.150
3.289,-0.035,0.135
3.292,-0.035,0.145
3.294,-0.015,0.165
3.297,-0.010,0.160
3.300,-0.020,0.150
3.303,-0.030,0.135
3.306,-0.035,0.140
3.308,-0.025,0.170
3.311,-0.010,0.170
3.314,-0.015,0.165
3.317,-0.015,0.155
3.319,-0.030,0.135
3.322,-0.045,0.135
3.325,-0.045,0.150
3.328,-0.015,0.155
3.331,-0.020,0.155
3.333,-0.030,0.135
3.336,-0.035,0.130
3.339,-0.030,0.140
3.342,-0.040,0.145
3.344,-0.005,0.165
3.347,-0.010,0.150
3.350,-0.035,0.140
3.353,-0.015,0.120
3.356,-0.030,0.140
3.358,-0.025,0.140
3.361,-0.010,0.145
3.364,0.000,0.130
3.367,-0.010,0.130
3.369,-0.010,0.105
3.372,0.005,0.115
3.375,0.005,0.120
3.378,0.005,0.125
3.381,0.025,0.120
3.383,0.015,0.115
3.386,0.005,0.095
3.389,0.000,0.115
3.392,0.010,0.115
3.394,0.020,0.130
3.397,0.045,0.125
3.400,0.040,0.095
3.403,0.030,0.080
3.406,0.035,0.085
3.408,0.040,0.095
3.411,0.060,0.085
3.414,0.075,0.075
3.417,0.075,0.055
3.419,0.060,0.040
3.422,0.055,0.045
3.425,0.075,0.050
3.428,0.115,0.050
3.431,0.125,0.030
3.433,0.110,0.020
3.436,0.105,0.000
3.439,0.130,0.005
3.442,0.145,0.020
3.444,0.170,0.020
3.447,0.185,0.000
3.450,0.185,0.000
3.453,0.190,-0.010
3.456,0.185,-0.020
3.458,0.215,-0.015
3.461,0.230,-0.010
3.464,0.245,-0.030
3.467,0.250,-0.040
3.469,0.235,-0.045
3.472,0.240,-0.045
3.475,0.265,-0.045
3.478,0.280,-0.035
3.481,0.305,-0.045
3.483,0.285,-0.070
3.486,0.300,-0.075
3.489,0.310,-0.070
3.492,0.315,-0.050
3.494,0.340,-0.030
3.497,0.355,-0.035
3.500,0.345,-0.030
3.503,0.330,-0.030
3.506,0.315,-0.010
3.508,0.325,0.010
3.511,0.335,0.025
3.514,0.315,0.020
3.517,0.300,0.025
3.519,0.280,0.025
3.522,0.250,0.035
3.525,0.260,0.055
3.528,0.255,0.085
3.531,0.240,0.075
3.533,0.210,0.060
3.536,0.180,0.050
3.539,0.165,0.055
3.542,0.145,0.080
3.544,0.135,0.100
3.547,0.135,0.105
3.550,0.095,0.090
3.553,0.070,0.085
3.556,0.055,0.085
3.558,0.040,0.105
3.561,0.050,0.115
3.564,0.045,0.085
3.567,0.030,0.085
3.569,0.005,0.080
3.572,0.000,0.090
3.575,0.010,0.100
3.578,0.005,0.110
3.581,0.015,0.105
3.583,-0.005,0.085
3.586,-0.035,0.085
3.589,-0.045,0.085
3.592,-0.040,0.090
3.594,-0.025,0.110
3.597,-0.010,0.095
3.600,-0.035,0.090
3.603,-0.070,0.080
3.606,-0.065,0.090
3.608,-0.040,0.100
3.611,-0.040,0.115
3.614,-0.040,0.100
3.617,-0.040,0.090
3.619,-0.060,0.080
3.622,-0.055,0.080
3.625,-0.065,0.105
3.628,-0.030,0.120
3.631,-0.020,0.115
3.633,-0.045,0.090
3.636,-0.050,0.070
3.639,-0.045,0.090
3.642,-0.050,0.100
3.644,-0.020,0.110
3.647,-0.020,0.115
3.650,-0.030,0.110
3.653,-0.050,0.115
3.656,-0.050,0.105
3.658,-0.045,0.120
3.661,-0.050,0.135
3.664,-0.040,0.110
3.667,-0.030,0.095
3.669,-0.045,0.105
3.672,-0.055,0.100
3.675,-0.055,0.115
3.678,-0.025,0.120
3.681,-0.030,0.115
3.683,-0.040,0.105
3.686,-0.055,0.090
3.689,-0.050,0.095
3.692,-0.040,0.115
3.694,-0.040,0.125
3.697,-0.030,0.115
3.700,-0.045,0.095
3.703,-0.040,0.085
3.706,-0.050,0.100
3.708,-0.035,0.115
3.711,-0.025,0.110
3.714,-0.025,0.110
3.717,-0.030,0.095
3.719,-0.060,0.085
3.722,-0.070,0.095
3.725,-0.050,0.105
3.728,-0.020,0.120
3.731,-0.020,0.115
3.733,-0.025,0.105
3.736,-0.040,0.085
3.739,-0.045,0.095
3.742,-0.030,0.105
3.744,-0.005,0.110
3.747,0.000,0.115
3.750,-0.010,0.095
3.753,-0.020,0.080
3.756,-0.040,0.085
3.758,-0.020,0.105
3.761,-0.005,0.105
3.764,-0.005,0.110
3.767,-0.015,0.105
3.769,-0.040,0.085
3.772,-0.045,0.085
3.775,-0.035,0.095
3.778,-0.025,0.110
3.781,0.000,0.115
3.783,-0.015,0.105
3.786,-0.035,0.090
3.789,-0.050,0.105
3.792,-0.030,0.115
3.794,-0.015,0.120
3.797,-0.010,0.110
3.800,-0.015,0.095
3.803,-0.035,0.075
3.806,-0.035,0.090
3.808,-0.035,0.100
3.811,-0.015,0.105
3.814,-0.020,0.095
3.817,-0.015,0.080
3.819,-0.030,0.080
3.822,-0.050,0.085
3.825,-0.035,0.110
3.828,-0.010,0.120
3.831,0.000,0.110
3.833,-0.020,0.095
3.836,-0.030,0.075
3.839,-0.045,0.090
3.842,-0.020,0.085
3.844,-0.010,0.100
3.847,-0.005,0.110
3.850,-0.015,0.100
3.853,-0.035,0.075
3.856,-0.035,0.085
3.858,-0.030,0.100
3.861,-0.005,0.100
3.864,-0.015,0.095
3.867,-0.010,0.070
3.869,-0.040,0.060
3.872,-0.040,0.075
3.875,-0.045,0.090
3.878,-0.050,0.100
3.881,-0.035,0.095
3.883,-0.035,0.060
3.886,-0.065,0.055
3.889,-0.055,0.065
3.892,-0.055,0.075
3.894,-0.030,0.105
3.897,-0.020,0.090
3.900,-0.040,0.075
3.903,-0.045,0.075
3.906,-0.040,0.070
3.908,-0.040,0.085
3.911,-0.035,0.100
3.914,-0.025,0.085
3.917,-0.035,0.075
3.919,-0.040,0.065
3.922,-0.050,0.075
3.925,-0.040,0.090
3.928,-0.025,0.095
3.931,-0.030,0.075
3.933,-0.025,0.070
3.936,-0.040,0.045
3.939,-0.065,0.070
3.942,-0.050,0.080
3.944,-0.020,0.085
3.947,-0.015,0.075
3.950,-0.030,0.065
3.953,-0.035,0.050
3.956,-0.050,0.070
3.958,-0.035,0.080
3.961,-0.020,0.090
3.964,-0.025,0.075
3.967,-0.035,0.065
3.969,-0.060,0.045
3.972,-0.065,0.050
3.975,-0.045,0.060
3.978,-0.025,0.085
3.981,-0.030,0.085
3.983,-0.035,0.065
3.986,-0.060,0.055
3.989,-0.055,0.065
3.992,-0.040,0.075
3.994,-0.030,0.085
3.997,-0.035,0.070
4.000,-0.035,0.060
4.003,-0.035,0.050
4.006,-0.045,0.060
4.008,-0.050,0.065
4.011,-0.030,0.090
4.014,-0.015,0.085
4.017,-0.040,0.075
4.019,-0.060,0.065
4.022,-0.055,0.070
4.025,-0.040,0.080
4.028,-0.035,0.095
4.031,-0.035,0.090
4.033,-0.045,0.075
4.036,-0.050,0.070
4.039,-0.050,0.075
4.042,-0.040,0.085
4.044,-0.020,0.085
4.047,-0.030,0.075
4.050,-0.040,0.060
4.053,-0.045,0.045
4.056,-0.050,0.070
4.058,-0.030,0.080
4.061,-0.020,0.090
4.064,-0.020,0.075
4.067,-0.035,0.075
4.069,-0.040,0.055
4.072,-0.045,0.055
4.075,-0.035,0.075
4.078,-0.025,0.080
4.081,-0.020,0.080
4.083,-0.025,0.065
4.086,-0.035,0.060
4.089,-0.050,0.070
4.092,-0.040,0.070
4.094,-0.045,0.100
4.097,-0.020,0.085
4.100,-0.025,0.065
4.103,-0.030,0.050
4.106,-0.045,0.070
4.108,-0.040,0.075
4.111,-0.015,0.085
4.114,-0.010,0.085
4.117,-0.025,0.065
4.119,-0.035,0.060
4.122,-0.040,0.060
4.125,-0.035,0.070
4.128,-0.010,0.095
4.131,-0.005,0.085
4.133,-0.020,0.075
4.136,-0.040,0.070
4.139,-0.035,0.060
4.142,-0.015,0.090
4.144,-0.020,0.095
4.147,-0.025,0.090
4.150,-0.010,0.080
4.153,-0.045,0.060
4.156,-0.035,0.055
4.158,-0.030,0.085
4.161,-0.010,0.090
4.164,-0.020,0.080
4.167,-0.015,0.070
4.169,-0.025,0.055
4.172,-0.020,0.060
4.175,-0.020,0.075
4.178,-0.005,0.080
4.181,0.005,0.070
4.183,-0.020,0.055
4.186,-0.030,0.030
4.189,-0.010,0.055
4.192,0.005,0.075
4.194,0.010,0.095
4.197,0.010,0.120
4.200,0.010,0.095
4.203,-0.015,0.100
4.206,-0.020,0.100
4.208,-0.020,0.125
4.211,-0.005,0.135
4.214,-0.010,0.125
4.217,0.010,0.120
4.219,0.005,0.105
4.222,0.030,0.115
4.225,0.040,0.130
4.228,0.055,0.135
4.231,0.075,0.115
4.233,0.075,0.105
4.236,0.060,0.095
4.239,0.050,0.105
4.242,0.055,0.120
4.244,0.075,0.135
4.247,0.070,0.115
4.250,0.060,0.100
4.253,0.050,0.085
4.256,0.030,0.095
4.258,0.035,0.100
4.261,0.040,0.110
4.264,0.035,0.100
4.267,0.020,0.085
4.269,0.000,0.080
4.272,-0.005,0.085
4.275,0.005,0.105
4.278,0.020,0.105
4.281,0.015,0.120
4.283,0.010,0.110
4.286,0.010,0.100
4.289,0.005,0.105
4.292,0.010,0.110
4.294,0.025,0.120
4.297,0.020,0.095
4.300,0.020,0.080
4.303,-0.005,0.070
4.306,-0.010,0.085
4.308,0.015,0.080
4.311,0.030,0.090
4.314,0.035,0.090
4.317,0.020,0.085
4.319,0.020,0.075
4.322,0.030,0.095
4.325,0.050,0.120
4.328,0.060,0.155
4.331,0.075,0.165
4.333,0.075,0.160
4.336,0.075,0.135
4.339,0.095,0.090
4.342,0.135,0.040
4.344,0.170,-0.050
4.347,0.200,-0.175
4.350,0.220,-0.295
4.353,0.295,-0.445
4.356,0.405,-0.590
4.358,0.540,-0.730
4.361,0.690,-0.850
4.364,0.835,-0.935
4.367,0.970,-0.940
4.369,1.065,-0.900
4.372,1.205,-0.800
4.375,1.360,-0.685
4.378,1.480,-0.530
4.381,1.515,-0.370
4.383,1.455,-0.225
4.386,1.315,-0.120
4.389,1.110,-0.010
4.392,0.875,0.065
4.394,0.700,0.090
4.397,0.515,0.060
4.400,0.335,0.020
4.403,0.175,-0.005
4.406,0.090,0.020
4.408,0.080,0.060
4.411,0.105,0.100
4.414,0.115,0.095
4.417,0.105,0.110
4.419,0.075,0.085
4.422,0.045,0.095
4.425,0.035,0.120
4.428,0.035,0.125
4.431,0.025,0.105
4.433,0.010,0.115
4.436,-0.020,0.105
4.439,-0.020,0.105
4.442,-0.020,0.125
4.444,-0.015,0.140
4.447,-0.005,0.145
4.450,-0.020,0.120
4.453,-0.035,0.120
4.456,-0.045,0.130
4.458,-0.040,0.135
4.461,-0.025,0.150
4.464,-0.030,0.140
4.467,-0.030,0.135
4.469,-0.045,0.105
4.472,-0.050,0.115
4.475,-0.050,0.130
4.478,-0.050,0.135
4.481,-0.045,0.150
4.483,-0.035,0.125
4.486,-0.060,0.120
4.489,-0.065,0.120
4.492,-0.060,0.130
4.494,-0.040,0.145
4.497,-0.030,0.135
4.500,-0.045,0.120
4.503,-0.045,0.105
4.506,-0.040,0.125
4.508,-0.030,0.125
4.511,-0.015,0.140
4.514,-0.015,0.140
4.517,-0.025,0.125
4.519,-0.025,0.110
4.522,-0.030,0.120
4.525,-0.025,0.125
4.528,-0.005,0.135
4.531,0.010,0.130
4.533,0.000,0.120
4.536,-0.015,0.120
4.539,-0.005,0.105
4.542,-0.005,0.115
4.544,0.020,0.120
4.547,0.010,0.135
4.550,0.015,0.105
4.553,0.000,0.095
4.556,0.010,0.090
4.558,0.025,0.115
4.561,0.055,0.110
4.564,0.060,0.095
4.567,0.055,0.085
4.569,0.055,0.075
4.572,0.055,0.085
4.575,0.060,0.090
4.578,0.090,0.110
4.581,0.090,0.095
4.583,0.095,0.070
4.586,0.100,0.050
4.589,0.085,0.060
4.592,0.120,0.065
4.594,0.145,0.075
4.597,0.150,0.060
4.600,0.145,0.040
4.603,0.150,0.030
4.606,0.150,0.030
4.608,0.180,0.040
4.611,0.200,0.025
4.614,0.210,0.025
4.617,0.220,0.010
4.619,0.220,0.010
4.622,0.220,0.000
4.625,0.240,0.005
4.628,0.255,0.015
4.631,0.285,0.000
4.633,0.275,-0.010
4.636,0.265,-0.015
4.639,0.275,-0.010
4.642,0.290,0.010
4.644,0.290,0.010
4.647,0.310,-0.005
4.650,0.320,-0.010
4.653,0.300,-0.005
4.656,0.290,-0.005
4.658,0.315,0.015
4.661,0.305,0.025
4.664,0.320,0.025
4.667,0.290,0.025
4.669,0.280,0.020
4.672,0.250,0.030
4.675,0.245,0.050
4.678,0.250,0.080
4.681,0.225,0.075
4.683,0.210,0.070
4.686,0.175,0.070
4.689,0.155,0.070
4.692,0.145,0.095
4.694,0.130,0.105
4.697,0.120,0.105
4.700,0.095,0.085
4.703,0.065,0.095
4.706,0.045,0.105
4.708,0.045,0.120
4.711,0.040,0.140
4.714,0.030,0.135
4.717,0.015,0.105
4.719,-0.010,0.110
4.722,-0.030,0.115
4.725,-0.020,0.125
4.728,-0.015,0.125
4.731,-0.020,0.125
4.733,-0.055,0.120
4.736,-0.060,0.095
4.739,-0.065,0.110
4.742,-0.080,0.125
4.744,-0.060,0.135
4.747,-0.045,0.130
4.750,-0.065,0.120
4.753,-0.080,0.110
4.756,-0.085,0.115
4.758,-0.080,0.115
4.761,-0.080,0.130
4.764,-0.085,0.135
4.767,-0.085,0.110
4.769,-0.080,0.110
4.772,-0.095,0.120
4.775,-0.080,0.125
4.778,-0.075,0.145
4.781,-0.075,0.130
4.783,-0.075,0.125
4.786,-0.090,0.120
4.789,-0.100,0.135
4.792,-0.085,0.140
4.794,-0.075,0.150
4.797,-0.070,0.140
4.800,-0.080,0.130
4.803,-0.095,0.130
4.806,-0.090,0.135
4.808,-0.085,0.145
4.811,-0.065,0.155
4.814,-0.065,0.145
4.817,-0.070,0.150
4.819,-0.085,0.130
4.822,-0.090,0.135
4.825,-0.080,0.145
4.828,-0.055,0.160
4.831,-0.075,0.150
4.833,-0.065,0.145
4.836,-0.090,0.120
4.839,-0.085,0.130
4.842,-0.075,0.145
4.844,-0.055,0.155
4.847,-0.055,0.145
4.850,-0.065,0.135
4.853,-0.085,0.120
4.856,-0.075,0.130
4.858,-0.065,0.140
4.861,-0.060,0.160
4.864,-0.055,0.145
4.867,-0.065,0.140
4.869,-0.075,0.115
4.872,-0.085,0.130
4.875,-0.065,0.145
4.878,-0.050,0.155
4.881,-0.065,0.150
4.883,-0.060,0.140
4.886,-0.070,0.125
4.889,-0.075,0.135
4.892,-0.075,0.145
4.894,-0.055,0.155
4.897,-0.050,0.155
4.900,-0.065,0.140
4.903,-0.075,0.130
4.906,-0.075,0.140
4.908,-0.070,0.145
4.911,-0.055,0.150
4.914,-0.060,0.145
4.917,-0.060,0.135
4.919,-0.075,0.135
4.922,-0.085,0.135
4.925,-0.080,0.150
4.928,-0.065,0.150
4.931,-0.050,0.145
4.933,-0.065,0.140
4.936,-0.080,0.130
4.939,-0.090,0.135
4.942,-0.075,0.140
4.944,-0.070,0.150
4.947,-0.040,0.150
4.950,-0.070,0.140
4.953,-0.075,0.130
4.956,-0.085,0.135
4.958,-0.075,0.150
4.961,-0.060,0.155
4.964,-0.045,0.150
4.967,-0.060,0.140
4.969,-0.090,0.125
4.972,-0.090,0.130
4.975,-0.075,0.140
4.978,-0.055,0.155
4.981,-0.055,0.145
4.983,-0.060,0.145
4.986,-0.070,0.145
4.989,-0.065,0.145
4.992,-0.060,0.155
4.994,-0.070,0.160
4.997,-0.060,0.150
5.000,-0.055,0.145
5.003,-0.070,0.120
5.006,-0.085,0.135
5.008,-0.075,0.150
5.011,-0.065,0.160
5.014,-0.055,0.160
5.017,-0.075,0.130
5.019,-0.085,0.120
5.022,-0.085,0.140
5.025,-0.080,0.145
5.028,-0.065,0.155
5.031,-0.065,0.135
5.033,-0.075,0.135
5.036,-0.085,0.115
5.039,-0.080,0.130
5.042,-0.070,0.125
5.044,-0.070,0.145
5.047,-0.080,0.155
5.050,-0.070,0.115
5.053,-0.080,0.125
5.056,-0.095,0.120
5.058,-0.070,0.140
5.061,-0.055,0.145
5.064,-0.055,0.130
5.067,-0.065,0.115
5.069,-0.085,0.120
5.072,-0.095,0.120
5.075,-0.075,0.135
5.078,-0.075,0.145
5.081,-0.065,0.135
5.083,-0.075,0.115
5.086,-0.080,0.115
5.089,-0.085,0.120
5.092,-0.070,0.125
5.094,-0.060,0.140
5.097,-0.055,0.130
5.100,-0.070,0.110
5.103,-0.095,0.105
5.106,-0.080,0.120
5.108,-0.075,0.135
5.111,-0.055,0.140
5.114,-0.055,0.140
5.117,-0.075,0.120
5.119,-0.075,0.105
5.122,-0.075,0.115
5.125,-0.075,0.120
5.128,-0.065,0.140
5.131,-0.065,0.120
5.133,-0.070,0.115
5.136,-0.095,0.105
5.139,-0.090,0.120
5.142,-0.075,0.135
5.144,-0.065,0.150
5.147,-0.075,0.130
5.150,-0.075,0.130
5.153,-0.085,0.115
5.156,-0.090,0.130
5.158,-0.075,0.130
5.161,-0.060,0.150
5.164,-0.055,0.140
5.167,-0.055,0.120
5.169,-0.075,0.130
5.172,-0.070,0.115
5.175,-0.065,0.130
5.178,-0.055,0.135
5.181,-0.065,0.130
5.183,-0.045,0.125
5.186,-0.065,0.120
5.189,-0.075,0.110
5.192,-0.065,0.115
5.194,-0.045,0.125
5.197,-0.040,0.115
5.200,-0.045,0.115
5.203,-0.070,0.105
5.206,-0.065,0.120
5.208,-0.060,0.130
5.211,-0.035,0.155
5.214,-0.035,0.130
5.217,-0.045,0.115
5.219,-0.065,0.105
5.222,-0.080,0.110
5.225,-0.065,0.125
5.228,-0.055,0.140
5.231,-0.060,0.110
5.233,-0.075,0.110
5.236,-0.065,0.115
5.239,-0.080,0.115
5.242,-0.060,0.115
5.244,-0.050,0.125
5.247,-0.035,0.115
5.250,-0.050,0.100
5.253,-0.065,0.095
5.256,-0.065,0.100
5.258,-0.070,0.125
5.261,-0.060,0.125
5.264,-0.045,0.125
5.267,-0.055,0.115
5.269,-0.060,0.105
5.272,-0.050,0.110
5.275,-0.060,0.120
5.278,-0.040,0.130
5.281,-0.040,0.120
5.283,-0.050,0.110
5.286,-0.080,0.110
5.289,-0.075,0.110
5.292,-0.085,0.130
5.294,-0.040,0.135
5.297,-0.040,0.125
5.300,-0.050,0.110
5.303,-0.060,0.095
5.306,-0.050,0.110
5.308,-0.040,0.115
5.311,-0.030,0.125
5.314,-0.015,0.100
5.317,-0.020,0.100
5.319,-0.035,0.085
5.322,-0.045,0.110
5.325,-0.030,0.135
5.328,-0.035,0.155
5.331,-0.035,0.145
5.333,-0.045,0.145
5.336,-0.055,0.145
5.339,-0.065,0.150
5.342,-0.045,0.155
5.344,-0.025,0.170
5.347,-0.010,0.160
5.350,0.010,0.130
5.353,0.000,0.125
5.356,0.010,0.115
5.358,0.015,0.110
5.361,0.025,0.135
5.364,0.030,0.125
5.367,0.010,0.115
5.369,0.005,0.100
5.372,0.010,0.120
5.375,0.015,0.135
5.378,0.020,0.140
5.381,0.015,0.120
5.383,-0.005,0.105
5.386,-0.020,0.095
5.389,-0.035,0.105
5.392,-0.025,0.120
5.394,-0.035,0.120
5.397,-0.030,0.120
5.400,-0.050,0.110
5.403,-0.055,0.095
5.406,-0.060,0.100
5.408,-0.050,0.110
5.411,-0.050,0.125
5.414,-0.035,0.125
5.417,-0.040,0.105
5.419,-0.060,0.100
5.422,-0.060,0.085
5.425,-0.050,0.105
5.428,-0.030,0.115
5.431,-0.035,0.115
5.433,-0.055,0.105
5.436,-0.055,0.085
5.439,-0.065,0.110
5.442,-0.055,0.105
5.444,-0.035,0.135
5.447,-0.020,0.135
5.450,-0.010,0.140
5.453,-0.010,0.140
5.456,-0.025,0.155
5.458,0.020,0.145
5.461,0.055,0.130
5.464,0.095,0.025
5.467,0.100,-0.085
5.469,0.130,-0.195
5.472,0.190,-0.315
5.475,0.290,-0.430
5.478,0.405,-0.570
5.481,0.510,-0.725
5.483,0.635,-0.860
5.486,0.750,-0.945
5.489,0.875,-0.965
5.492,1.000,-0.900
5.494,1.145,-0.815
5.497,1.270,-0.695
5.500,1.350,-0.545
5.503,1.335,-0.365
5.506,1.240,-0.195
5.508,1.095,-0.060
5.511,0.915,0.030
5.514,0.700,0.050
5.517,0.510,0.045
5.519,0.335,0.000
5.522,0.195,0.025
5.525,0.105,0.045
5.528,0.085,0.095
5.531,0.080,0.110
5.533,0.055,0.110
5.536,0.045,0.110
5.539,0.030,0.110
5.542,0.005,0.125
5.544,-0.015,0.150
5.547,-0.030,0.145
5.550,-0.055,0.140
5.553,-0.070,0.130
5.556,-0.080,0.140
5.558,-0.075,0.155
5.561,-0.070,0.165
5.564,-0.065,0.175
5.567,-0.075,0.150
5.569,-0.110,0.145
5.572,-0.100,0.145
5.575,-0.095,0.160
5.578,-0.085,0.170
5.581,-0.085,0.165
5.583,-0.095,0.150
5.586,-0.110,0.140
5.589,-0.110,0.155
5.592,-0.105,0.150
5.594,-0.100,0.160
5.597,-0.090,0.160
5.600,-0.100,0.150
5.603,-0.115,0.150
5.606,-0.115,0.145
5.608,-0.115,0.155
5.611,-0.100,0.175
5.614,-0.100,0.155
5.617,-0.090,0.145
5.619,-0.110,0.125
5.622,-0.110,0.140
5.625,-0.100,0.165
5.628,-0.100,0.170
5.631,-0.090,0.150
5.633,-0.080,0.140
5.636,-0.095,0.125
5.639,-0.090,0.130
5.642,-0.085,0.145
5.644,-0.060,0.165
5.647,-0.055,0.150
5.650,-0.065,0.145
5.653,-0.070,0.135
5.656,-0.065,0.135
5.658,-0.060,0.140
5.661,-0.035,0.150
5.664,-0.030,0.140
5.667,-0.025,0.130
5.669,-0.040,0.115
5.672,-0.045,0.125
5.675,-0.025,0.120
5.678,-0.005,0.135
5.681,0.010,0.115
5.683,0.005,0.100
5.686,-0.005,0.095
5.689,-0.005,0.090
5.692,0.015,0.100
5.694,0.035,0.105
5.697,0.050,0.085
5.700,0.050,0.080
5.703,0.050,0.065
5.706,0.060,0.065
5.708,0.060,0.085
5.711,0.100,0.095
5.714,0.120,0.070
5.717,0.125,0.050
5.719,0.120,0.040
5.722,0.135,0.045
5.725,0.155,0.060
5.728,0.190,0.055
5.731,0.190,0.040
5.733,0.195,0.025
5.736,0.195,0.015
5.739,0.195,0.010
5.742,0.220,0.010
5.744,0.245,0.025
5.747,0.250,0.015
5.750,0.250,0.005
5.753,0.245,0.000
5.756,0.260,0.005
5.758,0.275,0.010
5.761,0.295,0.020
5.764,0.300,0.035
5.767,0.290,0.025
5.769,0.270,0.015
5.772,0.260,0.035
5.775,0.265,0.060
5.778,0.260,0.075
5.781,0.250,0.070
5.783,0.220,0.075
5.786,0.175,0.060
5.789,0.160,0.085
5.792,0.150,0.100
5.794,0.145,0.115
5.797,0.120,0.110
5.800,0.090,0.105
5.803,0.055,0.095
5.806,0.025,0.100
5.808,0.010,0.105
5.811,0.010,0.115
5.814,-0.005,0.115
5.817,-0.010,0.115
5.819,-0.035,0.105
5.822,-0.055,0.100
5.825,-0.045,0.115
5.828,-0.050,0.130
5.831,-0.050,0.120
5.833,-0.070,0.125
5.836,-0.100,0.095
5.839,-0.100,0.105
5.842,-0.100,0.125
5.844,-0.080,0.125
5.847,-0.085,0.115
5.850,-0.095,0.105
5.853,-0.110,0.085
5.856,-0.120,0.095
5.858,-0.115,0.115
5.861,-0.110,0.120
5.864,-0.115,0.115
5.867,-0.110,0.105
5.869,-0.120,0.095
5.872,-0.140,0.110
5.875,-0.125,0.115
5.878,-0.105,0.130
5.881,-0.095,0.115
5.883,-0.105,0.110
5.886,-0.120,0.105
5.889,-0.135,0.110
5.892,-0.115,0.115
5.894,-0.095,0.130
5.897,-0.095,0.120
5.900,-0.105,0.125
5.903,-0.110,0.100
5.906,-0.120,0.125
5.908,-0.100,0.140
5.911,-0.095,0.135
5.914,-0.085,0.140
5.917,-0.105,0.130
5.919,-0.110,0.125
5.922,-0.120,0.130
5.925,-0.100,0.145
5.928,-0.090,0.150
5.931,-0.090,0.140
5.933,-0.095,0.130
5.936,-0.115,0.120
5.939,-0.115,0.130
5.942,-0.100,0.150
5.944,-0.100,0.160
5.947,-0.095,0.150
5.950,-0.105,0.130
5.953,-0.115,0.120
5.956,-0.120,0.130
5.958,-0.120,0.140
5.961,-0.105,0.150
5.964,-0.100,0.150
5.967,-0.105,0.120
5.969,-0.105,0.115
5.972,-0.125,0.135
5.975,-0.110,0.145
5.978,-0.095,0.145
5.981,-0.095,0.145
5.983,-0.110,0.120
5.986,-0.125,0.110
5.989,-0.105,0.115
5.992,-0.105,0.135
5.994,-0.090,0.145
5.997,-0.090,0.130
6.000,-0.095,0.120
6.003,-0.115,0.110
6.006,-0.120,0.120
6.008,-0.115,0.140
6.011,-0.100,0.130
6.014,-0.105,0.135
6.017,-0.095,0.115
6.019,-0.110,0.110
6.022,-0.125,0.105
6.025,-0.110,0.125
6.028,-0.095,0.135
6.031,-0.100,0.125
6.033,-0.105,0.110
6.036,-0.110,0.115
6.039,-0.120,0.105
6.042,-0.110,0.130
6.044,-0.115,0.135
6.047,-0.110,0.120
6.050,-0.110,0.110
6.053,-0.130,0.100
6.056,-0.130,0.100
6.058,-0.120,0.110
6.061,-0.105,0.120
6.064,-0.115,0.120
6.067,-0.110,0.120
6.069,-0.125,0.100
6.072,-0.135,0.105
6.075,-0.140,0.115
6.078,-0.120,0.115
6.081,-0.120,0.110
6.083,-0.130,0.105
6.086,-0.140,0.075
6.089,-0.150,0.080
6.092,-0.130,0.105
6.094,-0.125,0.110
6.097,-0.115,0.105
6.100,-0.130,0.105
6.103,-0.140,0.090
6.106,-0.130,0.085
6.108,-0.125,0.105
6.111,-0.110,0.115
6.114,-0.125,0.120
6.117,-0.120,0.105
6.119,-0.125,0.090
6.122,-0.140,0.085
6.125,-0.125,0.100
6.128,-0.115,0.110
6.131,-0.120,0.100
6.133,-0.120,0.085
6.136,-0.135,0.075
6.139,-0.125,0.090
6.142,-0.120,0.105
6.144,-0.105,0.120
6.147,-0.105,0.105
6.150,-0.125,0.085
6.153,-0.135,0.070
6.156,-0.125,0.085
6.158,-0.135,0.090
6.161,-0.115,0.105
6.164,-0.110,0.095
6.167,-0.135,0.090
6.169,-0.140,0.070
6.172,-0.150,0.070
6.175,-0.130,0.090
6.178,-0.120,0.090
6.181,-0.110,0.100
6.183,-0.125,0.085
6.186,-0.140,0.060
6.189,-0.140,0.070
6.192,-0.135,0.085
6.194,-0.120,0.085
6.197,-0.115,0.085
6.200,-0.120,0.075
6.203,-0.135,0.075
6.206,-0.155,0.080
6.208,-0.145,0.095
6.211,-0.105,0.095
6.214,-0.110,0.090
6.217,-0.130,0.085
6.219,-0.145,0.075
6.222,-0.140,0.075
6.225,-0.130,0.085
6.228,-0.120,0.090
6.231,-0.120,0.090
6.233,-0.125,0.080
6.236,-0.145,0.065
6.239,-0.140,0.090
6.242,-0.135,0.085
6.244,-0.115,0.090
6.247,-0.115,0.080
6.250,-0.120,0.070
6.253,-0.135,0.055
6.256,-0.125,0.075
6.258,-0.125,0.080
6.261,-0.115,0.085
6.264,-0.115,0.090
6.267,-0.120,0.065
6.269,-0.140,0.060
6.272,-0.140,0.070
6.275,-0.130,0.090
6.278,-0.130,0.090
6.281,-0.110,0.085
6.283,-0.125,0.070
6.286,-0.130,0.065
6.289,-0.140,0.065
6.292,-0.130,0.075
6.294,-0.110,0.080
6.297,-0.110,0.075
6.300,-0.120,0.055
6.303,-0.140,0.055
6.306,-0.140,0.060
6.308,-0.130,0.060
6.311,-0.110,0.080
6.314,-0.105,0.070
6.317,-0.110,0.060
6.319,-0.130,0.045
6.322,-0.160,0.050
6.325,-0.135,0.065
6.328,-0.125,0.080
6.331,-0.100,0.075
6.333,-0.115,0.040
6.336,-0.145,0.040
6.339,-0.130,0.060
6.342,-0.120,0.065
6.344,-0.100,0.075
6.347,-0.105,0.065
6.350,-0.100,0.050
6.353,-0.120,0.040
6.356,-0.125,0.050
6.358,-0.120,0.055
6.361,-0.100,0.065
6.364,-0.090,0.070
6.367,-0.100,0.055
6.369,-0.115,0.030
6.372,-0.130,0.045
6.375,-0.120,0.040
6.378,-0.095,0.065
6.381,-0.100,0.055
6.383,-0.115,0.035
6.386,-0.125,0.035
6.389,-0.110,0.040
6.392,-0.100,0.045
6.394,-0.085,0.065
6.397,-0.095,0.055
6.400,-0.090,0.060
6.403,-0.095,0.060
6.406,-0.100,0.070
6.408,-0.095,0.095
6.411,-0.095,0.100
6.414,-0.095,0.095
6.417,-0.095,0.100
6.419,-0.095,0.085
6.422,-0.085,0.085
6.425,-0.060,0.090
6.428,-0.045,0.110
6.431,-0.030,0.100
6.433,-0.020,0.075
6.436,-0.025,0.055
6.439,-0.025,0.070
6.442,-0.020,0.085
6.444,-0.010,0.090
6.447,-0.010,0.075
6.450,-0.010,0.075
6.453,-0.045,0.055
6.456,-0.050,0.065
6.458,-0.035,0.060
6.461,-0.035,0.070
6.464,-0.035,0.065
6.467,-0.050,0.055
6.469,-0.065,0.040
6.472,-0.090,0.045
6.475,-0.075,0.060
6.478,-0.045,0.065
6.481,-0.045,0.065
6.483,-0.055,0.045
6.486,-0.075,0.045
6.489,-0.065,0.045
6.492,-0.070,0.050
6.494,-0.060,0.055
6.497,-0.040,0.055
6.500,-0.055,0.040
6.503,-0.055,0.040
6.506,-0.060,0.025
6.508,-0.060,0.040
6.511,-0.035,0.055
6.514,-0.040,0.050
6.517,-0.045,0.035
6.519,-0.045,0.050
6.522,-0.045,0.065
6.525,-0.030,0.090
6.528,0.000,0.115
6.531,0.005,0.090
6.533,0.025,0.045
6.536,0.030,-0.040
6.539,0.070,-0.145
6.542,0.115,-0.250
6.544,0.190,-0.380
6.547,0.265,-0.520
6.550,0.395,-0.680
6.553,0.520,-0.835
6.556,0.665,-0.940
6.558,0.840,-0.960
6.561,0.990,-0.925
6.564,1.135,-0.845
6.567,1.265,-0.765
6.569,1.370,-0.645
6.572,1.430,-0.485
6.575,1.400,-0.335
6.578,1.275,-0.200
6.581,1.060,-0.090
6.583,0.815,-0.025
6.586,0.600,-0.015
6.589,0.400,-0.010
6.592,0.230,-0.030
6.594,0.105,-0.030
6.597,0.030,-0.015
6.600,0.005,-0.010
6.603,-0.005,0.000
6.606,-0.010,0.020
6.608,0.000,0.050
6.611,-0.005,0.055
6.614,-0.015,0.060
6.617,-0.045,0.050
6.619,-0.075,0.055
6.622,-0.095,0.060
6.625,-0.100,0.075
6.628,-0.095,0.090
6.631,-0.095,0.090
6.633,-0.095,0.070
6.636,-0.125,0.060
6.639,-0.125,0.080
6.642,-0.125,0.080
6.644,-0.110,0.095
6.647,-0.105,0.105
6.650,-0.115,0.095
6.653,-0.135,0.070
6.656,-0.135,0.080
6.658,-0.125,0.100
6.661,-0.110,0.110
6.664,-0.115,0.080
6.667,-0.115,0.080
6.669,-0.135,0.065
6.672,-0.140,0.085
6.675,-0.130,0.095
6.678,-0.115,0.115
6.681,-0.125,0.105
6.683,-0.115,0.080
6.686,-0.135,0.080
6.689,-0.125,0.085
6.692,-0.120,0.095
6.694,-0.105,0.105
6.697,-0.105,0.095
6.700,-0.110,0.090
6.703,-0.105,0.075
6.706,-0.110,0.080
6.708,-0.095,0.095
6.711,-0.085,0.105
6.714,-0.085,0.100
6.717,-0.080,0.080
6.719,-0.080,0.060
6.722,-0.090,0.075
6.725,-0.075,0.080
6.728,-0.060,0.090
6.731,-0.050,0.080
6.733,-0.050,0.055
6.736,-0.060,0.050
6.739,-0.075,0.060
6.742,-0.045,0.060
6.744,-0.050,0.055
6.747,-0.035,0.060
6.750,-0.045,0.040
6.753,-0.045,0.030
6.756,-0.045,0.040
6.758,-0.020,0.045
6.761,0.000,0.060
6.764,0.005,0.040
6.767,0.010,0.020
6.769,0.005,0.010
6.772,0.005,0.005
6.775,0.030,0.010
6.778,0.055,0.025
6.781,0.075,0.010
6.783,0.070,0.000
6.786,0.075,-0.020
6.789,0.080,0.000
6.792,0.100,-0.005
6.794,0.130,0.005
6.797,0.140,-0.010
6.800,0.140,-0.015
6.803,0.140,-0.040
6.806,0.155,-0.030
6.808,0.175,-0.025
6.811,0.200,-0.025
6.814,0.210,-0.035
6.817,0.205,-0.045
6.819,0.195,-0.060
6.822,0.190,-0.045
6.825,0.210,-0.040
6.828,0.240,-0.025
6.831,0.255,-0.030
6.833,0.245,-0.030
6.836,0.245,-0.040
6.839,0.230,-0.020
6.842,0.240,-0.005
6.844,0.250,0.010
6.847,0.240,0.010
6.850,0.225,0.010
6.853,0.195,0.000
6.856,0.175,0.010
6.858,0.160,0.035
6.861,0.140,0.050
6.864,0.130,0.050
6.867,0.115,0.055
6.869,0.080,0.045
6.872,0.055,0.060
6.875,0.040,0.065
6.878,0.045,0.090
6.881,0.030,0.075
6.883,0.005,0.070
6.886,-0.020,0.055
6.889,-0.045,0.075
6.892,-0.045,0.075
6.894,-0.045,0.095
6.897,-0.060,0.090
6.900,-0.080,0.075
6.903,-0.085,0.075
6.906,-0.090,0.075
6.908,-0.080,0.090
6.911,-0.090,0.100
6.914,-0.090,0.105
6.917,-0.105,0.085
6.919,-0.105,0.075
6.922,-0.115,0.075
6.925,-0.115,0.090
6.928,-0.100,0.105
6.931,-0.095,0.090
6.933,-0.100,0.090
6.936,-0.120,0.080
6.939,-0.120,0.080
6.942,-0.120,0.095
6.944,-0.110,0.100
6.947,-0.100,0.105
6.950,-0.115,0.090
6.953,-0.130,0.075
6.956,-0.130,0.085
6.958,-0.125,0.105
6.961,-0.110,0.125
6.964,-0.120,0.120
6.967,-0.120,0.095
6.969,-0.120,0.100
6.972,-0.125,0.110
6.975,-0.115,0.115
6.978,-0.110,0.120
6.981,-0.095,0.120
6.983,-0.100,0.100
6.986,-0.115,0.095
6.989,-0.135,0.105
6.992,-0.125,0.110
6.994,-0.095,0.140
6.997,-0.100,0.125
7.000,-0.100,0.115
7.003,-0.120,0.105
7.006,-0.120,0.115
7.008,-0.110,0.115
7.011,-0.080,0.130
7.014,-0.085,0.125
7.017,-0.090,0.100
7.019,-0.105,0.090
7.022,-0.120,0.100
7.025,-0.100,0.120
7.028,-0.095,0.130
7.031,-0.085,0.135
7.033,-0.100,0.115
7.036,-0.105,0.100
7.039,-0.120,0.110
7.042,-0.115,0.120
7.044,-0.110,0.125
7.047,-0.110,0.120
7.050,-0.110,0.105
7.053,-0.120,0.095
7.056,-0.125,0.100
7.058,-0.115,0.110
7.061,-0.110,0.125
7.064,-0.110,0.130
7.067,-0.130,0.100
7.069,-0.120,0.105
7.072,-0.135,0.110
7.075,-0.115,0.115
7.078,-0.110,0.120
7.081,-0.105,0.125
7.083,-0.105,0.100
7.086,-0.135,0.100
7.089,-0.145,0.105
7.092,-0.120,0.125
7.094,-0.110,0.120
7.097,-0.115,0.115
7.100,-0.130,0.100
7.103,-0.150,0.100
7.106,-0.140,0.105
7.108,-0.120,0.110
7.111,-0.120,0.120
7.114,-0.100,0.130
7.117,-0.120,0.095
7.119,-0.130,0.105
7.122,-0.135,0.120
7.125,-0.125,0.115
7.128,-0.110,0.125
7.131,-0.110,0.120
7.133,-0.130,0.110
7.136,-0.135,0.100
7.139,-0.130,0.105
7.142,-0.120,0.115
7.144,-0.110,0.130
7.147,-0.100,0.125
7.150,-0.110,0.110
7.153,-0.130,0.095
7.156,-0.135,0.110
7.158,-0.125,0.125
7.161,-0.120,0.125
7.164,-0.110,0.125
7.167,-0.110,0.110
7.169,-0.125,0.105
7.172,-0.135,0.115
7.175,-0.125,0.120
7.178,-0.105,0.135
7.181,-0.110,0.135
7.183,-0.110,0.130
7.186,-0.135,0.115
7.189,-0.125,0.120
7.192,-0.125,0.135
7.194,-0.120,0.150
7.197,-0.120,0.140
7.200,-0.110,0.115
7.203,-0.125,0.110
7.206,-0.145,0.125
7.208,-0.105,0.135
7.211,-0.105,0.125
7.214,-0.115,0.140
7.217,-0.120,0.130
7.219,-0.125,0.110
7.222,-0.120,0.115
7.225,-0.110,0.135
7.228,-0.110,0.150
7.231,-0.095,0.135
7.233,-0.110,0.130
7.236,-0.125,0.105
7.239,-0.125,0.115
7.242,-0.115,0.130
7.244,-0.115,0.140
7.247,-0.100,0.130
7.250,-0.100,0.120
7.253,-0.130,0.110
7.256,-0.140,0.120
7.258,-0.125,0.130
7.261,-0.105,0.145
7.264,-0.105,0.130
7.267,-0.100,0.105
7.269,-0.105,0.105
7.272,-0.115,0.110
7.275,-0.110,0.135
7.278,-0.100,0.140
7.281,-0.105,0.130
7.283,-0.110,0.125
7.286,-0.125,0.110
7.289,-0.120,0.120
7.292,-0.105,0.135
7.294,-0.100,0.145
7.297,-0.100,0.130
7.300,-0.100,0.125
7.303,-0.120,0.110
7.306,-0.135,0.120
7.308,-0.110,0.135
7.311,-0.110,0.140
7.314,-0.100,0.125
7.317,-0.115,0.125
7.319,-0.110,0.120
7.322,-0.115,0.120
7.325,-0.105,0.135
7.328,-0.080,0.150
7.331,-0.080,0.130
7.333,-0.100,0.125
7.336,-0.100,0.105
7.339,-0.120,0.120
7.342,-0.095,0.125
7.344,-0.085,0.140
7.347,-0.090,0.135
7.350,-0.095,0.110
7.353,-0.110,0.105
7.356,-0.100,0.115
7.358,-0.110,0.130
7.361,-0.090,0.140
7.364,-0.090,0.135
7.367,-0.095,0.120
7.369,-0.105,0.105
7.372,-0.110,0.125
7.375,-0.095,0.135
7.378,-0.095,0.150
7.381,-0.095,0.140
7.383,-0.090,0.120
7.386,-0.105,0.105
7.389,-0.105,0.120
7.392,-0.095,0.130
7.394,-0.075,0.160
7.397,-0.080,0.125
7.400,-0.080,0.125
7.403,-0.105,0.125
7.406,-0.095,0.130
7.408,-0.080,0.130
7.411,-0.085,0.150
7.414,-0.075,0.140
7.417,-0.070,0.125
7.419,-0.090,0.115
7.422,-0.090,0.130
7.425,-0.075,0.135
7.428,-0.065,0.155
7.431,-0.065,0.145
7.433,-0.080,0.135
7.436,-0.090,0.125
7.439,-0.080,0.120
7.442,-0.075,0.135
7.444,-0.065,0.160
7.447,-0.055,0.145
7.450,-0.065,0.120
7.453,-0.080,0.120
7.456,-0.070,0.120
7.458,-0.080,0.135
7.461,-0.050,0.145
7.464,-0.055,0.125
7.467,-0.060,0.110
7.469,-0.065,0.100
7.472,-0.080,0.120
7.475,-0.065,0.125
7.478,-0.040,0.135
7.481,-0.045,0.130
7.483,-0.045,0.135
7.486,-0.065,0.120
7.489,-0.060,0.140
7.492,-0.060,0.155
7.494,-0.055,0.170
7.497,-0.060,0.170
7.500,-0.060,0.155
7.503,-0.065,0.150
7.506,-0.060,0.155
7.508,-0.050,0.165
7.511,-0.020,0.175
7.514,0.005,0.150
7.517,-0.005,0.130
7.519,-0.010,0.130
7.522,-0.020,0.140
7.525,-0.005,0.140
7.528,-0.010,0.150
7.531,0.000,0.145
7.533,-0.005,0.125
7.536,-0.025,0.115
7.539,-0.040,0.120
7.542,-0.030,0.135
7.544,-0.025,0.140
7.547,-0.025,0.135
7.550,-0.040,0.125
7.553,-0.065,0.110
7.556,-0.080,0.120
7.558,-0.090,0.145
7.561,-0.060,0.135
7.564,-0.060,0.145
7.567,-0.060,0.130
7.569,-0.070,0.120
7.572,-0.070,0.120
7.575,-0.065,0.125
7.578,-0.040,0.150
7.581,-0.035,0.130
7.583,-0.040,0.115
7.586,-0.050,0.100
7.589,-0.065,0.125
7.592,-0.055,0.150
7.594,-0.030,0.140
7.597,-0.025,0.140
7.600,-0.025,0.130
7.603,-0.040,0.125
7.606,-0.030,0.155
7.608,-0.020,0.185
7.611,0.000,0.200
7.614,0.015,0.185
7.617,0.035,0.150
7.619,0.035,0.090
7.622,0.065,0.000
7.625,0.115,-0.085
7.628,0.165,-0.185
7.631,0.250,-0.305
7.633,0.335,-0.460
7.636,0.430,-0.605
7.639,0.545,-0.745
7.642,0.670,-0.850
7.644,0.820,-0.900
7.647,0.955,-0.905
7.650,1.050,-0.855
7.653,1.130,-0.785
7.656,1.240,-0.665
7.658,1.325,-0.485
7.661,1.315,-0.305
7.664,1.210,-0.155
7.667,1.050,-0.060
7.669,0.850,0.005
7.672,0.650,0.035
7.675,0.475,0.050
7.678,0.340,0.045
7.681,0.215,0.050
7.683,0.125,0.070
7.686,0.055,0.075
7.689,0.045,0.110
7.692,0.050,0.135
7.694,0.050,0.160
7.697,0.040,0.160
7.700,0.015,0.150
7.703,-0.030,0.150
7.706,-0.040,0.150
7.708,-0.055,0.175
7.711,-0.060,0.175
7.714,-0.070,0.180
7.717,-0.100,0.165
7.719,-0.100,0.145
7.722,-0.130,0.155
7.725,-0.135,0.175
7.728,-0.110,0.190
7.731,-0.125,0.180
7.733,-0.135,0.170
7.736,-0.145,0.160
7.739,-0.170,0.165
7.742,-0.160,0.180
7.744,-0.140,0.180
7.747,-0.130,0.180
7.750,-0.140,0.175
7.753,-0.150,0.165
7.756,-0.155,0.170
7.758,-0.135,0.185
7.761,-0.130,0.205
7.764,-0.140,0.205
7.767,-0.140,0.170
7.769,-0.140,0.160
7.772,-0.135,0.180
7.775,-0.125,0.190
7.778,-0.115,0.205
7.781,-0.100,0.205
7.783,-0.110,0.180
7.786,-0.135,0.165
7.789,-0.125,0.175
7.792,-0.105,0.185
7.794,-0.110,0.195
7.797,-0.100,0.185
7.800,-0.095,0.175
7.803,-0.105,0.160
7.806,-0.100,0.170
7.808,-0.095,0.180
7.811,-0.070,0.185
7.814,-0.055,0.170
7.817,-0.070,0.155
7.819,-0.095,0.155
7.822,-0.075,0.145
7.825,-0.060,0.160
7.828,-0.050,0.165
7.831,-0.040,0.180
7.833,-0.040,0.150
7.836,-0.055,0.135
7.839,-0.035,0.130
7.842,-0.035,0.160
7.844,0.000,0.160
7.847,0.020,0.155
7.850,0.020,0.135
7.853,0.010,0.125
7.856,0.010,0.125
7.858,0.035,0.140
7.861,0.055,0.140
7.864,0.065,0.130
7.867,0.060,0.110
7.869,0.070,0.095
7.872,0.065,0.090
7.875,0.090,0.100
7.878,0.120,0.100
7.881,0.130,0.105
7.883,0.125,0.080
7.886,0.125,0.055
7.889,0.125,0.060
7.892,0.135,0.070
7.894,0.160,0.075
7.897,0.185,0.060
7.900,0.185,0.045
7.903,0.175,0.020
7.906,0.185,0.035
7.908,0.195,0.055
7.911,0.240,0.065
7.914,0.255,0.060
7.917,0.255,0.045
7.919,0.220,0.040
7.922,0.230,0.035
7.925,0.230,0.070
7.928,0.250,0.090
7.931,0.245,0.075
7.933,0.225,0.070
7.936,0.210,0.065
7.939,0.190,0.075
7.942,0.195,0.095
7.944,0.180,0.105
7.947,0.170,0.120
7.950,0.140,0.115
7.953,0.105,0.110
7.956,0.085,0.115
7.958,0.075,0.125
7.961,0.065,0.140
7.964,0.045,0.135
7.967,0.030,0.130
7.969,-0.010,0.125
7.972,-0.035,0.135
7.975,-0.040,0.145
7.978,-0.040,0.155
7.981,-0.040,0.150
7.983,-0.060,0.140
7.986,-0.085,0.135
7.989,-0.095,0.140
7.992,-0.100,0.140
7.994,-0.100,0.155
7.997,-0.100,0.155
8.000,-0.115,0.140
8.003,-0.135,0.135
8.006,-0.145,0.140
8.008,-0.140,0.150
8.011,-0.140,0.160
8.014,-0.135,0.150
8.017,-0.140,0.130
8.019,-0.145,0.125
8.022,-0.160,0.130
8.025,-0.160,0.140
8.028,-0.145,0.150
8.031,-0.140,0.140
8.033,-0.155,0.130
8.036,-0.165,0.120
8.039,-0.170,0.125
8.042,-0.165,0.145
8.044,-0.145,0.150
8.047,-0.160,0.140
8.050,-0.155,0.125
8.053,-0.165,0.120
8.056,-0.185,0.120
8.058,-0.170,0.145
8.061,-0.160,0.145
8.064,-0.140,0.150
8.067,-0.150,0.145
8.069,-0.165,0.130
8.072,-0.175,0.140
8.075,-0.175,0.155
8.078,-0.165,0.165
8.081,-0.145,0.150
8.083,-0.155,0.140
8.086,-0.165,0.135
8.089,-0.185,0.145
8.092,-0.170,0.165
8.094,-0.155,0.185
8.097,-0.145,0.170
8.100,-0.155,0.165
8.103,-0.170,0.150
8.106,-0.165,0.155
8.108,-0.160,0.165
8.111,-0.145,0.175
8.114,-0.135,0.165
8.117,-0.145,0.155
8.119,-0.165,0.135
8.122,-0.170,0.150
8.125,-0.150,0.175
8.128,-0.140,0.185
8.131,-0.125,0.175
8.133,-0.140,0.155
8.136,-0.155,0.150
8.139,-0.155,0.165
8.142,-0.140,0.165
8.144,-0.130,0.180
8.147,-0.125,0.170
8.150,-0.135,0.150
8.153,-0.160,0.135
8.156,-0.155,0.155
8.158,-0.155,0.165
8.161,-0.135,0.170
8.164,-0.135,0.175
8.167,-0.130,0.150
8.169,-0.150,0.145
8.172,-0.160,0.165
8.175,-0.155,0.160
8.178,-0.145,0.175
8.181,-0.125,0.175
8.183,-0.135,0.140
8.186,-0.160,0.145
8.189,-0.160,0.150
8.192,-0.145,0.160
8.194,-0.135,0.165
8.197,-0.140,0.165
8.200,-0.150,0.145
8.203,-0.165,0.135
8.206,-0.165,0.130
8.208,-0.175,0.155
8.211,-0.145,0.160
8.214,-0.150,0.155
8.217,-0.145,0.140
8.219,-0.175,0.125
8.222,-0.170,0.145
8.225,-0.160,0.135
8.228,-0.150,0.155
8.231,-0.140,0.140
8.233,-0.160,0.140
8.236,-0.180,0.130
8.239,-0.175,0.135
8.242,-0.165,0.155
8.244,-0.150,0.140
8.247,-0.145,0.145
8.250,-0.165,0.130
8.253,-0.175,0.125
8.256,-0.180,0.130
8.258,-0.175,0.135
8.261,-0.160,0.145
8.264,-0.155,0.135
8.267,-0.180,0.120
8.269,-0.190,0.125
8.272,-0.190,0.120
8.275,-0.175,0.150
8.278,-0.160,0.140
8.281,-0.155,0.120
8.283,-0.165,0.110
8.286,-0.180,0.125
8.289,-0.185,0.115
8.292,-0.175,0.135
8.294,-0.165,0.135
8.297,-0.160,0.135
8.300,-0.170,0.110
8.303,-0.180,0.100
8.306,-0.190,0.115
8.308,-0.175,0.125
8.311,-0.175,0.125
8.314,-0.155,0.130
8.317,-0.175,0.110
8.319,-0.185,0.110
8.322,-0.190,0.105
8.325,-0.160,0.120
8.328,-0.150,0.140
8.331,-0.160,0.130
8.333,-0.165,0.110
8.336,-0.170,0.105
8.339,-0.175,0.095
8.342,-0.170,0.115
8.344,-0.165,0.135
8.347,-0.155,0.130
8.350,-0.175,0.125
8.353,-0.180,0.100
8.356,-0.185,0.110
8.358,-0.155,0.110
8.361,-0.145,0.125
8.364,-0.145,0.140
8.367,-0.150,0.120
8.369,-0.165,0.100
8.372,-0.175,0.115
8.375,-0.155,0.130
8.378,-0.150,0.140
8.381,-0.145,0.135
8.383,-0.140,0.110
8.386,-0.155,0.110
8.389,-0.160,0.105
8.392,-0.140,0.115
8.394,-0.135,0.125
8.397,-0.135,0.130
8.400,-0.140,0.105
8.403,-0.170,0.100
8.406,-0.150,0.105
8.408,-0.140,0.120
8.411,-0.135,0.125
8.414,-0.130,0.125
8.417,-0.130,0.100
8.419,-0.135,0.105
8.422,-0.160,0.110
8.425,-0.150,0.115
8.428,-0.125,0.125
8.431,-0.125,0.130
8.433,-0.135,0.115
8.436,-0.150,0.095
8.439,-0.150,0.110
8.442,-0.135,0.110
8.444,-0.120,0.135
8.447,-0.125,0.120
8.450,-0.120,0.105
8.453,-0.155,0.095
8.456,-0.145,0.100
8.458,-0.145,0.115
8.461,-0.125,0.130
8.464,-0.135,0.120
8.467,-0.130,0.110
8.469,-0.150,0.100
8.472,-0.145,0.110
8.475,-0.135,0.115
8.478,-0.120,0.135
8.481,-0.125,0.135
8.483,-0.120,0.110
8.486,-0.145,0.105
8.489,-0.145,0.100
8.492,-0.125,0.115
8.494,-0.115,0.125
8.497,-0.110,0.120
8.500,-0.130,0.100
8.503,-0.140,0.100
8.506,-0.145,0.100
8.508,-0.145,0.110
8.511,-0.125,0.120
8.514,-0.120,0.115
8.517,-0.125,0.115
8.519,-0.135,0.095
8.522,-0.135,0.105
8.525,-0.125,0.120
8.528,-0.120,0.115
8.531,-0.105,0.115
8.533,-0.115,0.100
8.536,-0.125,0.090
8.539,-0.135,0.100
8.542,-0.135,0.110
8.544,-0.105,0.115
8.547,-0.100,0.110
8.550,-0.115,0.090
8.553,-0.125,0.080
8.556,-0.130,0.095
8.558,-0.130,0.110
8.561,-0.120,0.110
8.564,-0.110,0.105
8.567,-0.125,0.090
8.569,-0.120,0.075
8.572,-0.120,0.085
8.575,-0.110,0.090
8.578,-0.105,0.105
8.581,-0.100,0.100
8.583,-0.095,0.075
8.586,-0.110,0.080
8.589,-0.105,0.080
8.592,-0.120,0.095
8.594,-0.095,0.095
8.597,-0.085,0.090
8.600,-0.095,0.075
8.603,-0.100,0.075
8.606,-0.110,0.075
8.608,-0.100,0.100
8.611,-0.095,0.135
8.614,-0.095,0.130
8.617,-0.100,0.125
8.619,-0.120,0.110
8.622,-0.130,0.115
8.625,-0.135,0.130
8.628,-0.095,0.145
8.631,-0.100,0.135
8.633,-0.085,0.120
8.636,-0.085,0.105
8.639,-0.075,0.110
8.642,-0.060,0.125
8.644,-0.030,0.115
8.647,-0.025,0.100
8.650,-0.025,0.090
8.653,-0.045,0.085
8.656,-0.045,0.095
8.658,-0.035,0.100
8.661,-0.015,0.110
8.664,-0.025,0.110
8.667,-0.035,0.110
8.669,-0.045,0.085
8.672,-0.065,0.090
8.675,-0.060,0.105
8.678,-0.055,0.100
8.681,-0.055,0.110
8.683,-0.070,0.090
8.686,-0.095,0.085
8.689,-0.095,0.095
8.692,-0.090,0.105
8.694,-0.090,0.120
8.697,-0.075,0.115
8.700,-0.080,0.090
8.703,-0.095,0.080
8.706,-0.115,0.080
8.708,-0.110,0.090
8.711,-0.075,0.105
8.714,-0.075,0.100
8.717,-0.080,0.100
8.719,-0.105,0.080
8.722,-0.105,0.080
8.725,-0.085,0.090
8.728,-0.080,0.100
8.731,-0.075,0.095
8.733,-0.080,0.090
8.736,-0.095,0.070
8.739,-0.085,0.095
8.742,-0.055,0.100
8.744,-0.050,0.130
8.747,-0.030,0.155
8.750,-0.030,0.155
8.753,-0.040,0.145
8.756,-0.030,0.135
8.758,0.005,0.080
8.761,0.035,0.020
8.764,0.080,-0.095
8.767,0.100,-0.225
8.769,0.125,-0.360
8.772,0.210,-0.490
8.775,0.330,-0.630
8.778,0.455,-0.770
8.781,0.575,-0.890
8.783,0.695,-0.970
8.786,0.815,-0.980
8.789,0.910,-0.935
8.792,1.020,-0.855
8.794,1.150,-0.745
8.797,1.245,-0.620
8.800,1.275,-0.465
8.803,1.205,-0.310
8.806,1.080,-0.180
8.808,0.930,-0.065
8.811,0.750,0.025
8.814,0.565,0.040
8.817,0.405,0.020
8.819,0.250,-0.005
8.822,0.125,-0.020
8.825,0.050,0.010
8.828,0.010,0.040
8.831,0.000,0.070
8.833,0.010,0.070
8.836,-0.015,0.085
8.839,-0.020,0.080
8.842,-0.030,0.100
8.844,-0.040,0.115
8.847,-0.060,0.110
8.850,-0.085,0.095
8.853,-0.105,0.105
8.856,-0.125,0.105
8.858,-0.125,0.120
8.861,-0.115,0.125
8.864,-0.115,0.130
8.867,-0.135,0.105
8.869,-0.160,0.100
8.872,-0.155,0.100
8.875,-0.150,0.125
8.878,-0.130,0.135
8.881,-0.140,0.130
8.883,-0.160,0.120
8.886,-0.165,0.105
8.889,-0.170,0.125
8.892,-0.160,0.130
8.894,-0.150,0.145
8.897,-0.145,0.140
8.900,-0.155,0.120
8.903,-0.165,0.110
8.906,-0.180,0.130
8.908,-0.165,0.130
8.911,-0.150,0.155
8.914,-0.150,0.140
8.917,-0.150,0.130
8.919,-0.165,0.125
8.922,-0.170,0.130
8.925,-0.155,0.135
8.928,-0.135,0.135
8.931,-0.145,0.130
8.933,-0.145,0.120
8.936,-0.160,0.105
8.939,-0.160,0.110
8.942,-0.160,0.115
8.944,-0.140,0.125
8.947,-0.130,0.115
8.950,-0.130,0.105
8.953,-0.140,0.085
8.956,-0.150,0.090
8.958,-0.130,0.100
8.961,-0.125,0.125
8.964,-0.105,0.110
8.967,-0.120,0.085
8.969,-0.135,0.070
8.972,-0.150,0.085
8.975,-0.120,0.100
8.978,-0.105,0.100
8.981,-0.110,0.085
8.983,-0.085,0.075
8.986,-0.105,0.065
8.989,-0.110,0.070
8.992,-0.085,0.070
8.994,-0.070,0.080
8.997,-0.060,0.080
9.000,-0.070,0.065
9.003,-0.070,0.045
9.006,-0.090,0.050
9.008,-0.060,0.045
9.011,-0.045,0.055
9.014,-0.030,0.040
9.017,-0.015,0.030
9.019,-0.035,0.020
9.022,-0.020,0.015
9.025,-0.005,0.015
9.028,0.010,0.035
9.031,0.030,0.015
9.033,0.035,-0.005
9.036,0.035,-0.015
9.039,0.040,-0.010
9.042,0.055,-0.010
9.044,0.080,-0.005
9.047,0.090,-0.015
9.050,0.105,-0.030
9.053,0.115,-0.055
9.056,0.095,-0.050
9.058,0.115,-0.040
9.061,0.145,-0.035
9.064,0.165,-0.040
9.067,0.165,-0.065
9.069,0.155,-0.065
9.072,0.155,-0.060
9.075,0.165,-0.045
9.078,0.180,-0.030
9.081,0.210,-0.035
9.083,0.190,-0.040
9.086,0.180,-0.040
9.089,0.185,-0.025
9.092,0.170,0.000
9.094,0.190,0.000
9.097,0.175,0.005
9.100,0.170,0.010
9.103,0.150,-0.005
9.106,0.125,0.010
9.108,0.105,0.025
9.111,0.105,0.045
9.114,0.085,0.060
9.117,0.060,0.050
9.119,0.025,0.045
9.122,0.015,0.050
9.125,-0.015,0.055
9.128,-0.010,0.075
9.131,-0.010,0.080
9.133,-0.040,0.065
9.136,-0.075,0.060
9.139,-0.100,0.070
9.142,-0.085,0.080
9.144,-0.090,0.085
9.147,-0.095,0.095
9.150,-0.110,0.075
9.153,-0.145,0.055
9.156,-0.145,0.065
9.158,-0.160,0.075
9.161,-0.150,0.095
9.164,-0.165,0.085
9.167,-0.160,0.070
9.169,-0.180,0.070
9.172,-0.195,0.075
9.175,-0.185,0.080
9.178,-0.175,0.095
9.181,-0.180,0.105
9.183,-0.190,0.080
9.186,-0.195,0.065
9.189,-0.215,0.065
9.192,-0.200,0.085
9.194,-0.205,0.095
9.197,-0.185,0.080
9.200,-0.195,0.080
9.203,-0.215,0.060
9.206,-0.215,0.070
9.208,-0.205,0.090
9.211,-0.210,0.100
9.214,-0.195,0.090
9.217,-0.200,0.070
9.219,-0.225,0.065
9.222,-0.210,0.070
9.225,-0.200,0.080
9.228,-0.195,0.080
9.231,-0.190,0.090
9.233,-0.210,0.065
9.236,-0.205,0.065
9.239,-0.210,0.065
9.242,-0.195,0.090
9.244,-0.185,0.090
9.247,-0.185,0.095
9.250,-0.190,0.075
9.253,-0.205,0.070
9.256,-0.215,0.075
9.258,-0.200,0.100
9.261,-0.200,0.110
9.264,-0.200,0.100
9.267,-0.210,0.090
9.269,-0.215,0.080
9.272,-0.210,0.080
9.275,-0.200,0.090
9.278,-0.180,0.110
9.281,-0.185,0.100
9.283,-0.190,0.090
9.286,-0.200,0.080
9.289,-0.210,0.095
9.292,-0.195,0.110
9.294,-0.200,0.110
9.297,-0.185,0.105
9.300,-0.185,0.110
9.303,-0.205,0.080
9.306,-0.205,0.095
9.308,-0.195,0.095
9.311,-0.180,0.110
9.314,-0.180,0.120
9.317,-0.195,0.100
9.319,-0.205,0.085
9.322,-0.190,0.075
9.325,-0.175,0.095
9.328,-0.165,0.100
9.331,-0.160,0.110
9.333,-0.170,0.095
9.336,-0.195,0.075
9.339,-0.210,0.090
9.342,-0.200,0.095
9.344,-0.155,0.105
9.347,-0.160,0.090
9.350,-0.165,0.080
9.353,-0.185,0.080
9.356,-0.180,0.085
9.358,-0.175,0.090
9.361,-0.170,0.100
9.364,-0.170,0.095
9.367,-0.175,0.090
9.369,-0.185,0.065
9.372,-0.180,0.090
9.375,-0.175,0.105
9.378,-0.175,0.100
9.381,-0.160,0.090
9.383,-0.180,0.080
9.386,-0.195,0.075
9.389,-0.190,0.080
9.392,-0.180,0.110
9.394,-0.160,0.105
9.397,-0.165,0.105
9.400,-0.175,0.085
9.403,-0.175,0.075
9.406,-0.200,0.085
9.408,-0.185,0.105
9.411,-0.165,0.110
9.414,-0.160,0.110
9.417,-0.170,0.090
9.419,-0.180,0.070
9.422,-0.180,0.080
9.425,-0.180,0.090
9.428,-0.160,0.095
9.431,-0.170,0.105
9.433,-0.175,0.085
9.436,-0.180,0.090
9.439,-0.195,0.085
9.442,-0.185,0.085
9.444,-0.170,0.095
9.447,-0.160,0.095
9.450,-0.160,0.080
9.453,-0.175,0.080
9.456,-0.185,0.080
9.458,-0.175,0.085
9.461,-0.150,0.095
9.464,-0.145,0.100
9.467,-0.165,0.070
9.469,-0.180,0.070
9.472,-0.180,0.085
9.475,-0.185,0.090
9.478,-0.175,0.090
9.481,-0.155,0.090
9.483,-0.170,0.070
9.486,-0.190,0.070
9.489,-0.200,0.065
9.492,-0.190,0.085
9.494,-0.180,0.100
9.497,-0.175,0.075
9.500,-0.185,0.070
9.503,-0.190,0.070
9.506,-0.195,0.075
9.508,-0.190,0.090
9.511,-0.175,0.095
9.514,-0.175,0.085
9.517,-0.190,0.070
9.519,-0.190,0.060
9.522,-0.200,0.070
9.525,-0.200,0.060
9.528,-0.195,0.090
9.531,-0.165,0.070
9.533,-0.185,0.065
9.536,-0.190,0.045
9.539,-0.190,0.060
9.542,-0.180,0.070
9.544,-0.170,0.095
9.547,-0.180,0.085
9.550,-0.175,0.075
9.553,-0.185,0.060
9.556,-0.180,0.055
9.558,-0.190,0.070
9.561,-0.165,0.080
9.564,-0.165,0.080
9.567,-0.160,0.080
9.569,-0.200,0.065
9.572,-0.195,0.070
9.575,-0.175,0.075
9.578,-0.165,0.105
9.581,-0.150,0.090
9.583,-0.160,0.070
9.586,-0.170,0.060
9.589,-0.175,0.050
9.592,-0.160,0.070
9.594,-0.160,0.080
9.597,-0.155,0.075
9.600,-0.170,0.060
9.603,-0.185,0.055
9.606,-0.180,0.065
9.608,-0.170,0.070
9.611,-0.150,0.075
9.614,-0.155,0.070
9.617,-0.150,0.055
9.619,-0.165,0.045
9.622,-0.180,0.050
9.625,-0.185,0.060
9.628,-0.150,0.080
9.631,-0.140,0.080
9.633,-0.160,0.065
9.636,-0.170,0.055
9.639,-0.170,0.055
9.642,-0.170,0.060
9.644,-0.150,0.070
9.647,-0.155,0.080
9.650,-0.170,0.070
9.653,-0.185,0.060
9.656,-0.170,0.050
9.658,-0.165,0.060
9.661,-0.155,0.070
9.664,-0.155,0.080
9.667,-0.170,0.060
9.669,-0.180,0.045
9.672,-0.190,0.060
9.675,-0.175,0.070
9.678,-0.160,0.070
9.681,-0.160,0.070
9.683,-0.160,0.050
9.686,-0.175,0.040
9.689,-0.190,0.050
9.692,-0.170,0.065
9.694,-0.165,0.075
9.697,-0.155,0.070
9.700,-0.170,0.070
9.703,-0.185,0.050
9.706,-0.185,0.060
9.708,-0.185,0.070
9.711,-0.165,0.090
9.714,-0.155,0.075
9.717,-0.160,0.065
9.719,-0.180,0.060
9.722,-0.185,0.065
9.725,-0.170,0.075
9.728,-0.165,0.090
9.731,-0.150,0.080
9.733,-0.165,0.070
9.736,-0.175,0.070
9.739,-0.175,0.060
9.742,-0.180,0.085
9.744,-0.165,0.090
9.747,-0.150,0.080
9.750,-0.165,0.070
9.753,-0.180,0.065
9.756,-0.175,0.085
9.758,-0.170,0.085
9.761,-0.155,0.095
9.764,-0.160,0.085
9.767,-0.150,0.070
9.769,-0.175,0.055
9.772,-0.180,0.050
9.775,-0.160,0.065
9.778,-0.165,0.070
9.781,-0.150,0.075
9.783,-0.155,0.075
9.786,-0.170,0.080
9.789,-0.185,0.090
9.792,-0.175,0.110
9.794,-0.155,0.125
9.797,-0.170,0.130
9.800,-0.190,0.105
9.803,-0.195,0.110
9.806,-0.185,0.110
9.808,-0.175,0.115
9.811,-0.135,0.145
9.814,-0.130,0.130
9.817,-0.125,0.115
9.819,-0.135,0.100
9.822,-0.130,0.100
9.825,-0.120,0.115
9.828,-0.095,0.120
9.831,-0.095,0.115
9.833,-0.105,0.095
9.836,-0.130,0.085
9.839,-0.115,0.100
9.842,-0.120,0.110
9.844,-0.105,0.110
9.847,-0.115,0.100
9.850,-0.130,0.085
9.853,-0.155,0.080
9.856,-0.165,0.085
9.858,-0.160,0.105
9.861,-0.150,0.100
9.864,-0.165,0.110
9.867,-0.185,0.085
9.869,-0.185,0.070
9.872,-0.175,0.080
9.875,-0.170,0.090
9.878,-0.160,0.100
9.881,-0.150,0.090
9.883,-0.160,0.080
9.886,-0.175,0.075
9.889,-0.185,0.075
9.892,-0.170,0.085
9.894,-0.170,0.095
9.897,-0.160,0.095
9.900,-0.160,0.080
9.903,-0.175,0.075
9.906,-0.170,0.080
9.908,-0.175,0.095
9.911,-0.125,0.115
9.914,-0.120,0.115
9.917,-0.125,0.125
9.919,-0.130,0.140
9.922,-0.130,0.150
9.925,-0.095,0.165
9.928,-0.065,0.160
9.931,-0.040,0.085
9.933,-0.030,-0.020
9.936,-0.020,-0.135
9.939,0.010,-0.245
9.942,0.090,-0.355
9.944,0.185,-0.475
9.947,0.310,-0.625
9.950,0.420,-0.760
9.953,0.540,-0.865
9.956,0.685,-0.915
9.958,0.835,-0.905
9.961,0.960,-0.835
9.964,1.090,-0.755
9.967,1.205,-0.670
9.969,1.285,-0.525
9.972,1.340,-0.370
9.975,1.300,-0.210
9.978,1.190,-0.080
9.981,0.980,0.010
9.983,0.770,0.065
9.986,0.540,0.060
9.989,0.345,0.055
9.992,0.200,0.035
9.994,0.060,0.030
9.997,-0.045,0.040
10.000,-0.095,0.060
10.003,-0.105,0.055
10.006,-0.105,0.070
10.008,-0.090,0.105
10.011,-0.095,0.110
10.014,-0.105,0.120
10.017,-0.130,0.105
10.019,-0.175,0.095
10.022,-0.170,0.115
10.025,-0.175,0.125
10.028,-0.175,0.135
10.031,-0.175,0.125
10.033,-0.185,0.110
10.036,-0.195,0.100
10.039,-0.220,0.110
10.042,-0.215,0.125
10.044,-0.215,0.140
10.047,-0.215,0.130
10.050,-0.215,0.110
10.053,-0.245,0.105
10.056,-0.250,0.125
10.058,-0.245,0.130
10.061,-0.235,0.140
10.064,-0.220,0.135
10.067,-0.245,0.120
10.069,-0.250,0.110
10.072,-0.255,0.120
10.075,-0.265,0.130
10.078,-0.245,0.145
10.081,-0.235,0.135
10.083,-0.245,0.115
10.086,-0.265,0.115
10.089,-0.260,0.130
10.092,-0.250,0.130
10.094,-0.250,0.130
10.097,-0.235,0.125
10.100,-0.255,0.120
10.103,-0.250,0.115
10.106,-0.260,0.120
10.108,-0.235,0.130
10.111,-0.220,0.140
10.114,-0.210,0.125
10.117,-0.230,0.125
10.119,-0.235,0.110
10.122,-0.230,0.120
10.125,-0.230,0.130
10.128,-0.215,0.135
10.131,-0.205,0.140
10.133,-0.195,0.115
10.136,-0.205,0.110
10.139,-0.195,0.120
10.142,-0.195,0.125
10.144,-0.175,0.130
10.147,-0.165,0.130
10.150,-0.170,0.120
10.153,-0.165,0.110
10.156,-0.165,0.100
10.158,-0.170,0.120
10.161,-0.145,0.125
10.164,-0.130,0.115
10.167,-0.140,0.105
10.169,-0.125,0.095
10.172,-0.125,0.090
10.175,-0.125,0.095
10.178,-0.085,0.110
10.181,-0.065,0.115
10.183,-0.075,0.090
10.186,-0.070,0.075
10.189,-0.065,0.075
10.192,-0.040,0.095
10.194,-0.015,0.095
10.197,-0.015,0.095
10.200,0.000,0.070
10.203,-0.005,0.060
10.206,0.005,0.065
10.208,0.025,0.060
10.211,0.055,0.075
10.214,0.070,0.055
10.217,0.065,0.040
10.219,0.060,0.025
10.222,0.050,0.030
10.225,0.080,0.035
10.228,0.105,0.040
10.231,0.125,0.035
10.233,0.130,0.025
10.236,0.125,0.015
10.239,0.130,0.030
10.242,0.140,0.015
10.244,0.150,0.040
10.247,0.165,0.040
10.250,0.160,0.035
10.253,0.160,0.025
10.256,0.155,0.045
10.258,0.165,0.055
10.261,0.160,0.065
10.264,0.145,0.075
10.267,0.145,0.075
10.269,0.125,0.060
10.272,0.105,0.075
10.275,0.085,0.095
10.278,0.080,0.110
10.281,0.065,0.100
10.283,0.050,0.100
10.286,0.015,0.085
10.289,-0.005,0.090
10.292,-0.015,0.115
10.294,-0.040,0.130
10.297,-0.040,0.130
10.300,-0.065,0.115
10.303,-0.100,0.105
10.306,-0.115,0.130
10.308,-0.115,0.130
10.311,-0.125,0.130
10.314,-0.120,0.140
10.317,-0.150,0.130
10.319,-0.180,0.110
10.322,-0.180,0.110
10.325,-0.175,0.130
10.328,-0.190,0.145
10.331,-0.180,0.150
10.333,-0.190,0.130
10.336,-0.210,0.125
10.339,-0.205,0.135
10.342,-0.200,0.150
10.344,-0.190,0.165
10.347,-0.195,0.155
10.350,-0.195,0.155
10.353,-0.225,0.135
10.356,-0.225,0.130
10.358,-0.205,0.155
10.361,-0.205,0.165
10.364,-0.190,0.155
10.367,-0.210,0.140
10.369,-0.230,0.130
10.372,-0.235,0.130
10.375,-0.220,0.145
10.378,-0.205,0.160
10.381,-0.195,0.155
10.383,-0.215,0.135
10.386,-0.215,0.120
10.389,-0.225,0.135
10.392,-0.205,0.160
10.394,-0.195,0.165
10.397,-0.200,0.155
10.400,-0.195,0.155
10.403,-0.220,0.140
10.406,-0.230,0.145
10.408,-0.220,0.160
10.411,-0.195,0.160
10.414,-0.180,0.165
10.417,-0.195,0.160
10.419,-0.205,0.150
10.422,-0.210,0.140
10.425,-0.200,0.180
10.428,-0.185,0.165
10.431,-0.185,0.170
10.433,-0.190,0.165
10.436,-0.215,0.155
10.439,-0.215,0.145
10.442,-0.190,0.160
10.444,-0.180,0.175
10.447,-0.185,0.175
10.450,-0.185,0.155
10.453,-0.205,0.145
10.456,-0.215,0.145
10.458,-0.200,0.165
10.461,-0.180,0.180
10.464,-0.170,0.170
10.467,-0.180,0.155
10.469,-0.205,0.145
10.472,-0.210,0.150
10.475,-0.205,0.165
10.478,-0.180,0.160
10.481,-0.180,0.165
10.483,-0.180,0.160
10.486,-0.195,0.140
10.489,-0.200,0.145
10.492,-0.190,0.160
10.494,-0.175,0.180
10.497,-0.175,0.170
10.500,-0.190,0.165
10.503,-0.200,0.155
10.506,-0.210,0.155
10.508,-0.185,0.175
10.511,-0.175,0.180
10.514,-0.170,0.175
10.517,-0.180,0.170
10.519,-0.195,0.155
10.522,-0.200,0.165
10.525,-0.190,0.175
10.528,-0.175,0.190
10.531,-0.175,0.190
10.533,-0.195,0.165
10.536,-0.200,0.165
10.539,-0.215,0.170
10.542,-0.200,0.170
10.544,-0.180,0.185
10.547,-0.180,0.190
10.550,-0.190,0.155
10.553,-0.205,0.165
10.556,-0.210,0.170
10.558,-0.200,0.165
10.561,-0.175,0.185
10.564,-0.185,0.175
10.567,-0.205,0.165
10.569,-0.210,0.155
10.572,-0.215,0.155
10.575,-0.205,0.165
10.578,-0.195,0.175
10.581,-0.195,0.165
10.583,-0.200,0.165
10.586,-0.215,0.155
10.589,-0.210,0.150
10.592,-0.200,0.185
10.594,-0.195,0.190
10.597,-0.190,0.190
10.600,-0.180,0.170
10.603,-0.200,0.170
10.606,-0.215,0.175
10.608,-0.205,0.180
10.611,-0.185,0.190
10.614,-0.210,0.185
10.617,-0.205,0.165
10.619,-0.220,0.160
10.622,-0.215,0.160
10.625,-0.210,0.170
10.628,-0.210,0.185
10.631,-0.205,0.165
10.633,-0.215,0.155
10.636,-0.225,0.150
10.639,-0.225,0.150
10.642,-0.220,0.165
10.644,-0.210,0.170
10.647,-0.225,0.165
10.650,-0.220,0.145
10.653,-0.235,0.150
10.656,-0.235,0.145
10.658,-0.240,0.160
10.661,-0.220,0.165
10.664,-0.215,0.175
10.667,-0.220,0.150
10.669,-0.230,0.140
10.672,-0.245,0.155
10.675,-0.230,0.175
10.678,-0.210,0.175
10.681,-0.205,0.170
10.683,-0.215,0.170
10.686,-0.230,0.160
10.689,-0.225,0.165
10.692,-0.205,0.170
10.694,-0.190,0.185
10.697,-0.190,0.180
10.700,-0.200,0.170
10.703,-0.205,0.150
10.706,-0.220,0.155
10.708,-0.200,0.175
10.711,-0.185,0.185
10.714,-0.190,0.180
10.717,-0.195,0.160
10.719,-0.210,0.155
10.722,-0.225,0.165
10.725,-0.205,0.165
10.728,-0.185,0.180
10.731,-0.185,0.170
10.733,-0.195,0.150
10.736,-0.205,0.135
10.739,-0.210,0.140
10.742,-0.200,0.150
10.744,-0.185,0.175
10.747,-0.195,0.165
10.750,-0.190,0.160
10.753,-0.210,0.140
10.756,-0.210,0.135
10.758,-0.210,0.160
10.761,-0.200,0.185
10.764,-0.185,0.170
10.767,-0.185,0.165
10.769,-0.205,0.150
10.772,-0.220,0.155
10.775,-0.210,0.165
10.778,-0.180,0.190
10.781,-0.180,0.180
10.783,-0.190,0.160
10.786,-0.205,0.150
10.789,-0.215,0.145
10.792,-0.210,0.160
10.794,-0.195,0.165
10.797,-0.185,0.165
10.800,-0.200,0.155
10.803,-0.215,0.135
10.806,-0.235,0.140
10.808,-0.225,0.155
10.811,-0.190,0.165
10.814,-0.195,0.155
10.817,-0.200,0.145
10.819,-0.215,0.140
10.822,-0.225,0.150
10.825,-0.225,0.150
10.828,-0.210,0.165
10.831,-0.205,0.170
10.833,-0.215,0.140
10.836,-0.235,0.140
10.839,-0.240,0.150
10.842,-0.225,0.150
10.844,-0.195,0.170
10.847,-0.175,0.160
10.850,-0.200,0.145
10.853,-0.200,0.145
10.856,-0.210,0.155
10.858,-0.195,0.160
10.861,-0.175,0.165
10.864,-0.175,0.160
10.867,-0.200,0.145
10.869,-0.210,0.135
10.872,-0.200,0.140
10.875,-0.185,0.155
10.878,-0.185,0.170
10.881,-0.170,0.180
10.883,-0.185,0.165
10.886,-0.185,0.150
10.889,-0.200,0.155
10.892,-0.180,0.175
10.894,-0.165,0.170
10.897,-0.165,0.165
10.900,-0.180,0.150
10.903,-0.180,0.150
10.906,-0.210,0.150
10.908,-0.175,0.170
10.911,-0.160,0.175
10.914,-0.165,0.165
10.917,-0.170,0.160
10.919,-0.175,0.140
10.922,-0.180,0.145
10.925,-0.175,0.155
10.928,-0.165,0.160
10.931,-0.155,0.155
10.933,-0.160,0.145
10.936,-0.165,0.130
10.939,-0.170,0.140
10.942,-0.165,0.155
10.944,-0.145,0.170
10.947,-0.125,0.175
10.950,-0.150,0.175
10.953,-0.160,0.160
10.956,-0.170,0.175
10.958,-0.165,0.195
10.961,-0.165,0.200
10.964,-0.160,0.200
10.967,-0.175,0.185
10.969,-0.170,0.175
10.972,-0.165,0.185
10.975,-0.140,0.190
10.978,-0.115,0.185
10.981,-0.115,0.175
10.983,-0.115,0.160
10.986,-0.105,0.150
10.989,-0.120,0.160
10.992,-0.115,0.160
10.994,-0.100,0.175
10.997,-0.085,0.170
11.000,-0.110,0.145
11.003,-0.120,0.135
11.006,-0.130,0.135
11.008,-0.120,0.135
11.011,-0.130,0.140
11.014,-0.130,0.150
11.017,-0.145,0.125
11.019,-0.155,0.120
11.022,-0.185,0.125
11.025,-0.180,0.135
11.028,-0.170,0.160
11.031,-0.180,0.145
11.033,-0.160,0.125
11.036,-0.190,0.125
11.039,-0.180,0.140
11.042,-0.175,0.145
11.044,-0.155,0.140
11.047,-0.160,0.135
11.050,-0.155,0.120
11.053,-0.185,0.115
11.056,-0.185,0.120
11.058,-0.155,0.130
11.061,-0.150,0.155
11.064,-0.140,0.145
11.067,-0.155,0.130
11.069,-0.160,0.125
11.072,-0.150,0.130
11.075,-0.150,0.150
11.078,-0.110,0.190
11.081,-0.100,0.190
11.083,-0.090,0.190
11.086,-0.095,0.170
11.089,-0.065,0.130
11.092,-0.030,0.060
11.094,-0.005,-0.030
11.097,0.035,-0.155
11.100,0.075,-0.295
11.103,0.165,-0.455
11.106,0.280,-0.600
11.108,0.405,-0.750
11.111,0.555,-0.865
11.114,0.700,-0.955
11.117,0.835,-0.985
11.119,0.945,-0.935
11.122,1.045,-0.845
11.125,1.180,-0.720
11.128,1.285,-0.570
11.131,1.320,-0.390
11.133,1.240,-0.230
11.136,1.110,-0.110
11.139,0.915,-0.005
11.142,0.720,0.060
11.144,0.535,0.075
11.147,0.360,0.045
11.150,0.195,0.030
11.153,0.075,0.035
11.156,-0.005,0.065
11.158,-0.035,0.100
11.161,-0.020,0.135
11.164,-0.025,0.140
11.167,-0.055,0.125
11.169,-0.080,0.135
11.172,-0.095,0.150
11.175,-0.105,0.155
11.178,-0.115,0.180
11.181,-0.115,0.185
11.183,-0.135,0.170
11.186,-0.160,0.150
11.189,-0.170,0.170
11.192,-0.175,0.185
11.194,-0.175,0.200
11.197,-0.165,0.190
11.200,-0.180,0.175
11.203,-0.195,0.170
11.206,-0.190,0.165
11.208,-0.200,0.180
11.211,-0.185,0.200
11.214,-0.185,0.190
11.217,-0.205,0.185
11.219,-0.205,0.165
11.222,-0.210,0.180
11.225,-0.190,0.190
11.228,-0.190,0.200
11.231,-0.180,0.200
11.233,-0.195,0.185
11.236,-0.200,0.170
11.239,-0.215,0.175
11.242,-0.190,0.190
11.244,-0.185,0.195
11.247,-0.175,0.195
11.250,-0.175,0.180
11.253,-0.195,0.165
11.256,-0.205,0.165
11.258,-0.190,0.180
11.261,-0.165,0.200
11.264,-0.170,0.195
11.267,-0.170,0.170
11.269,-0.185,0.160
11.272,-0.190,0.165
11.275,-0.165,0.190
11.278,-0.160,0.190
11.281,-0.145,0.180
11.283,-0.155,0.170
11.286,-0.170,0.150
11.289,-0.165,0.160
11.292,-0.145,0.170
11.294,-0.135,0.170
11.297,-0.120,0.165
11.300,-0.120,0.145
11.303,-0.135,0.140
11.306,-0.145,0.135
11.308,-0.140,0.155
11.311,-0.115,0.155
11.314,-0.100,0.160
11.317,-0.100,0.140
11.319,-0.115,0.120
11.322,-0.100,0.120
11.325,-0.080,0.135
11.328,-0.065,0.140
11.331,-0.045,0.125
11.333,-0.045,0.115
11.336,-0.040,0.105
11.339,-0.045,0.110
11.342,-0.030,0.105
11.344,0.010,0.115
11.347,0.025,0.105
11.350,0.025,0.090
11.353,0.020,0.075
11.356,0.040,0.075
11.358,0.055,0.080
11.361,0.080,0.080
11.364,0.085,0.065
11.367,0.085,0.055
11.369,0.070,0.040
11.372,0.085,0.045
11.375,0.115,0.045
11.378,0.130,0.050
11.381,0.150,0.035
11.383,0.160,0.025
11.386,0.150,0.020
11.389,0.145,0.020
11.392,0.160,0.040
11.394,0.175,0.060
11.397,0.190,0.050
11.400,0.175,0.045
11.403,0.165,0.045
11.406,0.160,0.060
11.408,0.145,0.075
11.411,0.150,0.090
11.414,0.140,0.085
11.417,0.100,0.090
11.419,0.075,0.080
11.422,0.055,0.105
11.425,0.030,0.120
11.428,0.040,0.125
11.431,0.010,0.130
11.433,-0.025,0.110
11.436,-0.050,0.100
11.439,-0.075,0.120
11.442,-0.095,0.130
11.444,-0.095,0.160
11.447,-0.100,0.150
11.450,-0.125,0.140
11.453,-0.165,0.125
11.456,-0.175,0.125
11.458,-0.185,0.135
11.461,-0.170,0.145
11.464,-0.190,0.155
11.467,-0.190,0.145
11.469,-0.225,0.140
11.472,-0.235,0.145
11.475,-0.225,0.165
11.478,-0.215,0.170
11.481,-0.210,0.150
11.483,-0.220,0.135
11.486,-0.250,0.125
11.489,-0.255,0.125
11.492,-0.235,0.145
11.494,-0.230,0.165
11.497,-0.220,0.160
11.500,-0.235,0.135
11.503,-0.260,0.125
11.506,-0.255,0.130
11.508,-0.255,0.145
11.511,-0.245,0.155
11.514,-0.245,0.150
11.517,-0.250,0.140
11.519,-0.270,0.135
11.522,-0.270,0.150
11.525,-0.260,0.160
11.528,-0.240,0.170
11.531,-0.245,0.170
11.533,-0.260,0.145
11.536,-0.270,0.135
11.539,-0.265,0.150
11.542,-0.260,0.170
11.544,-0.255,0.175
11.547,-0.245,0.165
11.550,-0.245,0.145
11.553,-0.265,0.150
11.556,-0.260,0.145
11.558,-0.245,0.165
11.561,-0.235,0.180
11.564,-0.235,0.180
11.567,-0.245,0.155
11.569,-0.260,0.150
11.572,-0.275,0.165
11.575,-0.240,0.170
11.578,-0.225,0.180
11.581,-0.215,0.175
11.583,-0.230,0.160
11.586,-0.245,0.155
11.589,-0.245,0.165
11.592,-0.245,0.170
11.594,-0.230,0.180
11.597,-0.220,0.170
11.600,-0.230,0.160
11.603,-0.240,0.155
11.606,-0.240,0.165
11.608,-0.245,0.170
11.611,-0.230,0.185
11.614,-0.220,0.165
11.617,-0.230,0.155
11.619,-0.250,0.150
11.622,-0.260,0.155
11.625,-0.240,0.170
11.628,-0.220,0.180
11.631,-0.235,0.165
11.633,-0.250,0.160
11.636,-0.260,0.145
11.639,-0.260,0.160
11.642,-0.245,0.160
11.644,-0.245,0.170
11.647,-0.230,0.160
11.650,-0.240,0.155
11.653,-0.245,0.140
11.656,-0.250,0.155
11.658,-0.250,0.165
11.661,-0.245,0.190
11.664,-0.235,0.165
11.667,-0.250,0.150
11.669,-0.270,0.145
11.672,-0.270,0.150
11.675,-0.255,0.165
11.678,-0.245,0.170
11.681,-0.240,0.160
11.683,-0.250,0.155
11.686,-0.265,0.130
11.689,-0.280,0.140
11.692,-0.275,0.150
11.694,-0.250,0.165
11.697,-0.250,0.155
11.700,-0.260,0.140
11.703,-0.265,0.135
11.706,-0.275,0.140
11.708,-0.270,0.145
11.711,-0.245,0.160
11.714,-0.250,0.160
11.717,-0.260,0.140
11.719,-0.260,0.130
11.722,-0.275,0.125
11.725,-0.265,0.155
11.728,-0.270,0.150
11.731,-0.240,0.150
11.733,-0.250,0.150
11.736,-0.255,0.125
11.739,-0.270,0.140
11.742,-0.260,0.155
11.744,-0.240,0.165
11.747,-0.245,0.150
11.750,-0.265,0.145
11.753,-0.270,0.135
11.756,-0.265,0.145
11.758,-0.260,0.160
11.761,-0.260,0.155
11.764,-0.255,0.135
11.767,-0.245,0.150
11.769,-0.275,0.125
11.772,-0.285,0.135
11.775,-0.265,0.135
11.778,-0.260,0.155
11.781,-0.250,0.145
11.783,-0.250,0.130
11.786,-0.270,0.115
11.789,-0.275,0.135
11.792,-0.260,0.145
11.794,-0.250,0.155
11.797,-0.260,0.140
11.800,-0.260,0.135
11.803,-0.270,0.130
11.806,-0.270,0.140
11.808,-0.260,0.140
11.811,-0.240,0.145
11.814,-0.240,0.135
11.817,-0.260,0.125
11.819,-0.275,0.110
11.822,-0.280,0.125
11.825,-0.255,0.135
11.828,-0.255,0.155
11.831,-0.250,0.135
11.833,-0.250,0.125
11.836,-0.260,0.125
11.839,-0.275,0.115
11.842,-0.270,0.130
11.844,-0.240,0.155
11.847,-0.255,0.135
11.850,-0.260,0.125
11.853,-0.270,0.110
11.856,-0.270,0.110
11.858,-0.270,0.125
11.861,-0.250,0.135
11.864,-0.250,0.125
11.867,-0.260,0.120
11.869,-0.265,0.110
11.872,-0.275,0.110
11.875,-0.260,0.125
11.878,-0.215,0.125
11.881,-0.230,0.125
11.883,-0.250,0.115
11.886,-0.275,0.090
11.889,-0.265,0.105
11.892,-0.250,0.115
11.894,-0.230,0.105
11.897,-0.230,0.115
11.900,-0.240,0.100
11.903,-0.260,0.095
11.906,-0.255,0.100
11.908,-0.245,0.115
11.911,-0.230,0.120
11.914,-0.235,0.120
11.917,-0.235,0.095
11.919,-0.255,0.090
11.922,-0.260,0.095
11.925,-0.245,0.110
11.928,-0.230,0.125
11.931,-0.235,0.110
11.933,-0.235,0.095
11.936,-0.255,0.085
11.939,-0.260,0.090
11.942,-0.240,0.095
11.944,-0.230,0.120
11.947,-0.235,0.100
11.950,-0.240,0.090
11.953,-0.255,0.090
11.956,-0.255,0.100
11.958,-0.250,0.105
11.961,-0.225,0.115
11.964,-0.230,0.100
11.967,-0.235,0.100
11.969,-0.245,0.080
11.972,-0.250,0.100
11.975,-0.240,0.095
11.978,-0.235,0.105
11.981,-0.230,0.095
11.983,-0.235,0.090
11.986,-0.245,0.080
11.989,-0.260,0.090
11.992,-0.250,0.095
11.994,-0.225,0.105
11.997,-0.230,0.100
12.000,-0.240,0.085
12.003,-0.260,0.075
12.006,-0.245,0.070
12.008,-0.230,0.095
12.011,-0.210,0.090
12.014,-0.215,0.100
12.017,-0.215,0.085
12.019,-0.225,0.075
12.022,-0.215,0.080
12.025,-0.220,0.100
12.028,-0.215,0.090
12.031,-0.200,0.095
12.033,-0.210,0.075
12.036,-0.215,0.075
12.039,-0.210,0.085
12.042,-0.200,0.090
12.044,-0.195,0.120
12.047,-0.175,0.120
12.050,-0.190,0.120
12.053,-0.215,0.095
12.056,-0.225,0.105
12.058,-0.205,0.135
12.061,-0.195,0.140
12.064,-0.200,0.140
12.067,-0.200,0.120
12.069,-0.195,0.120
12.072,-0.170,0.130
12.075,-0.165,0.135
12.078,-0.140,0.125
12.081,-0.130,0.110
12.083,-0.135,0.100
12.086,-0.150,0.090
12.089,-0.160,0.100
12.092,-0.150,0.125
12.094,-0.130,0.125
12.097,-0.135,0.125
12.100,-0.155,0.105
12.103,-0.175,0.080
12.106,-0.175,0.090
12.108,-0.200,0.080
12.111,-0.170,0.110
12.114,-0.160,0.095
12.117,-0.175,0.085
12.119,-0.200,0.065
12.122,-0.205,0.075
12.125,-0.205,0.080
12.128,-0.180,0.095
12.131,-0.190,0.080
12.133,-0.190,0.075
12.136,-0.200,0.060
12.139,-0.215,0.085
12.142,-0.190,0.090
12.144,-0.190,0.090
12.147,-0.185,0.090
12.150,-0.180,0.065
12.153,-0.180,0.045
12.156,-0.195,0.070
12.158,-0.175,0.085
12.161,-0.165,0.090
12.164,-0.160,0.080
12.167,-0.175,0.080
12.169,-0.180,0.080
12.172,-0.185,0.110
12.175,-0.160,0.130
12.178,-0.135,0.130
12.181,-0.120,0.120
12.183,-0.085,0.050
12.186,-0.085,-0.030
12.189,-0.045,-0.140
12.192,-0.010,-0.265
12.194,0.060,-0.405
12.197,0.160,-0.565
12.200,0.275,-0.735
12.203,0.390,-0.910
12.206,0.555,-1.010
12.208,0.720,-1.015
12.211,0.875,-0.980
12.214,1.015,-0.890
12.217,1.135,-0.790
12.219,1.255,-0.655
12.222,1.340,-0.490
12.225,1.340,-0.320
12.228,1.240,-0.170
12.231,1.035,-0.045
12.233,0.765,0.010
12.236,0.530,0.025
12.239,0.315,0.025
12.242,0.145,0.015
12.244,0.015,-0.005
12.247,-0.090,0.005
12.250,-0.145,0.015
12.253,-0.150,0.035
12.256,-0.125,0.050
12.258,-0.115,0.080
12.261,-0.110,0.100
12.264,-0.135,0.095
12.267,-0.145,0.075
12.269,-0.185,0.075
12.272,-0.180,0.085
12.275,-0.185,0.095
12.278,-0.180,0.115
12.281,-0.180,0.115
12.283,-0.220,0.110
12.286,-0.230,0.100
12.289,-0.235,0.090
12.292,-0.230,0.115
12.294,-0.230,0.125
12.297,-0.225,0.110
12.300,-0.235,0.105
12.303,-0.245,0.090
12.306,-0.245,0.095
12.308,-0.245,0.120
12.311,-0.225,0.130
12.314,-0.220,0.115
12.317,-0.230,0.105
12.319,-0.255,0.100
12.322,-0.265,0.095
12.325,-0.250,0.115
12.328,-0.230,0.125
12.331,-0.225,0.140
12.333,-0.235,0.105
12.336,-0.245,0.100
12.339,-0.250,0.110
12.342,-0.250,0.120
12.344,-0.225,0.120
12.347,-0.215,0.120
12.350,-0.230,0.100
12.353,-0.245,0.090
12.356,-0.260,0.100
12.358,-0.225,0.100
12.361,-0.230,0.110
12.364,-0.215,0.105
12.367,-0.215,0.095
12.369,-0.235,0.095
12.372,-0.235,0.085
12.375,-0.220,0.105
12.378,-0.205,0.100
12.381,-0.210,0.095
12.383,-0.205,0.090
12.386,-0.200,0.075
12.389,-0.190,0.080
12.392,-0.190,0.090
12.394,-0.170,0.100
12.397,-0.175,0.090
12.400,-0.155,0.070
12.403,-0.175,0.055
12.406,-0.170,0.070
12.408,-0.155,0.075
12.411,-0.130,0.070
12.414,-0.135,0.065
12.417,-0.120,0.045
12.419,-0.130,0.030
12.422,-0.140,0.040
12.425,-0.110,0.055
12.428,-0.075,0.055
12.431,-0.060,0.055
12.433,-0.055,0.030
12.436,-0.055,0.020
12.439,-0.040,0.005
12.442,-0.030,0.020
12.444,-0.010,0.030
12.447,0.010,0.025
12.450,0.010,0.005
12.453,0.010,0.000
12.456,0.010,0.000
12.458,0.035,-0.005
12.461,0.065,0.010
12.464,0.075,-0.005
12.467,0.065,-0.025
12.469,0.060,-0.030
12.472,0.075,-0.010
12.475,0.100,-0.010
12.478,0.105,0.005
12.481,0.135,0.000
12.483,0.125,-0.015
12.486,0.120,-0.030
12.489,0.115,-0.010
12.492,0.130,0.015
12.494,0.140,0.025
12.497,0.115,0.035
12.500,0.095,0.025
12.503,0.065,0.005
12.506,0.055,0.035
12.508,0.065,0.055
12.511,0.045,0.075
12.514,0.025,0.070
12.517,0.000,0.070
12.519,-0.040,0.060
12.522,-0.065,0.080
12.525,-0.080,0.095
12.528,-0.090,0.105
12.531,-0.090,0.090
12.533,-0.105,0.090
12.536,-0.140,0.085
12.539,-0.155,0.080
12.542,-0.170,0.100
12.544,-0.170,0.105
12.547,-0.175,0.120
12.550,-0.190,0.100
12.553,-0.230,0.095
12.556,-0.230,0.090
12.558,-0.235,0.115
12.561,-0.220,0.125
12.564,-0.230,0.115
12.567,-0.235,0.090
12.569,-0.250,0.095
12.572,-0.260,0.090
12.575,-0.255,0.105
12.578,-0.255,0.120
12.581,-0.255,0.105
12.583,-0.265,0.090
12.586,-0.270,0.095
12.589,-0.270,0.095
12.592,-0.270,0.105
12.594,-0.270,0.115
12.597,-0.245,0.120
12.600,-0.250,0.120
12.603,-0.260,0.085
12.606,-0.270,0.105
12.608,-0.270,0.120
12.611,-0.255,0.135
12.614,-0.245,0.145
12.617,-0.260,0.110
12.619,-0.275,0.105
12.622,-0.270,0.105
12.625,-0.275,0.120
12.628,-0.270,0.140
12.631,-0.265,0.125
12.633,-0.275,0.105
12.636,-0.275,0.105
12.639,-0.285,0.115
12.642,-0.265,0.125
12.644,-0.250,0.135
12.647,-0.250,0.135
12.650,-0.255,0.115
12.653,-0.275,0.120
12.656,-0.265,0.115
12.658,-0.255,0.130
12.661,-0.240,0.135
12.664,-0.235,0.130
12.667,-0.250,0.120
12.669,-0.275,0.105
12.672,-0.270,0.115
12.675,-0.265,0.125
12.678,-0.255,0.135
12.681,-0.245,0.125
12.683,-0.250,0.110
12.686,-0.275,0.110
12.689,-0.270,0.100
12.692,-0.260,0.125
12.694,-0.250,0.135
12.697,-0.250,0.125
12.700,-0.250,0.115
12.703,-0.270,0.100
12.706,-0.275,0.115
12.708,-0.265,0.125
12.711,-0.255,0.140
12.714,-0.260,0.130
12.717,-0.265,0.115
12.719,-0.270,0.110
12.722,-0.275,0.120
12.725,-0.280,0.130
12.728,-0.255,0.135
12.731,-0.255,0.125
12.733,-0.260,0.130
12.736,-0.265,0.110
12.739,-0.275,0.115
12.742,-0.255,0.135
12.744,-0.250,0.140
12.747,-0.235,0.135
12.750,-0.255,0.135
12.753,-0.265,0.120
12.756,-0.270,0.120
12.758,-0.260,0.130
12.761,-0.235,0.140
12.764,-0.255,0.145
12.767,-0.255,0.125
12.769,-0.265,0.110
12.772,-0.285,0.115
12.775,-0.260,0.140
12.778,-0.255,0.150
12.781,-0.235,0.150
12.783,-0.245,0.130
12.786,-0.270,0.120
12.789,-0.270,0.120
12.792,-0.255,0.145
12.794,-0.255,0.145
12.797,-0.245,0.140
12.800,-0.255,0.125
12.803,-0.275,0.110
12.806,-0.275,0.125
12.808,-0.265,0.135
12.811,-0.245,0.140
12.814,-0.245,0.125
12.817,-0.260,0.125
12.819,-0.260,0.110
12.822,-0.270,0.115
12.825,-0.265,0.130
12.828,-0.260,0.135
12.831,-0.245,0.135
12.833,-0.265,0.120
12.836,-0.280,0.105
12.839,-0.280,0.115
12.842,-0.255,0.125
12.844,-0.260,0.150
12.847,-0.265,0.135
12.850,-0.265,0.115
12.853,-0.285,0.105
12.856,-0.280,0.110
12.858,-0.260,0.125
12.861,-0.255,0.130
12.864,-0.260,0.120
12.867,-0.265,0.115
12.869,-0.280,0.110
12.872,-0.280,0.105
12.875,-0.270,0.130
12.878,-0.255,0.135
12.881,-0.260,0.130
12.883,-0.265,0.110
12.886,-0.305,0.105
12.889,-0.295,0.115
12.892,-0.285,0.125
12.894,-0.260,0.125
12.897,-0.265,0.125
12.900,-0.265,0.100
12.903,-0.285,0.110
12.906,-0.275,0.110
12.908,-0.275,0.120
12.911,-0.250,0.120
12.914,-0.250,0.120
12.917,-0.255,0.105
12.919,-0.270,0.095
12.922,-0.275,0.110
12.925,-0.280,0.125
12.928,-0.270,0.135
12.931,-0.255,0.125
12.933,-0.270,0.110
12.936,-0.275,0.100
12.939,-0.270,0.105
12.942,-0.265,0.115
12.944,-0.260,0.120
12.947,-0.255,0.120
12.950,-0.255,0.115
12.953,-0.275,0.100
12.956,-0.285,0.115
12.958,-0.270,0.130
12.961,-0.260,0.135
12.964,-0.245,0.120
12.967,-0.260,0.110
12.969,-0.270,0.095
12.972,-0.275,0.120
12.975,-0.270,0.125
12.978,-0.255,0.130
12.981,-0.250,0.130
12.983,-0.260,0.120
12.986,-0.265,0.105
12.989,-0.270,0.105
12.992,-0.270,0.120
12.994,-0.245,0.135
12.997,-0.250,0.125
13.000,-0.265,0.115
13.003,-0.265,0.105
13.006,-0.270,0.115
13.008,-0.255,0.120
13.011,-0.245,0.125
13.014,-0.250,0.120
13.017,-0.255,0.115
13.019,-0.280,0.095
13.022,-0.270,0.110
13.025,-0.275,0.125
13.028,-0.250,0.140
13.031,-0.245,0.130
13.033,-0.250,0.110
13.036,-0.280,0.110
13.039,-0.285,0.110
13.042,-0.270,0.120
13.044,-0.245,0.120
13.047,-0.240,0.125
13.050,-0.270,0.110
13.053,-0.270,0.100
13.056,-0.280,0.100
13.058,-0.265,0.110
13.061,-0.270,0.145
13.064,-0.275,0.115
13.067,-0.270,0.110
13.069,-0.275,0.105
13.072,-0.280,0.110
13.075,-0.260,0.125
13.078,-0.255,0.120
13.081,-0.255,0.120
13.083,-0.255,0.110
13.086,-0.280,0.105
13.089,-0.270,0.110
13.092,-0.255,0.115
13.094,-0.255,0.140
13.097,-0.240,0.130
13.100,-0.270,0.115
13.103,-0.275,0.100
13.106,-0.280,0.105
13.108,-0.270,0.110
13.111,-0.265,0.125
13.114,-0.255,0.120
13.117,-0.265,0.115
13.119,-0.275,0.085
13.122,-0.275,0.090
13.125,-0.270,0.105
13.128,-0.260,0.120
13.131,-0.265,0.095
13.133,-0.265,0.085
13.136,-0.285,0.080
13.139,-0.290,0.085
13.142,-0.270,0.095
13.144,-0.240,0.105
13.147,-0.255,0.110
13.150,-0.255,0.100
13.153,-0.255,0.100
13.156,-0.255,0.125
13.158,-0.250,0.150
13.161,-0.240,0.165
13.164,-0.250,0.160
13.167,-0.260,0.145
13.169,-0.265,0.135
13.172,-0.270,0.145
13.175,-0.245,0.150
13.178,-0.210,0.155
13.181,-0.200,0.140
13.183,-0.190,0.120
13.186,-0.200,0.120
13.189,-0.195,0.110
13.192,-0.195,0.130
13.194,-0.175,0.140
13.197,-0.170,0.135
13.200,-0.170,0.120
13.203,-0.195,0.115
13.206,-0.190,0.125
13.208,-0.185,0.135
13.211,-0.185,0.135
13.214,-0.185,0.130
13.217,-0.195,0.115
13.219,-0.220,0.105
13.222,-0.230,0.105
13.225,-0.230,0.120
13.228,-0.225,0.125
13.231,-0.225,0.125
13.233,-0.245,0.120
13.236,-0.245,0.110
13.239,-0.255,0.115
13.242,-0.240,0.120
13.244,-0.220,0.130
13.247,-0.215,0.120
13.250,-0.230,0.110
13.253,-0.230,0.095
13.256,-0.250,0.100
13.258,-0.230,0.120
13.261,-0.230,0.120
13.264,-0.205,0.115
13.267,-0.215,0.105
13.269,-0.230,0.095
13.272,-0.230,0.095
13.275,-0.215,0.135
13.278,-0.190,0.140
13.281,-0.205,0.165
13.283,-0.215,0.155
13.286,-0.200,0.150
13.289,-0.190,0.150
13.292,-0.155,0.135
13.294,-0.110,0.055
13.297,-0.095,-0.040
13.300,-0.060,-0.160
13.303,-0.040,-0.275
13.306,0.050,-0.410
13.308,0.175,-0.530
13.311,0.305,-0.670
13.314,0.425,-0.815
13.317,0.565,-0.915
13.319,0.685,-0.940
13.322,0.810,-0.890
13.325,0.930,-0.820
13.328,1.050,-0.710
13.331,1.170,-0.575
13.333,1.215,-0.430
13.336,1.170,-0.270
13.339,1.060,-0.140
13.342,0.895,-0.025
13.344,0.700,0.030
13.347,0.490,0.045
13.350,0.290,0.010
13.353,0.110,0.000
13.356,-0.015,0.030
13.358,-0.100,0.060
13.361,-0.125,0.100
13.364,-0.110,0.115
13.367,-0.115,0.110
13.369,-0.145,0.110
13.372,-0.160,0.130
13.375,-0.205,0.135
13.378,-0.200,0.170
13.381,-0.200,0.155
13.383,-0.230,0.150
13.386,-0.250,0.130
13.389,-0.260,0.145
13.392,-0.255,0.160
13.394,-0.245,0.180
13.397,-0.250,0.180
13.400,-0.260,0.150
13.403,-0.275,0.150
13.406,-0.285,0.155
13.408,-0.270,0.160
13.411,-0.265,0.175
13.414,-0.260,0.170
13.417,-0.290,0.155
13.419,-0.300,0.155
13.422,-0.300,0.160
13.425,-0.290,0.175
13.428,-0.275,0.185
13.431,-0.265,0.185
13.433,-0.275,0.150
13.436,-0.280,0.145
13.439,-0.290,0.155
13.442,-0.285,0.175
13.444,-0.260,0.185
13.447,-0.250,0.185
13.450,-0.270,0.160
13.453,-0.275,0.160
13.456,-0.290,0.150
13.458,-0.265,0.175
13.461,-0.260,0.170
13.464,-0.255,0.165
13.467,-0.270,0.150
13.469,-0.255,0.140
13.472,-0.260,0.145
13.475,-0.245,0.150
13.478,-0.250,0.165
13.481,-0.225,0.155
13.483,-0.230,0.145
13.486,-0.245,0.130
13.489,-0.245,0.135
13.492,-0.235,0.145
13.494,-0.215,0.155
13.497,-0.200,0.155
13.500,-0.205,0.135
13.503,-0.210,0.120
13.506,-0.205,0.125
13.508,-0.205,0.145
13.511,-0.180,0.155
13.514,-0.170,0.130
13.517,-0.175,0.110
13.519,-0.190,0.100
13.522,-0.180,0.110
13.525,-0.170,0.115
13.528,-0.135,0.135
13.531,-0.135,0.115
13.533,-0.115,0.100
13.536,-0.120,0.095
13.539,-0.115,0.090
13.542,-0.095,0.085
13.544,-0.070,0.095
13.547,-0.050,0.100
13.550,-0.055,0.065
13.553,-0.070,0.055
13.556,-0.045,0.065
13.558,-0.020,0.055
13.561,0.010,0.070
13.564,0.010,0.050
13.567,0.025,0.055
13.569,0.015,0.040
13.572,0.030,0.035
13.575,0.050,0.045
13.578,0.075,0.060
13.581,0.085,0.045
13.583,0.090,0.025
13.586,0.090,0.020
13.589,0.100,0.040
13.592,0.105,0.055
13.594,0.120,0.070
13.597,0.130,0.060
13.600,0.110,0.055
13.603,0.110,0.055
13.606,0.090,0.065
13.608,0.085,0.075
13.611,0.080,0.105
13.614,0.075,0.110
13.617,0.060,0.095
13.619,0.015,0.095
13.622,0.000,0.105
13.625,-0.015,0.110
13.628,-0.030,0.130
13.631,-0.045,0.130
13.633,-0.070,0.115
13.636,-0.105,0.110
13.639,-0.125,0.115
13.642,-0.150,0.150
13.644,-0.140,0.155
13.647,-0.155,0.155
13.650,-0.190,0.130
13.653,-0.215,0.130
13.656,-0.230,0.130
13.658,-0.230,0.140
13.661,-0.230,0.155
13.664,-0.230,0.140
13.667,-0.245,0.135
13.669,-0.275,0.115
13.672,-0.280,0.135
13.675,-0.265,0.135
13.678,-0.255,0.155
13.681,-0.260,0.125
13.683,-0.285,0.130
13.686,-0.290,0.125
13.689,-0.305,0.130
13.692,-0.295,0.145
13.694,-0.290,0.150
13.697,-0.285,0.145
13.700,-0.290,0.125
13.703,-0.310,0.120
13.706,-0.315,0.120
13.708,-0.330,0.135
13.711,-0.310,0.145
13.714,-0.300,0.140
13.717,-0.315,0.125
13.719,-0.315,0.110
13.722,-0.330,0.125
13.725,-0.320,0.135
13.728,-0.290,0.150
13.731,-0.290,0.145
13.733,-0.310,0.140
13.736,-0.320,0.115
13.739,-0.325,0.125
13.742,-0.310,0.135
13.744,-0.305,0.155
13.747,-0.300,0.145
13.750,-0.310,0.125
13.753,-0.310,0.125
13.756,-0.305,0.135
13.758,-0.305,0.135
13.761,-0.285,0.170
13.764,-0.280,0.150
13.767,-0.290,0.145
13.769,-0.310,0.130
13.772,-0.305,0.140
13.775,-0.295,0.160
13.778,-0.280,0.165
13.781,-0.280,0.165
13.783,-0.290,0.155
13.786,-0.300,0.145
13.789,-0.290,0.160
13.792,-0.290,0.175
13.794,-0.280,0.175
13.797,-0.280,0.175
13.800,-0.280,0.160
13.803,-0.300,0.150
13.806,-0.290,0.155
13.808,-0.270,0.180
13.811,-0.270,0.175
13.814,-0.260,0.175
13.817,-0.270,0.170
13.819,-0.295,0.140
13.822,-0.300,0.155
13.825,-0.285,0.165
13.828,-0.275,0.170
13.831,-0.265,0.170
13.833,-0.275,0.155
13.836,-0.305,0.145
13.839,-0.310,0.155
13.842,-0.295,0.155
13.844,-0.275,0.175
13.847,-0.280,0.170
13.850,-0.285,0.170
13.853,-0.300,0.140
13.856,-0.300,0.150
13.858,-0.295,0.165
13.861,-0.290,0.175
13.864,-0.280,0.170
13.867,-0.295,0.155
13.869,-0.310,0.135
13.872,-0.315,0.155
13.875,-0.310,0.155
13.878,-0.295,0.165
13.881,-0.295,0.170
13.883,-0.290,0.145
13.886,-0.305,0.135
13.889,-0.310,0.145
13.892,-0.310,0.155
13.894,-0.310,0.165
13.897,-0.310,0.160
13.900,-0.330,0.130
13.903,-0.345,0.140
13.906,-0.345,0.140
13.908,-0.320,0.155
13.911,-0.320,0.160
13.914,-0.320,0.160
13.917,-0.335,0.150
13.919,-0.335,0.130
13.922,-0.350,0.135
13.925,-0.335,0.155
13.928,-0.320,0.175
13.931,-0.325,0.160
13.933,-0.325,0.155
13.936,-0.335,0.140
13.939,-0.350,0.125
13.942,-0.350,0.140
13.944,-0.335,0.165
13.947,-0.330,0.150
13.950,-0.340,0.135
13.953,-0.345,0.135
13.956,-0.345,0.130
13.958,-0.350,0.145
13.961,-0.345,0.155
13.964,-0.335,0.140
13.967,-0.340,0.135
13.969,-0.350,0.140
13.972,-0.365,0.140
13.975,-0.350,0.125
13.978,-0.350,0.160
13.981,-0.335,0.135
13.983,-0.350,0.140
13.986,-0.355,0.115
13.989,-0.375,0.130
13.992,-0.355,0.145
13.994,-0.335,0.155
13.997,-0.345,0.145
14.000,-0.350,0.150
14.003,-0.350,0.130
14.006,-0.365,0.130
14.008,-0.350,0.140
14.011,-0.340,0.145
14.014,-0.330,0.140
14.017,-0.340,0.135
14.019,-0.360,0.125
14.022,-0.355,0.130
14.025,-0.345,0.135
14.028,-0.330,0.150
14.031,-0.345,0.130
14.033,-0.345,0.125
14.036,-0.345,0.100
14.039,-0.345,0.115
14.042,-0.350,0.130
14.044,-0.325,0.140
14.047,-0.320,0.135
14.050,-0.335,0.120
14.053,-0.345,0.105
14.056,-0.360,0.110
14.058,-0.350,0.125
14.061,-0.335,0.135
14.064,-0.335,0.115
14.067,-0.340,0.100
14.069,-0.360,0.095
14.072,-0.355,0.105
14.075,-0.350,0.125
14.078,-0.335,0.125
14.081,-0.335,0.125
14.083,-0.345,0.125
14.086,-0.360,0.110
14.089,-0.360,0.110
14.092,-0.335,0.110
14.094,-0.320,0.120
14.097,-0.330,0.105
14.100,-0.345,0.095
14.103,-0.360,0.080
14.106,-0.360,0.100
14.108,-0.340,0.120
14.111,-0.340,0.115
14.114,-0.325,0.115
14.117,-0.330,0.100
14.119,-0.335,0.095
14.122,-0.345,0.100
14.125,-0.335,0.125
14.128,-0.325,0.130
14.131,-0.325,0.125
14.133,-0.325,0.105
14.136,-0.345,0.090
14.139,-0.340,0.105
14.142,-0.345,0.120
14.144,-0.335,0.125
14.147,-0.310,0.115
14.150,-0.330,0.110
14.153,-0.350,0.095
14.156,-0.350,0.105
14.158,-0.330,0.115
14.161,-0.300,0.135
14.164,-0.310,0.115
14.167,-0.310,0.100
14.169,-0.325,0.105
14.172,-0.320,0.120
14.175,-0.320,0.125
14.178,-0.305,0.125
14.181,-0.305,0.120
14.183,-0.325,0.105
14.186,-0.320,0.095
14.189,-0.325,0.105
14.192,-0.310,0.110
14.194,-0.315,0.120
14.197,-0.290,0.120
14.200,-0.295,0.105
14.203,-0.315,0.100
14.206,-0.310,0.100
14.208,-0.300,0.130
14.211,-0.315,0.140
14.214,-0.290,0.130
14.217,-0.295,0.110
14.219,-0.315,0.110
14.222,-0.315,0.115
14.225,-0.305,0.125
14.228,-0.290,0.120
14.231,-0.290,0.120
14.233,-0.305,0.110
14.236,-0.300,0.090
14.239,-0.310,0.100
14.242,-0.305,0.120
14.244,-0.290,0.130
14.247,-0.280,0.120
14.250,-0.285,0.090
14.253,-0.305,0.100
14.256,-0.290,0.120
14.258,-0.295,0.145
14.261,-0.280,0.160
14.264,-0.275,0.160
14.267,-0.285,0.145
14.269,-0.290,0.140
14.272,-0.295,0.150
14.275,-0.300,0.155
14.278,-0.270,0.160
14.281,-0.255,0.145
14.283,-0.270,0.145
14.286,-0.255,0.135
14.289,-0.255,0.130
14.292,-0.245,0.145
14.294,-0.220,0.155
14.297,-0.205,0.145
14.300,-0.220,0.125
14.303,-0.235,0.105
14.306,-0.230,0.110
14.308,-0.210,0.125
14.311,-0.205,0.145
14.314,-0.210,0.125
14.317,-0.220,0.120
14.319,-0.240,0.090
14.322,-0.240,0.095
14.325,-0.250,0.100
14.328,-0.240,0.115
14.331,-0.245,0.110
14.333,-0.250,0.090
14.336,-0.280,0.080
14.339,-0.295,0.075
14.342,-0.300,0.085
14.344,-0.280,0.105
14.347,-0.275,0.105
14.350,-0.270,0.085
14.353,-0.285,0.070
14.356,-0.285,0.080
14.358,-0.290,0.070
14.361,-0.275,0.095
14.364,-0.270,0.080
14.367,-0.275,0.070
14.369,-0.290,0.055
14.372,-0.285,0.085
14.375,-0.275,0.095
14.378,-0.250,0.095
14.381,-0.245,0.090
14.383,-0.255,0.080
14.386,-0.260,0.070
14.389,-0.265,0.090
14.392,-0.240,0.125
14.394,-0.215,0.160
14.397,-0.205,0.140
14.400,-0.200,0.110
14.403,-0.185,0.065
14.406,-0.150,-0.010
14.408,-0.120,-0.100
14.411,-0.065,-0.205
14.414,-0.020,-0.370
14.417,0.040,-0.540
14.419,0.115,-0.700
14.422,0.220,-0.850
14.425,0.360,-0.960
14.428,0.525,-1.025
14.431,0.655,-1.045
14.433,0.770,-1.005
14.436,0.865,-0.935
14.439,0.995,-0.805
14.442,1.125,-0.660
14.444,1.195,-0.490
14.447,1.195,-0.335
14.450,1.110,-0.215
14.453,0.945,-0.105
14.456,0.725,-0.005
14.458,0.510,0.060
14.461,0.335,0.060
14.464,0.175,0.025
14.467,0.025,0.000
14.469,-0.095,0.000
14.472,-0.150,0.025
14.475,-0.170,0.060
14.478,-0.155,0.090
14.481,-0.150,0.100
14.483,-0.165,0.090
14.486,-0.195,0.090
14.489,-0.195,0.095
14.492,-0.215,0.115
14.494,-0.210,0.135
14.497,-0.220,0.130
14.500,-0.255,0.115
14.503,-0.280,0.105
14.506,-0.295,0.105
14.508,-0.285,0.105
14.511,-0.280,0.120
14.514,-0.275,0.110
14.517,-0.280,0.110
14.519,-0.310,0.110
14.522,-0.320,0.120
14.525,-0.305,0.130
14.528,-0.290,0.135
14.531,-0.300,0.130
14.533,-0.295,0.125
14.536,-0.315,0.120
14.539,-0.315,0.115
14.542,-0.320,0.140
14.544,-0.290,0.150
14.547,-0.295,0.140
14.550,-0.285,0.125
14.553,-0.315,0.110
14.556,-0.310,0.120
14.558,-0.305,0.130
14.561,-0.300,0.135
14.564,-0.305,0.135
14.567,-0.305,0.120
14.569,-0.315,0.110
14.572,-0.320,0.115
14.575,-0.310,0.125
14.578,-0.285,0.130
14.581,-0.285,0.120
14.583,-0.290,0.115
14.586,-0.305,0.095
14.589,-0.305,0.090
14.592,-0.300,0.125
14.594,-0.290,0.130
14.597,-0.280,0.120
14.600,-0.280,0.105
14.603,-0.300,0.100
14.606,-0.290,0.095
14.608,-0.285,0.105
14.611,-0.275,0.120
14.614,-0.260,0.115
14.617,-0.255,0.110
14.619,-0.250,0.090
14.622,-0.260,0.095
14.625,-0.245,0.110
14.628,-0.235,0.125
14.631,-0.235,0.115
14.633,-0.220,0.105
14.636,-0.230,0.075
14.639,-0.230,0.090
14.642,-0.210,0.085
14.644,-0.185,0.105
14.647,-0.160,0.095
14.650,-0.165,0.065
14.653,-0.165,0.060
14.656,-0.170,0.075
14.658,-0.150,0.075
14.661,-0.120,0.080
14.664,-0.115,0.060
14.667,-0.105,0.060
14.669,-0.105,0.055
14.672,-0.090,0.055
14.675,-0.075,0.045
14.678,-0.055,0.045
14.681,-0.035,0.045
14.683,-0.035,0.030
14.686,-0.040,0.015
14.689,-0.030,0.025
14.692,-0.020,0.030
14.694,0.000,0.045
14.697,0.030,0.020
14.700,0.025,0.015
14.703,0.020,0.020
14.706,0.030,0.010
14.708,0.060,0.035
14.711,0.085,0.045
14.714,0.085,0.045
14.717,0.070,0.030
14.719,0.060,0.030
14.722,0.060,0.045
14.725,0.070,0.055
14.728,0.085,0.085
14.731,0.085,0.070
14.733,0.070,0.065
14.736,0.030,0.065
14.739,0.020,0.080
14.742,0.005,0.100
14.744,0.005,0.115
14.747,-0.010,0.110
14.750,-0.040,0.100
14.753,-0.070,0.105
14.756,-0.085,0.115
14.758,-0.095,0.125
14.761,-0.105,0.135
14.764,-0.130,0.135
14.767,-0.140,0.135
14.769,-0.185,0.115
14.772,-0.200,0.115
14.775,-0.205,0.115
14.778,-0.220,0.135
14.781,-0.230,0.135
14.783,-0.265,0.130
14.786,-0.270,0.110
14.789,-0.285,0.125
14.792,-0.295,0.135
14.794,-0.280,0.145
14.797,-0.285,0.140
14.800,-0.295,0.120
14.803,-0.320,0.115
14.806,-0.320,0.130
14.808,-0.315,0.145
14.811,-0.300,0.155
14.814,-0.315,0.145
14.817,-0.325,0.125
14.819,-0.345,0.120
14.822,-0.345,0.120
14.825,-0.345,0.125
14.828,-0.320,0.145
14.831,-0.320,0.130
14.833,-0.340,0.125
14.836,-0.340,0.105
14.839,-0.350,0.125
14.842,-0.340,0.130
14.844,-0.325,0.145
14.847,-0.325,0.140
14.850,-0.330,0.135
14.853,-0.330,0.115
14.856,-0.340,0.130
14.858,-0.340,0.145
14.861,-0.325,0.150
14.864,-0.325,0.125
14.867,-0.320,0.120
14.869,-0.345,0.130
14.872,-0.340,0.130
14.875,-0.335,0.145
14.878,-0.310,0.160
14.881,-0.310,0.145
14.883,-0.310,0.135
14.886,-0.335,0.110
14.889,-0.335,0.125
14.892,-0.320,0.130
14.894,-0.320,0.150
14.897,-0.310,0.140
14.900,-0.320,0.130
14.903,-0.330,0.125
14.906,-0.320,0.125
14.908,-0.340,0.145
14.911,-0.305,0.155
14.914,-0.300,0.145
14.917,-0.310,0.120
14.919,-0.330,0.110
14.922,-0.320,0.120
14.925,-0.320,0.130
14.928,-0.295,0.150
14.931,-0.305,0.130
14.933,-0.315,0.125
14.936,-0.325,0.110
14.939,-0.325,0.115
14.942,-0.330,0.125
14.944,-0.305,0.135
14.947,-0.300,0.145
14.950,-0.305,0.130
14.953,-0.335,0.110
14.956,-0.340,0.125
14.958,-0.325,0.130
14.961,-0.310,0.145
14.964,-0.305,0.140
14.967,-0.320,0.125
14.969,-0.335,0.110
14.972,-0.335,0.120
14.975,-0.335,0.140
14.978,-0.305,0.145
14.981,-0.300,0.140
14.983,-0.320,0.135
14.986,-0.335,0.125
14.989,-0.330,0.125
14.992,-0.320,0.125
14.994,-0.310,0.150
14.997,-0.305,0.135
15.000,-0.315,0.120
15.003,-0.340,0.115
15.006,-0.325,0.115
15.008,-0.330,0.130
15.011,-0.315,0.155
15.014,-0.310,0.145
15.017,-0.310,0.135
15.019,-0.320,0.105
15.022,-0.345,0.130
15.025,-0.330,0.130
15.028,-0.310,0.150
15.031,-0.305,0.140
15.033,-0.325,0.140
15.036,-0.320,0.130
15.039,-0.320,0.130
15.042,-0.300,0.130
15.044,-0.305,0.150
15.047,-0.295,0.140
15.050,-0.300,0.120
15.053,-0.335,0.120
15.056,-0.350,0.125
15.058,-0.330,0.135
15.061,-0.315,0.155
15.064,-0.305,0.155
15.067,-0.310,0.120
15.069,-0.325,0.115
15.072,-0.330,0.120
15.075,-0.320,0.130
15.078,-0.310,0.130
15.081,-0.305,0.125
15.083,-0.305,0.110
15.086,-0.330,0.105
15.089,-0.335,0.130
15.092,-0.320,0.135
15.094,-0.310,0.155
15.097,-0.295,0.125
15.100,-0.300,0.110
15.103,-0.325,0.110
15.106,-0.335,0.115
15.108,-0.315,0.130
15.111,-0.315,0.135
15.114,-0.300,0.135
15.117,-0.310,0.125
15.119,-0.320,0.105
15.122,-0.330,0.125
15.125,-0.315,0.130
15.128,-0.295,0.140
15.131,-0.295,0.125
15.133,-0.320,0.105
15.136,-0.320,0.100
15.139,-0.325,0.115
15.142,-0.315,0.130
15.144,-0.305,0.135
15.147,-0.290,0.135
15.150,-0.300,0.115
15.153,-0.310,0.110
15.156,-0.315,0.105
15.158,-0.305,0.120
15.161,-0.300,0.125
15.164,-0.305,0.125
15.167,-0.300,0.120
15.169,-0.330,0.100
15.172,-0.325,0.105
15.175,-0.315,0.115
15.178,-0.305,0.120
15.181,-0.295,0.120
15.183,-0.305,0.110
15.186,-0.335,0.100
15.189,-0.335,0.100
15.192,-0.315,0.120
15.194,-0.300,0.135
15.197,-0.300,0.125
15.200,-0.305,0.110
15.203,-0.315,0.105
15.206,-0.330,0.115
15.208,-0.315,0.120
15.211,-0.285,0.125
15.214,-0.290,0.120
15.217,-0.320,0.105
15.219,-0.325,0.105
15.222,-0.335,0.105
15.225,-0.295,0.115
15.228,-0.290,0.140
15.231,-0.285,0.120
15.233,-0.290,0.100
15.236,-0.310,0.095
15.239,-0.300,0.095
15.242,-0.295,0.115
15.244,-0.285,0.120
15.247,-0.275,0.120
15.250,-0.295,0.090
15.253,-0.300,0.080
15.256,-0.300,0.095
15.258,-0.285,0.110
15.261,-0.270,0.130
15.264,-0.275,0.110
15.267,-0.285,0.105
15.269,-0.295,0.095
15.272,-0.305,0.095
15.275,-0.285,0.100
15.278,-0.275,0.115
15.281,-0.285,0.100
15.283,-0.290,0.080
15.286,-0.310,0.075
15.289,-0.300,0.105
15.292,-0.310,0.120
15.294,-0.275,0.115
15.297,-0.265,0.115
15.300,-0.265,0.100
15.303,-0.285,0.095
15.306,-0.290,0.100
15.308,-0.290,0.115
15.311,-0.275,0.115
15.314,-0.270,0.105
15.317,-0.265,0.090
15.319,-0.280,0.080
15.322,-0.285,0.085
15.325,-0.275,0.110
15.328,-0.270,0.115
15.331,-0.270,0.110
15.333,-0.275,0.090
15.336,-0.285,0.085
15.339,-0.275,0.085
15.342,-0.270,0.110
15.344,-0.270,0.115
15.347,-0.255,0.105
15.350,-0.275,0.090
15.353,-0.290,0.085
15.356,-0.290,0.085
15.358,-0.285,0.090
15.361,-0.275,0.120
15.364,-0.260,0.100
15.367,-0.275,0.090
15.369,-0.280,0.075
15.372,-0.280,0.080
15.375,-0.280,0.085
15.378,-0.280,0.105
15.381,-0.275,0.085
15.383,-0.265,0.075
15.386,-0.285,0.065
15.389,-0.285,0.075
15.392,-0.275,0.090
15.394,-0.255,0.105
15.397,-0.260,0.105
15.400,-0.270,0.105
15.403,-0.285,0.095
15.406,-0.285,0.105
15.408,-0.275,0.125
15.411,-0.265,0.135
15.414,-0.260,0.125
15.417,-0.265,0.135
15.419,-0.280,0.115
15.422,-0.290,0.115
15.425,-0.260,0.125
15.428,-0.240,0.125
15.431,-0.220,0.125
15.433,-0.220,0.115
15.436,-0.225,0.090
15.439,-0.220,0.090
15.442,-0.200,0.105
15.444,-0.190,0.120
15.447,-0.190,0.110
15.450,-0.200,0.100
15.453,-0.210,0.080
15.456,-0.215,0.095
15.458,-0.210,0.100
15.461,-0.210,0.105
15.464,-0.210,0.100
15.467,-0.230,0.085
15.469,-0.230,0.070
15.472,-0.255,0.075
15.475,-0.240,0.090
15.478,-0.230,0.100
15.481,-0.230,0.100
15.483,-0.235,0.070
15.486,-0.260,0.065
15.489,-0.265,0.075
15.492,-0.255,0.085
15.494,-0.230,0.090
15.497,-0.240,0.085
15.500,-0.245,0.060
15.503,-0.260,0.050
15.506,-0.250,0.060
15.508,-0.240,0.080
15.511,-0.230,0.100
15.514,-0.230,0.075
15.517,-0.230,0.075
15.519,-0.240,0.060
15.522,-0.245,0.070
15.525,-0.230,0.080
15.528,-0.210,0.085
15.531,-0.205,0.085
15.533,-0.200,0.095
15.536,-0.210,0.095
15.539,-0.195,0.125
15.542,-0.185,0.145
15.544,-0.160,0.170
15.547,-0.145,0.130
15.550,-0.125,0.075
15.553,-0.120,-0.010
15.556,-0.090,-0.105
15.558,-0.045,-0.195
15.561,-0.010,-0.325
15.564,0.050,-0.470
15.567,0.150,-0.630
15.569,0.230,-0.795
15.572,0.355,-0.940
15.575,0.480,-1.030
15.578,0.605,-1.055
15.581,0.735,-1.015
15.583,0.825,-0.950
15.586,0.885,-0.850
15.589,1.005,-0.680
15.592,1.080,-0.515
15.594,1.080,-0.345
15.597,0.985,-0.200
15.600,0.825,-0.100
15.603,0.645,-0.040
15.606,0.490,0.010
15.608,0.345,0.015
15.611,0.225,-0.005
15.614,0.095,-0.010
15.617,-0.020,-0.005
15.619,-0.100,0.015
15.622,-0.140,0.035
15.625,-0.130,0.065
15.628,-0.115,0.100
15.631,-0.125,0.105
15.633,-0.145,0.100
15.636,-0.180,0.090
15.639,-0.200,0.100
15.642,-0.205,0.130
15.644,-0.205,0.130
15.647,-0.220,0.135
15.650,-0.235,0.120
15.653,-0.255,0.105
15.656,-0.255,0.125
15.658,-0.275,0.120
15.661,-0.270,0.155
15.664,-0.260,0.120
15.667,-0.270,0.110
15.669,-0.290,0.100
15.672,-0.300,0.120
15.675,-0.280,0.130
15.678,-0.285,0.145
15.681,-0.280,0.145
15.683,-0.285,0.120
15.686,-0.295,0.120
15.689,-0.295,0.115
15.692,-0.300,0.130
15.694,-0.290,0.145
15.697,-0.280,0.140
15.700,-0.295,0.130
15.703,-0.305,0.130
15.706,-0.305,0.125
15.708,-0.285,0.140
15.711,-0.275,0.160
15.714,-0.275,0.140
15.717,-0.275,0.135
15.719,-0.285,0.120
15.722,-0.290,0.130
15.725,-0.290,0.140
15.728,-0.275,0.155
15.731,-0.275,0.135
15.733,-0.275,0.125
15.736,-0.295,0.125
15.739,-0.275,0.110
15.742,-0.280,0.125
15.744,-0.270,0.130
15.747,-0.260,0.120
15.750,-0.270,0.100
15.753,-0.270,0.100
15.756,-0.270,0.100
15.758,-0.260,0.110
15.761,-0.240,0.125
15.764,-0.240,0.115
15.767,-0.270,0.095
15.769,-0.265,0.085
15.772,-0.270,0.095
15.775,-0.245,0.115
15.778,-0.235,0.105
15.781,-0.215,0.095
15.783,-0.215,0.080
15.786,-0.225,0.085
15.789,-0.210,0.075
15.792,-0.195,0.095
15.794,-0.170,0.090
15.797,-0.155,0.085
15.800,-0.170,0.080
15.803,-0.175,0.050
15.806,-0.160,0.055
15.808,-0.140,0.065
15.811,-0.110,0.075
15.814,-0.100,0.060
15.817,-0.105,0.035
15.819,-0.105,0.020
15.822,-0.105,0.020
15.825,-0.090,0.020
15.828,-0.065,0.030
15.831,-0.055,0.020
15.833,-0.045,0.000
15.836,-0.055,-0.005
15.839,-0.030,0.005
15.842,-0.015,0.015
15.844,0.015,0.010
15.847,0.030,-0.010
15.850,0.025,-0.025
15.853,0.025,-0.045
15.856,0.025,-0.035
15.858,0.045,-0.015
15.861,0.060,0.010
15.864,0.075,-0.005
15.867,0.075,-0.005
15.869,0.070,-0.020
15.872,0.060,-0.005
15.875,0.075,0.025
15.878,0.090,0.040
15.881,0.075,0.035
15.883,0.050,0.035
15.886,0.030,0.015
15.889,0.010,0.035
15.892,0.005,0.050
15.894,0.005,0.065
15.897,-0.020,0.075
15.900,-0.040,0.070
15.903,-0.070,0.050
15.906,-0.095,0.075
15.908,-0.120,0.095
15.911,-0.110,0.105
15.914,-0.125,0.105
15.917,-0.160,0.080
15.919,-0.180,0.070
15.922,-0.195,0.080
15.925,-0.205,0.095
15.928,-0.210,0.115
15.931,-0.230,0.105
15.933,-0.240,0.105
15.936,-0.260,0.105
15.939,-0.270,0.100
15.942,-0.255,0.100
15.944,-0.255,0.115
15.947,-0.255,0.115
15.950,-0.280,0.095
15.953,-0.295,0.085
15.956,-0.310,0.100
15.958,-0.300,0.100
15.961,-0.290,0.115
15.964,-0.295,0.095
15.967,-0.295,0.080
15.969,-0.315,0.080
15.972,-0.320,0.085
15.975,-0.330,0.100
15.978,-0.310,0.110
15.981,-0.315,0.105
15.983,-0.325,0.100
15.986,-0.345,0.080
15.989,-0.335,0.095
15.992,-0.340,0.090
15.994,-0.330,0.100
15.997,-0.310,0.110
16.000,-0.320,0.090
16.003,-0.335,0.085
16.006,-0.340,0.090
16.008,-0.330,0.105
16.011,-0.315,0.125
16.014,-0.315,0.110
16.017,-0.320,0.100
16.019,-0.335,0.090
16.022,-0.345,0.100
16.025,-0.330,0.100
16.028,-0.315,0.115
16.031,-0.315,0.115
16.033,-0.330,0.105
16.036,-0.340,0.095
16.039,-0.340,0.085
16.042,-0.330,0.110
16.044,-0.315,0.125
16.047,-0.320,0.115
16.050,-0.335,0.110
16.053,-0.355,0.085
16.056,-0.350,0.100
16.058,-0.340,0.115
16.061,-0.325,0.120
16.064,-0.330,0.110
16.067,-0.335,0.105
16.069,-0.355,0.090
16.072,-0.355,0.095
16.075,-0.340,0.105
16.078,-0.320,0.115
16.081,-0.320,0.110
16.083,-0.335,0.100
16.086,-0.330,0.080
16.089,-0.330,0.085
16.092,-0.325,0.095
16.094,-0.315,0.125
16.097,-0.310,0.110
16.100,-0.315,0.105
16.103,-0.330,0.090
16.106,-0.320,0.100
16.108,-0.315,0.115
16.111,-0.305,0.115
16.114,-0.295,0.100
16.117,-0.305,0.080
16.119,-0.315,0.090
16.122,-0.325,0.095
16.125,-0.315,0.105
16.128,-0.295,0.110
16.131,-0.290,0.090
16.133,-0.310,0.100
16.136,-0.315,0.085
16.139,-0.315,0.090
16.142,-0.325,0.110
16.144,-0.305,0.110
16.147,-0.290,0.105
16.150,-0.305,0.080
16.153,-0.330,0.080
16.156,-0.320,0.095
16.158,-0.320,0.090
16.161,-0.295,0.100
16.164,-0.305,0.100
16.167,-0.305,0.075
16.169,-0.330,0.080
16.172,-0.325,0.080
16.175,-0.325,0.085
16.178,-0.305,0.115
16.181,-0.300,0.095
16.183,-0.310,0.080
16.186,-0.330,0.070
16.189,-0.330,0.075
16.192,-0.325,0.090
16.194,-0.300,0.090
16.197,-0.295,0.090
16.200,-0.320,0.090
16.203,-0.335,0.075
16.206,-0.325,0.090
16.208,-0.320,0.100
16.211,-0.315,0.110
16.214,-0.315,0.095
16.217,-0.300,0.085
16.219,-0.320,0.070
16.222,-0.320,0.085
16.225,-0.305,0.090
16.228,-0.305,0.095
16.231,-0.305,0.095
16.233,-0.305,0.070
16.236,-0.335,0.060
16.239,-0.320,0.060
16.242,-0.315,0.080
16.244,-0.300,0.100
16.247,-0.305,0.085
16.250,-0.315,0.080
16.253,-0.335,0.065
16.256,-0.335,0.065
16.258,-0.310,0.085
16.261,-0.320,0.080
16.264,-0.300,0.085
16.267,-0.310,0.070
16.269,-0.320,0.060
16.272,-0.330,0.070
16.275,-0.315,0.085
16.278,-0.305,0.090
16.281,-0.300,0.080
16.283,-0.315,0.055
16.286,-0.315,0.060
16.289,-0.330,0.075
16.292,-0.325,0.090
16.294,-0.305,0.100
16.297,-0.305,0.085
16.300,-0.315,0.070
16.303,-0.315,0.070
16.306,-0.325,0.080
16.308,-0.315,0.080
16.311,-0.295,0.095
16.314,-0.290,0.080
16.317,-0.290,0.060
16.319,-0.310,0.055
16.322,-0.320,0.065
16.325,-0.320,0.070
16.328,-0.300,0.085
16.331,-0.295,0.080
16.333,-0.305,0.065
16.336,-0.320,0.055
16.339,-0.325,0.050
16.342,-0.320,0.060
16.344,-0.310,0.080
16.347,-0.305,0.070
16.350,-0.310,0.070
16.353,-0.320,0.055
16.356,-0.335,0.070
16.358,-0.330,0.070
16.361,-0.320,0.075
16.364,-0.305,0.075
16.367,-0.310,0.055
16.369,-0.330,0.045
16.372,-0.345,0.055
16.375,-0.320,0.070
16.378,-0.305,0.070
16.381,-0.300,0.060
16.383,-0.325,0.040
16.386,-0.335,0.040
16.389,-0.325,0.045
16.392,-0.315,0.075
16.394,-0.295,0.085
16.397,-0.300,0.085
16.400,-0.295,0.060
16.403,-0.310,0.050
16.406,-0.325,0.060
16.408,-0.320,0.065
16.411,-0.300,0.070
16.414,-0.315,0.070
16.417,-0.305,0.055
16.419,-0.315,0.040
16.422,-0.320,0.055
16.425,-0.310,0.050
16.428,-0.300,0.055
16.431,-0.295,0.065
16.433,-0.305,0.045
16.436,-0.325,0.055
16.439,-0.320,0.055
16.442,-0.320,0.065
16.444,-0.295,0.070
16.447,-0.285,0.050
16.450,-0.295,0.045
16.453,-0.325,0.025
16.456,-0.310,0.035
16.458,-0.305,0.055
16.461,-0.290,0.065
16.464,-0.295,0.070
16.467,-0.300,0.040
16.469,-0.315,0.030
16.472,-0.320,0.035
16.475,-0.295,0.050
16.478,-0.295,0.060
16.481,-0.300,0.050
16.483,-0.285,0.035
16.486,-0.295,0.025
16.489,-0.295,0.020
16.492,-0.290,0.035
16.494,-0.270,0.040
16.497,-0.275,0.030
16.500,-0.285,0.005
16.503,-0.295,0.010
16.506,-0.290,0.030
16.508,-0.280,0.045
16.511,-0.260,0.055
16.514,-0.265,0.040
16.517,-0.280,0.030
16.519,-0.290,0.025
16.522,-0.300,0.040
16.525,-0.295,0.060
16.528,-0.255,0.080
16.531,-0.275,0.090
16.533,-0.280,0.075
16.536,-0.285,0.070
16.539,-0.300,0.065
16.542,-0.280,0.075
16.544,-0.245,0.085
16.547,-0.245,0.085
16.550,-0.255,0.070
16.553,-0.255,0.055
16.556,-0.240,0.050
16.558,-0.230,0.055
16.561,-0.210,0.070
16.564,-0.205,0.060
16.567,-0.230,0.050
16.569,-0.255,0.045
16.572,-0.240,0.050
16.575,-0.245,0.060
16.578,-0.225,0.075
16.581,-0.230,0.050
16.583,-0.245,0.045
16.586,-0.270,0.030
16.589,-0.275,0.045
16.592,-0.280,0.055
16.594,-0.265,0.060
16.597,-0.260,0.045
16.600,-0.280,0.035
16.603,-0.285,0.025
16.606,-0.285,0.030
16.608,-0.280,0.050
16.611,-0.255,0.050
16.614,-0.260,0.050
16.617,-0.275,0.025
16.619,-0.275,0.025
16.622,-0.275,0.025
16.625,-0.265,0.045
16.628,-0.270,0.055
16.631,-0.255,0.030
16.633,-0.260,0.025
16.636,-0.270,0.025
16.639,-0.275,0.030
16.642,-0.265,0.035
16.644,-0.250,0.050
16.647,-0.255,0.030
16.650,-0.245,0.035
16.653,-0.245,0.055
16.656,-0.250,0.075
16.658,-0.230,0.105
16.661,-0.205,0.105
16.664,-0.180,0.080
16.667,-0.170,0.035
16.669,-0.145,-0.045
16.672,-0.105,-0.145
16.675,-0.080,-0.245
16.678,-0.035,-0.375
16.681,0.035,-0.515
16.683,0.125,-0.685
16.686,0.210,-0.855
16.689,0.340,-0.990
16.692,0.490,-1.080
16.694,0.635,-1.075
16.697,0.745,-1.045
16.700,0.840,-0.985
16.703,0.930,-0.875
16.706,1.060,-0.750
16.708,1.155,-0.585
16.711,1.190,-0.450
16.714,1.130,-0.320
16.717,1.005,-0.215
16.719,0.805,-0.110
16.722,0.605,-0.035
16.725,0.420,0.000
16.728,0.260,0.000
16.731,0.100,-0.040
16.733,-0.040,-0.070
16.736,-0.145,-0.065
16.739,-0.185,-0.035
16.742,-0.180,-0.015
16.744,-0.145,0.035
16.747,-0.155,0.030
16.750,-0.175,0.025
16.753,-0.185,0.025
16.756,-0.205,0.050
16.758,-0.215,0.055
16.761,-0.220,0.075
16.764,-0.225,0.060
16.767,-0.240,0.060
16.769,-0.270,0.050
16.772,-0.290,0.055
16.775,-0.275,0.080
16.778,-0.265,0.090
16.781,-0.255,0.080
16.783,-0.280,0.070
16.786,-0.290,0.060
16.789,-0.285,0.070
16.792,-0.280,0.080
16.794,-0.275,0.095
16.797,-0.280,0.085
16.800,-0.295,0.085
16.803,-0.305,0.065
16.806,-0.300,0.060
16.808,-0.295,0.080
16.811,-0.280,0.090
16.814,-0.275,0.085
16.817,-0.285,0.070
16.819,-0.300,0.050
16.822,-0.310,0.055
16.825,-0.305,0.065
16.828,-0.280,0.085
16.831,-0.265,0.075
16.833,-0.285,0.055
16.836,-0.300,0.045
16.839,-0.295,0.060
16.842,-0.280,0.065
16.844,-0.265,0.075
16.847,-0.260,0.070
16.850,-0.265,0.060
16.853,-0.275,0.045
16.856,-0.275,0.050
16.858,-0.270,0.060
16.861,-0.265,0.065
16.864,-0.265,0.070
16.867,-0.255,0.040
16.869,-0.275,0.040
16.872,-0.270,0.045
16.875,-0.250,0.040
16.878,-0.240,0.055
16.881,-0.230,0.050
16.883,-0.230,0.035
16.886,-0.245,0.020
16.889,-0.245,0.035
16.892,-0.240,0.015
16.894,-0.200,0.035
16.897,-0.195,0.035
16.900,-0.195,0.015
16.903,-0.205,-0.010
16.906,-0.205,-0.005
16.908,-0.185,0.020
16.911,-0.155,0.020
16.914,-0.135,0.025
16.917,-0.140,0.000
16.919,-0.155,-0.005
16.922,-0.160,-0.005
16.925,-0.130,0.000
16.928,-0.095,0.010
16.931,-0.075,-0.005
16.933,-0.080,-0.020
16.936,-0.070,-0.035
16.939,-0.070,-0.040
16.942,-0.050,-0.025
16.944,-0.025,-0.025
16.947,-0.010,-0.030
16.950,-0.020,-0.050
16.953,-0.010,-0.060
16.956,-0.015,-0.065
16.958,0.020,-0.050
16.961,0.045,-0.040
16.964,0.050,-0.040
16.967,0.030,-0.055
16.969,0.035,-0.060
16.972,0.030,-0.055
16.975,0.070,-0.040
16.978,0.085,-0.020
16.981,0.080,-0.025
16.983,0.080,-0.040
16.986,0.040,-0.035
16.989,0.055,-0.030
16.992,0.045,-0.010
16.994,0.040,0.005
16.997,0.025,0.015
17.000,-0.005,0.010
17.003,-0.030,0.005
17.006,-0.045,0.020
17.008,-0.070,0.040
17.011,-0.060,0.035
17.014,-0.085,0.045
17.017,-0.115,0.040
17.019,-0.165,0.050
17.022,-0.180,0.055
17.025,-0.165,0.060
17.028,-0.165,0.070
17.031,-0.185,0.070
17.033,-0.200,0.060
17.036,-0.220,0.045
17.039,-0.255,0.050
17.042,-0.240,0.060
17.044,-0.240,0.075
17.047,-0.240,0.060
17.050,-0.265,0.060
17.053,-0.300,0.050
17.056,-0.300,0.050
17.058,-0.280,0.065
17.061,-0.275,0.060
17.064,-0.275,0.050
17.067,-0.280,0.040
17.069,-0.300,0.040
17.072,-0.315,0.050
17.075,-0.305,0.050
17.078,-0.280,0.070
17.081,-0.290,0.060
17.083,-0.305,0.045
17.086,-0.320,0.045
17.089,-0.310,0.060
17.092,-0.310,0.080
17.094,-0.295,0.085
17.097,-0.300,0.070
17.100,-0.310,0.055
17.103,-0.320,0.055
17.106,-0.315,0.070
17.108,-0.300,0.075
17.111,-0.290,0.090
17.114,-0.285,0.085
17.117,-0.310,0.070
17.119,-0.300,0.055
17.122,-0.315,0.070
17.125,-0.305,0.080
17.128,-0.290,0.090
17.131,-0.290,0.090
17.133,-0.290,0.080
17.136,-0.315,0.060
17.139,-0.300,0.070
17.142,-0.285,0.075
17.144,-0.270,0.095
17.147,-0.280,0.080
17.150,-0.285,0.075
17.153,-0.305,0.070
17.156,-0.290,0.065
17.158,-0.275,0.075
17.161,-0.270,0.085
17.164,-0.265,0.090
17.167,-0.270,0.075
17.169,-0.280,0.065
17.172,-0.285,0.075
17.175,-0.295,0.095
17.178,-0.275,0.105
17.181,-0.255,0.090
17.183,-0.260,0.075
17.186,-0.275,0.050
17.189,-0.285,0.065
17.192,-0.270,0.080
17.194,-0.255,0.080
17.197,-0.260,0.080
17.200,-0.260,0.075
17.203,-0.275,0.070
17.206,-0.275,0.085
17.208,-0.260,0.095
17.211,-0.245,0.105
17.214,-0.250,0.095
17.217,-0.255,0.070
17.219,-0.285,0.070
17.222,-0.280,0.080
17.225,-0.270,0.095
17.228,-0.275,0.090
17.231,-0.260,0.080
17.233,-0.255,0.075
17.236,-0.265,0.070
17.239,-0.285,0.075
17.242,-0.275,0.085
17.244,-0.260,0.095
17.247,-0.275,0.095
17.250,-0.270,0.075
17.253,-0.275,0.075
17.256,-0.270,0.080
17.258,-0.280,0.085
17.261,-0.275,0.105
17.264,-0.270,0.100
17.267,-0.280,0.080
17.269,-0.285,0.070
17.272,-0.290,0.090
17.275,-0.280,0.110
17.278,-0.270,0.100
17.281,-0.265,0.090
