'Elapsed time','MLII','V1'
'seconds','mV','mV'
0.000,-0.260,0.065
0.003,-0.260,0.065
0.006,-0.260,0.065
0.008,-0.260,0.065
0.011,-0.260,0.065
0.014,-0.260,0.065
0.017,-0.260,0.065
0.019,-0.260,0.065
0.022,-0.145,0.065
0.025,-0.175,0.110
0.028,-0.275,0.125
0.031,-0.380,0.125
0.033,-0.405,0.110
0.036,-0.385,0.105
0.039,-0.310,0.110
0.042,-0.240,0.090
0.044,-0.255,0.060
0.047,-0.325,0.060
0.050,-0.375,0.075
0.053,-0.345,0.110
0.056,-0.230,0.125
0.058,-0.120,0.125
0.061,-0.060,0.110
0.064,-0.120,0.115
0.067,-0.220,0.120
0.069,-0.350,0.160
0.072,-0.365,0.200
0.075,-0.335,0.205
0.078,-0.260,0.205
0.081,-0.175,0.220
0.083,-0.105,0.220
0.086,-0.140,0.230
0.089,-0.200,0.255
0.092,-0.235,0.260
0.094,-0.295,0.265
0.097,-0.395,0.255
0.100,-0.490,0.255
0.103,-0.475,0.265
0.106,-0.395,0.265
0.108,-0.315,0.245
0.111,-0.260,0.230
0.114,-0.210,0.215
0.117,-0.200,0.180
0.119,-0.160,0.170
0.122,-0.095,0.130
0.125,-0.040,0.100
0.128,-0.020,0.040
0.131,-0.035,0.015
0.133,-0.090,-0.005
0.136,-0.170,0.005
0.139,-0.240,0.040
0.142,-0.280,0.035
0.144,-0.300,0.045
0.147,-0.285,0.020
0.150,-0.275,0.000
0.153,-0.245,0.015
0.156,-0.185,0.040
0.158,-0.100,0.055
0.161,-0.055,0.045
0.164,-0.130,-0.005
0.167,-0.295,-0.030
0.169,-0.400,-0.040
0.172,-0.345,-0.030
0.175,-0.270,-0.025
0.178,-0.255,-0.025
0.181,-0.255,-0.005
0.183,-0.215,0.015
0.186,-0.175,0.025
0.189,-0.155,0.035
0.192,-0.175,-0.005
0.194,-0.235,-0.015
0.197,-0.315,-0.035
0.200,-0.335,-0.030
0.203,-0.310,0.005
0.206,-0.260,0.020
0.208,-0.260,0.030
0.211,-0.305,0.035
0.214,-0.340,0.060
0.217,-0.280,0.080
0.219,-0.205,0.140
0.222,-0.160,0.205
0.225,-0.215,0.240
0.228,-0.340,0.245
0.231,-0.340,0.220
0.233,-0.165,0.190
0.236,0.040,0.175
0.239,0.180,0.145
0.242,0.230,0.085
0.244,0.260,0.015
0.247,0.255,-0.055
0.250,0.275,-0.080
0.253,0.430,-0.090
0.256,0.700,-0.135
0.258,1.000,-0.210
0.261,1.285,-0.285
0.264,1.465,-0.355
0.267,1.530,-0.410
0.269,1.480,-0.420
0.272,1.385,-0.420
0.275,1.345,-0.415
0.278,1.355,-0.460
0.281,1.370,-0.505
0.283,1.325,-0.510
0.286,1.260,-0.485
0.289,1.170,-0.430
0.292,1.025,-0.400
0.294,0.830,-0.355
0.297,0.655,-0.305
0.300,0.520,-0.255
0.303,0.420,-0.160
0.306,0.360,-0.095
0.308,0.240,-0.060
0.311,0.000,-0.010
0.314,-0.255,0.030
0.317,-0.395,0.065
0.319,-0.400,0.100
0.322,-0.290,0.105
0.325,-0.185,0.100
0.328,-0.165,0.100
0.331,-0.285,0.090
0.333,-0.430,0.080
0.336,-0.495,0.060
0.339,-0.485,0.050
0.342,-0.415,-0.040
0.344,-0.365,-0.105
0.347,-0.340,-0.140
0.350,-0.370,-0.135
0.353,-0.470,-0.085
0.356,-0.535,-0.050
0.358,-0.565,-0.020
0.361,-0.535,-0.005
0.364,-0.500,-0.015
0.367,-0.440,-0.020
0.369,-0.410,-0.010
0.372,-0.410,-0.020
0.375,-0.505,-0.035
0.378,-0.655,-0.060
0.381,-0.770,-0.055
0.383,-0.775,-0.030
0.386,-0.620,0.005
0.389,-0.450,0.030
0.392,-0.405,0.030
0.394,-0.465,0.035
0.397,-0.535,0.050
0.400,-0.575,0.100
0.403,-0.550,0.155
0.406,-0.520,0.165
0.408,-0.510,0.105
0.411,-0.490,0.050
0.414,-0.455,-0.015
0.417,-0.510,-0.030
0.419,-0.640,-0.010
0.422,-0.690,0.025
0.425,-0.615,0.030
0.428,-0.495,0.025
0.431,-0.440,0.010
0.433,-0.405,0.030
0.436,-0.360,0.030
0.439,-0.340,0.060
0.442,-0.425,0.060
0.444,-0.570,0.070
0.447,-0.615,0.095
0.450,-0.525,0.125
0.453,-0.425,0.160
0.456,-0.420,0.170
0.458,-0.430,0.195
0.461,-0.400,0.175
0.464,-0.355,0.195
0.467,-0.365,0.220
0.469,-0.395,0.245
0.472,-0.400,0.280
0.475,-0.355,0.285
0.478,-0.330,0.265
0.481,-0.340,0.240
0.483,-0.330,0.250
0.486,-0.315,0.270
0.489,-0.275,0.270
0.492,-0.215,0.250
0.494,-0.135,0.205
0.497,-0.075,0.185
0.500,-0.080,0.195
0.503,-0.055,0.190
0.506,-0.030,0.200
0.508,-0.020,0.185
0.511,-0.035,0.160
0.514,-0.045,0.155
0.517,-0.050,0.190
0.519,-0.070,0.220
0.522,-0.065,0.265
0.525,-0.140,0.265
0.528,-0.210,0.245
0.531,-0.250,0.215
0.533,-0.205,0.180
0.536,-0.010,0.160
0.539,0.125,0.130
0.542,0.080,0.065
0.544,-0.050,0.005
0.547,-0.170,-0.060
0.550,-0.225,-0.105
0.553,-0.280,-0.130
0.556,-0.340,-0.105
0.558,-0.320,-0.105
0.561,-0.255,-0.120
0.564,-0.150,-0.105
0.567,-0.045,-0.065
0.569,-0.010,0.005
0.572,-0.010,0.055
0.575,0.035,0.050
0.578,0.015,0.015
0.581,-0.155,-0.020
0.583,-0.455,-0.045
0.586,-0.655,-0.045
0.589,-0.640,-0.045
0.592,-0.465,-0.060
0.594,-0.290,-0.070
0.597,-0.245,-0.065
0.600,-0.260,-0.070
0.603,-0.275,-0.025
0.606,-0.275,0.015
0.608,-0.280,0.025
0.611,-0.320,0.030
0.614,-0.405,0.025
0.617,-0.440,0.030
0.619,-0.380,0.020
0.622,-0.225,0.025
0.625,-0.135,0.015
0.628,-0.175,-0.010
0.631,-0.250,0.010
0.633,-0.320,0.030
0.636,-0.330,0.080
0.639,-0.260,0.130
0.642,-0.155,0.130
0.644,-0.120,0.095
0.647,-0.180,0.055
0.650,-0.310,0.055
0.653,-0.370,0.050
0.656,-0.330,0.075
0.658,-0.300,0.075
0.661,-0.400,0.065
0.664,-0.500,0.080
0.667,-0.540,0.080
0.669,-0.510,0.105
0.672,-0.390,0.135
0.675,-0.220,0.120
0.678,-0.125,0.105
0.681,-0.165,0.115
0.683,-0.300,0.160
0.686,-0.375,0.225
0.689,-0.370,0.245
0.692,-0.380,0.235
0.694,-0.400,0.200
0.697,-0.385,0.180
0.700,-0.340,0.150
0.703,-0.320,0.160
0.706,-0.305,0.165
0.708,-0.250,0.135
0.711,-0.175,0.100
0.714,-0.145,0.055
0.717,-0.170,0.040
0.719,-0.250,0.020
0.722,-0.320,0.005
0.725,-0.345,-0.020
0.728,-0.320,-0.055
0.731,-0.200,-0.080
0.733,-0.070,-0.070
0.736,-0.070,-0.040
0.739,-0.205,-0.020
0.742,-0.320,-0.020
0.744,-0.320,-0.025
0.747,-0.235,-0.035
0.750,-0.155,-0.035
0.753,-0.155,-0.005
0.756,-0.230,0.030
0.758,-0.260,0.015
0.761,-0.215,0.010
0.764,-0.170,-0.010
0.767,-0.130,-0.025
0.769,-0.100,-0.025
0.772,-0.110,-0.005
0.775,-0.170,-0.005
0.778,-0.230,-0.010
0.781,-0.270,-0.015
0.783,-0.265,-0.005
0.786,-0.230,0.005
0.789,-0.185,0.045
0.792,-0.160,0.055
0.794,-0.170,0.050
0.797,-0.190,0.045
0.800,-0.185,0.065
0.803,-0.160,0.105
0.806,-0.175,0.130
0.808,-0.215,0.100
0.811,-0.255,0.065
0.814,-0.295,0.025
0.817,-0.300,0.025
0.819,-0.215,0.025
0.822,-0.140,0.040
0.825,-0.110,0.040
0.828,-0.150,0.015
0.831,-0.210,0.015
0.833,-0.245,0.025
0.836,-0.180,0.040
0.839,-0.085,0.050
0.842,-0.045,0.045
0.844,-0.125,0.030
0.847,-0.280,0.040
0.850,-0.435,0.060
0.853,-0.475,0.095
0.856,-0.400,0.115
0.858,-0.265,0.110
0.861,-0.175,0.080
0.864,-0.180,0.050
0.867,-0.230,0.035
0.869,-0.215,0.030
0.872,-0.140,0.025
0.875,-0.110,-0.010
0.878,-0.165,-0.045
0.881,-0.245,-0.065
0.883,-0.290,-0.100
0.886,-0.290,-0.080
0.889,-0.280,-0.100
0.892,-0.275,-0.100
0.894,-0.225,-0.120
0.897,-0.200,-0.140
0.900,-0.210,-0.155
0.903,-0.265,-0.170
0.906,-0.280,-0.190
0.908,-0.235,-0.215
0.911,-0.195,-0.260
0.914,-0.185,-0.270
0.917,-0.200,-0.255
0.919,-0.185,-0.210
0.922,-0.125,-0.160
0.925,-0.050,-0.155
0.928,0.020,-0.150
0.931,0.000,-0.145
0.933,-0.090,-0.125
0.936,-0.170,-0.100
0.939,-0.205,-0.080
0.942,-0.180,-0.065
0.944,-0.090,-0.060
0.947,-0.025,-0.045
0.950,-0.060,-0.010
0.953,-0.175,0.030
0.956,-0.215,0.050
0.958,-0.175,0.025
0.961,-0.155,0.010
0.964,-0.145,-0.030
0.967,-0.080,-0.055
0.969,0.015,-0.055
0.972,0.010,-0.035
0.975,-0.100,-0.045
0.978,-0.180,-0.045
0.981,-0.180,-0.045
0.983,-0.110,-0.015
0.986,-0.125,0.015
0.989,-0.205,0.045
0.992,-0.235,0.025
0.994,-0.190,-0.005
0.997,-0.125,-0.040
1.000,-0.120,-0.050
1.003,-0.130,-0.030
1.006,-0.105,0.000
1.008,-0.035,0.010
1.011,-0.030,0.025
1.014,-0.160,0.000
1.017,-0.325,0.035
1.019,-0.330,0.095
1.022,-0.240,0.165
1.025,-0.185,0.205
1.028,-0.205,0.210
1.031,-0.190,0.160
1.033,-0.155,0.110
1.036,-0.150,0.060
1.039,-0.155,0.040
1.042,-0.190,0.010
1.044,-0.180,-0.005
1.047,-0.125,-0.015
1.050,-0.095,-0.010
1.053,-0.105,-0.020
1.056,-0.055,-0.030
1.058,-0.020,-0.060
1.061,-0.065,-0.095
1.064,-0.145,-0.130
1.067,-0.205,-0.130
1.069,-0.185,-0.115
1.072,-0.135,-0.100
1.075,-0.125,-0.105
1.078,-0.155,-0.120
1.081,-0.185,-0.140
1.083,-0.140,-0.140
1.086,-0.080,-0.115
1.089,-0.020,-0.105
1.092,-0.010,-0.075
1.094,-0.030,-0.065
1.097,-0.035,-0.065
1.100,-0.015,-0.060
1.103,-0.005,-0.045
1.106,-0.020,-0.030
1.108,-0.105,-0.040
1.111,-0.200,-0.040
1.114,-0.235,0.000
1.117,-0.185,0.045
1.119,-0.155,0.095
1.122,-0.145,0.115
1.125,-0.075,0.105
1.128,-0.030,0.085
1.131,-0.055,0.035
1.133,-0.085,-0.005
1.136,-0.090,-0.015
1.139,-0.050,0.015
1.142,0.030,0.005
1.144,0.135,0.010
1.147,0.190,0.010
1.150,0.185,0.030
1.153,0.170,0.035
1.156,0.170,0.010
1.158,0.160,0.015
1.161,0.125,-0.005
1.164,0.115,-0.005
1.167,0.245,0.005
1.169,0.470,-0.005
1.172,0.690,-0.020
1.175,0.860,-0.080
1.178,1.040,-0.140
1.181,1.265,-0.215
1.183,1.485,-0.290
1.186,1.670,-0.360
1.189,1.760,-0.370
1.192,1.815,-0.375
1.194,1.800,-0.425
1.197,1.715,-0.480
1.200,1.630,-0.540
1.203,1.635,-0.590
1.206,1.625,-0.635
1.208,1.535,-0.660
1.211,1.375,-0.720
1.214,1.210,-0.730
1.217,1.065,-0.715
1.219,0.900,-0.655
1.222,0.680,-0.595
1.225,0.330,-0.540
1.228,0.035,-0.505
1.231,-0.080,-0.455
1.233,-0.080,-0.400
1.236,-0.085,-0.370
1.239,-0.075,-0.345
1.242,-0.070,-0.355
1.244,-0.120,-0.370
1.247,-0.270,-0.365
1.250,-0.445,-0.320
1.253,-0.550,-0.285
1.256,-0.565,-0.220
1.258,-0.470,-0.190
1.261,-0.300,-0.195
1.264,-0.220,-0.185
1.267,-0.305,-0.165
1.269,-0.500,-0.130
1.272,-0.645,-0.100
1.275,-0.660,-0.085
1.278,-0.585,-0.080
1.281,-0.500,-0.055
1.283,-0.445,-0.040
1.286,-0.455,-0.020
1.289,-0.465,0.015
1.292,-0.465,0.020
1.294,-0.500,0.025
1.297,-0.470,0.020
1.300,-0.430,0.010
1.303,-0.400,0.005
1.306,-0.435,-0.005
1.308,-0.475,-0.050
1.311,-0.460,-0.070
1.314,-0.445,-0.050
1.317,-0.475,-0.020
1.319,-0.550,0.035
1.322,-0.640,0.080
1.325,-0.655,0.120
1.328,-0.610,0.125
1.331,-0.545,0.130
1.333,-0.475,0.155
1.336,-0.425,0.165
1.339,-0.395,0.195
1.342,-0.410,0.205
1.344,-0.415,0.225
1.347,-0.460,0.235
1.350,-0.475,0.245
1.353,-0.465,0.280
1.356,-0.435,0.325
1.358,-0.405,0.335
1.361,-0.380,0.345
1.364,-0.375,0.330
1.367,-0.380,0.345
1.369,-0.395,0.365
1.372,-0.420,0.375
1.375,-0.455,0.370
1.378,-0.490,0.335
1.381,-0.510,0.275
1.383,-0.475,0.250
1.386,-0.415,0.235
1.389,-0.355,0.195
1.392,-0.340,0.135
1.394,-0.345,0.040
1.397,-0.350,-0.020
1.400,-0.300,-0.055
1.403,-0.200,-0.075
1.406,-0.105,-0.105
1.408,-0.045,-0.135
1.411,-0.065,-0.160
1.414,-0.165,-0.165
1.417,-0.250,-0.150
1.419,-0.285,-0.125
1.422,-0.215,-0.105
1.425,-0.070,-0.095
1.428,0.060,-0.100
1.431,0.095,-0.120
1.433,-0.035,-0.090
1.436,-0.150,-0.060
1.439,-0.090,-0.030
1.442,0.060,-0.010
1.444,0.135,-0.020
1.447,0.060,-0.025
1.450,-0.110,-0.005
1.453,-0.215,-0.030
1.456,-0.165,-0.020
1.458,-0.080,-0.055
1.461,-0.040,-0.080
1.464,-0.055,-0.100
1.467,-0.030,-0.070
1.469,-0.025,-0.015
1.472,-0.040,0.015
1.475,-0.035,0.045
1.478,-0.080,0.025
1.481,-0.100,0.020
1.483,-0.050,0.005
1.486,0.055,0.010
1.489,0.075,0.010
1.492,0.000,-0.010
1.494,-0.135,-0.030
1.497,-0.200,-0.020
1.500,-0.150,0.025
1.503,-0.070,0.060
1.506,-0.020,0.100
1.508,0.010,0.100
1.511,0.015,0.055
1.514,0.040,0.030
1.517,-0.015,0.035
1.519,-0.095,0.065
1.522,-0.185,0.095
1.525,-0.190,0.130
1.528,-0.155,0.130
1.531,-0.100,0.135
1.533,-0.060,0.165
1.536,-0.025,0.185
1.539,-0.005,0.195
1.542,0.015,0.180
1.544,0.030,0.170
1.547,0.025,0.165
1.550,0.020,0.190
1.553,-0.015,0.165
1.556,-0.045,0.145
1.558,-0.080,0.080
1.561,-0.085,0.035
1.564,-0.090,0.015
1.567,-0.085,-0.005
1.569,-0.080,-0.005
1.572,-0.105,-0.025
1.575,-0.100,-0.065
1.578,-0.090,-0.085
1.581,-0.025,-0.095
1.583,-0.010,-0.075
1.586,-0.040,-0.060
1.589,-0.090,-0.055
1.592,-0.105,-0.070
1.594,-0.055,-0.080
1.597,-0.010,-0.085
1.600,-0.025,-0.080
1.603,-0.090,-0.045
1.606,-0.140,-0.040
1.608,-0.190,-0.035
1.611,-0.225,-0.040
1.614,-0.210,-0.070
1.617,-0.110,-0.050
1.619,-0.050,-0.035
1.622,-0.055,-0.015
1.625,-0.070,-0.010
1.628,-0.045,0.005
1.631,-0.075,-0.005
1.633,-0.120,0.010
1.636,-0.125,0.015
1.639,-0.025,0.050
1.642,0.100,0.035
1.644,0.175,0.030
1.647,0.085,0.010
1.650,-0.095,0.025
1.653,-0.200,0.040
1.656,-0.220,0.055
1.658,-0.160,0.050
1.661,-0.095,0.045
1.664,-0.055,0.040
1.667,-0.070,0.075
1.669,-0.075,0.135
1.672,-0.075,0.165
1.675,-0.125,0.150
1.678,-0.200,0.120
1.681,-0.260,0.070
1.683,-0.180,0.060
1.686,-0.065,0.050
1.689,0.015,0.060
1.692,0.020,0.035
1.694,-0.050,0.040
1.697,-0.155,0.045
1.700,-0.215,0.060
1.703,-0.175,0.080
1.706,-0.055,0.040
1.708,0.070,0.020
1.711,0.110,-0.020
1.714,0.010,-0.040
1.717,-0.110,-0.040
1.719,-0.190,-0.010
1.722,-0.200,-0.020
1.725,-0.170,-0.040
1.728,-0.095,-0.090
1.731,-0.055,-0.145
1.733,-0.050,-0.170
1.736,-0.050,-0.190
1.739,-0.060,-0.170
1.742,-0.085,-0.180
1.744,-0.125,-0.160
1.747,-0.130,-0.175
1.750,-0.105,-0.135
1.753,-0.050,-0.095
1.756,0.005,-0.060
1.758,-0.010,-0.050
1.761,-0.070,-0.015
1.764,-0.120,0.030
1.767,-0.125,0.095
1.769,-0.035,0.145
1.772,0.065,0.165
1.775,0.095,0.135
1.778,0.080,0.090
1.781,0.015,0.045
1.783,-0.060,0.025
1.786,-0.080,0.045
1.789,0.030,0.070
1.792,0.200,0.075
1.794,0.310,0.085
1.797,0.335,0.090
1.800,0.335,0.150
1.803,0.400,0.175
1.806,0.480,0.175
1.808,0.590,0.135
1.811,0.745,0.100
1.814,0.975,0.055
1.817,1.215,0.025
1.819,1.400,-0.025
1.822,1.480,-0.095
1.825,1.460,-0.175
1.828,1.420,-0.245
1.831,1.425,-0.300
1.833,1.455,-0.335
1.836,1.510,-0.370
1.839,1.545,-0.420
1.842,1.540,-0.510
1.844,1.340,-0.580
1.847,1.070,-0.610
1.850,0.850,-0.585
1.853,0.735,-0.525
1.856,0.640,-0.470
1.858,0.405,-0.390
1.861,0.095,-0.330
1.864,-0.145,-0.260
1.867,-0.195,-0.205
1.869,-0.170,-0.150
1.872,-0.165,-0.105
1.875,-0.235,-0.105
1.878,-0.335,-0.145
1.881,-0.390,-0.150
1.883,-0.365,-0.120
1.886,-0.355,-0.085
1.889,-0.370,-0.040
1.892,-0.420,-0.015
1.894,-0.455,-0.025
1.897,-0.460,-0.050
1.900,-0.425,-0.110
1.903,-0.405,-0.135
1.906,-0.380,-0.145
1.908,-0.365,-0.155
1.911,-0.365,-0.170
1.914,-0.365,-0.135
1.917,-0.375,-0.095
1.919,-0.410,-0.055
1.922,-0.445,-0.035
1.925,-0.435,-0.050
1.928,-0.380,-0.085
1.931,-0.355,-0.095
1.933,-0.365,-0.095
1.936,-0.365,-0.075
1.939,-0.305,-0.045
1.942,-0.320,-0.035
1.944,-0.460,-0.025
1.947,-0.590,-0.010
1.950,-0.635,0.005
1.953,-0.565,0.040
1.956,-0.495,0.070
1.958,-0.470,0.085
1.961,-0.480,0.125
1.964,-0.465,0.135
1.967,-0.420,0.190
1.969,-0.370,0.230
1.972,-0.385,0.290
1.975,-0.400,0.305
1.978,-0.475,0.290
1.981,-0.535,0.260
1.983,-0.520,0.245
1.986,-0.440,0.225
1.989,-0.345,0.205
1.992,-0.245,0.185
1.994,-0.185,0.140
1.997,-0.225,0.125
2.000,-0.290,0.115
2.003,-0.320,0.135
2.006,-0.285,0.145
2.008,-0.250,0.160
2.011,-0.265,0.175
2.014,-0.330,0.165
2.017,-0.360,0.170
2.019,-0.310,0.185
2.022,-0.155,0.215
2.025,-0.065,0.215
2.028,-0.155,0.215
2.031,-0.320,0.180
2.033,-0.335,0.180
2.036,-0.235,0.165
2.039,-0.120,0.155
2.042,-0.080,0.115
2.044,-0.145,0.085
2.047,-0.230,0.070
2.050,-0.270,0.055
2.053,-0.195,0.060
2.056,-0.040,0.040
2.058,0.055,0.015
2.061,0.050,-0.010
2.064,-0.050,-0.045
2.067,-0.115,-0.080
2.069,-0.145,-0.065
2.072,-0.090,-0.030
2.075,-0.035,0.020
2.078,0.000,0.055
2.081,-0.015,0.055
2.083,-0.020,0.040
2.086,-0.040,0.020
2.089,-0.095,-0.035
2.092,-0.145,-0.060
2.094,-0.130,-0.080
2.097,-0.120,-0.100
2.100,-0.135,-0.055
2.103,-0.125,-0.010
2.106,-0.100,0.035
2.108,-0.135,0.060
2.111,-0.215,0.080
2.114,-0.275,0.095
2.117,-0.235,0.115
2.119,-0.155,0.115
2.122,-0.145,0.105
2.125,-0.205,0.095
2.128,-0.355,0.095
2.131,-0.455,0.125
2.133,-0.415,0.135
2.136,-0.285,0.195
2.139,-0.200,0.210
2.142,-0.225,0.220
2.144,-0.295,0.210
2.147,-0.345,0.210
2.150,-0.365,0.265
2.153,-0.360,0.295
2.156,-0.345,0.345
2.158,-0.320,0.325
2.161,-0.320,0.290
2.164,-0.320,0.240
2.167,-0.305,0.210
2.169,-0.240,0.205
2.172,-0.195,0.200
2.175,-0.235,0.175
2.178,-0.330,0.130
2.181,-0.375,0.080
2.183,-0.345,0.045
2.186,-0.265,0.015
2.189,-0.180,0.025
2.192,-0.150,0.010
2.194,-0.195,-0.010
2.197,-0.230,-0.025
2.200,-0.245,0.005
2.203,-0.305,0.020
2.206,-0.360,0.015
2.208,-0.380,-0.010
2.211,-0.350,-0.055
2.214,-0.245,-0.080
2.217,-0.185,-0.115
2.219,-0.175,-0.145
2.222,-0.185,-0.130
2.225,-0.240,-0.125
2.228,-0.285,-0.100
2.231,-0.305,-0.080
2.233,-0.305,-0.055
2.236,-0.235,-0.015
2.239,-0.185,-0.015
2.242,-0.190,-0.015
2.244,-0.235,-0.050
2.247,-0.235,-0.065
2.250,-0.155,-0.055
2.253,-0.065,-0.035
2.256,-0.080,0.015
2.258,-0.170,0.080
2.261,-0.280,0.110
2.264,-0.320,0.115
2.267,-0.320,0.115
2.269,-0.305,0.075
2.272,-0.245,0.030
2.275,-0.175,0.005
2.278,-0.150,-0.015
2.281,-0.175,0.025
2.283,-0.235,0.085
2.286,-0.310,0.155
2.289,-0.340,0.205
2.292,-0.320,0.165
2.294,-0.270,0.135
2.297,-0.230,0.090
2.300,-0.275,0.070
2.303,-0.370,0.105
2.306,-0.385,0.145
2.308,-0.315,0.165
2.311,-0.250,0.165
2.314,-0.250,0.200
2.317,-0.265,0.240
2.319,-0.240,0.285
2.322,-0.200,0.295
2.325,-0.215,0.225
2.328,-0.290,0.160
2.331,-0.335,0.085
2.333,-0.290,0.060
2.336,-0.245,0.070
2.339,-0.230,0.085
2.342,-0.230,0.070
2.344,-0.240,0.070
2.347,-0.215,0.060
2.350,-0.170,0.070
2.353,-0.135,0.090
2.356,-0.015,0.095
2.358,0.090,0.115
2.361,0.185,0.120
2.364,0.185,0.125
2.367,0.185,0.150
2.369,0.240,0.150
2.372,0.325,0.120
2.375,0.505,0.050
2.378,0.820,-0.015
2.381,1.100,-0.075
2.383,1.190,-0.145
2.386,1.150,-0.180
2.389,1.085,-0.215
2.392,1.080,-0.235
2.394,1.145,-0.270
2.397,1.220,-0.310
2.400,1.280,-0.350
2.403,1.255,-0.445
2.406,1.100,-0.480
2.408,0.835,-0.540
2.411,0.555,-0.555
2.414,0.305,-0.530
2.417,0.150,-0.485
2.419,0.095,-0.410
2.422,0.090,-0.335
2.425,0.055,-0.275
2.428,-0.090,-0.215
2.431,-0.290,-0.150
2.433,-0.435,-0.085
2.436,-0.465,-0.005
2.439,-0.435,0.040
2.442,-0.365,0.070
2.444,-0.285,0.070
2.447,-0.265,0.075
2.450,-0.345,0.090
2.453,-0.455,0.140
2.456,-0.535,0.185
2.458,-0.520,0.215
2.461,-0.445,0.245
2.464,-0.380,0.270
2.467,-0.460,0.295
2.469,-0.615,0.270
2.472,-0.680,0.250
2.475,-0.665,0.185
2.478,-0.580,0.140
2.481,-0.550,0.120
2.483,-0.535,0.145
2.486,-0.550,0.185
2.489,-0.530,0.195
2.492,-0.525,0.165
2.494,-0.545,0.115
2.497,-0.565,0.060
2.500,-0.585,0.055
2.503,-0.580,0.040
2.506,-0.565,0.040
2.508,-0.530,0.025
2.511,-0.490,0.010
2.514,-0.460,0.000
2.517,-0.480,0.005
2.519,-0.570,0.025
2.522,-0.600,0.035
2.525,-0.565,0.005
2.528,-0.470,-0.005
2.531,-0.445,-0.015
2.533,-0.460,0.015
2.536,-0.495,0.030
2.539,-0.465,0.020
2.542,-0.375,-0.005
2.544,-0.305,-0.020
2.547,-0.365,0.005
2.550,-0.480,0.025
2.553,-0.590,0.045
2.556,-0.605,0.070
2.558,-0.530,0.045
2.561,-0.505,0.005
2.564,-0.425,0.005
2.567,-0.345,0.015
2.569,-0.300,0.030
2.572,-0.320,0.060
2.575,-0.375,0.055
2.578,-0.400,0.070
2.581,-0.430,0.100
2.583,-0.450,0.140
2.586,-0.390,0.170
2.589,-0.285,0.185
2.592,-0.255,0.170
2.594,-0.315,0.160
2.597,-0.315,0.155
2.600,-0.280,0.190
2.603,-0.260,0.235
2.606,-0.275,0.290
2.608,-0.260,0.315
2.611,-0.185,0.305
2.614,-0.120,0.265
2.617,-0.145,0.225
2.619,-0.200,0.200
2.622,-0.205,0.195
2.625,-0.160,0.185
2.628,-0.130,0.175
2.631,-0.175,0.185
2.633,-0.260,0.185
2.636,-0.315,0.230
2.639,-0.295,0.250
2.642,-0.245,0.255
2.644,-0.190,0.210
2.647,-0.125,0.180
2.650,-0.095,0.165
2.653,-0.120,0.160
2.656,-0.230,0.170
2.658,-0.345,0.155
2.661,-0.340,0.125
2.664,-0.275,0.140
2.667,-0.265,0.110
2.669,-0.285,0.095
2.672,-0.290,0.065
2.675,-0.245,0.010
2.678,-0.240,-0.030
2.681,-0.245,-0.055
2.683,-0.200,-0.055
2.686,-0.105,-0.050
2.689,-0.030,-0.055
2.692,-0.085,-0.070
2.694,-0.270,-0.085
2.697,-0.395,-0.080
2.700,-0.300,-0.060
2.703,-0.100,-0.060
2.706,-0.070,-0.045
2.708,-0.225,-0.055
2.711,-0.370,-0.055
2.714,-0.340,-0.040
2.717,-0.185,-0.015
2.719,-0.010,0.030
2.722,0.055,0.070
2.725,-0.040,0.110
2.728,-0.210,0.155
2.731,-0.310,0.200
2.733,-0.375,0.285
2.736,-0.420,0.380
2.739,-0.460,0.455
2.742,-0.455,0.485
2.744,-0.380,0.470
2.747,-0.330,0.385
2.750,-0.350,0.265
2.753,-0.345,0.125
2.756,-0.230,-0.005
2.758,-0.055,-0.125
2.761,0.075,-0.195
2.764,0.170,-0.205
2.767,0.255,-0.245
2.769,0.345,-0.270
2.772,0.400,-0.320
2.775,0.620,-0.345
2.778,0.795,-0.380
2.781,0.865,-0.390
2.783,0.815,-0.385
2.786,0.765,-0.330
2.789,0.735,-0.330
2.792,0.605,-0.330
2.794,0.400,-0.350
2.797,0.215,-0.340
2.800,0.095,-0.315
2.803,-0.015,-0.300
2.806,-0.180,-0.255
2.808,-0.305,-0.230
2.811,-0.365,-0.185
2.814,-0.375,-0.140
2.817,-0.405,-0.095
2.819,-0.435,-0.045
2.822,-0.505,-0.035
2.825,-0.585,-0.010
2.828,-0.640,0.005
2.831,-0.625,0.045
2.833,-0.510,0.065
2.836,-0.405,0.080
2.839,-0.350,0.045
2.842,-0.390,0.030
2.844,-0.505,0.035
2.847,-0.585,0.055
2.850,-0.615,0.080
2.853,-0.605,0.110
2.856,-0.635,0.100
2.858,-0.690,0.085
2.861,-0.695,0.070
2.864,-0.650,0.075
2.867,-0.600,0.085
2.869,-0.570,0.140
2.872,-0.580,0.165
2.875,-0.560,0.195
2.878,-0.575,0.200
2.881,-0.600,0.185
2.883,-0.570,0.170
2.886,-0.535,0.155
2.889,-0.535,0.140
2.892,-0.545,0.155
2.894,-0.535,0.175
2.897,-0.460,0.215
2.900,-0.335,0.235
2.903,-0.320,0.240
2.906,-0.435,0.205
2.908,-0.560,0.195
2.911,-0.655,0.210
2.914,-0.660,0.250
2.917,-0.560,0.295
2.919,-0.480,0.335
2.922,-0.455,0.350
2.925,-0.445,0.350
2.928,-0.405,0.365
2.931,-0.330,0.375
2.933,-0.270,0.390
2.936,-0.275,0.410
2.939,-0.330,0.380
2.942,-0.375,0.320
2.944,-0.370,0.275
2.947,-0.370,0.235
2.950,-0.395,0.230
2.953,-0.355,0.215
2.956,-0.275,0.185
2.958,-0.210,0.140
2.961,-0.205,0.140
2.964,-0.195,0.155
2.967,-0.190,0.170
2.969,-0.225,0.215
2.972,-0.295,0.220
2.975,-0.390,0.210
2.978,-0.430,0.185
2.981,-0.425,0.155
2.983,-0.385,0.135
2.986,-0.330,0.125
2.989,-0.265,0.095
2.992,-0.255,0.070
2.994,-0.295,0.080
2.997,-0.320,0.110
3.000,-0.310,0.140
3.003,-0.290,0.160
3.006,-0.280,0.155
3.008,-0.315,0.135
3.011,-0.335,0.135
3.014,-0.370,0.150
3.017,-0.370,0.185
3.019,-0.350,0.195
3.022,-0.295,0.205
3.025,-0.240,0.190
3.028,-0.250,0.170
3.031,-0.270,0.130
3.033,-0.310,0.120
3.036,-0.410,0.125
3.039,-0.555,0.130
3.042,-0.610,0.145
3.044,-0.525,0.190
3.047,-0.435,0.210
3.050,-0.425,0.255
3.053,-0.410,0.290
3.056,-0.390,0.305
3.058,-0.370,0.285
3.061,-0.370,0.230
3.064,-0.385,0.185
3.067,-0.420,0.165
3.069,-0.440,0.155
3.072,-0.430,0.160
3.075,-0.415,0.170
3.078,-0.435,0.205
3.081,-0.415,0.220
3.083,-0.350,0.225
3.086,-0.320,0.195
3.089,-0.395,0.145
3.092,-0.510,0.100
3.094,-0.540,0.095
3.097,-0.430,0.080
3.100,-0.365,0.115
3.103,-0.410,0.120
3.106,-0.475,0.110
3.108,-0.540,0.105
3.111,-0.545,0.090
3.114,-0.500,0.110
3.117,-0.415,0.125
3.119,-0.405,0.160
3.122,-0.430,0.140
3.125,-0.460,0.150
3.128,-0.485,0.150
3.131,-0.520,0.135
3.133,-0.490,0.140
3.136,-0.450,0.175
3.139,-0.420,0.175
3.142,-0.430,0.190
3.144,-0.460,0.185
3.147,-0.480,0.155
3.150,-0.440,0.165
3.153,-0.420,0.145
3.156,-0.495,0.085
3.158,-0.570,0.040
3.161,-0.550,0.055
3.164,-0.520,0.100
3.167,-0.570,0.135
3.169,-0.615,0.180
3.172,-0.575,0.175
3.175,-0.500,0.195
3.178,-0.460,0.205
3.181,-0.455,0.230
3.183,-0.515,0.255
3.186,-0.555,0.260
3.189,-0.575,0.240
3.192,-0.525,0.200
3.194,-0.520,0.185
3.197,-0.460,0.180
3.200,-0.425,0.200
3.203,-0.430,0.260
3.206,-0.515,0.270
3.208,-0.585,0.290
3.211,-0.590,0.275
3.214,-0.585,0.270
3.217,-0.540,0.245
3.219,-0.465,0.225
3.222,-0.455,0.170
3.225,-0.480,0.115
3.228,-0.485,0.075
3.231,-0.485,0.060
3.233,-0.525,0.070
3.236,-0.595,0.100
3.239,-0.595,0.075
3.242,-0.460,0.035
3.244,-0.285,-0.020
3.247,-0.290,-0.035
3.250,-0.495,-0.045
3.253,-0.675,-0.010
3.256,-0.735,0.005
3.258,-0.700,0.035
3.261,-0.635,0.055
3.264,-0.605,0.090
3.267,-0.640,0.105
3.269,-0.630,0.125
3.272,-0.585,0.110
3.275,-0.565,0.085
3.278,-0.505,0.065
3.281,-0.470,0.075
3.283,-0.510,0.090
3.286,-0.545,0.140
3.289,-0.470,0.175
3.292,-0.400,0.185
3.294,-0.530,0.200
3.297,-0.725,0.240
3.300,-0.765,0.240
3.303,-0.650,0.235
3.306,-0.610,0.205
3.308,-0.615,0.165
3.311,-0.585,0.150
3.314,-0.570,0.145
3.317,-0.540,0.155
3.319,-0.500,0.185
3.322,-0.535,0.180
3.325,-0.675,0.185
3.328,-0.795,0.175
3.331,-0.855,0.210
3.333,-0.860,0.240
3.336,-0.800,0.245
3.339,-0.660,0.245
3.342,-0.585,0.255
3.344,-0.575,0.250
3.347,-0.580,0.265
3.350,-0.625,0.300
3.353,-0.620,0.320
3.356,-0.610,0.300
3.358,-0.605,0.290
3.361,-0.585,0.240
3.364,-0.575,0.255
3.367,-0.530,0.245
3.369,-0.510,0.235
3.372,-0.480,0.225
3.375,-0.495,0.225
3.378,-0.520,0.215
3.381,-0.525,0.200
3.383,-0.480,0.190
3.386,-0.460,0.145
3.389,-0.505,0.085
3.392,-0.510,0.035
3.394,-0.500,0.000
3.397,-0.555,0.015
3.400,-0.670,0.040
3.403,-0.705,0.060
3.406,-0.605,0.060
3.408,-0.465,0.065
3.411,-0.390,0.055
3.414,-0.460,0.080
3.417,-0.620,0.095
3.419,-0.750,0.100
3.422,-0.765,0.120
3.425,-0.630,0.110
3.428,-0.485,0.130
3.431,-0.455,0.125
3.433,-0.495,0.175
3.436,-0.560,0.185
3.439,-0.595,0.170
3.442,-0.610,0.155
3.444,-0.640,0.135
3.447,-0.665,0.150
3.450,-0.610,0.155
3.453,-0.520,0.170
3.456,-0.420,0.170
3.458,-0.410,0.165
3.461,-0.470,0.190
3.464,-0.585,0.220
3.467,-0.655,0.220
3.469,-0.665,0.240
3.472,-0.635,0.220
3.475,-0.585,0.190
3.478,-0.585,0.215
3.481,-0.615,0.255
3.483,-0.555,0.295
3.486,-0.465,0.325
3.489,-0.415,0.320
3.492,-0.375,0.290
3.494,-0.305,0.290
3.497,-0.205,0.285
3.500,-0.110,0.280
3.503,0.035,0.250
3.506,0.270,0.205
3.508,0.470,0.160
3.511,0.615,0.125
3.514,0.920,0.115
3.517,1.290,0.065
3.519,1.465,-0.010
3.522,1.395,-0.080
3.525,1.210,-0.135
3.528,1.125,-0.200
3.531,1.170,-0.260
3.533,1.315,-0.320
3.536,1.435,-0.380
3.539,1.320,-0.470
3.542,0.995,-0.500
3.544,0.675,-0.495
3.547,0.440,-0.465
3.550,0.200,-0.435
3.553,-0.070,-0.400
3.556,-0.320,-0.375
3.558,-0.430,-0.330
3.561,-0.540,-0.275
3.564,-0.690,-0.185
3.567,-0.745,-0.095
3.569,-0.650,-0.030
3.572,-0.620,-0.010
3.575,-0.710,-0.010
3.578,-0.825,0.020
3.581,-0.840,0.035
3.583,-0.795,0.060
3.586,-0.810,0.080
3.589,-0.875,0.075
3.592,-0.935,0.100
3.594,-0.940,0.115
3.597,-0.890,0.125
3.600,-0.800,0.175
3.603,-0.770,0.240
3.606,-0.850,0.275
3.608,-1.035,0.300
3.611,-1.180,0.305
3.614,-1.180,0.285
3.617,-1.090,0.275
3.619,-1.030,0.230
3.622,-1.050,0.200
3.625,-1.080,0.185
3.628,-1.045,0.195
3.631,-0.985,0.220
3.633,-0.930,0.250
3.636,-0.935,0.275
3.639,-0.965,0.290
3.642,-1.025,0.305
3.644,-1.085,0.325
3.647,-1.105,0.355
3.650,-1.085,0.380
3.653,-1.055,0.380
3.656,-1.040,0.375
3.658,-0.985,0.365
3.661,-0.950,0.355
3.664,-0.930,0.365
3.667,-0.935,0.395
3.669,-0.935,0.435
3.672,-0.890,0.430
3.675,-0.860,0.410
3.678,-0.905,0.390
3.681,-0.965,0.400
3.683,-0.975,0.415
3.686,-0.895,0.425
3.689,-0.820,0.420
3.692,-0.840,0.395
3.694,-0.945,0.390
3.697,-1.040,0.380
3.700,-1.005,0.380
3.703,-0.915,0.340
3.706,-0.825,0.290
3.708,-0.785,0.260
3.711,-0.810,0.260
3.714,-0.875,0.295
3.717,-0.930,0.335
3.719,-0.895,0.350
3.722,-0.810,0.320
3.725,-0.705,0.290
3.728,-0.640,0.255
3.731,-0.645,0.245
3.733,-0.730,0.250
3.736,-0.795,0.265
3.739,-0.790,0.275
3.742,-0.720,0.285
3.744,-0.650,0.295
3.747,-0.570,0.310
3.750,-0.480,0.335
3.753,-0.395,0.360
3.756,-0.355,0.340
3.758,-0.425,0.280
3.761,-0.545,0.240
3.764,-0.620,0.250
3.767,-0.650,0.275
3.769,-0.690,0.320
3.772,-0.725,0.360
3.775,-0.720,0.415
3.778,-0.680,0.460
3.781,-0.635,0.480
3.783,-0.640,0.485
3.786,-0.645,0.450
3.789,-0.590,0.400
3.792,-0.495,0.345
3.794,-0.445,0.320
3.797,-0.475,0.305
3.800,-0.525,0.315
3.803,-0.540,0.325
3.806,-0.535,0.330
3.808,-0.540,0.320
3.811,-0.545,0.325
3.814,-0.545,0.355
3.817,-0.510,0.340
3.819,-0.475,0.315
3.822,-0.415,0.275
3.825,-0.340,0.245
3.828,-0.325,0.220
3.831,-0.335,0.215
3.833,-0.380,0.235
3.836,-0.445,0.290
3.839,-0.520,0.310
3.842,-0.530,0.320
3.844,-0.445,0.300
3.847,-0.405,0.265
3.850,-0.520,0.205
3.853,-0.635,0.115
3.856,-0.640,0.015
3.858,-0.540,-0.050
3.861,-0.455,-0.095
3.864,-0.395,-0.070
3.867,-0.380,-0.040
3.869,-0.410,0.010
3.872,-0.465,0.050
3.875,-0.485,0.070
3.878,-0.470,0.080
3.881,-0.475,0.100
3.883,-0.485,0.120
3.886,-0.455,0.115
3.889,-0.390,0.085
3.892,-0.305,0.045
3.894,-0.245,0.015
3.897,-0.175,0.040
3.900,-0.220,0.075
3.903,-0.390,0.140
3.906,-0.565,0.175
3.908,-0.660,0.200
3.911,-0.675,0.205
3.914,-0.680,0.250
3.917,-0.670,0.240
3.919,-0.575,0.260
3.922,-0.490,0.230
3.925,-0.445,0.250
3.928,-0.455,0.295
3.931,-0.495,0.335
3.933,-0.500,0.365
3.936,-0.525,0.330
3.939,-0.545,0.270
3.942,-0.560,0.230
3.944,-0.530,0.200
3.947,-0.440,0.190
3.950,-0.400,0.210
3.953,-0.430,0.250
3.956,-0.430,0.285
3.958,-0.325,0.310
3.961,-0.210,0.300
3.964,-0.220,0.270
3.967,-0.325,0.260
3.969,-0.420,0.235
3.972,-0.480,0.220
3.975,-0.465,0.215
3.978,-0.380,0.225
3.981,-0.300,0.250
3.983,-0.310,0.260
3.986,-0.380,0.270
3.989,-0.445,0.255
3.992,-0.485,0.230
3.994,-0.500,0.210
3.997,-0.440,0.205
4.000,-0.355,0.185
4.003,-0.350,0.150
4.006,-0.425,0.085
4.008,-0.530,-0.005
4.011,-0.550,-0.055
4.014,-0.470,-0.055
4.017,-0.375,-0.035
4.019,-0.375,0.000
4.022,-0.440,0.055
4.025,-0.485,0.095
4.028,-0.450,0.125
4.031,-0.435,0.135
4.033,-0.410,0.130
4.036,-0.370,0.125
4.039,-0.250,0.095
4.042,-0.130,0.080
4.044,-0.085,0.080
4.047,-0.210,0.080
4.050,-0.390,0.105
4.053,-0.525,0.120
4.056,-0.520,0.105
4.058,-0.410,0.090
4.061,-0.275,0.130
4.064,-0.220,0.200
4.067,-0.155,0.310
4.069,-0.065,0.390
4.072,-0.040,0.395
4.075,-0.170,0.340
4.078,-0.360,0.265
4.081,-0.325,0.205
4.083,-0.095,0.180
4.086,0.145,0.160
4.089,0.240,0.175
4.092,0.205,0.205
4.094,0.195,0.205
4.097,0.295,0.215
4.100,0.490,0.165
4.103,0.790,0.120
4.106,1.110,0.035
4.108,1.355,-0.035
4.111,1.405,-0.100
4.114,1.355,-0.095
4.117,1.360,-0.085
4.119,1.465,-0.105
4.122,1.560,-0.210
4.125,1.550,-0.320
4.128,1.365,-0.410
4.131,1.045,-0.380
4.133,0.860,-0.325
4.136,0.795,-0.300
4.139,0.645,-0.280
4.142,0.350,-0.245
4.144,0.060,-0.210
4.147,-0.130,-0.150
4.150,-0.215,-0.065
4.153,-0.295,0.010
4.156,-0.415,0.050
4.158,-0.515,0.065
4.161,-0.555,0.090
4.164,-0.510,0.110
4.167,-0.450,0.145
4.169,-0.445,0.220
4.172,-0.530,0.310
4.175,-0.600,0.380
4.178,-0.550,0.415
4.181,-0.425,0.390
4.183,-0.365,0.325
4.186,-0.445,0.240
4.189,-0.540,0.210
4.192,-0.560,0.225
4.194,-0.550,0.280
4.197,-0.525,0.320
4.200,-0.510,0.315
4.203,-0.540,0.280
4.206,-0.550,0.230
4.208,-0.565,0.140
4.211,-0.610,0.035
4.214,-0.610,-0.085
4.217,-0.545,-0.165
4.219,-0.440,-0.220
4.222,-0.455,-0.240
4.225,-0.580,-0.195
4.228,-0.685,-0.125
4.231,-0.660,-0.030
4.233,-0.595,0.010
4.236,-0.585,-0.020
4.239,-0.610,-0.110
4.242,-0.575,-0.185
4.244,-0.545,-0.215
4.247,-0.535,-0.195
4.250,-0.495,-0.145
4.253,-0.415,-0.115
4.256,-0.390,-0.115
4.258,-0.400,-0.115
4.261,-0.430,-0.110
4.264,-0.420,-0.080
4.267,-0.385,-0.040
4.269,-0.300,0.005
4.272,-0.210,-0.010
4.275,-0.255,-0.025
4.278,-0.360,-0.040
4.281,-0.365,0.005
4.283,-0.290,0.090
4.286,-0.285,0.135
4.289,-0.330,0.135
4.292,-0.310,0.075
4.294,-0.200,0.010
4.297,-0.105,0.010
4.300,-0.140,0.065
4.303,-0.230,0.140
4.306,-0.250,0.225
4.308,-0.215,0.230
4.311,-0.170,0.140
4.314,-0.175,0.060
4.317,-0.145,0.020
4.319,-0.055,0.025
4.322,0.010,0.005
4.325,0.020,0.015
4.328,-0.020,0.045
4.331,-0.020,0.100
4.333,-0.040,0.165
4.336,-0.095,0.200
4.339,-0.170,0.215
4.342,-0.165,0.195
4.344,-0.135,0.195
4.347,-0.145,0.200
4.350,-0.155,0.195
4.353,-0.125,0.165
4.356,-0.060,0.135
4.358,-0.005,0.135
4.361,-0.040,0.185
4.364,-0.090,0.210
4.367,-0.140,0.205
4.369,-0.145,0.170
4.372,-0.175,0.125
4.375,-0.185,0.085
4.378,-0.155,0.070
4.381,-0.135,0.050
4.383,-0.145,0.030
4.386,-0.120,-0.010
4.389,-0.070,-0.050
4.392,-0.025,-0.065
4.394,-0.060,-0.080
4.397,-0.150,-0.080
4.400,-0.225,-0.090
4.403,-0.260,-0.120
4.406,-0.210,-0.170
4.408,-0.185,-0.215
4.411,-0.160,-0.250
4.414,-0.200,-0.225
4.417,-0.240,-0.175
4.419,-0.235,-0.110
4.422,-0.165,-0.060
4.425,-0.120,0.010
4.428,-0.105,0.055
4.431,-0.120,0.060
4.433,-0.215,0.040
4.436,-0.275,-0.005
4.439,-0.240,-0.080
4.442,-0.135,-0.100
4.444,-0.115,-0.105
4.447,-0.145,-0.060
4.450,-0.165,-0.005
4.453,-0.140,0.020
4.456,-0.100,0.010
4.458,-0.070,-0.010
4.461,-0.120,-0.015
4.464,-0.220,0.000
4.467,-0.245,0.050
4.469,-0.150,0.100
4.472,-0.105,0.170
4.475,-0.130,0.220
4.478,-0.100,0.270
4.481,-0.030,0.275
4.483,0.045,0.220
4.486,0.095,0.115
4.489,0.120,-0.010
4.492,0.100,-0.090
4.494,-0.050,-0.110
4.497,-0.265,-0.035
4.500,-0.330,0.030
4.503,-0.240,0.010
4.506,-0.170,-0.035
4.508,-0.165,-0.100
4.511,-0.145,-0.115
4.514,-0.080,-0.085
4.517,-0.035,-0.055
4.519,-0.035,-0.015
4.522,-0.075,-0.010
4.525,-0.150,-0.015
4.528,-0.190,-0.020
4.531,-0.140,-0.005
4.533,-0.080,0.010
4.536,-0.070,-0.015
4.539,-0.100,-0.060
4.542,-0.100,-0.105
4.544,-0.060,-0.140
4.547,-0.005,-0.160
4.550,-0.020,-0.170
4.553,-0.060,-0.190
4.556,-0.080,-0.195
4.558,-0.075,-0.170
4.561,-0.065,-0.120
4.564,-0.010,-0.050
4.567,0.080,-0.020
4.569,0.175,-0.065
4.572,0.160,-0.160
4.575,0.030,-0.240
4.578,-0.055,-0.295
4.581,-0.030,-0.285
4.583,0.050,-0.230
4.586,0.120,-0.195
4.589,0.040,-0.155
4.592,-0.115,-0.120
4.594,-0.145,-0.085
4.597,-0.070,-0.040
4.600,0.015,-0.025
4.603,0.085,0.000
4.606,0.075,0.030
4.608,0.035,0.075
4.611,0.040,0.130
4.614,0.085,0.155
4.617,0.125,0.155
4.619,0.130,0.130
4.622,0.115,0.125
4.625,0.035,0.150
4.628,0.005,0.145
4.631,0.025,0.110
4.633,0.180,0.010
4.636,0.400,-0.055
4.639,0.415,-0.095
4.642,0.200,-0.070
4.644,0.005,-0.040
4.647,-0.050,-0.005
4.650,0.060,0.025
4.653,0.210,0.045
4.656,0.275,0.035
4.658,0.215,0.000
4.661,0.060,-0.035
4.664,-0.090,-0.075
4.667,-0.085,-0.115
4.669,0.020,-0.135
4.672,0.100,-0.110
4.675,0.145,-0.075
4.678,0.125,-0.045
4.681,0.030,0.000
4.683,0.000,0.020
4.686,-0.025,0.000
4.689,-0.015,-0.025
4.692,-0.020,-0.065
4.694,0.000,-0.100
4.697,0.040,-0.135
4.700,0.025,-0.175
4.703,0.015,-0.225
4.706,0.000,-0.285
4.708,-0.005,-0.265
4.711,0.005,-0.230
4.714,0.065,-0.170
4.717,0.200,-0.145
4.719,0.255,-0.165
4.722,0.140,-0.255
4.725,-0.025,-0.290
4.728,-0.025,-0.315
4.731,0.215,-0.295
4.733,0.505,-0.265
4.736,0.590,-0.245
4.739,0.455,-0.240
4.742,0.285,-0.205
4.744,0.265,-0.150
4.747,0.355,-0.075
4.750,0.545,-0.055
4.753,0.765,-0.050
4.756,1.060,-0.105
4.758,1.395,-0.155
4.761,1.645,-0.200
4.764,1.840,-0.270
4.767,1.925,-0.345
4.769,1.965,-0.400
4.772,1.965,-0.475
4.775,1.900,-0.535
4.778,1.805,-0.555
4.781,1.750,-0.550
4.783,1.665,-0.560
4.786,1.540,-0.560
4.789,1.385,-0.550
4.792,1.185,-0.570
4.794,0.960,-0.545
4.797,0.625,-0.520
4.800,0.280,-0.460
4.803,0.040,-0.400
4.806,-0.055,-0.330
4.808,-0.080,-0.240
4.811,-0.080,-0.185
4.814,-0.100,-0.140
4.817,-0.115,-0.090
4.819,-0.115,-0.060
4.822,-0.150,-0.050
4.825,-0.155,-0.080
4.828,-0.220,-0.095
4.831,-0.235,-0.085
4.833,-0.195,-0.070
4.836,-0.125,-0.055
4.839,-0.100,-0.070
4.842,-0.110,-0.085
4.844,-0.130,-0.060
4.847,-0.175,-0.020
4.850,-0.220,0.060
4.853,-0.250,0.095
4.856,-0.190,0.025
4.858,-0.060,-0.145
4.861,0.050,-0.305
4.864,0.025,-0.465
4.867,-0.110,-0.500
4.869,-0.270,-0.470
4.872,-0.315,-0.410
4.875,-0.290,-0.375
4.878,-0.230,-0.315
4.881,-0.190,-0.255
4.883,-0.120,-0.240
4.886,-0.070,-0.270
4.889,-0.050,-0.335
4.892,-0.105,-0.390
4.894,-0.200,-0.375
4.897,-0.330,-0.285
4.900,-0.375,-0.210
4.903,-0.280,-0.150
4.906,-0.140,-0.145
4.908,-0.065,-0.110
4.911,-0.060,-0.100
4.914,-0.015,-0.070
4.917,0.055,-0.025
4.919,0.010,0.005
4.922,-0.165,0.025
4.925,-0.260,0.050
4.928,-0.225,0.055
4.931,-0.120,0.075
4.933,-0.050,0.105
4.936,0.040,0.100
4.939,0.085,0.100
4.942,0.125,0.125
4.944,0.150,0.135
4.947,0.195,0.160
4.950,0.240,0.165
4.953,0.140,0.140
4.956,-0.010,0.115
4.958,-0.130,0.100
4.961,-0.090,0.110
4.964,0.040,0.155
4.967,0.140,0.215
4.969,0.140,0.300
4.972,0.085,0.330
4.975,0.125,0.340
4.978,0.240,0.330
4.981,0.315,0.295
4.983,0.250,0.285
4.986,0.115,0.245
4.989,-0.055,0.185
4.992,-0.090,0.115
4.994,0.015,0.015
4.997,0.130,-0.090
5.000,0.245,-0.135
5.003,0.365,-0.170
5.006,0.365,-0.190
5.008,0.230,-0.220
5.011,0.115,-0.225
5.014,0.080,-0.225
5.017,0.210,-0.210
5.019,0.370,-0.205
5.022,0.425,-0.230
5.025,0.400,-0.285
5.028,0.430,-0.330
5.031,0.505,-0.345
5.033,0.455,-0.345
5.036,0.265,-0.325
5.039,0.120,-0.330
5.042,0.085,-0.335
5.044,0.090,-0.325
5.047,0.080,-0.265
5.050,0.055,-0.205
5.053,0.030,-0.145
5.056,0.060,-0.155
5.058,0.095,-0.200
5.061,0.075,-0.250
5.064,0.075,-0.275
5.067,0.165,-0.280
5.069,0.305,-0.240
5.072,0.365,-0.215
5.075,0.310,-0.160
5.078,0.185,-0.105
5.081,0.140,-0.015
5.083,0.165,0.075
5.086,0.175,0.120
5.089,0.060,0.095
5.092,-0.040,0.015
5.094,0.030,-0.100
5.097,0.195,-0.185
5.100,0.285,-0.225
5.103,0.265,-0.195
5.106,0.210,-0.160
5.108,0.215,-0.115
5.111,0.235,-0.090
5.114,0.265,-0.060
5.117,0.280,-0.030
5.119,0.275,-0.030
5.122,0.265,-0.060
5.125,0.255,-0.085
5.128,0.240,-0.095
5.131,0.225,-0.090
5.133,0.290,-0.080
5.136,0.460,-0.070
5.139,0.615,-0.070
5.142,0.665,-0.090
5.144,0.580,-0.070
5.147,0.370,0.010
5.150,0.125,0.115
5.153,-0.020,0.215
5.156,-0.005,0.270
5.158,0.025,0.275
5.161,0.060,0.235
5.164,0.115,0.160
5.167,0.175,0.035
5.169,0.300,-0.090
5.172,0.385,-0.265
5.175,0.405,-0.410
5.178,0.460,-0.490
5.181,0.580,-0.540
5.183,0.725,-0.575
5.186,0.880,-0.630
5.189,0.910,-0.705
5.192,0.855,-0.780
5.194,0.855,-0.825
5.197,1.065,-0.835
5.200,1.360,-0.830
5.203,1.575,-0.815
5.206,1.620,-0.780
5.208,1.445,-0.735
5.211,1.220,-0.665
5.214,1.170,-0.630
5.217,1.250,-0.625
5.219,1.240,-0.630
5.222,0.960,-0.620
5.225,0.520,-0.620
5.228,0.260,-0.560
5.231,0.250,-0.480
5.233,0.290,-0.390
5.236,0.200,-0.310
5.239,0.000,-0.230
5.242,-0.115,-0.175
5.244,-0.075,-0.150
5.247,-0.040,-0.130
5.250,-0.015,-0.100
5.253,-0.020,-0.105
5.256,-0.005,-0.105
5.258,0.030,-0.120
5.261,0.045,-0.100
5.264,-0.005,-0.070
5.267,-0.085,-0.040
5.269,-0.090,-0.035
5.272,-0.065,-0.035
5.275,-0.025,-0.040
5.278,-0.020,-0.035
5.281,-0.015,-0.020
5.283,0.025,0.000
5.286,0.090,-0.010
5.289,0.135,-0.025
5.292,0.125,-0.050
5.294,0.055,-0.065
5.297,-0.015,-0.065
5.300,-0.015,-0.035
5.303,0.005,-0.050
5.306,0.035,-0.085
5.308,0.060,-0.125
5.311,0.115,-0.165
5.314,0.230,-0.185
5.317,0.325,-0.210
5.319,0.370,-0.225
5.322,0.350,-0.225
5.325,0.365,-0.240
5.328,0.445,-0.275
5.331,0.610,-0.270
5.333,0.720,-0.275
5.336,0.625,-0.270
5.339,0.440,-0.260
5.342,0.580,-0.265
5.344,0.985,-0.285
5.347,0.955,-0.300
5.350,0.315,-0.280
5.353,-0.325,-0.210
5.356,-0.330,-0.100
5.358,0.040,-0.055
5.361,0.360,-0.010
5.364,0.485,0.055
5.367,0.495,0.100
5.369,0.420,0.105
5.372,0.390,0.050
5.375,0.420,-0.020
5.378,0.505,-0.030
5.381,0.560,0.020
5.383,0.515,0.110
5.386,0.460,0.170
5.389,0.450,0.150
5.392,0.435,0.080
5.394,0.410,-0.010
5.397,0.415,-0.045
5.400,0.405,-0.060
5.403,0.385,-0.030
5.406,0.390,-0.025
5.408,0.370,-0.030
5.411,0.350,-0.010
5.414,0.320,0.010
5.417,0.310,0.035
5.419,0.305,0.025
5.422,0.245,0.025
5.425,0.170,0.000
5.428,0.185,-0.005
5.431,0.230,-0.015
5.433,0.240,-0.005
5.436,0.250,-0.005
5.439,0.225,-0.010
5.442,0.190,-0.045
5.444,0.165,-0.070
5.447,0.180,-0.055
5.450,0.210,-0.045
5.453,0.215,-0.050
5.456,0.210,-0.090
5.458,0.205,-0.125
5.461,0.220,-0.160
5.464,0.270,-0.180
5.467,0.330,-0.200
5.469,0.435,-0.240
5.472,0.485,-0.285
5.475,0.455,-0.310
5.478,0.360,-0.310
5.481,0.320,-0.300
5.483,0.360,-0.285
5.486,0.385,-0.285
5.489,0.295,-0.290
5.492,0.265,-0.290
5.494,0.330,-0.310
5.497,0.400,-0.305
5.500,0.320,-0.295
5.503,0.085,-0.270
5.506,-0.100,-0.220
5.508,-0.130,-0.140
5.511,-0.035,-0.125
5.514,0.085,-0.100
5.517,0.160,-0.085
5.519,0.185,-0.070
5.522,0.165,-0.075
5.525,0.120,-0.065
5.528,0.125,-0.070
5.531,0.200,-0.050
5.533,0.280,-0.020
5.536,0.275,-0.005
5.539,0.235,0.000
5.542,0.195,-0.015
5.544,0.185,-0.005
5.547,0.205,0.030
5.550,0.285,0.045
5.553,0.345,0.050
5.556,0.360,0.070
5.558,0.360,0.095
5.561,0.430,0.125
5.564,0.545,0.155
5.567,0.630,0.165
5.569,0.550,0.145
5.572,0.300,0.140
5.575,0.080,0.115
5.578,0.025,0.070
5.581,0.080,0.030
5.583,0.140,0.025
5.586,0.190,0.060
5.589,0.165,0.050
5.592,0.105,0.055
5.594,0.100,0.065
5.597,0.200,0.090
5.600,0.385,0.125
5.603,0.515,0.070
5.606,0.530,-0.010
5.608,0.385,-0.110
5.611,0.105,-0.135
5.614,-0.150,-0.070
5.617,-0.235,0.040
5.619,-0.100,0.100
5.622,0.125,0.085
5.625,0.260,0.005
5.628,0.320,-0.090
5.631,0.315,-0.175
5.633,0.325,-0.210
5.636,0.335,-0.210
5.639,0.300,-0.225
5.642,0.230,-0.260
5.644,0.110,-0.305
5.647,0.040,-0.320
5.650,0.015,-0.320
5.653,0.125,-0.315
5.656,0.295,-0.315
5.658,0.500,-0.305
5.661,0.630,-0.260
5.664,0.615,-0.205
5.667,0.460,-0.115
5.669,0.135,-0.065
5.672,-0.125,-0.035
5.675,-0.130,-0.030
5.678,0.000,-0.035
5.681,0.065,-0.030
5.683,0.075,-0.040
5.686,0.075,-0.055
5.689,0.135,-0.135
5.692,0.175,-0.190
5.694,0.150,-0.220
5.697,0.130,-0.205
5.700,0.190,-0.160
5.703,0.325,-0.150
5.706,0.445,-0.145
5.708,0.420,-0.145
5.711,0.205,-0.120
5.714,-0.070,-0.080
5.717,-0.200,-0.035
5.719,-0.115,-0.025
5.722,0.040,-0.035
5.725,0.160,-0.045
5.728,0.200,-0.045
5.731,0.245,-0.060
5.733,0.385,-0.075
5.736,0.625,-0.105
5.739,0.840,-0.125
5.742,0.715,-0.150
5.744,0.245,-0.145
5.747,-0.165,-0.090
5.750,-0.270,-0.005
5.753,-0.155,0.015
5.756,-0.115,0.005
5.758,-0.165,0.005
5.761,-0.155,0.020
5.764,-0.020,0.020
5.767,0.190,0.000
5.769,0.410,-0.070
5.772,0.525,-0.105
5.775,0.485,-0.180
5.778,0.235,-0.185
5.781,-0.080,-0.135
5.783,-0.240,-0.065
5.786,-0.125,0.000
5.789,0.150,-0.025
5.792,0.360,-0.100
5.794,0.445,-0.210
5.797,0.535,-0.250
5.800,0.665,-0.275
5.803,0.800,-0.235
5.806,0.810,-0.185
5.808,0.795,-0.115
5.811,0.790,-0.065
5.814,0.790,-0.070
5.817,0.790,-0.075
5.819,0.850,-0.100
5.822,1.035,-0.130
5.825,1.245,-0.160
5.828,1.350,-0.205
5.831,1.420,-0.235
5.833,1.485,-0.260
5.836,1.545,-0.280
5.839,1.530,-0.325
5.842,1.460,-0.420
5.844,1.335,-0.495
5.847,1.180,-0.560
5.850,1.080,-0.570
5.853,1.005,-0.590
5.856,0.880,-0.595
5.858,0.725,-0.585
5.861,0.535,-0.545
5.864,0.365,-0.460
5.867,0.255,-0.355
5.869,0.185,-0.275
5.872,0.075,-0.195
5.875,0.000,-0.150
5.878,0.010,-0.075
5.881,0.035,-0.010
5.883,-0.025,0.040
5.886,-0.065,0.055
5.889,-0.055,0.055
5.892,0.005,0.045
5.894,0.010,0.060
5.897,-0.130,0.075
5.900,-0.250,0.080
5.903,-0.230,0.065
5.906,-0.165,0.005
5.908,-0.175,-0.045
5.911,-0.310,-0.065
5.914,-0.440,-0.010
5.917,-0.445,0.015
5.919,-0.380,-0.005
5.922,-0.335,-0.050
5.925,-0.330,-0.120
5.928,-0.330,-0.145
5.931,-0.280,-0.135
5.933,-0.195,-0.130
5.936,-0.115,-0.115
5.939,-0.060,-0.135
5.942,-0.075,-0.165
5.944,-0.140,-0.170
5.947,-0.200,-0.160
5.950,-0.185,-0.150
5.953,-0.070,-0.185
5.956,-0.040,-0.210
5.958,-0.115,-0.205
5.961,-0.230,-0.190
5.964,-0.285,-0.185
5.967,-0.220,-0.165
5.969,-0.110,-0.175
5.972,-0.010,-0.175
5.975,0.055,-0.185
5.978,0.035,-0.180
5.981,-0.075,-0.150
5.983,-0.190,-0.120
5.986,-0.235,-0.100
5.989,-0.190,-0.085
5.992,-0.125,-0.070
5.994,-0.130,-0.025
5.997,-0.160,0.100
6.000,-0.130,0.245
6.003,-0.020,0.330
6.006,-0.045,0.320
6.008,-0.270,0.195
6.011,-0.545,0.085
6.014,-0.580,-0.015
6.017,-0.440,-0.040
6.019,-0.295,-0.050
6.022,-0.185,-0.085
6.025,-0.110,-0.095
6.028,-0.105,-0.095
6.031,-0.150,-0.060
6.033,-0.205,-0.005
6.036,-0.225,0.040
6.039,-0.195,0.055
6.042,-0.130,0.070
6.044,-0.085,0.100
6.047,-0.035,0.145
6.050,-0.010,0.175
6.053,-0.015,0.170
6.056,-0.035,0.125
6.058,-0.035,0.100
6.061,0.030,0.095
6.064,0.075,0.100
6.067,0.055,0.085
6.069,0.035,0.095
6.072,0.055,0.085
6.075,0.065,0.060
6.078,0.050,0.055
6.081,0.025,0.070
6.083,0.000,0.075
6.086,0.045,0.080
6.089,0.115,0.045
6.092,0.175,0.015
6.094,0.220,-0.010
6.097,0.280,0.000
6.100,0.295,0.000
6.103,0.180,-0.010
6.106,0.035,-0.010
6.108,-0.070,0.000
6.111,-0.045,0.030
6.114,0.150,0.080
6.117,0.440,0.140
6.119,0.565,0.160
6.122,0.395,0.110
6.125,0.090,0.030
6.128,-0.075,-0.060
6.131,-0.130,-0.145
6.133,-0.115,-0.180
6.136,-0.170,-0.165
6.139,-0.160,-0.120
6.142,-0.115,-0.065
6.144,-0.020,0.030
6.147,0.075,0.100
6.150,0.140,0.115
6.153,0.165,0.070
6.156,0.110,0.000
6.158,-0.025,-0.085
6.161,-0.140,-0.110
6.164,-0.145,-0.075
6.167,-0.080,-0.040
6.169,0.000,-0.025
6.172,0.075,-0.030
6.175,0.140,-0.040
6.178,0.240,-0.035
6.181,0.380,-0.020
6.183,0.370,-0.030
6.186,0.190,-0.030
6.189,-0.080,-0.045
6.192,-0.135,-0.065
6.194,0.130,-0.070
6.197,0.455,-0.040
6.200,0.590,-0.025
6.203,0.405,-0.005
6.206,0.105,-0.010
6.208,-0.075,-0.005
6.211,-0.045,0.065
6.214,0.080,0.135
6.217,0.185,0.200
6.219,0.180,0.250
6.222,0.060,0.275
6.225,-0.065,0.280
6.228,-0.100,0.330
6.231,-0.140,0.365
6.233,-0.315,0.375
6.236,-0.575,0.350
6.239,-0.790,0.310
6.242,-0.895,0.205
6.244,-0.930,0.115
6.247,-0.990,0.045
6.250,-1.065,-0.015
6.253,-1.115,-0.105
6.256,-1.150,-0.200
6.258,-1.055,-0.295
6.261,-0.855,-0.350
6.264,-0.625,-0.395
6.267,-0.430,-0.470
6.269,-0.355,-0.495
6.272,-0.460,-0.520
6.275,-0.605,-0.505
6.278,-0.705,-0.455
6.281,-0.655,-0.390
6.283,-0.460,-0.325
6.286,-0.240,-0.350
6.289,-0.085,-0.440
6.292,0.105,-0.565
6.294,0.320,-0.605
6.297,0.495,-0.615
6.300,0.445,-0.565
6.303,0.280,-0.500
6.306,0.180,-0.470
6.308,0.200,-0.465
6.311,0.180,-0.455
6.314,0.065,-0.415
6.317,-0.090,-0.360
6.319,-0.275,-0.265
6.322,-0.405,-0.195
6.325,-0.400,-0.125
6.328,-0.315,-0.080
6.331,-0.200,-0.020
6.333,-0.070,0.040
6.336,0.040,0.090
6.339,0.100,0.115
6.342,0.085,0.150
6.344,0.030,0.200
6.347,0.040,0.215
6.350,0.120,0.175
6.353,0.100,0.090
6.356,-0.005,-0.020
6.358,-0.115,-0.120
6.361,-0.160,-0.145
6.364,-0.155,-0.105
6.367,-0.115,-0.070
6.369,0.000,-0.050
6.372,0.165,-0.055
6.375,0.250,-0.070
6.378,0.225,-0.070
6.381,0.135,-0.045
6.383,0.065,-0.030
6.386,0.035,-0.020
6.389,0.050,-0.005
6.392,0.160,-0.005
6.394,0.315,0.010
6.397,0.455,0.020
6.400,0.545,0.020
6.403,0.615,0.015
6.406,0.575,0.005
6.408,0.485,0.015
6.411,0.390,0.040
6.414,0.380,0.065
6.417,0.435,0.095
6.419,0.530,0.095
6.422,0.605,0.080
6.425,0.645,0.060
6.428,0.635,0.035
6.431,0.595,0.035
6.433,0.540,0.050
6.436,0.560,0.065
6.439,0.705,0.055
6.442,0.940,0.025
6.444,1.070,0.015
6.447,1.085,0.045
6.450,1.005,0.075
6.453,0.895,0.105
6.456,0.780,0.150
6.458,0.615,0.160
6.461,0.540,0.140
6.464,0.540,0.105
6.467,0.640,0.080
6.469,0.710,0.020
6.472,0.670,-0.015
6.475,0.585,-0.040
6.478,0.535,-0.025
6.481,0.520,-0.025
6.483,0.535,0.005
6.486,0.555,0.035
6.489,0.565,0.040
6.492,0.550,0.025
6.494,0.470,0.025
6.497,0.295,0.030
6.500,0.140,0.070
6.503,0.160,0.060
6.506,0.230,0.035
6.508,0.280,0.005
6.511,0.280,-0.010
6.514,0.325,-0.005
6.517,0.340,0.010
6.519,0.300,0.015
6.522,0.175,-0.010
6.525,0.080,-0.020
6.528,0.050,-0.055
6.531,0.040,-0.050
6.533,0.150,-0.055
6.536,0.340,-0.055
6.539,0.440,-0.055
6.542,0.315,-0.045
6.544,0.085,0.000
6.547,-0.130,0.080
6.550,-0.190,0.155
6.553,-0.200,0.205
6.556,-0.255,0.270
6.558,-0.345,0.305
6.561,-0.440,0.345
6.564,-0.565,0.400
6.567,-0.740,0.440
6.569,-0.965,0.435
6.572,-1.190,0.400
6.575,-1.370,0.355
6.578,-1.430,0.295
6.581,-1.400,0.250
6.583,-1.325,0.210
6.586,-1.155,0.175
6.589,-0.875,0.120
6.592,-0.580,0.050
6.594,-0.400,-0.020
6.597,-0.280,-0.095
6.600,-0.140,-0.155
6.603,-0.020,-0.210
6.606,0.040,-0.255
6.608,0.040,-0.290
6.611,0.005,-0.285
6.614,-0.065,-0.305
6.617,-0.140,-0.315
6.619,-0.185,-0.340
6.622,-0.235,-0.365
6.625,-0.315,-0.390
6.628,-0.365,-0.370
6.631,-0.310,-0.310
6.633,-0.245,-0.275
6.636,-0.200,-0.255
6.639,-0.170,-0.240
6.642,-0.110,-0.235
6.644,-0.035,-0.215
6.647,0.010,-0.185
6.650,-0.025,-0.145
6.653,-0.115,-0.140
6.656,-0.170,-0.130
6.658,-0.155,-0.115
6.661,-0.160,-0.105
6.664,-0.230,-0.085
6.667,-0.335,-0.065
6.669,-0.340,-0.040
6.672,-0.275,-0.025
6.675,-0.220,-0.020
6.678,-0.270,-0.010
6.681,-0.365,0.005
6.683,-0.380,0.010
6.686,-0.315,0.020
6.689,-0.200,0.000
6.692,-0.135,-0.045
6.694,-0.140,-0.065
6.697,-0.165,-0.065
6.700,-0.175,-0.065
6.703,-0.105,-0.060
6.706,-0.050,-0.070
6.708,-0.045,-0.080
6.711,-0.115,-0.090
6.714,-0.135,-0.075
6.717,-0.025,-0.060
6.719,0.205,-0.060
6.722,0.395,-0.100
6.725,0.405,-0.110
6.728,0.235,-0.130
6.731,0.025,-0.105
6.733,-0.125,-0.065
6.736,-0.180,-0.050
6.739,-0.205,-0.040
6.742,-0.160,-0.040
6.744,-0.105,-0.045
6.747,-0.040,-0.030
6.750,0.025,-0.045
6.753,0.075,-0.045
6.756,0.180,-0.070
6.758,0.295,-0.070
6.761,0.330,-0.085
6.764,0.270,-0.080
6.767,0.220,-0.080
6.769,0.200,-0.065
6.772,0.255,-0.080
6.775,0.280,-0.085
6.778,0.300,-0.070
6.781,0.345,-0.060
6.783,0.390,-0.015
6.786,0.410,0.000
6.789,0.395,-0.005
6.792,0.450,-0.005
6.794,0.535,0.015
6.797,0.605,0.070
6.800,0.575,0.100
6.803,0.490,0.125
6.806,0.315,0.145
6.808,0.105,0.135
6.811,-0.015,0.115
6.814,0.025,0.080
6.817,0.195,0.080
6.819,0.315,0.045
6.822,0.305,0.040
6.825,0.190,0.035
6.828,0.110,0.050
6.831,0.080,0.095
6.833,0.090,0.120
6.836,0.095,0.105
6.839,-0.030,0.065
6.842,-0.240,0.015
6.844,-0.315,-0.020
6.847,-0.225,-0.040
6.850,-0.105,-0.070
6.853,-0.040,-0.085
6.856,-0.025,-0.110
6.858,-0.035,-0.140
6.861,-0.035,-0.135
6.864,-0.015,-0.145
6.867,0.005,-0.120
6.869,0.015,-0.120
6.872,0.015,-0.130
6.875,0.030,-0.125
6.878,0.070,-0.120
6.881,0.115,-0.100
6.883,0.135,-0.080
6.886,0.090,-0.085
6.889,0.035,-0.105
6.892,-0.020,-0.115
6.894,-0.040,-0.080
6.897,-0.050,-0.070
6.900,-0.035,-0.045
6.903,-0.020,-0.030
6.906,-0.080,-0.010
6.908,-0.215,-0.010
6.911,-0.335,0.005
6.914,-0.310,0.040
6.917,-0.155,0.115
6.919,0.020,0.135
6.922,0.095,0.130
6.925,0.120,0.085
6.928,0.115,0.070
6.931,0.075,0.090
6.933,0.020,0.115
6.936,-0.035,0.125
6.939,-0.125,0.065
6.942,-0.195,0.005
6.944,-0.195,-0.080
6.947,-0.065,-0.120
6.950,0.135,-0.120
6.953,0.295,-0.100
6.956,0.290,-0.055
6.958,0.205,-0.005
6.961,0.175,0.055
6.964,0.220,0.105
6.967,0.280,0.135
6.969,0.390,0.155
6.972,0.530,0.170
6.975,0.645,0.185
6.978,0.660,0.190
6.981,0.660,0.175
6.983,0.705,0.175
6.986,0.810,0.165
6.989,0.890,0.080
6.992,1.000,-0.095
6.994,1.095,-0.320
6.997,1.100,-0.535
7.000,0.950,-0.680
7.003,0.705,-0.760
7.006,0.545,-0.785
7.008,0.530,-0.770
7.011,0.510,-0.715
7.014,0.420,-0.630
7.017,0.330,-0.560
7.019,0.300,-0.495
7.022,0.275,-0.455
7.025,0.125,-0.405
7.028,-0.175,-0.335
7.031,-0.455,-0.245
7.033,-0.505,-0.200
7.036,-0.270,-0.175
7.039,0.065,-0.190
7.042,0.205,-0.205
7.044,0.020,-0.210
7.047,-0.360,-0.170
7.050,-0.660,-0.140
7.053,-0.750,-0.110
7.056,-0.680,-0.070
7.058,-0.550,-0.085
7.061,-0.425,-0.090
7.064,-0.360,-0.070
7.067,-0.395,-0.060
7.069,-0.505,-0.065
7.072,-0.625,-0.060
7.075,-0.650,-0.050
7.078,-0.590,-0.040
7.081,-0.470,-0.035
7.083,-0.385,-0.030
7.086,-0.335,-0.035
7.089,-0.345,-0.055
7.092,-0.425,-0.070
7.094,-0.505,-0.065
7.097,-0.540,-0.055
7.100,-0.500,-0.020
7.103,-0.425,-0.010
7.106,-0.400,-0.020
7.108,-0.370,-0.045
7.111,-0.355,-0.045
7.114,-0.280,-0.055
7.117,-0.155,-0.060
7.119,-0.065,-0.075
7.122,-0.035,-0.095
7.125,-0.005,-0.135
7.128,0.000,-0.135
7.131,-0.065,-0.155
7.133,-0.210,-0.165
7.136,-0.430,-0.155
7.139,-0.610,-0.145
7.142,-0.675,-0.145
7.144,-0.575,-0.145
7.147,-0.395,-0.130
7.150,-0.250,-0.105
7.153,-0.295,-0.075
7.156,-0.445,-0.025
7.158,-0.550,0.025
7.161,-0.595,0.075
7.164,-0.565,0.125
7.167,-0.450,0.120
7.169,-0.200,0.065
7.172,0.010,-0.045
7.175,0.065,-0.150
7.178,-0.035,-0.195
7.181,-0.210,-0.185
7.183,-0.310,-0.125
7.186,-0.310,-0.085
7.189,-0.245,-0.075
7.192,-0.170,-0.075
7.194,-0.095,-0.105
7.197,0.005,-0.125
7.200,0.040,-0.125
7.203,-0.020,-0.130
7.206,-0.140,-0.140
7.208,-0.255,-0.145
7.211,-0.265,-0.145
7.214,-0.185,-0.115
7.217,-0.135,-0.085
7.219,-0.130,-0.075
7.222,-0.145,-0.075
7.225,-0.110,-0.080
7.228,-0.040,-0.090
7.231,0.020,-0.085
7.233,0.055,-0.055
7.236,0.085,-0.075
7.239,0.095,-0.085
7.242,0.050,-0.080
7.244,0.000,-0.075
7.247,-0.040,-0.050
7.250,-0.005,-0.025
7.253,0.110,-0.030
7.256,0.175,-0.035
7.258,0.150,-0.030
7.261,0.075,-0.025
7.264,0.040,-0.045
7.267,-0.015,-0.055
7.269,-0.030,-0.105
7.272,-0.060,-0.120
7.275,-0.100,-0.130
7.278,-0.200,-0.120
7.281,-0.325,-0.085
7.283,-0.405,-0.070
7.286,-0.365,-0.080
7.289,-0.255,-0.080
7.292,-0.160,-0.120
7.294,-0.115,-0.145
7.297,-0.065,-0.130
7.300,0.015,-0.120
7.303,0.085,-0.130
7.306,0.075,-0.150
7.308,-0.005,-0.175
7.311,-0.075,-0.175
7.314,-0.110,-0.160
7.317,-0.090,-0.125
7.319,-0.075,-0.115
7.322,-0.095,-0.120
7.325,-0.075,-0.140
7.328,0.015,-0.130
7.331,0.155,-0.110
7.333,0.235,-0.080
7.336,0.140,-0.025
7.339,-0.040,0.030
7.342,-0.180,0.095
7.344,-0.105,0.145
7.347,0.025,0.165
7.350,0.060,0.170
7.353,-0.065,0.105
7.356,-0.215,0.020
7.358,-0.205,-0.070
7.361,-0.015,-0.080
7.364,0.290,-0.090
7.367,0.530,-0.055
7.369,0.640,-0.075
7.372,0.725,-0.180
7.375,0.835,-0.255
7.378,0.955,-0.315
7.381,1.060,-0.365
7.383,1.170,-0.400
7.386,1.330,-0.495
7.389,1.370,-0.585
7.392,1.295,-0.655
7.394,1.105,-0.665
7.397,0.900,-0.610
7.400,0.665,-0.525
7.403,0.345,-0.440
7.406,0.065,-0.390
7.408,0.000,-0.370
7.411,0.075,-0.300
7.414,0.135,-0.225
7.417,0.105,-0.165
7.419,0.065,-0.140
7.422,0.065,-0.105
7.425,0.075,-0.090
7.428,-0.025,-0.050
7.431,-0.230,-0.010
7.433,-0.450,0.030
7.436,-0.535,0.030
7.439,-0.495,-0.060
7.442,-0.480,-0.120
7.444,-0.565,-0.165
7.447,-0.650,-0.150
7.450,-0.675,-0.110
7.453,-0.585,-0.095
7.456,-0.520,-0.115
7.458,-0.470,-0.135
7.461,-0.505,-0.125
7.464,-0.540,-0.095
7.467,-0.530,-0.090
7.469,-0.520,-0.095
7.472,-0.510,-0.125
7.475,-0.475,-0.135
7.478,-0.460,-0.150
7.481,-0.465,-0.110
7.483,-0.480,-0.070
7.486,-0.460,-0.050
7.489,-0.410,-0.070
7.492,-0.350,-0.060
7.494,-0.280,-0.075
7.497,-0.195,-0.055
7.500,-0.185,-0.025
7.503,-0.295,-0.015
7.506,-0.395,-0.035
7.508,-0.375,-0.090
7.511,-0.295,-0.115
7.514,-0.200,-0.125
7.517,-0.225,-0.125
7.519,-0.380,-0.140
7.522,-0.555,-0.145
7.525,-0.645,-0.130
7.528,-0.600,-0.105
7.531,-0.515,-0.065
7.533,-0.450,-0.025
7.536,-0.395,-0.015
7.539,-0.350,0.000
7.542,-0.310,-0.005
7.544,-0.325,0.010
7.547,-0.315,0.045
7.550,-0.310,0.070
7.553,-0.290,0.080
7.556,-0.270,0.060
7.558,-0.235,0.055
7.561,-0.180,0.040
7.564,-0.140,0.080
7.567,-0.125,0.090
7.569,-0.130,0.090
7.572,-0.130,0.090
7.575,-0.135,0.090
7.578,-0.140,0.095
7.581,-0.115,0.095
7.583,-0.035,0.095
7.586,0.055,0.100
7.589,0.115,0.065
7.592,0.085,0.035
7.594,0.000,0.060
7.597,-0.065,0.095
7.600,-0.125,0.135
7.603,-0.195,0.145
7.606,-0.230,0.150
7.608,-0.180,0.115
7.611,-0.085,0.090
7.614,0.015,0.090
7.617,0.065,0.075
7.619,0.060,0.055
7.622,0.025,0.015
7.625,0.010,0.000
7.628,-0.005,-0.010
7.631,0.045,-0.015
7.633,0.130,-0.045
7.636,0.090,-0.100
7.639,-0.080,-0.120
7.642,-0.280,-0.160
7.644,-0.350,-0.155
7.647,-0.305,-0.130
7.650,-0.235,-0.110
7.653,-0.250,-0.120
7.656,-0.310,-0.150
7.658,-0.300,-0.175
7.661,-0.225,-0.200
7.664,-0.125,-0.230
7.667,-0.085,-0.195
7.669,-0.055,-0.200
7.672,-0.035,-0.200
7.675,-0.040,-0.190
7.678,-0.065,-0.155
7.681,-0.050,-0.120
7.683,-0.005,-0.075
7.686,0.015,-0.055
7.689,-0.025,-0.025
7.692,-0.095,0.005
7.694,-0.105,0.065
7.697,0.010,0.110
7.700,0.145,0.175
7.703,0.230,0.205
7.706,0.250,0.200
7.708,0.210,0.160
7.711,0.165,0.110
7.714,0.065,0.085
7.717,-0.050,0.060
7.719,-0.130,0.040
7.722,-0.180,0.045
7.725,-0.160,0.020
7.728,-0.135,0.035
7.731,-0.030,0.080
7.733,0.205,0.110
7.736,0.490,0.100
7.739,0.705,0.040
7.742,0.830,-0.035
7.744,0.885,-0.120
7.747,0.980,-0.120
7.750,1.100,-0.105
7.753,1.205,-0.120
7.756,1.290,-0.185
7.758,1.295,-0.295
7.761,1.175,-0.405
7.764,1.015,-0.490
7.767,0.935,-0.530
7.769,0.870,-0.550
7.772,0.700,-0.520
7.775,0.340,-0.470
7.778,-0.095,-0.375
7.781,-0.340,-0.250
7.783,-0.370,-0.185
7.786,-0.310,-0.130
7.789,-0.310,-0.125
7.792,-0.370,-0.110
7.794,-0.460,-0.095
7.797,-0.445,-0.070
7.800,-0.410,-0.065
7.803,-0.370,-0.075
7.806,-0.330,-0.095
7.808,-0.305,-0.080
7.811,-0.350,-0.010
7.814,-0.480,0.065
7.817,-0.555,0.125
7.819,-0.510,0.115
7.822,-0.360,0.020
7.825,-0.275,-0.125
7.828,-0.335,-0.240
7.831,-0.580,-0.285
7.833,-0.890,-0.290
7.836,-0.960,-0.235
7.839,-0.725,-0.200
7.842,-0.420,-0.140
7.844,-0.330,-0.070
7.847,-0.460,-0.055
7.850,-0.480,-0.045
7.853,-0.375,-0.060
7.856,-0.425,-0.110
7.858,-0.650,-0.110
7.861,-0.820,-0.080
7.864,-0.800,-0.020
7.867,-0.645,0.025
7.869,-0.500,0.030
7.872,-0.475,0.040
7.875,-0.540,0.030
7.878,-0.555,0.050
7.881,-0.490,0.080
7.883,-0.410,0.080
7.886,-0.425,0.050
7.889,-0.505,0.045
7.892,-0.550,0.015
7.894,-0.635,0.035
7.897,-0.715,0.045
7.900,-0.660,0.100
7.903,-0.560,0.105
7.906,-0.520,0.105
7.908,-0.540,0.120
7.911,-0.585,0.120
7.914,-0.530,0.140
7.917,-0.390,0.130
7.919,-0.200,0.100
7.922,-0.110,0.075
7.925,-0.190,0.065
7.928,-0.375,0.085
7.931,-0.515,0.100
7.933,-0.545,0.140
7.936,-0.460,0.140
7.939,-0.440,0.125
7.942,-0.455,0.120
7.944,-0.400,0.120
7.947,-0.315,0.110
7.950,-0.225,0.115
7.953,-0.185,0.095
7.956,-0.265,0.075
7.958,-0.365,0.065
7.961,-0.415,0.060
7.964,-0.285,0.095
7.967,-0.055,0.100
7.969,0.085,0.045
7.972,-0.030,-0.030
7.975,-0.180,-0.135
7.978,-0.180,-0.175
7.981,-0.075,-0.170
7.983,0.000,-0.135
7.986,0.075,-0.105
7.989,0.065,-0.095
7.992,-0.080,-0.090
7.994,-0.285,-0.065
7.997,-0.435,-0.010
8.000,-0.390,0.050
8.003,-0.165,0.070
8.006,-0.030,0.065
8.008,-0.165,0.060
8.011,-0.395,0.070
8.014,-0.460,0.095
8.017,-0.370,0.080
8.019,-0.275,0.055
8.022,-0.280,0.020
8.025,-0.320,0.015
8.028,-0.310,0.025
8.031,-0.200,0.075
8.033,-0.120,0.125
8.036,-0.130,0.175
8.039,-0.185,0.200
8.042,-0.220,0.190
8.044,-0.170,0.170
8.047,-0.100,0.135
8.050,-0.025,0.095
8.053,-0.045,0.065
8.056,-0.295,0.005
8.058,-0.595,-0.005
8.061,-0.720,0.030
8.064,-0.535,0.070
8.067,-0.270,0.105
8.069,-0.115,0.110
8.072,-0.145,0.095
8.075,-0.300,0.105
8.078,-0.475,0.100
8.081,-0.510,0.090
8.083,-0.435,0.090
8.086,-0.340,0.070
8.089,-0.305,0.055
8.092,-0.305,0.060
8.094,-0.255,0.075
8.097,-0.120,0.105
8.100,-0.015,0.130
8.103,-0.010,0.125
8.106,-0.110,0.125
8.108,-0.200,0.120
8.111,-0.245,0.145
8.114,-0.150,0.175
8.117,0.085,0.195
8.119,0.285,0.170
8.122,0.350,0.135
8.125,0.380,0.080
8.128,0.500,0.030
8.131,0.700,-0.040
8.133,0.870,-0.105
8.136,1.010,-0.200
8.139,1.155,-0.270
8.142,1.280,-0.310
8.144,1.315,-0.350
8.147,1.340,-0.385
8.150,1.330,-0.430
8.153,1.230,-0.480
8.156,1.065,-0.510
8.158,0.950,-0.530
8.161,0.900,-0.540
8.164,0.800,-0.520
8.167,0.495,-0.450
8.169,0.005,-0.395
8.172,-0.440,-0.330
8.175,-0.665,-0.255
8.178,-0.660,-0.175
8.181,-0.575,-0.105
8.183,-0.550,-0.040
8.186,-0.580,-0.025
8.189,-0.675,0.005
8.192,-0.780,0.050
8.194,-0.890,0.065
8.197,-0.990,0.110
8.200,-1.025,0.140
8.203,-0.970,0.155
8.206,-0.870,0.130
8.208,-0.810,0.130
8.211,-0.795,0.135
8.214,-0.775,0.125
8.217,-0.765,0.135
8.219,-0.760,0.135
8.222,-0.810,0.100
8.225,-0.850,0.080
8.228,-0.890,0.080
8.231,-0.905,0.105
8.233,-0.895,0.130
8.236,-0.850,0.110
8.239,-0.775,0.095
8.242,-0.720,0.085
8.244,-0.680,0.095
8.247,-0.675,0.120
8.250,-0.745,0.145
8.253,-0.875,0.170
8.256,-0.905,0.145
8.258,-0.765,0.110
8.261,-0.475,0.065
8.264,-0.320,0.040
8.267,-0.500,0.045
8.269,-0.885,0.075
8.272,-1.150,0.095
8.275,-1.090,0.095
8.278,-0.875,0.095
8.281,-0.675,0.045
8.283,-0.635,0.010
8.286,-0.670,-0.030
8.289,-0.705,-0.060
8.292,-0.725,-0.060
8.294,-0.835,-0.040
8.297,-0.945,0.010
8.300,-0.990,0.050
8.303,-0.975,0.075
8.306,-0.875,0.095
8.308,-0.775,0.095
8.311,-0.745,0.125
8.314,-0.735,0.140
8.317,-0.710,0.155
8.319,-0.665,0.155
8.322,-0.620,0.165
8.325,-0.610,0.160
8.328,-0.580,0.145
8.331,-0.475,0.175
8.333,-0.305,0.180
8.336,-0.215,0.185
8.339,-0.355,0.190
8.342,-0.570,0.210
8.344,-0.695,0.250
8.347,-0.690,0.330
8.350,-0.690,0.370
8.353,-0.715,0.370
8.356,-0.635,0.310
8.358,-0.395,0.215
8.361,-0.230,0.140
8.364,-0.315,0.105
8.367,-0.490,0.095
8.369,-0.575,0.095
8.372,-0.580,0.110
8.375,-0.545,0.105
8.378,-0.535,0.130
8.381,-0.495,0.145
8.383,-0.460,0.170
8.386,-0.465,0.155
8.389,-0.560,0.145
8.392,-0.655,0.130
8.394,-0.685,0.130
8.397,-0.640,0.150
8.400,-0.600,0.170
8.403,-0.600,0.150
8.406,-0.615,0.140
8.408,-0.625,0.130
8.411,-0.625,0.125
8.414,-0.595,0.150
8.417,-0.560,0.155
8.419,-0.530,0.160
8.422,-0.535,0.150
8.425,-0.555,0.155
8.428,-0.540,0.170
8.431,-0.460,0.200
8.433,-0.330,0.240
8.436,-0.285,0.220
8.439,-0.430,0.200
8.442,-0.690,0.175
8.444,-0.905,0.160
8.447,-0.975,0.155
8.450,-0.875,0.135
8.453,-0.735,0.105
8.456,-0.660,0.085
8.458,-0.630,0.075
8.461,-0.590,0.085
8.464,-0.500,0.130
8.467,-0.420,0.165
8.469,-0.410,0.185
8.472,-0.520,0.190
8.475,-0.620,0.195
8.478,-0.685,0.215
8.481,-0.625,0.205
8.483,-0.530,0.200
8.486,-0.555,0.180
8.489,-0.665,0.160
8.492,-0.815,0.180
8.494,-0.885,0.205
8.497,-0.895,0.230
8.500,-0.820,0.240
8.503,-0.720,0.245
8.506,-0.665,0.225
8.508,-0.635,0.230
8.511,-0.640,0.265
8.514,-0.630,0.275
8.517,-0.595,0.255
8.519,-0.570,0.180
8.522,-0.565,0.090
8.525,-0.575,0.015
8.528,-0.595,-0.005
8.531,-0.600,0.010
8.533,-0.585,0.030
8.536,-0.575,0.040
8.539,-0.570,0.045
8.542,-0.585,0.035
8.544,-0.575,0.060
8.547,-0.555,0.090
8.550,-0.520,0.110
8.553,-0.500,0.110
8.556,-0.490,0.115
8.558,-0.450,0.100
8.561,-0.415,0.120
8.564,-0.435,0.155
8.567,-0.580,0.165
8.569,-0.715,0.140
8.572,-0.765,0.105
8.575,-0.735,0.080
8.578,-0.690,0.075
8.581,-0.690,0.160
8.583,-0.715,0.200
8.586,-0.630,0.230
8.589,-0.530,0.245
8.592,-0.485,0.220
8.594,-0.590,0.180
8.597,-0.780,0.180
8.600,-0.860,0.150
8.603,-0.835,0.125
8.606,-0.750,0.090
8.608,-0.670,0.065
8.611,-0.635,0.090
8.614,-0.630,0.125
8.617,-0.630,0.145
8.619,-0.660,0.140
8.622,-0.675,0.130
8.625,-0.630,0.115
8.628,-0.575,0.140
8.631,-0.575,0.175
8.633,-0.580,0.195
8.636,-0.520,0.205
8.639,-0.410,0.200
8.642,-0.305,0.205
8.644,-0.265,0.230
8.647,-0.260,0.320
8.650,-0.140,0.390
8.653,0.055,0.440
8.656,0.190,0.465
8.658,0.225,0.415
8.661,0.145,0.325
8.664,0.070,0.245
8.667,0.220,0.160
8.669,0.585,0.070
8.672,0.995,-0.020
8.675,1.280,-0.115
8.678,1.395,-0.170
8.681,1.330,-0.230
8.683,1.140,-0.245
8.686,1.030,-0.240
8.689,1.050,-0.245
8.692,1.140,-0.245
8.694,1.225,-0.265
8.697,1.255,-0.345
8.700,1.090,-0.400
8.703,0.805,-0.470
8.706,0.545,-0.490
8.708,0.325,-0.495
8.711,0.130,-0.455
8.714,-0.125,-0.375
8.717,-0.350,-0.285
8.719,-0.490,-0.195
8.722,-0.570,-0.145
8.725,-0.625,-0.085
8.728,-0.690,-0.030
8.731,-0.695,0.050
8.733,-0.665,0.130
8.736,-0.670,0.190
8.739,-0.700,0.210
8.742,-0.790,0.190
8.744,-0.900,0.195
8.747,-0.890,0.150
8.750,-0.745,0.100
8.753,-0.535,0.015
8.756,-0.370,-0.030
8.758,-0.280,-0.065
8.761,-0.370,-0.040
8.764,-0.710,0.035
8.767,-1.065,0.105
8.769,-1.160,0.160
8.772,-1.060,0.175
8.775,-0.885,0.145
8.778,-0.685,0.135
8.781,-0.590,0.115
8.783,-0.635,0.120
8.786,-0.790,0.125
8.789,-0.985,0.140
8.792,-1.125,0.165
8.794,-1.160,0.180
8.797,-1.090,0.205
8.800,-0.950,0.220
8.803,-0.840,0.190
8.806,-0.840,0.165
8.808,-0.890,0.140
8.811,-0.875,0.130
8.814,-0.840,0.130
8.817,-0.795,0.160
8.819,-0.745,0.160
8.822,-0.710,0.165
8.825,-0.680,0.160
8.828,-0.665,0.155
8.831,-0.655,0.155
8.833,-0.655,0.115
8.836,-0.670,0.065
8.839,-0.695,0.000
8.842,-0.685,-0.030
8.844,-0.655,-0.025
8.847,-0.630,0.035
8.850,-0.620,0.075
8.853,-0.595,0.095
8.856,-0.625,0.125
8.858,-0.675,0.145
8.861,-0.675,0.190
8.864,-0.540,0.220
8.867,-0.350,0.230
8.869,-0.225,0.190
8.872,-0.395,0.135
8.875,-0.850,0.135
8.878,-1.145,0.155
8.881,-1.005,0.210
8.883,-0.685,0.250
8.886,-0.495,0.260
8.889,-0.490,0.250
8.892,-0.520,0.240
8.894,-0.540,0.255
8.897,-0.505,0.250
8.900,-0.460,0.270
8.903,-0.400,0.255
8.906,-0.375,0.230
8.908,-0.385,0.210
8.911,-0.425,0.215
8.914,-0.405,0.220
8.917,-0.375,0.245
8.919,-0.365,0.255
8.922,-0.420,0.265
8.925,-0.450,0.280
8.928,-0.450,0.325
8.931,-0.440,0.375
8.933,-0.435,0.385
8.936,-0.410,0.395
8.939,-0.390,0.320
8.942,-0.390,0.205
8.944,-0.425,0.115
8.947,-0.415,0.050
8.950,-0.325,0.010
8.953,-0.235,-0.020
8.956,-0.250,-0.035
8.958,-0.335,-0.065
8.961,-0.410,-0.065
8.964,-0.345,-0.040
8.967,-0.205,0.010
8.969,-0.140,0.020
8.972,-0.125,0.020
8.975,-0.120,0.020
8.978,-0.190,0.010
8.981,-0.370,0.025
8.983,-0.485,0.055
8.986,-0.435,0.070
8.989,-0.340,0.065
8.992,-0.305,0.050
8.994,-0.310,0.055
8.997,-0.310,0.075
9.000,-0.250,0.105
9.003,-0.165,0.145
9.006,-0.150,0.195
9.008,-0.170,0.235
9.011,-0.205,0.240
9.014,-0.240,0.255
9.017,-0.360,0.250
9.019,-0.490,0.170
9.022,-0.565,0.095
9.025,-0.515,0.030
9.028,-0.435,0.005
9.031,-0.395,0.010
9.033,-0.425,0.025
9.036,-0.410,0.055
9.039,-0.380,0.055
9.042,-0.345,0.050
9.044,-0.355,0.070
9.047,-0.355,0.085
9.050,-0.315,0.105
9.053,-0.230,0.125
9.056,-0.155,0.110
9.058,-0.170,0.105
9.061,-0.275,0.110
9.064,-0.350,0.145
9.067,-0.395,0.175
9.069,-0.370,0.215
9.072,-0.370,0.215
9.075,-0.460,0.215
9.078,-0.490,0.220
9.081,-0.425,0.235
9.083,-0.365,0.230
9.086,-0.320,0.225
9.089,-0.335,0.220
9.092,-0.350,0.220
9.094,-0.335,0.230
9.097,-0.270,0.210
9.100,-0.235,0.165
9.103,-0.230,0.065
9.106,-0.235,-0.055
9.108,-0.265,-0.155
9.111,-0.250,-0.185
9.114,-0.145,-0.170
9.117,-0.035,-0.130
9.119,0.050,-0.115
9.122,0.035,-0.095
9.125,-0.005,-0.105
9.128,-0.055,-0.070
9.131,-0.115,-0.030
9.133,-0.255,0.025
9.136,-0.410,0.075
9.139,-0.525,0.105
9.142,-0.500,0.115
9.144,-0.450,0.130
9.147,-0.385,0.125
9.150,-0.335,0.110
9.153,-0.250,0.070
9.156,-0.185,0.035
9.158,-0.175,-0.005
9.161,-0.170,0.000
9.164,-0.165,0.015
9.167,-0.180,0.015
9.169,-0.185,0.010
9.172,-0.195,-0.015
9.175,-0.185,-0.020
9.178,-0.205,-0.005
9.181,-0.205,0.035
9.183,-0.200,0.060
9.186,-0.180,0.080
9.189,-0.210,0.085
9.192,-0.240,0.095
9.194,-0.215,0.115
9.197,-0.170,0.160
9.200,-0.160,0.170
9.203,-0.170,0.135
9.206,-0.140,0.085
9.208,-0.105,0.020
9.211,-0.070,0.015
9.214,-0.015,0.025
9.217,0.075,0.040
9.219,0.200,0.085
9.222,0.345,0.105
9.225,0.385,0.120
9.228,0.415,0.135
9.231,0.490,0.130
9.233,0.665,0.105
9.236,0.910,0.065
9.239,1.175,0.015
9.242,1.450,-0.055
9.244,1.575,-0.100
9.247,1.575,-0.155
9.250,1.545,-0.190
9.253,1.595,-0.235
9.256,1.715,-0.300
9.258,1.765,-0.370
9.261,1.690,-0.435
9.264,1.640,-0.515
9.267,1.595,-0.585
9.269,1.520,-0.655
9.272,1.375,-0.665
9.275,1.150,-0.655
9.278,0.865,-0.600
9.281,0.610,-0.500
9.283,0.430,-0.380
9.286,0.330,-0.315
9.289,0.220,-0.270
9.292,0.020,-0.240
9.294,-0.235,-0.215
9.297,-0.440,-0.180
9.300,-0.445,-0.155
9.303,-0.290,-0.150
9.306,-0.175,-0.160
9.308,-0.215,-0.155
9.311,-0.370,-0.135
9.314,-0.445,-0.090
9.317,-0.450,-0.060
9.319,-0.490,-0.020
9.322,-0.610,0.000
9.325,-0.705,0.025
9.328,-0.690,0.045
9.331,-0.645,0.080
9.333,-0.595,0.110
9.336,-0.575,0.135
9.339,-0.565,0.160
9.342,-0.560,0.220
9.344,-0.485,0.260
9.347,-0.415,0.250
9.350,-0.385,0.220
9.353,-0.435,0.135
9.356,-0.490,0.025
9.358,-0.450,-0.045
9.361,-0.390,-0.065
9.364,-0.420,-0.035
9.367,-0.505,0.015
9.369,-0.545,0.040
9.372,-0.455,0.075
9.375,-0.395,0.120
9.378,-0.480,0.155
9.381,-0.600,0.170
9.383,-0.580,0.150
9.386,-0.455,0.090
9.389,-0.505,-0.010
9.392,-0.665,-0.085
9.394,-0.745,-0.125
9.397,-0.695,-0.140
9.400,-0.575,-0.125
9.403,-0.465,-0.100
9.406,-0.400,-0.110
9.408,-0.390,-0.100
9.411,-0.390,-0.090
9.414,-0.385,-0.045
9.417,-0.340,-0.035
9.419,-0.265,-0.025
9.422,-0.275,-0.025
9.425,-0.365,-0.030
9.428,-0.410,0.005
9.431,-0.340,0.035
9.433,-0.230,0.070
9.436,-0.130,0.065
9.439,-0.055,0.055
9.442,-0.035,-0.005
9.444,-0.065,-0.015
9.447,-0.095,-0.005
9.450,-0.085,0.060
9.453,-0.105,0.105
9.456,-0.195,0.115
9.458,-0.230,0.110
9.461,-0.185,0.110
9.464,-0.105,0.105
9.467,-0.040,0.085
9.469,-0.025,0.065
9.472,-0.090,0.030
9.475,-0.170,0.005
9.478,-0.155,0.020
9.481,-0.110,0.040
9.483,-0.110,0.075
9.486,-0.130,0.090
9.489,-0.170,0.090
9.492,-0.175,0.105
9.494,-0.150,0.110
9.497,-0.125,0.125
9.500,-0.100,0.130
9.503,-0.060,0.115
9.506,0.045,0.090
9.508,0.095,0.060
9.511,0.015,0.060
9.514,-0.170,0.085
9.517,-0.275,0.100
9.519,-0.260,0.095
9.522,-0.130,0.070
9.525,0.010,0.045
9.528,-0.010,0.040
9.531,-0.175,0.060
9.533,-0.285,0.060
9.536,-0.295,0.075
9.539,-0.290,0.075
9.542,-0.315,0.065
9.544,-0.325,0.080
9.547,-0.285,0.090
9.550,-0.195,0.095
9.553,-0.130,0.090
9.556,-0.150,0.070
9.558,-0.190,0.050
9.561,-0.195,0.065
9.564,-0.160,0.075
9.567,-0.095,0.095
9.569,0.005,0.100
9.572,0.070,0.105
9.575,0.070,0.120
9.578,-0.030,0.160
9.581,-0.100,0.205
9.583,-0.095,0.235
9.586,0.005,0.250
9.589,0.070,0.245
9.592,0.110,0.215
9.594,0.150,0.215
9.597,0.280,0.180
9.600,0.500,0.140
9.603,0.780,0.065
9.606,1.085,0.000
9.608,1.305,-0.055
9.611,1.495,-0.065
9.614,1.625,-0.075
9.617,1.615,-0.115
9.619,1.530,-0.195
9.622,1.390,-0.275
9.625,1.270,-0.355
9.628,1.210,-0.420
9.631,1.180,-0.430
9.633,1.065,-0.425
9.636,0.930,-0.390
9.639,0.815,-0.345
9.642,0.725,-0.280
9.644,0.600,-0.220
9.647,0.415,-0.190
9.650,0.235,-0.195
9.653,0.085,-0.205
9.656,-0.065,-0.215
9.658,-0.280,-0.210
9.661,-0.485,-0.165
9.664,-0.515,-0.105
9.667,-0.460,-0.050
9.669,-0.400,-0.040
9.672,-0.395,-0.050
9.675,-0.430,-0.040
9.678,-0.460,-0.015
9.681,-0.475,0.010
9.683,-0.450,0.030
9.686,-0.445,0.030
9.689,-0.495,0.030
9.692,-0.530,0.025
9.694,-0.555,0.040
9.697,-0.555,0.060
9.700,-0.510,0.090
9.703,-0.495,0.105
9.706,-0.450,0.120
9.708,-0.415,0.120
9.711,-0.430,0.155
9.714,-0.495,0.180
9.717,-0.575,0.220
9.719,-0.590,0.190
9.722,-0.555,0.170
9.725,-0.500,0.135
9.728,-0.415,0.155
9.731,-0.320,0.155
9.733,-0.345,0.170
9.736,-0.540,0.200
9.739,-0.765,0.220
9.742,-0.855,0.240
9.744,-0.770,0.270
9.747,-0.635,0.275
9.750,-0.560,0.260
9.753,-0.525,0.210
9.756,-0.495,0.160
9.758,-0.460,0.110
9.761,-0.460,0.095
9.764,-0.440,0.120
9.767,-0.425,0.155
9.769,-0.385,0.165
9.772,-0.370,0.140
9.775,-0.355,0.115
9.778,-0.365,0.105
9.781,-0.335,0.095
9.783,-0.305,0.110
9.786,-0.265,0.075
9.789,-0.260,0.055
9.792,-0.235,0.015
9.794,-0.230,0.020
9.797,-0.205,0.045
9.800,-0.170,0.060
9.803,-0.150,0.040
9.806,-0.125,0.035
9.808,-0.140,0.020
9.811,-0.150,0.015
9.814,-0.105,0.040
9.817,-0.065,0.055
9.819,-0.035,0.055
9.822,-0.030,0.030
9.825,0.000,0.030
9.828,0.010,0.025
9.831,0.010,0.035
9.833,-0.010,0.075
9.836,-0.060,0.065
9.839,-0.115,0.070
9.842,-0.160,0.085
9.844,-0.180,0.085
9.847,-0.165,0.115
9.850,-0.140,0.155
9.853,-0.120,0.150
9.856,-0.165,0.150
9.858,-0.195,0.130
9.861,-0.215,0.150
9.864,-0.185,0.175
9.867,-0.175,0.180
9.869,-0.170,0.185
9.872,-0.150,0.165
9.875,-0.110,0.165
9.878,-0.115,0.185
9.881,-0.190,0.200
9.883,-0.260,0.235
9.886,-0.285,0.240
9.889,-0.285,0.235
9.892,-0.305,0.230
9.894,-0.305,0.245
9.897,-0.270,0.245
9.900,-0.250,0.260
9.903,-0.265,0.260
9.906,-0.260,0.225
9.908,-0.245,0.210
9.911,-0.235,0.195
9.914,-0.235,0.215
9.917,-0.215,0.215
9.919,-0.195,0.210
9.922,-0.205,0.190
9.925,-0.230,0.160
9.928,-0.240,0.155
9.931,-0.225,0.150
9.933,-0.185,0.135
9.936,-0.145,0.110
9.939,-0.135,0.065
9.942,-0.175,0.045
9.944,-0.225,0.015
9.947,-0.230,0.015
9.950,-0.220,0.010
9.953,-0.190,-0.015
9.956,-0.175,-0.025
9.958,-0.190,-0.030
9.961,-0.195,-0.020
9.964,-0.180,0.010
9.967,-0.165,0.035
9.969,-0.170,0.025
9.972,-0.170,0.020
9.975,-0.170,-0.005
9.978,-0.175,0.010
9.981,-0.195,0.030
9.983,-0.160,0.055
9.986,-0.130,0.040
9.989,-0.105,0.025
9.992,-0.125,0.010
9.994,-0.165,0.020
9.997,-0.175,0.025
10.000,-0.180,0.065
10.003,-0.165,0.055
10.006,-0.140,0.050
10.008,-0.120,0.045
10.011,-0.130,0.045
10.014,-0.165,0.075
10.017,-0.195,0.105
10.019,-0.190,0.115
10.022,-0.195,0.110
10.025,-0.185,0.095
10.028,-0.190,0.110
10.031,-0.180,0.125
10.033,-0.170,0.155
10.036,-0.165,0.155
10.039,-0.175,0.155
10.042,-0.170,0.170
10.044,-0.175,0.170
10.047,-0.175,0.175
10.050,-0.180,0.170
10.053,-0.160,0.150
10.056,-0.155,0.110
10.058,-0.160,0.085
10.061,-0.170,0.075
10.064,-0.170,0.070
10.067,-0.145,0.085
10.069,-0.135,0.050
10.072,-0.145,0.030
10.075,-0.160,0.010
10.078,-0.170,0.010
10.081,-0.160,0.025
10.083,-0.170,0.020
10.086,-0.155,0.005
10.089,-0.155,-0.025
10.092,-0.165,-0.035
10.094,-0.175,-0.030
10.097,-0.175,-0.030
10.100,-0.145,-0.015
10.103,-0.125,-0.020
10.106,-0.135,-0.040
10.108,-0.125,-0.030
10.111,-0.105,-0.040
10.114,-0.110,-0.010
10.117,-0.110,0.000
10.119,-0.105,-0.005
10.122,-0.085,0.000
10.125,-0.080,-0.005
10.128,-0.100,0.010
10.131,-0.105,0.020
10.133,-0.085,0.045
10.136,-0.050,0.045
10.139,-0.045,0.050
10.142,-0.080,0.045
10.144,-0.095,0.050
10.147,-0.105,0.065
10.150,-0.080,0.090
10.153,-0.065,0.080
10.156,-0.080,0.070
10.158,-0.100,0.080
10.161,-0.105,0.085
10.164,-0.115,0.115
10.167,-0.105,0.135
10.169,-0.085,0.135
10.172,-0.085,0.115
10.175,-0.070,0.115
10.178,-0.075,0.115
10.181,-0.105,0.120
10.183,-0.110,0.130
10.186,-0.095,0.135
10.189,-0.090,0.140
10.192,-0.090,0.125
10.194,-0.105,0.140
10.197,-0.095,0.130
10.200,-0.085,0.135
10.203,-0.065,0.110
10.206,-0.080,0.075
10.208,-0.085,0.055
10.211,-0.100,0.045
10.214,-0.090,0.055
10.217,-0.060,0.070
10.219,-0.055,0.045
10.222,-0.075,0.000
10.225,-0.090,-0.005
10.228,-0.095,-0.025
10.231,-0.060,-0.025
10.233,-0.050,-0.025
10.236,-0.045,-0.050
10.239,-0.040,-0.065
10.242,-0.060,-0.080
10.244,-0.065,-0.065
10.247,-0.070,-0.070
10.250,-0.055,-0.040
10.253,-0.025,-0.035
10.256,-0.040,-0.060
10.258,-0.055,-0.075
10.261,-0.070,-0.045
10.264,-0.005,-0.035
10.267,0.075,-0.010
10.269,0.135,0.015
10.272,0.160,-0.005
10.275,0.185,0.010
10.278,0.240,0.045
10.281,0.345,0.085
10.283,0.425,0.150
10.286,0.495,0.170
10.289,0.555,0.155
10.292,0.635,0.075
10.294,0.830,0.050
10.297,1.145,0.015
10.300,1.455,-0.025
10.303,1.665,-0.100
10.306,1.715,-0.185
10.308,1.740,-0.200
10.311,1.795,-0.205
10.314,1.845,-0.230
10.317,1.830,-0.260
10.319,1.785,-0.360
10.322,1.700,-0.460
10.325,1.520,-0.520
10.328,1.345,-0.530
10.331,1.185,-0.505
10.333,1.015,-0.465
10.336,0.835,-0.410
10.339,0.590,-0.350
10.342,0.350,-0.300
10.344,0.155,-0.235
10.347,-0.005,-0.120
10.350,-0.115,-0.035
10.353,-0.180,-0.005
10.356,-0.195,-0.005
10.358,-0.215,0.025
10.361,-0.240,0.020
10.364,-0.270,0.045
10.367,-0.285,0.070
10.369,-0.270,0.070
10.372,-0.260,0.045
10.375,-0.295,0.040
10.378,-0.310,0.035
10.381,-0.325,0.055
10.383,-0.310,0.070
10.386,-0.310,0.055
10.389,-0.320,0.035
10.392,-0.350,0.015
10.394,-0.355,0.010
10.397,-0.330,0.030
10.400,-0.320,0.040
10.403,-0.340,0.035
10.406,-0.325,0.015
10.408,-0.350,-0.005
10.411,-0.355,0.000
10.414,-0.345,0.015
10.417,-0.325,0.045
10.419,-0.300,0.035
10.422,-0.305,0.025
10.425,-0.320,0.020
10.428,-0.330,0.015
10.431,-0.320,0.040
10.433,-0.310,0.060
10.436,-0.290,0.060
10.439,-0.295,0.060
10.442,-0.305,0.055
10.444,-0.300,0.080
10.447,-0.285,0.085
10.450,-0.275,0.090
10.453,-0.265,0.080
10.456,-0.270,0.060
10.458,-0.295,0.065
10.461,-0.295,0.070
10.464,-0.285,0.085
10.467,-0.270,0.115
10.469,-0.260,0.110
10.472,-0.230,0.095
10.475,-0.225,0.085
10.478,-0.220,0.075
10.481,-0.220,0.095
10.483,-0.190,0.130
10.486,-0.175,0.145
10.489,-0.180,0.135
10.492,-0.175,0.135
10.494,-0.170,0.135
10.497,-0.130,0.140
10.500,-0.115,0.150
10.503,-0.090,0.150
10.506,-0.085,0.125
10.508,-0.060,0.110
10.511,-0.055,0.125
10.514,-0.030,0.140
10.517,0.000,0.160
10.519,0.045,0.170
10.522,0.060,0.160
10.525,0.070,0.150
10.528,0.100,0.155
10.531,0.130,0.175
10.533,0.160,0.195
10.536,0.190,0.200
10.539,0.190,0.175
10.542,0.200,0.160
10.544,0.200,0.165
10.547,0.205,0.165
10.550,0.230,0.165
10.553,0.245,0.160
10.556,0.245,0.145
10.558,0.230,0.135
10.561,0.215,0.125
10.564,0.210,0.155
10.567,0.220,0.160
10.569,0.220,0.160
10.572,0.225,0.130
10.575,0.210,0.125
10.578,0.205,0.115
10.581,0.210,0.110
10.583,0.195,0.125
10.586,0.195,0.120
10.589,0.200,0.100
10.592,0.190,0.075
10.594,0.170,0.075
10.597,0.185,0.085
10.600,0.205,0.090
10.603,0.220,0.070
10.606,0.220,0.060
10.608,0.195,0.030
10.611,0.185,0.010
10.614,0.205,0.010
10.617,0.200,0.000
10.619,0.220,-0.020
10.622,0.210,-0.055
10.625,0.190,-0.055
10.628,0.195,-0.045
10.631,0.190,-0.030
10.633,0.205,0.000
10.636,0.240,-0.010
10.639,0.270,-0.015
10.642,0.290,-0.045
10.644,0.345,-0.060
10.647,0.415,-0.055
10.650,0.495,-0.040
10.653,0.530,-0.040
10.656,0.490,-0.050
10.658,0.385,-0.045
10.661,0.330,-0.015
10.664,0.285,0.035
10.667,0.220,0.120
10.669,0.090,0.190
10.672,-0.015,0.245
10.675,-0.040,0.310
10.678,-0.010,0.355
10.681,0.020,0.375
10.683,-0.015,0.355
10.686,-0.110,0.280
10.689,-0.165,0.185
10.692,-0.195,0.090
10.694,-0.225,-0.005
10.697,-0.325,-0.075
10.700,-0.405,-0.145
10.703,-0.465,-0.250
10.706,-0.460,-0.400
10.708,-0.425,-0.485
10.711,-0.420,-0.510
10.714,-0.420,-0.510
10.717,-0.325,-0.500
10.719,-0.190,-0.500
10.722,-0.070,-0.530
10.725,-0.015,-0.525
10.728,-0.010,-0.520
10.731,-0.040,-0.495
10.733,-0.050,-0.470
10.736,-0.040,-0.455
10.739,-0.015,-0.470
10.742,0.025,-0.465
10.744,0.085,-0.425
10.747,0.150,-0.385
10.750,0.195,-0.355
10.753,0.205,-0.330
10.756,0.245,-0.315
10.758,0.270,-0.295
10.761,0.255,-0.280
10.764,0.220,-0.250
10.767,0.225,-0.225
10.769,0.200,-0.220
10.772,0.155,-0.225
10.775,0.105,-0.240
10.778,0.075,-0.210
10.781,0.075,-0.175
10.783,0.095,-0.130
10.786,0.105,-0.145
10.789,0.095,-0.135
10.792,0.080,-0.145
10.794,0.095,-0.130
10.797,0.105,-0.125
10.800,0.145,-0.095
10.803,0.135,-0.090
10.806,0.145,-0.095
10.808,0.150,-0.095
10.811,0.150,-0.095
10.814,0.170,-0.075
10.817,0.200,-0.045
10.819,0.240,-0.025
10.822,0.260,-0.015
10.825,0.270,-0.015
10.828,0.290,0.010
10.831,0.345,0.025
10.833,0.395,0.035
10.836,0.430,0.060
10.839,0.435,0.035
10.842,0.460,0.035
10.844,0.500,0.045
10.847,0.545,0.075
10.850,0.580,0.085
10.853,0.615,0.095
10.856,0.645,0.085
10.858,0.670,0.075
10.861,0.690,0.085
10.864,0.730,0.100
10.867,0.775,0.110
10.869,0.830,0.105
10.872,0.865,0.100
10.875,0.875,0.080
10.878,0.905,0.090
10.881,0.965,0.100
10.883,1.010,0.105
10.886,1.035,0.105
10.889,1.090,0.090
10.892,1.120,0.080
10.894,1.145,0.070
10.897,1.165,0.085
10.900,1.190,0.085
10.903,1.220,0.085
10.906,1.250,0.075
10.908,1.245,0.055
10.911,1.245,0.060
10.914,1.260,0.070
10.917,1.260,0.085
10.919,1.235,0.055
10.922,1.225,0.035
10.925,1.180,0.020
10.928,1.125,0.010
10.931,1.095,-0.005
10.933,1.060,-0.005
10.936,1.040,-0.030
10.939,0.985,-0.065
10.942,0.930,-0.085
10.944,0.865,-0.095
10.947,0.850,-0.085
10.950,0.810,-0.075
10.953,0.765,-0.075
10.956,0.725,-0.070
10.958,0.675,-0.075
10.961,0.635,-0.065
10.964,0.590,-0.045
10.967,0.575,-0.025
10.969,0.550,-0.015
10.972,0.520,-0.035
10.975,0.480,-0.040
10.978,0.435,-0.030
10.981,0.425,-0.005
10.983,0.430,0.005
10.986,0.415,0.005
10.989,0.395,-0.005
10.992,0.365,-0.030
10.994,0.350,-0.015
10.997,0.335,-0.005
11.000,0.315,0.005
11.003,0.325,-0.005
11.006,0.320,-0.030
11.008,0.295,-0.040
11.011,0.270,-0.050
11.014,0.285,-0.035
11.017,0.310,-0.020
11.019,0.295,-0.030
11.022,0.295,-0.045
11.025,0.270,-0.050
11.028,0.265,-0.055
11.031,0.280,-0.035
11.033,0.280,-0.010
11.036,0.290,-0.005
11.039,0.290,0.000
11.042,0.275,-0.020
11.044,0.300,0.000
11.047,0.385,0.020
11.050,0.505,0.055
11.053,0.590,0.040
11.056,0.625,0.025
11.058,0.670,0.010
11.061,0.725,0.020
11.064,0.750,0.060
11.067,0.770,0.110
11.069,0.895,0.135
11.072,1.070,0.090
11.075,1.300,0.055
11.078,1.535,0.025
11.081,1.735,-0.020
11.083,1.820,-0.080
11.086,1.820,-0.190
11.089,1.825,-0.285
11.092,1.785,-0.360
11.094,1.700,-0.400
11.097,1.620,-0.470
11.100,1.520,-0.545
11.103,1.390,-0.625
11.106,1.235,-0.665
11.108,1.100,-0.670
11.111,0.950,-0.640
11.114,0.785,-0.580
11.117,0.585,-0.495
11.119,0.415,-0.440
11.122,0.230,-0.400
11.125,0.075,-0.365
11.128,-0.030,-0.290
11.131,-0.040,-0.220
11.133,-0.045,-0.190
11.136,-0.060,-0.175
11.139,-0.110,-0.170
11.142,-0.150,-0.165
11.144,-0.190,-0.140
11.147,-0.205,-0.105
11.150,-0.205,-0.085
11.153,-0.195,-0.075
11.156,-0.230,-0.080
11.158,-0.265,-0.095
11.161,-0.280,-0.090
11.164,-0.295,-0.070
11.167,-0.275,-0.055
11.169,-0.265,-0.060
11.172,-0.290,-0.060
11.175,-0.300,-0.090
11.178,-0.300,-0.080
11.181,-0.300,-0.090
11.183,-0.285,-0.065
11.186,-0.270,-0.095
11.189,-0.265,-0.105
11.192,-0.280,-0.115
11.194,-0.280,-0.120
11.197,-0.280,-0.110
11.200,-0.260,-0.100
11.203,-0.250,-0.115
11.206,-0.245,-0.150
11.208,-0.240,-0.160
11.211,-0.240,-0.170
11.214,-0.225,-0.155
11.217,-0.200,-0.130
11.219,-0.205,-0.155
11.222,-0.215,-0.165
11.225,-0.225,-0.175
11.228,-0.215,-0.185
11.231,-0.180,-0.165
11.233,-0.185,-0.150
11.236,-0.185,-0.185
11.239,-0.205,-0.200
11.242,-0.205,-0.220
11.244,-0.215,-0.205
11.247,-0.210,-0.195
11.250,-0.195,-0.170
11.253,-0.180,-0.170
11.256,-0.165,-0.185
11.258,-0.180,-0.180
11.261,-0.190,-0.160
11.264,-0.175,-0.130
11.267,-0.145,-0.105
11.269,-0.130,-0.100
11.272,-0.110,-0.100
11.275,-0.100,-0.100
11.278,-0.065,-0.090
11.281,-0.005,-0.070
11.283,0.030,-0.045
11.286,0.045,-0.060
11.289,0.080,-0.070
11.292,0.100,-0.085
11.294,0.130,-0.065
11.297,0.155,-0.040
11.300,0.185,-0.035
11.303,0.200,-0.045
11.306,0.210,-0.055
11.308,0.200,-0.060
11.311,0.175,-0.045
11.314,0.205,-0.035
11.317,0.230,-0.020
11.319,0.230,-0.025
11.322,0.195,-0.035
11.325,0.185,-0.035
11.328,0.185,-0.040
11.331,0.180,-0.015
11.333,0.180,0.000
11.336,0.170,-0.005
11.339,0.155,-0.020
11.342,0.135,-0.025
11.344,0.125,-0.040
11.347,0.125,-0.040
11.350,0.145,-0.035
11.353,0.145,-0.045
11.356,0.135,-0.070
11.358,0.105,-0.105
11.361,0.125,-0.125
11.364,0.130,-0.140
11.367,0.130,-0.145
11.369,0.125,-0.155
11.372,0.120,-0.205
11.375,0.110,-0.250
11.378,0.115,-0.270
11.381,0.135,-0.260
11.383,0.145,-0.265
11.386,0.170,-0.290
11.389,0.185,-0.310
11.392,0.165,-0.325
11.394,0.140,-0.320
11.397,0.150,-0.305
11.400,0.180,-0.295
11.403,0.195,-0.295
11.406,0.160,-0.285
11.408,0.120,-0.305
11.411,0.110,-0.285
11.414,0.125,-0.255
11.417,0.125,-0.235
11.419,0.145,-0.225
11.422,0.135,-0.240
11.425,0.130,-0.250
11.428,0.115,-0.230
11.431,0.140,-0.205
11.433,0.170,-0.165
11.436,0.160,-0.170
11.439,0.140,-0.185
11.442,0.130,-0.180
11.444,0.145,-0.180
11.447,0.145,-0.155
11.450,0.140,-0.145
11.453,0.145,-0.135
11.456,0.150,-0.155
11.458,0.130,-0.160
11.461,0.130,-0.140
11.464,0.150,-0.120
11.467,0.165,-0.110
11.469,0.150,-0.115
11.472,0.145,-0.125
11.475,0.125,-0.130
11.478,0.155,-0.125
11.481,0.125,-0.100
11.483,0.115,-0.085
11.486,0.130,-0.080
11.489,0.155,-0.100
11.492,0.135,-0.125
11.494,0.110,-0.120
11.497,0.120,-0.115
11.500,0.150,-0.090
11.503,0.150,-0.100
11.506,0.125,-0.135
11.508,0.095,-0.135
11.511,0.095,-0.135
11.514,0.090,-0.130
11.517,0.090,-0.110
11.519,0.105,-0.115
11.522,0.105,-0.130
11.525,0.075,-0.130
11.528,0.050,-0.130
11.531,0.055,-0.105
11.533,0.100,-0.090
11.536,0.090,-0.100
11.539,0.075,-0.125
11.542,0.045,-0.130
11.544,0.055,-0.155
11.547,0.090,-0.170
11.550,0.105,-0.200
11.553,0.120,-0.260
11.556,0.115,-0.315
11.558,0.115,-0.340
11.561,0.120,-0.345
11.564,0.130,-0.330
11.567,0.130,-0.330
11.569,0.125,-0.335
11.572,0.110,-0.320
11.575,0.085,-0.345
11.578,0.085,-0.320
11.581,0.095,-0.280
11.583,0.095,-0.270
11.586,0.095,-0.260
11.589,0.075,-0.270
11.592,0.080,-0.275
11.594,0.085,-0.255
11.597,0.100,-0.235
11.600,0.095,-0.215
11.603,0.120,-0.210
11.606,0.125,-0.235
11.608,0.100,-0.245
11.611,0.075,-0.225
11.614,0.075,-0.200
11.617,0.090,-0.170
11.619,0.090,-0.180
11.622,0.080,-0.195
11.625,0.060,-0.205
11.628,0.050,-0.180
11.631,0.045,-0.160
11.633,0.060,-0.135
11.636,0.065,-0.145
11.639,0.085,-0.140
11.642,0.085,-0.165
11.644,0.075,-0.170
11.647,0.080,-0.155
11.650,0.085,-0.140
11.653,0.070,-0.140
11.656,0.050,-0.135
11.658,0.060,-0.140
11.661,0.060,-0.145
11.664,0.065,-0.095
11.667,0.050,-0.080
11.669,0.070,-0.090
11.672,0.065,-0.110
11.675,0.070,-0.110
11.678,0.045,-0.135
11.681,0.040,-0.115
11.683,0.065,-0.100
11.686,0.095,-0.110
11.689,0.105,-0.130
11.692,0.075,-0.145
11.694,0.050,-0.140
11.697,0.050,-0.130
11.700,0.060,-0.105
11.703,0.075,-0.105
11.706,0.100,-0.135
11.708,0.150,-0.155
11.711,0.215,-0.160
11.714,0.270,-0.135
11.717,0.320,-0.130
11.719,0.350,-0.125
11.722,0.360,-0.120
11.725,0.370,-0.115
11.728,0.395,-0.090
11.731,0.460,-0.020
11.733,0.515,0.020
11.736,0.535,-0.005
11.739,0.565,-0.020
11.742,0.610,-0.070
11.744,0.705,-0.085
11.747,0.795,-0.100
11.750,0.880,-0.105
11.753,0.930,-0.175
11.756,0.970,-0.260
11.758,1.020,-0.335
11.761,1.060,-0.375
11.764,1.095,-0.385
11.767,1.140,-0.400
11.769,1.175,-0.470
11.772,1.085,-0.540
11.775,0.965,-0.595
11.778,0.855,-0.645
11.781,0.795,-0.655
11.783,0.760,-0.625
11.786,0.660,-0.615
11.789,0.485,-0.590
11.792,0.305,-0.545
11.794,0.170,-0.475
11.797,0.100,-0.400
11.800,0.000,-0.315
11.803,-0.050,-0.265
11.806,-0.090,-0.225
11.808,-0.105,-0.210
11.811,-0.115,-0.185
11.814,-0.125,-0.135
11.817,-0.145,-0.120
11.819,-0.165,-0.120
11.822,-0.190,-0.110
11.825,-0.210,-0.110
11.828,-0.225,-0.100
11.831,-0.230,-0.070
11.833,-0.225,-0.055
11.836,-0.220,-0.055
11.839,-0.225,-0.060
11.842,-0.265,-0.070
11.844,-0.295,-0.060
11.847,-0.275,-0.040
11.850,-0.265,-0.015
11.853,-0.260,-0.035
11.856,-0.285,-0.050
11.858,-0.320,-0.060
11.861,-0.320,-0.060
11.864,-0.315,-0.040
11.867,-0.315,-0.020
11.869,-0.320,-0.040
11.872,-0.340,-0.055
11.875,-0.325,-0.075
11.878,-0.310,-0.080
11.881,-0.310,-0.090
11.883,-0.310,-0.090
11.886,-0.295,-0.090
11.889,-0.280,-0.125
11.892,-0.285,-0.145
11.894,-0.305,-0.150
11.897,-0.285,-0.160
11.900,-0.270,-0.155
11.903,-0.255,-0.205
11.906,-0.250,-0.260
11.908,-0.245,-0.305
11.911,-0.230,-0.320
11.914,-0.185,-0.325
11.917,-0.150,-0.335
11.919,-0.130,-0.370
11.922,-0.110,-0.395
11.925,-0.110,-0.410
11.928,-0.105,-0.380
11.931,-0.110,-0.355
11.933,-0.075,-0.295
11.936,-0.040,-0.290
11.939,-0.040,-0.290
11.942,-0.070,-0.285
11.944,-0.085,-0.260
11.947,-0.055,-0.215
11.950,-0.035,-0.170
11.953,0.000,-0.170
11.956,-0.020,-0.180
11.958,-0.020,-0.160
11.961,-0.010,-0.140
11.964,0.000,-0.110
11.967,0.010,-0.080
11.969,0.015,-0.085
11.972,0.015,-0.080
11.975,0.035,-0.080
11.978,0.050,-0.075
11.981,0.045,-0.040
11.983,0.080,-0.015
11.986,0.100,-0.010
11.989,0.090,-0.020
11.992,0.085,-0.025
11.994,0.065,-0.005
11.997,0.045,0.000
12.000,0.050,0.020
12.003,0.065,0.000
12.006,0.080,-0.035
12.008,0.070,-0.045
12.011,0.015,-0.025
12.014,0.015,-0.010
12.017,0.045,0.000
12.019,0.055,-0.020
12.022,0.030,-0.045
12.025,-0.025,-0.075
12.028,-0.040,-0.070
12.031,-0.030,-0.045
12.033,0.000,-0.055
12.036,0.015,-0.050
12.039,-0.005,-0.070
12.042,-0.010,-0.095
12.044,-0.025,-0.100
12.047,-0.050,-0.080
12.050,-0.060,-0.075
12.053,-0.035,-0.075
12.056,-0.030,-0.105
12.058,-0.035,-0.130
12.061,-0.045,-0.140
12.064,-0.020,-0.155
12.067,-0.005,-0.160
12.069,-0.015,-0.210
12.072,-0.010,-0.250
12.075,-0.015,-0.290
12.078,-0.005,-0.300
12.081,0.010,-0.325
12.083,0.010,-0.320
12.086,0.020,-0.315
12.089,0.015,-0.330
12.092,0.000,-0.340
12.094,0.010,-0.355
12.097,0.005,-0.315
12.100,0.005,-0.275
12.103,-0.015,-0.260
12.106,-0.005,-0.265
12.108,0.020,-0.255
12.111,0.025,-0.245
12.114,0.025,-0.185
12.117,0.040,-0.170
12.119,0.045,-0.145
12.122,0.025,-0.150
12.125,0.020,-0.130
12.128,0.010,-0.115
12.131,0.040,-0.100
12.133,0.065,-0.065
12.136,0.060,-0.075
12.139,0.030,-0.070
12.142,0.005,-0.080
12.144,0.000,-0.075
12.147,0.030,-0.045
12.150,0.065,-0.020
12.153,0.080,-0.020
12.156,0.050,-0.025
12.158,0.015,-0.040
12.161,-0.010,-0.045
12.164,0.010,-0.025
12.167,0.040,-0.010
12.169,0.035,-0.005
12.172,0.025,-0.030
12.175,-0.020,-0.040
12.178,-0.040,-0.040
12.181,-0.025,-0.030
12.183,-0.010,0.005
12.186,-0.015,0.000
12.189,-0.035,-0.020
12.192,-0.040,-0.030
12.194,-0.045,-0.030
12.197,-0.045,-0.015
12.200,-0.060,-0.005
12.203,-0.050,-0.005
12.206,-0.045,-0.035
12.208,-0.070,-0.050
12.211,-0.105,-0.045
12.214,-0.140,-0.045
12.217,-0.130,-0.030
12.219,-0.125,-0.035
12.222,-0.115,-0.075
12.225,-0.125,-0.095
12.228,-0.145,-0.110
12.231,-0.160,-0.095
12.233,-0.170,-0.085
12.236,-0.150,-0.105
12.239,-0.145,-0.140
12.242,-0.140,-0.200
12.244,-0.120,-0.220
12.247,-0.100,-0.210
12.250,-0.090,-0.215
12.253,-0.080,-0.230
12.256,-0.065,-0.250
12.258,-0.075,-0.265
12.261,-0.095,-0.250
12.264,-0.110,-0.250
12.267,-0.100,-0.220
12.269,-0.090,-0.230
12.272,-0.105,-0.250
12.275,-0.145,-0.265
12.278,-0.145,-0.220
12.281,-0.130,-0.215
12.283,-0.120,-0.200
12.286,-0.130,-0.205
12.289,-0.160,-0.220
12.292,-0.185,-0.205
12.294,-0.170,-0.170
12.297,-0.150,-0.145
12.300,-0.125,-0.120
12.303,-0.120,-0.130
12.306,-0.155,-0.140
12.308,-0.190,-0.135
12.311,-0.160,-0.100
12.314,-0.130,-0.080
12.317,-0.115,-0.060
12.319,-0.105,-0.080
12.322,-0.095,-0.075
12.325,-0.130,-0.075
12.328,-0.165,-0.055
12.331,-0.200,-0.035
12.333,-0.190,-0.025
12.336,-0.175,-0.030
12.339,-0.195,-0.050
12.342,-0.215,-0.045
12.344,-0.220,-0.030
12.347,-0.210,0.000
12.350,-0.205,0.005
12.353,-0.185,0.010
12.356,-0.225,0.005
12.358,-0.220,-0.005
12.361,-0.185,0.005
12.364,-0.155,0.010
12.367,-0.135,0.020
12.369,-0.165,0.025
12.372,-0.220,-0.005
12.375,-0.245,-0.005
12.378,-0.250,0.005
12.381,-0.240,0.020
12.383,-0.215,0.020
12.386,-0.230,0.025
12.389,-0.255,-0.005
12.392,-0.265,0.000
12.394,-0.265,0.010
12.397,-0.265,0.015
12.400,-0.250,0.035
12.403,-0.230,0.030
12.406,-0.230,0.010
12.408,-0.250,0.010
12.411,-0.265,0.010
12.414,-0.250,0.010
12.417,-0.225,0.000
12.419,-0.210,-0.015
12.422,-0.245,-0.045
12.425,-0.260,-0.055
12.428,-0.245,-0.065
12.431,-0.215,-0.085
12.433,-0.180,-0.095
12.436,-0.170,-0.120
12.439,-0.170,-0.190
12.442,-0.185,-0.235
12.444,-0.180,-0.260
12.447,-0.175,-0.270
12.450,-0.180,-0.255
12.453,-0.205,-0.255
12.456,-0.215,-0.260
12.458,-0.200,-0.270
12.461,-0.185,-0.260
12.464,-0.190,-0.235
12.467,-0.200,-0.215
12.469,-0.190,-0.220
12.472,-0.175,-0.210
12.475,-0.185,-0.220
12.478,-0.200,-0.200
12.481,-0.195,-0.165
12.483,-0.165,-0.150
12.486,-0.160,-0.135
12.489,-0.170,-0.150
12.492,-0.200,-0.155
12.494,-0.230,-0.130
12.497,-0.220,-0.090
12.500,-0.210,-0.080
12.503,-0.210,-0.070
12.506,-0.220,-0.085
12.508,-0.235,-0.095
12.511,-0.245,-0.080
12.514,-0.240,-0.055
12.517,-0.210,-0.035
12.519,-0.180,-0.040
12.522,-0.195,-0.045
12.525,-0.205,-0.055
12.528,-0.175,-0.040
12.531,-0.095,-0.025
12.533,-0.010,-0.025
12.536,0.050,-0.050
12.539,0.090,-0.075
12.542,0.115,-0.110
12.544,0.130,-0.140
12.547,0.170,-0.155
12.550,0.215,-0.210
12.553,0.245,-0.300
12.556,0.265,-0.385
12.558,0.295,-0.490
12.561,0.315,-0.580
12.564,0.380,-0.675
12.567,0.435,-0.765
12.569,0.435,-0.875
12.572,0.440,-0.975
12.575,0.480,-1.025
12.578,0.490,-1.050
12.581,0.430,-1.065
12.583,0.335,-1.050
12.586,0.200,-1.045
12.589,-0.020,-1.040
12.592,-0.240,-1.000
12.594,-0.430,-0.955
12.597,-0.550,-0.895
12.600,-0.625,-0.845
12.603,-0.760,-0.815
12.606,-0.965,-0.815
12.608,-1.100,-0.800
12.611,-1.115,-0.760
12.614,-1.035,-0.720
12.617,-0.975,-0.680
12.619,-0.940,-0.650
12.622,-0.880,-0.645
12.625,-0.810,-0.610
12.628,-0.745,-0.570
12.631,-0.695,-0.510
12.633,-0.640,-0.460
12.636,-0.585,-0.415
12.639,-0.530,-0.385
12.642,-0.475,-0.375
12.644,-0.390,-0.315
12.647,-0.305,-0.275
12.650,-0.285,-0.230
12.653,-0.295,-0.205
12.656,-0.365,-0.190
12.658,-0.405,-0.150
12.661,-0.445,-0.080
12.664,-0.445,-0.030
12.667,-0.435,0.015
12.669,-0.450,0.055
12.672,-0.460,0.070
12.675,-0.485,0.100
12.678,-0.500,0.140
12.681,-0.485,0.195
12.683,-0.475,0.240
12.686,-0.470,0.240
12.689,-0.500,0.240
12.692,-0.530,0.260
12.694,-0.510,0.260
12.697,-0.500,0.280
12.700,-0.530,0.305
12.703,-0.560,0.300
12.706,-0.595,0.300
12.708,-0.600,0.310
12.711,-0.580,0.325
12.714,-0.555,0.330
12.717,-0.530,0.350
12.719,-0.495,0.345
12.722,-0.520,0.330
12.725,-0.610,0.310
12.728,-0.745,0.320
12.731,-0.790,0.345
12.733,-0.725,0.360
12.736,-0.695,0.350
12.739,-0.750,0.320
12.742,-0.815,0.315
12.744,-0.790,0.335
12.747,-0.675,0.345
12.750,-0.605,0.355
12.753,-0.625,0.340
12.756,-0.645,0.295
12.758,-0.660,0.265
12.761,-0.635,0.245
12.764,-0.645,0.250
12.767,-0.685,0.265
12.769,-0.665,0.260
12.772,-0.640,0.235
12.775,-0.645,0.245
12.778,-0.660,0.260
12.781,-0.610,0.270
12.783,-0.545,0.285
12.786,-0.510,0.290
12.789,-0.525,0.295
12.792,-0.560,0.295
12.794,-0.565,0.285
12.797,-0.540,0.300
12.800,-0.525,0.305
12.803,-0.475,0.305
12.806,-0.435,0.295
12.808,-0.400,0.280
12.811,-0.370,0.290
12.814,-0.335,0.300
12.817,-0.285,0.305
12.819,-0.240,0.285
12.822,-0.225,0.255
12.825,-0.230,0.225
12.828,-0.220,0.235
12.831,-0.190,0.230
12.833,-0.165,0.230
12.836,-0.120,0.210
12.839,-0.085,0.180
12.842,-0.090,0.160
12.844,-0.095,0.165
12.847,-0.085,0.180
12.850,-0.065,0.180
12.853,-0.060,0.140
12.856,-0.080,0.105
12.858,-0.055,0.090
12.861,-0.025,0.110
12.864,-0.020,0.120
12.867,-0.045,0.120
12.869,-0.085,0.105
12.872,-0.135,0.065
12.875,-0.190,0.035
12.878,-0.200,0.040
12.881,-0.180,0.040
12.883,-0.155,0.040
12.886,-0.165,0.040
12.889,-0.175,0.005
12.892,-0.165,0.000
12.894,-0.150,0.000
12.897,-0.155,0.010
12.900,-0.160,0.035
12.903,-0.185,0.030
12.906,-0.220,0.005
12.908,-0.250,0.000
12.911,-0.260,-0.015
12.914,-0.235,-0.005
12.917,-0.225,-0.005
12.919,-0.255,-0.025
12.922,-0.310,-0.050
12.925,-0.350,-0.065
12.928,-0.335,-0.090
12.931,-0.280,-0.100
12.933,-0.240,-0.115
12.936,-0.260,-0.125
12.939,-0.290,-0.140
12.942,-0.335,-0.150
12.944,-0.345,-0.140
12.947,-0.330,-0.125
12.950,-0.315,-0.080
12.953,-0.295,-0.095
12.956,-0.275,-0.105
12.958,-0.285,-0.100
12.961,-0.320,-0.080
12.964,-0.295,-0.090
12.967,-0.265,-0.060
12.969,-0.290,-0.065
12.972,-0.330,-0.050
12.975,-0.360,-0.040
12.978,-0.350,-0.035
12.981,-0.325,-0.020
12.983,-0.335,-0.025
12.986,-0.360,-0.025
12.989,-0.350,-0.025
12.992,-0.300,-0.020
12.994,-0.280,-0.030
12.997,-0.285,-0.025
13.000,-0.315,-0.005
13.003,-0.355,-0.015
13.006,-0.350,-0.015
13.008,-0.325,-0.040
13.011,-0.315,-0.040
13.014,-0.315,-0.025
13.017,-0.315,-0.035
13.019,-0.290,-0.035
13.022,-0.305,-0.065
13.025,-0.300,-0.075
13.028,-0.295,-0.065
13.031,-0.265,-0.055
13.033,-0.230,-0.050
13.036,-0.175,-0.065
13.039,-0.115,-0.075
13.042,-0.040,-0.075
13.044,-0.010,-0.045
13.047,-0.045,0.010
13.050,-0.125,0.075
13.053,-0.225,0.140
13.056,-0.360,0.190
13.058,-0.480,0.250
13.061,-0.540,0.305
13.064,-0.555,0.315
13.067,-0.525,0.290
13.069,-0.505,0.210
13.072,-0.530,0.105
13.075,-0.540,-0.035
13.078,-0.530,-0.185
13.081,-0.580,-0.330
13.083,-0.595,-0.430
13.086,-0.525,-0.535
13.089,-0.370,-0.590
13.092,-0.220,-0.655
13.094,-0.065,-0.690
13.097,0.090,-0.710
13.100,0.240,-0.715
13.103,0.385,-0.725
13.106,0.510,-0.745
13.108,0.585,-0.775
13.111,0.655,-0.765
13.114,0.680,-0.770
13.117,0.690,-0.755
13.119,0.675,-0.755
13.122,0.650,-0.750
13.125,0.595,-0.750
13.128,0.535,-0.690
13.131,0.440,-0.650
13.133,0.300,-0.585
13.136,0.130,-0.530
13.139,-0.050,-0.480
13.142,-0.210,-0.435
13.144,-0.340,-0.380
13.147,-0.430,-0.305
13.150,-0.410,-0.250
13.153,-0.405,-0.200
13.156,-0.435,-0.195
13.158,-0.470,-0.190
13.161,-0.480,-0.150
13.164,-0.480,-0.115
13.167,-0.485,-0.085
13.169,-0.505,-0.095
13.172,-0.525,-0.100
13.175,-0.510,-0.085
13.178,-0.510,-0.070
13.181,-0.485,-0.060
13.183,-0.490,-0.040
13.186,-0.480,-0.045
13.189,-0.495,-0.065
13.192,-0.510,-0.055
13.194,-0.520,-0.060
13.197,-0.510,-0.040
13.200,-0.465,-0.035
13.203,-0.455,-0.035
13.206,-0.440,-0.055
13.208,-0.440,-0.045
13.211,-0.435,-0.035
13.214,-0.420,-0.025
13.217,-0.400,-0.005
13.219,-0.375,-0.010
13.222,-0.340,-0.035
13.225,-0.320,-0.045
13.228,-0.285,-0.060
13.231,-0.220,-0.050
13.233,-0.170,-0.060
13.236,-0.145,-0.080
13.239,-0.150,-0.120
13.242,-0.155,-0.120
13.244,-0.130,-0.125
13.247,-0.085,-0.095
13.250,-0.065,-0.085
13.253,-0.080,-0.090
13.256,-0.055,-0.095
13.258,-0.015,-0.110
13.261,0.025,-0.090
13.264,0.055,-0.070
13.267,0.085,-0.075
13.269,0.100,-0.070
13.272,0.110,-0.070
13.275,0.105,-0.060
13.278,0.120,-0.060
13.281,0.140,-0.030
13.283,0.160,-0.010
13.286,0.140,-0.010
13.289,0.120,-0.010
13.292,0.090,-0.020
13.294,0.085,-0.005
13.297,0.075,0.020
13.300,0.075,0.040
13.303,0.040,0.040
13.306,0.015,0.040
13.308,0.005,0.015
13.311,-0.020,0.030
13.314,-0.035,0.045
13.317,-0.050,0.065
13.319,-0.080,0.050
13.322,-0.100,0.040
13.325,-0.120,0.035
13.328,-0.165,0.035
13.331,-0.170,0.045
13.333,-0.175,0.060
13.336,-0.175,0.055
13.339,-0.210,0.040
13.342,-0.245,0.015
13.344,-0.260,0.015
13.347,-0.255,0.025
13.350,-0.260,0.030
13.353,-0.275,0.025
13.356,-0.300,0.010
13.358,-0.295,-0.020
13.361,-0.295,-0.015
13.364,-0.275,0.005
13.367,-0.275,0.015
13.369,-0.275,-0.010
13.372,-0.270,-0.025
13.375,-0.260,-0.035
13.378,-0.260,-0.030
13.381,-0.250,-0.020
13.383,-0.240,-0.030
13.386,-0.230,-0.040
13.389,-0.235,-0.075
13.392,-0.240,-0.090
13.394,-0.255,-0.115
13.397,-0.240,-0.105
13.400,-0.205,-0.100
13.403,-0.195,-0.125
13.406,-0.225,-0.145
13.408,-0.235,-0.165
13.411,-0.240,-0.160
13.414,-0.220,-0.150
13.417,-0.205,-0.145
13.419,-0.215,-0.140
13.422,-0.230,-0.140
13.425,-0.235,-0.165
13.428,-0.230,-0.150
13.431,-0.225,-0.130
13.433,-0.230,-0.110
13.436,-0.230,-0.105
13.439,-0.215,-0.100
13.442,-0.185,-0.105
13.444,-0.155,-0.085
13.447,-0.140,-0.065
13.450,-0.135,-0.020
13.453,-0.115,-0.020
13.456,-0.105,-0.040
13.458,-0.085,-0.045
13.461,-0.075,-0.025
13.464,-0.050,-0.005
13.467,0.000,-0.005
13.469,0.135,-0.030
13.472,0.325,-0.085
13.475,0.525,-0.130
13.478,0.710,-0.170
13.481,0.805,-0.215
13.483,0.870,-0.285
13.486,0.965,-0.345
13.489,1.070,-0.390
13.492,1.110,-0.425
13.494,1.110,-0.455
13.497,1.125,-0.485
13.500,1.125,-0.495
13.503,1.080,-0.540
13.506,0.995,-0.560
13.508,0.870,-0.565
13.511,0.745,-0.545
13.514,0.580,-0.465
13.517,0.360,-0.430
13.519,0.120,-0.380
13.522,-0.075,-0.355
13.525,-0.285,-0.335
13.528,-0.410,-0.275
13.531,-0.485,-0.220
13.533,-0.465,-0.170
13.536,-0.465,-0.175
13.539,-0.530,-0.195
13.542,-0.580,-0.185
13.544,-0.590,-0.185
13.547,-0.565,-0.175
13.550,-0.570,-0.180
13.553,-0.600,-0.175
13.556,-0.610,-0.185
13.558,-0.615,-0.200
13.561,-0.630,-0.190
13.564,-0.630,-0.180
13.567,-0.630,-0.155
13.569,-0.600,-0.150
13.572,-0.600,-0.170
13.575,-0.620,-0.190
13.578,-0.645,-0.155
13.581,-0.630,-0.155
13.583,-0.605,-0.125
13.586,-0.590,-0.125
13.589,-0.600,-0.140
13.592,-0.600,-0.140
13.594,-0.590,-0.140
13.597,-0.560,-0.115
13.600,-0.550,-0.105
13.603,-0.535,-0.110
13.606,-0.555,-0.115
13.608,-0.565,-0.100
13.611,-0.565,-0.095
13.614,-0.545,-0.060
13.617,-0.515,-0.050
13.619,-0.500,-0.050
13.622,-0.520,-0.065
13.625,-0.525,-0.060
13.628,-0.510,-0.035
13.631,-0.490,-0.015
13.633,-0.455,0.015
13.636,-0.465,0.010
13.639,-0.460,-0.005
13.642,-0.460,-0.010
13.644,-0.470,0.010
13.647,-0.450,0.010
13.650,-0.445,0.015
13.653,-0.440,0.000
13.656,-0.420,-0.010
13.658,-0.405,-0.030
13.661,-0.400,-0.030
13.664,-0.330,-0.020
13.667,-0.270,-0.020
13.669,-0.240,-0.070
13.672,-0.250,-0.100
13.675,-0.270,-0.155
13.678,-0.255,-0.175
13.681,-0.220,-0.185
13.683,-0.210,-0.190
13.686,-0.190,-0.210
13.689,-0.140,-0.245
13.692,-0.095,-0.255
13.694,-0.075,-0.255
13.697,-0.125,-0.240
13.700,-0.220,-0.230
13.703,-0.265,-0.225
13.706,-0.290,-0.225
13.708,-0.280,-0.250
13.711,-0.280,-0.230
13.714,-0.275,-0.215
13.717,-0.265,-0.180
13.719,-0.260,-0.190
13.722,-0.305,-0.190
13.725,-0.330,-0.180
13.728,-0.325,-0.155
13.731,-0.300,-0.130
13.733,-0.270,-0.105
13.736,-0.275,-0.110
13.739,-0.280,-0.120
13.742,-0.285,-0.135
13.744,-0.330,-0.120
13.747,-0.330,-0.100
13.750,-0.340,-0.085
13.753,-0.355,-0.100
13.756,-0.385,-0.110
13.758,-0.380,-0.095
13.761,-0.365,-0.075
13.764,-0.325,-0.045
13.767,-0.300,-0.025
13.769,-0.295,-0.060
13.772,-0.290,-0.105
13.775,-0.300,-0.140
13.778,-0.320,-0.135
13.781,-0.395,-0.105
13.783,-0.445,-0.070
13.786,-0.455,-0.060
13.789,-0.470,-0.040
13.792,-0.490,-0.030
13.794,-0.510,-0.010
13.797,-0.475,0.035
13.800,-0.450,0.060
13.803,-0.410,0.055
13.806,-0.390,0.030
13.808,-0.360,-0.015
13.811,-0.280,-0.055
13.814,-0.195,-0.090
13.817,-0.160,-0.160
13.819,-0.185,-0.230
13.822,-0.265,-0.290
13.825,-0.355,-0.300
13.828,-0.360,-0.290
13.831,-0.360,-0.265
13.833,-0.370,-0.255
13.836,-0.415,-0.255
13.839,-0.510,-0.290
13.842,-0.605,-0.330
13.844,-0.675,-0.350
13.847,-0.685,-0.335
13.850,-0.675,-0.340
13.853,-0.635,-0.320
13.856,-0.640,-0.315
13.858,-0.680,-0.285
13.861,-0.710,-0.230
13.864,-0.690,-0.135
13.867,-0.625,-0.090
13.869,-0.560,-0.080
13.872,-0.555,-0.060
13.875,-0.570,-0.050
13.878,-0.565,-0.060
13.881,-0.545,-0.055
13.883,-0.530,-0.070
13.886,-0.525,-0.115
13.889,-0.540,-0.190
13.892,-0.555,-0.245
13.894,-0.515,-0.255
13.897,-0.465,-0.255
13.900,-0.435,-0.230
13.903,-0.440,-0.245
13.906,-0.480,-0.270
13.908,-0.475,-0.260
13.911,-0.480,-0.245
13.914,-0.480,-0.235
13.917,-0.485,-0.205
13.919,-0.495,-0.205
13.922,-0.485,-0.205
13.925,-0.500,-0.200
13.928,-0.505,-0.175
13.931,-0.520,-0.150
13.933,-0.510,-0.145
13.936,-0.500,-0.140
13.939,-0.520,-0.155
13.942,-0.540,-0.160
13.944,-0.565,-0.130
13.947,-0.565,-0.115
13.950,-0.550,-0.085
13.953,-0.535,-0.090
13.956,-0.545,-0.100
13.958,-0.570,-0.115
13.961,-0.580,-0.090
13.964,-0.580,-0.050
13.967,-0.575,-0.030
13.969,-0.610,-0.045
13.972,-0.610,-0.060
13.975,-0.615,-0.050
13.978,-0.625,-0.035
13.981,-0.625,-0.015
13.983,-0.625,-0.005
13.986,-0.630,-0.035
13.989,-0.645,-0.055
13.992,-0.665,-0.070
13.994,-0.675,-0.070
13.997,-0.650,-0.065
14.000,-0.645,-0.070
14.003,-0.615,-0.090
14.006,-0.625,-0.120
14.008,-0.635,-0.145
14.011,-0.635,-0.155
14.014,-0.630,-0.150
14.017,-0.630,-0.140
14.019,-0.630,-0.145
14.022,-0.655,-0.165
14.025,-0.660,-0.165
14.028,-0.665,-0.155
14.031,-0.660,-0.140
14.033,-0.620,-0.125
14.036,-0.580,-0.120
14.039,-0.565,-0.140
14.042,-0.590,-0.130
14.044,-0.625,-0.115
14.047,-0.645,-0.090
14.050,-0.665,-0.075
14.053,-0.685,-0.070
14.056,-0.710,-0.075
14.058,-0.715,-0.090
14.061,-0.675,-0.055
14.064,-0.620,-0.035
14.067,-0.560,0.020
14.069,-0.535,-0.005
14.072,-0.545,-0.015
14.075,-0.585,0.005
14.078,-0.535,0.005
14.081,-0.430,0.010
14.083,-0.300,0.020
14.086,-0.245,-0.010
14.089,-0.200,-0.045
14.092,-0.135,-0.080
14.094,0.010,-0.135
14.097,0.235,-0.175
14.100,0.490,-0.220
14.103,0.690,-0.295
14.106,0.795,-0.380
14.108,0.830,-0.465
14.111,0.850,-0.495
14.114,0.910,-0.475
14.117,0.955,-0.475
14.119,0.960,-0.480
14.122,0.930,-0.505
14.125,0.835,-0.550
14.128,0.730,-0.560
14.131,0.610,-0.530
14.133,0.485,-0.500
14.136,0.255,-0.465
14.139,-0.035,-0.425
14.142,-0.305,-0.395
14.144,-0.535,-0.330
14.147,-0.715,-0.265
14.150,-0.825,-0.210
14.153,-0.855,-0.175
14.156,-0.880,-0.160
14.158,-0.920,-0.165
14.161,-0.980,-0.125
14.164,-1.000,-0.090
14.167,-1.000,-0.085
14.169,-0.995,-0.060
14.172,-1.015,-0.085
14.175,-1.040,-0.080
14.178,-1.055,-0.045
14.181,-1.075,-0.030
14.183,-1.070,0.010
14.186,-1.090,0.000
14.189,-1.105,-0.010
14.192,-1.150,0.000
14.194,-1.180,0.015
14.197,-1.170,0.035
14.200,-1.155,0.050
14.203,-1.130,0.055
14.206,-1.155,0.050
14.208,-1.155,0.050
14.211,-1.170,0.075
14.214,-1.160,0.095
14.217,-1.155,0.115
14.219,-1.140,0.110
14.222,-1.155,0.105
14.225,-1.160,0.110
14.228,-1.160,0.120
14.231,-1.160,0.150
14.233,-1.135,0.155
14.236,-1.135,0.150
14.239,-1.175,0.150
14.242,-1.175,0.160
14.244,-1.145,0.165
14.247,-1.120,0.175
14.250,-1.120,0.185
14.253,-1.125,0.190
14.256,-1.155,0.175
14.258,-1.150,0.195
14.261,-1.145,0.205
14.264,-1.125,0.235
14.267,-1.105,0.250
14.269,-1.100,0.260
14.272,-1.090,0.260
14.275,-1.105,0.270
14.278,-1.115,0.290
14.281,-1.085,0.305
14.283,-1.070,0.290
14.286,-1.070,0.275
14.289,-1.050,0.230
14.292,-1.040,0.190
14.294,-1.030,0.195
14.297,-1.025,0.170
14.300,-1.005,0.135
14.303,-0.975,0.120
14.306,-0.985,0.070
14.308,-0.970,0.050
14.311,-0.940,0.050
14.314,-0.915,0.070
14.317,-0.920,0.070
14.319,-0.890,0.075
14.322,-0.865,0.065
14.325,-0.860,0.055
14.328,-0.855,0.055
14.331,-0.870,0.075
14.333,-0.895,0.100
14.336,-0.875,0.080
14.339,-0.870,0.080
14.342,-0.910,0.070
14.344,-0.910,0.085
14.347,-0.900,0.095
14.350,-0.885,0.115
14.353,-0.870,0.105
14.356,-0.870,0.100
14.358,-0.885,0.085
14.361,-0.905,0.085
14.364,-0.905,0.110
14.367,-0.895,0.130
14.369,-0.900,0.120
14.372,-0.930,0.110
14.375,-0.940,0.100
14.378,-0.935,0.115
14.381,-0.920,0.135
14.383,-0.875,0.150
14.386,-0.865,0.160
14.389,-0.885,0.135
14.392,-0.895,0.140
14.394,-0.900,0.145
14.397,-0.885,0.165
14.400,-0.870,0.190
14.403,-0.875,0.180
14.406,-0.885,0.165
14.408,-0.895,0.160
14.411,-0.910,0.175
14.414,-0.920,0.210
14.417,-0.925,0.205
14.419,-0.935,0.190
14.422,-0.940,0.180
14.425,-0.955,0.170
14.428,-0.920,0.195
14.431,-0.915,0.190
14.433,-0.865,0.205
14.436,-0.880,0.165
14.439,-0.910,0.155
14.442,-0.950,0.140
14.444,-0.970,0.125
14.447,-0.975,0.160
14.450,-0.980,0.135
14.453,-1.005,0.130
14.456,-1.005,0.105
14.458,-0.990,0.085
14.461,-0.970,0.080
14.464,-0.970,0.085
14.467,-0.975,0.080
14.469,-1.020,0.065
14.472,-1.030,0.050
14.475,-1.030,0.050
14.478,-1.020,0.050
14.481,-0.980,0.060
14.483,-0.960,0.040
14.486,-0.980,0.050
14.489,-1.020,0.040
14.492,-1.045,0.035
14.494,-1.025,0.040
14.497,-1.015,0.085
14.500,-1.005,0.075
14.503,-1.000,0.070
14.506,-0.995,0.060
14.508,-0.990,0.050
14.511,-0.995,0.060
14.514,-1.005,0.075
14.517,-0.990,0.100
14.519,-0.995,0.095
14.522,-1.005,0.095
14.525,-1.030,0.095
14.528,-1.000,0.125
14.531,-0.940,0.175
14.533,-0.885,0.205
14.536,-0.890,0.230
14.539,-0.870,0.210
14.542,-0.805,0.220
14.544,-0.775,0.225
14.547,-0.700,0.230
14.550,-0.555,0.220
14.553,-0.335,0.155
14.556,-0.080,0.070
14.558,0.215,-0.030
14.561,0.505,-0.140
14.564,0.695,-0.245
14.567,0.770,-0.330
14.569,0.815,-0.385
14.572,0.895,-0.440
14.575,0.920,-0.500
14.578,0.885,-0.525
14.581,0.855,-0.540
14.583,0.760,-0.540
14.586,0.630,-0.560
14.589,0.410,-0.540
14.592,0.135,-0.525
14.594,-0.130,-0.470
14.597,-0.390,-0.385
14.600,-0.645,-0.320
14.603,-0.915,-0.260
14.606,-1.140,-0.210
14.608,-1.255,-0.135
14.611,-1.275,-0.065
14.614,-1.280,-0.015
14.617,-1.290,0.020
14.619,-1.295,0.035
14.622,-1.335,0.030
14.625,-1.370,0.035
14.628,-1.365,0.060
14.631,-1.355,0.065
14.633,-1.330,0.090
14.636,-1.345,0.085
14.639,-1.355,0.065
14.642,-1.375,0.090
14.644,-1.405,0.090
14.647,-1.405,0.120
14.650,-1.380,0.135
14.653,-1.370,0.125
14.656,-1.395,0.120
14.658,-1.435,0.120
14.661,-1.420,0.150
14.664,-1.390,0.160
14.667,-1.355,0.190
14.669,-1.355,0.190
14.672,-1.370,0.185
14.675,-1.380,0.170
14.678,-1.380,0.210
14.681,-1.355,0.235
14.683,-1.355,0.250
14.686,-1.345,0.235
14.689,-1.370,0.225
14.692,-1.375,0.210
14.694,-1.370,0.230
14.697,-1.345,0.240
14.700,-1.305,0.275
14.703,-1.295,0.265
14.706,-1.300,0.250
14.708,-1.285,0.255
14.711,-1.280,0.245
14.714,-1.245,0.255
14.717,-1.240,0.245
14.719,-1.215,0.210
14.722,-1.205,0.180
14.725,-1.230,0.135
14.728,-1.230,0.120
14.731,-1.195,0.100
14.733,-1.170,0.095
14.736,-1.145,0.035
14.739,-1.135,0.000
14.742,-1.140,-0.025
14.744,-1.120,-0.030
14.747,-1.110,-0.020
14.750,-1.110,-0.040
14.753,-1.100,-0.020
14.756,-1.065,-0.050
14.758,-1.010,-0.055
14.761,-0.975,-0.055
14.764,-0.950,-0.030
14.767,-0.950,-0.005
14.769,-0.955,0.000
14.772,-0.980,0.010
14.775,-1.000,0.005
14.778,-1.000,0.035
14.781,-0.985,0.065
14.783,-0.975,0.080
14.786,-0.975,0.090
14.789,-0.985,0.080
14.792,-1.000,0.095
14.794,-1.015,0.130
14.797,-1.055,0.140
14.800,-1.030,0.155
14.803,-1.020,0.150
14.806,-1.025,0.150
14.808,-1.045,0.145
14.811,-1.050,0.170
14.814,-1.075,0.190
14.817,-1.075,0.210
14.819,-1.085,0.185
14.822,-1.080,0.190
14.825,-1.080,0.185
14.828,-1.085,0.200
14.831,-1.080,0.235
14.833,-1.070,0.230
14.836,-1.045,0.240
14.839,-1.065,0.220
14.842,-1.070,0.205
14.844,-1.070,0.210
14.847,-1.055,0.215
14.850,-1.055,0.215
14.853,-1.045,0.200
14.856,-1.060,0.170
14.858,-1.060,0.155
14.861,-1.055,0.155
14.864,-1.035,0.160
14.867,-1.025,0.160
14.869,-1.060,0.120
14.872,-1.065,0.095
14.875,-1.075,0.075
14.878,-1.060,0.060
14.881,-1.030,0.050
14.883,-1.010,0.055
14.886,-1.010,0.030
14.889,-0.995,0.000
14.892,-1.010,-0.010
14.894,-1.020,0.000
14.897,-1.030,0.005
14.900,-1.025,0.030
14.903,-1.035,0.020
14.906,-1.075,0.010
14.908,-1.105,0.015
14.911,-1.090,0.025
14.914,-1.055,0.060
14.917,-1.045,0.060
14.919,-1.070,0.050
14.922,-1.100,0.040
14.925,-1.110,0.035
14.928,-1.085,0.040
14.931,-1.065,0.075
14.933,-1.050,0.085
14.936,-1.065,0.075
14.939,-1.070,0.085
14.942,-1.085,0.085
14.944,-1.085,0.075
14.947,-1.070,0.120
14.950,-1.055,0.130
14.953,-1.050,0.120
14.956,-1.045,0.110
14.958,-1.055,0.105
14.961,-1.040,0.135
14.964,-1.010,0.155
14.967,-0.990,0.190
14.969,-0.995,0.190
14.972,-0.995,0.180
14.975,-1.005,0.175
14.978,-1.015,0.200
14.981,-0.995,0.210
14.983,-0.980,0.220
14.986,-0.950,0.200
14.989,-0.935,0.195
14.992,-0.945,0.185
14.994,-0.945,0.175
14.997,-0.935,0.190
15.000,-0.905,0.200
15.003,-0.895,0.170
15.006,-0.895,0.160
15.008,-0.915,0.145
15.011,-0.915,0.145
15.014,-0.890,0.165
15.017,-0.890,0.150
15.019,-0.865,0.115
15.022,-0.870,0.080
15.025,-0.880,0.060
15.028,-0.880,0.060
15.031,-0.855,0.050
15.033,-0.830,0.050
15.036,-0.810,0.040
15.039,-0.845,0.010
15.042,-0.845,0.000
15.044,-0.800,0.015
15.047,-0.735,0.035
15.050,-0.680,0.055
15.053,-0.665,0.035
15.056,-0.630,0.025
15.058,-0.560,-0.005
15.061,-0.460,-0.005
15.064,-0.355,0.025
15.067,-0.240,-0.005
15.069,-0.105,-0.055
15.072,0.090,-0.120
15.075,0.325,-0.185
15.078,0.575,-0.230
15.081,0.835,-0.280
15.083,1.005,-0.335
15.086,1.080,-0.420
15.089,1.075,-0.460
15.092,1.085,-0.465
15.094,1.105,-0.455
15.097,1.095,-0.450
15.100,1.070,-0.485
15.103,0.990,-0.515
15.106,0.835,-0.530
15.108,0.670,-0.525
15.111,0.465,-0.490
15.114,0.210,-0.420
15.117,-0.055,-0.360
15.119,-0.345,-0.300
15.122,-0.590,-0.240
15.125,-0.805,-0.190
15.128,-0.935,-0.115
15.131,-0.950,-0.060
15.133,-0.920,-0.015
15.136,-0.930,-0.015
15.139,-0.965,-0.015
15.142,-1.005,-0.015
15.144,-1.015,0.010
15.147,-1.035,0.025
15.150,-1.035,0.045
15.153,-1.035,0.035
15.156,-1.055,0.055
15.158,-1.055,0.035
15.161,-1.040,0.050
15.164,-1.030,0.080
15.167,-1.030,0.110
15.169,-1.045,0.095
15.172,-1.045,0.085
15.175,-1.050,0.085
15.178,-1.040,0.095
15.181,-1.055,0.100
15.183,-1.045,0.100
15.186,-1.030,0.085
15.189,-1.030,0.075
15.192,-1.040,0.060
15.194,-1.040,0.080
15.197,-1.025,0.080
15.200,-0.995,0.100
15.203,-0.990,0.085
15.206,-1.015,0.075
15.208,-1.025,0.085
15.211,-1.015,0.085
15.214,-0.995,0.105
15.217,-0.985,0.120
15.219,-0.975,0.120
15.222,-0.995,0.095
15.225,-1.010,0.115
15.228,-1.015,0.120
15.231,-1.015,0.130
15.233,-0.990,0.125
15.236,-0.985,0.130
15.239,-0.995,0.130
15.242,-0.990,0.110
15.244,-1.010,0.140
15.247,-0.980,0.155
15.250,-0.965,0.175
15.253,-0.955,0.175
15.256,-0.950,0.160
15.258,-0.940,0.150
15.261,-0.915,0.155
15.264,-0.880,0.180
15.267,-0.830,0.175
15.269,-0.805,0.160
15.272,-0.800,0.130
15.275,-0.795,0.115
15.278,-0.770,0.115
15.281,-0.740,0.110
15.283,-0.715,0.125
15.286,-0.695,0.095
15.289,-0.680,0.080
15.292,-0.650,0.085
15.294,-0.635,0.095
15.297,-0.620,0.115
15.300,-0.585,0.110
15.303,-0.595,0.100
15.306,-0.595,0.085
15.308,-0.615,0.080
15.311,-0.600,0.070
15.314,-0.580,0.075
15.317,-0.545,0.075
15.319,-0.545,0.040
15.322,-0.570,0.025
15.325,-0.575,0.000
15.328,-0.575,-0.005
15.331,-0.560,-0.010
15.333,-0.560,0.015
15.336,-0.550,-0.005
15.339,-0.545,-0.025
15.342,-0.550,-0.025
15.344,-0.550,-0.015
15.347,-0.555,-0.005
15.350,-0.520,0.010
15.353,-0.530,0.000
15.356,-0.555,-0.025
15.358,-0.555,-0.015
15.361,-0.550,-0.010
15.364,-0.530,-0.005
15.367,-0.510,0.000
15.369,-0.515,0.005
15.372,-0.515,-0.005
15.375,-0.535,-0.010
15.378,-0.540,-0.005
15.381,-0.535,0.005
15.383,-0.505,0.035
15.386,-0.485,0.030
15.389,-0.490,0.010
15.392,-0.525,0.025
15.394,-0.560,0.025
15.397,-0.560,0.045
15.400,-0.545,0.065
15.403,-0.555,0.055
15.406,-0.590,0.035
15.408,-0.565,0.050
15.411,-0.550,0.025
15.414,-0.510,0.040
15.417,-0.500,0.045
15.419,-0.520,0.030
15.422,-0.525,0.010
15.425,-0.530,-0.010
15.428,-0.525,0.010
15.431,-0.520,0.010
15.433,-0.515,0.000
15.436,-0.510,-0.025
15.439,-0.495,-0.050
15.442,-0.510,-0.075
15.444,-0.505,-0.075
15.447,-0.495,-0.065
15.450,-0.455,-0.050
15.453,-0.450,-0.075
15.456,-0.465,-0.085
15.458,-0.460,-0.090
15.461,-0.445,-0.085
15.464,-0.445,-0.075
15.467,-0.450,-0.085
15.469,-0.460,-0.100
15.472,-0.455,-0.105
15.475,-0.430,-0.120
15.478,-0.420,-0.120
15.481,-0.420,-0.080
15.483,-0.400,-0.070
15.486,-0.385,-0.090
15.489,-0.365,-0.090
15.492,-0.365,-0.110
15.494,-0.350,-0.095
15.497,-0.350,-0.070
15.500,-0.355,-0.060
15.503,-0.340,-0.070
15.506,-0.345,-0.075
15.508,-0.345,-0.065
15.511,-0.350,-0.060
15.514,-0.335,-0.040
15.517,-0.325,-0.010
15.519,-0.320,-0.015
15.522,-0.345,-0.010
15.525,-0.385,-0.010
15.528,-0.410,0.010
15.531,-0.405,0.010
15.533,-0.380,0.040
15.536,-0.350,0.040
15.539,-0.355,0.040
15.542,-0.360,0.035
15.544,-0.380,0.040
15.547,-0.395,0.065
15.550,-0.380,0.060
15.553,-0.370,0.065
15.556,-0.390,0.040
15.558,-0.410,0.030
15.561,-0.415,0.030
15.564,-0.385,0.040
15.567,-0.360,0.040
15.569,-0.395,0.015
15.572,-0.410,0.005
15.575,-0.385,-0.010
15.578,-0.355,-0.015
15.581,-0.335,-0.010
15.583,-0.335,-0.005
15.586,-0.345,-0.030
15.589,-0.370,-0.035
15.592,-0.365,-0.065
15.594,-0.350,-0.065
15.597,-0.315,-0.060
15.600,-0.295,-0.060
15.603,-0.310,-0.090
15.606,-0.330,-0.090
15.608,-0.320,-0.110
15.611,-0.295,-0.090
15.614,-0.290,-0.080
15.617,-0.285,-0.080
15.619,-0.290,-0.115
15.622,-0.285,-0.110
15.625,-0.295,-0.105
15.628,-0.260,-0.095
15.631,-0.215,-0.085
15.633,-0.190,-0.070
15.636,-0.210,-0.075
15.639,-0.245,-0.085
15.642,-0.250,-0.085
15.644,-0.215,-0.045
15.647,-0.170,-0.025
15.650,-0.100,-0.005
15.653,-0.065,0.015
15.656,-0.015,0.000
15.658,0.080,0.005
15.661,0.210,0.015
15.664,0.345,0.030
15.667,0.460,0.015
15.669,0.590,-0.025
15.672,0.765,-0.090
15.675,1.000,-0.135
15.678,1.260,-0.205
15.681,1.480,-0.285
15.683,1.625,-0.350
15.686,1.665,-0.425
15.689,1.665,-0.480
15.692,1.690,-0.485
15.694,1.700,-0.525
15.697,1.675,-0.555
15.700,1.610,-0.605
15.703,1.445,-0.655
15.706,1.270,-0.680
15.708,1.090,-0.675
15.711,0.865,-0.630
15.714,0.630,-0.555
15.717,0.380,-0.475
15.719,0.125,-0.425
15.722,-0.130,-0.375
15.725,-0.325,-0.320
15.728,-0.370,-0.250
15.731,-0.365,-0.200
15.733,-0.355,-0.170
15.736,-0.375,-0.150
15.739,-0.405,-0.145
15.742,-0.430,-0.145
15.744,-0.465,-0.145
15.747,-0.490,-0.115
15.750,-0.460,-0.095
15.753,-0.440,-0.110
15.756,-0.465,-0.125
15.758,-0.480,-0.115
15.761,-0.505,-0.085
15.764,-0.485,-0.045
15.767,-0.485,-0.050
15.769,-0.505,-0.035
15.772,-0.520,-0.045
15.775,-0.520,-0.055
15.778,-0.495,-0.035
15.781,-0.480,-0.035
15.783,-0.475,-0.015
15.786,-0.460,-0.035
15.789,-0.465,-0.055
15.792,-0.470,-0.060
15.794,-0.480,-0.055
15.797,-0.465,-0.040
15.800,-0.440,-0.035
15.803,-0.450,-0.040
15.806,-0.415,-0.055
15.808,-0.425,-0.075
15.811,-0.395,-0.075
15.814,-0.385,-0.070
15.817,-0.395,-0.070
15.819,-0.360,-0.090
15.822,-0.360,-0.115
15.825,-0.350,-0.130
15.828,-0.360,-0.110
15.831,-0.320,-0.095
15.833,-0.285,-0.095
15.836,-0.285,-0.095
15.839,-0.290,-0.135
15.842,-0.310,-0.145
15.844,-0.300,-0.140
15.847,-0.270,-0.115
15.850,-0.250,-0.125
15.853,-0.255,-0.135
15.856,-0.245,-0.145
15.858,-0.250,-0.130
15.861,-0.225,-0.110
15.864,-0.200,-0.095
15.867,-0.170,-0.100
15.869,-0.150,-0.105
15.872,-0.120,-0.120
15.875,-0.115,-0.100
15.878,-0.105,-0.100
15.881,-0.065,-0.085
15.883,-0.020,-0.075
15.886,-0.020,-0.115
15.889,-0.015,-0.120
15.892,-0.005,-0.125
15.894,0.035,-0.100
15.897,0.055,-0.090
15.900,0.055,-0.075
15.903,0.050,-0.080
15.906,0.075,-0.080
15.908,0.090,-0.085
15.911,0.095,-0.070
15.914,0.115,-0.050
15.917,0.115,-0.040
15.919,0.085,-0.045
15.922,0.065,-0.065
15.925,0.030,-0.040
15.928,0.030,-0.030
15.931,0.055,0.000
15.933,0.055,0.005
15.936,0.070,-0.015
15.939,0.045,-0.025
15.942,0.030,-0.025
15.944,0.015,-0.010
15.947,0.035,-0.005
15.950,0.040,0.005
15.953,0.040,0.000
15.956,0.030,-0.015
15.958,0.005,-0.030
15.961,0.005,-0.025
15.964,0.005,-0.030
15.967,0.035,-0.025
15.969,0.060,-0.060
15.972,0.075,-0.105
15.975,0.030,-0.125
15.978,0.030,-0.140
15.981,0.030,-0.140
15.983,0.060,-0.175
15.986,0.050,-0.200
15.989,0.035,-0.235
15.992,0.055,-0.250
15.994,0.095,-0.245
15.997,0.105,-0.230
16.000,0.120,-0.205
16.003,0.105,-0.225
16.006,0.120,-0.225
16.008,0.135,-0.230
16.011,0.110,-0.215
16.014,0.110,-0.195
16.017,0.110,-0.190
16.019,0.110,-0.180
16.022,0.100,-0.200
16.025,0.080,-0.200
16.028,0.095,-0.180
16.031,0.130,-0.165
16.033,0.160,-0.150
16.036,0.155,-0.155
16.039,0.150,-0.170
16.042,0.200,-0.145
16.044,0.280,-0.110
16.047,0.330,-0.080
16.050,0.330,-0.050
16.053,0.305,-0.020
16.056,0.335,-0.010
16.058,0.340,0.005
16.061,0.370,0.035
16.064,0.425,0.045
16.067,0.515,0.030
16.069,0.670,-0.010
16.072,0.855,-0.070
16.075,1.080,-0.130
16.078,1.290,-0.200
16.081,1.485,-0.255
16.083,1.545,-0.315
16.086,1.600,-0.360
16.089,1.675,-0.410
16.092,1.725,-0.445
16.094,1.715,-0.500
16.097,1.680,-0.565
16.100,1.640,-0.600
16.103,1.540,-0.640
16.106,1.390,-0.655
16.108,1.225,-0.645
16.111,1.080,-0.600
16.114,0.875,-0.510
16.117,0.655,-0.465
16.119,0.425,-0.425
16.122,0.220,-0.400
16.125,0.095,-0.355
16.128,0.010,-0.285
16.131,-0.010,-0.255
16.133,-0.020,-0.215
16.136,-0.075,-0.215
16.139,-0.105,-0.210
16.142,-0.145,-0.205
16.144,-0.160,-0.200
16.147,-0.145,-0.170
16.150,-0.155,-0.185
16.153,-0.185,-0.205
16.156,-0.220,-0.245
16.158,-0.235,-0.255
16.161,-0.215,-0.240
16.164,-0.205,-0.240
16.167,-0.185,-0.235
16.169,-0.195,-0.235
16.172,-0.230,-0.255
16.175,-0.230,-0.240
16.178,-0.255,-0.225
16.181,-0.235,-0.185
16.183,-0.225,-0.160
16.186,-0.230,-0.160
16.189,-0.245,-0.165
16.192,-0.230,-0.150
16.194,-0.200,-0.125
16.197,-0.195,-0.100
16.200,-0.185,-0.075
16.203,-0.185,-0.085
16.206,-0.170,-0.085
16.208,-0.185,-0.095
16.211,-0.190,-0.070
16.214,-0.170,-0.040
16.217,-0.140,-0.030
16.219,-0.120,-0.040
16.222,-0.125,-0.045
16.225,-0.125,-0.045
16.228,-0.120,-0.025
16.231,-0.110,-0.005
16.233,-0.085,-0.010
16.236,-0.070,-0.015
16.239,-0.045,-0.040
16.242,-0.020,-0.045
16.244,-0.015,-0.040
16.247,0.015,-0.045
16.250,0.050,-0.055
16.253,0.080,-0.085
16.256,0.065,-0.130
16.258,0.075,-0.150
16.261,0.120,-0.150
16.264,0.170,-0.135
16.267,0.200,-0.130
16.269,0.200,-0.135
16.272,0.200,-0.140
16.275,0.205,-0.155
16.278,0.235,-0.135
16.281,0.250,-0.115
16.283,0.280,-0.115
16.286,0.290,-0.110
16.289,0.280,-0.120
16.292,0.295,-0.140
16.294,0.300,-0.150
16.297,0.310,-0.135
16.300,0.270,-0.135
16.303,0.245,-0.155
16.306,0.235,-0.165
16.308,0.225,-0.180
16.311,0.205,-0.155
16.314,0.185,-0.130
16.317,0.200,-0.110
16.319,0.180,-0.115
16.322,0.175,-0.130
16.325,0.160,-0.120
16.328,0.165,-0.110
16.331,0.180,-0.080
16.333,0.195,-0.075
16.336,0.195,-0.085
16.339,0.180,-0.095
16.342,0.180,-0.090
16.344,0.170,-0.075
16.347,0.175,-0.055
16.350,0.180,-0.070
16.353,0.180,-0.060
16.356,0.185,-0.070
16.358,0.185,-0.060
16.361,0.200,-0.045
16.364,0.235,-0.045
16.367,0.260,-0.040
16.369,0.250,-0.070
16.372,0.240,-0.080
16.375,0.215,-0.095
16.378,0.210,-0.085
16.381,0.215,-0.070
16.383,0.230,-0.080
16.386,0.205,-0.085
16.389,0.190,-0.105
16.392,0.170,-0.115
16.394,0.180,-0.120
16.397,0.185,-0.110
16.400,0.180,-0.100
16.403,0.165,-0.120
16.406,0.165,-0.140
16.408,0.150,-0.150
16.411,0.130,-0.145
16.414,0.140,-0.115
16.417,0.165,-0.110
16.419,0.175,-0.115
16.422,0.165,-0.125
16.425,0.135,-0.125
16.428,0.115,-0.125
16.431,0.135,-0.115
16.433,0.165,-0.095
16.436,0.170,-0.110
16.439,0.120,-0.125
16.442,0.080,-0.125
16.444,0.110,-0.110
16.447,0.175,-0.090
16.450,0.215,-0.085
16.453,0.200,-0.090
16.456,0.160,-0.110
16.458,0.125,-0.110
16.461,0.095,-0.095
16.464,0.100,-0.090
16.467,0.110,-0.100
16.469,0.125,-0.110
16.472,0.125,-0.130
16.475,0.110,-0.140
16.478,0.080,-0.130
16.481,0.100,-0.130
16.483,0.130,-0.115
16.486,0.160,-0.125
16.489,0.175,-0.150
16.492,0.155,-0.140
16.494,0.155,-0.135
16.497,0.150,-0.120
16.500,0.165,-0.105
16.503,0.165,-0.110
16.506,0.155,-0.125
16.508,0.140,-0.130
16.511,0.135,-0.115
16.514,0.140,-0.095
16.517,0.160,-0.090
16.519,0.155,-0.110
16.522,0.145,-0.145
16.525,0.130,-0.145
16.528,0.125,-0.135
16.531,0.155,-0.120
16.533,0.190,-0.110
16.536,0.195,-0.130
16.539,0.175,-0.140
16.542,0.145,-0.145
16.544,0.125,-0.130
16.547,0.120,-0.100
16.550,0.115,-0.100
16.553,0.130,-0.110
16.556,0.135,-0.090
16.558,0.125,-0.090
16.561,0.110,-0.045
16.564,0.130,-0.015
16.567,0.150,-0.010
16.569,0.150,-0.020
16.572,0.105,-0.040
16.575,0.095,-0.035
16.578,0.095,-0.045
16.581,0.095,-0.050
16.583,0.080,-0.040
16.586,0.085,-0.070
16.589,0.075,-0.080
16.592,0.075,-0.085
16.594,0.070,-0.090
16.597,0.080,-0.075
16.600,0.100,-0.070
16.603,0.080,-0.090
16.606,0.065,-0.090
16.608,0.055,-0.105
16.611,0.075,-0.085
16.614,0.095,-0.080
16.617,0.120,-0.070
16.619,0.105,-0.090
16.622,0.100,-0.080
16.625,0.095,-0.075
16.628,0.075,-0.065
16.631,0.100,-0.050
16.633,0.125,-0.060
16.636,0.115,-0.075
16.639,0.090,-0.080
16.642,0.080,-0.095
16.644,0.075,-0.075
16.647,0.085,-0.060
16.650,0.100,-0.070
16.653,0.085,-0.090
16.656,0.085,-0.110
16.658,0.100,-0.120
16.661,0.090,-0.130
16.664,0.115,-0.110
16.667,0.150,-0.110
16.669,0.160,-0.115
16.672,0.150,-0.155
16.675,0.120,-0.170
16.678,0.125,-0.155
16.681,0.130,-0.155
16.683,0.170,-0.175
16.686,0.190,-0.200
16.689,0.195,-0.210
16.692,0.190,-0.215
16.694,0.160,-0.205
16.697,0.165,-0.165
16.700,0.195,-0.150
16.703,0.185,-0.150
16.706,0.210,-0.145
16.708,0.270,-0.130
16.711,0.330,-0.090
16.714,0.385,-0.070
16.717,0.470,-0.055
16.719,0.565,-0.035
16.722,0.620,-0.010
16.725,0.675,0.010
16.728,0.745,0.025
16.731,0.910,0.010
16.733,1.145,-0.025
16.736,1.420,-0.090
16.739,1.640,-0.205
16.742,1.745,-0.295
16.744,1.770,-0.365
16.747,1.795,-0.395
16.750,1.830,-0.420
16.753,1.830,-0.470
16.756,1.785,-0.550
16.758,1.670,-0.630
16.761,1.510,-0.675
16.764,1.355,-0.660
16.767,1.225,-0.650
16.769,1.055,-0.625
16.772,0.805,-0.590
16.775,0.530,-0.520
16.778,0.305,-0.425
16.781,0.115,-0.330
16.783,-0.035,-0.275
16.786,-0.110,-0.225
16.789,-0.105,-0.205
16.792,-0.125,-0.200
16.794,-0.165,-0.190
16.797,-0.165,-0.175
16.800,-0.175,-0.165
16.803,-0.200,-0.165
16.806,-0.235,-0.185
16.808,-0.270,-0.200
16.811,-0.285,-0.170
16.814,-0.305,-0.150
16.817,-0.300,-0.130
16.819,-0.310,-0.155
16.822,-0.340,-0.175
16.825,-0.365,-0.185
16.828,-0.385,-0.180
16.831,-0.385,-0.160
16.833,-0.365,-0.175
16.836,-0.380,-0.175
16.839,-0.380,-0.180
16.842,-0.370,-0.160
16.844,-0.355,-0.130
16.847,-0.350,-0.105
16.850,-0.340,-0.095
16.853,-0.350,-0.095
16.856,-0.345,-0.095
16.858,-0.380,-0.105
16.861,-0.355,-0.070
16.864,-0.330,-0.050
16.867,-0.300,-0.040
16.869,-0.300,-0.020
16.872,-0.320,-0.035
16.875,-0.350,-0.030
16.878,-0.360,0.000
16.881,-0.340,0.040
16.883,-0.315,0.060
16.886,-0.325,0.070
16.889,-0.355,0.080
16.892,-0.350,0.100
16.894,-0.335,0.115
16.897,-0.315,0.135
16.900,-0.305,0.145
16.903,-0.325,0.150
16.906,-0.320,0.150
16.908,-0.330,0.150
16.911,-0.320,0.175
16.914,-0.325,0.190
16.917,-0.280,0.210
16.919,-0.285,0.200
16.922,-0.300,0.180
16.925,-0.315,0.175
16.928,-0.305,0.170
16.931,-0.290,0.185
16.933,-0.245,0.180
16.936,-0.245,0.135
16.939,-0.245,0.110
16.942,-0.245,0.105
16.944,-0.225,0.095
16.947,-0.205,0.075
16.950,-0.155,0.070
16.953,-0.130,0.030
16.956,-0.125,-0.005
16.958,-0.120,-0.010
16.961,-0.100,-0.030
16.964,-0.050,-0.045
16.967,-0.010,-0.060
16.969,0.015,-0.100
16.972,0.015,-0.110
