'Elapsed time','MLII','V1'
'seconds','mV','mV'
0.000,-0.430,-0.540
0.003,-0.430,-0.540
0.006,-0.430,-0.540
0.008,-0.430,-0.540
0.011,-0.430,-0.540
0.014,-0.430,-0.540
0.017,-0.430,-0.540
0.019,-0.430,-0.540
0.022,-0.450,-0.550
0.025,-0.460,-0.535
0.028,-0.465,-0.525
0.031,-0.460,-0.530
0.033,-0.460,-0.505
0.036,-0.445,-0.510
0.039,-0.445,-0.510
0.042,-0.455,-0.505
0.044,-0.470,-0.515
0.047,-0.470,-0.520
0.050,-0.465,-0.540
0.053,-0.475,-0.530
0.056,-0.480,-0.535
0.058,-0.480,-0.520
0.061,-0.470,-0.525
0.064,-0.465,-0.520
0.067,-0.470,-0.515
0.069,-0.460,-0.515
0.072,-0.445,-0.510
0.075,-0.455,-0.510
0.078,-0.465,-0.515
0.081,-0.460,-0.520
0.083,-0.470,-0.545
0.086,-0.465,-0.540
0.089,-0.475,-0.535
0.092,-0.480,-0.530
0.094,-0.460,-0.535
0.097,-0.450,-0.515
0.100,-0.445,-0.515
0.103,-0.440,-0.510
0.106,-0.435,-0.515
0.108,-0.430,-0.525
0.111,-0.440,-0.535
0.114,-0.445,-0.540
0.117,-0.450,-0.545
0.119,-0.440,-0.550
0.122,-0.445,-0.550
0.125,-0.465,-0.540
0.128,-0.445,-0.535
0.131,-0.435,-0.540
0.133,-0.430,-0.515
0.136,-0.430,-0.515
0.139,-0.425,-0.525
0.142,-0.425,-0.525
0.144,-0.425,-0.535
0.147,-0.420,-0.550
0.150,-0.440,-0.545
0.153,-0.450,-0.560
0.156,-0.440,-0.550
0.158,-0.440,-0.555
0.161,-0.435,-0.550
0.164,-0.420,-0.545
0.167,-0.415,-0.540
0.169,-0.415,-0.535
0.172,-0.410,-0.535
0.175,-0.400,-0.550
0.178,-0.405,-0.550
0.181,-0.415,-0.565
0.183,-0.415,-0.560
0.186,-0.425,-0.565
0.189,-0.425,-0.565
0.192,-0.425,-0.570
0.194,-0.410,-0.565
0.197,-0.410,-0.550
0.200,-0.400,-0.550
0.203,-0.390,-0.545
0.206,-0.390,-0.555
0.208,-0.395,-0.560
0.211,-0.395,-0.570
0.214,-0.395,-0.575
0.217,-0.405,-0.585
0.219,-0.410,-0.585
0.222,-0.405,-0.595
0.225,-0.405,-0.580
0.228,-0.400,-0.575
0.231,-0.395,-0.580
0.233,-0.385,-0.570
0.236,-0.370,-0.565
0.239,-0.365,-0.575
0.242,-0.355,-0.575
0.244,-0.365,-0.595
0.247,-0.355,-0.595
0.250,-0.355,-0.615
0.253,-0.360,-0.605
0.256,-0.360,-0.615
0.258,-0.360,-0.615
0.261,-0.345,-0.605
0.264,-0.330,-0.595
0.267,-0.325,-0.590
0.269,-0.310,-0.590
0.272,-0.310,-0.600
0.275,-0.300,-0.590
0.278,-0.315,-0.610
0.281,-0.320,-0.605
0.283,-0.325,-0.630
0.286,-0.330,-0.610
0.289,-0.340,-0.610
0.292,-0.355,-0.610
0.294,-0.350,-0.595
0.297,-0.355,-0.585
0.300,-0.355,-0.575
0.303,-0.355,-0.565
0.306,-0.355,-0.580
0.308,-0.360,-0.560
0.311,-0.370,-0.565
0.314,-0.390,-0.575
0.317,-0.390,-0.590
0.319,-0.405,-0.565
0.322,-0.415,-0.565
0.325,-0.420,-0.560
0.328,-0.420,-0.545
0.331,-0.425,-0.545
0.333,-0.415,-0.540
0.336,-0.420,-0.535
0.339,-0.420,-0.535
0.342,-0.410,-0.535
0.344,-0.415,-0.535
0.347,-0.425,-0.545
0.350,-0.435,-0.545
0.353,-0.440,-0.555
0.356,-0.440,-0.550
0.358,-0.440,-0.545
0.361,-0.445,-0.550
0.364,-0.435,-0.530
0.367,-0.445,-0.525
0.369,-0.435,-0.520
0.372,-0.420,-0.515
0.375,-0.435,-0.520
0.378,-0.445,-0.530
0.381,-0.445,-0.530
0.383,-0.450,-0.545
0.386,-0.460,-0.550
0.389,-0.455,-0.545
0.392,-0.460,-0.535
0.394,-0.450,-0.530
0.397,-0.455,-0.525
0.400,-0.445,-0.510
0.403,-0.440,-0.515
0.406,-0.440,-0.505
0.408,-0.435,-0.510
0.411,-0.445,-0.520
0.414,-0.455,-0.535
0.417,-0.460,-0.535
0.419,-0.460,-0.535
0.422,-0.470,-0.535
0.425,-0.475,-0.535
0.428,-0.475,-0.530
0.431,-0.470,-0.525
0.433,-0.460,-0.510
0.436,-0.450,-0.515
0.439,-0.465,-0.515
0.442,-0.445,-0.525
0.444,-0.450,-0.525
0.447,-0.450,-0.535
0.450,-0.465,-0.545
0.453,-0.465,-0.545
0.456,-0.470,-0.530
0.458,-0.475,-0.530
0.461,-0.460,-0.530
0.464,-0.455,-0.520
0.467,-0.435,-0.515
0.469,-0.425,-0.510
0.472,-0.405,-0.500
0.475,-0.400,-0.505
0.478,-0.400,-0.510
0.481,-0.410,-0.520
0.483,-0.415,-0.520
0.486,-0.410,-0.520
0.489,-0.415,-0.520
0.492,-0.410,-0.520
0.494,-0.395,-0.515
0.497,-0.385,-0.510
0.500,-0.365,-0.520
0.503,-0.345,-0.520
0.506,-0.355,-0.540
0.508,-0.370,-0.560
0.511,-0.385,-0.570
0.514,-0.410,-0.585
0.517,-0.435,-0.580
0.519,-0.430,-0.575
0.522,-0.435,-0.570
0.525,-0.450,-0.555
0.528,-0.430,-0.560
0.531,-0.430,-0.560
0.533,-0.435,-0.545
0.536,-0.435,-0.535
0.539,-0.430,-0.530
0.542,-0.450,-0.530
0.544,-0.455,-0.535
0.547,-0.470,-0.540
0.550,-0.490,-0.530
0.553,-0.515,-0.535
0.556,-0.520,-0.530
0.558,-0.520,-0.525
0.561,-0.515,-0.520
0.564,-0.520,-0.515
0.567,-0.510,-0.510
0.569,-0.505,-0.500
0.572,-0.490,-0.505
0.575,-0.490,-0.505
0.578,-0.500,-0.505
0.581,-0.495,-0.520
0.583,-0.505,-0.530
0.586,-0.525,-0.535
0.589,-0.505,-0.535
0.592,-0.510,-0.530
0.594,-0.500,-0.515
0.597,-0.500,-0.515
0.600,-0.510,-0.495
0.603,-0.525,-0.500
0.606,-0.550,-0.490
0.608,-0.555,-0.490
0.611,-0.545,-0.495
0.614,-0.500,-0.515
0.617,-0.420,-0.540
0.619,-0.315,-0.590
0.622,-0.165,-0.625
0.625,0.000,-0.680
0.628,0.220,-0.735
0.631,0.430,-0.765
0.633,0.620,-0.780
0.636,0.735,-0.755
0.639,0.720,-0.740
0.642,0.570,-0.690
0.644,0.320,-0.635
0.647,0.015,-0.560
0.650,-0.250,-0.505
0.653,-0.430,-0.470
0.656,-0.515,-0.455
0.658,-0.510,-0.475
0.661,-0.450,-0.510
0.664,-0.395,-0.535
0.667,-0.360,-0.545
0.669,-0.330,-0.560
0.672,-0.345,-0.550
0.675,-0.370,-0.535
0.678,-0.420,-0.530
0.681,-0.440,-0.520
0.683,-0.470,-0.530
0.686,-0.480,-0.535
0.689,-0.485,-0.520
0.692,-0.480,-0.515
0.694,-0.465,-0.515
0.697,-0.475,-0.510
0.700,-0.465,-0.500
0.703,-0.470,-0.490
0.706,-0.470,-0.495
0.708,-0.470,-0.500
0.711,-0.465,-0.505
0.714,-0.475,-0.510
0.717,-0.480,-0.525
0.719,-0.485,-0.520
0.722,-0.490,-0.525
0.725,-0.480,-0.505
0.728,-0.485,-0.505
0.731,-0.475,-0.500
0.733,-0.465,-0.500
0.736,-0.460,-0.485
0.739,-0.455,-0.490
0.742,-0.455,-0.495
0.744,-0.460,-0.510
0.747,-0.460,-0.515
0.750,-0.470,-0.520
0.753,-0.475,-0.520
0.756,-0.470,-0.520
0.758,-0.470,-0.510
0.761,-0.470,-0.510
0.764,-0.465,-0.500
0.767,-0.470,-0.505
0.769,-0.460,-0.500
0.772,-0.455,-0.500
0.775,-0.455,-0.505
0.778,-0.465,-0.500
0.781,-0.465,-0.515
0.783,-0.480,-0.525
0.786,-0.480,-0.530
0.789,-0.490,-0.520
0.792,-0.475,-0.520
0.794,-0.465,-0.515
0.797,-0.455,-0.515
0.800,-0.455,-0.515
0.803,-0.445,-0.515
0.806,-0.450,-0.515
0.808,-0.440,-0.520
0.811,-0.440,-0.525
0.814,-0.440,-0.535
0.817,-0.445,-0.545
0.819,-0.455,-0.540
0.822,-0.455,-0.540
0.825,-0.455,-0.535
0.828,-0.455,-0.545
0.831,-0.440,-0.545
0.833,-0.440,-0.535
0.836,-0.425,-0.530
0.839,-0.420,-0.530
0.842,-0.415,-0.540
0.844,-0.420,-0.555
0.847,-0.425,-0.555
0.850,-0.440,-0.560
0.853,-0.445,-0.565
0.856,-0.445,-0.560
0.858,-0.460,-0.560
0.861,-0.450,-0.570
0.864,-0.440,-0.555
0.867,-0.425,-0.550
0.869,-0.405,-0.540
0.872,-0.410,-0.545
0.875,-0.415,-0.540
0.878,-0.415,-0.565
0.881,-0.405,-0.560
0.883,-0.425,-0.570
0.886,-0.420,-0.580
0.889,-0.415,-0.575
0.892,-0.400,-0.585
0.894,-0.380,-0.570
0.897,-0.370,-0.585
0.900,-0.360,-0.580
0.903,-0.355,-0.575
0.906,-0.345,-0.575
0.908,-0.340,-0.575
0.911,-0.340,-0.585
0.914,-0.340,-0.600
0.917,-0.345,-0.595
0.919,-0.340,-0.600
0.922,-0.350,-0.600
0.925,-0.350,-0.595
0.928,-0.350,-0.590
0.931,-0.345,-0.590
0.933,-0.345,-0.570
0.936,-0.325,-0.565
0.939,-0.330,-0.570
0.942,-0.335,-0.560
0.944,-0.340,-0.570
0.947,-0.360,-0.570
0.950,-0.380,-0.585
0.953,-0.385,-0.585
0.956,-0.405,-0.575
0.958,-0.410,-0.565
0.961,-0.400,-0.560
0.964,-0.415,-0.550
0.967,-0.405,-0.540
0.969,-0.410,-0.540
0.972,-0.405,-0.535
0.975,-0.410,-0.525
0.978,-0.415,-0.535
0.981,-0.410,-0.540
0.983,-0.420,-0.545
0.986,-0.435,-0.550
0.989,-0.440,-0.545
0.992,-0.450,-0.540
0.994,-0.455,-0.530
0.997,-0.450,-0.520
1.000,-0.445,-0.510
1.003,-0.440,-0.500
1.006,-0.440,-0.505
1.008,-0.435,-0.505
1.011,-0.440,-0.520
1.014,-0.445,-0.520
1.017,-0.445,-0.530
1.019,-0.455,-0.530
1.022,-0.465,-0.535
1.025,-0.460,-0.535
1.028,-0.460,-0.515
1.031,-0.450,-0.515
1.033,-0.445,-0.505
1.036,-0.440,-0.495
1.039,-0.450,-0.495
1.042,-0.440,-0.500
1.044,-0.440,-0.505
1.047,-0.445,-0.515
1.050,-0.450,-0.520
1.053,-0.455,-0.530
1.056,-0.465,-0.535
1.058,-0.460,-0.525
1.061,-0.460,-0.515
1.064,-0.465,-0.515
1.067,-0.455,-0.495
1.069,-0.460,-0.495
1.072,-0.460,-0.505
1.075,-0.450,-0.500
1.078,-0.460,-0.510
1.081,-0.470,-0.510
1.083,-0.480,-0.515
1.086,-0.485,-0.525
1.089,-0.480,-0.530
1.092,-0.485,-0.515
1.094,-0.490,-0.510
1.097,-0.480,-0.500
1.100,-0.470,-0.490
1.103,-0.465,-0.495
1.106,-0.470,-0.495
1.108,-0.465,-0.485
1.111,-0.465,-0.495
1.114,-0.470,-0.500
1.117,-0.465,-0.505
1.119,-0.470,-0.510
1.122,-0.470,-0.515
1.125,-0.465,-0.510
1.128,-0.450,-0.500
1.131,-0.440,-0.490
1.133,-0.430,-0.480
1.136,-0.415,-0.470
1.139,-0.410,-0.470
1.142,-0.405,-0.470
1.144,-0.410,-0.475
1.147,-0.405,-0.475
1.150,-0.405,-0.490
1.153,-0.400,-0.495
1.156,-0.400,-0.495
1.158,-0.390,-0.500
1.161,-0.385,-0.515
1.164,-0.385,-0.525
1.167,-0.395,-0.515
1.169,-0.410,-0.530
1.172,-0.415,-0.525
1.175,-0.430,-0.515
1.178,-0.430,-0.535
1.181,-0.435,-0.530
1.183,-0.445,-0.535
1.186,-0.455,-0.535
1.189,-0.450,-0.530
1.192,-0.455,-0.530
1.194,-0.445,-0.520
1.197,-0.440,-0.510
1.200,-0.450,-0.505
1.203,-0.445,-0.495
1.206,-0.470,-0.490
1.208,-0.490,-0.500
1.211,-0.500,-0.485
1.214,-0.520,-0.485
1.217,-0.530,-0.500
1.219,-0.530,-0.500
1.222,-0.530,-0.505
1.225,-0.530,-0.500
1.228,-0.525,-0.490
1.231,-0.515,-0.490
1.233,-0.510,-0.475
1.236,-0.500,-0.475
1.239,-0.500,-0.485
1.242,-0.500,-0.485
1.244,-0.505,-0.485
1.247,-0.510,-0.500
1.250,-0.510,-0.500
1.253,-0.515,-0.505
1.256,-0.525,-0.510
1.258,-0.530,-0.500
1.261,-0.550,-0.490
1.264,-0.570,-0.490
1.267,-0.575,-0.475
1.269,-0.560,-0.465
1.272,-0.505,-0.485
1.275,-0.410,-0.510
1.278,-0.275,-0.550
1.281,-0.110,-0.605
1.283,0.095,-0.660
1.286,0.305,-0.735
1.289,0.535,-0.775
1.292,0.720,-0.780
1.294,0.805,-0.765
1.297,0.750,-0.715
1.300,0.565,-0.650
1.303,0.285,-0.560
1.306,-0.010,-0.480
1.308,-0.260,-0.425
1.311,-0.425,-0.400
1.314,-0.500,-0.395
1.317,-0.490,-0.435
1.319,-0.450,-0.480
1.322,-0.415,-0.515
1.325,-0.400,-0.545
1.328,-0.385,-0.545
1.331,-0.390,-0.540
1.333,-0.400,-0.520
1.336,-0.420,-0.495
1.339,-0.445,-0.490
1.342,-0.465,-0.485
1.344,-0.470,-0.505
1.347,-0.485,-0.505
1.350,-0.500,-0.510
1.353,-0.500,-0.520
1.356,-0.510,-0.505
1.358,-0.495,-0.500
1.361,-0.480,-0.495
1.364,-0.480,-0.490
1.367,-0.475,-0.480
1.369,-0.485,-0.475
1.372,-0.480,-0.470
1.375,-0.470,-0.475
1.378,-0.475,-0.475
1.381,-0.495,-0.495
1.383,-0.505,-0.495
1.386,-0.505,-0.495
1.389,-0.515,-0.490
1.392,-0.510,-0.485
1.394,-0.500,-0.495
1.397,-0.485,-0.475
1.400,-0.485,-0.470
1.403,-0.470,-0.465
1.406,-0.475,-0.465
1.408,-0.475,-0.475
1.411,-0.480,-0.490
1.414,-0.485,-0.500
1.417,-0.485,-0.505
1.419,-0.485,-0.505
1.422,-0.490,-0.505
1.425,-0.495,-0.510
1.428,-0.490,-0.490
1.431,-0.485,-0.495
1.433,-0.470,-0.485
1.436,-0.465,-0.485
1.439,-0.470,-0.490
1.442,-0.455,-0.495
1.444,-0.455,-0.495
1.447,-0.460,-0.505
1.450,-0.470,-0.515
1.453,-0.465,-0.525
1.456,-0.475,-0.515
1.458,-0.475,-0.515
1.461,-0.485,-0.515
1.464,-0.480,-0.505
1.467,-0.475,-0.505
1.469,-0.455,-0.500
1.472,-0.440,-0.500
1.475,-0.435,-0.510
1.478,-0.425,-0.510
1.481,-0.435,-0.520
1.483,-0.435,-0.525
1.486,-0.450,-0.520
1.489,-0.455,-0.530
1.492,-0.460,-0.535
1.494,-0.455,-0.525
1.497,-0.460,-0.520
1.500,-0.455,-0.520
1.503,-0.455,-0.510
1.506,-0.450,-0.505
1.508,-0.435,-0.520
1.511,-0.430,-0.525
1.514,-0.435,-0.540
1.517,-0.435,-0.545
1.519,-0.445,-0.560
1.522,-0.445,-0.550
1.525,-0.450,-0.550
1.528,-0.445,-0.550
1.531,-0.440,-0.540
1.533,-0.435,-0.540
1.536,-0.440,-0.530
1.539,-0.435,-0.535
1.542,-0.420,-0.530
1.544,-0.425,-0.555
1.547,-0.435,-0.565
1.550,-0.430,-0.570
1.553,-0.435,-0.580
1.556,-0.425,-0.580
1.558,-0.410,-0.580
1.561,-0.385,-0.575
1.564,-0.375,-0.565
1.567,-0.360,-0.570
1.569,-0.345,-0.565
1.572,-0.340,-0.565
1.575,-0.340,-0.565
1.578,-0.350,-0.580
1.581,-0.345,-0.575
1.583,-0.360,-0.590
1.586,-0.365,-0.590
1.589,-0.370,-0.585
1.592,-0.385,-0.590
1.594,-0.380,-0.575
1.597,-0.365,-0.575
1.600,-0.370,-0.560
1.603,-0.365,-0.555
1.606,-0.370,-0.545
1.608,-0.375,-0.555
1.611,-0.390,-0.555
1.614,-0.400,-0.550
1.617,-0.415,-0.560
1.619,-0.420,-0.560
1.622,-0.425,-0.550
1.625,-0.430,-0.550
1.628,-0.430,-0.535
1.631,-0.435,-0.525
1.633,-0.425,-0.520
1.636,-0.420,-0.520
1.639,-0.430,-0.525
1.642,-0.445,-0.515
1.644,-0.445,-0.510
1.647,-0.450,-0.515
1.650,-0.450,-0.515
1.653,-0.455,-0.515
1.656,-0.465,-0.510
1.658,-0.465,-0.510
1.661,-0.455,-0.505
1.664,-0.460,-0.510
1.667,-0.455,-0.485
1.669,-0.440,-0.485
1.672,-0.450,-0.490
1.675,-0.440,-0.485
1.678,-0.445,-0.495
1.681,-0.460,-0.505
1.683,-0.460,-0.510
1.686,-0.475,-0.515
1.689,-0.470,-0.510
1.692,-0.480,-0.505
1.694,-0.475,-0.500
1.697,-0.470,-0.490
1.700,-0.465,-0.475
1.703,-0.460,-0.480
1.706,-0.460,-0.470
1.708,-0.460,-0.465
1.711,-0.470,-0.490
1.714,-0.470,-0.490
1.717,-0.480,-0.500
1.719,-0.500,-0.505
1.722,-0.510,-0.510
1.725,-0.520,-0.500
1.728,-0.510,-0.490
1.731,-0.490,-0.480
1.733,-0.480,-0.480
1.736,-0.465,-0.470
1.739,-0.465,-0.475
1.742,-0.465,-0.475
1.744,-0.465,-0.485
1.747,-0.490,-0.480
1.750,-0.490,-0.490
1.753,-0.500,-0.505
1.756,-0.495,-0.495
1.758,-0.490,-0.500
1.761,-0.485,-0.475
1.764,-0.480,-0.470
1.767,-0.475,-0.475
1.769,-0.470,-0.470
1.772,-0.480,-0.460
1.775,-0.475,-0.475
1.778,-0.480,-0.465
1.781,-0.495,-0.480
1.783,-0.490,-0.475
1.786,-0.505,-0.480
1.789,-0.490,-0.485
1.792,-0.490,-0.475
1.794,-0.470,-0.460
1.797,-0.465,-0.455
1.800,-0.455,-0.450
1.803,-0.450,-0.430
1.806,-0.445,-0.440
1.808,-0.440,-0.445
1.811,-0.430,-0.445
1.814,-0.435,-0.445
1.817,-0.430,-0.470
1.819,-0.415,-0.480
1.822,-0.415,-0.485
1.825,-0.420,-0.480
1.828,-0.410,-0.485
1.831,-0.420,-0.485
1.833,-0.430,-0.485
1.836,-0.430,-0.485
1.839,-0.440,-0.500
1.842,-0.435,-0.490
1.844,-0.455,-0.500
1.847,-0.445,-0.490
1.850,-0.445,-0.510
1.853,-0.465,-0.515
1.856,-0.475,-0.500
1.858,-0.490,-0.505
1.861,-0.490,-0.500
1.864,-0.495,-0.475
1.867,-0.490,-0.475
1.869,-0.485,-0.470
1.872,-0.490,-0.460
1.875,-0.500,-0.455
1.878,-0.500,-0.460
1.881,-0.515,-0.460
1.883,-0.520,-0.465
1.886,-0.535,-0.480
1.889,-0.540,-0.475
1.892,-0.545,-0.465
1.894,-0.540,-0.465
1.897,-0.530,-0.455
1.900,-0.535,-0.450
1.903,-0.530,-0.430
1.906,-0.520,-0.450
1.908,-0.515,-0.455
1.911,-0.505,-0.460
1.914,-0.520,-0.465
1.917,-0.525,-0.485
1.919,-0.530,-0.480
1.922,-0.540,-0.490
1.925,-0.540,-0.465
1.928,-0.550,-0.470
1.931,-0.560,-0.470
1.933,-0.575,-0.450
1.936,-0.580,-0.460
1.939,-0.555,-0.460
1.942,-0.480,-0.465
1.944,-0.360,-0.500
1.947,-0.215,-0.530
1.950,-0.030,-0.575
1.953,0.195,-0.635
1.956,0.440,-0.680
1.958,0.650,-0.690
1.961,0.800,-0.690
1.964,0.820,-0.655
1.967,0.690,-0.605
1.969,0.430,-0.530
1.972,0.105,-0.470
1.975,-0.215,-0.420
1.978,-0.445,-0.380
1.981,-0.555,-0.355
1.983,-0.580,-0.380
1.986,-0.530,-0.400
1.989,-0.485,-0.435
1.992,-0.445,-0.465
1.994,-0.430,-0.485
1.997,-0.420,-0.485
2.000,-0.425,-0.490
2.003,-0.430,-0.470
2.006,-0.445,-0.465
2.008,-0.460,-0.465
2.011,-0.475,-0.460
2.014,-0.485,-0.470
2.017,-0.500,-0.475
2.019,-0.505,-0.480
2.022,-0.510,-0.485
2.025,-0.515,-0.475
2.028,-0.520,-0.480
2.031,-0.510,-0.470
2.033,-0.505,-0.465
2.036,-0.500,-0.445
2.039,-0.495,-0.450
2.042,-0.495,-0.460
2.044,-0.495,-0.465
2.047,-0.500,-0.475
2.050,-0.505,-0.470
2.053,-0.510,-0.490
2.056,-0.505,-0.490
2.058,-0.515,-0.490
2.061,-0.525,-0.475
2.064,-0.515,-0.465
2.067,-0.510,-0.460
2.069,-0.510,-0.450
2.072,-0.500,-0.460
2.075,-0.490,-0.465
2.078,-0.500,-0.465
2.081,-0.500,-0.470
2.083,-0.495,-0.490
2.086,-0.510,-0.490
2.089,-0.500,-0.495
2.092,-0.505,-0.500
2.094,-0.495,-0.480
2.097,-0.495,-0.475
2.100,-0.495,-0.470
2.103,-0.485,-0.455
2.106,-0.475,-0.455
2.108,-0.475,-0.470
2.111,-0.475,-0.475
2.114,-0.480,-0.485
2.117,-0.470,-0.500
2.119,-0.480,-0.495
2.122,-0.485,-0.505
2.125,-0.480,-0.505
2.128,-0.495,-0.490
2.131,-0.495,-0.490
2.133,-0.475,-0.485
2.136,-0.470,-0.475
2.139,-0.470,-0.485
2.142,-0.455,-0.485
2.144,-0.460,-0.500
2.147,-0.455,-0.505
2.150,-0.455,-0.515
2.153,-0.470,-0.520
2.156,-0.475,-0.525
2.158,-0.475,-0.520
2.161,-0.470,-0.520
2.164,-0.470,-0.510
2.167,-0.465,-0.505
2.169,-0.455,-0.505
2.172,-0.455,-0.515
2.175,-0.465,-0.515
2.178,-0.450,-0.515
2.181,-0.460,-0.530
2.183,-0.470,-0.545
2.186,-0.470,-0.550
2.189,-0.475,-0.540
2.192,-0.475,-0.540
2.194,-0.470,-0.530
2.197,-0.470,-0.525
2.200,-0.455,-0.520
2.203,-0.455,-0.515
2.206,-0.440,-0.525
2.208,-0.435,-0.525
2.211,-0.430,-0.535
2.214,-0.435,-0.555
2.217,-0.430,-0.560
2.219,-0.425,-0.565
2.222,-0.425,-0.570
2.225,-0.425,-0.565
2.228,-0.415,-0.560
2.231,-0.400,-0.550
2.233,-0.380,-0.540
2.236,-0.380,-0.540
2.239,-0.370,-0.545
2.242,-0.365,-0.540
2.244,-0.370,-0.545
2.247,-0.375,-0.545
2.250,-0.375,-0.565
2.253,-0.385,-0.570
2.256,-0.385,-0.560
2.258,-0.395,-0.560
2.261,-0.405,-0.545
2.264,-0.395,-0.535
2.267,-0.400,-0.525
2.269,-0.395,-0.520
2.272,-0.400,-0.510
2.275,-0.405,-0.520
2.278,-0.410,-0.520
2.281,-0.415,-0.525
2.283,-0.425,-0.525
2.286,-0.450,-0.525
2.289,-0.450,-0.520
2.292,-0.460,-0.510
2.294,-0.465,-0.510
2.297,-0.450,-0.500
2.300,-0.450,-0.505
2.303,-0.450,-0.485
2.306,-0.455,-0.495
2.308,-0.450,-0.495
2.311,-0.445,-0.490
2.314,-0.460,-0.490
2.317,-0.470,-0.500
2.319,-0.470,-0.505
2.322,-0.475,-0.510
2.325,-0.470,-0.495
2.328,-0.475,-0.495
2.331,-0.465,-0.495
2.333,-0.465,-0.480
2.336,-0.455,-0.475
2.339,-0.455,-0.465
2.342,-0.465,-0.470
2.344,-0.455,-0.475
2.347,-0.465,-0.485
2.350,-0.460,-0.500
2.353,-0.480,-0.490
2.356,-0.495,-0.510
2.358,-0.480,-0.490
2.361,-0.485,-0.490
2.364,-0.475,-0.475
2.367,-0.475,-0.465
2.369,-0.465,-0.465
2.372,-0.470,-0.470
2.375,-0.470,-0.465
2.378,-0.465,-0.485
2.381,-0.480,-0.490
2.383,-0.485,-0.490
2.386,-0.490,-0.490
2.389,-0.505,-0.495
2.392,-0.500,-0.485
2.394,-0.500,-0.475
2.397,-0.490,-0.480
2.400,-0.480,-0.460
2.403,-0.480,-0.460
2.406,-0.485,-0.455
2.408,-0.475,-0.465
2.411,-0.475,-0.475
2.414,-0.495,-0.475
2.417,-0.485,-0.480
2.419,-0.505,-0.485
2.422,-0.495,-0.490
2.425,-0.505,-0.485
2.428,-0.495,-0.490
2.431,-0.500,-0.475
2.433,-0.490,-0.470
2.436,-0.480,-0.450
2.439,-0.475,-0.455
2.442,-0.465,-0.470
2.444,-0.460,-0.465
2.447,-0.460,-0.480
2.450,-0.460,-0.485
2.453,-0.455,-0.485
2.456,-0.455,-0.470
2.458,-0.455,-0.480
2.461,-0.445,-0.470
2.464,-0.440,-0.460
2.467,-0.430,-0.445
2.469,-0.420,-0.445
2.472,-0.415,-0.445
2.475,-0.400,-0.455
2.478,-0.390,-0.460
2.481,-0.375,-0.480
2.483,-0.375,-0.495
2.486,-0.385,-0.515
2.489,-0.410,-0.520
2.492,-0.425,-0.510
2.494,-0.440,-0.520
2.497,-0.445,-0.505
2.500,-0.435,-0.505
2.503,-0.440,-0.500
2.506,-0.435,-0.495
2.508,-0.435,-0.500
2.511,-0.440,-0.505
2.514,-0.445,-0.510
2.517,-0.450,-0.520
2.519,-0.460,-0.515
2.522,-0.480,-0.515
2.525,-0.485,-0.510
2.528,-0.495,-0.500
2.531,-0.505,-0.485
2.533,-0.505,-0.475
2.536,-0.515,-0.470
2.539,-0.520,-0.460
2.542,-0.520,-0.465
2.544,-0.510,-0.475
2.547,-0.515,-0.475
2.550,-0.525,-0.490
2.553,-0.520,-0.490
2.556,-0.525,-0.500
2.558,-0.530,-0.490
2.561,-0.525,-0.485
2.564,-0.515,-0.475
2.567,-0.515,-0.470
2.569,-0.500,-0.460
2.572,-0.510,-0.465
2.575,-0.510,-0.465
2.578,-0.505,-0.470
2.581,-0.505,-0.485
2.583,-0.515,-0.495
2.586,-0.530,-0.500
2.589,-0.555,-0.500
2.592,-0.575,-0.490
2.594,-0.595,-0.480
2.597,-0.585,-0.465
2.600,-0.525,-0.480
2.603,-0.440,-0.475
2.606,-0.320,-0.510
2.608,-0.170,-0.550
2.611,0.005,-0.590
2.614,0.215,-0.635
2.617,0.405,-0.670
2.619,0.590,-0.695
2.622,0.715,-0.690
2.625,0.725,-0.670
2.628,0.625,-0.635
2.631,0.420,-0.595
2.633,0.150,-0.535
2.636,-0.115,-0.490
2.639,-0.340,-0.450
2.642,-0.470,-0.435
2.644,-0.515,-0.425
2.647,-0.495,-0.465
2.650,-0.450,-0.485
2.653,-0.410,-0.515
2.656,-0.390,-0.535
2.658,-0.385,-0.545
2.661,-0.385,-0.535
2.664,-0.390,-0.525
2.667,-0.410,-0.505
2.669,-0.425,-0.495
2.672,-0.430,-0.485
2.675,-0.445,-0.490
2.678,-0.455,-0.490
2.681,-0.460,-0.495
2.683,-0.470,-0.510
2.686,-0.485,-0.500
2.689,-0.475,-0.510
2.692,-0.485,-0.510
2.694,-0.490,-0.510
2.697,-0.485,-0.490
2.700,-0.480,-0.485
2.703,-0.470,-0.485
2.706,-0.475,-0.475
2.708,-0.470,-0.485
2.711,-0.465,-0.475
2.714,-0.475,-0.490
2.717,-0.470,-0.505
2.719,-0.490,-0.500
2.722,-0.480,-0.505
2.725,-0.490,-0.510
2.728,-0.480,-0.490
2.731,-0.475,-0.485
2.733,-0.465,-0.485
2.736,-0.460,-0.480
2.739,-0.465,-0.480
2.742,-0.450,-0.480
2.744,-0.455,-0.490
2.747,-0.460,-0.495
2.750,-0.465,-0.500
2.753,-0.470,-0.500
2.756,-0.475,-0.510
2.758,-0.470,-0.515
2.761,-0.465,-0.505
2.764,-0.455,-0.495
2.767,-0.450,-0.495
2.769,-0.445,-0.485
2.772,-0.440,-0.480
2.775,-0.435,-0.490
2.778,-0.440,-0.510
2.781,-0.450,-0.515
2.783,-0.455,-0.520
2.786,-0.465,-0.530
2.789,-0.470,-0.520
2.792,-0.460,-0.520
2.794,-0.450,-0.520
2.797,-0.435,-0.510
2.800,-0.425,-0.500
2.803,-0.420,-0.500
2.806,-0.425,-0.510
2.808,-0.425,-0.505
2.811,-0.425,-0.515
2.814,-0.430,-0.520
2.817,-0.440,-0.535
2.819,-0.435,-0.535
2.822,-0.440,-0.530
2.825,-0.440,-0.530
2.828,-0.430,-0.525
2.831,-0.420,-0.530
2.833,-0.420,-0.520
2.836,-0.405,-0.505
2.839,-0.400,-0.530
2.842,-0.405,-0.525
2.844,-0.410,-0.540
2.847,-0.415,-0.540
2.850,-0.420,-0.555
2.853,-0.425,-0.550
2.856,-0.425,-0.545
2.858,-0.420,-0.545
2.861,-0.425,-0.540
2.864,-0.415,-0.530
2.867,-0.405,-0.530
2.869,-0.395,-0.535
2.872,-0.400,-0.535
2.875,-0.400,-0.535
2.878,-0.405,-0.545
2.881,-0.405,-0.565
2.883,-0.405,-0.570
2.886,-0.410,-0.565
2.889,-0.410,-0.565
2.892,-0.400,-0.570
2.894,-0.385,-0.565
2.897,-0.365,-0.555
2.900,-0.355,-0.555
2.903,-0.350,-0.550
2.906,-0.340,-0.565
2.908,-0.325,-0.555
2.911,-0.330,-0.565
2.914,-0.330,-0.580
2.917,-0.340,-0.590
2.919,-0.340,-0.590
2.922,-0.340,-0.585
2.925,-0.335,-0.585
2.928,-0.335,-0.575
2.931,-0.340,-0.575
2.933,-0.335,-0.555
2.936,-0.330,-0.555
2.939,-0.335,-0.550
2.942,-0.340,-0.555
2.944,-0.350,-0.560
2.947,-0.360,-0.565
2.950,-0.370,-0.555
2.953,-0.385,-0.570
2.956,-0.400,-0.555
2.958,-0.395,-0.550
2.961,-0.395,-0.550
2.964,-0.395,-0.525
2.967,-0.395,-0.530
2.969,-0.400,-0.520
2.972,-0.405,-0.515
2.975,-0.405,-0.525
2.978,-0.415,-0.515
2.981,-0.415,-0.525
2.983,-0.435,-0.535
2.986,-0.435,-0.535
2.989,-0.440,-0.530
2.992,-0.440,-0.520
2.994,-0.435,-0.505
2.997,-0.430,-0.500
3.000,-0.430,-0.495
3.003,-0.430,-0.485
3.006,-0.430,-0.490
3.008,-0.425,-0.500
3.011,-0.435,-0.500
3.014,-0.435,-0.500
3.017,-0.450,-0.515
3.019,-0.445,-0.510
3.022,-0.460,-0.505
3.025,-0.455,-0.500
3.028,-0.460,-0.500
3.031,-0.440,-0.490
3.033,-0.445,-0.475
3.036,-0.425,-0.480
3.039,-0.435,-0.485
3.042,-0.430,-0.480
3.044,-0.440,-0.490
3.047,-0.450,-0.485
3.050,-0.450,-0.500
3.053,-0.460,-0.505
3.056,-0.460,-0.500
3.058,-0.465,-0.490
3.061,-0.460,-0.485
3.064,-0.450,-0.485
3.067,-0.450,-0.480
3.069,-0.450,-0.465
3.072,-0.450,-0.480
3.075,-0.450,-0.485
3.078,-0.450,-0.490
3.081,-0.455,-0.500
3.083,-0.460,-0.495
3.086,-0.475,-0.490
3.089,-0.485,-0.495
3.092,-0.490,-0.490
3.094,-0.475,-0.470
3.097,-0.465,-0.475
3.100,-0.455,-0.465
3.103,-0.455,-0.460
3.106,-0.445,-0.465
3.108,-0.440,-0.470
3.111,-0.445,-0.480
3.114,-0.440,-0.480
3.117,-0.440,-0.505
3.119,-0.445,-0.500
3.122,-0.435,-0.485
3.125,-0.425,-0.490
3.128,-0.420,-0.465
3.131,-0.400,-0.465
3.133,-0.390,-0.455
3.136,-0.395,-0.450
3.139,-0.385,-0.450
3.142,-0.385,-0.455
3.144,-0.385,-0.470
3.147,-0.390,-0.465
3.150,-0.390,-0.475
3.153,-0.385,-0.490
3.156,-0.375,-0.500
3.158,-0.365,-0.500
3.161,-0.375,-0.495
3.164,-0.385,-0.500
3.167,-0.390,-0.505
3.169,-0.405,-0.505
3.172,-0.405,-0.510
3.175,-0.405,-0.515
3.178,-0.415,-0.515
3.181,-0.420,-0.525
3.183,-0.425,-0.525
3.186,-0.425,-0.530
3.189,-0.440,-0.520
3.192,-0.445,-0.505
3.194,-0.440,-0.515
3.197,-0.450,-0.490
3.200,-0.435,-0.475
3.203,-0.450,-0.475
3.206,-0.455,-0.470
3.208,-0.470,-0.470
3.211,-0.485,-0.485
3.214,-0.500,-0.470
3.217,-0.515,-0.480
3.219,-0.525,-0.490
3.222,-0.525,-0.475
3.225,-0.515,-0.475
3.228,-0.505,-0.470
3.231,-0.505,-0.460
3.233,-0.500,-0.460
3.236,-0.480,-0.455
3.239,-0.485,-0.460
3.242,-0.490,-0.460
3.244,-0.490,-0.465
3.247,-0.495,-0.470
3.250,-0.500,-0.490
3.253,-0.500,-0.490
3.256,-0.500,-0.475
3.258,-0.495,-0.480
3.261,-0.505,-0.485
3.264,-0.510,-0.465
3.267,-0.530,-0.455
3.269,-0.535,-0.450
3.272,-0.540,-0.455
3.275,-0.515,-0.450
3.278,-0.460,-0.470
3.281,-0.380,-0.495
3.283,-0.255,-0.545
3.286,-0.095,-0.585
3.289,0.090,-0.620
3.292,0.295,-0.660
3.294,0.510,-0.695
3.297,0.685,-0.700
3.300,0.765,-0.675
3.303,0.715,-0.655
3.306,0.530,-0.620
3.308,0.270,-0.550
3.311,-0.010,-0.510
3.314,-0.265,-0.470
3.317,-0.430,-0.435
3.319,-0.505,-0.430
3.322,-0.490,-0.435
3.325,-0.450,-0.455
3.328,-0.395,-0.480
3.331,-0.365,-0.500
3.333,-0.340,-0.510
3.336,-0.340,-0.500
3.339,-0.360,-0.500
3.342,-0.370,-0.495
3.344,-0.400,-0.485
3.347,-0.425,-0.495
3.350,-0.445,-0.495
3.353,-0.455,-0.485
3.356,-0.460,-0.485
3.358,-0.460,-0.480
3.361,-0.460,-0.475
3.364,-0.460,-0.475
3.367,-0.450,-0.460
3.369,-0.455,-0.450
3.372,-0.450,-0.450
3.375,-0.450,-0.460
3.378,-0.465,-0.470
3.381,-0.465,-0.485
3.383,-0.470,-0.485
3.386,-0.475,-0.485
3.389,-0.485,-0.470
3.392,-0.475,-0.475
3.394,-0.470,-0.470
3.397,-0.460,-0.465
3.400,-0.455,-0.465
3.403,-0.445,-0.460
3.406,-0.445,-0.470
3.408,-0.450,-0.465
3.411,-0.445,-0.480
3.414,-0.455,-0.485
3.417,-0.455,-0.485
3.419,-0.455,-0.490
3.422,-0.465,-0.490
3.425,-0.455,-0.490
3.428,-0.455,-0.480
3.431,-0.445,-0.480
3.433,-0.435,-0.475
3.436,-0.435,-0.465
3.439,-0.430,-0.465
3.442,-0.430,-0.475
3.444,-0.425,-0.485
3.447,-0.445,-0.490
3.450,-0.440,-0.500
3.453,-0.440,-0.505
3.456,-0.450,-0.495
3.458,-0.440,-0.485
3.461,-0.445,-0.495
3.464,-0.435,-0.480
3.467,-0.435,-0.475
3.469,-0.425,-0.480
3.472,-0.420,-0.475
3.475,-0.420,-0.485
3.478,-0.425,-0.505
3.481,-0.430,-0.505
3.483,-0.425,-0.515
3.486,-0.435,-0.510
3.489,-0.435,-0.505
3.492,-0.420,-0.525
3.494,-0.425,-0.495
3.497,-0.410,-0.495
3.500,-0.410,-0.495
3.503,-0.400,-0.500
3.506,-0.400,-0.495
3.508,-0.390,-0.505
3.511,-0.395,-0.515
3.514,-0.405,-0.520
3.517,-0.410,-0.530
3.519,-0.410,-0.540
3.522,-0.420,-0.525
3.525,-0.415,-0.540
3.528,-0.405,-0.525
3.531,-0.390,-0.520
3.533,-0.385,-0.510
3.536,-0.390,-0.510
3.539,-0.385,-0.510
3.542,-0.380,-0.525
3.544,-0.385,-0.525
3.547,-0.390,-0.535
3.550,-0.395,-0.540
3.553,-0.405,-0.545
3.556,-0.400,-0.540
3.558,-0.390,-0.545
3.561,-0.390,-0.540
3.564,-0.380,-0.530
3.567,-0.360,-0.535
3.569,-0.350,-0.525
3.572,-0.335,-0.530
3.575,-0.330,-0.550
3.578,-0.335,-0.555
3.581,-0.330,-0.565
3.583,-0.340,-0.580
3.586,-0.330,-0.575
3.589,-0.325,-0.570
3.592,-0.320,-0.575
3.594,-0.310,-0.560
3.597,-0.300,-0.565
3.600,-0.295,-0.560
3.603,-0.285,-0.555
3.606,-0.285,-0.565
3.608,-0.290,-0.555
3.611,-0.300,-0.555
3.614,-0.310,-0.565
3.617,-0.325,-0.560
3.619,-0.345,-0.565
3.622,-0.345,-0.550
3.625,-0.345,-0.550
3.628,-0.355,-0.550
3.631,-0.340,-0.520
3.633,-0.355,-0.525
3.636,-0.355,-0.515
3.639,-0.365,-0.510
3.642,-0.360,-0.515
3.644,-0.375,-0.520
3.647,-0.375,-0.525
3.650,-0.385,-0.530
3.653,-0.405,-0.525
3.656,-0.410,-0.520
3.658,-0.415,-0.520
3.661,-0.405,-0.500
3.664,-0.405,-0.495
3.667,-0.400,-0.485
3.669,-0.390,-0.485
3.672,-0.390,-0.480
3.675,-0.395,-0.485
3.678,-0.400,-0.495
3.681,-0.405,-0.500
3.683,-0.425,-0.510
3.686,-0.420,-0.495
3.689,-0.425,-0.500
3.692,-0.430,-0.495
3.694,-0.425,-0.495
3.697,-0.420,-0.490
3.700,-0.410,-0.475
3.703,-0.415,-0.470
3.706,-0.420,-0.485
3.708,-0.410,-0.475
3.711,-0.410,-0.490
3.714,-0.415,-0.495
3.717,-0.425,-0.495
3.719,-0.435,-0.500
3.722,-0.435,-0.500
3.725,-0.440,-0.495
3.728,-0.445,-0.485
3.731,-0.430,-0.475
3.733,-0.425,-0.470
3.736,-0.420,-0.470
3.739,-0.420,-0.470
3.742,-0.425,-0.475
3.744,-0.420,-0.485
3.747,-0.435,-0.485
3.750,-0.440,-0.495
3.753,-0.445,-0.495
3.756,-0.455,-0.495
3.758,-0.455,-0.495
3.761,-0.450,-0.475
3.764,-0.435,-0.475
3.767,-0.450,-0.460
3.769,-0.445,-0.470
3.772,-0.440,-0.465
3.775,-0.440,-0.465
3.778,-0.445,-0.475
3.781,-0.445,-0.495
3.783,-0.455,-0.480
3.786,-0.450,-0.500
3.789,-0.455,-0.495
3.792,-0.465,-0.480
3.794,-0.450,-0.470
3.797,-0.445,-0.460
3.800,-0.420,-0.465
3.803,-0.405,-0.470
3.806,-0.400,-0.455
3.808,-0.400,-0.460
3.811,-0.390,-0.470
3.814,-0.390,-0.480
3.817,-0.395,-0.470
3.819,-0.390,-0.470
3.822,-0.390,-0.475
3.825,-0.395,-0.470
3.828,-0.390,-0.455
3.831,-0.370,-0.455
3.833,-0.365,-0.455
3.836,-0.345,-0.460
3.839,-0.335,-0.470
3.842,-0.330,-0.475
3.844,-0.345,-0.495
3.847,-0.355,-0.505
3.850,-0.375,-0.520
3.853,-0.400,-0.520
3.856,-0.410,-0.535
3.858,-0.410,-0.510
3.861,-0.400,-0.515
3.864,-0.405,-0.500
3.867,-0.400,-0.495
3.869,-0.400,-0.490
3.872,-0.405,-0.495
3.875,-0.405,-0.495
3.878,-0.410,-0.500
3.881,-0.425,-0.500
3.883,-0.440,-0.495
3.886,-0.460,-0.495
3.889,-0.475,-0.480
3.892,-0.485,-0.465
3.894,-0.490,-0.465
3.897,-0.485,-0.460
3.900,-0.490,-0.445
3.903,-0.470,-0.450
3.906,-0.480,-0.465
3.908,-0.480,-0.460
3.911,-0.480,-0.475
3.914,-0.490,-0.470
3.917,-0.495,-0.475
3.919,-0.495,-0.485
3.922,-0.500,-0.480
3.925,-0.500,-0.475
3.928,-0.490,-0.475
3.931,-0.495,-0.470
3.933,-0.485,-0.455
3.936,-0.475,-0.460
3.939,-0.485,-0.460
3.942,-0.490,-0.460
3.944,-0.515,-0.465
3.947,-0.530,-0.465
3.950,-0.555,-0.475
3.953,-0.515,-0.495
3.956,-0.435,-0.505
3.958,-0.315,-0.530
3.961,-0.140,-0.565
3.964,0.075,-0.620
3.967,0.310,-0.670
3.969,0.550,-0.695
3.972,0.710,-0.715
3.975,0.745,-0.690
3.978,0.635,-0.655
3.981,0.385,-0.610
3.983,0.090,-0.545
3.986,-0.190,-0.490
3.989,-0.395,-0.425
3.992,-0.495,-0.415
3.994,-0.495,-0.420
3.997,-0.440,-0.445
4.000,-0.370,-0.460
4.003,-0.325,-0.500
4.006,-0.305,-0.500
4.008,-0.310,-0.510
4.011,-0.330,-0.505
4.014,-0.365,-0.495
4.017,-0.405,-0.495
4.019,-0.425,-0.500
4.022,-0.450,-0.490
4.025,-0.450,-0.485
4.028,-0.445,-0.480
4.031,-0.445,-0.465
4.033,-0.430,-0.460
4.036,-0.435,-0.455
4.039,-0.430,-0.460
4.042,-0.435,-0.465
4.044,-0.445,-0.475
4.047,-0.465,-0.480
4.050,-0.455,-0.475
4.053,-0.460,-0.490
4.056,-0.465,-0.475
4.058,-0.465,-0.485
4.061,-0.465,-0.470
4.064,-0.455,-0.465
4.067,-0.440,-0.460
4.069,-0.440,-0.460
4.072,-0.440,-0.465
4.075,-0.440,-0.460
4.078,-0.445,-0.465
4.081,-0.450,-0.475
4.083,-0.455,-0.485
4.086,-0.445,-0.475
4.089,-0.445,-0.480
4.092,-0.455,-0.475
4.094,-0.440,-0.465
4.097,-0.430,-0.470
4.100,-0.425,-0.455
4.103,-0.410,-0.460
4.106,-0.405,-0.465
4.108,-0.400,-0.475
4.111,-0.415,-0.470
4.114,-0.415,-0.480
4.117,-0.420,-0.485
4.119,-0.425,-0.490
4.122,-0.425,-0.495
4.125,-0.425,-0.490
4.128,-0.420,-0.485
4.131,-0.415,-0.475
4.133,-0.400,-0.475
4.136,-0.400,-0.475
4.139,-0.410,-0.475
4.142,-0.400,-0.475
4.144,-0.405,-0.485
4.147,-0.405,-0.495
4.150,-0.410,-0.500
4.153,-0.410,-0.510
4.156,-0.400,-0.505
4.158,-0.415,-0.510
4.161,-0.400,-0.490
4.164,-0.385,-0.495
4.167,-0.380,-0.495
4.169,-0.365,-0.480
4.172,-0.370,-0.485
4.175,-0.355,-0.495
4.178,-0.360,-0.505
4.181,-0.370,-0.520
4.183,-0.380,-0.520
4.186,-0.385,-0.525
4.189,-0.380,-0.530
4.192,-0.385,-0.515
4.194,-0.390,-0.505
4.197,-0.375,-0.500
4.200,-0.360,-0.500
4.203,-0.355,-0.500
4.206,-0.355,-0.510
4.208,-0.335,-0.505
4.211,-0.345,-0.525
4.214,-0.355,-0.530
4.217,-0.365,-0.540
4.219,-0.360,-0.550
4.222,-0.360,-0.540
4.225,-0.360,-0.545
4.228,-0.355,-0.530
4.231,-0.335,-0.530
4.233,-0.325,-0.535
4.236,-0.310,-0.530
4.239,-0.295,-0.530
4.242,-0.300,-0.535
4.244,-0.290,-0.540
4.247,-0.285,-0.560
4.250,-0.275,-0.555
4.253,-0.275,-0.565
4.256,-0.275,-0.560
4.258,-0.280,-0.560
4.261,-0.275,-0.555
4.264,-0.275,-0.545
4.267,-0.270,-0.530
4.269,-0.260,-0.530
4.272,-0.270,-0.545
4.275,-0.270,-0.535
4.278,-0.285,-0.545
4.281,-0.300,-0.545
4.283,-0.320,-0.555
4.286,-0.340,-0.545
4.289,-0.350,-0.545
4.292,-0.355,-0.535
4.294,-0.350,-0.520
4.297,-0.345,-0.510
4.300,-0.335,-0.505
4.303,-0.340,-0.490
4.306,-0.340,-0.500
4.308,-0.340,-0.495
4.311,-0.355,-0.500
4.314,-0.370,-0.510
4.317,-0.385,-0.505
4.319,-0.390,-0.505
4.322,-0.395,-0.505
4.325,-0.410,-0.490
4.328,-0.400,-0.490
4.331,-0.395,-0.475
4.333,-0.390,-0.470
4.336,-0.390,-0.470
4.339,-0.410,-0.465
4.342,-0.395,-0.465
4.344,-0.400,-0.475
4.347,-0.405,-0.475
4.350,-0.415,-0.480
4.353,-0.425,-0.495
4.356,-0.425,-0.485
4.358,-0.440,-0.480
4.361,-0.445,-0.470
4.364,-0.430,-0.460
4.367,-0.430,-0.465
4.369,-0.425,-0.460
4.372,-0.420,-0.460
4.375,-0.415,-0.470
4.378,-0.420,-0.475
4.381,-0.420,-0.475
4.383,-0.430,-0.485
4.386,-0.435,-0.485
4.389,-0.435,-0.480
4.392,-0.440,-0.480
4.394,-0.445,-0.475
4.397,-0.435,-0.470
4.400,-0.425,-0.460
4.403,-0.430,-0.455
4.406,-0.430,-0.460
4.408,-0.430,-0.455
4.411,-0.430,-0.460
4.414,-0.435,-0.475
4.417,-0.445,-0.475
4.419,-0.445,-0.485
4.422,-0.455,-0.475
4.425,-0.450,-0.475
4.428,-0.445,-0.470
4.431,-0.445,-0.465
4.433,-0.430,-0.460
4.436,-0.430,-0.445
4.439,-0.430,-0.460
4.442,-0.440,-0.470
4.444,-0.440,-0.470
4.447,-0.445,-0.470
4.450,-0.450,-0.470
4.453,-0.450,-0.470
4.456,-0.445,-0.465
4.458,-0.445,-0.465
4.461,-0.425,-0.455
4.464,-0.420,-0.455
4.467,-0.410,-0.450
4.469,-0.400,-0.440
4.472,-0.390,-0.430
4.475,-0.390,-0.435
4.478,-0.390,-0.445
4.481,-0.385,-0.455
4.483,-0.395,-0.460
4.486,-0.400,-0.465
4.489,-0.400,-0.465
4.492,-0.385,-0.450
4.494,-0.370,-0.450
4.497,-0.345,-0.450
4.500,-0.345,-0.450
4.503,-0.340,-0.460
4.506,-0.345,-0.465
4.508,-0.355,-0.480
4.511,-0.365,-0.500
4.514,-0.390,-0.495
4.517,-0.400,-0.505
4.519,-0.410,-0.510
4.522,-0.410,-0.510
4.525,-0.410,-0.500
4.528,-0.400,-0.495
4.531,-0.400,-0.475
4.533,-0.395,-0.470
4.536,-0.395,-0.465
4.539,-0.405,-0.475
4.542,-0.405,-0.470
4.544,-0.420,-0.470
4.547,-0.440,-0.485
4.550,-0.455,-0.475
4.553,-0.465,-0.475
4.556,-0.485,-0.470
4.558,-0.500,-0.475
4.561,-0.485,-0.455
4.564,-0.485,-0.460
4.567,-0.470,-0.445
4.569,-0.470,-0.445
4.572,-0.465,-0.460
4.575,-0.465,-0.440
4.578,-0.470,-0.450
4.581,-0.480,-0.460
4.583,-0.480,-0.465
4.586,-0.480,-0.470
4.589,-0.485,-0.460
4.592,-0.495,-0.460
4.594,-0.490,-0.455
4.597,-0.480,-0.460
4.600,-0.470,-0.450
4.603,-0.465,-0.430
4.606,-0.470,-0.445
4.608,-0.485,-0.440
4.611,-0.505,-0.450
4.614,-0.530,-0.450
4.617,-0.520,-0.465
4.619,-0.475,-0.475
4.622,-0.380,-0.485
4.625,-0.250,-0.510
4.628,-0.075,-0.540
4.631,0.140,-0.580
4.633,0.365,-0.620
4.636,0.590,-0.655
4.639,0.770,-0.675
4.642,0.855,-0.670
4.644,0.795,-0.645
4.647,0.615,-0.600
4.650,0.335,-0.545
4.653,0.045,-0.485
4.656,-0.205,-0.415
4.658,-0.380,-0.380
4.661,-0.450,-0.360
4.664,-0.455,-0.365
4.667,-0.425,-0.375
4.669,-0.370,-0.410
4.672,-0.345,-0.440
4.675,-0.345,-0.460
4.678,-0.360,-0.485
4.681,-0.360,-0.505
4.683,-0.385,-0.485
4.686,-0.400,-0.490
4.689,-0.430,-0.490
4.692,-0.440,-0.465
4.694,-0.445,-0.450
4.697,-0.445,-0.455
4.700,-0.440,-0.450
4.703,-0.435,-0.435
4.706,-0.435,-0.435
4.708,-0.445,-0.435
4.711,-0.435,-0.450
4.714,-0.460,-0.455
4.717,-0.455,-0.465
4.719,-0.460,-0.470
4.722,-0.465,-0.465
4.725,-0.460,-0.460
4.728,-0.450,-0.445
4.731,-0.435,-0.440
4.733,-0.430,-0.430
4.736,-0.425,-0.425
4.739,-0.430,-0.435
4.742,-0.435,-0.445
4.744,-0.435,-0.450
4.747,-0.440,-0.460
4.750,-0.450,-0.465
4.753,-0.450,-0.475
4.756,-0.455,-0.460
4.758,-0.460,-0.455
4.761,-0.455,-0.445
4.764,-0.455,-0.445
4.767,-0.445,-0.430
4.769,-0.435,-0.435
4.772,-0.430,-0.440
4.775,-0.425,-0.435
4.778,-0.425,-0.460
4.781,-0.420,-0.460
4.783,-0.435,-0.475
4.786,-0.430,-0.475
4.789,-0.430,-0.465
4.792,-0.435,-0.465
4.794,-0.430,-0.465
4.797,-0.425,-0.460
4.800,-0.420,-0.445
4.803,-0.400,-0.450
4.806,-0.405,-0.460
4.808,-0.390,-0.465
4.811,-0.400,-0.465
4.814,-0.400,-0.480
4.817,-0.405,-0.485
4.819,-0.415,-0.480
4.822,-0.420,-0.485
4.825,-0.430,-0.485
4.828,-0.420,-0.480
4.831,-0.425,-0.480
4.833,-0.415,-0.480
4.836,-0.410,-0.470
4.839,-0.410,-0.475
4.842,-0.400,-0.480
4.844,-0.400,-0.480
4.847,-0.410,-0.490
4.850,-0.420,-0.495
4.853,-0.425,-0.500
4.856,-0.430,-0.505
4.858,-0.445,-0.500
4.861,-0.435,-0.500
4.864,-0.425,-0.495
4.867,-0.420,-0.490
4.869,-0.405,-0.490
4.872,-0.395,-0.490
4.875,-0.380,-0.500
4.878,-0.385,-0.510
4.881,-0.395,-0.525
4.883,-0.405,-0.530
4.886,-0.405,-0.535
4.889,-0.410,-0.530
4.892,-0.400,-0.520
4.894,-0.390,-0.530
4.897,-0.375,-0.520
4.900,-0.360,-0.520
4.903,-0.335,-0.510
4.906,-0.335,-0.525
4.908,-0.315,-0.520
4.911,-0.310,-0.530
4.914,-0.330,-0.535
4.917,-0.325,-0.545
4.919,-0.340,-0.540
4.922,-0.335,-0.545
4.925,-0.340,-0.540
4.928,-0.330,-0.530
4.931,-0.335,-0.525
4.933,-0.320,-0.510
4.936,-0.325,-0.515
4.939,-0.330,-0.510
4.942,-0.330,-0.505
4.944,-0.335,-0.515
4.947,-0.340,-0.510
4.950,-0.340,-0.520
4.953,-0.360,-0.510
4.956,-0.375,-0.510
4.958,-0.385,-0.505
4.961,-0.375,-0.495
4.964,-0.380,-0.480
4.967,-0.385,-0.475
4.969,-0.385,-0.455
4.972,-0.385,-0.465
4.975,-0.380,-0.460
4.978,-0.380,-0.475
4.981,-0.395,-0.470
4.983,-0.400,-0.470
4.986,-0.420,-0.475
4.989,-0.435,-0.485
4.992,-0.440,-0.470
4.994,-0.435,-0.455
4.997,-0.415,-0.450
5.000,-0.405,-0.435
5.003,-0.395,-0.440
5.006,-0.395,-0.440
5.008,-0.390,-0.440
5.011,-0.400,-0.450
5.014,-0.415,-0.445
5.017,-0.420,-0.460
5.019,-0.430,-0.465
5.022,-0.425,-0.460
5.025,-0.430,-0.450
5.028,-0.425,-0.455
5.031,-0.435,-0.435
5.033,-0.425,-0.440
5.036,-0.420,-0.425
5.039,-0.430,-0.430
5.042,-0.425,-0.430
5.044,-0.435,-0.440
5.047,-0.440,-0.455
5.050,-0.460,-0.460
5.053,-0.460,-0.455
5.056,-0.465,-0.450
5.058,-0.460,-0.455
5.061,-0.450,-0.435
5.064,-0.445,-0.430
5.067,-0.440,-0.425
5.069,-0.435,-0.415
5.072,-0.425,-0.420
5.075,-0.425,-0.430
5.078,-0.430,-0.430
5.081,-0.435,-0.445
5.083,-0.430,-0.450
5.086,-0.435,-0.450
5.089,-0.440,-0.445
5.092,-0.450,-0.435
5.094,-0.460,-0.440
5.097,-0.460,-0.430
5.100,-0.450,-0.430
5.103,-0.445,-0.430
5.106,-0.445,-0.425
5.108,-0.440,-0.430
5.111,-0.440,-0.435
5.114,-0.440,-0.440
5.117,-0.430,-0.440
5.119,-0.425,-0.450
5.122,-0.410,-0.440
5.125,-0.415,-0.430
5.128,-0.405,-0.405
5.131,-0.395,-0.400
5.133,-0.385,-0.405
5.136,-0.385,-0.395
5.139,-0.375,-0.405
5.142,-0.365,-0.410
5.144,-0.350,-0.420
5.147,-0.350,-0.430
5.150,-0.350,-0.445
5.153,-0.365,-0.460
5.156,-0.375,-0.470
5.158,-0.390,-0.465
5.161,-0.405,-0.465
5.164,-0.405,-0.460
5.167,-0.405,-0.450
5.169,-0.395,-0.445
5.172,-0.395,-0.450
5.175,-0.395,-0.440
5.178,-0.400,-0.450
5.181,-0.415,-0.455
5.183,-0.435,-0.460
5.186,-0.440,-0.465
5.189,-0.445,-0.455
5.192,-0.460,-0.440
5.194,-0.465,-0.440
5.197,-0.460,-0.430
5.200,-0.470,-0.425
5.203,-0.475,-0.415
5.206,-0.480,-0.410
5.208,-0.485,-0.420
5.211,-0.485,-0.430
5.214,-0.490,-0.430
5.217,-0.490,-0.440
5.219,-0.490,-0.450
5.222,-0.495,-0.425
5.225,-0.495,-0.435
5.228,-0.490,-0.440
5.231,-0.480,-0.420
5.233,-0.470,-0.425
5.236,-0.475,-0.420
5.239,-0.465,-0.420
5.242,-0.465,-0.415
5.244,-0.465,-0.435
5.247,-0.475,-0.435
5.250,-0.495,-0.440
5.253,-0.510,-0.450
5.256,-0.530,-0.440
5.258,-0.535,-0.445
5.261,-0.510,-0.440
5.264,-0.450,-0.435
5.267,-0.340,-0.455
5.269,-0.205,-0.475
5.272,-0.020,-0.515
5.275,0.195,-0.565
5.278,0.420,-0.590
5.281,0.620,-0.620
5.283,0.755,-0.620
5.286,0.790,-0.630
5.289,0.670,-0.570
5.292,0.435,-0.520
5.294,0.150,-0.455
5.297,-0.135,-0.410
5.300,-0.355,-0.370
5.303,-0.485,-0.345
5.306,-0.515,-0.340
5.308,-0.485,-0.360
5.311,-0.450,-0.390
5.314,-0.405,-0.430
5.317,-0.385,-0.450
5.319,-0.395,-0.485
5.322,-0.405,-0.480
5.325,-0.410,-0.480
5.328,-0.415,-0.460
5.331,-0.415,-0.450
5.333,-0.425,-0.445
5.336,-0.430,-0.430
5.339,-0.435,-0.430
5.342,-0.435,-0.445
5.344,-0.450,-0.450
5.347,-0.465,-0.460
5.350,-0.470,-0.470
5.353,-0.485,-0.475
5.356,-0.470,-0.460
5.358,-0.475,-0.455
5.361,-0.470,-0.450
5.364,-0.465,-0.450
5.367,-0.460,-0.445
5.369,-0.455,-0.435
5.372,-0.435,-0.435
5.375,-0.445,-0.445
5.378,-0.440,-0.445
5.381,-0.440,-0.450
5.383,-0.455,-0.455
5.386,-0.455,-0.455
5.389,-0.450,-0.465
5.392,-0.450,-0.465
5.394,-0.445,-0.455
5.397,-0.445,-0.445
5.400,-0.440,-0.435
5.403,-0.435,-0.435
5.406,-0.435,-0.435
5.408,-0.425,-0.440
5.411,-0.425,-0.455
5.414,-0.435,-0.465
5.417,-0.440,-0.470
5.419,-0.440,-0.465
5.422,-0.445,-0.470
5.425,-0.450,-0.465
5.428,-0.445,-0.450
5.431,-0.435,-0.460
5.433,-0.430,-0.450
5.436,-0.420,-0.440
5.439,-0.415,-0.450
5.442,-0.410,-0.455
5.444,-0.405,-0.465
5.447,-0.410,-0.475
5.450,-0.415,-0.485
5.453,-0.420,-0.490
5.456,-0.425,-0.490
5.458,-0.420,-0.480
5.461,-0.410,-0.470
5.464,-0.410,-0.465
5.467,-0.400,-0.460
5.469,-0.395,-0.455
5.472,-0.390,-0.460
5.475,-0.390,-0.475
5.478,-0.390,-0.480
5.481,-0.395,-0.485
5.483,-0.405,-0.495
5.486,-0.415,-0.505
5.489,-0.420,-0.500
5.492,-0.420,-0.495
5.494,-0.420,-0.490
5.497,-0.400,-0.490
5.500,-0.400,-0.495
5.503,-0.395,-0.480
5.506,-0.390,-0.485
5.508,-0.390,-0.495
5.511,-0.395,-0.500
5.514,-0.395,-0.505
5.517,-0.400,-0.520
5.519,-0.410,-0.525
5.522,-0.405,-0.525
5.525,-0.405,-0.525
5.528,-0.395,-0.515
5.531,-0.390,-0.515
5.533,-0.380,-0.505
5.536,-0.370,-0.500
5.539,-0.365,-0.505
5.542,-0.365,-0.510
5.544,-0.360,-0.520
5.547,-0.345,-0.525
5.550,-0.350,-0.535
5.553,-0.350,-0.545
5.556,-0.355,-0.535
5.558,-0.345,-0.540
5.561,-0.330,-0.530
5.564,-0.320,-0.535
5.567,-0.315,-0.535
5.569,-0.295,-0.525
5.572,-0.295,-0.530
5.575,-0.290,-0.525
5.578,-0.285,-0.530
5.581,-0.290,-0.545
5.583,-0.300,-0.545
5.586,-0.310,-0.545
5.589,-0.310,-0.540
5.592,-0.325,-0.530
5.594,-0.315,-0.525
5.597,-0.325,-0.520
5.600,-0.320,-0.500
5.603,-0.335,-0.495
5.606,-0.330,-0.495
5.608,-0.325,-0.490
5.611,-0.330,-0.500
5.614,-0.340,-0.505
5.617,-0.355,-0.515
5.619,-0.360,-0.505
5.622,-0.370,-0.500
5.625,-0.375,-0.495
5.628,-0.375,-0.495
5.631,-0.370,-0.475
5.633,-0.365,-0.475
5.636,-0.365,-0.465
5.639,-0.355,-0.460
5.642,-0.360,-0.460
5.644,-0.365,-0.465
5.647,-0.380,-0.480
5.650,-0.365,-0.480
5.653,-0.385,-0.480
5.656,-0.390,-0.470
5.658,-0.395,-0.465
5.661,-0.390,-0.465
5.664,-0.390,-0.455
5.667,-0.380,-0.455
5.669,-0.365,-0.450
5.672,-0.360,-0.450
5.675,-0.365,-0.445
5.678,-0.365,-0.455
5.681,-0.370,-0.460
5.683,-0.370,-0.465
5.686,-0.385,-0.470
5.689,-0.390,-0.475
5.692,-0.390,-0.470
5.694,-0.385,-0.460
5.697,-0.385,-0.460
5.700,-0.380,-0.445
5.703,-0.375,-0.450
5.706,-0.370,-0.440
5.708,-0.365,-0.450
5.711,-0.370,-0.450
5.714,-0.375,-0.465
5.717,-0.380,-0.460
5.719,-0.390,-0.455
5.722,-0.390,-0.465
5.725,-0.400,-0.465
5.728,-0.395,-0.455
5.731,-0.395,-0.445
5.733,-0.380,-0.440
5.736,-0.380,-0.435
5.739,-0.370,-0.430
5.742,-0.375,-0.445
5.744,-0.380,-0.450
5.747,-0.385,-0.450
5.750,-0.395,-0.475
5.753,-0.405,-0.470
5.756,-0.410,-0.465
5.758,-0.405,-0.470
5.761,-0.405,-0.460
5.764,-0.400,-0.445
5.767,-0.390,-0.440
5.769,-0.380,-0.440
5.772,-0.375,-0.440
5.775,-0.380,-0.440
5.778,-0.365,-0.455
5.781,-0.360,-0.460
5.783,-0.365,-0.455
5.786,-0.360,-0.445
5.789,-0.345,-0.445
5.792,-0.355,-0.455
5.794,-0.345,-0.440
5.797,-0.335,-0.440
5.800,-0.325,-0.415
5.803,-0.320,-0.415
5.806,-0.315,-0.415
5.808,-0.310,-0.415
5.811,-0.295,-0.435
5.814,-0.300,-0.450
5.817,-0.290,-0.455
5.819,-0.290,-0.480
5.822,-0.310,-0.485
5.825,-0.320,-0.490
5.828,-0.330,-0.480
5.831,-0.325,-0.475
5.833,-0.345,-0.470
5.836,-0.335,-0.470
5.839,-0.325,-0.475
5.842,-0.330,-0.480
5.844,-0.340,-0.470
5.847,-0.355,-0.485
5.850,-0.365,-0.485
5.853,-0.375,-0.485
5.856,-0.375,-0.485
5.858,-0.385,-0.480
5.861,-0.390,-0.465
5.864,-0.400,-0.460
5.867,-0.400,-0.445
5.869,-0.405,-0.435
5.872,-0.415,-0.435
5.875,-0.405,-0.440
5.878,-0.415,-0.440
5.881,-0.420,-0.445
5.883,-0.430,-0.450
5.886,-0.430,-0.470
5.889,-0.425,-0.455
5.892,-0.430,-0.450
5.894,-0.425,-0.445
5.897,-0.415,-0.440
5.900,-0.410,-0.430
5.903,-0.405,-0.430
5.906,-0.400,-0.430
5.908,-0.405,-0.430
5.911,-0.410,-0.440
5.914,-0.395,-0.445
5.917,-0.405,-0.455
5.919,-0.410,-0.460
5.922,-0.420,-0.445
5.925,-0.440,-0.450
5.928,-0.450,-0.445
5.931,-0.465,-0.440
5.933,-0.440,-0.420
5.936,-0.410,-0.420
5.939,-0.335,-0.430
5.942,-0.215,-0.465
5.944,-0.090,-0.500
5.947,0.080,-0.540
5.950,0.270,-0.585
5.953,0.450,-0.625
5.956,0.620,-0.650
5.958,0.730,-0.655
5.961,0.750,-0.620
5.964,0.650,-0.590
5.967,0.445,-0.545
5.969,0.200,-0.495
5.972,-0.050,-0.440
5.975,-0.250,-0.400
5.978,-0.365,-0.400
5.981,-0.390,-0.415
5.983,-0.370,-0.445
5.986,-0.330,-0.470
5.989,-0.295,-0.480
5.992,-0.285,-0.500
5.994,-0.275,-0.495
5.997,-0.280,-0.480
6.000,-0.295,-0.470
6.003,-0.315,-0.450
6.006,-0.335,-0.445
6.008,-0.340,-0.450
6.011,-0.355,-0.450
6.014,-0.365,-0.445
6.017,-0.375,-0.460
6.019,-0.380,-0.470
6.022,-0.380,-0.465
6.025,-0.395,-0.455
6.028,-0.395,-0.450
6.031,-0.390,-0.440
6.033,-0.385,-0.435
6.036,-0.365,-0.430
6.039,-0.360,-0.425
6.042,-0.370,-0.435
6.044,-0.365,-0.430
6.047,-0.370,-0.445
6.050,-0.370,-0.450
6.053,-0.385,-0.455
6.056,-0.385,-0.455
6.058,-0.380,-0.450
6.061,-0.370,-0.435
6.064,-0.370,-0.440
6.067,-0.375,-0.435
6.069,-0.365,-0.430
6.072,-0.355,-0.430
6.075,-0.360,-0.435
6.078,-0.355,-0.435
6.081,-0.365,-0.450
6.083,-0.370,-0.460
6.086,-0.375,-0.460
6.089,-0.375,-0.450
6.092,-0.385,-0.450
6.094,-0.375,-0.445
6.097,-0.365,-0.445
6.100,-0.360,-0.445
6.103,-0.350,-0.435
6.106,-0.350,-0.445
6.108,-0.350,-0.455
6.111,-0.345,-0.460
6.114,-0.355,-0.470
6.117,-0.350,-0.465
6.119,-0.370,-0.475
6.122,-0.360,-0.470
6.125,-0.355,-0.470
6.128,-0.360,-0.470
6.131,-0.345,-0.465
6.133,-0.345,-0.460
6.136,-0.335,-0.455
6.139,-0.330,-0.455
6.142,-0.330,-0.465
6.144,-0.335,-0.460
6.147,-0.335,-0.480
6.150,-0.340,-0.490
6.153,-0.345,-0.480
6.156,-0.345,-0.495
6.158,-0.355,-0.490
6.161,-0.340,-0.485
6.164,-0.335,-0.485
6.167,-0.330,-0.480
6.169,-0.320,-0.475
6.172,-0.320,-0.460
6.175,-0.320,-0.485
6.178,-0.320,-0.480
6.181,-0.315,-0.485
6.183,-0.325,-0.495
6.186,-0.330,-0.500
6.189,-0.335,-0.505
6.192,-0.335,-0.500
6.194,-0.320,-0.500
6.197,-0.310,-0.495
6.200,-0.310,-0.485
6.203,-0.305,-0.480
6.206,-0.300,-0.480
6.208,-0.295,-0.495
6.211,-0.295,-0.490
6.214,-0.300,-0.505
6.217,-0.305,-0.510
6.219,-0.305,-0.515
6.222,-0.300,-0.525
6.225,-0.305,-0.525
6.228,-0.300,-0.510
6.231,-0.285,-0.515
6.233,-0.265,-0.500
6.236,-0.260,-0.510
6.239,-0.250,-0.505
6.242,-0.245,-0.510
6.244,-0.240,-0.515
6.247,-0.240,-0.525
6.250,-0.245,-0.535
6.253,-0.240,-0.540
6.256,-0.240,-0.545
6.258,-0.245,-0.545
6.261,-0.250,-0.535
6.264,-0.235,-0.530
6.267,-0.240,-0.525
6.269,-0.220,-0.505
6.272,-0.235,-0.510
6.275,-0.215,-0.510
6.278,-0.230,-0.515
6.281,-0.240,-0.535
6.283,-0.260,-0.530
6.286,-0.270,-0.530
6.289,-0.275,-0.530
6.292,-0.285,-0.520
6.294,-0.285,-0.515
6.297,-0.275,-0.505
6.300,-0.285,-0.490
6.303,-0.280,-0.480
6.306,-0.280,-0.485
6.308,-0.285,-0.490
6.311,-0.290,-0.485
6.314,-0.320,-0.485
6.317,-0.330,-0.490
6.319,-0.330,-0.505
6.322,-0.330,-0.495
6.325,-0.340,-0.485
6.328,-0.335,-0.475
6.331,-0.335,-0.480
6.333,-0.335,-0.465
6.336,-0.335,-0.460
6.339,-0.330,-0.455
6.342,-0.340,-0.455
6.344,-0.325,-0.460
6.347,-0.335,-0.475
6.350,-0.350,-0.480
6.353,-0.355,-0.475
6.356,-0.355,-0.485
6.358,-0.350,-0.475
6.361,-0.350,-0.470
6.364,-0.350,-0.460
6.367,-0.340,-0.455
6.369,-0.345,-0.450
6.372,-0.335,-0.455
6.375,-0.350,-0.455
6.378,-0.345,-0.460
6.381,-0.350,-0.465
6.383,-0.360,-0.480
6.386,-0.375,-0.495
6.389,-0.365,-0.475
6.392,-0.370,-0.485
6.394,-0.370,-0.470
6.397,-0.360,-0.455
6.400,-0.355,-0.460
6.403,-0.355,-0.445
6.406,-0.355,-0.450
6.408,-0.350,-0.450
6.411,-0.350,-0.460
6.414,-0.360,-0.465
6.417,-0.375,-0.470
6.419,-0.375,-0.480
6.422,-0.375,-0.485
6.425,-0.380,-0.475
6.428,-0.380,-0.470
6.431,-0.370,-0.455
6.433,-0.365,-0.455
6.436,-0.360,-0.455
6.439,-0.355,-0.460
6.442,-0.360,-0.450
6.444,-0.370,-0.455
6.447,-0.370,-0.465
6.450,-0.385,-0.470
6.453,-0.390,-0.480
6.456,-0.405,-0.475
6.458,-0.400,-0.465
6.461,-0.390,-0.465
6.464,-0.380,-0.460
6.467,-0.370,-0.460
6.469,-0.365,-0.445
6.472,-0.350,-0.455
6.475,-0.335,-0.450
6.478,-0.335,-0.455
6.481,-0.335,-0.460
6.483,-0.325,-0.460
6.486,-0.335,-0.470
6.489,-0.335,-0.460
6.492,-0.335,-0.460
6.494,-0.335,-0.445
6.497,-0.325,-0.445
6.500,-0.310,-0.445
6.503,-0.305,-0.430
6.506,-0.280,-0.435
6.508,-0.275,-0.455
6.511,-0.270,-0.465
6.514,-0.280,-0.485
6.517,-0.290,-0.500
6.519,-0.310,-0.505
6.522,-0.325,-0.505
6.525,-0.345,-0.515
6.528,-0.345,-0.510
6.531,-0.350,-0.495
6.533,-0.340,-0.480
6.536,-0.345,-0.470
6.539,-0.340,-0.470
6.542,-0.340,-0.475
6.544,-0.345,-0.490
6.547,-0.355,-0.485
6.550,-0.380,-0.490
6.553,-0.390,-0.485
6.556,-0.415,-0.485
6.558,-0.425,-0.465
6.561,-0.440,-0.465
6.564,-0.440,-0.455
6.567,-0.435,-0.450
6.569,-0.425,-0.445
6.572,-0.410,-0.445
6.575,-0.405,-0.445
6.578,-0.410,-0.450
6.581,-0.405,-0.460
6.583,-0.410,-0.460
6.586,-0.425,-0.460
6.589,-0.425,-0.455
6.592,-0.430,-0.465
6.594,-0.420,-0.455
6.597,-0.415,-0.460
6.600,-0.410,-0.450
6.603,-0.400,-0.445
6.606,-0.395,-0.440
6.608,-0.400,-0.445
6.611,-0.405,-0.455
6.614,-0.425,-0.455
6.617,-0.450,-0.460
6.619,-0.470,-0.470
6.622,-0.460,-0.465
6.625,-0.435,-0.465
6.628,-0.355,-0.470
6.631,-0.245,-0.490
6.633,-0.100,-0.515
6.636,0.075,-0.560
6.639,0.280,-0.605
6.642,0.470,-0.640
6.644,0.650,-0.665
6.647,0.760,-0.675
6.650,0.755,-0.665
6.653,0.615,-0.620
6.656,0.380,-0.580
6.658,0.085,-0.510
6.661,-0.175,-0.450
6.664,-0.345,-0.410
6.667,-0.425,-0.390
6.669,-0.415,-0.400
6.672,-0.355,-0.425
6.675,-0.295,-0.460
6.678,-0.270,-0.480
6.681,-0.260,-0.495
6.683,-0.285,-0.490
6.686,-0.305,-0.485
6.689,-0.335,-0.490
6.692,-0.360,-0.475
6.694,-0.375,-0.470
6.697,-0.380,-0.455
6.700,-0.385,-0.440
6.703,-0.370,-0.440
6.706,-0.370,-0.440
6.708,-0.370,-0.445
6.711,-0.370,-0.440
6.714,-0.380,-0.435
6.717,-0.390,-0.450
6.719,-0.395,-0.465
6.722,-0.400,-0.445
6.725,-0.395,-0.450
6.728,-0.385,-0.445
6.731,-0.385,-0.440
6.733,-0.380,-0.430
6.736,-0.375,-0.430
6.739,-0.370,-0.425
6.742,-0.370,-0.430
6.744,-0.375,-0.440
6.747,-0.380,-0.450
6.750,-0.375,-0.450
6.753,-0.380,-0.450
6.756,-0.385,-0.455
6.758,-0.375,-0.450
6.761,-0.385,-0.450
6.764,-0.375,-0.445
6.767,-0.375,-0.445
6.769,-0.365,-0.430
6.772,-0.360,-0.430
6.775,-0.355,-0.430
6.778,-0.360,-0.445
6.781,-0.365,-0.440
6.783,-0.380,-0.450
6.786,-0.385,-0.460
6.789,-0.385,-0.460
6.792,-0.385,-0.455
6.794,-0.380,-0.460
6.797,-0.365,-0.445
6.800,-0.360,-0.445
6.803,-0.350,-0.455
6.806,-0.340,-0.440
6.808,-0.330,-0.445
6.811,-0.340,-0.450
6.814,-0.345,-0.460
6.817,-0.350,-0.475
6.819,-0.355,-0.485
6.822,-0.355,-0.480
6.825,-0.345,-0.480
6.828,-0.350,-0.470
6.831,-0.345,-0.480
6.833,-0.350,-0.465
6.836,-0.345,-0.460
6.839,-0.325,-0.465
6.842,-0.325,-0.460
6.844,-0.325,-0.475
6.847,-0.330,-0.475
6.850,-0.330,-0.495
6.853,-0.340,-0.500
6.856,-0.350,-0.500
6.858,-0.345,-0.500
6.861,-0.340,-0.495
6.864,-0.325,-0.495
6.867,-0.325,-0.475
6.869,-0.315,-0.475
6.872,-0.305,-0.485
6.875,-0.310,-0.480
6.878,-0.315,-0.495
6.881,-0.320,-0.505
6.883,-0.320,-0.520
6.886,-0.325,-0.525
6.889,-0.325,-0.520
6.892,-0.335,-0.520
6.894,-0.330,-0.515
6.897,-0.305,-0.510
6.900,-0.315,-0.500
6.903,-0.300,-0.495
6.906,-0.285,-0.515
6.908,-0.280,-0.525
6.911,-0.275,-0.515
6.914,-0.270,-0.530
6.917,-0.275,-0.540
6.919,-0.265,-0.555
6.922,-0.270,-0.550
6.925,-0.275,-0.545
6.928,-0.255,-0.545
6.931,-0.255,-0.535
6.933,-0.250,-0.530
6.936,-0.235,-0.515
6.939,-0.230,-0.520
6.942,-0.235,-0.535
6.944,-0.240,-0.535
6.947,-0.250,-0.530
6.950,-0.255,-0.545
6.953,-0.265,-0.535
6.956,-0.280,-0.540
6.958,-0.290,-0.520
6.961,-0.290,-0.520
6.964,-0.290,-0.520
6.967,-0.300,-0.505
6.969,-0.290,-0.490
6.972,-0.295,-0.485
6.975,-0.305,-0.485
6.978,-0.305,-0.490
6.981,-0.310,-0.490
6.983,-0.325,-0.490
6.986,-0.335,-0.485
6.989,-0.345,-0.500
6.992,-0.350,-0.485
6.994,-0.355,-0.475
6.997,-0.360,-0.475
7.000,-0.350,-0.460
7.003,-0.345,-0.450
7.006,-0.340,-0.450
7.008,-0.340,-0.450
7.011,-0.340,-0.450
7.014,-0.350,-0.465
7.017,-0.365,-0.470
7.019,-0.370,-0.475
7.022,-0.375,-0.475
7.025,-0.390,-0.465
7.028,-0.375,-0.455
7.031,-0.375,-0.465
7.033,-0.355,-0.445
7.036,-0.360,-0.450
7.039,-0.370,-0.445
7.042,-0.365,-0.445
7.044,-0.375,-0.450
7.047,-0.380,-0.460
7.050,-0.385,-0.475
7.053,-0.385,-0.470
7.056,-0.390,-0.475
7.058,-0.390,-0.465
7.061,-0.390,-0.460
7.064,-0.385,-0.445
7.067,-0.375,-0.455
7.069,-0.370,-0.440
7.072,-0.370,-0.440
7.075,-0.370,-0.445
7.078,-0.375,-0.445
7.081,-0.375,-0.450
7.083,-0.390,-0.455
7.086,-0.400,-0.465
7.089,-0.400,-0.465
7.092,-0.400,-0.465
7.094,-0.405,-0.450
7.097,-0.405,-0.440
7.100,-0.400,-0.445
7.103,-0.390,-0.435
7.106,-0.390,-0.440
7.108,-0.390,-0.435
7.111,-0.390,-0.445
7.114,-0.395,-0.455
7.117,-0.400,-0.460
7.119,-0.410,-0.460
7.122,-0.410,-0.455
7.125,-0.415,-0.460
7.128,-0.410,-0.450
7.131,-0.400,-0.445
7.133,-0.395,-0.445
7.136,-0.380,-0.440
7.139,-0.380,-0.430
7.142,-0.370,-0.440
7.144,-0.365,-0.440
7.147,-0.360,-0.450
7.150,-0.355,-0.455
7.153,-0.370,-0.465
7.156,-0.360,-0.460
7.158,-0.355,-0.450
7.161,-0.360,-0.450
7.164,-0.340,-0.445
7.167,-0.340,-0.430
7.169,-0.335,-0.425
7.172,-0.330,-0.420
7.175,-0.315,-0.430
7.178,-0.300,-0.425
7.181,-0.295,-0.450
7.183,-0.290,-0.475
7.186,-0.305,-0.475
7.189,-0.320,-0.485
7.192,-0.330,-0.490
7.194,-0.350,-0.490
7.197,-0.355,-0.485
7.200,-0.365,-0.475
7.203,-0.360,-0.465
7.206,-0.360,-0.460
7.208,-0.355,-0.470
7.211,-0.355,-0.470
7.214,-0.370,-0.470
7.217,-0.370,-0.480
7.219,-0.380,-0.480
7.222,-0.390,-0.485
7.225,-0.395,-0.480
7.228,-0.410,-0.465
7.231,-0.405,-0.450
7.233,-0.425,-0.445
7.236,-0.420,-0.430
7.239,-0.425,-0.430
7.242,-0.420,-0.425
7.244,-0.420,-0.430
7.247,-0.420,-0.440
7.250,-0.440,-0.455
7.253,-0.450,-0.460
7.256,-0.450,-0.465
7.258,-0.440,-0.440
7.261,-0.430,-0.445
7.264,-0.435,-0.435
7.267,-0.425,-0.435
7.269,-0.415,-0.430
7.272,-0.415,-0.435
7.275,-0.405,-0.450
7.278,-0.410,-0.435
7.281,-0.415,-0.445
7.283,-0.420,-0.460
7.286,-0.440,-0.460
7.289,-0.465,-0.460
7.292,-0.480,-0.450
7.294,-0.490,-0.440
7.297,-0.470,-0.445
7.300,-0.410,-0.440
7.303,-0.330,-0.455
7.306,-0.210,-0.485
7.308,-0.055,-0.535
7.311,0.125,-0.590
7.314,0.325,-0.645
7.317,0.510,-0.670
7.319,0.680,-0.710
7.322,0.755,-0.705
7.325,0.740,-0.675
7.328,0.600,-0.630
7.331,0.375,-0.575
7.333,0.125,-0.500
7.336,-0.120,-0.440
7.339,-0.300,-0.385
7.342,-0.400,-0.380
7.344,-0.425,-0.385
7.347,-0.390,-0.420
7.350,-0.340,-0.450
7.353,-0.320,-0.485
7.356,-0.305,-0.495
7.358,-0.310,-0.505
7.361,-0.325,-0.495
7.364,-0.340,-0.485
7.367,-0.365,-0.455
7.369,-0.370,-0.455
7.372,-0.380,-0.440
7.375,-0.385,-0.450
7.378,-0.405,-0.460
7.381,-0.395,-0.440
7.383,-0.395,-0.460
7.386,-0.400,-0.455
7.389,-0.420,-0.460
7.392,-0.420,-0.450
7.394,-0.420,-0.455
7.397,-0.410,-0.445
7.400,-0.405,-0.430
7.403,-0.405,-0.430
7.406,-0.395,-0.435
7.408,-0.390,-0.440
7.411,-0.395,-0.450
7.414,-0.405,-0.440
7.417,-0.400,-0.450
7.419,-0.405,-0.450
7.422,-0.405,-0.465
7.425,-0.410,-0.450
7.428,-0.405,-0.455
7.431,-0.400,-0.455
7.433,-0.400,-0.440
7.436,-0.400,-0.435
7.439,-0.400,-0.440
7.442,-0.385,-0.435
7.444,-0.385,-0.435
7.447,-0.390,-0.450
7.450,-0.390,-0.460
7.453,-0.400,-0.460
7.456,-0.395,-0.465
7.458,-0.410,-0.465
7.461,-0.400,-0.455
7.464,-0.395,-0.440
7.467,-0.385,-0.445
7.469,-0.380,-0.430
7.472,-0.385,-0.440
7.475,-0.365,-0.450
7.478,-0.360,-0.460
7.481,-0.365,-0.465
7.483,-0.380,-0.460
7.486,-0.380,-0.465
7.489,-0.390,-0.480
7.492,-0.380,-0.475
7.494,-0.380,-0.480
7.497,-0.375,-0.465
7.500,-0.370,-0.460
7.503,-0.355,-0.450
7.506,-0.360,-0.460
7.508,-0.355,-0.465
7.511,-0.355,-0.460
7.514,-0.360,-0.470
7.517,-0.365,-0.475
7.519,-0.370,-0.485
7.522,-0.370,-0.495
7.525,-0.380,-0.485
7.528,-0.380,-0.485
7.531,-0.375,-0.475
7.533,-0.380,-0.475
7.536,-0.360,-0.470
7.539,-0.365,-0.470
7.542,-0.380,-0.475
7.544,-0.370,-0.470
7.547,-0.380,-0.480
7.550,-0.390,-0.495
7.553,-0.395,-0.510
7.556,-0.395,-0.500
7.558,-0.400,-0.505
7.561,-0.385,-0.505
7.564,-0.375,-0.500
7.567,-0.365,-0.490
7.569,-0.355,-0.480
7.572,-0.345,-0.485
7.575,-0.340,-0.500
7.578,-0.335,-0.490
7.581,-0.335,-0.495
7.583,-0.335,-0.500
7.586,-0.345,-0.520
7.589,-0.345,-0.525
7.592,-0.345,-0.525
7.594,-0.340,-0.520
7.597,-0.325,-0.520
7.600,-0.295,-0.515
7.603,-0.290,-0.525
7.606,-0.280,-0.520
7.608,-0.270,-0.520
7.611,-0.260,-0.525
7.614,-0.260,-0.535
7.617,-0.265,-0.535
7.619,-0.265,-0.560
7.622,-0.270,-0.550
7.625,-0.275,-0.535
7.628,-0.275,-0.530
7.631,-0.275,-0.525
7.633,-0.285,-0.520
7.636,-0.280,-0.510
7.639,-0.280,-0.500
7.642,-0.280,-0.510
7.644,-0.290,-0.500
7.647,-0.300,-0.505
7.650,-0.310,-0.515
7.653,-0.330,-0.510
7.656,-0.345,-0.505
7.658,-0.345,-0.500
7.661,-0.355,-0.495
7.664,-0.350,-0.490
7.667,-0.345,-0.480
7.669,-0.350,-0.465
7.672,-0.350,-0.460
7.675,-0.345,-0.460
7.678,-0.355,-0.465
7.681,-0.370,-0.475
7.683,-0.380,-0.480
7.686,-0.395,-0.470
7.689,-0.385,-0.485
7.692,-0.390,-0.485
7.694,-0.405,-0.470
7.697,-0.390,-0.475
7.700,-0.390,-0.455
7.703,-0.385,-0.460
7.706,-0.370,-0.445
7.708,-0.380,-0.465
7.711,-0.375,-0.450
7.714,-0.380,-0.460
7.717,-0.390,-0.470
7.719,-0.405,-0.475
7.722,-0.390,-0.475
7.725,-0.405,-0.470
7.728,-0.395,-0.460
7.731,-0.395,-0.455
7.733,-0.400,-0.450
7.736,-0.390,-0.455
7.739,-0.390,-0.440
7.742,-0.400,-0.450
7.744,-0.390,-0.450
7.747,-0.405,-0.465
7.750,-0.405,-0.475
7.753,-0.415,-0.460
7.756,-0.420,-0.465
7.758,-0.425,-0.455
7.761,-0.415,-0.465
7.764,-0.415,-0.450
7.767,-0.415,-0.455
7.769,-0.405,-0.440
7.772,-0.400,-0.435
7.775,-0.400,-0.435
7.778,-0.405,-0.450
7.781,-0.405,-0.450
7.783,-0.415,-0.460
7.786,-0.420,-0.465
7.789,-0.425,-0.470
7.792,-0.420,-0.465
7.794,-0.420,-0.465
7.797,-0.420,-0.460
7.800,-0.405,-0.445
7.803,-0.400,-0.435
7.806,-0.395,-0.435
7.808,-0.390,-0.445
7.811,-0.390,-0.450
7.814,-0.385,-0.455
7.817,-0.400,-0.455
7.819,-0.390,-0.460
7.822,-0.395,-0.460
7.825,-0.385,-0.445
7.828,-0.370,-0.445
7.831,-0.375,-0.440
7.833,-0.360,-0.430
7.836,-0.355,-0.415
7.839,-0.340,-0.420
7.842,-0.320,-0.425
7.844,-0.305,-0.430
7.847,-0.300,-0.460
7.850,-0.305,-0.455
7.853,-0.315,-0.485
7.856,-0.335,-0.495
7.858,-0.360,-0.495
7.861,-0.375,-0.495
7.864,-0.385,-0.485
7.867,-0.390,-0.475
7.869,-0.390,-0.470
7.872,-0.395,-0.465
7.875,-0.390,-0.470
7.878,-0.390,-0.475
7.881,-0.385,-0.480
7.883,-0.390,-0.490
7.886,-0.405,-0.480
7.889,-0.405,-0.485
7.892,-0.425,-0.470
7.894,-0.450,-0.455
7.897,-0.445,-0.455
7.900,-0.455,-0.440
7.903,-0.445,-0.435
7.906,-0.450,-0.430
7.908,-0.445,-0.440
7.911,-0.445,-0.430
7.914,-0.440,-0.445
7.917,-0.450,-0.450
7.919,-0.450,-0.460
7.922,-0.465,-0.450
7.925,-0.455,-0.455
7.928,-0.455,-0.445
7.931,-0.445,-0.445
7.933,-0.440,-0.435
7.936,-0.435,-0.425
7.939,-0.435,-0.425
7.942,-0.430,-0.435
7.944,-0.430,-0.440
7.947,-0.455,-0.460
7.950,-0.475,-0.455
7.953,-0.500,-0.455
7.956,-0.510,-0.460
7.958,-0.500,-0.450
7.961,-0.445,-0.470
7.964,-0.350,-0.470
7.967,-0.205,-0.510
7.969,-0.025,-0.550
7.972,0.200,-0.595
7.975,0.450,-0.675
7.978,0.695,-0.700
7.981,0.850,-0.720
7.983,0.885,-0.705
7.986,0.745,-0.660
7.989,0.485,-0.590
7.992,0.165,-0.500
7.994,-0.130,-0.430
7.997,-0.335,-0.370
8.000,-0.435,-0.345
8.003,-0.440,-0.345
8.006,-0.405,-0.375
8.008,-0.340,-0.425
8.011,-0.305,-0.460
8.014,-0.310,-0.490
8.017,-0.320,-0.495
8.019,-0.340,-0.495
8.022,-0.365,-0.485
8.025,-0.400,-0.470
8.028,-0.425,-0.465
8.031,-0.435,-0.445
8.033,-0.430,-0.445
8.036,-0.415,-0.445
8.039,-0.405,-0.435
8.042,-0.405,-0.445
8.044,-0.400,-0.435
8.047,-0.405,-0.435
8.050,-0.410,-0.445
8.053,-0.420,-0.455
8.056,-0.435,-0.450
8.058,-0.435,-0.460
8.061,-0.445,-0.450
8.064,-0.430,-0.435
8.067,-0.425,-0.425
8.069,-0.415,-0.420
8.072,-0.405,-0.425
8.075,-0.410,-0.430
8.078,-0.415,-0.430
8.081,-0.400,-0.430
8.083,-0.420,-0.450
8.086,-0.420,-0.460
8.089,-0.430,-0.460
8.092,-0.430,-0.445
8.094,-0.435,-0.445
8.097,-0.435,-0.440
8.100,-0.425,-0.440
8.103,-0.415,-0.430
8.106,-0.405,-0.430
8.108,-0.400,-0.430
8.111,-0.390,-0.440
8.114,-0.385,-0.440
8.117,-0.380,-0.445
8.119,-0.395,-0.455
8.122,-0.400,-0.460
8.125,-0.410,-0.450
8.128,-0.405,-0.450
8.131,-0.405,-0.450
8.133,-0.385,-0.440
8.136,-0.375,-0.435
8.139,-0.370,-0.425
8.142,-0.380,-0.440
8.144,-0.390,-0.440
8.147,-0.390,-0.455
8.150,-0.405,-0.470
8.153,-0.405,-0.475
8.156,-0.415,-0.470
8.158,-0.420,-0.480
8.161,-0.410,-0.470
8.164,-0.400,-0.465
8.167,-0.380,-0.470
8.169,-0.380,-0.450
8.172,-0.370,-0.450
8.175,-0.375,-0.455
8.178,-0.385,-0.475
8.181,-0.380,-0.460
8.183,-0.390,-0.485
8.186,-0.405,-0.490
8.189,-0.410,-0.500
8.192,-0.405,-0.485
8.194,-0.405,-0.485
8.197,-0.405,-0.480
8.200,-0.390,-0.475
8.203,-0.375,-0.475
8.206,-0.365,-0.460
8.208,-0.360,-0.485
8.211,-0.365,-0.475
8.214,-0.360,-0.485
8.217,-0.375,-0.495
8.219,-0.375,-0.505
8.222,-0.380,-0.495
8.225,-0.390,-0.505
8.228,-0.395,-0.510
8.231,-0.390,-0.495
8.233,-0.380,-0.485
8.236,-0.360,-0.490
8.239,-0.340,-0.490
8.242,-0.335,-0.490
8.244,-0.325,-0.500
8.247,-0.325,-0.505
8.250,-0.315,-0.515
8.253,-0.315,-0.525
8.256,-0.310,-0.540
8.258,-0.310,-0.540
8.261,-0.305,-0.530
8.264,-0.295,-0.530
8.267,-0.290,-0.515
8.269,-0.285,-0.510
8.272,-0.285,-0.505
8.275,-0.280,-0.500
8.278,-0.270,-0.515
8.281,-0.285,-0.515
8.283,-0.290,-0.515
8.286,-0.305,-0.530
8.289,-0.305,-0.520
8.292,-0.310,-0.520
8.294,-0.320,-0.505
8.297,-0.320,-0.500
8.300,-0.325,-0.490
8.303,-0.330,-0.485
8.306,-0.320,-0.470
8.308,-0.335,-0.485
8.311,-0.335,-0.470
8.314,-0.350,-0.490
8.317,-0.350,-0.490
8.319,-0.365,-0.490
8.322,-0.360,-0.485
8.325,-0.375,-0.480
8.328,-0.380,-0.475
8.331,-0.375,-0.475
8.333,-0.375,-0.450
8.336,-0.375,-0.440
8.339,-0.365,-0.435
8.342,-0.370,-0.445
8.344,-0.375,-0.440
8.347,-0.375,-0.455
8.350,-0.385,-0.455
8.353,-0.390,-0.460
8.356,-0.410,-0.470
8.358,-0.420,-0.460
8.361,-0.410,-0.450
8.364,-0.400,-0.440
8.367,-0.400,-0.450
8.369,-0.390,-0.425
8.372,-0.370,-0.425
8.375,-0.370,-0.425
8.378,-0.375,-0.430
8.381,-0.390,-0.430
8.383,-0.400,-0.430
8.386,-0.410,-0.455
8.389,-0.415,-0.445
8.392,-0.415,-0.435
8.394,-0.415,-0.440
8.397,-0.415,-0.425
8.400,-0.405,-0.425
8.403,-0.405,-0.415
8.406,-0.395,-0.415
8.408,-0.395,-0.420
8.411,-0.385,-0.415
8.414,-0.400,-0.425
8.417,-0.395,-0.435
8.419,-0.405,-0.440
8.422,-0.415,-0.450
8.425,-0.425,-0.445
8.428,-0.420,-0.430
8.431,-0.425,-0.430
8.433,-0.425,-0.425
8.436,-0.430,-0.415
8.439,-0.420,-0.415
8.442,-0.420,-0.415
8.444,-0.420,-0.415
8.447,-0.420,-0.425
8.450,-0.425,-0.435
8.453,-0.425,-0.440
8.456,-0.430,-0.445
8.458,-0.440,-0.435
8.461,-0.450,-0.435
8.464,-0.445,-0.430
8.467,-0.445,-0.415
8.469,-0.440,-0.405
8.472,-0.430,-0.410
8.475,-0.405,-0.415
8.478,-0.390,-0.410
8.481,-0.370,-0.415
8.483,-0.365,-0.420
8.486,-0.365,-0.425
8.489,-0.365,-0.420
8.492,-0.380,-0.415
8.494,-0.390,-0.410
8.497,-0.385,-0.410
8.500,-0.390,-0.395
8.503,-0.365,-0.395
8.506,-0.355,-0.385
8.508,-0.345,-0.390
8.511,-0.335,-0.410
8.514,-0.340,-0.420
8.517,-0.345,-0.435
8.519,-0.360,-0.455
8.522,-0.360,-0.460
8.525,-0.380,-0.455
8.528,-0.375,-0.460
8.531,-0.375,-0.450
8.533,-0.385,-0.440
8.536,-0.385,-0.430
8.539,-0.390,-0.425
8.542,-0.395,-0.430
8.544,-0.400,-0.435
8.547,-0.400,-0.440
8.550,-0.410,-0.435
8.553,-0.415,-0.445
8.556,-0.445,-0.440
8.558,-0.455,-0.440
8.561,-0.465,-0.420
8.564,-0.470,-0.415
8.567,-0.470,-0.410
8.569,-0.455,-0.400
8.572,-0.445,-0.395
8.575,-0.450,-0.415
8.578,-0.440,-0.400
8.581,-0.450,-0.400
8.583,-0.450,-0.405
8.586,-0.470,-0.420
8.589,-0.465,-0.425
8.592,-0.470,-0.410
8.594,-0.465,-0.425
8.597,-0.460,-0.415
8.600,-0.460,-0.420
8.603,-0.455,-0.405
8.606,-0.450,-0.400
8.608,-0.460,-0.400
8.611,-0.460,-0.400
8.614,-0.490,-0.415
8.617,-0.520,-0.420
8.619,-0.535,-0.430
8.622,-0.520,-0.420
8.625,-0.480,-0.430
8.628,-0.380,-0.450
8.631,-0.250,-0.470
8.633,-0.065,-0.495
8.636,0.150,-0.540
8.639,0.390,-0.575
8.642,0.630,-0.625
8.644,0.825,-0.630
8.647,0.930,-0.625
8.650,0.885,-0.600
8.653,0.700,-0.555
8.656,0.410,-0.485
8.658,0.065,-0.420
8.661,-0.225,-0.375
8.664,-0.425,-0.330
8.667,-0.500,-0.300
8.669,-0.500,-0.300
8.672,-0.435,-0.325
8.675,-0.390,-0.360
8.678,-0.350,-0.400
8.681,-0.335,-0.430
8.683,-0.360,-0.445
8.686,-0.370,-0.450
8.689,-0.395,-0.460
8.692,-0.410,-0.450
8.694,-0.430,-0.425
8.697,-0.435,-0.430
8.700,-0.440,-0.425
8.703,-0.425,-0.405
8.706,-0.400,-0.405
8.708,-0.410,-0.415
8.711,-0.410,-0.410
8.714,-0.410,-0.420
8.717,-0.420,-0.425
8.719,-0.435,-0.430
8.722,-0.445,-0.430
8.725,-0.450,-0.430
8.728,-0.455,-0.425
8.731,-0.455,-0.425
8.733,-0.455,-0.410
8.736,-0.455,-0.415
8.739,-0.430,-0.400
8.742,-0.435,-0.410
8.744,-0.435,-0.405
8.747,-0.425,-0.410
8.750,-0.420,-0.415
8.753,-0.430,-0.430
8.756,-0.440,-0.450
8.758,-0.440,-0.430
8.761,-0.435,-0.435
8.764,-0.425,-0.425
8.767,-0.425,-0.420
8.769,-0.420,-0.420
8.772,-0.405,-0.410
8.775,-0.410,-0.425
8.778,-0.405,-0.415
8.781,-0.395,-0.420
8.783,-0.400,-0.430
8.786,-0.400,-0.430
8.789,-0.410,-0.445
8.792,-0.420,-0.440
8.794,-0.420,-0.440
8.797,-0.405,-0.420
8.800,-0.410,-0.435
8.803,-0.395,-0.420
8.806,-0.385,-0.415
8.808,-0.395,-0.430
8.811,-0.385,-0.425
8.814,-0.390,-0.425
8.817,-0.395,-0.430
8.819,-0.390,-0.445
8.822,-0.400,-0.450
8.825,-0.405,-0.455
8.828,-0.405,-0.455
8.831,-0.400,-0.445
8.833,-0.395,-0.445
8.836,-0.375,-0.435
8.839,-0.375,-0.425
8.842,-0.370,-0.440
8.844,-0.370,-0.440
8.847,-0.380,-0.445
8.850,-0.390,-0.455
8.853,-0.400,-0.470
8.856,-0.405,-0.470
8.858,-0.400,-0.475
8.861,-0.400,-0.480
8.864,-0.390,-0.465
8.867,-0.400,-0.460
8.869,-0.385,-0.455
8.872,-0.385,-0.455
8.875,-0.380,-0.455
8.878,-0.375,-0.460
8.881,-0.390,-0.470
8.883,-0.385,-0.490
8.886,-0.400,-0.485
8.889,-0.400,-0.495
8.892,-0.400,-0.495
8.894,-0.410,-0.490
8.897,-0.395,-0.495
8.900,-0.390,-0.480
8.903,-0.380,-0.485
8.906,-0.365,-0.470
8.908,-0.360,-0.490
8.911,-0.345,-0.485
8.914,-0.345,-0.500
8.917,-0.335,-0.505
8.919,-0.335,-0.515
8.922,-0.325,-0.510
8.925,-0.320,-0.515
8.928,-0.325,-0.515
8.931,-0.325,-0.500
8.933,-0.305,-0.495
8.936,-0.305,-0.500
8.939,-0.300,-0.480
8.942,-0.285,-0.485
8.944,-0.285,-0.490
8.947,-0.290,-0.490
8.950,-0.305,-0.500
8.953,-0.320,-0.500
8.956,-0.330,-0.505
8.958,-0.330,-0.495
8.961,-0.350,-0.485
8.964,-0.350,-0.475
8.967,-0.335,-0.465
8.969,-0.330,-0.455
8.972,-0.330,-0.460
8.975,-0.340,-0.460
8.978,-0.340,-0.445
8.981,-0.355,-0.460
8.983,-0.370,-0.465
8.986,-0.380,-0.465
8.989,-0.385,-0.470
8.992,-0.390,-0.465
8.994,-0.395,-0.455
8.997,-0.385,-0.450
9.000,-0.385,-0.435
9.003,-0.390,-0.435
9.006,-0.380,-0.420
9.008,-0.385,-0.425
9.011,-0.385,-0.420
9.014,-0.380,-0.420
9.017,-0.385,-0.430
9.019,-0.400,-0.430
9.022,-0.400,-0.440
9.025,-0.405,-0.445
9.028,-0.405,-0.435
9.031,-0.395,-0.425
9.033,-0.390,-0.415
9.036,-0.395,-0.415
9.039,-0.380,-0.400
9.042,-0.385,-0.425
9.044,-0.390,-0.430
9.047,-0.385,-0.430
9.050,-0.405,-0.425
9.053,-0.405,-0.430
9.056,-0.415,-0.435
9.058,-0.410,-0.430
9.061,-0.420,-0.425
9.064,-0.415,-0.415
9.067,-0.415,-0.410
9.069,-0.420,-0.405
9.072,-0.400,-0.410
9.075,-0.405,-0.405
9.078,-0.395,-0.405
9.081,-0.400,-0.410
9.083,-0.415,-0.415
9.086,-0.415,-0.430
9.089,-0.425,-0.425
9.092,-0.425,-0.415
9.094,-0.425,-0.425
9.097,-0.425,-0.415
9.100,-0.415,-0.410
9.103,-0.415,-0.405
9.106,-0.410,-0.385
9.108,-0.410,-0.395
9.111,-0.410,-0.405
9.114,-0.410,-0.405
9.117,-0.415,-0.420
9.119,-0.420,-0.415
9.122,-0.425,-0.420
9.125,-0.430,-0.420
9.128,-0.435,-0.420
9.131,-0.425,-0.400
9.133,-0.425,-0.400
9.136,-0.405,-0.395
9.139,-0.400,-0.390
9.142,-0.395,-0.395
9.144,-0.375,-0.390
9.147,-0.375,-0.390
9.150,-0.365,-0.405
9.153,-0.365,-0.400
9.156,-0.360,-0.400
9.158,-0.370,-0.410
9.161,-0.375,-0.400
9.164,-0.360,-0.395
9.167,-0.360,-0.380
9.169,-0.355,-0.375
9.172,-0.330,-0.380
9.175,-0.315,-0.385
9.178,-0.305,-0.400
9.181,-0.305,-0.415
9.183,-0.310,-0.425
9.186,-0.320,-0.445
9.189,-0.345,-0.450
9.192,-0.355,-0.455
9.194,-0.365,-0.450
9.197,-0.360,-0.435
9.200,-0.365,-0.435
9.203,-0.360,-0.415
9.206,-0.355,-0.420
9.208,-0.350,-0.435
9.211,-0.360,-0.420
9.214,-0.360,-0.425
9.217,-0.375,-0.430
9.219,-0.390,-0.440
9.222,-0.400,-0.435
9.225,-0.415,-0.430
9.228,-0.430,-0.425
9.231,-0.435,-0.410
9.233,-0.445,-0.395
9.236,-0.430,-0.400
9.239,-0.435,-0.395
9.242,-0.430,-0.390
9.244,-0.435,-0.385
9.247,-0.415,-0.395
9.250,-0.425,-0.395
9.253,-0.430,-0.415
9.256,-0.435,-0.420
9.258,-0.435,-0.415
9.261,-0.445,-0.415
9.264,-0.435,-0.410
9.267,-0.425,-0.395
9.269,-0.420,-0.390
9.272,-0.410,-0.385
9.275,-0.405,-0.395
9.278,-0.415,-0.395
9.281,-0.425,-0.400
9.283,-0.445,-0.405
9.286,-0.480,-0.410
9.289,-0.500,-0.415
9.292,-0.500,-0.405
9.294,-0.450,-0.415
9.297,-0.355,-0.425
9.300,-0.230,-0.450
9.303,-0.040,-0.480
9.306,0.185,-0.530
9.308,0.420,-0.585
9.311,0.655,-0.600
9.314,0.835,-0.615
9.317,0.900,-0.610
9.319,0.815,-0.580
9.322,0.590,-0.530
9.325,0.275,-0.475
9.328,-0.045,-0.420
9.331,-0.295,-0.375
9.333,-0.440,-0.335
9.336,-0.470,-0.340
9.339,-0.415,-0.355
9.342,-0.355,-0.400
9.344,-0.295,-0.425
9.347,-0.270,-0.450
9.350,-0.270,-0.460
9.353,-0.290,-0.475
9.356,-0.310,-0.480
9.358,-0.335,-0.445
9.361,-0.360,-0.430
9.364,-0.375,-0.440
9.367,-0.375,-0.420
9.369,-0.370,-0.420
9.372,-0.365,-0.405
9.375,-0.355,-0.410
9.378,-0.365,-0.425
9.381,-0.370,-0.415
9.383,-0.370,-0.410
9.386,-0.385,-0.430
9.389,-0.390,-0.435
9.392,-0.395,-0.425
9.394,-0.405,-0.435
9.397,-0.400,-0.415
9.400,-0.395,-0.410
9.403,-0.390,-0.405
9.406,-0.365,-0.395
9.408,-0.365,-0.400
9.411,-0.370,-0.420
9.414,-0.370,-0.415
9.417,-0.370,-0.425
9.419,-0.385,-0.430
9.422,-0.385,-0.440
9.425,-0.390,-0.435
9.428,-0.390,-0.430
9.431,-0.385,-0.425
9.433,-0.370,-0.415
9.436,-0.360,-0.410
9.439,-0.350,-0.410
9.442,-0.350,-0.405
9.444,-0.350,-0.415
9.447,-0.350,-0.415
9.450,-0.355,-0.435
9.453,-0.355,-0.435
9.456,-0.375,-0.450
9.458,-0.360,-0.440
9.461,-0.365,-0.440
9.464,-0.370,-0.440
9.467,-0.360,-0.420
9.469,-0.345,-0.425
9.472,-0.340,-0.415
9.475,-0.345,-0.435
9.478,-0.340,-0.435
9.481,-0.345,-0.445
9.483,-0.340,-0.450
9.486,-0.350,-0.460
9.489,-0.370,-0.470
9.492,-0.355,-0.465
9.494,-0.360,-0.460
9.497,-0.360,-0.460
9.500,-0.355,-0.455
9.503,-0.355,-0.445
9.506,-0.345,-0.445
9.508,-0.345,-0.450
9.511,-0.335,-0.445
9.514,-0.340,-0.455
9.517,-0.345,-0.470
9.519,-0.360,-0.470
9.522,-0.355,-0.485
9.525,-0.365,-0.485
9.528,-0.365,-0.475
9.531,-0.360,-0.475
9.533,-0.355,-0.465
9.536,-0.345,-0.465
9.539,-0.335,-0.465
9.542,-0.335,-0.455
9.544,-0.340,-0.470
9.547,-0.345,-0.480
9.550,-0.350,-0.490
9.553,-0.360,-0.490
9.556,-0.345,-0.500
9.558,-0.350,-0.500
9.561,-0.355,-0.505
9.564,-0.350,-0.495
9.567,-0.330,-0.490
9.569,-0.320,-0.485
9.572,-0.305,-0.475
9.575,-0.290,-0.485
9.578,-0.275,-0.495
9.581,-0.270,-0.495
9.583,-0.265,-0.510
9.586,-0.260,-0.520
9.589,-0.270,-0.525
9.592,-0.270,-0.525
9.594,-0.265,-0.515
9.597,-0.250,-0.525
9.600,-0.245,-0.515
9.603,-0.245,-0.500
9.606,-0.245,-0.500
9.608,-0.235,-0.490
9.611,-0.235,-0.490
9.614,-0.245,-0.500
9.617,-0.260,-0.500
9.619,-0.270,-0.510
9.622,-0.285,-0.510
9.625,-0.295,-0.500
9.628,-0.300,-0.495
9.631,-0.300,-0.480
9.633,-0.300,-0.485
9.636,-0.300,-0.480
9.639,-0.300,-0.465
9.642,-0.300,-0.465
9.644,-0.310,-0.465
9.647,-0.305,-0.465
9.650,-0.325,-0.480
9.653,-0.330,-0.485
9.656,-0.345,-0.475
9.658,-0.350,-0.475
9.661,-0.350,-0.470
9.664,-0.355,-0.465
9.667,-0.345,-0.450
9.669,-0.345,-0.455
9.672,-0.340,-0.445
9.675,-0.335,-0.450
9.678,-0.345,-0.445
9.681,-0.350,-0.440
9.683,-0.360,-0.450
9.686,-0.355,-0.465
9.689,-0.365,-0.465
9.692,-0.370,-0.465
9.694,-0.375,-0.470
9.697,-0.365,-0.455
9.700,-0.365,-0.445
9.703,-0.365,-0.435
9.706,-0.360,-0.430
9.708,-0.350,-0.440
9.711,-0.355,-0.440
9.714,-0.360,-0.435
9.717,-0.365,-0.445
9.719,-0.370,-0.445
9.722,-0.385,-0.465
9.725,-0.385,-0.455
9.728,-0.395,-0.455
9.731,-0.385,-0.440
9.733,-0.385,-0.435
9.736,-0.365,-0.430
9.739,-0.375,-0.420
9.742,-0.365,-0.430
9.744,-0.375,-0.435
9.747,-0.380,-0.440
9.750,-0.380,-0.450
9.753,-0.385,-0.455
9.756,-0.395,-0.455
9.758,-0.395,-0.455
9.761,-0.395,-0.450
9.764,-0.400,-0.445
9.767,-0.395,-0.445
9.769,-0.395,-0.435
9.772,-0.385,-0.425
9.775,-0.380,-0.425
9.778,-0.385,-0.435
9.781,-0.375,-0.440
9.783,-0.400,-0.445
9.786,-0.410,-0.460
9.789,-0.410,-0.455
9.792,-0.405,-0.450
9.794,-0.415,-0.440
9.797,-0.390,-0.440
9.800,-0.385,-0.440
9.803,-0.370,-0.420
9.806,-0.355,-0.420
9.808,-0.345,-0.420
9.811,-0.340,-0.410
9.814,-0.335,-0.415
9.817,-0.325,-0.425
9.819,-0.335,-0.425
9.822,-0.340,-0.430
9.825,-0.345,-0.430
9.828,-0.340,-0.435
9.831,-0.335,-0.430
9.833,-0.300,-0.430
9.836,-0.295,-0.425
9.839,-0.270,-0.430
9.842,-0.275,-0.435
9.844,-0.270,-0.455
9.847,-0.285,-0.465
9.850,-0.310,-0.480
9.853,-0.330,-0.495
9.856,-0.345,-0.495
9.858,-0.360,-0.500
9.861,-0.360,-0.475
9.864,-0.360,-0.480
9.867,-0.350,-0.465
9.869,-0.340,-0.460
9.872,-0.345,-0.450
9.875,-0.350,-0.450
9.878,-0.345,-0.460
9.881,-0.355,-0.460
9.883,-0.370,-0.475
9.886,-0.390,-0.470
9.889,-0.415,-0.475
9.892,-0.430,-0.465
9.894,-0.440,-0.450
9.897,-0.450,-0.450
9.900,-0.445,-0.445
9.903,-0.435,-0.430
9.906,-0.415,-0.435
9.908,-0.420,-0.435
9.911,-0.415,-0.435
9.914,-0.420,-0.430
9.917,-0.425,-0.445
9.919,-0.420,-0.450
9.922,-0.420,-0.460
9.925,-0.425,-0.450
9.928,-0.430,-0.455
9.931,-0.420,-0.445
9.933,-0.420,-0.440
9.936,-0.410,-0.425
9.939,-0.405,-0.425
9.942,-0.405,-0.440
9.944,-0.410,-0.430
9.947,-0.420,-0.440
9.950,-0.445,-0.430
9.953,-0.475,-0.440
9.956,-0.485,-0.440
9.958,-0.485,-0.445
9.961,-0.440,-0.450
9.964,-0.350,-0.450
9.967,-0.215,-0.490
9.969,-0.080,-0.520
9.972,0.105,-0.550
9.975,0.295,-0.605
9.978,0.515,-0.650
9.981,0.695,-0.670
9.983,0.830,-0.685
9.986,0.850,-0.670
9.989,0.745,-0.635
9.992,0.530,-0.600
9.994,0.245,-0.540
9.997,-0.040,-0.475
10.000,-0.260,-0.425
10.003,-0.380,-0.390
10.006,-0.415,-0.375
10.008,-0.380,-0.405
10.011,-0.320,-0.440
10.014,-0.280,-0.480
10.017,-0.270,-0.485
10.019,-0.265,-0.510
10.022,-0.290,-0.505
10.025,-0.305,-0.510
10.028,-0.345,-0.500
10.031,-0.360,-0.470
10.033,-0.370,-0.465
10.036,-0.370,-0.455
10.039,-0.370,-0.445
10.042,-0.375,-0.450
10.044,-0.365,-0.455
10.047,-0.370,-0.450
10.050,-0.380,-0.465
10.053,-0.380,-0.450
10.056,-0.400,-0.460
10.058,-0.400,-0.465
10.061,-0.405,-0.465
10.064,-0.400,-0.455
10.067,-0.405,-0.445
10.069,-0.395,-0.430
10.072,-0.400,-0.430
10.075,-0.390,-0.435
10.078,-0.395,-0.440
10.081,-0.385,-0.450
10.083,-0.385,-0.460
10.086,-0.390,-0.465
10.089,-0.385,-0.460
10.092,-0.390,-0.465
10.094,-0.390,-0.460
10.097,-0.395,-0.455
10.100,-0.385,-0.455
10.103,-0.375,-0.440
10.106,-0.370,-0.445
10.108,-0.370,-0.445
10.111,-0.360,-0.445
10.114,-0.360,-0.445
10.117,-0.365,-0.460
10.119,-0.370,-0.465
10.122,-0.380,-0.470
10.125,-0.375,-0.475
10.128,-0.375,-0.470
10.131,-0.365,-0.460
10.133,-0.375,-0.450
10.136,-0.370,-0.450
10.139,-0.360,-0.455
10.142,-0.340,-0.455
10.144,-0.335,-0.465
10.147,-0.335,-0.470
10.150,-0.340,-0.470
10.153,-0.345,-0.485
10.156,-0.350,-0.480
10.158,-0.355,-0.485
10.161,-0.360,-0.490
10.164,-0.350,-0.485
10.167,-0.345,-0.475
10.169,-0.345,-0.475
10.172,-0.340,-0.460
10.175,-0.325,-0.460
10.178,-0.325,-0.475
10.181,-0.330,-0.485
10.183,-0.335,-0.495
10.186,-0.345,-0.495
10.189,-0.345,-0.500
10.192,-0.350,-0.505
10.194,-0.350,-0.495
10.197,-0.340,-0.500
10.200,-0.335,-0.490
10.203,-0.330,-0.490
10.206,-0.315,-0.480
10.208,-0.325,-0.490
10.211,-0.320,-0.490
10.214,-0.315,-0.500
10.217,-0.330,-0.505
10.219,-0.335,-0.510
10.222,-0.330,-0.525
10.225,-0.325,-0.525
10.228,-0.335,-0.520
10.231,-0.330,-0.510
10.233,-0.320,-0.515
10.236,-0.330,-0.500
10.239,-0.315,-0.500
10.242,-0.300,-0.500
10.244,-0.300,-0.515
10.247,-0.300,-0.520
10.250,-0.290,-0.530
10.253,-0.290,-0.535
10.256,-0.270,-0.540
10.258,-0.265,-0.560
10.261,-0.270,-0.545
10.264,-0.260,-0.545
10.267,-0.245,-0.545
10.269,-0.240,-0.535
10.272,-0.235,-0.530
10.275,-0.215,-0.530
10.278,-0.210,-0.530
10.281,-0.220,-0.540
10.283,-0.220,-0.545
10.286,-0.235,-0.550
10.289,-0.235,-0.545
10.292,-0.255,-0.545
10.294,-0.260,-0.545
10.297,-0.260,-0.535
10.300,-0.260,-0.535
10.303,-0.260,-0.515
10.306,-0.265,-0.495
10.308,-0.260,-0.495
10.311,-0.265,-0.495
10.314,-0.270,-0.500
10.317,-0.285,-0.505
10.319,-0.290,-0.510
10.322,-0.300,-0.510
10.325,-0.310,-0.500
10.328,-0.325,-0.495
10.331,-0.325,-0.495
10.333,-0.320,-0.485
10.336,-0.320,-0.470
10.339,-0.310,-0.465
10.342,-0.310,-0.460
10.344,-0.310,-0.465
10.347,-0.315,-0.475
10.350,-0.320,-0.470
10.353,-0.330,-0.485
10.356,-0.330,-0.490
10.358,-0.340,-0.480
10.361,-0.335,-0.480
10.364,-0.345,-0.475
10.367,-0.335,-0.475
10.369,-0.335,-0.460
10.372,-0.325,-0.455
10.375,-0.320,-0.460
10.378,-0.320,-0.445
10.381,-0.330,-0.460
10.383,-0.330,-0.460
10.386,-0.340,-0.475
10.389,-0.350,-0.480
10.392,-0.350,-0.480
10.394,-0.355,-0.465
10.397,-0.345,-0.465
10.400,-0.345,-0.450
10.403,-0.350,-0.450
10.406,-0.335,-0.445
10.408,-0.340,-0.440
10.411,-0.340,-0.445
10.414,-0.340,-0.460
10.417,-0.355,-0.460
10.419,-0.360,-0.480
10.422,-0.370,-0.475
10.425,-0.375,-0.470
10.428,-0.380,-0.465
10.431,-0.375,-0.470
10.433,-0.365,-0.455
10.436,-0.370,-0.450
10.439,-0.360,-0.440
10.442,-0.360,-0.440
10.444,-0.360,-0.440
10.447,-0.360,-0.460
10.450,-0.365,-0.460
10.453,-0.375,-0.455
10.456,-0.385,-0.470
10.458,-0.390,-0.470
10.461,-0.390,-0.465
10.464,-0.385,-0.460
10.467,-0.375,-0.455
10.469,-0.380,-0.445
10.472,-0.360,-0.440
10.475,-0.365,-0.435
10.478,-0.365,-0.430
10.481,-0.350,-0.445
10.483,-0.355,-0.445
10.486,-0.355,-0.460
10.489,-0.360,-0.465
10.492,-0.355,-0.470
10.494,-0.355,-0.455
10.497,-0.345,-0.450
10.500,-0.330,-0.445
10.503,-0.315,-0.440
10.506,-0.305,-0.440
10.508,-0.295,-0.430
10.511,-0.300,-0.420
10.514,-0.295,-0.430
10.517,-0.300,-0.440
10.519,-0.290,-0.455
10.522,-0.285,-0.470
10.525,-0.275,-0.475
10.528,-0.280,-0.485
10.531,-0.285,-0.490
10.533,-0.290,-0.480
10.536,-0.305,-0.495
10.539,-0.305,-0.490
10.542,-0.310,-0.485
10.544,-0.330,-0.490
10.547,-0.330,-0.490
10.550,-0.345,-0.500
10.553,-0.335,-0.505
10.556,-0.350,-0.515
10.558,-0.360,-0.520
10.561,-0.360,-0.505
10.564,-0.360,-0.505
10.567,-0.365,-0.490
10.569,-0.365,-0.475
10.572,-0.370,-0.465
10.575,-0.385,-0.450
10.578,-0.385,-0.455
10.581,-0.400,-0.455
10.583,-0.410,-0.455
10.586,-0.415,-0.460
10.589,-0.420,-0.465
10.592,-0.425,-0.475
10.594,-0.420,-0.470
10.597,-0.425,-0.465
10.600,-0.410,-0.450
10.603,-0.415,-0.445
10.606,-0.400,-0.440
10.608,-0.400,-0.440
10.611,-0.400,-0.445
10.614,-0.400,-0.450
10.617,-0.405,-0.450
10.619,-0.405,-0.460
10.622,-0.415,-0.460
10.625,-0.420,-0.470
10.628,-0.430,-0.465
10.631,-0.440,-0.470
10.633,-0.460,-0.455
10.636,-0.470,-0.440
10.639,-0.465,-0.435
10.642,-0.440,-0.430
10.644,-0.375,-0.455
10.647,-0.285,-0.480
10.650,-0.160,-0.525
10.653,0.000,-0.585
10.656,0.195,-0.635
10.658,0.420,-0.680
10.661,0.615,-0.715
10.664,0.785,-0.725
10.667,0.845,-0.690
10.669,0.750,-0.665
10.672,0.540,-0.595
10.675,0.265,-0.545
10.678,-0.025,-0.480
10.681,-0.245,-0.420
10.683,-0.395,-0.380
10.686,-0.440,-0.395
10.689,-0.405,-0.420
10.692,-0.350,-0.460
10.694,-0.305,-0.490
10.697,-0.285,-0.510
10.700,-0.275,-0.510
10.703,-0.275,-0.510
10.706,-0.290,-0.490
10.708,-0.310,-0.480
10.711,-0.340,-0.470
10.714,-0.355,-0.460
10.717,-0.370,-0.475
10.719,-0.380,-0.470
10.722,-0.385,-0.490
10.725,-0.390,-0.485
10.728,-0.395,-0.485
10.731,-0.385,-0.465
10.733,-0.385,-0.465
10.736,-0.385,-0.455
10.739,-0.385,-0.435
10.742,-0.390,-0.440
10.744,-0.380,-0.450
10.747,-0.390,-0.455
10.750,-0.390,-0.460
10.753,-0.400,-0.465
10.756,-0.400,-0.465
10.758,-0.405,-0.475
10.761,-0.405,-0.470
10.764,-0.390,-0.465
10.767,-0.395,-0.450
10.769,-0.380,-0.460
10.772,-0.375,-0.440
10.775,-0.370,-0.445
10.778,-0.365,-0.455
10.781,-0.355,-0.445
10.783,-0.365,-0.460
10.786,-0.365,-0.460
10.789,-0.370,-0.480
10.792,-0.375,-0.490
10.794,-0.380,-0.475
10.797,-0.375,-0.470
10.800,-0.375,-0.460
10.803,-0.370,-0.450
10.806,-0.360,-0.450
10.808,-0.360,-0.445
10.811,-0.345,-0.460
10.814,-0.345,-0.455
10.817,-0.345,-0.475
10.819,-0.360,-0.470
10.822,-0.365,-0.480
10.825,-0.365,-0.490
10.828,-0.370,-0.485
10.831,-0.370,-0.470
10.833,-0.365,-0.470
10.836,-0.355,-0.465
10.839,-0.350,-0.455
10.842,-0.350,-0.455
10.844,-0.350,-0.470
10.847,-0.345,-0.475
10.850,-0.350,-0.470
10.853,-0.355,-0.495
10.856,-0.355,-0.495
10.858,-0.360,-0.490
10.861,-0.365,-0.490
10.864,-0.365,-0.495
10.867,-0.355,-0.485
10.869,-0.345,-0.485
10.872,-0.335,-0.475
10.875,-0.330,-0.480
10.878,-0.335,-0.470
10.881,-0.335,-0.485
10.883,-0.350,-0.500
10.886,-0.355,-0.510
10.889,-0.370,-0.510
10.892,-0.365,-0.510
10.894,-0.360,-0.505
10.897,-0.360,-0.505
10.900,-0.355,-0.500
10.903,-0.350,-0.505
10.906,-0.340,-0.485
10.908,-0.335,-0.490
10.911,-0.335,-0.500
10.914,-0.335,-0.500
10.917,-0.330,-0.510
10.919,-0.340,-0.525
10.922,-0.340,-0.530
10.925,-0.340,-0.530
10.928,-0.355,-0.520
10.931,-0.340,-0.525
10.933,-0.340,-0.515
10.936,-0.325,-0.505
10.939,-0.305,-0.505
10.942,-0.305,-0.505
10.944,-0.290,-0.510
10.947,-0.280,-0.525
10.950,-0.280,-0.535
10.953,-0.275,-0.545
10.956,-0.270,-0.555
10.958,-0.280,-0.555
10.961,-0.275,-0.545
10.964,-0.265,-0.550
10.967,-0.255,-0.545
10.969,-0.250,-0.545
10.972,-0.235,-0.535
10.975,-0.245,-0.530
10.978,-0.240,-0.540
10.981,-0.245,-0.540
10.983,-0.255,-0.550
10.986,-0.270,-0.545
10.989,-0.285,-0.550
10.992,-0.290,-0.555
10.994,-0.315,-0.555
10.997,-0.310,-0.545
11.000,-0.310,-0.540
11.003,-0.295,-0.515
11.006,-0.305,-0.515
11.008,-0.315,-0.510
11.011,-0.310,-0.510
11.014,-0.330,-0.505
11.017,-0.330,-0.510
11.019,-0.340,-0.520
11.022,-0.350,-0.515
11.025,-0.360,-0.520
11.028,-0.360,-0.510
11.031,-0.355,-0.495
11.033,-0.365,-0.495
11.036,-0.355,-0.490
11.039,-0.345,-0.475
11.042,-0.345,-0.475
11.044,-0.345,-0.485
11.047,-0.355,-0.485
11.050,-0.360,-0.480
11.053,-0.375,-0.490
11.056,-0.370,-0.495
11.058,-0.370,-0.500
11.061,-0.380,-0.485
11.064,-0.375,-0.490
11.067,-0.375,-0.475
11.069,-0.380,-0.470
11.072,-0.370,-0.460
11.075,-0.375,-0.465
11.078,-0.365,-0.475
11.081,-0.365,-0.475
11.083,-0.380,-0.470
11.086,-0.375,-0.475
11.089,-0.395,-0.495
11.092,-0.400,-0.485
11.094,-0.395,-0.485
11.097,-0.395,-0.485
11.100,-0.395,-0.480
11.103,-0.385,-0.465
11.106,-0.390,-0.450
11.108,-0.380,-0.460
11.111,-0.380,-0.465
11.114,-0.390,-0.465
11.117,-0.380,-0.460
11.119,-0.380,-0.465
11.122,-0.385,-0.480
11.125,-0.390,-0.480
11.128,-0.395,-0.480
11.131,-0.400,-0.480
11.133,-0.395,-0.465
11.136,-0.400,-0.455
11.139,-0.395,-0.445
11.142,-0.395,-0.450
11.144,-0.395,-0.455
11.147,-0.395,-0.465
11.150,-0.395,-0.460
11.153,-0.400,-0.480
11.156,-0.420,-0.470
11.158,-0.415,-0.480
11.161,-0.425,-0.470
11.164,-0.415,-0.465
11.167,-0.410,-0.470
11.169,-0.400,-0.460
11.172,-0.385,-0.455
11.175,-0.370,-0.445
11.178,-0.355,-0.455
11.181,-0.350,-0.450
11.183,-0.345,-0.455
11.186,-0.345,-0.460
11.189,-0.340,-0.470
11.192,-0.350,-0.450
11.194,-0.350,-0.445
11.197,-0.350,-0.450
11.200,-0.340,-0.440
11.203,-0.320,-0.435
11.206,-0.305,-0.435
11.208,-0.280,-0.445
11.211,-0.265,-0.465
11.214,-0.275,-0.470
11.217,-0.300,-0.490
11.219,-0.330,-0.500
11.222,-0.350,-0.520
11.225,-0.370,-0.525
11.228,-0.380,-0.515
11.231,-0.385,-0.500
11.233,-0.370,-0.500
11.236,-0.370,-0.485
11.239,-0.355,-0.475
11.242,-0.355,-0.480
11.244,-0.360,-0.480
11.247,-0.370,-0.485
11.250,-0.385,-0.480
11.253,-0.400,-0.490
11.256,-0.410,-0.480
11.258,-0.425,-0.485
11.261,-0.435,-0.480
11.264,-0.445,-0.465
11.267,-0.440,-0.445
11.269,-0.440,-0.450
11.272,-0.425,-0.435
11.275,-0.420,-0.430
11.278,-0.420,-0.440
11.281,-0.430,-0.440
11.283,-0.435,-0.440
11.286,-0.440,-0.460
11.289,-0.455,-0.465
11.292,-0.445,-0.455
11.294,-0.455,-0.460
11.297,-0.445,-0.450
11.300,-0.435,-0.450
11.303,-0.430,-0.440
11.306,-0.420,-0.435
11.308,-0.420,-0.430
11.311,-0.445,-0.435
11.314,-0.470,-0.430
11.317,-0.485,-0.440
11.319,-0.485,-0.445
11.322,-0.455,-0.460
11.325,-0.370,-0.485
11.328,-0.245,-0.515
11.331,-0.075,-0.555
11.333,0.145,-0.610
11.336,0.385,-0.660
11.339,0.615,-0.715
11.342,0.815,-0.735
11.344,0.895,-0.745
11.347,0.820,-0.700
11.350,0.595,-0.640
11.353,0.295,-0.555
11.356,-0.005,-0.475
11.358,-0.260,-0.410
11.361,-0.405,-0.370
11.364,-0.455,-0.355
11.367,-0.430,-0.375
11.369,-0.365,-0.410
11.372,-0.320,-0.450
11.375,-0.295,-0.465
11.378,-0.285,-0.495
11.381,-0.295,-0.505
11.383,-0.315,-0.500
11.386,-0.360,-0.480
11.389,-0.385,-0.475
11.392,-0.410,-0.485
11.394,-0.410,-0.470
11.397,-0.430,-0.455
11.400,-0.430,-0.445
11.403,-0.435,-0.445
11.406,-0.425,-0.440
11.408,-0.415,-0.450
11.411,-0.400,-0.445
11.414,-0.415,-0.440
11.417,-0.415,-0.450
11.419,-0.425,-0.460
11.422,-0.435,-0.470
11.425,-0.435,-0.465
11.428,-0.445,-0.470
11.431,-0.440,-0.465
11.433,-0.435,-0.460
11.436,-0.435,-0.445
11.439,-0.435,-0.435
11.442,-0.415,-0.440
11.444,-0.410,-0.450
11.447,-0.415,-0.445
11.450,-0.405,-0.460
11.453,-0.415,-0.460
11.456,-0.420,-0.465
11.458,-0.415,-0.470
11.461,-0.410,-0.455
11.464,-0.415,-0.455
11.467,-0.400,-0.465
11.469,-0.400,-0.455
11.472,-0.390,-0.440
11.475,-0.385,-0.445
11.478,-0.375,-0.450
11.481,-0.385,-0.455
11.483,-0.385,-0.470
11.486,-0.385,-0.470
11.489,-0.395,-0.475
11.492,-0.385,-0.480
11.494,-0.395,-0.475
11.497,-0.390,-0.480
11.500,-0.400,-0.475
11.503,-0.380,-0.470
11.506,-0.380,-0.460
11.508,-0.365,-0.460
11.511,-0.370,-0.465
11.514,-0.375,-0.470
11.517,-0.370,-0.470
11.519,-0.385,-0.475
11.522,-0.390,-0.480
11.525,-0.385,-0.490
11.528,-0.390,-0.485
11.531,-0.390,-0.495
11.533,-0.385,-0.475
11.536,-0.380,-0.475
11.539,-0.370,-0.475
11.542,-0.360,-0.470
11.544,-0.380,-0.470
11.547,-0.365,-0.485
11.550,-0.360,-0.485
11.553,-0.365,-0.495
11.556,-0.375,-0.505
11.558,-0.390,-0.500
11.561,-0.390,-0.500
11.564,-0.380,-0.505
11.567,-0.380,-0.485
11.569,-0.385,-0.495
11.572,-0.370,-0.500
11.575,-0.360,-0.485
11.578,-0.355,-0.480
11.581,-0.350,-0.495
11.583,-0.345,-0.510
11.586,-0.350,-0.515
11.589,-0.360,-0.515
11.592,-0.370,-0.520
11.594,-0.365,-0.525
11.597,-0.365,-0.520
11.600,-0.360,-0.520
11.603,-0.345,-0.520
11.606,-0.325,-0.515
11.608,-0.320,-0.510
11.611,-0.315,-0.520
11.614,-0.300,-0.525
11.617,-0.300,-0.530
11.619,-0.295,-0.540
11.622,-0.290,-0.545
11.625,-0.285,-0.545
11.628,-0.275,-0.560
11.631,-0.275,-0.545
11.633,-0.280,-0.530
11.636,-0.265,-0.520
11.639,-0.270,-0.520
11.642,-0.265,-0.525
11.644,-0.280,-0.525
11.647,-0.275,-0.515
11.650,-0.285,-0.515
11.653,-0.300,-0.530
11.656,-0.320,-0.530
11.658,-0.330,-0.525
11.661,-0.345,-0.510
11.664,-0.340,-0.505
11.667,-0.340,-0.500
11.669,-0.330,-0.480
11.672,-0.325,-0.480
11.675,-0.330,-0.465
11.678,-0.340,-0.470
11.681,-0.340,-0.480
11.683,-0.350,-0.475
11.686,-0.365,-0.485
11.689,-0.370,-0.495
11.692,-0.370,-0.490
11.694,-0.380,-0.480
11.697,-0.380,-0.460
11.700,-0.385,-0.455
11.703,-0.385,-0.455
11.706,-0.375,-0.445
11.708,-0.365,-0.440
11.711,-0.370,-0.450
11.714,-0.375,-0.450
11.717,-0.375,-0.455
11.719,-0.390,-0.465
11.722,-0.400,-0.465
11.725,-0.410,-0.480
11.728,-0.420,-0.470
11.731,-0.410,-0.460
11.733,-0.405,-0.445
11.736,-0.400,-0.445
11.739,-0.390,-0.430
11.742,-0.380,-0.430
11.744,-0.390,-0.440
11.747,-0.395,-0.440
11.750,-0.400,-0.450
11.753,-0.405,-0.450
11.756,-0.405,-0.460
11.758,-0.415,-0.460
11.761,-0.420,-0.465
11.764,-0.420,-0.455
11.767,-0.420,-0.440
11.769,-0.410,-0.445
11.772,-0.410,-0.440
11.775,-0.400,-0.425
11.778,-0.410,-0.430
11.781,-0.405,-0.430
11.783,-0.410,-0.445
11.786,-0.420,-0.460
11.789,-0.425,-0.455
11.792,-0.440,-0.450
11.794,-0.435,-0.455
11.797,-0.445,-0.445
11.800,-0.455,-0.440
11.803,-0.450,-0.435
11.806,-0.440,-0.430
11.808,-0.430,-0.420
11.811,-0.420,-0.430
11.814,-0.435,-0.430
11.817,-0.435,-0.430
11.819,-0.440,-0.435
11.822,-0.450,-0.445
11.825,-0.455,-0.440
11.828,-0.440,-0.445
11.831,-0.440,-0.430
11.833,-0.435,-0.435
11.836,-0.420,-0.430
11.839,-0.410,-0.415
11.842,-0.395,-0.410
11.844,-0.375,-0.405
11.847,-0.365,-0.415
11.850,-0.375,-0.410
11.853,-0.370,-0.410
11.856,-0.385,-0.430
11.858,-0.380,-0.430
11.861,-0.380,-0.425
11.864,-0.370,-0.410
11.867,-0.350,-0.420
11.869,-0.335,-0.415
11.872,-0.335,-0.415
11.875,-0.315,-0.425
11.878,-0.320,-0.435
11.881,-0.330,-0.445
11.883,-0.355,-0.455
11.886,-0.365,-0.470
11.889,-0.385,-0.480
11.892,-0.385,-0.485
11.894,-0.395,-0.475
11.897,-0.400,-0.470
11.900,-0.400,-0.465
11.903,-0.395,-0.460
11.906,-0.385,-0.450
11.908,-0.385,-0.440
11.911,-0.395,-0.445
11.914,-0.405,-0.445
11.917,-0.425,-0.455
11.919,-0.445,-0.450
11.922,-0.455,-0.450
11.925,-0.465,-0.445
11.928,-0.480,-0.440
11.931,-0.480,-0.435
11.933,-0.475,-0.430
11.936,-0.465,-0.420
11.939,-0.470,-0.425
11.942,-0.455,-0.410
11.944,-0.450,-0.410
11.947,-0.445,-0.420
11.950,-0.450,-0.425
11.953,-0.455,-0.435
11.956,-0.470,-0.435
11.958,-0.480,-0.445
11.961,-0.470,-0.445
11.964,-0.480,-0.440
11.967,-0.470,-0.430
11.969,-0.465,-0.430
11.972,-0.455,-0.430
11.975,-0.455,-0.420
11.978,-0.465,-0.430
11.981,-0.480,-0.420
11.983,-0.490,-0.430
11.986,-0.485,-0.440
11.989,-0.445,-0.445
11.992,-0.365,-0.455
11.994,-0.255,-0.485
11.997,-0.100,-0.530
12.000,0.100,-0.550
12.003,0.335,-0.600
12.006,0.555,-0.635
12.008,0.745,-0.660
12.011,0.835,-0.660
12.014,0.815,-0.625
12.017,0.630,-0.580
12.019,0.375,-0.525
12.022,0.075,-0.460
12.025,-0.185,-0.405
12.028,-0.355,-0.345
12.031,-0.455,-0.330
12.033,-0.450,-0.335
12.036,-0.425,-0.355
12.039,-0.380,-0.390
12.042,-0.350,-0.425
12.044,-0.335,-0.445
12.047,-0.350,-0.460
12.050,-0.360,-0.465
12.053,-0.385,-0.465
12.056,-0.415,-0.455
12.058,-0.425,-0.455
12.061,-0.440,-0.445
12.064,-0.440,-0.445
12.067,-0.430,-0.435
12.069,-0.425,-0.425
12.072,-0.430,-0.420
12.075,-0.435,-0.410
12.078,-0.430,-0.410
12.081,-0.430,-0.415
12.083,-0.435,-0.415
12.086,-0.440,-0.425
12.089,-0.440,-0.435
12.092,-0.450,-0.435
12.094,-0.465,-0.435
12.097,-0.465,-0.435
12.100,-0.455,-0.430
12.103,-0.445,-0.420
12.106,-0.445,-0.405
12.108,-0.435,-0.420
12.111,-0.425,-0.420
12.114,-0.425,-0.420
12.117,-0.420,-0.425
12.119,-0.440,-0.435
12.122,-0.440,-0.440
12.125,-0.445,-0.435
12.128,-0.450,-0.445
12.131,-0.445,-0.435
12.133,-0.440,-0.430
12.136,-0.430,-0.425
12.139,-0.415,-0.420
12.142,-0.410,-0.410
12.144,-0.400,-0.430
12.147,-0.395,-0.425
12.150,-0.405,-0.435
12.153,-0.410,-0.440
12.156,-0.415,-0.445
12.158,-0.425,-0.460
12.161,-0.435,-0.460
12.164,-0.435,-0.460
12.167,-0.435,-0.440
12.169,-0.430,-0.445
12.172,-0.420,-0.440
12.175,-0.415,-0.435
12.178,-0.410,-0.440
12.181,-0.400,-0.435
12.183,-0.400,-0.455
12.186,-0.410,-0.465
12.189,-0.415,-0.475
12.192,-0.420,-0.475
12.194,-0.425,-0.460
12.197,-0.435,-0.485
12.200,-0.430,-0.465
12.203,-0.420,-0.455
12.206,-0.405,-0.450
12.208,-0.405,-0.445
12.211,-0.400,-0.455
12.214,-0.410,-0.460
12.217,-0.425,-0.465
12.219,-0.430,-0.480
12.222,-0.435,-0.485
12.225,-0.425,-0.490
12.228,-0.420,-0.490
12.231,-0.420,-0.485
12.233,-0.415,-0.480
12.236,-0.415,-0.480
12.239,-0.405,-0.475
12.242,-0.410,-0.460
12.244,-0.400,-0.470
12.247,-0.395,-0.480
12.250,-0.395,-0.480
12.253,-0.405,-0.495
12.256,-0.400,-0.505
12.258,-0.405,-0.505
12.261,-0.395,-0.505
12.264,-0.395,-0.495
12.267,-0.380,-0.505
12.269,-0.365,-0.500
12.272,-0.355,-0.490
12.275,-0.340,-0.485
12.278,-0.335,-0.495
12.281,-0.315,-0.500
12.283,-0.310,-0.510
12.286,-0.315,-0.510
12.289,-0.320,-0.520
12.292,-0.320,-0.520
12.294,-0.325,-0.510
12.297,-0.330,-0.510
12.300,-0.305,-0.500
12.303,-0.305,-0.495
12.306,-0.305,-0.495
12.308,-0.305,-0.490
12.311,-0.315,-0.495
12.314,-0.300,-0.485
12.317,-0.335,-0.485
12.319,-0.340,-0.490
12.322,-0.355,-0.490
12.325,-0.350,-0.490
12.328,-0.355,-0.475
12.331,-0.360,-0.485
12.333,-0.360,-0.470
12.336,-0.365,-0.460
12.339,-0.355,-0.440
12.342,-0.360,-0.445
12.344,-0.365,-0.440
12.347,-0.365,-0.445
12.350,-0.385,-0.440
12.353,-0.395,-0.450
12.356,-0.395,-0.455
12.358,-0.405,-0.460
12.361,-0.410,-0.450
12.364,-0.415,-0.460
12.367,-0.415,-0.440
12.369,-0.405,-0.440
12.372,-0.405,-0.425
12.375,-0.395,-0.420
12.378,-0.395,-0.425
12.381,-0.390,-0.420
12.383,-0.395,-0.415
12.386,-0.405,-0.430
12.389,-0.410,-0.440
12.392,-0.420,-0.445
12.394,-0.415,-0.440
12.397,-0.420,-0.440
12.400,-0.425,-0.425
12.403,-0.415,-0.420
12.406,-0.415,-0.415
12.408,-0.400,-0.415
12.411,-0.405,-0.410
12.414,-0.410,-0.415
12.417,-0.415,-0.420
12.419,-0.420,-0.425
12.422,-0.430,-0.430
12.425,-0.425,-0.435
12.428,-0.435,-0.445
12.431,-0.445,-0.420
12.433,-0.435,-0.415
12.436,-0.425,-0.415
12.439,-0.420,-0.405
12.442,-0.415,-0.400
12.444,-0.415,-0.410
12.447,-0.420,-0.420
12.450,-0.420,-0.420
12.453,-0.425,-0.425
12.456,-0.435,-0.425
12.458,-0.445,-0.450
12.461,-0.445,-0.435
12.464,-0.445,-0.430
12.467,-0.445,-0.420
12.469,-0.435,-0.430
12.472,-0.435,-0.410
12.475,-0.425,-0.395
12.478,-0.425,-0.405
12.481,-0.425,-0.405
12.483,-0.425,-0.410
12.486,-0.435,-0.420
12.489,-0.435,-0.425
12.492,-0.435,-0.445
12.494,-0.420,-0.435
12.497,-0.425,-0.435
12.500,-0.405,-0.410
12.503,-0.390,-0.400
12.506,-0.370,-0.395
12.508,-0.370,-0.390
12.511,-0.365,-0.395
12.514,-0.360,-0.385
12.517,-0.370,-0.390
12.519,-0.360,-0.395
12.522,-0.365,-0.415
12.525,-0.360,-0.420
12.528,-0.350,-0.420
12.531,-0.340,-0.425
12.533,-0.330,-0.435
12.536,-0.340,-0.435
12.539,-0.340,-0.440
12.542,-0.360,-0.435
12.544,-0.360,-0.440
12.547,-0.365,-0.440
12.550,-0.375,-0.445
12.553,-0.380,-0.455
12.556,-0.390,-0.450
12.558,-0.400,-0.460
12.561,-0.405,-0.460
12.564,-0.410,-0.445
12.567,-0.410,-0.440
12.569,-0.410,-0.435
12.572,-0.410,-0.420
12.575,-0.420,-0.415
12.578,-0.430,-0.420
12.581,-0.440,-0.405
12.583,-0.460,-0.415
12.586,-0.465,-0.415
12.589,-0.465,-0.420
12.592,-0.475,-0.430
12.594,-0.470,-0.425
12.597,-0.480,-0.420
12.600,-0.465,-0.415
12.603,-0.455,-0.410
12.606,-0.450,-0.400
12.608,-0.440,-0.405
12.611,-0.430,-0.410
12.614,-0.435,-0.395
12.617,-0.445,-0.410
12.619,-0.445,-0.415
12.622,-0.450,-0.425
12.625,-0.445,-0.425
12.628,-0.460,-0.430
12.631,-0.465,-0.435
12.633,-0.465,-0.420
12.636,-0.480,-0.420
12.639,-0.500,-0.405
12.642,-0.505,-0.385
12.644,-0.505,-0.400
12.647,-0.455,-0.395
12.650,-0.370,-0.420
12.653,-0.260,-0.460
12.656,-0.105,-0.500
12.658,0.080,-0.550
12.661,0.295,-0.595
12.664,0.515,-0.635
12.667,0.720,-0.660
12.669,0.830,-0.640
12.672,0.835,-0.610
12.675,0.695,-0.555
12.678,0.435,-0.515
12.681,0.140,-0.445
12.683,-0.145,-0.400
12.686,-0.355,-0.365
12.689,-0.460,-0.335
12.692,-0.475,-0.355
12.694,-0.440,-0.385
12.697,-0.390,-0.425
12.700,-0.350,-0.450
12.703,-0.325,-0.460
12.706,-0.320,-0.460
12.708,-0.330,-0.465
12.711,-0.345,-0.450
12.714,-0.360,-0.445
12.717,-0.385,-0.435
12.719,-0.395,-0.440
12.722,-0.415,-0.445
12.725,-0.415,-0.450
12.728,-0.430,-0.445
12.731,-0.435,-0.450
12.733,-0.425,-0.445
12.736,-0.415,-0.430
12.739,-0.415,-0.425
12.742,-0.400,-0.420
12.744,-0.415,-0.420
12.747,-0.405,-0.415
12.750,-0.410,-0.425
12.753,-0.420,-0.435
12.756,-0.425,-0.445
12.758,-0.425,-0.450
12.761,-0.425,-0.440
12.764,-0.430,-0.445
12.767,-0.425,-0.435
12.769,-0.420,-0.435
12.772,-0.420,-0.425
12.775,-0.410,-0.420
12.778,-0.410,-0.420
12.781,-0.405,-0.435
12.783,-0.405,-0.430
12.786,-0.405,-0.440
12.789,-0.415,-0.460
12.792,-0.425,-0.460
12.794,-0.420,-0.460
12.797,-0.420,-0.450
12.800,-0.400,-0.445
12.803,-0.400,-0.445
12.806,-0.385,-0.430
12.808,-0.375,-0.425
12.811,-0.375,-0.435
12.814,-0.375,-0.445
12.817,-0.375,-0.445
12.819,-0.380,-0.450
12.822,-0.380,-0.460
12.825,-0.390,-0.465
12.828,-0.400,-0.455
12.831,-0.405,-0.455
12.833,-0.390,-0.455
12.836,-0.390,-0.460
12.839,-0.385,-0.440
12.842,-0.390,-0.450
12.844,-0.385,-0.455
12.847,-0.375,-0.445
12.850,-0.380,-0.450
12.853,-0.385,-0.470
12.856,-0.395,-0.475
12.858,-0.400,-0.475
12.861,-0.405,-0.480
12.864,-0.400,-0.470
12.867,-0.395,-0.475
12.869,-0.385,-0.465
12.872,-0.380,-0.460
12.875,-0.380,-0.455
12.878,-0.375,-0.465
12.881,-0.370,-0.465
12.883,-0.385,-0.465
12.886,-0.390,-0.490
12.889,-0.385,-0.495
12.892,-0.390,-0.500
12.894,-0.395,-0.485
12.897,-0.400,-0.500
12.900,-0.390,-0.490
12.903,-0.385,-0.470
12.906,-0.380,-0.485
12.908,-0.385,-0.480
12.911,-0.380,-0.475
12.914,-0.375,-0.475
12.917,-0.385,-0.485
12.919,-0.380,-0.500
12.922,-0.385,-0.510
12.925,-0.390,-0.505
12.928,-0.390,-0.520
12.931,-0.390,-0.505
12.933,-0.375,-0.495
12.936,-0.360,-0.485
12.939,-0.355,-0.485
12.942,-0.335,-0.485
12.944,-0.325,-0.495
12.947,-0.320,-0.490
12.950,-0.315,-0.500
12.953,-0.305,-0.515
12.956,-0.310,-0.515
12.958,-0.305,-0.530
12.961,-0.305,-0.520
12.964,-0.305,-0.510
12.967,-0.290,-0.520
12.969,-0.285,-0.500
12.972,-0.300,-0.505
12.975,-0.270,-0.490
12.978,-0.275,-0.500
12.981,-0.270,-0.495
12.983,-0.285,-0.500
12.986,-0.305,-0.510
12.989,-0.310,-0.505
12.992,-0.320,-0.500
12.994,-0.325,-0.505
12.997,-0.335,-0.485
13.000,-0.335,-0.485
13.003,-0.335,-0.465
13.006,-0.330,-0.465
13.008,-0.325,-0.460
13.011,-0.340,-0.460
13.014,-0.340,-0.455
13.017,-0.335,-0.460
13.019,-0.350,-0.470
13.022,-0.355,-0.475
13.025,-0.365,-0.485
13.028,-0.365,-0.465
13.031,-0.365,-0.465
13.033,-0.365,-0.460
13.036,-0.370,-0.460
13.039,-0.360,-0.445
13.042,-0.355,-0.440
13.044,-0.355,-0.445
13.047,-0.360,-0.445
13.050,-0.365,-0.445
13.053,-0.365,-0.460
13.056,-0.375,-0.465
13.058,-0.375,-0.465
13.061,-0.385,-0.460
13.064,-0.390,-0.465
13.067,-0.385,-0.450
13.069,-0.385,-0.450
13.072,-0.375,-0.450
13.075,-0.360,-0.435
13.078,-0.370,-0.440
13.081,-0.365,-0.445
13.083,-0.375,-0.445
13.086,-0.380,-0.460
13.089,-0.385,-0.465
13.092,-0.400,-0.470
13.094,-0.395,-0.465
13.097,-0.410,-0.465
13.100,-0.405,-0.450
13.103,-0.395,-0.445
13.106,-0.400,-0.435
13.108,-0.390,-0.440
13.111,-0.390,-0.435
13.114,-0.380,-0.435
13.117,-0.390,-0.445
13.119,-0.390,-0.440
13.122,-0.395,-0.450
13.125,-0.400,-0.465
13.128,-0.400,-0.465
13.131,-0.405,-0.455
13.133,-0.415,-0.445
13.136,-0.415,-0.435
13.139,-0.405,-0.430
13.142,-0.400,-0.425
13.144,-0.395,-0.425
13.147,-0.380,-0.425
13.150,-0.385,-0.425
13.153,-0.395,-0.450
13.156,-0.405,-0.445
13.158,-0.410,-0.455
13.161,-0.410,-0.450
13.164,-0.410,-0.450
13.167,-0.395,-0.440
13.169,-0.385,-0.435
13.172,-0.370,-0.425
13.175,-0.355,-0.410
13.178,-0.340,-0.415
13.181,-0.330,-0.410
13.183,-0.335,-0.425
13.186,-0.330,-0.420
13.189,-0.340,-0.430
13.192,-0.350,-0.435
13.194,-0.340,-0.430
13.197,-0.340,-0.430
13.200,-0.325,-0.430
13.203,-0.315,-0.425
13.206,-0.295,-0.420
13.208,-0.275,-0.430
13.211,-0.285,-0.445
13.214,-0.290,-0.455
13.217,-0.320,-0.465
13.219,-0.345,-0.475
13.222,-0.355,-0.490
13.225,-0.365,-0.495
13.228,-0.365,-0.490
13.231,-0.375,-0.485
13.233,-0.365,-0.465
13.236,-0.365,-0.465
13.239,-0.365,-0.470
13.242,-0.375,-0.455
13.244,-0.375,-0.455
13.247,-0.370,-0.450
13.250,-0.375,-0.460
13.253,-0.405,-0.460
13.256,-0.410,-0.455
13.258,-0.430,-0.455
13.261,-0.450,-0.445
13.264,-0.445,-0.445
13.267,-0.445,-0.430
13.269,-0.440,-0.425
13.272,-0.435,-0.420
13.275,-0.420,-0.420
13.278,-0.420,-0.425
13.281,-0.415,-0.425
13.283,-0.415,-0.425
13.286,-0.430,-0.450
13.289,-0.435,-0.445
13.292,-0.440,-0.455
13.294,-0.450,-0.445
13.297,-0.445,-0.445
13.300,-0.445,-0.445
13.303,-0.435,-0.435
13.306,-0.435,-0.425
13.308,-0.430,-0.425
13.311,-0.435,-0.420
13.314,-0.445,-0.425
13.317,-0.455,-0.425
13.319,-0.480,-0.430
13.322,-0.495,-0.430
13.325,-0.475,-0.435
13.328,-0.425,-0.435
13.331,-0.330,-0.455
13.333,-0.210,-0.495
13.336,-0.055,-0.520
13.339,0.130,-0.570
13.342,0.335,-0.610
13.344,0.535,-0.655
13.347,0.705,-0.675
13.350,0.820,-0.690
13.353,0.800,-0.670
13.356,0.675,-0.645
13.358,0.440,-0.590
13.361,0.160,-0.530
13.364,-0.110,-0.460
13.367,-0.300,-0.395
13.369,-0.405,-0.365
13.372,-0.425,-0.375
13.375,-0.380,-0.395
13.378,-0.335,-0.430
13.381,-0.280,-0.465
13.383,-0.270,-0.490
13.386,-0.285,-0.500
13.389,-0.300,-0.505
13.392,-0.330,-0.495
13.394,-0.365,-0.480
13.397,-0.390,-0.470
13.400,-0.395,-0.460
13.403,-0.395,-0.460
13.406,-0.390,-0.455
13.408,-0.385,-0.430
13.411,-0.385,-0.440
13.414,-0.380,-0.440
13.417,-0.390,-0.440
13.419,-0.395,-0.455
13.422,-0.400,-0.455
13.425,-0.420,-0.460
13.428,-0.415,-0.465
13.431,-0.410,-0.455
13.433,-0.410,-0.450
13.436,-0.400,-0.440
13.439,-0.400,-0.435
13.442,-0.385,-0.430
13.444,-0.390,-0.430
13.447,-0.390,-0.430
13.450,-0.390,-0.440
13.453,-0.395,-0.445
13.456,-0.395,-0.460
13.458,-0.395,-0.470
13.461,-0.415,-0.450
13.464,-0.405,-0.455
13.467,-0.400,-0.450
13.469,-0.395,-0.445
13.472,-0.390,-0.440
13.475,-0.385,-0.430
13.478,-0.375,-0.435
13.481,-0.375,-0.435
13.483,-0.375,-0.445
13.486,-0.380,-0.450
13.489,-0.380,-0.460
13.492,-0.390,-0.470
13.494,-0.395,-0.470
13.497,-0.390,-0.460
13.500,-0.395,-0.460
13.503,-0.390,-0.470
13.506,-0.380,-0.450
13.508,-0.375,-0.445
13.511,-0.365,-0.445
13.514,-0.370,-0.455
13.517,-0.370,-0.455
13.519,-0.370,-0.450
13.522,-0.380,-0.480
13.525,-0.385,-0.465
13.528,-0.380,-0.475
13.531,-0.390,-0.470
13.533,-0.380,-0.470
13.536,-0.375,-0.455
13.539,-0.375,-0.460
13.542,-0.360,-0.445
13.544,-0.360,-0.465
13.547,-0.360,-0.455
13.550,-0.360,-0.460
13.553,-0.360,-0.480
13.556,-0.365,-0.465
13.558,-0.370,-0.490
13.561,-0.375,-0.490
13.564,-0.385,-0.485
13.567,-0.370,-0.485
13.569,-0.360,-0.475
13.572,-0.365,-0.470
13.575,-0.350,-0.465
13.578,-0.350,-0.470
13.581,-0.350,-0.470
13.583,-0.350,-0.485
13.586,-0.360,-0.485
13.589,-0.365,-0.490
13.592,-0.385,-0.505
13.594,-0.375,-0.495
13.597,-0.380,-0.495
13.600,-0.380,-0.495
13.603,-0.375,-0.490
13.606,-0.375,-0.490
13.608,-0.365,-0.475
13.611,-0.360,-0.480
13.614,-0.345,-0.480
13.617,-0.340,-0.485
13.619,-0.360,-0.500
13.622,-0.345,-0.510
13.625,-0.345,-0.510
13.628,-0.350,-0.520
13.631,-0.350,-0.510
13.633,-0.335,-0.515
13.636,-0.325,-0.515
13.639,-0.310,-0.500
13.642,-0.295,-0.495
13.644,-0.275,-0.500
13.647,-0.275,-0.510
13.650,-0.275,-0.510
13.653,-0.280,-0.530
13.656,-0.280,-0.530
13.658,-0.285,-0.540
13.661,-0.285,-0.545
13.664,-0.285,-0.535
13.667,-0.275,-0.525
13.669,-0.265,-0.515
13.672,-0.270,-0.520
13.675,-0.270,-0.505
13.678,-0.265,-0.500
13.681,-0.270,-0.510
13.683,-0.275,-0.505
13.686,-0.285,-0.510
13.689,-0.300,-0.510
13.692,-0.315,-0.515
13.694,-0.325,-0.505
13.697,-0.335,-0.505
13.700,-0.325,-0.495
13.703,-0.335,-0.485
13.706,-0.330,-0.475
13.708,-0.325,-0.465
13.711,-0.330,-0.465
13.714,-0.335,-0.470
13.717,-0.330,-0.470
13.719,-0.345,-0.480
13.722,-0.350,-0.475
13.725,-0.360,-0.480
13.728,-0.370,-0.480
13.731,-0.360,-0.475
13.733,-0.365,-0.470
13.736,-0.370,-0.460
13.739,-0.355,-0.455
13.742,-0.350,-0.435
13.744,-0.345,-0.440
13.747,-0.350,-0.460
13.750,-0.350,-0.460
13.753,-0.365,-0.465
13.756,-0.380,-0.470
13.758,-0.385,-0.480
13.761,-0.385,-0.470
13.764,-0.385,-0.465
13.767,-0.385,-0.455
13.769,-0.385,-0.445
13.772,-0.390,-0.435
13.775,-0.385,-0.440
13.778,-0.380,-0.445
13.781,-0.375,-0.450
13.783,-0.370,-0.450
13.786,-0.385,-0.460
13.789,-0.385,-0.465
13.792,-0.390,-0.465
13.794,-0.390,-0.465
13.797,-0.390,-0.455
13.800,-0.390,-0.450
13.803,-0.380,-0.450
13.806,-0.385,-0.445
13.808,-0.380,-0.435
13.811,-0.365,-0.440
13.814,-0.365,-0.450
13.817,-0.375,-0.450
13.819,-0.375,-0.455
13.822,-0.390,-0.455
13.825,-0.390,-0.470
13.828,-0.395,-0.470
13.831,-0.400,-0.460
13.833,-0.405,-0.450
13.836,-0.390,-0.445
13.839,-0.390,-0.435
13.842,-0.380,-0.435
13.844,-0.380,-0.430
13.847,-0.380,-0.435
13.850,-0.385,-0.440
13.853,-0.385,-0.445
13.856,-0.390,-0.445
13.858,-0.400,-0.450
13.861,-0.395,-0.455
13.864,-0.405,-0.435
13.867,-0.395,-0.445
13.869,-0.385,-0.435
13.872,-0.370,-0.435
13.875,-0.360,-0.430
13.878,-0.345,-0.430
13.881,-0.345,-0.430
13.883,-0.330,-0.435
13.886,-0.335,-0.435
13.889,-0.330,-0.450
13.892,-0.340,-0.440
13.894,-0.345,-0.445
13.897,-0.335,-0.425
13.900,-0.330,-0.420
13.903,-0.325,-0.415
13.906,-0.315,-0.415
13.908,-0.305,-0.405
13.911,-0.290,-0.420
13.914,-0.275,-0.430
13.917,-0.260,-0.440
13.919,-0.275,-0.455
13.922,-0.295,-0.485
13.925,-0.315,-0.495
13.928,-0.330,-0.495
13.931,-0.340,-0.490
13.933,-0.345,-0.495
13.936,-0.350,-0.480
13.939,-0.355,-0.460
13.942,-0.350,-0.465
13.944,-0.345,-0.460
13.947,-0.340,-0.465
13.950,-0.345,-0.460
13.953,-0.360,-0.465
13.956,-0.375,-0.485
13.958,-0.380,-0.470
13.961,-0.395,-0.470
13.964,-0.420,-0.455
13.967,-0.420,-0.455
13.969,-0.425,-0.435
13.972,-0.420,-0.430
13.975,-0.420,-0.430
13.978,-0.410,-0.425
13.981,-0.410,-0.425
13.983,-0.405,-0.430
13.986,-0.420,-0.440
13.989,-0.430,-0.450
13.992,-0.435,-0.445
13.994,-0.430,-0.450
13.997,-0.440,-0.455
14.000,-0.425,-0.440
14.003,-0.430,-0.435
14.006,-0.415,-0.430
14.008,-0.415,-0.420
14.011,-0.415,-0.425
14.014,-0.415,-0.420
14.017,-0.430,-0.435
14.019,-0.445,-0.440
14.022,-0.480,-0.440
14.025,-0.490,-0.435
14.028,-0.485,-0.435
14.031,-0.440,-0.445
14.033,-0.340,-0.460
14.036,-0.205,-0.490
14.039,-0.035,-0.530
14.042,0.170,-0.585
14.044,0.400,-0.655
14.047,0.610,-0.700
14.050,0.795,-0.720
14.053,0.865,-0.725
14.056,0.810,-0.705
14.058,0.625,-0.645
14.061,0.345,-0.570
14.064,0.055,-0.490
14.067,-0.210,-0.425
14.069,-0.380,-0.370
14.072,-0.445,-0.345
14.075,-0.430,-0.350
14.078,-0.370,-0.395
14.081,-0.320,-0.425
14.083,-0.285,-0.455
14.086,-0.285,-0.485
14.089,-0.300,-0.500
14.092,-0.320,-0.500
14.094,-0.350,-0.470
14.097,-0.370,-0.480
14.100,-0.390,-0.455
14.103,-0.390,-0.440
14.106,-0.390,-0.435
14.108,-0.380,-0.430
14.111,-0.380,-0.435
14.114,-0.380,-0.435
14.117,-0.390,-0.430
14.119,-0.390,-0.440
14.122,-0.400,-0.445
14.125,-0.405,-0.445
14.128,-0.415,-0.450
14.131,-0.415,-0.455
14.133,-0.415,-0.445
14.136,-0.400,-0.430
14.139,-0.405,-0.425
14.142,-0.390,-0.420
14.144,-0.385,-0.435
14.147,-0.380,-0.430
14.150,-0.375,-0.430
14.153,-0.390,-0.435
14.156,-0.395,-0.450
14.158,-0.390,-0.450
14.161,-0.395,-0.445
14.164,-0.400,-0.450
14.167,-0.395,-0.450
14.169,-0.390,-0.435
14.172,-0.390,-0.430
14.175,-0.370,-0.425
14.178,-0.375,-0.440
14.181,-0.380,-0.450
14.183,-0.375,-0.445
14.186,-0.375,-0.445
14.189,-0.385,-0.450
14.192,-0.390,-0.460
14.194,-0.390,-0.450
14.197,-0.390,-0.450
14.200,-0.385,-0.445
14.203,-0.375,-0.445
14.206,-0.370,-0.450
14.208,-0.365,-0.425
14.211,-0.355,-0.440
14.214,-0.360,-0.430
14.217,-0.365,-0.445
14.219,-0.370,-0.455
14.222,-0.360,-0.455
14.225,-0.370,-0.475
14.228,-0.375,-0.470
14.231,-0.380,-0.470
14.233,-0.370,-0.460
14.236,-0.365,-0.460
14.239,-0.370,-0.455
14.242,-0.365,-0.440
14.244,-0.360,-0.455
14.247,-0.355,-0.450
14.250,-0.355,-0.460
14.253,-0.360,-0.460
14.256,-0.360,-0.480
14.258,-0.370,-0.470
14.261,-0.375,-0.475
14.264,-0.380,-0.480
14.267,-0.365,-0.480
14.269,-0.360,-0.465
14.272,-0.350,-0.460
14.275,-0.350,-0.460
14.278,-0.340,-0.455
14.281,-0.330,-0.475
14.283,-0.345,-0.465
14.286,-0.345,-0.480
14.289,-0.345,-0.490
14.292,-0.365,-0.500
14.294,-0.355,-0.490
14.297,-0.365,-0.495
14.300,-0.355,-0.485
14.303,-0.345,-0.480
14.306,-0.335,-0.470
14.308,-0.320,-0.475
14.311,-0.305,-0.475
14.314,-0.295,-0.475
14.317,-0.290,-0.490
14.319,-0.285,-0.495
14.322,-0.290,-0.515
14.325,-0.285,-0.515
14.328,-0.285,-0.520
14.331,-0.270,-0.520
14.333,-0.260,-0.515
14.336,-0.250,-0.515
14.339,-0.240,-0.510
14.342,-0.230,-0.495
14.344,-0.230,-0.500
14.347,-0.230,-0.500
14.350,-0.235,-0.510
14.353,-0.235,-0.520
14.356,-0.240,-0.525
14.358,-0.255,-0.520
14.361,-0.270,-0.520
14.364,-0.270,-0.510
14.367,-0.275,-0.515
14.369,-0.275,-0.495
14.372,-0.275,-0.480
14.375,-0.275,-0.485
14.378,-0.280,-0.480
14.381,-0.285,-0.470
14.383,-0.285,-0.485
14.386,-0.310,-0.485
14.389,-0.305,-0.485
14.392,-0.330,-0.485
14.394,-0.335,-0.485
14.397,-0.340,-0.470
14.400,-0.335,-0.465
14.403,-0.330,-0.460
14.406,-0.325,-0.460
14.408,-0.325,-0.450
14.411,-0.320,-0.450
14.414,-0.335,-0.455
14.417,-0.335,-0.445
14.419,-0.340,-0.455
14.422,-0.350,-0.460
14.425,-0.355,-0.460
14.428,-0.365,-0.475
14.431,-0.365,-0.460
14.433,-0.365,-0.450
14.436,-0.365,-0.445
14.439,-0.360,-0.435
14.442,-0.355,-0.435
14.444,-0.355,-0.430
14.447,-0.360,-0.430
14.450,-0.365,-0.445
14.453,-0.375,-0.455
14.456,-0.370,-0.455
14.458,-0.370,-0.455
14.461,-0.385,-0.470
14.464,-0.385,-0.455
14.467,-0.375,-0.445
14.469,-0.375,-0.450
14.472,-0.375,-0.425
14.475,-0.365,-0.420
14.478,-0.355,-0.420
14.481,-0.370,-0.425
14.483,-0.360,-0.435
14.486,-0.360,-0.440
14.489,-0.370,-0.445
14.492,-0.380,-0.460
14.494,-0.375,-0.450
14.497,-0.385,-0.455
14.500,-0.390,-0.445
14.503,-0.385,-0.430
14.506,-0.380,-0.430
14.508,-0.370,-0.430
14.511,-0.365,-0.425
14.514,-0.365,-0.430
14.517,-0.365,-0.430
14.519,-0.375,-0.440
14.522,-0.385,-0.445
14.525,-0.390,-0.455
14.528,-0.390,-0.455
14.531,-0.395,-0.440
14.533,-0.395,-0.445
14.536,-0.380,-0.445
14.539,-0.380,-0.425
14.542,-0.365,-0.420
14.544,-0.350,-0.420
14.547,-0.350,-0.425
14.550,-0.350,-0.430
14.553,-0.345,-0.435
14.556,-0.340,-0.430
14.558,-0.345,-0.445
14.561,-0.340,-0.440
14.564,-0.340,-0.435
14.567,-0.335,-0.425
14.569,-0.325,-0.420
14.572,-0.320,-0.400
14.575,-0.315,-0.405
14.578,-0.305,-0.415
14.581,-0.290,-0.415
14.583,-0.275,-0.430
14.586,-0.270,-0.440
14.589,-0.270,-0.470
14.592,-0.280,-0.475
14.594,-0.300,-0.495
14.597,-0.325,-0.490
14.600,-0.335,-0.480
14.603,-0.340,-0.480
14.606,-0.340,-0.475
14.608,-0.335,-0.470
14.611,-0.340,-0.465
14.614,-0.325,-0.460
14.617,-0.335,-0.470
14.619,-0.345,-0.465
14.622,-0.360,-0.485
14.625,-0.360,-0.485
14.628,-0.370,-0.480
14.631,-0.375,-0.475
14.633,-0.385,-0.465
14.636,-0.390,-0.445
14.639,-0.395,-0.435
14.642,-0.395,-0.425
14.644,-0.400,-0.410
14.647,-0.390,-0.425
14.650,-0.400,-0.415
14.653,-0.395,-0.435
14.656,-0.400,-0.445
14.658,-0.410,-0.440
14.661,-0.415,-0.435
14.664,-0.420,-0.430
14.667,-0.415,-0.430
14.669,-0.410,-0.425
14.672,-0.400,-0.425
14.675,-0.390,-0.425
14.678,-0.400,-0.410
14.681,-0.385,-0.420
14.683,-0.395,-0.425
14.686,-0.400,-0.425
14.689,-0.400,-0.440
14.692,-0.415,-0.440
14.694,-0.425,-0.430
14.697,-0.455,-0.430
14.700,-0.465,-0.430
14.703,-0.455,-0.415
14.706,-0.410,-0.410
14.708,-0.340,-0.420
14.711,-0.240,-0.465
14.714,-0.085,-0.500
14.717,0.075,-0.545
14.719,0.260,-0.630
14.722,0.460,-0.685
14.725,0.635,-0.740
14.728,0.750,-0.750
14.731,0.755,-0.735
14.733,0.655,-0.685
14.736,0.430,-0.600
14.739,0.185,-0.525
14.742,-0.060,-0.425
14.744,-0.240,-0.365
14.747,-0.360,-0.325
14.750,-0.400,-0.335
14.753,-0.375,-0.360
14.756,-0.335,-0.415
14.758,-0.310,-0.450
14.761,-0.295,-0.490
14.764,-0.295,-0.495
14.767,-0.305,-0.490
14.769,-0.315,-0.475
14.772,-0.330,-0.460
14.775,-0.345,-0.430
14.778,-0.355,-0.425
14.781,-0.360,-0.435
14.783,-0.360,-0.440
14.786,-0.365,-0.435
14.789,-0.375,-0.450
14.792,-0.385,-0.455
14.794,-0.385,-0.460
14.797,-0.380,-0.435
14.800,-0.370,-0.440
14.803,-0.375,-0.430
14.806,-0.360,-0.420
14.808,-0.360,-0.420
14.811,-0.365,-0.415
14.814,-0.360,-0.420
14.817,-0.355,-0.430
14.819,-0.360,-0.430
14.822,-0.370,-0.435
14.825,-0.375,-0.445
14.828,-0.380,-0.445
14.831,-0.385,-0.435
14.833,-0.375,-0.430
14.836,-0.375,-0.420
14.839,-0.360,-0.430
14.842,-0.350,-0.425
14.844,-0.355,-0.420
14.847,-0.350,-0.430
14.850,-0.350,-0.425
14.853,-0.350,-0.430
14.856,-0.360,-0.445
14.858,-0.370,-0.450
14.861,-0.385,-0.450
14.864,-0.380,-0.450
14.867,-0.380,-0.435
14.869,-0.360,-0.435
14.872,-0.350,-0.425
14.875,-0.340,-0.420
14.878,-0.330,-0.425
14.881,-0.335,-0.430
14.883,-0.340,-0.425
14.886,-0.345,-0.435
14.889,-0.350,-0.445
14.892,-0.355,-0.455
14.894,-0.355,-0.460
14.897,-0.365,-0.455
14.900,-0.355,-0.450
14.903,-0.345,-0.440
14.906,-0.340,-0.445
14.908,-0.340,-0.435
14.911,-0.330,-0.435
14.914,-0.320,-0.445
14.917,-0.325,-0.440
14.919,-0.330,-0.450
14.922,-0.340,-0.470
14.925,-0.345,-0.470
14.928,-0.355,-0.475
14.931,-0.350,-0.470
14.933,-0.355,-0.470
14.936,-0.345,-0.455
14.939,-0.340,-0.440
14.942,-0.335,-0.450
14.944,-0.330,-0.450
14.947,-0.325,-0.465
14.950,-0.335,-0.465
14.953,-0.335,-0.470
14.956,-0.345,-0.485
14.958,-0.345,-0.490
14.961,-0.350,-0.495
14.964,-0.345,-0.485
14.967,-0.340,-0.490
14.969,-0.340,-0.475
14.972,-0.330,-0.470
14.975,-0.315,-0.460
14.978,-0.305,-0.470
14.981,-0.300,-0.470
14.983,-0.285,-0.480
14.986,-0.295,-0.490
14.989,-0.290,-0.500
14.992,-0.290,-0.505
14.994,-0.290,-0.510
14.997,-0.285,-0.495
15.000,-0.275,-0.500
15.003,-0.265,-0.505
15.006,-0.255,-0.500
15.008,-0.230,-0.495
15.011,-0.225,-0.495
15.014,-0.210,-0.495
15.017,-0.200,-0.500
15.019,-0.210,-0.515
15.022,-0.205,-0.510
15.025,-0.220,-0.530
15.028,-0.215,-0.530
15.031,-0.235,-0.520
15.033,-0.240,-0.520
15.036,-0.240,-0.505
15.039,-0.235,-0.500
15.042,-0.235,-0.490
15.044,-0.230,-0.490
15.047,-0.245,-0.485
15.050,-0.250,-0.485
15.053,-0.250,-0.495
15.056,-0.260,-0.495
15.058,-0.280,-0.505
15.061,-0.280,-0.490
15.064,-0.290,-0.485
15.067,-0.295,-0.485
15.069,-0.310,-0.465
15.072,-0.305,-0.470
15.075,-0.305,-0.450
15.078,-0.310,-0.450
15.081,-0.305,-0.455
15.083,-0.305,-0.450
15.086,-0.315,-0.450
15.089,-0.325,-0.460
15.092,-0.325,-0.465
15.094,-0.330,-0.475
15.097,-0.340,-0.460
15.100,-0.335,-0.460
15.103,-0.330,-0.455
15.106,-0.335,-0.450
15.108,-0.325,-0.440
15.111,-0.325,-0.440
15.114,-0.325,-0.445
15.117,-0.330,-0.450
15.119,-0.335,-0.445
15.122,-0.335,-0.460
15.125,-0.345,-0.465
15.128,-0.350,-0.460
15.131,-0.360,-0.460
15.133,-0.360,-0.445
15.136,-0.350,-0.445
15.139,-0.350,-0.445
15.142,-0.340,-0.445
15.144,-0.340,-0.440
15.147,-0.340,-0.440
15.150,-0.355,-0.440
15.153,-0.355,-0.450
15.156,-0.360,-0.460
15.158,-0.360,-0.465
15.161,-0.365,-0.465
15.164,-0.365,-0.455
15.167,-0.355,-0.440
15.169,-0.360,-0.440
15.172,-0.350,-0.430
15.175,-0.360,-0.430
15.178,-0.350,-0.425
15.181,-0.350,-0.430
15.183,-0.350,-0.420
15.186,-0.355,-0.435
15.189,-0.365,-0.445
15.192,-0.375,-0.460
15.194,-0.365,-0.460
15.197,-0.370,-0.435
15.200,-0.375,-0.440
15.203,-0.365,-0.430
15.206,-0.360,-0.435
15.208,-0.350,-0.420
15.211,-0.350,-0.425
15.214,-0.340,-0.430
15.217,-0.335,-0.425
15.219,-0.340,-0.425
15.222,-0.330,-0.435
15.225,-0.335,-0.450
15.228,-0.330,-0.460
15.231,-0.320,-0.440
15.233,-0.315,-0.425
15.236,-0.310,-0.430
15.239,-0.300,-0.410
15.242,-0.285,-0.410
15.244,-0.285,-0.400
15.247,-0.280,-0.405
15.250,-0.275,-0.415
15.253,-0.255,-0.430
15.256,-0.255,-0.450
15.258,-0.260,-0.455
15.261,-0.260,-0.475
15.264,-0.275,-0.475
15.267,-0.290,-0.480
15.269,-0.305,-0.490
15.272,-0.310,-0.470
15.275,-0.305,-0.475
15.278,-0.310,-0.465
15.281,-0.295,-0.470
15.283,-0.315,-0.460
15.286,-0.315,-0.465
15.289,-0.325,-0.475
15.292,-0.340,-0.475
15.294,-0.345,-0.475
15.297,-0.350,-0.475
15.300,-0.350,-0.465
15.303,-0.370,-0.450
15.306,-0.380,-0.450
15.308,-0.380,-0.415
15.311,-0.380,-0.415
15.314,-0.385,-0.430
15.317,-0.390,-0.420
15.319,-0.395,-0.420
15.322,-0.400,-0.440
15.325,-0.405,-0.450
15.328,-0.405,-0.450
15.331,-0.405,-0.445
15.333,-0.400,-0.435
15.336,-0.400,-0.435
15.339,-0.390,-0.420
15.342,-0.400,-0.435
15.344,-0.400,-0.420
15.347,-0.395,-0.415
15.350,-0.385,-0.420
15.353,-0.385,-0.435
15.356,-0.390,-0.440
15.358,-0.395,-0.445
15.361,-0.405,-0.445
15.364,-0.430,-0.445
15.367,-0.435,-0.445
15.369,-0.445,-0.420
15.372,-0.420,-0.430
15.375,-0.360,-0.420
15.378,-0.275,-0.430
15.381,-0.135,-0.475
15.383,0.010,-0.520
15.386,0.195,-0.585
15.389,0.400,-0.670
15.392,0.585,-0.735
15.394,0.750,-0.775
15.397,0.830,-0.775
15.400,0.790,-0.735
15.403,0.640,-0.665
15.406,0.425,-0.585
15.408,0.185,-0.485
15.411,-0.045,-0.405
15.414,-0.215,-0.345
15.417,-0.305,-0.305
15.419,-0.340,-0.310
15.422,-0.330,-0.350
15.425,-0.315,-0.400
15.428,-0.295,-0.455
15.431,-0.295,-0.475
15.433,-0.295,-0.485
15.436,-0.305,-0.485
15.439,-0.315,-0.465
15.442,-0.315,-0.445
15.444,-0.325,-0.435
15.447,-0.340,-0.435
15.450,-0.345,-0.440
15.453,-0.360,-0.440
15.456,-0.375,-0.445
15.458,-0.380,-0.450
15.461,-0.385,-0.455
15.464,-0.390,-0.445
15.467,-0.380,-0.440
15.469,-0.380,-0.440
15.472,-0.375,-0.415
15.475,-0.365,-0.420
15.478,-0.355,-0.410
15.481,-0.355,-0.420
15.483,-0.355,-0.430
15.486,-0.355,-0.430
15.489,-0.360,-0.435
15.492,-0.375,-0.445
15.494,-0.380,-0.455
15.497,-0.385,-0.440
15.500,-0.380,-0.440
15.503,-0.375,-0.430
15.506,-0.365,-0.430
15.508,-0.360,-0.420
15.511,-0.355,-0.425
15.514,-0.350,-0.425
15.517,-0.350,-0.435
15.519,-0.350,-0.445
15.522,-0.360,-0.445
15.525,-0.360,-0.450
15.528,-0.365,-0.455
15.531,-0.370,-0.445
15.533,-0.370,-0.450
15.536,-0.365,-0.440
15.539,-0.360,-0.425
15.542,-0.350,-0.430
15.544,-0.355,-0.425
15.547,-0.350,-0.435
15.550,-0.335,-0.435
15.553,-0.330,-0.445
15.556,-0.345,-0.455
15.558,-0.335,-0.460
15.561,-0.350,-0.470
15.564,-0.355,-0.460
15.567,-0.355,-0.455
15.569,-0.355,-0.455
15.572,-0.345,-0.445
15.575,-0.330,-0.445
15.578,-0.320,-0.435
15.581,-0.330,-0.445
15.583,-0.325,-0.445
15.586,-0.330,-0.460
15.589,-0.330,-0.465
15.592,-0.335,-0.470
15.594,-0.335,-0.480
15.597,-0.340,-0.475
15.600,-0.335,-0.475
15.603,-0.335,-0.460
15.606,-0.335,-0.460
15.608,-0.335,-0.455
15.611,-0.320,-0.455
15.614,-0.320,-0.460
15.617,-0.320,-0.470
15.619,-0.320,-0.475
15.622,-0.330,-0.485
15.625,-0.335,-0.495
15.628,-0.335,-0.485
15.631,-0.345,-0.495
15.633,-0.340,-0.490
15.636,-0.330,-0.485
15.639,-0.320,-0.480
15.642,-0.315,-0.475
15.644,-0.305,-0.480
15.647,-0.310,-0.480
15.650,-0.300,-0.485
15.653,-0.300,-0.495
15.656,-0.300,-0.510
15.658,-0.295,-0.500
15.661,-0.290,-0.500
15.664,-0.290,-0.500
15.667,-0.270,-0.515
15.669,-0.270,-0.505
15.672,-0.260,-0.495
15.675,-0.240,-0.495
15.678,-0.230,-0.495
15.681,-0.220,-0.505
15.683,-0.225,-0.510
15.686,-0.220,-0.510
15.689,-0.215,-0.525
15.692,-0.230,-0.535
15.694,-0.230,-0.535
15.697,-0.235,-0.520
15.700,-0.235,-0.530
15.703,-0.230,-0.515
15.706,-0.240,-0.505
15.708,-0.225,-0.500
15.711,-0.240,-0.485
15.714,-0.240,-0.500
15.717,-0.265,-0.490
15.719,-0.265,-0.490
15.722,-0.275,-0.485
15.725,-0.285,-0.490
15.728,-0.290,-0.485
15.731,-0.300,-0.485
15.733,-0.310,-0.480
15.736,-0.310,-0.460
15.739,-0.305,-0.460
15.742,-0.315,-0.455
15.744,-0.310,-0.435
15.747,-0.305,-0.440
15.750,-0.305,-0.445
15.753,-0.305,-0.445
15.756,-0.315,-0.460
15.758,-0.330,-0.470
15.761,-0.340,-0.475
15.764,-0.345,-0.455
15.767,-0.355,-0.450
15.769,-0.345,-0.445
15.772,-0.350,-0.435
15.775,-0.345,-0.430
15.778,-0.345,-0.425
15.781,-0.335,-0.425
15.783,-0.330,-0.425
15.786,-0.330,-0.430
15.789,-0.335,-0.445
15.792,-0.355,-0.450
15.794,-0.360,-0.460
15.797,-0.375,-0.445
15.800,-0.375,-0.440
15.803,-0.365,-0.435
15.806,-0.360,-0.430
15.808,-0.360,-0.415
15.811,-0.345,-0.420
15.814,-0.350,-0.415
15.817,-0.350,-0.425
15.819,-0.355,-0.420
15.822,-0.355,-0.435
15.825,-0.370,-0.450
15.828,-0.370,-0.450
15.831,-0.375,-0.430
15.833,-0.380,-0.435
15.836,-0.380,-0.435
15.839,-0.375,-0.425
15.842,-0.370,-0.425
15.844,-0.370,-0.410
15.847,-0.370,-0.415
15.850,-0.365,-0.415
15.853,-0.365,-0.425
15.856,-0.380,-0.430
15.858,-0.375,-0.430
15.861,-0.375,-0.440
15.864,-0.375,-0.430
15.867,-0.380,-0.430
15.869,-0.370,-0.415
15.872,-0.370,-0.420
15.875,-0.370,-0.410
15.878,-0.365,-0.400
15.881,-0.345,-0.410
15.883,-0.350,-0.420
15.886,-0.345,-0.420
15.889,-0.335,-0.425
15.892,-0.335,-0.435
15.894,-0.335,-0.430
15.897,-0.330,-0.425
15.900,-0.320,-0.415
15.903,-0.315,-0.395
15.906,-0.305,-0.400
15.908,-0.300,-0.385
15.911,-0.295,-0.385
15.914,-0.280,-0.390
15.917,-0.270,-0.395
15.919,-0.265,-0.420
15.922,-0.265,-0.440
15.925,-0.275,-0.445
15.928,-0.290,-0.470
15.931,-0.310,-0.460
15.933,-0.315,-0.460
15.936,-0.315,-0.460
15.939,-0.305,-0.470
15.942,-0.310,-0.445
15.944,-0.305,-0.445
15.947,-0.310,-0.450
15.950,-0.315,-0.435
15.953,-0.320,-0.440
15.956,-0.335,-0.440
15.958,-0.340,-0.460
15.961,-0.345,-0.455
15.964,-0.360,-0.445
15.967,-0.380,-0.435
15.969,-0.380,-0.435
15.972,-0.390,-0.420
15.975,-0.385,-0.415
15.978,-0.385,-0.400
15.981,-0.385,-0.415
15.983,-0.385,-0.410
15.986,-0.385,-0.425
15.989,-0.385,-0.425
15.992,-0.390,-0.430
15.994,-0.405,-0.430
15.997,-0.400,-0.420
16.000,-0.400,-0.415
16.003,-0.395,-0.405
16.006,-0.390,-0.405
16.008,-0.380,-0.410
16.011,-0.375,-0.405
16.014,-0.375,-0.410
16.017,-0.380,-0.400
16.019,-0.385,-0.405
16.022,-0.390,-0.415
16.025,-0.400,-0.425
16.028,-0.420,-0.430
16.031,-0.445,-0.440
16.033,-0.465,-0.425
16.036,-0.465,-0.410
16.039,-0.435,-0.400
16.042,-0.375,-0.415
16.044,-0.270,-0.425
16.047,-0.145,-0.475
16.050,0.015,-0.515
16.053,0.210,-0.570
16.056,0.425,-0.640
16.058,0.635,-0.680
16.061,0.800,-0.720
16.064,0.875,-0.705
16.067,0.815,-0.670
16.069,0.650,-0.600
16.072,0.400,-0.510
16.075,0.120,-0.425
16.078,-0.105,-0.340
16.081,-0.275,-0.310
16.083,-0.360,-0.290
16.086,-0.375,-0.305
16.089,-0.365,-0.330
16.092,-0.335,-0.395
16.094,-0.320,-0.430
16.097,-0.310,-0.455
16.100,-0.315,-0.475
16.103,-0.310,-0.465
16.106,-0.320,-0.450
16.108,-0.320,-0.440
16.111,-0.325,-0.425
16.114,-0.345,-0.420
16.117,-0.355,-0.420
16.119,-0.370,-0.420
16.122,-0.385,-0.440
16.125,-0.395,-0.435
16.128,-0.400,-0.435
16.131,-0.400,-0.430
16.133,-0.395,-0.425
16.136,-0.390,-0.420
16.139,-0.380,-0.405
16.142,-0.375,-0.405
16.144,-0.360,-0.405
16.147,-0.360,-0.410
16.150,-0.355,-0.410
16.153,-0.365,-0.420
16.156,-0.370,-0.430
16.158,-0.380,-0.440
16.161,-0.385,-0.445
16.164,-0.385,-0.435
16.167,-0.390,-0.430
16.169,-0.380,-0.425
16.172,-0.365,-0.415
16.175,-0.365,-0.400
16.178,-0.355,-0.405
16.181,-0.350,-0.410
16.183,-0.360,-0.410
16.186,-0.365,-0.425
16.189,-0.365,-0.435
16.192,-0.370,-0.440
16.194,-0.370,-0.445
16.197,-0.370,-0.430
16.200,-0.375,-0.435
16.203,-0.360,-0.440
16.206,-0.350,-0.430
16.208,-0.350,-0.425
16.211,-0.350,-0.415
16.214,-0.345,-0.420
16.217,-0.350,-0.420
16.219,-0.360,-0.430
16.222,-0.355,-0.430
16.225,-0.360,-0.460
16.228,-0.360,-0.450
16.231,-0.355,-0.445
16.233,-0.365,-0.440
16.236,-0.355,-0.425
16.239,-0.345,-0.430
16.242,-0.340,-0.420
16.244,-0.335,-0.430
16.247,-0.340,-0.440
16.250,-0.335,-0.430
16.253,-0.335,-0.450
16.256,-0.355,-0.450
16.258,-0.355,-0.465
16.261,-0.360,-0.465
16.264,-0.360,-0.480
16.267,-0.360,-0.460
16.269,-0.355,-0.450
16.272,-0.350,-0.455
16.275,-0.335,-0.445
16.278,-0.325,-0.445
16.281,-0.330,-0.450
16.283,-0.330,-0.455
16.286,-0.335,-0.460
16.289,-0.335,-0.465
16.292,-0.345,-0.480
16.294,-0.355,-0.485
16.297,-0.365,-0.485
16.300,-0.365,-0.475
16.303,-0.360,-0.470
16.306,-0.355,-0.470
16.308,-0.340,-0.465
16.311,-0.340,-0.455
16.314,-0.330,-0.465
16.317,-0.325,-0.465
16.319,-0.325,-0.475
16.322,-0.320,-0.490
16.325,-0.320,-0.490
16.328,-0.325,-0.505
16.331,-0.320,-0.495
16.333,-0.320,-0.490
16.336,-0.305,-0.490
16.339,-0.285,-0.495
16.342,-0.275,-0.490
16.344,-0.250,-0.480
16.347,-0.255,-0.495
16.350,-0.230,-0.495
16.353,-0.235,-0.505
16.356,-0.245,-0.510
16.358,-0.240,-0.510
16.361,-0.250,-0.510
16.364,-0.245,-0.510
16.367,-0.255,-0.505
