'Elapsed time','MLII','V1'
'seconds','mV','mV'
0.000,-0.105,0.190
0.003,-0.105,0.190
0.006,-0.105,0.190
0.008,-0.105,0.190
0.011,-0.105,0.190
0.014,-0.105,0.190
0.017,-0.105,0.190
0.019,-0.105,0.190
0.022,-0.125,0.190
0.025,-0.145,0.220
0.028,-0.150,0.225
0.031,-0.175,0.250
0.033,-0.195,0.225
0.036,-0.205,0.210
0.039,-0.200,0.210
0.042,-0.200,0.220
0.044,-0.195,0.230
0.047,-0.200,0.230
0.050,-0.200,0.215
0.053,-0.210,0.210
0.056,-0.210,0.215
0.058,-0.190,0.225
0.061,-0.190,0.230
0.064,-0.200,0.240
0.067,-0.215,0.230
0.069,-0.225,0.220
0.072,-0.225,0.225
0.075,-0.210,0.230
0.078,-0.210,0.255
0.081,-0.230,0.270
0.083,-0.245,0.270
0.086,-0.260,0.265
0.089,-0.255,0.260
0.092,-0.245,0.285
0.094,-0.230,0.295
0.097,-0.245,0.295
0.100,-0.280,0.295
0.103,-0.255,0.280
0.106,-0.165,0.275
0.108,-0.015,0.225
0.111,0.160,0.110
0.114,0.375,-0.040
0.117,0.645,-0.175
0.119,0.985,-0.270
0.122,1.370,-0.350
0.125,1.725,-0.395
0.128,1.935,-0.395
0.131,1.895,-0.330
0.133,1.625,-0.225
0.136,1.280,-0.120
0.139,0.915,-0.015
0.142,0.550,0.090
0.144,0.260,0.120
0.147,0.045,0.110
0.150,-0.110,0.105
0.153,-0.210,0.115
0.156,-0.255,0.140
0.158,-0.260,0.190
0.161,-0.235,0.220
0.164,-0.235,0.225
0.167,-0.270,0.205
0.169,-0.290,0.205
0.172,-0.305,0.230
0.175,-0.295,0.240
0.178,-0.295,0.265
0.181,-0.300,0.255
0.183,-0.330,0.240
0.186,-0.335,0.225
0.189,-0.325,0.240
0.192,-0.325,0.250
0.194,-0.315,0.260
0.197,-0.320,0.260
0.200,-0.330,0.260
0.203,-0.330,0.240
0.206,-0.325,0.240
0.208,-0.315,0.265
0.211,-0.320,0.260
0.214,-0.325,0.260
0.217,-0.325,0.245
0.219,-0.340,0.245
0.222,-0.325,0.240
0.225,-0.300,0.255
0.228,-0.300,0.265
0.231,-0.315,0.260
0.233,-0.320,0.235
0.236,-0.335,0.235
0.239,-0.330,0.240
0.242,-0.305,0.260
0.244,-0.300,0.260
0.247,-0.310,0.270
0.250,-0.325,0.250
0.253,-0.335,0.235
0.256,-0.315,0.240
0.258,-0.295,0.240
0.261,-0.310,0.255
0.264,-0.310,0.250
0.267,-0.325,0.215
0.269,-0.315,0.200
0.272,-0.300,0.215
0.275,-0.290,0.225
0.278,-0.275,0.230
0.281,-0.275,0.215
0.283,-0.285,0.195
0.286,-0.290,0.185
0.289,-0.275,0.185
0.292,-0.260,0.190
0.294,-0.245,0.200
0.297,-0.255,0.185
0.300,-0.255,0.165
0.303,-0.255,0.150
0.306,-0.230,0.140
0.308,-0.210,0.145
0.311,-0.180,0.150
0.314,-0.170,0.140
0.317,-0.170,0.110
0.319,-0.170,0.090
0.322,-0.165,0.095
0.325,-0.130,0.090
0.328,-0.110,0.085
0.331,-0.110,0.075
0.333,-0.110,0.065
0.336,-0.105,0.035
0.339,-0.095,0.040
0.342,-0.080,0.060
0.344,-0.050,0.050
0.347,-0.050,0.055
0.350,-0.050,0.040
0.353,-0.050,0.030
0.356,-0.040,0.025
0.358,-0.020,0.045
0.361,-0.015,0.070
0.364,-0.020,0.080
0.367,-0.045,0.070
0.369,-0.050,0.085
0.372,-0.050,0.095
0.375,-0.035,0.120
0.378,-0.045,0.150
0.381,-0.065,0.165
0.383,-0.105,0.180
0.386,-0.115,0.160
0.389,-0.120,0.185
0.392,-0.110,0.215
0.394,-0.115,0.245
0.397,-0.150,0.230
0.400,-0.180,0.240
0.403,-0.195,0.235
0.406,-0.195,0.245
0.408,-0.195,0.260
0.411,-0.195,0.275
0.414,-0.215,0.280
0.417,-0.245,0.275
0.419,-0.250,0.255
0.422,-0.245,0.265
0.425,-0.235,0.280
0.428,-0.235,0.295
0.431,-0.235,0.290
0.433,-0.260,0.270
0.436,-0.270,0.260
0.439,-0.255,0.270
0.442,-0.240,0.290
0.444,-0.245,0.295
0.447,-0.260,0.285
0.450,-0.285,0.270
0.453,-0.290,0.265
0.456,-0.265,0.275
0.458,-0.250,0.295
0.461,-0.255,0.300
0.464,-0.255,0.300
0.467,-0.270,0.280
0.469,-0.280,0.270
0.472,-0.260,0.280
0.475,-0.245,0.305
0.478,-0.245,0.300
0.481,-0.245,0.290
0.483,-0.270,0.275
0.486,-0.260,0.265
0.489,-0.240,0.265
0.492,-0.235,0.280
0.494,-0.240,0.305
0.497,-0.250,0.305
0.500,-0.255,0.285
0.503,-0.250,0.260
0.506,-0.225,0.280
0.508,-0.190,0.280
0.511,-0.190,0.270
0.514,-0.195,0.250
0.517,-0.195,0.225
0.519,-0.165,0.195
0.522,-0.130,0.180
0.525,-0.065,0.165
0.528,-0.020,0.115
0.531,-0.005,0.080
0.533,0.040,0.015
0.536,0.115,-0.040
0.539,0.225,-0.100
0.542,0.330,-0.160
0.544,0.415,-0.245
0.547,0.470,-0.320
0.550,0.530,-0.410
0.553,0.625,-0.465
0.556,0.770,-0.550
0.558,0.890,-0.600
0.561,1.000,-0.660
0.564,1.070,-0.725
0.567,1.155,-0.785
0.569,1.265,-0.825
0.572,1.400,-0.855
0.575,1.535,-0.870
0.578,1.660,-0.875
0.581,1.705,-0.885
0.583,1.675,-0.860
0.586,1.600,-0.800
0.589,1.525,-0.725
0.592,1.470,-0.625
0.594,1.405,-0.535
0.597,1.310,-0.450
0.600,1.225,-0.345
0.603,1.195,-0.250
0.606,1.150,-0.165
0.608,1.085,-0.100
0.611,1.010,-0.065
0.614,0.935,-0.055
0.617,0.875,-0.045
0.619,0.885,-0.055
0.622,0.900,-0.040
0.625,0.875,-0.045
0.628,0.760,-0.065
0.631,0.605,-0.060
0.633,0.455,-0.045
0.636,0.280,-0.005
0.639,0.125,0.070
0.642,-0.070,0.165
0.644,-0.245,0.255
0.647,-0.400,0.335
0.650,-0.490,0.365
0.653,-0.510,0.410
0.656,-0.545,0.420
0.658,-0.595,0.460
0.661,-0.635,0.465
0.664,-0.655,0.480
0.667,-0.675,0.485
0.669,-0.685,0.495
0.672,-0.705,0.505
0.675,-0.720,0.525
0.678,-0.720,0.525
0.681,-0.735,0.535
0.683,-0.750,0.535
0.686,-0.765,0.550
0.689,-0.750,0.545
0.692,-0.770,0.570
0.694,-0.795,0.595
0.697,-0.795,0.600
0.700,-0.820,0.600
0.703,-0.820,0.600
0.706,-0.825,0.615
0.708,-0.855,0.630
0.711,-0.860,0.650
0.714,-0.880,0.665
0.717,-0.885,0.660
0.719,-0.905,0.665
0.722,-0.905,0.680
0.725,-0.905,0.695
0.728,-0.925,0.725
0.731,-0.940,0.735
0.733,-0.975,0.735
0.736,-0.980,0.750
0.739,-0.980,0.755
0.742,-0.965,0.785
0.744,-0.965,0.800
0.747,-0.995,0.795
0.750,-1.015,0.790
0.753,-1.020,0.790
0.756,-1.025,0.815
0.758,-1.030,0.825
0.761,-1.035,0.825
0.764,-1.035,0.825
0.767,-1.040,0.810
0.769,-1.035,0.790
0.772,-1.040,0.790
0.775,-0.995,0.780
0.778,-0.990,0.775
0.781,-1.000,0.770
0.783,-1.010,0.720
0.786,-0.995,0.700
0.789,-0.965,0.675
0.792,-0.910,0.670
0.794,-0.905,0.640
0.797,-0.905,0.620
0.800,-0.885,0.585
0.803,-0.850,0.535
0.806,-0.790,0.515
0.808,-0.745,0.515
0.811,-0.720,0.490
0.814,-0.715,0.475
0.817,-0.695,0.425
0.819,-0.665,0.405
0.822,-0.605,0.400
0.825,-0.565,0.385
0.828,-0.540,0.395
0.831,-0.530,0.365
0.833,-0.515,0.330
0.836,-0.475,0.320
0.839,-0.445,0.320
0.842,-0.415,0.330
0.844,-0.410,0.315
0.847,-0.410,0.310
0.850,-0.410,0.290
0.853,-0.395,0.275
0.856,-0.380,0.295
0.858,-0.355,0.290
0.861,-0.355,0.295
0.864,-0.385,0.295
0.867,-0.390,0.285
0.869,-0.390,0.275
0.872,-0.360,0.280
0.875,-0.340,0.295
0.878,-0.350,0.310
0.881,-0.365,0.295
0.883,-0.385,0.285
0.886,-0.385,0.280
0.889,-0.360,0.295
0.892,-0.345,0.295
0.894,-0.365,0.290
0.897,-0.360,0.290
0.900,-0.370,0.295
0.903,-0.360,0.275
0.906,-0.345,0.290
0.908,-0.340,0.290
0.911,-0.360,0.290
0.914,-0.370,0.290
0.917,-0.370,0.265
0.919,-0.355,0.275
0.922,-0.335,0.280
0.925,-0.330,0.270
0.928,-0.345,0.280
0.931,-0.350,0.275
0.933,-0.355,0.270
0.936,-0.335,0.255
0.939,-0.330,0.255
0.942,-0.320,0.265
0.944,-0.320,0.275
0.947,-0.325,0.275
0.950,-0.340,0.255
0.953,-0.320,0.245
0.956,-0.305,0.245
0.958,-0.305,0.255
0.961,-0.295,0.265
0.964,-0.290,0.265
0.967,-0.300,0.255
0.969,-0.300,0.255
0.972,-0.295,0.255
0.975,-0.290,0.260
0.978,-0.280,0.260
0.981,-0.295,0.265
0.983,-0.305,0.260
0.986,-0.300,0.245
0.989,-0.290,0.250
0.992,-0.280,0.245
0.994,-0.285,0.255
0.997,-0.280,0.260
1.000,-0.315,0.230
1.003,-0.285,0.230
1.006,-0.275,0.230
1.008,-0.265,0.255
1.011,-0.260,0.255
1.014,-0.275,0.265
1.017,-0.290,0.245
1.019,-0.280,0.225
1.022,-0.275,0.235
1.025,-0.265,0.245
1.028,-0.260,0.260
1.031,-0.270,0.245
1.033,-0.285,0.235
1.036,-0.280,0.230
1.039,-0.265,0.230
1.042,-0.255,0.230
1.044,-0.260,0.245
1.047,-0.270,0.245
1.050,-0.280,0.230
1.053,-0.280,0.215
1.056,-0.270,0.215
1.058,-0.260,0.245
1.061,-0.260,0.245
1.064,-0.255,0.235
1.067,-0.275,0.210
1.069,-0.290,0.205
1.072,-0.275,0.220
1.075,-0.250,0.240
1.078,-0.255,0.250
1.081,-0.260,0.240
1.083,-0.285,0.220
1.086,-0.290,0.220
1.089,-0.280,0.225
1.092,-0.260,0.235
1.094,-0.250,0.250
1.097,-0.285,0.240
1.100,-0.280,0.215
1.103,-0.280,0.205
1.106,-0.265,0.220
1.108,-0.245,0.230
1.111,-0.235,0.245
1.114,-0.265,0.235
1.117,-0.280,0.215
1.119,-0.280,0.215
1.122,-0.255,0.215
1.125,-0.235,0.230
1.128,-0.230,0.240
1.131,-0.250,0.220
1.133,-0.260,0.220
1.136,-0.260,0.205
1.139,-0.235,0.210
1.142,-0.235,0.225
1.144,-0.230,0.220
1.147,-0.250,0.220
1.150,-0.255,0.200
1.153,-0.255,0.200
1.156,-0.235,0.220
1.158,-0.220,0.220
1.161,-0.235,0.225
1.164,-0.245,0.215
1.167,-0.260,0.210
1.169,-0.255,0.200
1.172,-0.230,0.215
1.175,-0.210,0.225
1.178,-0.210,0.230
1.181,-0.230,0.230
1.183,-0.230,0.225
1.186,-0.210,0.220
1.189,-0.180,0.240
1.192,-0.150,0.255
1.194,-0.160,0.255
1.197,-0.170,0.255
1.200,-0.175,0.250
1.203,-0.135,0.240
1.206,-0.090,0.245
1.208,-0.065,0.255
1.211,-0.065,0.240
1.214,-0.095,0.230
1.217,-0.105,0.195
1.219,-0.095,0.175
1.222,-0.090,0.185
1.225,-0.070,0.190
1.228,-0.085,0.180
1.231,-0.125,0.170
1.233,-0.145,0.170
1.236,-0.150,0.165
1.239,-0.145,0.170
1.242,-0.165,0.180
1.244,-0.205,0.185
1.247,-0.245,0.190
1.250,-0.250,0.195
1.253,-0.235,0.190
1.256,-0.210,0.190
1.258,-0.220,0.210
1.261,-0.240,0.215
1.264,-0.255,0.205
1.267,-0.265,0.195
1.269,-0.255,0.200
1.272,-0.235,0.190
1.275,-0.250,0.200
1.278,-0.270,0.215
1.281,-0.290,0.200
1.283,-0.280,0.195
1.286,-0.245,0.200
1.289,-0.220,0.200
1.292,-0.235,0.210
1.294,-0.245,0.210
1.297,-0.260,0.205
1.300,-0.260,0.190
1.303,-0.250,0.185
1.306,-0.225,0.190
1.308,-0.225,0.190
1.311,-0.250,0.170
1.314,-0.270,0.180
1.317,-0.260,0.170
1.319,-0.200,0.165
1.322,-0.085,0.130
1.325,0.060,0.085
1.328,0.215,0.020
1.331,0.420,-0.040
1.333,0.680,-0.045
1.336,0.980,-0.035
1.339,1.265,-0.045
1.342,1.465,-0.040
1.344,1.485,0.010
1.347,1.260,0.085
1.350,0.935,0.130
1.353,0.590,0.135
1.356,0.240,0.150
1.358,-0.030,0.130
1.361,-0.180,0.105
1.364,-0.255,0.090
1.367,-0.255,0.095
1.369,-0.270,0.110
1.372,-0.270,0.155
1.375,-0.275,0.180
1.378,-0.265,0.210
1.381,-0.270,0.215
1.383,-0.275,0.210
1.386,-0.285,0.210
1.389,-0.295,0.215
1.392,-0.305,0.235
1.394,-0.310,0.230
1.397,-0.310,0.230
1.400,-0.310,0.225
1.403,-0.315,0.220
1.406,-0.315,0.215
1.408,-0.320,0.220
1.411,-0.305,0.230
1.414,-0.295,0.230
1.417,-0.290,0.225
1.419,-0.300,0.215
1.422,-0.320,0.220
1.425,-0.295,0.225
1.428,-0.295,0.225
1.431,-0.295,0.240
1.433,-0.295,0.220
1.436,-0.295,0.210
1.439,-0.285,0.220
1.442,-0.280,0.230
1.444,-0.280,0.245
1.447,-0.260,0.240
1.450,-0.290,0.225
1.453,-0.270,0.205
1.456,-0.265,0.200
1.458,-0.250,0.210
1.461,-0.245,0.215
1.464,-0.245,0.215
1.467,-0.270,0.195
1.469,-0.255,0.180
1.472,-0.245,0.165
1.475,-0.225,0.185
1.478,-0.215,0.195
1.481,-0.215,0.180
1.483,-0.230,0.160
1.486,-0.225,0.155
1.489,-0.195,0.160
1.492,-0.195,0.160
1.494,-0.185,0.175
1.497,-0.195,0.150
1.500,-0.185,0.135
1.503,-0.170,0.120
1.506,-0.150,0.120
1.508,-0.130,0.130
1.511,-0.120,0.120
1.514,-0.125,0.115
1.517,-0.120,0.085
1.519,-0.110,0.065
1.522,-0.080,0.055
1.525,-0.060,0.055
1.528,-0.035,0.050
1.531,-0.030,0.040
1.533,-0.030,0.005
1.536,-0.015,-0.010
1.539,0.005,-0.015
1.542,0.040,-0.015
1.544,0.060,-0.015
1.547,0.070,-0.020
1.550,0.060,-0.055
1.553,0.065,-0.075
1.556,0.090,-0.065
1.558,0.125,-0.075
1.561,0.150,-0.060
1.564,0.120,-0.060
1.567,0.125,-0.085
1.569,0.120,-0.090
1.572,0.140,-0.090
1.575,0.170,-0.060
1.578,0.175,-0.045
1.581,0.160,-0.050
1.583,0.145,-0.055
1.586,0.125,-0.050
1.589,0.140,-0.020
1.592,0.145,0.000
1.594,0.140,0.030
1.597,0.110,0.045
1.600,0.070,0.045
1.603,0.040,0.055
1.606,0.030,0.085
1.608,0.040,0.125
1.611,0.020,0.150
1.614,-0.020,0.155
1.617,-0.060,0.155
1.619,-0.070,0.170
1.622,-0.080,0.195
1.625,-0.075,0.215
1.628,-0.085,0.245
1.631,-0.115,0.240
1.633,-0.160,0.240
1.636,-0.180,0.240
1.639,-0.165,0.260
1.642,-0.165,0.270
1.644,-0.165,0.290
1.647,-0.205,0.280
1.650,-0.235,0.270
1.653,-0.230,0.260
1.656,-0.220,0.280
1.658,-0.200,0.290
1.661,-0.210,0.305
1.664,-0.225,0.305
1.667,-0.255,0.290
1.669,-0.250,0.280
1.672,-0.225,0.295
1.675,-0.220,0.300
1.678,-0.210,0.315
1.681,-0.235,0.305
1.683,-0.250,0.285
1.686,-0.255,0.280
1.689,-0.230,0.285
1.692,-0.225,0.305
1.694,-0.225,0.315
1.697,-0.225,0.305
1.700,-0.255,0.290
1.703,-0.245,0.275
1.706,-0.230,0.285
1.708,-0.210,0.285
1.711,-0.200,0.290
1.714,-0.215,0.280
1.717,-0.235,0.275
1.719,-0.230,0.260
1.722,-0.220,0.255
1.725,-0.205,0.275
1.728,-0.200,0.285
1.731,-0.230,0.270
1.733,-0.245,0.250
1.736,-0.235,0.240
1.739,-0.215,0.245
1.742,-0.200,0.275
1.744,-0.195,0.270
1.747,-0.220,0.265
1.750,-0.250,0.245
1.753,-0.260,0.250
1.756,-0.230,0.260
1.758,-0.220,0.275
1.761,-0.210,0.275
1.764,-0.225,0.265
1.767,-0.245,0.260
1.769,-0.220,0.265
1.772,-0.200,0.275
1.775,-0.175,0.300
1.778,-0.160,0.305
1.781,-0.180,0.300
1.783,-0.180,0.285
1.786,-0.155,0.275
1.789,-0.115,0.270
1.792,-0.080,0.290
1.794,-0.060,0.295
1.797,-0.070,0.270
1.800,-0.080,0.235
1.803,-0.085,0.225
1.806,-0.065,0.220
1.808,-0.055,0.210
1.811,-0.060,0.215
1.814,-0.085,0.225
1.817,-0.115,0.195
1.819,-0.125,0.190
1.822,-0.135,0.210
1.825,-0.130,0.215
1.828,-0.140,0.225
1.831,-0.180,0.225
1.833,-0.220,0.210
1.836,-0.240,0.220
1.839,-0.245,0.245
1.842,-0.240,0.280
1.844,-0.235,0.305
1.847,-0.255,0.285
1.850,-0.260,0.275
1.853,-0.235,0.260
1.856,-0.195,0.230
1.858,-0.150,0.215
1.861,-0.100,0.170
1.864,-0.060,0.125
1.867,-0.035,0.060
1.869,0.035,0.000
1.872,0.115,-0.060
1.875,0.200,-0.120
1.878,0.290,-0.220
1.881,0.350,-0.335
1.883,0.415,-0.445
1.886,0.490,-0.540
1.889,0.570,-0.600
1.892,0.630,-0.650
1.894,0.670,-0.705
1.897,0.690,-0.790
1.900,0.745,-0.870
1.903,0.830,-0.940
1.906,0.940,-0.980
1.908,1.025,-0.995
1.911,1.060,-1.010
1.914,1.085,-1.045
1.917,1.190,-1.100
1.919,1.370,-1.130
1.922,1.510,-1.155
1.925,1.605,-1.165
1.928,1.660,-1.180
1.931,1.690,-1.160
1.933,1.765,-1.115
1.936,1.855,-1.050
1.939,1.935,-0.925
1.942,1.945,-0.765
1.944,1.735,-0.585
1.947,1.335,-0.360
1.950,0.930,-0.180
1.953,0.610,-0.035
1.956,0.330,0.085
1.958,0.100,0.170
1.961,-0.100,0.210
1.964,-0.265,0.255
1.967,-0.375,0.290
1.969,-0.410,0.310
1.972,-0.405,0.345
1.975,-0.415,0.385
1.978,-0.460,0.405
1.981,-0.495,0.405
1.983,-0.545,0.415
1.986,-0.545,0.420
1.989,-0.545,0.435
1.992,-0.545,0.465
1.994,-0.560,0.465
1.997,-0.590,0.465
2.000,-0.615,0.465
2.003,-0.610,0.460
2.006,-0.610,0.475
2.008,-0.605,0.490
2.011,-0.600,0.505
2.014,-0.630,0.495
2.017,-0.645,0.495
2.019,-0.630,0.490
2.022,-0.615,0.515
2.025,-0.615,0.525
2.028,-0.615,0.545
2.031,-0.660,0.540
2.033,-0.685,0.540
2.036,-0.675,0.535
2.039,-0.660,0.565
2.042,-0.650,0.590
2.044,-0.655,0.600
2.047,-0.690,0.620
2.050,-0.720,0.605
2.053,-0.725,0.615
2.056,-0.700,0.640
2.058,-0.700,0.665
2.061,-0.715,0.685
2.064,-0.745,0.685
2.067,-0.760,0.685
2.069,-0.765,0.695
2.072,-0.755,0.715
2.075,-0.755,0.745
2.078,-0.755,0.760
2.081,-0.790,0.760
2.083,-0.805,0.760
2.086,-0.795,0.755
2.089,-0.785,0.775
2.092,-0.770,0.800
2.094,-0.780,0.815
2.097,-0.800,0.815
2.100,-0.825,0.815
2.103,-0.830,0.805
2.106,-0.820,0.830
2.108,-0.800,0.845
2.111,-0.790,0.855
2.114,-0.805,0.840
2.117,-0.840,0.820
2.119,-0.830,0.815
2.122,-0.805,0.805
2.125,-0.785,0.810
2.128,-0.765,0.805
2.131,-0.765,0.780
2.133,-0.780,0.745
2.136,-0.760,0.735
2.139,-0.715,0.720
2.142,-0.670,0.710
2.144,-0.670,0.690
2.147,-0.675,0.660
2.150,-0.675,0.610
2.153,-0.635,0.575
2.156,-0.590,0.560
2.158,-0.555,0.555
2.161,-0.535,0.545
2.164,-0.545,0.495
2.167,-0.520,0.470
2.169,-0.495,0.440
2.172,-0.445,0.410
2.175,-0.415,0.410
2.178,-0.395,0.400
2.181,-0.415,0.375
2.183,-0.420,0.360
2.186,-0.380,0.340
2.189,-0.360,0.330
2.192,-0.350,0.350
2.194,-0.340,0.325
2.197,-0.350,0.315
2.200,-0.365,0.305
2.203,-0.370,0.290
2.206,-0.340,0.300
2.208,-0.310,0.315
2.211,-0.325,0.315
2.214,-0.355,0.305
2.217,-0.370,0.285
2.219,-0.355,0.285
2.222,-0.340,0.295
2.225,-0.330,0.305
2.228,-0.330,0.300
2.231,-0.370,0.300
2.233,-0.385,0.285
2.236,-0.360,0.280
2.239,-0.350,0.285
2.242,-0.340,0.305
2.244,-0.325,0.300
2.247,-0.355,0.285
2.250,-0.375,0.265
2.253,-0.350,0.255
2.256,-0.345,0.285
2.258,-0.330,0.290
2.261,-0.325,0.295
2.264,-0.360,0.295
2.267,-0.365,0.280
2.269,-0.350,0.275
2.272,-0.340,0.285
2.275,-0.320,0.300
2.278,-0.330,0.290
2.281,-0.350,0.285
2.283,-0.355,0.265
2.286,-0.355,0.275
2.289,-0.335,0.275
2.292,-0.325,0.300
2.294,-0.330,0.300
2.297,-0.345,0.310
2.300,-0.355,0.295
2.303,-0.355,0.285
2.306,-0.325,0.290
2.308,-0.305,0.315
2.311,-0.285,0.295
2.314,-0.295,0.265
2.317,-0.275,0.245
2.319,-0.245,0.225
2.322,-0.190,0.210
2.325,-0.150,0.185
2.328,-0.135,0.155
2.331,-0.110,0.090
2.333,-0.055,0.025
2.336,0.045,-0.055
2.339,0.170,-0.145
2.342,0.270,-0.245
2.344,0.390,-0.335
2.347,0.490,-0.425
2.350,0.595,-0.535
2.353,0.710,-0.635
2.356,0.805,-0.740
2.358,0.910,-0.800
2.361,0.975,-0.840
2.364,1.035,-0.865
2.367,1.105,-0.885
2.369,1.185,-0.900
2.372,1.230,-0.875
2.375,1.230,-0.820
2.378,1.175,-0.750
2.381,1.100,-0.690
2.383,1.025,-0.625
2.386,0.995,-0.525
2.389,0.980,-0.405
2.392,0.970,-0.270
2.394,0.930,-0.195
2.397,0.885,-0.145
2.400,0.855,-0.115
2.403,0.865,-0.085
2.406,0.880,-0.025
2.408,0.880,0.005
2.411,0.895,0.025
2.414,0.880,0.025
2.417,0.885,0.020
2.419,0.845,-0.005
2.422,0.785,0.000
2.425,0.655,0.025
2.428,0.520,0.070
2.431,0.300,0.120
2.433,0.095,0.190
2.436,-0.075,0.240
2.439,-0.205,0.300
2.442,-0.305,0.330
2.444,-0.375,0.365
2.447,-0.430,0.380
2.450,-0.475,0.385
2.453,-0.490,0.400
2.456,-0.530,0.415
2.458,-0.575,0.425
2.461,-0.620,0.445
2.464,-0.665,0.450
2.467,-0.690,0.475
2.469,-0.710,0.495
2.472,-0.715,0.480
2.475,-0.725,0.505
2.478,-0.765,0.520
2.481,-0.805,0.520
2.483,-0.820,0.510
2.486,-0.810,0.525
2.489,-0.800,0.535
2.492,-0.810,0.545
2.494,-0.830,0.550
2.497,-0.845,0.550
2.500,-0.865,0.545
2.503,-0.880,0.555
2.506,-0.870,0.560
2.508,-0.880,0.580
2.511,-0.895,0.595
2.514,-0.920,0.610
2.517,-0.940,0.605
2.519,-0.945,0.600
2.522,-0.960,0.610
2.525,-0.970,0.635
2.528,-0.970,0.635
2.531,-1.010,0.665
2.533,-1.015,0.640
2.536,-1.015,0.650
2.539,-1.015,0.665
2.542,-1.020,0.680
2.544,-1.060,0.695
2.547,-1.080,0.700
2.550,-1.105,0.685
2.553,-1.095,0.690
2.556,-1.090,0.695
2.558,-1.110,0.695
2.561,-1.120,0.695
2.564,-1.140,0.695
2.567,-1.140,0.670
2.569,-1.140,0.650
2.572,-1.140,0.640
2.575,-1.125,0.640
2.578,-1.110,0.625
2.581,-1.110,0.620
2.583,-1.105,0.600
2.586,-1.100,0.590
2.589,-1.080,0.570
2.592,-1.050,0.565
2.594,-1.010,0.555
2.597,-0.985,0.525
2.600,-0.970,0.490
2.603,-0.960,0.485
2.606,-0.905,0.465
2.608,-0.865,0.460
2.611,-0.830,0.430
2.614,-0.810,0.410
2.617,-0.775,0.385
2.619,-0.735,0.360
2.622,-0.690,0.360
2.625,-0.655,0.360
2.628,-0.615,0.350
2.631,-0.600,0.340
2.633,-0.580,0.310
2.636,-0.575,0.300
2.639,-0.540,0.290
2.642,-0.510,0.300
2.644,-0.485,0.305
2.647,-0.485,0.285
2.650,-0.490,0.275
2.653,-0.480,0.270
2.656,-0.455,0.270
2.658,-0.455,0.280
2.661,-0.445,0.290
2.664,-0.445,0.290
2.667,-0.455,0.280
2.669,-0.465,0.265
2.672,-0.430,0.260
2.675,-0.420,0.285
2.678,-0.415,0.290
2.681,-0.440,0.290
2.683,-0.465,0.290
2.686,-0.440,0.280
2.689,-0.420,0.280
2.692,-0.400,0.300
2.694,-0.410,0.300
2.697,-0.410,0.290
2.700,-0.445,0.265
2.703,-0.435,0.260
2.706,-0.420,0.270
2.708,-0.390,0.285
2.711,-0.395,0.295
2.714,-0.395,0.285
2.717,-0.420,0.275
2.719,-0.425,0.265
2.722,-0.405,0.275
2.725,-0.395,0.270
2.728,-0.385,0.290
2.731,-0.385,0.280
2.733,-0.410,0.255
2.736,-0.395,0.245
2.739,-0.385,0.250
2.742,-0.365,0.265
2.744,-0.355,0.275
2.747,-0.375,0.265
2.750,-0.395,0.250
2.753,-0.390,0.240
2.756,-0.380,0.250
2.758,-0.350,0.265
2.761,-0.350,0.265
2.764,-0.365,0.260
2.767,-0.385,0.255
2.769,-0.390,0.240
2.772,-0.345,0.250
2.775,-0.340,0.265
2.778,-0.360,0.250
2.781,-0.380,0.235
2.783,-0.375,0.230
2.786,-0.340,0.240
2.789,-0.325,0.245
2.792,-0.335,0.245
2.794,-0.350,0.235
2.797,-0.355,0.225
2.800,-0.340,0.210
2.803,-0.320,0.220
2.806,-0.315,0.245
2.808,-0.315,0.235
2.811,-0.335,0.235
2.814,-0.340,0.215
2.817,-0.335,0.220
2.819,-0.310,0.225
2.822,-0.305,0.235
2.825,-0.320,0.230
2.828,-0.365,0.225
2.831,-0.380,0.205
2.833,-0.345,0.205
2.836,-0.340,0.220
2.839,-0.320,0.215
2.842,-0.330,0.225
2.844,-0.330,0.225
2.847,-0.345,0.205
2.850,-0.335,0.195
2.853,-0.320,0.215
2.856,-0.305,0.210
2.858,-0.305,0.210
2.861,-0.325,0.210
2.864,-0.325,0.200
2.867,-0.330,0.185
2.869,-0.290,0.200
2.872,-0.290,0.220
2.875,-0.295,0.215
2.878,-0.320,0.205
2.881,-0.330,0.200
2.883,-0.330,0.190
2.886,-0.295,0.200
2.889,-0.285,0.215
2.892,-0.305,0.205
2.894,-0.340,0.200
2.897,-0.335,0.190
2.900,-0.325,0.190
2.903,-0.325,0.190
2.906,-0.305,0.205
2.908,-0.315,0.210
2.911,-0.325,0.210
2.914,-0.335,0.200
2.917,-0.325,0.190
2.919,-0.300,0.200
2.922,-0.295,0.200
2.925,-0.310,0.190
2.928,-0.320,0.190
2.931,-0.330,0.170
2.933,-0.320,0.165
2.936,-0.310,0.185
2.939,-0.280,0.200
2.942,-0.295,0.200
2.944,-0.320,0.185
2.947,-0.335,0.170
2.950,-0.330,0.175
2.953,-0.320,0.175
2.956,-0.295,0.180
2.958,-0.285,0.185
2.961,-0.320,0.195
2.964,-0.320,0.165
2.967,-0.310,0.175
2.969,-0.300,0.180
2.972,-0.270,0.195
2.975,-0.275,0.185
2.978,-0.300,0.175
2.981,-0.310,0.175
2.983,-0.305,0.155
2.986,-0.285,0.180
2.989,-0.275,0.195
2.992,-0.275,0.195
2.994,-0.300,0.185
2.997,-0.315,0.165
3.000,-0.320,0.165
3.003,-0.285,0.165
3.006,-0.260,0.185
3.008,-0.280,0.190
3.011,-0.295,0.175
3.014,-0.295,0.155
3.017,-0.285,0.165
3.019,-0.280,0.155
3.022,-0.275,0.175
3.025,-0.285,0.170
3.028,-0.290,0.165
3.031,-0.300,0.160
3.033,-0.305,0.160
3.036,-0.290,0.155
3.039,-0.265,0.180
3.042,-0.290,0.190
3.044,-0.285,0.165
3.047,-0.295,0.150
3.050,-0.295,0.145
3.053,-0.280,0.165
3.056,-0.260,0.170
3.058,-0.265,0.180
3.061,-0.290,0.175
3.064,-0.315,0.160
3.067,-0.305,0.155
3.069,-0.285,0.165
3.072,-0.260,0.165
3.075,-0.285,0.175
3.078,-0.280,0.170
3.081,-0.300,0.150
3.083,-0.295,0.145
3.086,-0.270,0.160
3.089,-0.260,0.170
3.092,-0.260,0.170
3.094,-0.280,0.170
3.097,-0.290,0.155
3.100,-0.290,0.140
3.103,-0.285,0.160
3.106,-0.255,0.185
3.108,-0.250,0.180
3.111,-0.255,0.170
3.114,-0.265,0.160
3.117,-0.245,0.165
3.119,-0.225,0.170
3.122,-0.200,0.195
3.125,-0.185,0.200
3.128,-0.190,0.195
3.131,-0.190,0.175
3.133,-0.185,0.170
3.136,-0.155,0.170
3.139,-0.110,0.155
3.142,-0.100,0.155
3.144,-0.095,0.125
3.147,-0.105,0.100
3.150,-0.100,0.090
3.153,-0.095,0.095
3.156,-0.085,0.105
3.158,-0.080,0.120
3.161,-0.120,0.105
3.164,-0.150,0.105
3.167,-0.170,0.085
3.169,-0.145,0.080
3.172,-0.150,0.100
3.175,-0.155,0.095
3.178,-0.190,0.090
3.181,-0.200,0.065
3.183,-0.205,0.075
3.186,-0.235,0.090
3.189,-0.210,0.120
3.192,-0.210,0.135
3.194,-0.230,0.135
3.197,-0.245,0.105
3.200,-0.265,0.105
3.203,-0.245,0.100
3.206,-0.225,0.120
3.208,-0.225,0.125
3.211,-0.230,0.125
3.214,-0.260,0.105
3.217,-0.245,0.095
3.219,-0.230,0.105
3.222,-0.220,0.120
3.225,-0.225,0.110
3.228,-0.240,0.110
3.231,-0.245,0.105
3.233,-0.255,0.100
3.236,-0.235,0.105
3.239,-0.230,0.110
3.242,-0.220,0.120
3.244,-0.240,0.100
3.247,-0.250,0.070
3.250,-0.270,0.065
3.253,-0.275,0.065
3.256,-0.255,0.075
3.258,-0.205,0.085
3.261,-0.115,0.045
3.264,0.025,-0.030
3.267,0.210,-0.110
3.269,0.485,-0.145
3.272,0.795,-0.130
3.275,1.080,-0.120
3.278,1.330,-0.115
3.281,1.520,-0.130
3.283,1.560,-0.095
3.286,1.355,-0.025
3.289,0.995,0.040
3.292,0.570,0.095
3.294,0.175,0.085
3.297,-0.095,0.040
3.300,-0.200,0.010
3.303,-0.220,-0.010
3.306,-0.225,0.000
3.308,-0.220,0.025
3.311,-0.250,0.060
3.314,-0.255,0.080
3.317,-0.250,0.085
3.319,-0.220,0.095
3.322,-0.225,0.110
3.325,-0.240,0.125
3.328,-0.250,0.110
3.331,-0.265,0.110
3.333,-0.275,0.110
3.336,-0.250,0.105
3.339,-0.260,0.120
3.342,-0.285,0.120
3.344,-0.300,0.125
3.347,-0.290,0.115
3.350,-0.290,0.110
3.353,-0.265,0.095
3.356,-0.260,0.110
3.358,-0.265,0.115
3.361,-0.275,0.110
3.364,-0.280,0.100
3.367,-0.285,0.075
3.369,-0.255,0.095
3.372,-0.235,0.115
3.375,-0.265,0.115
3.378,-0.270,0.105
3.381,-0.275,0.085
3.383,-0.270,0.080
3.386,-0.250,0.090
3.389,-0.225,0.095
3.392,-0.220,0.105
3.394,-0.235,0.105
3.397,-0.240,0.090
3.400,-0.240,0.065
3.403,-0.230,0.075
3.406,-0.210,0.085
3.408,-0.205,0.085
3.411,-0.220,0.070
3.414,-0.210,0.060
3.417,-0.195,0.045
3.419,-0.190,0.050
3.422,-0.175,0.060
3.425,-0.160,0.060
3.428,-0.160,0.045
3.431,-0.165,0.035
3.433,-0.155,0.010
3.436,-0.130,0.020
3.439,-0.135,0.035
3.442,-0.125,0.035
3.444,-0.115,0.015
3.447,-0.110,-0.005
3.450,-0.110,-0.015
3.453,-0.080,-0.025
3.456,-0.065,-0.030
3.458,-0.050,-0.020
3.461,-0.060,-0.040
3.464,-0.050,-0.065
3.467,-0.045,-0.075
3.469,-0.005,-0.085
3.472,0.015,-0.080
3.475,0.020,-0.090
3.478,0.025,-0.105
3.481,0.015,-0.135
3.483,0.035,-0.145
3.486,0.065,-0.145
3.489,0.105,-0.150
3.492,0.115,-0.155
3.494,0.105,-0.165
3.497,0.095,-0.190
3.500,0.125,-0.180
3.503,0.140,-0.200
3.506,0.170,-0.185
3.508,0.165,-0.180
3.511,0.155,-0.190
3.514,0.150,-0.205
3.517,0.155,-0.215
3.519,0.180,-0.210
3.522,0.195,-0.205
3.525,0.215,-0.180
3.528,0.200,-0.190
3.531,0.205,-0.185
3.533,0.205,-0.190
3.536,0.210,-0.175
3.539,0.215,-0.155
3.542,0.220,-0.135
3.544,0.185,-0.130
3.547,0.175,-0.125
3.550,0.170,-0.120
3.553,0.170,-0.090
3.556,0.180,-0.060
3.558,0.160,-0.040
3.561,0.130,-0.025
3.564,0.100,-0.025
3.567,0.070,-0.015
3.569,0.050,0.010
3.572,0.035,0.025
3.575,0.025,0.040
3.578,0.010,0.060
3.581,-0.015,0.050
3.583,-0.035,0.050
3.586,-0.045,0.085
3.589,-0.060,0.095
3.592,-0.065,0.100
3.594,-0.080,0.100
3.597,-0.090,0.100
3.600,-0.090,0.090
3.603,-0.095,0.100
3.606,-0.085,0.115
3.608,-0.090,0.120
3.611,-0.095,0.125
3.614,-0.110,0.115
3.617,-0.110,0.115
3.619,-0.105,0.120
3.622,-0.090,0.130
3.625,-0.095,0.130
3.628,-0.120,0.130
3.631,-0.120,0.125
3.633,-0.125,0.115
3.636,-0.105,0.115
3.639,-0.100,0.125
3.642,-0.105,0.125
3.644,-0.105,0.120
3.647,-0.100,0.110
3.650,-0.110,0.095
3.653,-0.100,0.095
3.656,-0.100,0.105
3.658,-0.110,0.115
3.661,-0.115,0.105
3.664,-0.120,0.080
3.667,-0.120,0.075
3.669,-0.110,0.085
3.672,-0.090,0.105
3.675,-0.100,0.100
3.678,-0.115,0.100
3.681,-0.115,0.085
3.683,-0.105,0.070
3.686,-0.095,0.075
3.689,-0.090,0.085
3.692,-0.090,0.095
3.694,-0.100,0.090
3.697,-0.105,0.090
3.700,-0.090,0.075
3.703,-0.100,0.080
3.706,-0.070,0.095
3.708,-0.075,0.095
3.711,-0.090,0.105
3.714,-0.090,0.090
3.717,-0.080,0.090
3.719,-0.045,0.105
3.722,-0.050,0.130
3.725,-0.035,0.120
3.728,-0.030,0.120
3.731,-0.030,0.105
3.733,-0.025,0.105
3.736,0.025,0.110
3.739,0.035,0.130
3.742,0.060,0.125
3.744,0.050,0.130
3.747,0.045,0.100
3.750,0.065,0.090
3.753,0.080,0.080
3.756,0.090,0.080
3.758,0.100,0.075
3.761,0.095,0.055
3.764,0.110,0.010
3.767,0.150,-0.020
3.769,0.195,-0.060
3.772,0.225,-0.090
3.775,0.275,-0.160
3.778,0.315,-0.240
3.781,0.360,-0.345
3.783,0.450,-0.450
3.786,0.555,-0.540
3.789,0.625,-0.600
3.792,0.675,-0.655
3.794,0.710,-0.715
3.797,0.780,-0.775
3.800,0.850,-0.835
3.803,0.935,-0.865
3.806,1.045,-0.890
3.808,1.130,-0.920
3.811,1.195,-0.955
3.814,1.245,-0.985
3.817,1.305,-1.035
3.819,1.415,-1.065
3.822,1.535,-1.055
3.825,1.635,-1.045
3.828,1.645,-1.005
3.831,1.610,-0.970
3.833,1.560,-0.910
3.836,1.530,-0.830
3.839,1.500,-0.755
3.842,1.450,-0.665
3.844,1.370,-0.575
3.847,1.305,-0.510
3.850,1.255,-0.435
3.853,1.235,-0.355
3.856,1.185,-0.295
3.858,1.145,-0.270
3.861,1.085,-0.255
3.864,1.040,-0.260
3.867,1.010,-0.260
3.869,1.005,-0.250
3.872,0.995,-0.235
3.875,0.960,-0.230
3.878,0.890,-0.230
3.881,0.785,-0.240
3.883,0.680,-0.235
3.886,0.560,-0.190
3.889,0.395,-0.130
3.892,0.190,-0.050
3.894,-0.025,0.030
3.897,-0.185,0.095
3.900,-0.290,0.150
3.903,-0.360,0.200
3.906,-0.380,0.250
3.908,-0.430,0.270
3.911,-0.480,0.280
3.914,-0.500,0.275
3.917,-0.510,0.290
3.919,-0.515,0.300
3.922,-0.530,0.320
3.925,-0.550,0.335
3.928,-0.580,0.345
3.931,-0.590,0.345
3.933,-0.595,0.340
3.936,-0.585,0.365
3.939,-0.595,0.385
3.942,-0.605,0.395
3.944,-0.615,0.385
3.947,-0.630,0.390
3.950,-0.630,0.400
3.953,-0.630,0.405
3.956,-0.630,0.440
3.958,-0.645,0.455
3.961,-0.675,0.475
3.964,-0.695,0.480
3.967,-0.700,0.480
3.969,-0.695,0.515
3.972,-0.710,0.530
3.975,-0.735,0.560
3.978,-0.750,0.560
3.981,-0.760,0.555
3.983,-0.770,0.565
3.986,-0.760,0.605
3.989,-0.765,0.620
3.992,-0.770,0.655
3.994,-0.805,0.660
3.997,-0.825,0.650
4.000,-0.825,0.655
4.003,-0.815,0.675
4.006,-0.820,0.690
4.008,-0.830,0.715
4.011,-0.865,0.705
4.014,-0.870,0.710
4.017,-0.885,0.715
4.019,-0.880,0.715
4.022,-0.880,0.725
4.025,-0.875,0.735
4.028,-0.885,0.720
4.031,-0.900,0.700
4.033,-0.885,0.705
4.036,-0.890,0.695
4.039,-0.885,0.705
4.042,-0.895,0.700
4.044,-0.890,0.670
4.047,-0.890,0.650
4.050,-0.880,0.625
4.053,-0.850,0.630
4.056,-0.835,0.610
4.058,-0.815,0.610
4.061,-0.825,0.580
4.064,-0.810,0.545
4.067,-0.785,0.505
4.069,-0.745,0.495
4.072,-0.705,0.465
4.075,-0.690,0.440
4.078,-0.680,0.415
4.081,-0.670,0.375
4.083,-0.615,0.335
4.086,-0.570,0.325
4.089,-0.520,0.315
4.092,-0.490,0.285
4.094,-0.470,0.255
4.097,-0.450,0.240
4.100,-0.410,0.205
4.103,-0.380,0.200
4.106,-0.345,0.205
4.108,-0.320,0.195
4.111,-0.320,0.190
4.114,-0.305,0.145
4.117,-0.280,0.140
4.119,-0.240,0.135
4.122,-0.225,0.140
4.125,-0.215,0.140
4.128,-0.230,0.140
4.131,-0.225,0.110
4.133,-0.225,0.115
4.136,-0.220,0.110
4.139,-0.200,0.130
4.142,-0.190,0.115
4.144,-0.215,0.105
4.147,-0.225,0.100
4.150,-0.225,0.100
4.153,-0.200,0.110
4.156,-0.205,0.115
4.158,-0.200,0.130
4.161,-0.215,0.110
4.164,-0.235,0.110
4.167,-0.220,0.095
4.169,-0.200,0.105
4.172,-0.190,0.120
4.175,-0.195,0.125
4.178,-0.225,0.130
4.181,-0.220,0.105
4.183,-0.215,0.110
4.186,-0.210,0.110
4.189,-0.205,0.125
4.192,-0.205,0.125
4.194,-0.225,0.115
4.197,-0.240,0.120
4.200,-0.225,0.110
4.203,-0.215,0.120
4.206,-0.210,0.125
4.208,-0.215,0.135
4.211,-0.230,0.130
4.214,-0.250,0.115
4.217,-0.240,0.110
4.219,-0.205,0.125
4.222,-0.200,0.140
4.225,-0.200,0.140
4.228,-0.210,0.130
4.231,-0.220,0.120
4.233,-0.220,0.105
4.236,-0.200,0.125
4.239,-0.200,0.135
4.242,-0.195,0.130
4.244,-0.200,0.130
4.247,-0.215,0.120
4.250,-0.215,0.115
4.253,-0.185,0.115
4.256,-0.185,0.125
4.258,-0.180,0.125
4.261,-0.190,0.120
4.264,-0.200,0.105
4.267,-0.190,0.090
4.269,-0.170,0.100
4.272,-0.160,0.125
4.275,-0.170,0.120
4.278,-0.175,0.115
4.281,-0.185,0.100
4.283,-0.180,0.100
4.286,-0.160,0.105
4.289,-0.150,0.120
4.292,-0.145,0.125
4.294,-0.165,0.125
4.297,-0.170,0.110
4.300,-0.165,0.115
4.303,-0.150,0.130
4.306,-0.140,0.150
4.308,-0.140,0.140
4.311,-0.130,0.130
4.314,-0.125,0.120
4.317,-0.110,0.095
4.319,-0.075,0.090
4.322,-0.035,0.100
4.325,0.005,0.065
4.328,0.035,0.025
4.331,0.070,-0.015
4.333,0.135,-0.045
4.336,0.205,-0.070
4.339,0.265,-0.100
4.342,0.330,-0.140
4.344,0.390,-0.235
4.347,0.465,-0.355
4.350,0.545,-0.440
4.353,0.645,-0.520
4.356,0.755,-0.585
4.358,0.845,-0.650
4.361,0.905,-0.725
4.364,0.970,-0.795
4.367,1.050,-0.865
4.369,1.145,-0.935
4.372,1.260,-0.960
4.375,1.340,-0.990
4.378,1.400,-1.015
4.381,1.455,-1.055
4.383,1.535,-1.090
4.386,1.645,-1.085
4.389,1.690,-1.070
4.392,1.645,-1.040
4.394,1.580,-1.000
4.397,1.490,-0.955
4.400,1.435,-0.885
4.403,1.395,-0.805
4.406,1.355,-0.720
4.408,1.320,-0.640
4.411,1.270,-0.535
4.414,1.225,-0.445
4.417,1.180,-0.390
4.419,1.175,-0.315
4.422,1.165,-0.285
4.425,1.145,-0.255
4.428,1.115,-0.235
4.431,1.080,-0.235
4.433,1.085,-0.215
4.436,1.105,-0.175
4.439,1.100,-0.155
4.442,1.045,-0.150
4.444,0.920,-0.150
4.447,0.790,-0.145
4.450,0.625,-0.120
4.453,0.430,-0.055
4.456,0.225,0.025
4.458,0.015,0.090
4.461,-0.135,0.160
4.464,-0.250,0.205
4.467,-0.340,0.225
4.469,-0.380,0.260
4.472,-0.405,0.295
4.475,-0.440,0.315
4.478,-0.480,0.325
4.481,-0.505,0.315
4.483,-0.520,0.330
4.486,-0.525,0.345
4.489,-0.530,0.370
4.492,-0.545,0.380
4.494,-0.575,0.365
4.497,-0.600,0.375
4.500,-0.615,0.375
4.503,-0.605,0.400
4.506,-0.600,0.420
4.508,-0.620,0.435
4.511,-0.650,0.435
4.514,-0.670,0.445
4.517,-0.670,0.440
4.519,-0.670,0.470
4.522,-0.675,0.485
4.525,-0.670,0.500
4.528,-0.705,0.510
4.531,-0.710,0.500
4.533,-0.730,0.505
4.536,-0.730,0.530
4.539,-0.725,0.555
4.542,-0.750,0.575
4.544,-0.775,0.585
4.547,-0.790,0.595
4.550,-0.805,0.585
4.553,-0.790,0.615
4.556,-0.800,0.640
4.558,-0.805,0.660
4.561,-0.825,0.655
4.564,-0.835,0.660
4.567,-0.845,0.660
4.569,-0.850,0.680
4.572,-0.845,0.705
4.575,-0.865,0.720
4.578,-0.880,0.715
4.581,-0.885,0.715
4.583,-0.890,0.720
4.586,-0.880,0.725
4.589,-0.895,0.725
4.592,-0.905,0.730
4.594,-0.920,0.735
4.597,-0.935,0.700
4.600,-0.920,0.690
4.603,-0.900,0.690
4.606,-0.900,0.705
4.608,-0.890,0.700
4.611,-0.905,0.680
4.614,-0.905,0.655
4.617,-0.900,0.640
4.619,-0.875,0.625
4.622,-0.850,0.600
4.625,-0.815,0.600
4.628,-0.810,0.565
4.631,-0.790,0.530
4.633,-0.760,0.490
4.636,-0.740,0.460
4.639,-0.685,0.435
4.642,-0.645,0.415
4.644,-0.630,0.380
4.647,-0.600,0.345
4.650,-0.560,0.320
4.653,-0.505,0.305
4.656,-0.465,0.290
4.658,-0.460,0.270
4.661,-0.420,0.245
4.664,-0.415,0.215
4.667,-0.365,0.195
4.669,-0.305,0.180
4.672,-0.285,0.185
4.675,-0.275,0.185
4.678,-0.270,0.160
4.681,-0.255,0.140
4.683,-0.240,0.125
4.686,-0.200,0.125
4.689,-0.185,0.130
4.692,-0.170,0.120
4.694,-0.180,0.125
4.697,-0.185,0.105
4.700,-0.175,0.095
4.703,-0.160,0.100
4.706,-0.155,0.115
4.708,-0.150,0.115
4.711,-0.180,0.105
4.714,-0.185,0.095
4.717,-0.175,0.090
4.719,-0.165,0.105
4.722,-0.160,0.105
4.725,-0.160,0.120
4.728,-0.180,0.105
4.731,-0.190,0.090
4.733,-0.185,0.090
4.736,-0.165,0.100
4.739,-0.155,0.110
4.742,-0.165,0.105
4.744,-0.200,0.115
4.747,-0.195,0.100
4.750,-0.190,0.100
4.753,-0.160,0.100
4.756,-0.145,0.125
4.758,-0.160,0.120
4.761,-0.175,0.125
4.764,-0.175,0.105
4.767,-0.180,0.100
4.769,-0.150,0.115
4.772,-0.155,0.125
4.775,-0.150,0.120
4.778,-0.160,0.120
4.781,-0.170,0.095
4.783,-0.165,0.105
4.786,-0.145,0.105
4.789,-0.135,0.120
4.792,-0.150,0.135
4.794,-0.160,0.120
4.797,-0.165,0.100
4.800,-0.145,0.100
4.803,-0.135,0.110
4.806,-0.120,0.120
4.808,-0.125,0.110
4.811,-0.130,0.100
4.814,-0.150,0.085
4.817,-0.135,0.090
4.819,-0.115,0.100
4.822,-0.110,0.115
4.825,-0.115,0.120
4.828,-0.140,0.090
4.831,-0.150,0.080
4.833,-0.130,0.075
4.836,-0.120,0.070
4.839,-0.120,0.095
4.842,-0.115,0.100
4.844,-0.140,0.100
4.847,-0.150,0.080
4.850,-0.135,0.075
4.853,-0.115,0.070
4.856,-0.105,0.090
4.858,-0.105,0.090
4.861,-0.135,0.075
4.864,-0.125,0.075
4.867,-0.130,0.065
4.869,-0.120,0.065
4.872,-0.095,0.085
4.875,-0.105,0.090
4.878,-0.120,0.075
4.881,-0.130,0.060
4.883,-0.120,0.050
4.886,-0.105,0.060
4.889,-0.090,0.075
4.892,-0.105,0.080
4.894,-0.115,0.070
4.897,-0.115,0.065
4.900,-0.110,0.040
4.903,-0.100,0.065
4.906,-0.090,0.075
4.908,-0.105,0.070
4.911,-0.110,0.060
4.914,-0.125,0.065
4.917,-0.115,0.055
4.919,-0.095,0.070
4.922,-0.085,0.070
4.925,-0.085,0.070
4.928,-0.095,0.070
4.931,-0.120,0.045
4.933,-0.110,0.045
4.936,-0.100,0.045
4.939,-0.085,0.060
4.942,-0.080,0.065
4.944,-0.105,0.065
4.947,-0.105,0.055
4.950,-0.115,0.055
4.953,-0.095,0.060
4.956,-0.085,0.065
4.958,-0.090,0.060
4.961,-0.110,0.070
4.964,-0.115,0.050
4.967,-0.105,0.050
4.969,-0.085,0.060
4.972,-0.085,0.060
4.975,-0.090,0.065
4.978,-0.115,0.060
4.981,-0.120,0.050
4.983,-0.105,0.040
4.986,-0.090,0.045
4.989,-0.075,0.065
4.992,-0.075,0.075
4.994,-0.075,0.070
4.997,-0.075,0.060
5.000,-0.065,0.070
5.003,-0.030,0.095
5.006,-0.030,0.105
5.008,-0.015,0.120
5.011,-0.020,0.110
5.014,-0.025,0.110
5.017,-0.005,0.095
5.019,0.030,0.100
5.022,0.065,0.095
5.025,0.080,0.095
5.028,0.065,0.065
5.031,0.055,0.035
5.033,0.065,0.010
5.036,0.080,0.000
5.039,0.080,0.015
5.042,0.055,0.025
5.044,0.025,0.015
5.047,0.000,0.000
5.050,0.000,-0.005
5.053,0.005,0.000
5.056,-0.005,0.015
5.058,-0.020,0.015
5.061,-0.055,-0.005
5.064,-0.070,-0.010
5.067,-0.075,-0.005
5.069,-0.070,0.015
5.072,-0.075,0.035
5.075,-0.090,0.035
5.078,-0.110,0.020
5.081,-0.120,0.015
5.083,-0.120,0.005
5.086,-0.120,0.025
5.089,-0.110,0.030
5.092,-0.120,0.035
5.094,-0.125,0.020
5.097,-0.120,0.015
5.100,-0.110,0.000
5.103,-0.110,0.010
5.106,-0.105,0.030
5.108,-0.115,0.025
5.111,-0.120,0.015
5.114,-0.115,0.015
5.117,-0.100,-0.005
5.119,-0.085,0.005
5.122,-0.085,0.020
5.125,-0.105,0.015
5.128,-0.105,0.015
5.131,-0.100,-0.005
5.133,-0.090,-0.030
5.136,-0.100,-0.030
5.139,-0.095,-0.015
5.142,-0.060,-0.010
5.144,-0.005,-0.010
5.147,0.110,-0.045
5.150,0.285,-0.115
5.153,0.490,-0.175
5.156,0.725,-0.200
5.158,0.970,-0.195
5.161,1.210,-0.205
5.164,1.430,-0.245
5.167,1.630,-0.270
5.169,1.710,-0.235
5.172,1.570,-0.150
5.175,1.235,-0.090
5.178,0.840,-0.070
5.181,0.495,-0.075
5.183,0.230,-0.070
5.186,0.090,-0.080
5.189,0.015,-0.085
5.192,-0.055,-0.085
5.194,-0.120,-0.055
5.197,-0.160,-0.035
5.200,-0.140,-0.010
5.203,-0.100,0.000
5.206,-0.090,0.040
5.208,-0.110,0.040
5.211,-0.135,0.035
5.214,-0.150,0.030
5.217,-0.145,0.035
5.219,-0.140,0.035
5.222,-0.135,0.055
5.225,-0.155,0.050
5.228,-0.180,0.040
5.231,-0.165,0.050
5.233,-0.160,0.035
5.236,-0.155,0.055
5.239,-0.145,0.060
5.242,-0.155,0.070
5.244,-0.180,0.070
5.247,-0.175,0.050
5.250,-0.155,0.045
5.253,-0.150,0.035
5.256,-0.145,0.060
5.258,-0.145,0.060
5.261,-0.170,0.055
5.264,-0.155,0.055
5.267,-0.140,0.040
5.269,-0.135,0.050
5.272,-0.115,0.045
5.275,-0.125,0.055
5.278,-0.135,0.055
5.281,-0.130,0.035
5.283,-0.125,0.020
5.286,-0.105,0.025
5.289,-0.090,0.040
5.292,-0.090,0.030
5.294,-0.090,0.030
5.297,-0.095,0.010
5.300,-0.090,0.010
5.303,-0.070,0.005
5.306,-0.030,0.005
5.308,-0.050,0.010
5.311,-0.040,-0.005
5.314,-0.045,-0.015
5.317,-0.030,-0.025
5.319,0.000,-0.025
5.322,0.020,-0.025
5.325,0.020,-0.035
5.328,0.015,-0.055
5.331,0.010,-0.065
5.333,0.035,-0.085
5.336,0.080,-0.085
5.339,0.110,-0.090
5.342,0.115,-0.090
5.344,0.105,-0.120
5.347,0.090,-0.150
5.350,0.115,-0.165
5.353,0.165,-0.160
5.356,0.180,-0.160
5.358,0.200,-0.165
5.361,0.205,-0.190
5.364,0.195,-0.210
5.367,0.205,-0.230
5.369,0.245,-0.230
5.372,0.270,-0.220
5.375,0.285,-0.220
5.378,0.290,-0.250
5.381,0.290,-0.255
5.383,0.310,-0.255
5.386,0.325,-0.250
5.389,0.340,-0.245
5.392,0.335,-0.235
5.394,0.315,-0.230
5.397,0.330,-0.250
5.400,0.325,-0.250
5.403,0.345,-0.220
5.406,0.345,-0.190
5.408,0.320,-0.170
5.411,0.265,-0.155
5.414,0.250,-0.140
5.417,0.235,-0.125
5.419,0.235,-0.095
5.422,0.210,-0.065
5.425,0.180,-0.045
5.428,0.155,-0.040
5.431,0.120,-0.030
5.433,0.110,-0.005
5.436,0.105,0.010
5.439,0.080,0.035
5.442,0.040,0.050
5.444,0.005,0.055
5.447,-0.010,0.050
5.450,-0.015,0.060
5.453,-0.010,0.075
5.456,-0.020,0.090
5.458,-0.035,0.105
5.461,-0.060,0.085
5.464,-0.090,0.075
5.467,-0.075,0.080
5.469,-0.055,0.090
5.472,-0.045,0.110
5.475,-0.065,0.105
5.478,-0.085,0.095
5.481,-0.095,0.085
5.483,-0.080,0.085
5.486,-0.070,0.080
5.489,-0.070,0.100
5.492,-0.070,0.110
5.494,-0.090,0.100
5.497,-0.095,0.100
5.500,-0.095,0.100
5.503,-0.085,0.105
5.506,-0.075,0.120
5.508,-0.080,0.110
5.511,-0.090,0.110
5.514,-0.095,0.100
5.517,-0.090,0.090
5.519,-0.085,0.095
5.522,-0.070,0.100
5.525,-0.095,0.100
5.528,-0.095,0.090
5.531,-0.095,0.090
5.533,-0.075,0.075
5.536,-0.070,0.080
5.539,-0.055,0.080
5.542,-0.065,0.110
5.544,-0.075,0.085
5.547,-0.080,0.065
5.550,-0.065,0.065
5.553,-0.045,0.075
5.556,-0.050,0.085
5.558,-0.060,0.080
5.561,-0.070,0.075
5.564,-0.070,0.060
5.567,-0.075,0.070
5.569,-0.065,0.070
5.572,-0.055,0.090
5.575,-0.065,0.105
5.578,-0.075,0.085
5.581,-0.070,0.080
5.583,-0.065,0.070
5.586,-0.055,0.080
5.589,-0.090,0.095
5.592,-0.070,0.100
5.594,-0.060,0.105
5.597,-0.055,0.100
5.600,-0.030,0.100
5.603,-0.010,0.115
5.606,0.005,0.125
5.608,0.000,0.135
5.611,0.000,0.125
5.614,0.015,0.115
5.617,0.030,0.105
5.619,0.070,0.110
5.622,0.090,0.115
5.625,0.095,0.105
5.628,0.080,0.095
5.631,0.080,0.065
5.633,0.075,0.035
5.636,0.080,0.050
5.639,0.075,0.080
5.642,0.070,0.080
5.644,0.050,0.075
5.647,0.045,0.060
5.650,0.050,0.050
5.653,0.060,0.045
5.656,0.070,0.040
5.658,0.080,0.020
5.661,0.090,-0.025
5.664,0.105,-0.075
5.667,0.155,-0.100
5.669,0.205,-0.125
5.672,0.260,-0.150
5.675,0.310,-0.210
5.678,0.350,-0.295
5.681,0.410,-0.395
5.683,0.490,-0.510
5.686,0.580,-0.610
5.689,0.645,-0.690
5.692,0.710,-0.765
5.694,0.755,-0.825
5.697,0.815,-0.905
5.700,0.880,-0.980
5.703,0.965,-1.045
5.706,1.055,-1.100
5.708,1.125,-1.140
5.711,1.175,-1.165
5.714,1.240,-1.195
5.717,1.350,-1.255
5.719,1.465,-1.275
5.722,1.545,-1.275
5.725,1.570,-1.255
5.728,1.530,-1.225
5.731,1.480,-1.175
5.733,1.430,-1.110
5.736,1.385,-1.025
5.739,1.350,-0.925
5.742,1.325,-0.815
5.744,1.315,-0.730
5.747,1.330,-0.665
5.750,1.340,-0.625
5.753,1.370,-0.585
5.756,1.370,-0.550
5.758,1.365,-0.510
5.761,1.370,-0.470
5.764,1.375,-0.415
5.767,1.385,-0.365
5.769,1.380,-0.310
5.772,1.315,-0.270
5.775,1.200,-0.235
5.778,1.020,-0.200
5.781,0.795,-0.140
5.783,0.560,-0.055
5.786,0.315,0.040
5.789,0.090,0.125
5.792,-0.090,0.170
5.794,-0.235,0.210
5.797,-0.335,0.230
5.800,-0.380,0.250
5.803,-0.400,0.270
5.806,-0.415,0.300
5.808,-0.455,0.315
5.811,-0.485,0.320
5.814,-0.510,0.330
5.817,-0.520,0.320
5.819,-0.520,0.335
5.822,-0.520,0.360
5.825,-0.535,0.370
5.828,-0.570,0.370
5.831,-0.585,0.355
5.833,-0.580,0.360
5.836,-0.570,0.395
5.839,-0.565,0.405
5.842,-0.595,0.415
5.844,-0.610,0.420
5.847,-0.625,0.435
5.850,-0.615,0.425
5.853,-0.620,0.460
5.856,-0.630,0.470
5.858,-0.650,0.480
5.861,-0.675,0.480
5.864,-0.685,0.485
5.867,-0.670,0.495
5.869,-0.665,0.515
5.872,-0.680,0.540
5.875,-0.720,0.555
5.878,-0.750,0.545
5.881,-0.750,0.555
5.883,-0.745,0.570
5.886,-0.735,0.585
5.889,-0.740,0.615
5.892,-0.765,0.630
5.894,-0.780,0.640
5.897,-0.795,0.630
5.900,-0.800,0.640
5.903,-0.785,0.665
5.906,-0.795,0.680
5.908,-0.805,0.685
5.911,-0.840,0.685
5.914,-0.865,0.685
5.917,-0.860,0.685
5.919,-0.840,0.695
5.922,-0.830,0.715
5.925,-0.845,0.720
5.928,-0.865,0.715
5.931,-0.880,0.685
5.933,-0.860,0.675
5.936,-0.850,0.680
5.939,-0.835,0.685
5.942,-0.840,0.670
5.944,-0.855,0.660
5.947,-0.855,0.625
5.950,-0.840,0.610
5.953,-0.825,0.595
5.956,-0.795,0.595
5.958,-0.800,0.575
5.961,-0.795,0.545
5.964,-0.780,0.505
5.967,-0.755,0.470
5.969,-0.725,0.460
5.972,-0.700,0.445
5.975,-0.675,0.415
5.978,-0.660,0.385
5.981,-0.640,0.335
5.983,-0.595,0.300
5.986,-0.535,0.290
5.989,-0.495,0.290
5.992,-0.485,0.260
5.994,-0.470,0.235
5.997,-0.465,0.205
6.000,-0.405,0.170
6.003,-0.360,0.170
6.006,-0.310,0.170
6.008,-0.300,0.155
6.011,-0.300,0.135
6.014,-0.275,0.125
6.017,-0.245,0.115
6.019,-0.205,0.115
6.022,-0.195,0.115
6.025,-0.205,0.120
6.028,-0.215,0.125
6.031,-0.220,0.100
6.033,-0.210,0.090
6.036,-0.185,0.095
6.039,-0.175,0.120
6.042,-0.185,0.115
6.044,-0.190,0.105
6.047,-0.210,0.100
6.050,-0.215,0.090
6.053,-0.185,0.090
6.056,-0.180,0.105
6.058,-0.175,0.115
6.061,-0.205,0.105
6.064,-0.200,0.080
6.067,-0.195,0.075
6.069,-0.175,0.085
6.072,-0.175,0.100
6.075,-0.175,0.110
6.078,-0.200,0.100
6.081,-0.205,0.085
6.083,-0.200,0.085
6.086,-0.190,0.095
6.089,-0.175,0.110
6.092,-0.195,0.120
6.094,-0.205,0.100
6.097,-0.205,0.105
6.100,-0.200,0.090
6.103,-0.180,0.105
6.106,-0.165,0.125
6.108,-0.165,0.115
6.111,-0.180,0.115
6.114,-0.195,0.105
6.117,-0.180,0.080
6.119,-0.170,0.095
6.122,-0.145,0.110
6.125,-0.165,0.105
6.128,-0.170,0.100
6.131,-0.195,0.090
6.133,-0.190,0.065
6.136,-0.160,0.100
6.139,-0.140,0.105
6.142,-0.145,0.095
6.144,-0.175,0.095
6.147,-0.170,0.090
6.150,-0.155,0.095
6.153,-0.140,0.110
6.156,-0.130,0.115
6.158,-0.130,0.115
6.161,-0.140,0.120
6.164,-0.125,0.080
6.167,-0.080,0.055
6.169,-0.060,0.060
6.172,-0.010,0.050
6.175,0.005,0.025
6.178,0.020,-0.010
6.181,0.050,-0.050
6.183,0.095,-0.105
6.186,0.160,-0.145
6.189,0.225,-0.200
6.192,0.295,-0.270
6.194,0.370,-0.375
6.197,0.445,-0.465
6.200,0.520,-0.565
6.203,0.620,-0.625
6.206,0.705,-0.685
6.208,0.770,-0.755
6.211,0.835,-0.835
6.214,0.930,-0.930
6.217,1.010,-0.990
6.219,1.095,-1.020
6.222,1.155,-1.035
6.225,1.205,-1.050
6.228,1.270,-1.065
6.231,1.355,-1.095
6.233,1.445,-1.090
6.236,1.490,-1.045
6.239,1.490,-0.980
6.242,1.410,-0.915
6.244,1.350,-0.850
6.247,1.290,-0.800
6.250,1.260,-0.715
6.253,1.235,-0.610
6.256,1.195,-0.475
6.258,1.155,-0.385
6.261,1.115,-0.305
6.264,1.075,-0.255
6.267,1.060,-0.210
6.269,1.075,-0.190
6.272,1.085,-0.160
6.275,1.100,-0.140
6.278,1.115,-0.130
6.281,1.150,-0.140
6.283,1.170,-0.155
6.286,1.120,-0.185
6.289,1.040,-0.180
6.292,0.915,-0.160
6.294,0.745,-0.150
6.297,0.555,-0.115
6.300,0.355,-0.075
6.303,0.175,0.020
6.306,0.005,0.090
6.308,-0.105,0.130
6.311,-0.210,0.150
6.314,-0.265,0.165
6.317,-0.310,0.170
6.319,-0.335,0.200
6.322,-0.385,0.225
6.325,-0.430,0.245
6.328,-0.465,0.260
6.331,-0.490,0.265
6.333,-0.500,0.280
6.336,-0.505,0.285
6.339,-0.520,0.310
6.342,-0.545,0.315
6.344,-0.580,0.310
6.347,-0.585,0.310
6.350,-0.590,0.320
6.353,-0.595,0.330
6.356,-0.600,0.350
6.358,-0.620,0.365
6.361,-0.655,0.375
6.364,-0.645,0.355
6.367,-0.650,0.360
6.369,-0.640,0.375
6.372,-0.650,0.395
6.375,-0.675,0.400
6.378,-0.705,0.410
6.381,-0.730,0.410
6.383,-0.730,0.410
6.386,-0.720,0.430
6.389,-0.725,0.455
6.392,-0.755,0.460
6.394,-0.780,0.460
6.397,-0.800,0.465
6.400,-0.795,0.480
6.403,-0.785,0.490
6.406,-0.790,0.510
6.408,-0.820,0.520
6.411,-0.835,0.515
6.414,-0.855,0.505
6.417,-0.860,0.500
6.419,-0.855,0.515
6.422,-0.865,0.525
6.425,-0.890,0.530
6.428,-0.895,0.525
6.431,-0.900,0.515
6.433,-0.890,0.505
6.436,-0.870,0.505
6.439,-0.875,0.525
6.442,-0.880,0.510
6.444,-0.880,0.505
6.447,-0.885,0.490
6.450,-0.870,0.470
6.453,-0.840,0.465
6.456,-0.830,0.470
6.458,-0.825,0.450
6.461,-0.825,0.415
6.464,-0.800,0.400
6.467,-0.765,0.375
6.469,-0.745,0.355
6.472,-0.705,0.355
6.475,-0.695,0.330
6.478,-0.690,0.310
6.481,-0.645,0.280
6.483,-0.620,0.255
6.486,-0.580,0.240
6.489,-0.550,0.225
6.492,-0.535,0.215
6.494,-0.515,0.185
6.497,-0.475,0.170
6.500,-0.440,0.135
6.503,-0.400,0.135
6.506,-0.375,0.135
6.508,-0.355,0.130
6.511,-0.370,0.115
6.514,-0.345,0.080
6.517,-0.305,0.070
6.519,-0.275,0.080
6.522,-0.250,0.080
6.525,-0.255,0.075
6.528,-0.245,0.075
6.531,-0.250,0.050
6.533,-0.250,0.055
6.536,-0.225,0.060
6.539,-0.230,0.070
6.542,-0.245,0.060
6.544,-0.240,0.060
6.547,-0.245,0.045
6.550,-0.225,0.050
6.553,-0.205,0.050
6.556,-0.220,0.070
6.558,-0.225,0.065
6.561,-0.225,0.055
6.564,-0.235,0.050
6.567,-0.235,0.045
6.569,-0.210,0.060
6.572,-0.210,0.075
6.575,-0.230,0.080
6.578,-0.230,0.060
6.581,-0.240,0.060
6.583,-0.220,0.045
6.586,-0.210,0.055
6.589,-0.220,0.070
6.592,-0.215,0.080
6.594,-0.230,0.065
6.597,-0.220,0.055
6.600,-0.210,0.045
6.603,-0.185,0.060
6.606,-0.190,0.070
6.608,-0.210,0.065
6.611,-0.210,0.045
6.614,-0.215,0.035
6.617,-0.190,0.030
6.619,-0.170,0.030
6.622,-0.160,0.055
6.625,-0.175,0.055
6.628,-0.185,0.040
6.631,-0.210,0.025
6.633,-0.180,0.020
6.636,-0.160,0.035
6.639,-0.160,0.045
6.642,-0.170,0.045
6.644,-0.180,0.040
6.647,-0.185,0.015
6.650,-0.160,0.020
6.653,-0.145,0.025
6.656,-0.145,0.045
6.658,-0.150,0.030
6.661,-0.170,0.035
6.664,-0.165,0.025
6.667,-0.145,0.020
6.669,-0.125,0.010
6.672,-0.130,0.030
6.675,-0.130,0.025
6.678,-0.160,0.015
6.681,-0.145,0.005
6.683,-0.140,0.010
6.686,-0.125,0.005
6.689,-0.130,0.020
6.692,-0.140,0.025
6.694,-0.155,0.020
6.697,-0.155,0.000
6.700,-0.155,-0.010
6.703,-0.130,-0.005
6.706,-0.130,0.010
6.708,-0.135,0.025
6.711,-0.145,0.005
6.714,-0.150,-0.005
6.717,-0.125,-0.005
6.719,-0.110,0.000
6.722,-0.125,0.005
6.725,-0.150,0.005
6.728,-0.140,0.000
6.731,-0.145,-0.010
6.733,-0.130,-0.015
6.736,-0.125,-0.005
6.739,-0.115,0.010
6.742,-0.120,0.010
6.744,-0.135,0.010
6.747,-0.155,-0.005
6.750,-0.150,-0.015
6.753,-0.130,-0.015
6.756,-0.130,0.000
6.758,-0.140,0.010
6.761,-0.155,0.000
6.764,-0.145,-0.010
6.767,-0.135,-0.005
6.769,-0.125,-0.010
6.772,-0.115,0.000
6.775,-0.135,0.005
6.778,-0.145,0.000
6.781,-0.155,-0.020
6.783,-0.130,-0.010
6.786,-0.110,-0.005
6.789,-0.120,0.015
6.792,-0.125,0.000
6.794,-0.145,-0.015
6.797,-0.140,-0.015
6.800,-0.135,-0.030
6.803,-0.110,-0.010
6.806,-0.120,-0.005
6.808,-0.135,0.000
6.811,-0.155,-0.030
6.814,-0.145,-0.025
6.817,-0.140,-0.025
6.819,-0.130,-0.025
6.822,-0.125,0.005
6.825,-0.130,-0.005
6.828,-0.140,-0.005
6.831,-0.135,-0.030
6.833,-0.125,-0.040
6.836,-0.105,-0.020
6.839,-0.105,-0.010
6.842,-0.120,-0.005
6.844,-0.120,-0.020
6.847,-0.125,-0.035
6.850,-0.110,-0.040
6.853,-0.105,-0.020
6.856,-0.100,-0.010
6.858,-0.120,-0.015
6.861,-0.145,-0.005
6.864,-0.140,-0.030
6.867,-0.120,-0.040
6.869,-0.095,-0.020
6.872,-0.090,-0.015
6.875,-0.115,-0.005
6.878,-0.135,-0.015
6.881,-0.130,-0.035
6.883,-0.120,-0.035
6.886,-0.115,-0.030
6.889,-0.105,-0.015
6.892,-0.120,-0.020
6.894,-0.125,-0.020
6.897,-0.125,-0.040
6.900,-0.110,-0.035
6.903,-0.090,-0.035
6.906,-0.110,-0.025
6.908,-0.120,-0.020
6.911,-0.120,-0.025
6.914,-0.110,-0.035
6.917,-0.120,-0.035
6.919,-0.110,-0.040
6.922,-0.110,-0.005
6.925,-0.115,-0.015
6.928,-0.135,-0.025
6.931,-0.125,-0.035
6.933,-0.110,-0.040
6.936,-0.095,-0.025
6.939,-0.085,-0.005
6.942,-0.090,-0.010
6.944,-0.120,-0.010
6.947,-0.095,-0.030
6.950,-0.075,-0.015
6.953,-0.065,-0.005
6.956,-0.050,0.015
6.958,-0.060,0.015
6.961,-0.060,0.010
6.964,-0.045,0.010
6.967,-0.010,0.015
6.969,0.015,0.025
6.972,0.025,0.030
6.975,0.020,0.005
6.978,0.025,-0.005
6.981,0.045,-0.020
6.983,0.060,-0.045
6.986,0.075,-0.050
6.989,0.070,-0.050
6.992,0.060,-0.055
6.994,0.030,-0.065
6.997,0.010,-0.085
7.000,0.035,-0.070
7.003,0.025,-0.065
7.006,0.015,-0.065
7.008,-0.020,-0.060
7.011,-0.050,-0.065
7.014,-0.065,-0.075
7.017,-0.075,-0.060
7.019,-0.065,-0.055
7.022,-0.090,-0.030
7.025,-0.115,-0.035
7.028,-0.120,-0.045
7.031,-0.135,-0.055
7.033,-0.130,-0.060
7.036,-0.120,-0.060
7.039,-0.130,-0.040
7.042,-0.135,-0.040
7.044,-0.150,-0.045
7.047,-0.140,-0.060
7.050,-0.120,-0.060
7.053,-0.105,-0.055
7.056,-0.110,-0.040
7.058,-0.120,-0.055
7.061,-0.130,-0.050
7.064,-0.135,-0.065
7.067,-0.115,-0.070
7.069,-0.105,-0.055
7.072,-0.120,-0.070
7.075,-0.150,-0.070
7.078,-0.185,-0.095
7.081,-0.180,-0.085
7.083,-0.120,-0.095
7.086,0.005,-0.125
7.089,0.145,-0.180
7.092,0.315,-0.255
7.094,0.545,-0.290
7.097,0.825,-0.285
7.100,1.125,-0.295
7.103,1.390,-0.290
7.106,1.595,-0.255
7.108,1.625,-0.220
7.111,1.445,-0.160
7.114,1.080,-0.130
7.117,0.655,-0.085
7.119,0.225,-0.080
7.122,-0.085,-0.105
7.125,-0.185,-0.135
7.128,-0.180,-0.170
7.131,-0.160,-0.165
7.133,-0.145,-0.150
7.136,-0.145,-0.105
7.139,-0.145,-0.065
7.142,-0.130,-0.050
7.144,-0.150,-0.040
7.147,-0.170,-0.055
7.150,-0.175,-0.055
7.153,-0.170,-0.045
7.156,-0.160,-0.025
7.158,-0.160,-0.030
7.161,-0.180,-0.040
7.164,-0.185,-0.040
7.167,-0.180,-0.035
7.169,-0.165,-0.040
7.172,-0.140,-0.035
7.175,-0.155,-0.035
7.178,-0.170,-0.040
7.181,-0.180,-0.045
7.183,-0.170,-0.060
7.186,-0.160,-0.040
7.189,-0.150,-0.040
7.192,-0.155,-0.045
7.194,-0.165,-0.045
7.197,-0.170,-0.055
7.200,-0.165,-0.060
7.203,-0.150,-0.060
7.206,-0.140,-0.030
7.208,-0.150,-0.045
7.211,-0.165,-0.050
7.214,-0.160,-0.070
7.217,-0.155,-0.070
7.219,-0.140,-0.065
7.222,-0.115,-0.060
7.225,-0.125,-0.050
7.228,-0.130,-0.065
7.231,-0.135,-0.075
7.233,-0.130,-0.090
7.236,-0.095,-0.095
7.239,-0.095,-0.070
7.242,-0.105,-0.085
7.244,-0.100,-0.100
7.247,-0.090,-0.110
7.250,-0.075,-0.115
7.253,-0.045,-0.110
7.256,-0.035,-0.115
7.258,-0.050,-0.105
7.261,-0.040,-0.120
7.264,-0.040,-0.135
7.267,-0.020,-0.160
7.269,0.010,-0.150
7.272,0.010,-0.155
7.275,0.025,-0.170
7.278,0.020,-0.180
7.281,0.045,-0.205
7.283,0.055,-0.220
7.286,0.085,-0.205
7.289,0.100,-0.215
7.292,0.100,-0.230
7.294,0.095,-0.245
7.297,0.105,-0.260
7.300,0.140,-0.275
7.303,0.160,-0.265
7.306,0.170,-0.270
7.308,0.170,-0.265
7.311,0.160,-0.285
7.314,0.160,-0.300
7.317,0.170,-0.315
7.319,0.215,-0.305
7.322,0.235,-0.295
7.325,0.225,-0.290
7.328,0.230,-0.295
7.331,0.230,-0.310
7.333,0.245,-0.305
7.336,0.255,-0.295
7.339,0.265,-0.275
7.342,0.255,-0.265
7.344,0.250,-0.275
7.347,0.230,-0.260
7.350,0.225,-0.245
7.353,0.215,-0.230
7.356,0.215,-0.195
7.358,0.195,-0.170
7.361,0.155,-0.160
7.364,0.125,-0.155
7.367,0.120,-0.140
7.369,0.100,-0.110
7.372,0.095,-0.085
7.375,0.075,-0.065
7.378,0.050,-0.055
7.381,0.020,-0.060
7.383,0.000,-0.065
7.386,-0.010,-0.035
7.389,-0.015,-0.005
7.392,-0.030,0.000
7.394,-0.075,0.020
7.397,-0.095,0.000
7.400,-0.110,0.005
7.403,-0.090,0.010
7.406,-0.085,0.035
7.408,-0.115,0.035
7.411,-0.120,0.040
7.414,-0.125,0.035
7.417,-0.140,0.025
7.419,-0.120,0.040
7.422,-0.135,0.050
7.425,-0.150,0.055
7.428,-0.155,0.045
7.431,-0.165,0.035
7.433,-0.140,0.025
7.436,-0.130,0.040
7.439,-0.120,0.045
7.442,-0.125,0.055
7.444,-0.145,0.045
7.447,-0.155,0.025
7.450,-0.145,0.030
7.453,-0.125,0.035
7.456,-0.130,0.045
7.458,-0.120,0.050
7.461,-0.130,0.040
7.464,-0.135,0.025
7.467,-0.135,0.010
7.469,-0.125,0.025
7.472,-0.110,0.035
7.475,-0.135,0.030
7.478,-0.145,0.030
7.481,-0.145,0.000
7.483,-0.150,0.000
7.486,-0.125,0.000
7.489,-0.120,0.030
7.492,-0.115,0.030
7.494,-0.130,0.010
7.497,-0.145,-0.005
7.500,-0.140,0.005
7.503,-0.120,0.020
7.506,-0.110,0.035
7.508,-0.110,0.035
7.511,-0.125,0.025
7.514,-0.105,0.035
7.517,-0.090,0.020
7.519,-0.060,0.045
7.522,-0.040,0.050
7.525,-0.040,0.050
7.528,-0.040,0.045
7.531,-0.035,0.040
7.533,0.000,0.030
7.536,0.040,0.020
7.539,0.055,0.045
7.542,0.040,0.040
7.544,0.020,0.035
7.547,0.005,0.020
7.550,0.010,0.000
7.553,0.025,0.000
7.556,0.035,0.010
7.558,0.030,0.020
7.561,0.000,0.015
7.564,0.005,0.000
7.567,0.045,-0.045
7.569,0.075,-0.070
7.572,0.110,-0.080
7.575,0.110,-0.115
7.578,0.130,-0.160
7.581,0.165,-0.195
7.583,0.240,-0.260
7.586,0.330,-0.365
7.589,0.410,-0.455
7.592,0.460,-0.555
7.594,0.525,-0.655
7.597,0.585,-0.725
7.600,0.660,-0.810
7.603,0.765,-0.845
7.606,0.835,-0.865
7.608,0.905,-0.950
7.611,0.965,-1.005
7.614,1.040,-1.035
7.617,1.115,-1.070
7.619,1.190,-1.090
7.622,1.270,-1.115
7.625,1.360,-1.150
7.628,1.450,-1.180
7.631,1.505,-1.160
7.633,1.520,-1.120
7.636,1.495,-1.050
7.639,1.430,-0.960
7.642,1.345,-0.900
7.644,1.285,-0.830
7.647,1.240,-0.760
7.650,1.190,-0.655
7.653,1.150,-0.555
7.656,1.120,-0.460
7.658,1.060,-0.410
7.661,1.000,-0.390
7.664,0.985,-0.390
7.667,0.995,-0.365
7.669,0.990,-0.340
7.672,0.990,-0.300
7.675,0.965,-0.280
7.678,0.945,-0.280
7.681,0.905,-0.290
7.683,0.850,-0.280
7.686,0.745,-0.250
7.689,0.620,-0.190
7.692,0.440,-0.120
7.694,0.200,-0.050
7.697,-0.010,0.035
7.700,-0.180,0.100
7.703,-0.310,0.165
7.706,-0.395,0.215
7.708,-0.460,0.240
7.711,-0.505,0.245
7.714,-0.525,0.245
7.717,-0.555,0.265
7.719,-0.540,0.280
7.722,-0.570,0.305
7.725,-0.595,0.315
7.728,-0.630,0.320
7.731,-0.635,0.315
7.733,-0.630,0.330
7.736,-0.630,0.350
7.739,-0.635,0.365
7.742,-0.655,0.370
7.744,-0.680,0.375
7.747,-0.695,0.385
7.750,-0.695,0.390
7.753,-0.690,0.405
7.756,-0.695,0.435
7.758,-0.720,0.450
7.761,-0.740,0.465
7.764,-0.760,0.455
7.767,-0.770,0.470
7.769,-0.770,0.495
7.772,-0.790,0.525
7.775,-0.795,0.545
7.778,-0.820,0.555
7.781,-0.825,0.560
7.783,-0.845,0.575
7.786,-0.840,0.600
7.789,-0.845,0.625
7.792,-0.855,0.635
7.794,-0.885,0.650
7.797,-0.895,0.650
7.800,-0.905,0.645
7.803,-0.890,0.680
7.806,-0.900,0.695
7.808,-0.925,0.715
7.811,-0.960,0.710
7.814,-0.960,0.705
7.817,-0.945,0.700
7.819,-0.960,0.715
7.822,-0.965,0.745
7.825,-0.970,0.725
7.828,-0.990,0.735
7.831,-0.990,0.700
7.833,-0.980,0.690
7.836,-0.965,0.690
7.839,-0.960,0.700
7.842,-0.960,0.680
7.844,-0.975,0.650
7.847,-0.965,0.640
7.850,-0.935,0.610
7.853,-0.910,0.590
7.856,-0.895,0.585
7.858,-0.895,0.565
7.861,-0.895,0.520
7.864,-0.870,0.485
7.867,-0.840,0.455
7.869,-0.785,0.440
7.872,-0.760,0.420
7.875,-0.745,0.390
7.878,-0.720,0.345
7.881,-0.690,0.310
7.883,-0.650,0.280
7.886,-0.605,0.260
7.889,-0.580,0.245
7.892,-0.540,0.235
7.894,-0.535,0.205
7.897,-0.505,0.170
7.900,-0.460,0.155
7.903,-0.420,0.150
7.906,-0.405,0.170
7.908,-0.400,0.145
7.911,-0.380,0.135
7.914,-0.375,0.110
7.917,-0.330,0.105
7.919,-0.325,0.105
7.922,-0.305,0.125
7.925,-0.305,0.125
7.928,-0.325,0.115
7.931,-0.320,0.095
7.933,-0.305,0.080
7.936,-0.285,0.100
7.939,-0.280,0.110
7.942,-0.305,0.105
7.944,-0.315,0.100
7.947,-0.325,0.090
7.950,-0.315,0.085
7.953,-0.285,0.095
7.956,-0.285,0.100
7.958,-0.295,0.110
7.961,-0.315,0.110
7.964,-0.315,0.085
7.967,-0.315,0.095
7.969,-0.290,0.100
7.972,-0.290,0.105
7.975,-0.295,0.110
7.978,-0.305,0.115
7.981,-0.315,0.095
7.983,-0.305,0.095
7.986,-0.300,0.115
7.989,-0.295,0.115
7.992,-0.300,0.120
7.994,-0.310,0.120
7.997,-0.320,0.105
8.000,-0.310,0.090
8.003,-0.295,0.100
8.006,-0.280,0.120
8.008,-0.280,0.120
8.011,-0.300,0.100
8.014,-0.305,0.095
8.017,-0.310,0.090
8.019,-0.280,0.105
8.022,-0.265,0.115
8.025,-0.260,0.100
8.028,-0.270,0.095
8.031,-0.280,0.075
8.033,-0.270,0.085
8.036,-0.240,0.090
8.039,-0.240,0.095
8.042,-0.240,0.095
8.044,-0.240,0.095
8.047,-0.250,0.085
8.050,-0.235,0.080
8.053,-0.225,0.090
8.056,-0.215,0.100
8.058,-0.220,0.105
8.061,-0.245,0.100
8.064,-0.250,0.095
8.067,-0.225,0.105
8.069,-0.200,0.095
8.072,-0.175,0.110
8.075,-0.170,0.090
8.078,-0.150,0.075
8.081,-0.125,0.035
8.083,-0.070,0.010
8.086,-0.020,-0.010
8.089,0.010,-0.025
8.092,0.055,-0.070
8.094,0.095,-0.150
8.097,0.135,-0.225
8.100,0.245,-0.320
8.103,0.355,-0.435
8.106,0.450,-0.515
8.108,0.515,-0.595
8.111,0.595,-0.665
8.114,0.665,-0.735
8.117,0.765,-0.785
8.119,0.860,-0.845
8.122,0.950,-0.900
8.125,1.060,-0.970
8.128,1.145,-1.000
8.131,1.230,-1.020
8.133,1.355,-1.055
8.136,1.490,-1.070
8.139,1.560,-1.050
8.142,1.590,-1.025
8.144,1.535,-1.010
8.147,1.455,-0.965
8.150,1.390,-0.910
8.153,1.330,-0.810
8.156,1.280,-0.700
8.158,1.245,-0.585
8.161,1.195,-0.490
8.164,1.160,-0.405
8.167,1.125,-0.360
8.169,1.095,-0.320
8.172,1.055,-0.275
8.175,1.030,-0.265
8.178,0.985,-0.225
8.181,0.975,-0.215
8.183,1.000,-0.190
8.186,1.025,-0.170
8.189,0.985,-0.160
8.192,0.900,-0.150
8.194,0.770,-0.165
8.197,0.620,-0.145
8.200,0.455,-0.095
8.203,0.255,-0.030
8.206,0.050,0.055
8.208,-0.135,0.135
8.211,-0.320,0.185
8.214,-0.410,0.200
8.217,-0.460,0.235
8.219,-0.470,0.265
8.222,-0.490,0.280
8.225,-0.525,0.295
8.228,-0.565,0.300
8.231,-0.600,0.295
8.233,-0.615,0.300
8.236,-0.610,0.330
8.239,-0.625,0.335
8.242,-0.655,0.365
8.244,-0.685,0.370
8.247,-0.690,0.360
8.250,-0.685,0.360
8.253,-0.680,0.385
8.256,-0.685,0.405
8.258,-0.720,0.415
8.261,-0.745,0.415
8.264,-0.755,0.415
8.267,-0.745,0.440
8.269,-0.740,0.465
8.272,-0.760,0.480
8.275,-0.785,0.495
8.278,-0.815,0.505
8.281,-0.835,0.505
8.283,-0.840,0.500
8.286,-0.830,0.535
8.289,-0.845,0.570
8.292,-0.875,0.575
8.294,-0.900,0.590
8.297,-0.920,0.595
8.300,-0.915,0.600
8.303,-0.915,0.625
8.306,-0.925,0.650
8.308,-0.950,0.655
8.311,-0.970,0.665
8.314,-0.990,0.650
8.317,-0.990,0.660
8.319,-0.985,0.670
8.322,-0.975,0.680
8.325,-0.990,0.680
8.328,-1.020,0.665
8.331,-1.015,0.640
8.333,-0.985,0.625
8.336,-0.945,0.610
8.339,-0.925,0.605
8.342,-0.935,0.590
8.344,-0.925,0.550
8.347,-0.905,0.505
8.350,-0.845,0.475
8.353,-0.805,0.445
8.356,-0.760,0.415
8.358,-0.720,0.400
8.361,-0.715,0.360
8.364,-0.670,0.320
8.367,-0.620,0.285
8.369,-0.565,0.275
8.372,-0.525,0.250
8.375,-0.495,0.240
8.378,-0.470,0.210
8.381,-0.440,0.175
8.383,-0.395,0.160
8.386,-0.350,0.150
8.389,-0.335,0.150
8.392,-0.315,0.145
8.394,-0.310,0.140
8.397,-0.295,0.110
8.400,-0.275,0.105
8.403,-0.260,0.105
8.406,-0.245,0.120
8.408,-0.260,0.120
8.411,-0.270,0.120
8.414,-0.290,0.085
8.417,-0.260,0.085
8.419,-0.230,0.095
8.422,-0.225,0.115
8.425,-0.240,0.105
8.428,-0.255,0.095
8.431,-0.260,0.090
8.433,-0.255,0.100
8.436,-0.235,0.095
8.439,-0.225,0.110
8.442,-0.235,0.110
8.444,-0.260,0.095
8.447,-0.260,0.100
8.450,-0.250,0.095
8.453,-0.230,0.100
8.456,-0.260,0.120
8.458,-0.250,0.125
8.461,-0.265,0.110
8.464,-0.255,0.095
8.467,-0.250,0.095
8.469,-0.220,0.095
8.472,-0.225,0.120
8.475,-0.230,0.115
8.478,-0.245,0.095
8.481,-0.240,0.075
8.483,-0.215,0.075
8.486,-0.195,0.090
8.489,-0.195,0.100
8.492,-0.210,0.095
8.494,-0.235,0.080
8.497,-0.225,0.060
8.500,-0.205,0.070
8.503,-0.180,0.080
8.506,-0.185,0.090
8.508,-0.195,0.095
8.511,-0.210,0.085
8.514,-0.205,0.065
8.517,-0.180,0.065
8.519,-0.160,0.070
8.522,-0.165,0.085
8.525,-0.180,0.085
8.528,-0.190,0.080
8.531,-0.190,0.065
8.533,-0.170,0.055
8.536,-0.160,0.075
8.539,-0.155,0.090
8.542,-0.170,0.085
8.544,-0.180,0.075
8.547,-0.190,0.055
8.550,-0.175,0.055
8.553,-0.155,0.065
8.556,-0.150,0.075
8.558,-0.165,0.070
8.561,-0.185,0.070
8.564,-0.180,0.055
8.567,-0.165,0.065
8.569,-0.145,0.060
8.572,-0.140,0.060
8.575,-0.165,0.075
8.578,-0.165,0.060
8.581,-0.160,0.035
8.583,-0.165,0.035
8.586,-0.145,0.045
8.589,-0.140,0.055
8.592,-0.155,0.070
8.594,-0.165,0.050
8.597,-0.170,0.040
8.600,-0.145,0.040
8.603,-0.140,0.055
8.606,-0.135,0.060
8.608,-0.145,0.065
8.611,-0.150,0.045
8.614,-0.155,0.040
8.617,-0.135,0.040
8.619,-0.130,0.045
8.622,-0.135,0.050
8.625,-0.135,0.050
8.628,-0.155,0.050
8.631,-0.160,0.045
8.633,-0.150,0.035
8.636,-0.130,0.045
8.639,-0.140,0.050
8.642,-0.135,0.060
8.644,-0.160,0.050
8.647,-0.155,0.040
8.650,-0.145,0.035
8.653,-0.125,0.040
8.656,-0.120,0.060
8.658,-0.130,0.050
8.661,-0.150,0.045
8.664,-0.155,0.025
8.667,-0.125,0.040
8.669,-0.125,0.050
8.672,-0.145,0.065
8.675,-0.145,0.060
8.678,-0.145,0.055
8.681,-0.145,0.040
8.683,-0.135,0.035
8.686,-0.125,0.045
8.689,-0.135,0.055
8.692,-0.155,0.060
8.694,-0.140,0.045
8.697,-0.140,0.030
8.700,-0.125,0.035
8.703,-0.120,0.040
8.706,-0.115,0.060
8.708,-0.125,0.050
8.711,-0.145,0.045
8.714,-0.145,0.040
8.717,-0.135,0.040
8.719,-0.115,0.045
8.722,-0.105,0.050
8.725,-0.110,0.055
8.728,-0.105,0.065
8.731,-0.100,0.070
8.733,-0.080,0.070
8.736,-0.050,0.080
8.739,-0.045,0.090
8.742,-0.035,0.105
8.744,-0.025,0.090
8.747,-0.015,0.080
8.750,0.020,0.065
8.753,0.050,0.050
8.756,0.050,0.055
8.758,0.035,0.030
8.761,0.030,0.005
8.764,0.025,-0.010
8.767,0.035,-0.025
8.769,0.025,-0.010
8.772,0.005,-0.010
8.775,-0.020,-0.005
8.778,-0.050,-0.005
8.781,-0.050,-0.025
8.783,-0.055,-0.045
8.786,-0.055,-0.035
8.789,-0.065,-0.010
8.792,-0.090,0.005
8.794,-0.115,0.005
8.797,-0.125,-0.005
8.800,-0.125,0.010
8.803,-0.125,-0.005
8.806,-0.125,0.020
8.808,-0.140,0.020
8.811,-0.165,0.000
8.814,-0.145,-0.005
8.817,-0.145,-0.005
8.819,-0.135,-0.005
8.822,-0.130,0.015
8.825,-0.145,0.010
8.828,-0.155,0.005
8.831,-0.140,-0.005
8.833,-0.125,-0.010
8.836,-0.115,-0.005
8.839,-0.125,0.000
8.842,-0.140,0.005
8.844,-0.145,-0.010
8.847,-0.145,-0.015
8.850,-0.120,-0.020
8.853,-0.115,-0.010
8.856,-0.125,-0.025
8.858,-0.155,-0.025
8.861,-0.165,-0.035
8.864,-0.150,-0.045
8.867,-0.070,-0.040
8.869,0.040,-0.050
8.872,0.175,-0.105
8.875,0.340,-0.190
8.878,0.530,-0.225
8.881,0.750,-0.250
8.883,0.995,-0.245
8.886,1.250,-0.255
8.889,1.470,-0.265
8.892,1.600,-0.250
8.894,1.540,-0.190
8.897,1.280,-0.140
8.900,0.935,-0.125
8.903,0.595,-0.100
8.906,0.290,-0.080
8.908,0.100,-0.080
8.911,0.000,-0.115
8.914,-0.070,-0.135
8.917,-0.115,-0.120
8.919,-0.145,-0.095
8.922,-0.160,-0.050
8.925,-0.165,-0.025
8.928,-0.135,-0.020
8.931,-0.130,-0.020
8.933,-0.135,-0.010
8.936,-0.135,0.005
8.939,-0.150,0.020
8.942,-0.175,0.010
8.944,-0.185,0.005
8.947,-0.185,0.000
8.950,-0.180,-0.005
8.953,-0.165,0.015
8.956,-0.170,0.030
8.958,-0.205,0.025
8.961,-0.200,0.020
8.964,-0.195,0.005
8.967,-0.175,0.010
8.969,-0.180,0.015
8.972,-0.165,0.020
8.975,-0.180,0.025
8.978,-0.190,0.020
8.981,-0.195,0.000
8.983,-0.170,0.000
8.986,-0.150,0.005
8.989,-0.155,0.025
8.992,-0.165,0.015
8.994,-0.180,0.005
8.997,-0.185,-0.010
9.000,-0.155,0.010
9.003,-0.150,0.010
9.006,-0.140,0.030
9.008,-0.140,0.010
9.011,-0.155,-0.005
9.014,-0.155,-0.015
9.017,-0.125,-0.015
9.019,-0.100,-0.015
9.022,-0.095,-0.005
9.025,-0.105,0.005
9.028,-0.125,-0.015
9.031,-0.140,-0.035
9.033,-0.110,-0.040
9.036,-0.075,-0.030
9.039,-0.075,-0.030
9.042,-0.090,-0.035
9.044,-0.100,-0.050
9.047,-0.085,-0.060
9.050,-0.065,-0.065
9.053,-0.030,-0.055
9.056,-0.010,-0.055
9.058,-0.040,-0.065
9.061,-0.040,-0.085
9.064,-0.055,-0.105
9.067,-0.015,-0.120
9.069,0.025,-0.110
9.072,0.045,-0.105
9.075,0.035,-0.110
9.078,0.015,-0.135
9.081,0.025,-0.160
9.083,0.055,-0.170
9.086,0.110,-0.170
9.089,0.115,-0.175
9.092,0.120,-0.185
9.094,0.110,-0.210
9.097,0.125,-0.235
9.100,0.155,-0.240
9.103,0.190,-0.240
9.106,0.205,-0.230
9.108,0.210,-0.245
9.111,0.205,-0.265
9.114,0.210,-0.285
9.117,0.235,-0.290
9.119,0.255,-0.285
9.122,0.270,-0.265
9.125,0.270,-0.275
9.128,0.265,-0.285
9.131,0.260,-0.310
9.133,0.275,-0.300
9.136,0.310,-0.290
9.139,0.320,-0.275
9.142,0.315,-0.265
9.144,0.295,-0.260
9.147,0.275,-0.275
9.150,0.275,-0.265
9.153,0.290,-0.235
9.156,0.290,-0.200
9.158,0.240,-0.190
9.161,0.205,-0.180
9.164,0.170,-0.175
9.167,0.170,-0.140
9.169,0.175,-0.105
9.172,0.155,-0.080
9.175,0.140,-0.050
9.178,0.080,-0.050
9.181,0.060,-0.040
9.183,0.050,-0.035
9.186,0.055,-0.015
9.189,0.020,0.005
9.192,0.030,0.020
9.194,-0.020,0.020
9.197,-0.035,0.015
9.200,-0.045,0.025
9.203,-0.030,0.040
9.206,-0.035,0.055
9.208,-0.055,0.060
9.211,-0.080,0.055
9.214,-0.120,0.040
9.217,-0.140,0.040
9.219,-0.110,0.055
9.222,-0.105,0.060
9.225,-0.105,0.065
9.228,-0.125,0.075
9.231,-0.125,0.065
9.233,-0.125,0.045
9.236,-0.110,0.060
9.239,-0.110,0.070
9.242,-0.105,0.080
9.244,-0.120,0.070
9.247,-0.135,0.060
9.250,-0.135,0.055
9.253,-0.120,0.055
9.256,-0.115,0.080
9.258,-0.100,0.065
9.261,-0.125,0.065
9.264,-0.130,0.055
9.267,-0.125,0.050
9.269,-0.120,0.055
9.272,-0.105,0.065
9.275,-0.095,0.075
9.278,-0.125,0.050
9.281,-0.115,0.045
9.283,-0.100,0.035
9.286,-0.080,0.050
9.289,-0.080,0.060
9.292,-0.105,0.055
9.294,-0.120,0.055
9.297,-0.130,0.030
9.300,-0.130,0.025
9.303,-0.115,0.025
9.306,-0.105,0.030
9.308,-0.095,0.030
9.311,-0.110,0.025
9.314,-0.100,0.010
9.317,-0.105,0.020
9.319,-0.095,0.030
9.322,-0.100,0.025
9.325,-0.110,0.040
9.328,-0.110,0.035
9.331,-0.120,0.015
9.333,-0.105,0.015
9.336,-0.110,0.040
9.339,-0.110,0.035
9.342,-0.110,0.040
9.344,-0.120,0.040
9.347,-0.090,0.035
9.350,-0.070,0.025
9.353,-0.060,0.045
9.356,-0.050,0.065
9.358,-0.050,0.075
9.361,-0.045,0.075
9.364,-0.040,0.060
9.367,-0.015,0.055
9.369,0.005,0.075
9.372,0.020,0.075
9.375,0.025,0.070
9.378,0.025,0.055
9.381,0.025,0.040
9.383,0.045,0.035
9.386,0.065,0.030
9.389,0.055,0.045
9.392,0.020,0.035
9.394,0.005,0.025
9.397,0.010,0.020
9.400,0.030,0.015
9.403,0.045,0.015
9.406,0.045,0.020
9.408,0.035,0.025
9.411,0.025,-0.025
9.414,0.050,-0.060
9.417,0.070,-0.085
9.419,0.125,-0.110
9.422,0.160,-0.125
9.425,0.170,-0.170
9.428,0.205,-0.225
9.431,0.270,-0.295
9.433,0.350,-0.405
9.436,0.435,-0.510
9.439,0.515,-0.605
9.442,0.570,-0.685
9.444,0.615,-0.775
9.447,0.680,-0.830
9.450,0.755,-0.885
9.453,0.830,-0.925
9.456,0.900,-0.965
9.458,0.965,-1.035
9.461,1.040,-1.085
9.464,1.115,-1.125
9.467,1.185,-1.135
9.469,1.245,-1.145
9.472,1.340,-1.170
9.475,1.420,-1.195
9.478,1.495,-1.215
9.481,1.550,-1.220
9.483,1.555,-1.165
9.486,1.545,-1.115
9.489,1.505,-1.045
9.492,1.445,-0.990
9.494,1.390,-0.940
9.497,1.330,-0.865
9.500,1.295,-0.775
9.503,1.285,-0.675
9.506,1.245,-0.565
9.508,1.220,-0.510
9.511,1.170,-0.480
9.514,1.140,-0.460
9.517,1.145,-0.450
9.519,1.160,-0.400
9.522,1.155,-0.345
9.525,1.140,-0.310
9.528,1.125,-0.300
9.531,1.090,-0.305
9.533,1.030,-0.300
9.536,0.960,-0.275
9.539,0.865,-0.235
9.542,0.715,-0.190
9.544,0.520,-0.140
9.547,0.295,-0.070
9.550,0.095,0.010
9.553,-0.090,0.080
9.556,-0.215,0.130
9.558,-0.325,0.185
9.561,-0.395,0.195
9.564,-0.445,0.205
9.567,-0.460,0.220
9.569,-0.455,0.240
9.572,-0.465,0.270
9.575,-0.495,0.290
9.578,-0.540,0.275
9.581,-0.575,0.290
9.583,-0.580,0.285
9.586,-0.580,0.300
9.589,-0.575,0.315
9.592,-0.580,0.325
9.594,-0.605,0.325
9.597,-0.610,0.335
9.600,-0.620,0.335
9.603,-0.620,0.350
9.606,-0.625,0.375
9.608,-0.650,0.375
9.611,-0.670,0.385
9.614,-0.670,0.380
9.617,-0.655,0.405
9.619,-0.635,0.400
9.622,-0.665,0.430
9.625,-0.685,0.430
9.628,-0.690,0.440
9.631,-0.700,0.440
9.633,-0.695,0.440
9.636,-0.690,0.470
9.639,-0.700,0.490
9.642,-0.725,0.505
9.644,-0.740,0.505
9.647,-0.745,0.515
9.650,-0.750,0.525
9.653,-0.750,0.550
9.656,-0.770,0.565
9.658,-0.800,0.585
9.661,-0.825,0.585
9.664,-0.825,0.580
9.667,-0.815,0.610
9.669,-0.810,0.620
9.672,-0.810,0.645
9.675,-0.830,0.645
9.678,-0.860,0.635
9.681,-0.865,0.635
9.683,-0.860,0.640
9.686,-0.860,0.650
9.689,-0.850,0.670
9.692,-0.865,0.670
9.694,-0.890,0.660
9.697,-0.910,0.640
9.700,-0.880,0.630
9.703,-0.855,0.645
9.706,-0.830,0.645
9.708,-0.860,0.645
9.711,-0.860,0.620
9.714,-0.870,0.595
9.717,-0.845,0.580
9.719,-0.815,0.570
9.722,-0.805,0.560
9.725,-0.795,0.550
9.728,-0.805,0.515
9.731,-0.795,0.480
9.733,-0.775,0.465
9.736,-0.735,0.440
9.739,-0.715,0.435
9.742,-0.695,0.420
9.744,-0.680,0.375
9.747,-0.660,0.340
9.750,-0.645,0.310
9.753,-0.600,0.305
9.756,-0.565,0.295
9.758,-0.530,0.265
9.761,-0.505,0.230
9.764,-0.495,0.200
9.767,-0.465,0.180
9.769,-0.425,0.175
9.772,-0.385,0.180
9.775,-0.345,0.155
9.778,-0.345,0.140
9.781,-0.315,0.105
9.783,-0.290,0.090
9.786,-0.250,0.075
9.789,-0.235,0.100
9.792,-0.235,0.095
9.794,-0.240,0.080
9.797,-0.235,0.065
9.800,-0.225,0.050
9.803,-0.200,0.060
9.806,-0.195,0.075
9.808,-0.195,0.070
9.811,-0.210,0.065
9.814,-0.205,0.045
9.817,-0.205,0.055
9.819,-0.195,0.060
9.822,-0.180,0.065
9.825,-0.195,0.070
9.828,-0.205,0.065
9.831,-0.210,0.050
9.833,-0.205,0.050
9.836,-0.190,0.065
9.839,-0.180,0.060
9.842,-0.175,0.085
9.844,-0.185,0.055
9.847,-0.190,0.055
9.850,-0.180,0.045
9.853,-0.175,0.050
9.856,-0.175,0.070
9.858,-0.175,0.065
9.861,-0.180,0.060
9.864,-0.170,0.055
9.867,-0.160,0.050
9.869,-0.175,0.070
9.872,-0.180,0.085
9.875,-0.190,0.085
9.878,-0.190,0.075
9.881,-0.175,0.065
9.883,-0.170,0.065
9.886,-0.170,0.085
9.889,-0.165,0.075
9.892,-0.180,0.085
9.894,-0.185,0.075
9.897,-0.180,0.060
9.900,-0.170,0.050
9.903,-0.165,0.070
9.906,-0.170,0.065
9.908,-0.165,0.075
9.911,-0.185,0.060
9.914,-0.175,0.045
9.917,-0.170,0.045
9.919,-0.165,0.040
9.922,-0.170,0.065
9.925,-0.175,0.085
9.928,-0.170,0.080
9.931,-0.175,0.070
9.933,-0.155,0.070
9.936,-0.135,0.065
9.939,-0.120,0.075
9.942,-0.100,0.075
9.944,-0.105,0.060
9.947,-0.080,0.025
9.950,-0.035,0.000
9.953,0.015,-0.020
9.956,0.060,-0.040
9.958,0.085,-0.070
9.961,0.120,-0.110
9.964,0.165,-0.165
9.967,0.235,-0.230
9.969,0.320,-0.300
9.972,0.390,-0.375
9.975,0.475,-0.460
9.978,0.545,-0.530
9.981,0.620,-0.590
9.983,0.710,-0.640
9.986,0.805,-0.685
9.989,0.885,-0.720
9.992,0.940,-0.760
9.994,1.025,-0.800
9.997,1.130,-0.870
10.000,1.225,-0.885
10.003,1.305,-0.900
10.006,1.385,-0.910
10.008,1.455,-0.925
10.011,1.550,-0.960
10.014,1.630,-0.975
10.017,1.670,-0.955
10.019,1.660,-0.900
10.022,1.620,-0.825
10.025,1.540,-0.760
10.028,1.480,-0.695
10.031,1.420,-0.660
10.033,1.355,-0.580
10.036,1.315,-0.475
10.039,1.235,-0.395
10.042,1.170,-0.310
10.044,1.105,-0.285
10.047,1.055,-0.255
10.050,1.035,-0.235
10.053,1.035,-0.215
10.056,1.020,-0.215
10.058,1.000,-0.215
10.061,0.995,-0.225
10.064,0.965,-0.260
10.067,0.885,-0.265
10.069,0.760,-0.265
10.072,0.595,-0.230
10.075,0.400,-0.180
10.078,0.190,-0.105
10.081,0.010,-0.040
10.083,-0.125,0.045
10.086,-0.225,0.105
10.089,-0.305,0.155
10.092,-0.370,0.185
10.094,-0.415,0.200
10.097,-0.445,0.200
10.100,-0.455,0.210
10.103,-0.475,0.230
10.106,-0.485,0.245
10.108,-0.510,0.260
10.111,-0.520,0.265
10.114,-0.535,0.255
10.117,-0.540,0.265
10.119,-0.545,0.275
10.122,-0.560,0.295
10.125,-0.570,0.305
10.128,-0.595,0.315
10.131,-0.600,0.310
10.133,-0.600,0.300
10.136,-0.605,0.325
10.139,-0.605,0.340
10.142,-0.630,0.350
10.144,-0.645,0.345
10.147,-0.650,0.350
10.150,-0.645,0.370
10.153,-0.650,0.380
10.156,-0.670,0.390
10.158,-0.680,0.405
10.161,-0.705,0.415
10.164,-0.690,0.410
10.167,-0.695,0.430
10.169,-0.700,0.450
10.172,-0.710,0.480
10.175,-0.735,0.485
10.178,-0.765,0.485
10.181,-0.770,0.480
10.183,-0.780,0.500
10.186,-0.770,0.505
10.189,-0.780,0.530
10.192,-0.805,0.550
10.194,-0.820,0.545
10.197,-0.825,0.530
10.200,-0.825,0.535
10.203,-0.825,0.545
10.206,-0.825,0.570
10.208,-0.850,0.575
10.211,-0.860,0.560
10.214,-0.860,0.550
10.217,-0.860,0.550
10.219,-0.850,0.550
10.222,-0.855,0.560
10.225,-0.870,0.555
10.228,-0.870,0.535
10.231,-0.875,0.510
10.233,-0.855,0.515
10.236,-0.825,0.515
10.239,-0.820,0.505
10.242,-0.830,0.490
10.244,-0.820,0.460
10.247,-0.795,0.435
10.250,-0.765,0.420
10.253,-0.740,0.405
10.256,-0.740,0.385
10.258,-0.730,0.360
10.261,-0.700,0.325
10.264,-0.675,0.290
10.267,-0.635,0.270
10.269,-0.580,0.255
10.272,-0.555,0.235
10.275,-0.550,0.210
10.278,-0.515,0.195
10.281,-0.480,0.150
10.283,-0.430,0.135
10.286,-0.375,0.130
10.289,-0.355,0.135
10.292,-0.350,0.115
10.294,-0.330,0.100
10.297,-0.310,0.080
10.300,-0.285,0.065
10.303,-0.240,0.070
10.306,-0.235,0.070
10.308,-0.235,0.060
10.311,-0.240,0.055
10.314,-0.225,0.035
10.317,-0.220,0.045
10.319,-0.180,0.050
10.322,-0.190,0.065
10.325,-0.205,0.055
10.328,-0.210,0.030
10.331,-0.215,0.035
10.333,-0.190,0.025
10.336,-0.185,0.045
10.339,-0.180,0.055
10.342,-0.195,0.050
10.344,-0.215,0.045
10.347,-0.200,0.035
10.350,-0.190,0.030
10.353,-0.185,0.035
10.356,-0.195,0.055
10.358,-0.225,0.055
10.361,-0.215,0.045
10.364,-0.205,0.030
10.367,-0.190,0.030
10.369,-0.170,0.050
10.372,-0.185,0.055
10.375,-0.215,0.055
10.378,-0.240,0.035
10.381,-0.225,0.035
10.383,-0.195,0.035
10.386,-0.165,0.045
10.389,-0.155,0.050
10.392,-0.185,0.050
10.394,-0.200,0.040
10.397,-0.195,0.025
10.400,-0.185,0.020
10.403,-0.170,0.030
10.406,-0.160,0.045
10.408,-0.180,0.040
10.411,-0.190,0.035
10.414,-0.180,0.020
10.417,-0.170,0.025
10.419,-0.150,0.025
10.422,-0.140,0.035
10.425,-0.170,0.035
10.428,-0.170,0.030
10.431,-0.155,0.015
10.433,-0.140,0.010
10.436,-0.125,0.025
10.439,-0.135,0.025
10.442,-0.135,0.030
10.444,-0.170,0.015
10.447,-0.160,0.000
10.450,-0.130,-0.010
10.453,-0.110,0.015
10.456,-0.110,0.030
10.458,-0.135,0.015
10.461,-0.145,0.015
10.464,-0.145,0.000
10.467,-0.135,-0.005
10.469,-0.120,0.010
10.472,-0.090,0.020
10.475,-0.110,0.015
10.478,-0.145,0.000
10.481,-0.135,-0.015
10.483,-0.110,-0.005
10.486,-0.090,0.010
10.489,-0.095,0.015
10.492,-0.105,0.010
10.494,-0.140,-0.005
10.497,-0.135,-0.015
10.500,-0.110,-0.010
10.503,-0.095,-0.005
10.506,-0.090,0.010
10.508,-0.105,0.020
10.511,-0.110,0.000
10.514,-0.115,-0.020
10.517,-0.100,-0.020
10.519,-0.085,-0.015
10.522,-0.085,0.010
10.525,-0.110,0.015
10.528,-0.140,-0.005
10.531,-0.140,-0.020
10.533,-0.120,-0.015
10.536,-0.090,-0.005
10.539,-0.090,0.010
10.542,-0.100,0.010
10.544,-0.125,-0.010
10.547,-0.130,-0.015
10.550,-0.125,-0.015
10.553,-0.100,-0.005
10.556,-0.085,0.005
10.558,-0.105,0.000
10.561,-0.105,-0.010
10.564,-0.125,-0.020
10.567,-0.115,-0.020
10.569,-0.090,-0.025
10.572,-0.080,-0.005
10.575,-0.090,0.005
10.578,-0.105,-0.010
10.581,-0.115,-0.020
10.583,-0.110,-0.035
10.586,-0.090,-0.015
10.589,-0.090,0.005
10.592,-0.095,-0.010
10.594,-0.100,-0.015
10.597,-0.125,-0.030
10.600,-0.105,-0.030
10.603,-0.075,-0.020
10.606,-0.070,-0.010
10.608,-0.085,-0.005
10.611,-0.085,-0.010
10.614,-0.105,-0.030
10.617,-0.085,-0.035
10.619,-0.070,-0.020
10.622,-0.060,0.010
10.625,-0.065,0.000
10.628,-0.055,0.000
10.631,-0.055,0.000
10.633,-0.030,0.005
10.636,-0.010,0.015
10.639,0.005,0.030
10.642,0.000,0.030
10.644,0.015,0.035
10.647,0.025,0.015
10.650,0.040,0.005
10.653,0.070,0.005
10.656,0.085,0.010
10.658,0.090,0.015
10.661,0.090,-0.020
10.664,0.085,-0.055
10.667,0.080,-0.060
10.669,0.085,-0.070
10.672,0.085,-0.055
10.675,0.055,-0.055
10.678,0.045,-0.060
10.681,0.035,-0.065
10.683,0.025,-0.070
10.686,0.020,-0.075
10.689,-0.010,-0.060
10.692,-0.025,-0.050
10.694,-0.055,-0.060
10.697,-0.060,-0.055
10.700,-0.055,-0.045
10.703,-0.050,-0.055
10.706,-0.065,-0.035
10.708,-0.080,-0.035
10.711,-0.100,-0.045
10.714,-0.110,-0.055
10.717,-0.110,-0.045
10.719,-0.105,-0.050
10.722,-0.095,-0.035
10.725,-0.100,-0.035
10.728,-0.115,-0.050
10.731,-0.110,-0.055
10.733,-0.120,-0.060
10.736,-0.090,-0.045
10.739,-0.085,-0.040
10.742,-0.095,-0.035
10.744,-0.105,-0.050
10.747,-0.100,-0.055
10.750,-0.110,-0.060
10.753,-0.105,-0.050
10.756,-0.085,-0.040
10.758,-0.100,-0.060
10.761,-0.115,-0.080
10.764,-0.140,-0.080
10.767,-0.140,-0.065
10.769,-0.070,-0.055
10.772,0.055,-0.070
10.775,0.190,-0.125
10.778,0.350,-0.190
10.781,0.535,-0.270
10.783,0.800,-0.275
10.786,1.105,-0.265
10.789,1.390,-0.260
10.792,1.625,-0.260
10.794,1.720,-0.260
10.797,1.620,-0.230
10.800,1.325,-0.160
10.803,0.955,-0.110
10.806,0.580,-0.085
10.808,0.245,-0.095
10.811,0.000,-0.130
10.814,-0.105,-0.165
10.817,-0.130,-0.175
10.819,-0.120,-0.160
10.822,-0.105,-0.125
10.825,-0.145,-0.100
10.828,-0.135,-0.080
10.831,-0.135,-0.070
10.833,-0.110,-0.055
10.836,-0.115,-0.040
10.839,-0.115,-0.025
10.842,-0.130,-0.025
10.844,-0.140,-0.040
10.847,-0.140,-0.035
10.850,-0.135,-0.030
10.853,-0.140,-0.030
10.856,-0.150,-0.030
10.858,-0.155,-0.030
10.861,-0.160,-0.025
10.864,-0.155,-0.050
10.867,-0.150,-0.045
10.869,-0.145,-0.030
10.872,-0.140,-0.015
10.875,-0.135,-0.015
10.878,-0.150,-0.025
10.881,-0.145,-0.045
10.883,-0.145,-0.035
10.886,-0.150,-0.025
10.889,-0.130,-0.015
10.892,-0.145,-0.015
10.894,-0.155,-0.030
10.897,-0.135,-0.030
10.900,-0.135,-0.035
10.903,-0.120,-0.035
10.906,-0.110,-0.015
10.908,-0.120,-0.015
10.911,-0.130,-0.030
10.914,-0.120,-0.035
10.917,-0.100,-0.050
10.919,-0.110,-0.045
10.922,-0.095,-0.035
10.925,-0.105,-0.045
10.928,-0.095,-0.055
10.931,-0.085,-0.065
10.933,-0.070,-0.080
10.936,-0.055,-0.080
10.939,-0.035,-0.070
10.942,-0.050,-0.075
10.944,-0.050,-0.085
10.947,-0.050,-0.100
10.950,-0.040,-0.105
10.953,-0.010,-0.095
10.956,-0.005,-0.100
10.958,0.010,-0.100
10.961,0.015,-0.120
10.964,0.015,-0.130
10.967,0.030,-0.145
10.969,0.045,-0.150
10.972,0.055,-0.145
10.975,0.065,-0.160
10.978,0.075,-0.170
10.981,0.080,-0.205
10.983,0.085,-0.225
10.986,0.120,-0.220
10.989,0.140,-0.220
10.992,0.140,-0.220
10.994,0.160,-0.250
10.997,0.170,-0.275
11.000,0.185,-0.280
11.003,0.220,-0.270
11.006,0.215,-0.280
11.008,0.230,-0.280
11.011,0.240,-0.290
11.014,0.230,-0.295
11.017,0.245,-0.305
11.019,0.265,-0.315
11.022,0.265,-0.300
11.025,0.285,-0.295
11.028,0.275,-0.300
11.031,0.280,-0.305
11.033,0.270,-0.300
11.036,0.295,-0.290
11.039,0.285,-0.280
11.042,0.270,-0.270
11.044,0.255,-0.260
11.047,0.255,-0.260
11.050,0.270,-0.240
11.053,0.250,-0.215
11.056,0.215,-0.175
11.058,0.210,-0.175
11.061,0.175,-0.160
11.064,0.165,-0.155
11.067,0.140,-0.115
11.069,0.140,-0.105
11.072,0.110,-0.070
11.075,0.085,-0.040
11.078,0.070,-0.045
11.081,0.035,-0.035
11.083,0.030,-0.030
11.086,0.005,-0.010
11.089,0.000,0.025
11.092,-0.020,0.025
11.094,-0.055,0.030
11.097,-0.060,0.015
11.100,-0.085,0.020
11.103,-0.070,0.025
11.106,-0.075,0.050
11.108,-0.100,0.045
11.111,-0.105,0.050
11.114,-0.105,0.040
11.117,-0.105,0.035
11.119,-0.100,0.045
11.122,-0.100,0.060
11.125,-0.105,0.065
11.128,-0.115,0.055
11.131,-0.130,0.045
11.133,-0.115,0.055
11.136,-0.100,0.055
11.139,-0.085,0.070
11.142,-0.090,0.075
11.144,-0.105,0.060
11.147,-0.110,0.040
11.150,-0.115,0.045
11.153,-0.090,0.045
11.156,-0.080,0.070
11.158,-0.085,0.065
11.161,-0.105,0.055
11.164,-0.115,0.035
11.167,-0.100,0.035
11.169,-0.080,0.040
11.172,-0.065,0.060
11.175,-0.090,0.055
11.178,-0.100,0.045
11.181,-0.120,0.025
11.183,-0.110,0.020
11.186,-0.095,0.035
11.189,-0.090,0.045
11.192,-0.080,0.040
11.194,-0.095,0.035
11.197,-0.115,0.020
11.200,-0.105,0.015
11.203,-0.070,0.020
11.206,-0.080,0.030
11.208,-0.075,0.040
11.211,-0.095,0.030
11.214,-0.115,0.030
11.217,-0.095,0.035
11.219,-0.075,0.045
11.222,-0.060,0.060
11.225,-0.060,0.075
11.228,-0.060,0.065
11.231,-0.060,0.060
11.233,-0.030,0.065
11.236,-0.015,0.070
11.239,0.000,0.090
11.242,0.005,0.090
11.244,0.020,0.070
11.247,0.020,0.045
11.250,0.040,0.030
11.253,0.075,0.045
11.256,0.075,0.050
11.258,0.070,0.020
11.261,0.035,0.000
11.264,0.015,-0.015
11.267,0.025,-0.020
11.269,0.030,-0.005
11.272,0.020,0.020
11.275,0.000,0.010
11.278,-0.040,0.010
11.281,-0.085,0.010
11.283,-0.095,0.010
11.286,-0.085,0.035
11.289,-0.085,0.055
11.292,-0.100,0.085
11.294,-0.115,0.055
11.297,-0.100,0.030
11.300,-0.050,0.020
11.303,0.000,-0.010
11.306,0.030,-0.045
11.308,0.060,-0.080
11.311,0.100,-0.135
11.314,0.170,-0.200
11.317,0.245,-0.265
11.319,0.335,-0.335
11.322,0.405,-0.430
11.325,0.475,-0.555
11.328,0.515,-0.660
11.331,0.595,-0.750
11.333,0.690,-0.815
11.336,0.750,-0.880
11.339,0.800,-0.925
11.342,0.845,-1.010
11.344,0.920,-1.080
11.347,1.025,-1.150
11.350,1.110,-1.165
11.353,1.170,-1.180
11.356,1.230,-1.210
11.358,1.285,-1.250
11.361,1.360,-1.280
11.364,1.490,-1.280
11.367,1.585,-1.270
11.369,1.655,-1.265
11.372,1.695,-1.265
11.375,1.730,-1.255
11.378,1.795,-1.230
11.381,1.905,-1.145
11.383,2.000,-1.025
11.386,2.045,-0.895
11.389,1.855,-0.755
11.392,1.470,-0.585
11.394,1.045,-0.415
11.397,0.695,-0.255
11.400,0.420,-0.135
11.403,0.165,-0.045
11.406,-0.030,0.030
11.408,-0.175,0.070
11.411,-0.265,0.095
11.414,-0.310,0.130
11.417,-0.320,0.155
11.419,-0.350,0.210
11.422,-0.390,0.225
11.425,-0.420,0.240
11.428,-0.445,0.245
11.431,-0.465,0.250
11.433,-0.465,0.260
11.436,-0.485,0.280
11.439,-0.505,0.305
11.442,-0.520,0.310
11.444,-0.525,0.295
11.447,-0.525,0.295
11.450,-0.525,0.295
11.453,-0.515,0.320
11.456,-0.530,0.330
11.458,-0.545,0.330
11.461,-0.555,0.340
11.464,-0.545,0.330
11.467,-0.540,0.340
11.469,-0.535,0.355
11.472,-0.545,0.365
11.475,-0.575,0.375
11.478,-0.585,0.385
11.481,-0.580,0.395
11.483,-0.570,0.395
11.486,-0.565,0.420
11.489,-0.590,0.430
11.492,-0.600,0.450
11.494,-0.605,0.460
11.497,-0.630,0.455
11.500,-0.610,0.465
11.503,-0.620,0.490
11.506,-0.635,0.500
11.508,-0.645,0.510
11.511,-0.655,0.530
11.514,-0.665,0.525
11.517,-0.665,0.540
11.519,-0.675,0.560
11.522,-0.675,0.575
11.525,-0.705,0.605
11.528,-0.710,0.595
11.531,-0.700,0.595
11.533,-0.700,0.610
11.536,-0.705,0.625
11.539,-0.715,0.640
11.542,-0.720,0.655
11.544,-0.735,0.650
11.547,-0.720,0.645
11.550,-0.720,0.635
11.553,-0.710,0.640
11.556,-0.710,0.650
11.558,-0.710,0.650
11.561,-0.710,0.635
11.564,-0.710,0.620
11.567,-0.700,0.605
11.569,-0.700,0.620
11.572,-0.675,0.605
11.575,-0.675,0.585
11.578,-0.650,0.560
11.581,-0.635,0.525
11.583,-0.610,0.515
11.586,-0.595,0.505
11.589,-0.580,0.495
11.592,-0.555,0.465
11.594,-0.545,0.420
11.597,-0.510,0.385
11.600,-0.485,0.360
11.603,-0.455,0.345
11.606,-0.430,0.330
11.608,-0.405,0.310
11.611,-0.385,0.280
11.614,-0.355,0.260
11.617,-0.345,0.225
11.619,-0.315,0.215
11.622,-0.305,0.215
11.625,-0.280,0.190
11.628,-0.280,0.175
11.631,-0.270,0.155
11.633,-0.240,0.155
11.636,-0.230,0.145
11.639,-0.215,0.150
11.642,-0.225,0.140
11.644,-0.210,0.135
11.647,-0.215,0.120
11.650,-0.205,0.135
11.653,-0.200,0.130
11.656,-0.225,0.125
11.658,-0.215,0.125
11.661,-0.240,0.115
11.664,-0.240,0.105
11.667,-0.210,0.110
11.669,-0.220,0.110
11.672,-0.225,0.120
11.675,-0.225,0.120
11.678,-0.245,0.105
11.681,-0.235,0.085
11.683,-0.225,0.095
11.686,-0.215,0.105
11.689,-0.215,0.110
11.692,-0.220,0.095
11.694,-0.235,0.090
11.697,-0.220,0.085
11.700,-0.200,0.090
11.703,-0.195,0.100
11.706,-0.195,0.110
11.708,-0.210,0.115
11.711,-0.230,0.095
11.714,-0.230,0.100
11.717,-0.205,0.090
11.719,-0.205,0.100
11.722,-0.195,0.115
11.725,-0.205,0.100
11.728,-0.230,0.095
11.731,-0.220,0.095
11.733,-0.210,0.085
11.736,-0.205,0.100
11.739,-0.210,0.110
11.742,-0.230,0.100
11.744,-0.240,0.100
11.747,-0.230,0.075
11.750,-0.215,0.090
11.753,-0.195,0.085
11.756,-0.190,0.115
11.758,-0.200,0.100
11.761,-0.230,0.100
11.764,-0.230,0.105
11.767,-0.205,0.105
11.769,-0.180,0.110
11.772,-0.160,0.105
11.775,-0.155,0.100
11.778,-0.150,0.065
11.781,-0.140,0.035
11.783,-0.095,0.030
11.786,-0.060,0.020
11.789,-0.020,0.015
11.792,0.000,-0.020
11.794,0.020,-0.065
11.797,0.075,-0.135
11.800,0.160,-0.200
11.803,0.250,-0.250
11.806,0.335,-0.335
11.808,0.395,-0.415
11.811,0.455,-0.510
11.814,0.515,-0.580
11.817,0.615,-0.650
11.819,0.720,-0.700
11.822,0.795,-0.755
11.825,0.845,-0.840
11.828,0.885,-0.920
11.831,0.950,-0.980
11.833,1.030,-1.015
11.836,1.085,-1.015
11.839,1.180,-1.020
11.842,1.260,-1.040
11.844,1.325,-1.035
11.847,1.360,-1.020
11.850,1.385,-0.985
11.853,1.380,-0.920
11.856,1.335,-0.845
11.858,1.275,-0.770
11.861,1.225,-0.720
11.864,1.200,-0.630
11.867,1.170,-0.525
11.869,1.185,-0.415
11.872,1.170,-0.335
11.875,1.125,-0.290
11.878,1.065,-0.260
11.881,1.040,-0.260
11.883,1.030,-0.260
11.886,1.025,-0.235
11.889,1.045,-0.205
11.892,1.055,-0.205
11.894,1.030,-0.205
11.897,0.970,-0.235
11.900,0.870,-0.230
11.903,0.730,-0.210
11.906,0.570,-0.165
11.908,0.365,-0.100
11.911,0.130,-0.040
11.914,-0.075,0.050
11.917,-0.225,0.130
11.919,-0.325,0.190
11.922,-0.395,0.220
11.925,-0.445,0.240
11.928,-0.485,0.245
11.931,-0.505,0.250
11.933,-0.525,0.265
11.936,-0.530,0.295
11.939,-0.560,0.300
11.942,-0.600,0.305
11.944,-0.600,0.310
11.947,-0.620,0.305
11.950,-0.625,0.315
11.953,-0.635,0.335
11.956,-0.640,0.345
11.958,-0.660,0.355
11.961,-0.695,0.355
11.964,-0.690,0.355
11.967,-0.690,0.350
11.969,-0.680,0.385
11.972,-0.685,0.385
11.975,-0.715,0.400
11.978,-0.745,0.395
11.981,-0.755,0.395
11.983,-0.760,0.410
11.986,-0.755,0.430
11.989,-0.765,0.445
11.992,-0.785,0.450
11.994,-0.815,0.450
11.997,-0.825,0.455
12.000,-0.815,0.465
12.003,-0.840,0.500
12.006,-0.860,0.510
12.008,-0.885,0.525
12.011,-0.900,0.520
12.014,-0.895,0.520
12.017,-0.900,0.515
12.019,-0.895,0.555
12.022,-0.915,0.555
12.025,-0.940,0.585
12.028,-0.970,0.560
12.031,-1.000,0.565
12.033,-0.965,0.570
12.036,-0.960,0.570
12.039,-0.980,0.590
12.042,-0.985,0.595
12.044,-1.000,0.575
12.047,-1.005,0.560
12.050,-0.980,0.575
12.053,-0.955,0.565
12.056,-0.965,0.565
12.058,-0.975,0.565
12.061,-0.975,0.530
12.064,-0.965,0.525
12.067,-0.935,0.505
12.069,-0.905,0.500
12.072,-0.890,0.485
12.075,-0.870,0.465
12.078,-0.860,0.440
12.081,-0.845,0.395
12.083,-0.810,0.390
12.086,-0.770,0.380
12.089,-0.730,0.360
12.092,-0.705,0.340
12.094,-0.695,0.295
12.097,-0.655,0.270
12.100,-0.610,0.240
12.103,-0.555,0.235
12.106,-0.525,0.235
12.108,-0.520,0.215
12.111,-0.505,0.200
12.114,-0.475,0.170
12.117,-0.430,0.150
12.119,-0.395,0.155
12.122,-0.385,0.155
12.125,-0.365,0.145
12.128,-0.360,0.130
12.131,-0.345,0.105
12.133,-0.310,0.115
12.136,-0.290,0.130
12.139,-0.290,0.125
12.142,-0.295,0.125
12.144,-0.295,0.115
12.147,-0.295,0.100
12.150,-0.270,0.105
12.153,-0.255,0.115
12.156,-0.255,0.120
12.158,-0.280,0.130
12.161,-0.295,0.115
12.164,-0.295,0.105
12.167,-0.290,0.095
12.169,-0.275,0.115
12.172,-0.270,0.125
12.175,-0.265,0.120
12.178,-0.265,0.115
12.181,-0.270,0.095
12.183,-0.280,0.105
12.186,-0.255,0.110
12.189,-0.260,0.125
12.192,-0.275,0.125
12.194,-0.280,0.115
12.197,-0.280,0.095
12.200,-0.245,0.105
12.203,-0.250,0.110
12.206,-0.245,0.115
12.208,-0.260,0.125
12.211,-0.270,0.095
12.214,-0.260,0.095
12.217,-0.250,0.085
12.219,-0.230,0.090
12.222,-0.220,0.100
12.225,-0.235,0.095
12.228,-0.250,0.095
12.231,-0.245,0.075
12.233,-0.240,0.085
12.236,-0.235,0.090
12.239,-0.225,0.095
12.242,-0.225,0.090
12.244,-0.250,0.085
12.247,-0.245,0.095
12.250,-0.220,0.070
12.253,-0.205,0.090
12.256,-0.205,0.105
12.258,-0.220,0.095
12.261,-0.220,0.090
12.264,-0.225,0.075
12.267,-0.205,0.070
12.269,-0.210,0.080
12.272,-0.200,0.090
12.275,-0.210,0.075
12.278,-0.230,0.065
12.281,-0.230,0.055
12.283,-0.210,0.065
12.286,-0.195,0.065
12.289,-0.200,0.070
12.292,-0.215,0.070
12.294,-0.230,0.065
12.297,-0.210,0.055
12.300,-0.200,0.050
12.303,-0.205,0.055
12.306,-0.215,0.060
12.308,-0.235,0.060
12.311,-0.230,0.045
12.314,-0.210,0.045
12.317,-0.210,0.045
12.319,-0.195,0.050
12.322,-0.185,0.055
12.325,-0.205,0.060
12.328,-0.225,0.045
12.331,-0.215,0.035
12.333,-0.215,0.035
12.336,-0.195,0.040
12.339,-0.195,0.060
12.342,-0.200,0.055
12.344,-0.210,0.060
12.347,-0.215,0.030
12.350,-0.200,0.040
12.353,-0.185,0.045
12.356,-0.175,0.055
12.358,-0.200,0.065
12.361,-0.225,0.045
12.364,-0.200,0.035
12.367,-0.185,0.025
12.369,-0.170,0.045
12.372,-0.175,0.055
12.375,-0.200,0.035
12.378,-0.210,0.040
12.381,-0.205,0.025
12.383,-0.195,0.025
12.386,-0.175,0.040
12.389,-0.170,0.040
12.392,-0.190,0.045
12.394,-0.210,0.040
12.397,-0.210,0.025
12.400,-0.185,0.030
12.403,-0.175,0.045
12.406,-0.190,0.045
12.408,-0.200,0.030
12.411,-0.215,0.035
12.414,-0.205,0.030
12.417,-0.180,0.025
12.419,-0.175,0.030
12.422,-0.180,0.040
12.425,-0.200,0.035
12.428,-0.195,0.030
12.431,-0.200,0.015
12.433,-0.190,0.020
12.436,-0.165,0.040
12.439,-0.170,0.035
12.442,-0.195,0.035
12.444,-0.195,0.015
12.447,-0.195,0.015
12.450,-0.185,0.030
12.453,-0.170,0.015
12.456,-0.170,0.030
12.458,-0.205,0.035
12.461,-0.195,0.030
12.464,-0.185,0.015
12.467,-0.175,0.030
12.469,-0.160,0.030
12.472,-0.170,0.035
12.475,-0.180,0.035
12.478,-0.210,0.025
12.481,-0.200,0.025
12.483,-0.175,0.025
12.486,-0.155,0.030
12.489,-0.155,0.030
12.492,-0.185,0.030
12.494,-0.200,0.020
12.497,-0.195,0.005
12.500,-0.170,0.015
12.503,-0.170,0.030
12.506,-0.155,0.050
12.508,-0.165,0.035
12.511,-0.180,0.030
12.514,-0.175,0.020
12.517,-0.150,0.015
12.519,-0.135,0.035
12.522,-0.130,0.050
12.525,-0.130,0.050
12.528,-0.135,0.050
12.531,-0.120,0.040
12.533,-0.110,0.045
12.536,-0.080,0.065
12.539,-0.090,0.080
12.542,-0.075,0.080
12.544,-0.055,0.045
12.547,-0.035,0.025
12.550,-0.010,0.025
12.553,0.015,0.020
12.556,0.015,0.000
12.558,-0.005,0.000
12.561,-0.040,-0.025
12.564,-0.040,-0.045
12.567,-0.040,-0.035
12.569,-0.030,-0.030
12.572,-0.035,-0.015
12.575,-0.070,-0.010
12.578,-0.115,-0.015
12.581,-0.130,-0.040
12.583,-0.145,-0.030
12.586,-0.140,-0.020
12.589,-0.155,0.005
12.592,-0.180,0.005
12.594,-0.205,-0.010
12.597,-0.180,-0.025
12.600,-0.170,-0.030
12.603,-0.160,-0.005
12.606,-0.170,0.000
12.608,-0.170,0.000
12.611,-0.185,-0.015
12.614,-0.190,-0.030
12.617,-0.170,-0.030
12.619,-0.165,-0.020
12.622,-0.150,0.000
12.625,-0.185,-0.020
12.628,-0.175,-0.030
12.631,-0.195,-0.040
12.633,-0.180,-0.030
12.636,-0.170,-0.025
12.639,-0.170,-0.010
12.642,-0.170,-0.015
12.644,-0.185,-0.030
12.647,-0.175,-0.045
12.650,-0.170,-0.065
12.653,-0.175,-0.060
12.656,-0.175,-0.045
12.658,-0.115,-0.055
12.661,-0.010,-0.105
12.664,0.125,-0.160
12.667,0.315,-0.220
12.669,0.545,-0.235
12.672,0.795,-0.235
12.675,1.080,-0.230
12.678,1.350,-0.240
12.681,1.530,-0.225
12.683,1.500,-0.190
12.686,1.240,-0.105
12.689,0.870,-0.070
12.692,0.475,-0.045
12.694,0.110,-0.065
12.697,-0.110,-0.105
12.700,-0.175,-0.120
12.703,-0.165,-0.110
12.706,-0.190,-0.085
12.708,-0.205,-0.045
12.711,-0.215,-0.040
12.714,-0.195,-0.035
12.717,-0.190,-0.025
12.719,-0.190,-0.010
12.722,-0.200,0.000
12.725,-0.215,0.010
12.728,-0.245,-0.005
12.731,-0.225,-0.015
12.733,-0.225,-0.010
12.736,-0.205,-0.005
12.739,-0.215,0.010
12.742,-0.225,0.005
12.744,-0.240,0.000
12.747,-0.250,-0.015
12.750,-0.225,-0.015
12.753,-0.205,-0.005
12.756,-0.205,0.005
12.758,-0.205,0.010
12.761,-0.220,-0.020
12.764,-0.235,-0.035
12.767,-0.235,-0.010
12.769,-0.200,-0.010
12.772,-0.195,-0.010
12.775,-0.200,0.000
12.778,-0.205,-0.020
12.781,-0.205,-0.025
12.783,-0.195,-0.020
12.786,-0.185,-0.010
12.789,-0.180,-0.010
12.792,-0.195,0.000
12.794,-0.205,-0.030
12.797,-0.195,-0.030
12.800,-0.180,-0.035
12.803,-0.145,-0.030
12.806,-0.145,-0.035
12.808,-0.140,-0.040
12.811,-0.155,-0.055
12.814,-0.130,-0.055
12.817,-0.110,-0.055
12.819,-0.095,-0.050
12.822,-0.095,-0.065
12.825,-0.105,-0.075
12.828,-0.100,-0.075
12.831,-0.080,-0.105
12.833,-0.065,-0.100
12.836,-0.030,-0.110
12.839,-0.030,-0.090
12.842,-0.055,-0.110
12.844,-0.040,-0.125
12.847,-0.030,-0.150
12.850,0.000,-0.165
12.853,0.015,-0.155
12.856,0.030,-0.170
12.858,0.025,-0.165
12.861,0.030,-0.190
12.864,0.050,-0.215
12.867,0.075,-0.215
12.869,0.090,-0.200
12.872,0.100,-0.205
12.875,0.090,-0.210
12.878,0.090,-0.230
12.881,0.110,-0.250
12.883,0.135,-0.260
12.886,0.160,-0.240
12.889,0.170,-0.240
12.892,0.165,-0.245
12.894,0.165,-0.260
12.897,0.185,-0.270
12.900,0.195,-0.265
12.903,0.225,-0.255
12.906,0.235,-0.240
12.908,0.215,-0.225
12.911,0.195,-0.225
12.914,0.195,-0.225
12.917,0.205,-0.210
12.919,0.215,-0.190
12.922,0.175,-0.165
12.925,0.125,-0.155
12.928,0.125,-0.145
12.931,0.085,-0.140
12.933,0.090,-0.125
12.936,0.110,-0.085
12.939,0.095,-0.060
12.942,0.065,-0.045
12.944,0.030,-0.045
12.947,0.005,-0.035
12.950,0.000,-0.025
12.953,-0.020,0.005
12.956,-0.020,0.020
12.958,-0.040,0.030
12.961,-0.080,0.030
12.964,-0.105,0.040
12.967,-0.100,0.045
12.969,-0.105,0.055
12.972,-0.095,0.085
12.975,-0.120,0.075
12.978,-0.155,0.075
12.981,-0.150,0.065
12.983,-0.145,0.070
12.986,-0.130,0.090
12.989,-0.135,0.085
12.992,-0.145,0.090
12.994,-0.160,0.090
12.997,-0.160,0.080
13.000,-0.145,0.085
13.003,-0.125,0.085
13.006,-0.130,0.095
13.008,-0.135,0.095
13.011,-0.145,0.090
13.014,-0.130,0.075
13.017,-0.150,0.075
13.019,-0.120,0.090
13.022,-0.115,0.095
13.025,-0.130,0.080
13.028,-0.140,0.080
13.031,-0.150,0.055
13.033,-0.135,0.070
13.036,-0.105,0.075
13.039,-0.110,0.080
13.042,-0.135,0.080
13.044,-0.150,0.065
13.047,-0.145,0.060
13.050,-0.125,0.060
13.053,-0.120,0.075
13.056,-0.110,0.075
13.058,-0.120,0.075
13.061,-0.140,0.060
13.064,-0.160,0.060
13.067,-0.120,0.060
13.069,-0.095,0.070
13.072,-0.095,0.090
13.075,-0.105,0.085
13.078,-0.110,0.075
13.081,-0.100,0.075
13.083,-0.070,0.080
13.086,-0.050,0.095
13.089,-0.040,0.100
13.092,-0.060,0.105
13.094,-0.045,0.095
13.097,-0.025,0.070
13.100,0.015,0.075
13.103,0.050,0.075
13.106,0.065,0.070
13.108,0.040,0.060
13.111,0.030,0.040
13.114,0.020,0.025
13.117,0.030,0.030
13.119,0.030,0.035
13.122,0.025,0.050
13.125,-0.010,0.055
13.128,-0.045,0.060
13.131,-0.035,0.045
13.133,-0.040,0.050
13.136,-0.040,0.060
13.139,-0.075,0.080
13.142,-0.105,0.070
13.144,-0.150,0.070
13.147,-0.120,0.045
13.150,-0.080,0.030
13.153,-0.010,0.010
13.156,0.015,-0.010
13.158,0.035,-0.055
13.161,0.065,-0.110
13.164,0.115,-0.165
13.167,0.200,-0.230
13.169,0.285,-0.310
13.172,0.375,-0.390
13.175,0.440,-0.480
13.178,0.505,-0.560
13.181,0.565,-0.640
13.183,0.645,-0.680
13.186,0.735,-0.725
13.189,0.800,-0.745
13.192,0.845,-0.790
13.194,0.915,-0.850
13.197,1.015,-0.890
13.200,1.110,-0.930
13.203,1.180,-0.945
13.206,1.245,-0.955
13.208,1.330,-0.995
13.211,1.430,-1.020
13.214,1.535,-1.045
13.217,1.575,-1.015
13.219,1.565,-0.960
13.222,1.540,-0.890
13.225,1.550,-0.845
13.228,1.605,-0.840
13.231,1.670,-0.845
13.233,1.705,-0.815
13.236,1.760,-0.745
13.239,1.800,-0.680
13.242,1.815,-0.615
13.244,1.815,-0.575
13.247,1.765,-0.525
13.250,1.570,-0.450
13.253,1.245,-0.365
13.256,0.895,-0.255
13.258,0.590,-0.165
13.261,0.330,-0.095
13.264,0.105,-0.040
13.267,-0.045,0.010
13.269,-0.145,0.070
13.272,-0.215,0.130
13.275,-0.300,0.165
13.278,-0.375,0.190
13.281,-0.410,0.195
13.283,-0.425,0.220
13.286,-0.445,0.255
13.289,-0.460,0.270
13.292,-0.490,0.280
13.294,-0.520,0.280
13.297,-0.510,0.280
13.300,-0.520,0.290
13.303,-0.505,0.305
13.306,-0.535,0.325
13.308,-0.565,0.325
13.311,-0.585,0.335
13.314,-0.570,0.315
13.317,-0.555,0.335
13.319,-0.545,0.355
13.322,-0.565,0.375
13.325,-0.590,0.375
13.328,-0.610,0.360
13.331,-0.610,0.370
13.333,-0.595,0.380
13.336,-0.585,0.410
13.339,-0.595,0.430
13.342,-0.625,0.455
13.344,-0.640,0.430
13.347,-0.640,0.430
13.350,-0.645,0.455
13.353,-0.635,0.470
13.356,-0.665,0.505
13.358,-0.680,0.500
13.361,-0.715,0.505
13.364,-0.705,0.515
13.367,-0.705,0.530
13.369,-0.685,0.555
13.372,-0.700,0.580
13.375,-0.720,0.590
13.378,-0.760,0.585
13.381,-0.765,0.590
13.383,-0.770,0.600
13.386,-0.755,0.615
13.389,-0.755,0.640
13.392,-0.780,0.650
13.394,-0.795,0.640
13.397,-0.800,0.640
13.400,-0.800,0.640
13.403,-0.795,0.665
13.406,-0.795,0.675
13.408,-0.815,0.675
13.411,-0.835,0.650
13.414,-0.820,0.650
13.417,-0.810,0.645
13.419,-0.795,0.650
13.422,-0.790,0.645
13.425,-0.800,0.630
13.428,-0.810,0.615
13.431,-0.790,0.590
13.433,-0.750,0.580
13.436,-0.730,0.575
13.439,-0.710,0.560
13.442,-0.720,0.525
13.444,-0.720,0.500
13.447,-0.680,0.455
13.450,-0.640,0.435
13.453,-0.590,0.420
13.456,-0.555,0.415
13.458,-0.560,0.395
13.461,-0.550,0.355
13.464,-0.520,0.315
13.467,-0.485,0.300
13.469,-0.430,0.295
13.472,-0.400,0.275
13.475,-0.385,0.255
13.478,-0.365,0.235
13.481,-0.330,0.200
13.483,-0.300,0.190
13.486,-0.265,0.185
13.489,-0.250,0.180
13.492,-0.250,0.175
13.494,-0.245,0.155
13.497,-0.235,0.135
13.500,-0.210,0.135
13.503,-0.185,0.140
13.506,-0.195,0.140
13.508,-0.210,0.135
13.511,-0.220,0.115
13.514,-0.210,0.100
13.517,-0.200,0.120
13.519,-0.175,0.115
13.522,-0.185,0.130
13.525,-0.205,0.125
13.528,-0.205,0.095
13.531,-0.190,0.090
13.533,-0.175,0.105
13.536,-0.160,0.110
13.539,-0.160,0.115
13.542,-0.175,0.120
13.544,-0.190,0.105
13.547,-0.170,0.095
13.550,-0.160,0.100
13.553,-0.150,0.100
13.556,-0.160,0.130
13.558,-0.175,0.110
13.561,-0.175,0.105
13.564,-0.165,0.085
13.567,-0.160,0.095
13.569,-0.155,0.110
13.572,-0.150,0.120
13.575,-0.165,0.125
13.578,-0.185,0.105
13.581,-0.165,0.090
13.583,-0.160,0.110
13.586,-0.150,0.120
13.589,-0.135,0.130
13.592,-0.160,0.115
13.594,-0.145,0.115
13.597,-0.130,0.105
13.600,-0.125,0.115
13.603,-0.115,0.115
13.606,-0.115,0.120
13.608,-0.135,0.110
13.611,-0.125,0.110
13.614,-0.130,0.100
13.617,-0.110,0.105
13.619,-0.110,0.125
13.622,-0.095,0.115
13.625,-0.110,0.095
13.628,-0.110,0.095
13.631,-0.105,0.090
13.633,-0.100,0.095
13.636,-0.085,0.105
13.639,-0.075,0.110
13.642,-0.085,0.115
13.644,-0.095,0.095
13.647,-0.080,0.090
13.650,-0.065,0.105
13.653,-0.060,0.110
13.656,-0.075,0.130
13.658,-0.055,0.130
13.661,-0.030,0.110
13.664,-0.010,0.100
13.667,0.020,0.120
13.669,0.055,0.100
13.672,0.095,0.095
13.675,0.135,0.070
13.678,0.185,0.040
13.681,0.240,-0.005
13.683,0.315,-0.045
13.686,0.370,-0.095
13.689,0.440,-0.145
13.692,0.515,-0.225
13.694,0.580,-0.345
13.697,0.650,-0.450
13.700,0.735,-0.550
13.703,0.825,-0.625
13.706,0.890,-0.675
13.708,0.930,-0.745
13.711,0.970,-0.810
13.714,1.030,-0.885
13.717,1.125,-0.925
13.719,1.240,-0.980
13.722,1.290,-1.000
13.725,1.355,-1.020
13.728,1.440,-1.050
13.731,1.530,-1.070
13.733,1.620,-1.050
13.736,1.645,-1.025
13.739,1.620,-0.970
13.742,1.540,-0.920
13.744,1.450,-0.875
13.747,1.390,-0.820
13.750,1.345,-0.750
13.753,1.310,-0.650
13.756,1.290,-0.545
13.758,1.270,-0.460
13.761,1.225,-0.400
13.764,1.190,-0.360
13.767,1.160,-0.310
13.769,1.160,-0.275
13.772,1.125,-0.240
13.775,1.095,-0.230
13.778,1.080,-0.210
13.781,1.085,-0.210
13.783,1.065,-0.195
13.786,1.030,-0.200
13.789,0.930,-0.180
13.792,0.795,-0.170
13.794,0.630,-0.150
13.797,0.480,-0.115
13.800,0.305,-0.075
13.803,0.120,0.010
13.806,-0.035,0.080
13.808,-0.175,0.150
13.811,-0.305,0.170
13.814,-0.350,0.205
13.817,-0.390,0.230
13.819,-0.390,0.255
13.822,-0.420,0.290
13.825,-0.450,0.310
13.828,-0.475,0.300
13.831,-0.500,0.300
13.833,-0.520,0.320
13.836,-0.520,0.335
13.839,-0.535,0.370
13.842,-0.560,0.365
13.844,-0.590,0.365
13.847,-0.595,0.370
13.850,-0.585,0.380
13.853,-0.585,0.400
13.856,-0.600,0.415
13.858,-0.630,0.430
13.861,-0.665,0.435
13.864,-0.680,0.440
13.867,-0.665,0.450
13.869,-0.670,0.480
13.872,-0.665,0.500
13.875,-0.690,0.510
13.878,-0.730,0.515
13.881,-0.730,0.525
13.883,-0.740,0.545
13.886,-0.735,0.570
13.889,-0.740,0.585
13.892,-0.765,0.585
13.894,-0.780,0.600
13.897,-0.805,0.600
13.900,-0.810,0.620
13.903,-0.810,0.645
13.906,-0.810,0.670
13.908,-0.840,0.685
13.911,-0.870,0.690
13.914,-0.865,0.685
13.917,-0.865,0.700
13.919,-0.865,0.730
13.922,-0.860,0.725
13.925,-0.880,0.730
13.928,-0.895,0.735
13.931,-0.900,0.720
13.933,-0.900,0.725
13.936,-0.885,0.730
13.939,-0.885,0.735
13.942,-0.895,0.735
13.944,-0.905,0.700
13.947,-0.905,0.685
13.950,-0.900,0.675
13.953,-0.880,0.680
13.956,-0.850,0.645
13.958,-0.840,0.630
13.961,-0.840,0.585
13.964,-0.820,0.575
13.967,-0.785,0.540
13.969,-0.760,0.525
13.972,-0.720,0.500
13.975,-0.710,0.465
13.978,-0.690,0.430
13.981,-0.635,0.380
13.983,-0.590,0.355
13.986,-0.550,0.340
13.989,-0.500,0.325
13.992,-0.485,0.285
13.994,-0.465,0.250
13.997,-0.445,0.215
14.000,-0.380,0.200
14.003,-0.330,0.195
14.006,-0.305,0.180
14.008,-0.275,0.160
14.011,-0.265,0.145
14.014,-0.235,0.130
14.017,-0.210,0.115
14.019,-0.165,0.115
14.022,-0.150,0.125
14.025,-0.145,0.110
14.028,-0.150,0.100
14.031,-0.130,0.085
14.033,-0.120,0.085
14.036,-0.110,0.095
14.039,-0.095,0.100
14.042,-0.115,0.100
14.044,-0.140,0.085
14.047,-0.130,0.090
14.050,-0.115,0.075
14.053,-0.100,0.105
14.056,-0.110,0.110
14.058,-0.110,0.095
14.061,-0.135,0.080
14.064,-0.135,0.075
14.067,-0.115,0.075
14.069,-0.095,0.090
14.072,-0.100,0.100
14.075,-0.115,0.100
14.078,-0.125,0.090
14.081,-0.135,0.090
14.083,-0.125,0.090
14.086,-0.110,0.095
14.089,-0.105,0.105
14.092,-0.135,0.100
14.094,-0.150,0.085
14.097,-0.135,0.075
14.100,-0.110,0.085
14.103,-0.100,0.095
14.106,-0.085,0.110
14.108,-0.120,0.105
14.111,-0.115,0.095
14.114,-0.115,0.085
14.117,-0.095,0.100
14.119,-0.075,0.095
14.122,-0.075,0.105
14.125,-0.095,0.100
14.128,-0.085,0.090
14.131,-0.090,0.090
14.133,-0.075,0.090
14.136,-0.060,0.105
14.139,-0.060,0.105
14.142,-0.075,0.100
14.144,-0.070,0.105
14.147,-0.060,0.095
14.150,-0.045,0.080
14.153,-0.025,0.100
14.156,-0.030,0.115
14.158,-0.060,0.100
14.161,-0.075,0.090
14.164,-0.080,0.075
14.167,-0.045,0.085
14.169,-0.030,0.085
14.172,-0.025,0.105
14.175,-0.035,0.085
14.178,-0.055,0.085
14.181,-0.065,0.075
14.183,-0.040,0.080
14.186,-0.020,0.080
14.189,-0.020,0.095
14.192,-0.030,0.085
14.194,-0.040,0.075
14.197,-0.050,0.065
14.200,-0.030,0.070
14.203,-0.015,0.070
14.206,-0.015,0.090
14.208,-0.045,0.070
14.211,-0.060,0.060
14.214,-0.055,0.065
14.217,-0.035,0.065
14.219,-0.035,0.075
14.222,-0.030,0.075
14.225,-0.055,0.080
14.228,-0.070,0.070
14.231,-0.065,0.055
14.233,-0.040,0.050
14.236,-0.015,0.070
14.239,-0.020,0.070
14.242,-0.030,0.075
14.244,-0.040,0.055
14.247,-0.050,0.035
14.250,-0.035,0.045
14.253,-0.005,0.060
14.256,-0.010,0.060
14.258,-0.025,0.065
14.261,-0.045,0.050
14.264,-0.040,0.035
14.267,-0.020,0.050
14.269,0.000,0.060
14.272,-0.005,0.065
14.275,-0.020,0.060
14.278,-0.025,0.050
14.281,-0.020,0.055
14.283,0.005,0.050
14.286,0.015,0.070
14.289,0.035,0.080
14.292,0.020,0.085
14.294,0.025,0.085
14.297,0.045,0.080
14.300,0.065,0.085
14.303,0.095,0.105
14.306,0.105,0.115
14.308,0.105,0.100
14.311,0.140,0.080
14.314,0.165,0.040
14.317,0.175,0.015
14.319,0.180,0.010
14.322,0.165,0.020
14.325,0.125,0.015
14.328,0.110,0.010
14.331,0.105,-0.010
14.333,0.090,-0.005
14.336,0.075,-0.005
14.339,0.060,0.010
14.342,0.020,0.020
14.344,0.000,0.015
14.347,-0.005,0.025
14.350,0.000,0.015
14.353,0.000,0.020
14.356,-0.005,0.030
14.358,-0.020,0.025
14.361,-0.030,0.010
14.364,-0.030,0.010
14.367,-0.020,0.005
14.369,0.015,0.015
14.372,-0.005,0.025
14.375,-0.005,0.015
14.378,-0.020,-0.005
14.381,-0.015,-0.005
14.383,-0.005,0.000
14.386,0.015,0.020
14.389,0.005,0.015
14.392,-0.005,0.005
14.394,-0.030,-0.005
14.397,-0.025,-0.025
14.400,-0.010,-0.015
14.403,-0.025,-0.025
14.406,-0.035,-0.020
14.408,-0.045,-0.025
14.411,0.010,-0.030
14.414,0.130,-0.055
14.417,0.275,-0.125
14.419,0.470,-0.195
14.422,0.690,-0.260
14.425,0.925,-0.315
14.428,1.190,-0.350
14.431,1.450,-0.410
14.433,1.680,-0.425
14.436,1.785,-0.375
14.439,1.620,-0.285
14.442,1.225,-0.200
14.444,0.820,-0.175
14.447,0.470,-0.165
14.450,0.245,-0.155
14.453,0.145,-0.145
14.456,0.090,-0.120
14.458,0.015,-0.085
14.461,-0.055,-0.060
14.464,-0.080,-0.045
14.467,-0.060,-0.015
14.469,-0.020,0.010
14.472,-0.020,0.040
14.475,-0.050,0.055
14.478,-0.065,0.050
14.481,-0.085,0.040
14.483,-0.085,0.040
14.486,-0.090,0.070
14.489,-0.090,0.070
14.492,-0.105,0.075
14.494,-0.125,0.065
14.497,-0.115,0.055
14.500,-0.100,0.060
14.503,-0.085,0.085
14.506,-0.100,0.100
14.508,-0.105,0.080
14.511,-0.100,0.080
14.514,-0.105,0.065
14.517,-0.110,0.075
14.519,-0.080,0.075
14.522,-0.085,0.085
14.525,-0.095,0.085
14.528,-0.115,0.080
14.531,-0.110,0.070
14.533,-0.095,0.080
14.536,-0.075,0.085
14.539,-0.060,0.090
14.542,-0.075,0.090
14.544,-0.100,0.080
14.547,-0.075,0.075
14.550,-0.080,0.070
14.553,-0.060,0.065
14.556,-0.040,0.090
14.558,-0.065,0.070
14.561,-0.060,0.045
14.564,-0.050,0.035
14.567,-0.040,0.045
14.569,-0.015,0.040
14.572,-0.015,0.045
14.575,-0.030,0.035
14.578,-0.010,0.015
14.581,0.010,0.005
14.583,0.010,-0.005
14.586,0.060,-0.010
14.589,0.060,-0.010
14.592,0.045,-0.010
14.594,0.050,-0.035
14.597,0.065,-0.060
14.600,0.095,-0.075
14.603,0.130,-0.075
14.606,0.130,-0.070
14.608,0.135,-0.085
14.611,0.140,-0.115
14.614,0.170,-0.140
14.617,0.190,-0.145
14.619,0.220,-0.155
14.622,0.250,-0.160
14.625,0.235,-0.165
14.628,0.245,-0.200
14.631,0.260,-0.220
14.633,0.265,-0.215
14.636,0.285,-0.220
14.639,0.300,-0.220
14.642,0.300,-0.230
14.644,0.300,-0.240
14.647,0.325,-0.250
14.650,0.340,-0.245
14.653,0.360,-0.235
14.656,0.355,-0.220
14.658,0.340,-0.240
14.661,0.340,-0.245
14.664,0.350,-0.245
14.667,0.370,-0.215
14.669,0.365,-0.190
14.672,0.345,-0.160
14.675,0.305,-0.140
14.678,0.280,-0.140
14.681,0.270,-0.125
14.683,0.260,-0.105
14.686,0.240,-0.070
14.689,0.210,-0.030
14.692,0.175,-0.020
14.694,0.135,0.000
14.697,0.125,-0.005
14.700,0.115,0.025
14.703,0.105,0.040
14.706,0.090,0.080
14.708,0.050,0.105
14.711,0.010,0.090
14.714,0.005,0.090
14.717,0.000,0.100
14.719,-0.005,0.110
14.722,-0.015,0.145
14.725,-0.040,0.135
14.728,-0.060,0.135
14.731,-0.070,0.130
14.733,-0.065,0.135
14.736,-0.060,0.145
14.739,-0.090,0.160
14.742,-0.120,0.150
14.744,-0.130,0.140
14.747,-0.130,0.145
14.750,-0.115,0.140
14.753,-0.085,0.160
14.756,-0.070,0.170
14.758,-0.085,0.155
14.761,-0.080,0.155
14.764,-0.085,0.155
14.767,-0.080,0.145
14.769,-0.055,0.135
14.772,-0.055,0.165
14.775,-0.080,0.160
14.778,-0.090,0.150
14.781,-0.090,0.145
14.783,-0.070,0.150
14.786,-0.055,0.160
14.789,-0.065,0.170
14.792,-0.075,0.155
14.794,-0.090,0.145
14.797,-0.090,0.130
14.800,-0.065,0.125
14.803,-0.080,0.135
14.806,-0.070,0.150
14.808,-0.095,0.145
14.811,-0.105,0.125
14.814,-0.105,0.110
14.817,-0.075,0.120
14.819,-0.065,0.125
14.822,-0.065,0.130
14.825,-0.080,0.130
14.828,-0.095,0.120
14.831,-0.080,0.120
14.833,-0.075,0.120
14.836,-0.065,0.135
14.839,-0.070,0.135
14.842,-0.090,0.130
14.844,-0.085,0.125
14.847,-0.090,0.115
14.850,-0.075,0.115
14.853,-0.090,0.125
14.856,-0.095,0.130
14.858,-0.105,0.125
14.861,-0.105,0.125
14.864,-0.105,0.110
14.867,-0.095,0.115
14.869,-0.080,0.130
14.872,-0.070,0.150
14.875,-0.070,0.150
14.878,-0.060,0.145
14.881,-0.050,0.145
14.883,-0.045,0.145
14.886,-0.020,0.160
14.889,0.005,0.170
14.892,0.005,0.160
14.894,0.005,0.155
14.897,0.015,0.125
14.900,0.050,0.115
14.903,0.065,0.130
14.906,0.065,0.125
14.908,0.045,0.110
14.911,0.030,0.070
14.914,0.040,0.055
14.917,0.045,0.055
14.919,0.035,0.075
14.922,0.020,0.085
14.925,-0.020,0.095
14.928,-0.040,0.095
14.931,-0.060,0.090
14.933,-0.075,0.095
14.936,-0.075,0.115
14.939,-0.090,0.145
14.942,-0.105,0.150
14.944,-0.105,0.140
14.947,-0.090,0.115
14.950,-0.045,0.085
14.953,-0.005,0.055
14.956,0.035,0.025
14.958,0.060,-0.020
14.961,0.120,-0.075
14.964,0.195,-0.150
14.967,0.280,-0.185
14.969,0.370,-0.245
14.972,0.420,-0.310
14.975,0.460,-0.415
14.978,0.520,-0.515
14.981,0.590,-0.600
14.983,0.675,-0.680
14.986,0.750,-0.730
14.989,0.805,-0.785
14.992,0.855,-0.855
14.994,0.920,-0.935
14.997,1.015,-1.010
15.000,1.135,-1.050
15.003,1.210,-1.075
15.006,1.275,-1.095
15.008,1.355,-1.150
15.011,1.430,-1.195
15.014,1.540,-1.225
15.017,1.590,-1.210
15.019,1.655,-1.160
15.022,1.665,-1.105
15.025,1.695,-1.090
15.028,1.730,-1.090
15.031,1.790,-1.115
15.033,1.870,-1.085
15.036,1.935,-1.020
15.039,1.995,-0.925
15.042,2.060,-0.820
15.044,2.080,-0.755
15.047,1.970,-0.685
15.050,1.705,-0.565
15.053,1.340,-0.405
15.056,1.000,-0.260
15.058,0.690,-0.130
15.061,0.375,-0.020
15.064,0.150,0.030
15.067,-0.010,0.085
15.069,-0.125,0.140
15.072,-0.200,0.185
15.075,-0.280,0.225
15.078,-0.325,0.245
15.081,-0.345,0.265
15.083,-0.355,0.285
15.086,-0.355,0.320
15.089,-0.380,0.330
15.092,-0.410,0.360
15.094,-0.440,0.360
15.097,-0.445,0.360
15.100,-0.450,0.365
15.103,-0.455,0.385
15.106,-0.465,0.405
15.108,-0.495,0.420
15.111,-0.505,0.405
15.114,-0.505,0.410
15.117,-0.495,0.425
15.119,-0.490,0.440
15.122,-0.495,0.455
15.125,-0.530,0.460
15.128,-0.545,0.450
15.131,-0.565,0.460
15.133,-0.530,0.470
15.136,-0.525,0.490
15.139,-0.530,0.515
15.142,-0.560,0.510
15.144,-0.580,0.520
15.147,-0.590,0.525
15.150,-0.585,0.520
15.153,-0.570,0.550
15.156,-0.590,0.555
15.158,-0.625,0.570
15.161,-0.645,0.580
15.164,-0.645,0.565
15.167,-0.635,0.600
15.169,-0.625,0.615
15.172,-0.635,0.645
15.175,-0.660,0.660
15.178,-0.680,0.645
15.181,-0.700,0.665
15.183,-0.680,0.680
15.186,-0.670,0.705
15.189,-0.665,0.725
15.192,-0.690,0.735
15.194,-0.725,0.725
15.197,-0.725,0.725
15.200,-0.710,0.735
15.203,-0.695,0.765
15.206,-0.690,0.785
15.208,-0.695,0.785
15.211,-0.715,0.765
15.214,-0.710,0.770
15.217,-0.695,0.765
15.219,-0.690,0.785
15.222,-0.690,0.780
15.225,-0.685,0.770
15.228,-0.695,0.755
15.231,-0.675,0.735
15.233,-0.655,0.735
15.236,-0.635,0.730
15.239,-0.625,0.720
15.242,-0.635,0.695
15.244,-0.630,0.665
15.247,-0.600,0.640
15.250,-0.575,0.625
15.253,-0.550,0.600
15.256,-0.525,0.575
15.258,-0.525,0.550
15.261,-0.525,0.515
15.264,-0.485,0.485
15.267,-0.450,0.465
15.269,-0.410,0.450
15.272,-0.390,0.430
15.275,-0.390,0.390
15.278,-0.380,0.360
15.281,-0.370,0.335
15.283,-0.330,0.295
15.286,-0.300,0.305
15.289,-0.275,0.290
15.292,-0.265,0.260
15.294,-0.265,0.245
15.297,-0.250,0.215
15.300,-0.240,0.210
15.303,-0.205,0.220
15.306,-0.180,0.210
15.308,-0.185,0.195
15.311,-0.200,0.180
15.314,-0.195,0.180
15.317,-0.185,0.170
15.319,-0.170,0.195
15.322,-0.170,0.190
15.325,-0.200,0.175
15.328,-0.185,0.165
15.331,-0.200,0.165
15.333,-0.175,0.170
15.336,-0.170,0.180
15.339,-0.165,0.195
15.342,-0.185,0.195
15.344,-0.210,0.170
15.347,-0.190,0.160
15.350,-0.170,0.165
15.353,-0.160,0.175
15.356,-0.160,0.170
15.358,-0.180,0.180
15.361,-0.180,0.165
15.364,-0.170,0.160
15.367,-0.160,0.160
15.369,-0.160,0.170
15.372,-0.140,0.180
15.375,-0.160,0.175
15.378,-0.170,0.155
15.381,-0.170,0.160
15.383,-0.160,0.170
15.386,-0.145,0.180
15.389,-0.135,0.180
15.392,-0.155,0.175
15.394,-0.155,0.155
15.397,-0.140,0.140
15.400,-0.110,0.115
15.403,-0.075,0.130
15.406,-0.040,0.120
15.408,-0.030,0.090
15.411,-0.005,0.050
15.414,0.020,-0.005
15.417,0.060,-0.030
15.419,0.155,-0.065
15.422,0.235,-0.110
15.425,0.295,-0.165
15.428,0.360,-0.240
15.431,0.440,-0.315
15.433,0.525,-0.380
15.436,0.615,-0.435
15.439,0.705,-0.480
15.442,0.785,-0.535
15.444,0.885,-0.610
15.447,0.950,-0.670
15.450,1.025,-0.725
15.453,1.120,-0.760
15.456,1.185,-0.785
15.458,1.240,-0.815
15.461,1.275,-0.830
15.464,1.380,-0.850
15.467,1.490,-0.850
15.469,1.545,-0.825
15.472,1.535,-0.810
15.475,1.465,-0.745
15.478,1.410,-0.715
15.481,1.360,-0.655
15.483,1.330,-0.570
15.486,1.295,-0.495
15.489,1.255,-0.395
15.492,1.225,-0.310
15.494,1.190,-0.275
15.497,1.145,-0.245
15.500,1.130,-0.235
15.503,1.115,-0.205
15.506,1.090,-0.175
15.508,1.065,-0.180
15.511,1.050,-0.175
15.514,1.045,-0.185
15.517,0.985,-0.170
15.519,0.895,-0.185
15.522,0.785,-0.165
15.525,0.625,-0.150
15.528,0.435,-0.115
15.531,0.250,-0.050
15.533,0.110,0.035
15.536,-0.005,0.110
15.539,-0.100,0.160
15.542,-0.175,0.195
15.544,-0.235,0.215
15.547,-0.270,0.220
15.550,-0.285,0.240
15.553,-0.305,0.270
15.556,-0.345,0.280
15.558,-0.390,0.305
15.561,-0.450,0.295
15.564,-0.480,0.305
15.567,-0.485,0.330
15.569,-0.500,0.365
15.572,-0.525,0.375
15.575,-0.545,0.385
15.578,-0.590,0.375
15.581,-0.595,0.370
15.583,-0.595,0.380
15.586,-0.600,0.405
15.589,-0.605,0.405
15.592,-0.630,0.420
15.594,-0.640,0.405
15.597,-0.660,0.410
15.600,-0.655,0.410
15.603,-0.645,0.440
15.606,-0.655,0.455
15.608,-0.685,0.460
15.611,-0.715,0.455
15.614,-0.720,0.455
15.617,-0.710,0.470
15.619,-0.715,0.485
15.622,-0.725,0.500
15.625,-0.745,0.495
15.628,-0.775,0.495
15.631,-0.780,0.490
15.633,-0.785,0.510
15.636,-0.770,0.520
15.639,-0.770,0.540
15.642,-0.780,0.550
15.644,-0.795,0.535
15.647,-0.815,0.535
15.650,-0.800,0.545
15.653,-0.790,0.570
15.656,-0.810,0.575
15.658,-0.835,0.580
15.661,-0.845,0.570
15.664,-0.855,0.550
15.667,-0.835,0.550
15.669,-0.825,0.565
15.672,-0.830,0.570
15.675,-0.840,0.560
15.678,-0.840,0.545
15.681,-0.835,0.520
15.683,-0.810,0.525
15.686,-0.780,0.515
15.689,-0.780,0.520
15.692,-0.785,0.505
15.694,-0.785,0.480
15.697,-0.760,0.460
15.700,-0.715,0.450
15.703,-0.680,0.440
15.706,-0.660,0.420
15.708,-0.655,0.410
15.711,-0.635,0.400
15.714,-0.615,0.355
15.717,-0.590,0.335
15.719,-0.555,0.345
15.722,-0.535,0.320
15.725,-0.530,0.300
15.728,-0.500,0.280
15.731,-0.460,0.245
15.733,-0.425,0.235
15.736,-0.380,0.250
15.739,-0.355,0.235
15.742,-0.350,0.220
15.744,-0.340,0.190
15.747,-0.320,0.180
15.750,-0.295,0.175
15.753,-0.265,0.175
15.756,-0.260,0.180
15.758,-0.265,0.165
15.761,-0.275,0.150
15.764,-0.270,0.135
15.767,-0.245,0.145
15.769,-0.230,0.145
15.772,-0.220,0.165
15.775,-0.245,0.155
15.778,-0.250,0.140
15.781,-0.245,0.140
15.783,-0.230,0.155
15.786,-0.225,0.155
15.789,-0.220,0.150
15.792,-0.230,0.150
15.794,-0.245,0.140
15.797,-0.240,0.135
15.800,-0.225,0.135
15.803,-0.205,0.155
15.806,-0.225,0.160
15.808,-0.225,0.150
15.811,-0.235,0.125
15.814,-0.225,0.125
15.817,-0.205,0.125
15.819,-0.190,0.135
15.822,-0.190,0.140
15.825,-0.215,0.145
15.828,-0.235,0.135
15.831,-0.220,0.115
15.833,-0.215,0.130
15.836,-0.195,0.130
15.839,-0.185,0.140
15.842,-0.200,0.125
15.844,-0.200,0.115
15.847,-0.185,0.110
15.850,-0.185,0.110
15.853,-0.170,0.125
15.856,-0.185,0.125
15.858,-0.180,0.120
15.861,-0.200,0.115
15.864,-0.190,0.090
15.867,-0.190,0.120
15.869,-0.170,0.120
15.872,-0.170,0.135
15.875,-0.170,0.125
15.878,-0.180,0.115
15.881,-0.180,0.105
15.883,-0.165,0.110
15.886,-0.150,0.120
15.889,-0.160,0.125
15.892,-0.160,0.120
15.894,-0.175,0.105
15.897,-0.160,0.100
15.900,-0.145,0.105
15.903,-0.140,0.120
15.906,-0.145,0.130
15.908,-0.160,0.120
15.911,-0.160,0.095
15.914,-0.155,0.100
15.917,-0.140,0.105
15.919,-0.130,0.110
15.922,-0.130,0.120
15.925,-0.140,0.115
15.928,-0.155,0.090
15.931,-0.155,0.090
15.933,-0.145,0.080
15.936,-0.150,0.105
15.939,-0.140,0.115
15.942,-0.140,0.110
15.944,-0.150,0.105
15.947,-0.160,0.080
15.950,-0.165,0.105
15.953,-0.145,0.110
15.956,-0.135,0.105
15.958,-0.150,0.105
15.961,-0.160,0.095
15.964,-0.160,0.080
15.967,-0.145,0.100
15.969,-0.135,0.110
15.972,-0.140,0.130
15.975,-0.140,0.115
15.978,-0.140,0.085
15.981,-0.145,0.075
15.983,-0.145,0.085
15.986,-0.140,0.110
15.989,-0.135,0.100
15.992,-0.135,0.095
15.994,-0.140,0.090
15.997,-0.145,0.085
16.000,-0.135,0.095
16.003,-0.125,0.095
16.006,-0.125,0.095
16.008,-0.155,0.100
16.011,-0.145,0.095
16.014,-0.145,0.085
16.017,-0.125,0.095
16.019,-0.120,0.100
16.022,-0.130,0.105
16.025,-0.145,0.100
16.028,-0.155,0.090
16.031,-0.145,0.080
16.033,-0.120,0.080
16.036,-0.115,0.100
16.039,-0.115,0.110
16.042,-0.130,0.095
16.044,-0.130,0.090
16.047,-0.125,0.080
16.050,-0.120,0.090
16.053,-0.100,0.090
16.056,-0.100,0.090
16.058,-0.125,0.095
16.061,-0.150,0.070
16.064,-0.130,0.075
16.067,-0.110,0.095
16.069,-0.110,0.100
16.072,-0.110,0.100
16.075,-0.130,0.090
16.078,-0.130,0.075
16.081,-0.120,0.065
16.083,-0.125,0.065
16.086,-0.120,0.090
16.089,-0.125,0.085
16.092,-0.145,0.085
16.094,-0.140,0.075
16.097,-0.125,0.080
16.100,-0.105,0.075
16.103,-0.110,0.095
16.106,-0.115,0.095
16.108,-0.110,0.095
16.111,-0.125,0.065
16.114,-0.125,0.065
16.117,-0.105,0.075
16.119,-0.095,0.085
16.122,-0.095,0.095
16.125,-0.115,0.090
16.128,-0.135,0.085
16.131,-0.120,0.070
16.133,-0.100,0.070
16.136,-0.085,0.095
16.139,-0.080,0.095
16.142,-0.100,0.080
16.144,-0.115,0.085
16.147,-0.110,0.075
16.150,-0.095,0.070
16.153,-0.075,0.080
16.156,-0.100,0.085
16.158,-0.110,0.090
16.161,-0.130,0.075
16.164,-0.115,0.070
16.167,-0.095,0.085
16.169,-0.080,0.085
16.172,-0.090,0.100
16.175,-0.115,0.095
16.178,-0.115,0.085
16.181,-0.125,0.080
16.183,-0.110,0.095
16.186,-0.125,0.095
16.189,-0.115,0.105
16.192,-0.115,0.110
16.194,-0.120,0.085
16.197,-0.125,0.090
16.200,-0.110,0.090
16.203,-0.100,0.095
16.206,-0.105,0.105
16.208,-0.115,0.120
16.211,-0.125,0.100
16.214,-0.120,0.090
16.217,-0.105,0.095
16.219,-0.085,0.110
16.222,-0.080,0.135
16.225,-0.075,0.145
16.228,-0.085,0.135
16.231,-0.080,0.130
16.233,-0.070,0.140
16.236,-0.060,0.150
16.239,-0.040,0.165
16.242,-0.025,0.155
16.244,-0.030,0.135
16.247,-0.010,0.130
16.250,0.015,0.125
16.253,0.035,0.105
16.256,0.035,0.100
16.258,0.015,0.080
16.261,0.010,0.060
16.264,0.010,0.060
16.267,0.015,0.070
16.269,0.010,0.075
16.272,0.000,0.075
16.275,-0.015,0.060
16.278,-0.045,0.055
16.281,-0.050,0.055
16.283,-0.055,0.055
16.286,-0.055,0.075
16.289,-0.075,0.070
16.292,-0.090,0.085
16.294,-0.105,0.090
16.297,-0.120,0.070
16.300,-0.105,0.080
16.303,-0.115,0.085
16.306,-0.120,0.090
16.308,-0.140,0.095
16.311,-0.130,0.080
16.314,-0.140,0.060
16.317,-0.120,0.075
16.319,-0.105,0.070
16.322,-0.110,0.090
16.325,-0.130,0.090
16.328,-0.140,0.070
16.331,-0.135,0.065
16.333,-0.125,0.080
16.336,-0.115,0.085
16.339,-0.130,0.095
16.342,-0.120,0.085
16.344,-0.140,0.070
16.347,-0.135,0.070
16.350,-0.115,0.055
16.353,-0.125,0.055
16.356,-0.140,0.060
16.358,-0.140,0.075
16.361,-0.090,0.065
16.364,0.025,0.030
16.367,0.165,-0.025
16.369,0.350,-0.090
16.372,0.565,-0.140
16.375,0.840,-0.170
16.378,1.110,-0.185
16.381,1.335,-0.220
16.383,1.540,-0.245
16.386,1.675,-0.235
16.389,1.630,-0.190
16.392,1.375,-0.115
16.394,1.055,-0.095
16.397,0.700,-0.075
16.400,0.340,-0.055
16.403,0.075,-0.035
16.406,-0.085,-0.040
16.408,-0.150,-0.045
16.411,-0.150,-0.055
16.414,-0.170,-0.025
16.417,-0.180,0.015
16.419,-0.185,0.055
16.422,-0.170,0.075
16.425,-0.180,0.095
16.428,-0.180,0.085
16.431,-0.195,0.100
16.433,-0.185,0.105
16.436,-0.190,0.120
16.439,-0.200,0.120
16.442,-0.220,0.120
16.444,-0.255,0.115
16.447,-0.250,0.110
16.450,-0.245,0.105
16.453,-0.225,0.125
16.456,-0.235,0.130
16.458,-0.240,0.130
16.461,-0.265,0.120
16.464,-0.260,0.105
16.467,-0.245,0.110
16.469,-0.240,0.120
16.472,-0.225,0.130
16.475,-0.240,0.120
16.478,-0.235,0.110
16.481,-0.225,0.125
16.483,-0.220,0.125
16.486,-0.210,0.130
16.489,-0.225,0.120
16.492,-0.230,0.105
16.494,-0.245,0.105
16.497,-0.230,0.090
16.500,-0.240,0.085
16.503,-0.210,0.100
16.506,-0.215,0.110
16.508,-0.220,0.100
16.511,-0.235,0.085
16.514,-0.230,0.065
16.517,-0.210,0.070
16.519,-0.200,0.080
16.522,-0.195,0.070
16.525,-0.200,0.070
16.528,-0.220,0.065
16.531,-0.205,0.055
16.533,-0.180,0.055
16.536,-0.170,0.065
16.539,-0.170,0.075
16.542,-0.185,0.060
16.544,-0.190,0.045
16.547,-0.185,0.030
16.550,-0.155,0.040
16.553,-0.140,0.035
16.556,-0.135,0.045
16.558,-0.145,0.030
16.561,-0.135,0.010
16.564,-0.120,-0.010
16.567,-0.085,-0.010
16.569,-0.080,-0.005
16.572,-0.075,-0.015
16.575,-0.080,-0.025
16.578,-0.080,-0.045
16.581,-0.065,-0.055
16.583,-0.035,-0.060
16.586,-0.025,-0.075
16.589,-0.010,-0.065
16.592,-0.010,-0.080
16.594,-0.010,-0.100
16.597,0.000,-0.110
16.600,0.025,-0.115
16.603,0.045,-0.110
16.606,0.055,-0.115
16.608,0.035,-0.125
16.611,0.050,-0.155
16.614,0.045,-0.160
16.617,0.080,-0.155
16.619,0.095,-0.150
16.622,0.085,-0.145
16.625,0.090,-0.150
16.628,0.080,-0.160
16.631,0.100,-0.175
16.633,0.110,-0.160
16.636,0.135,-0.150
16.639,0.130,-0.145
16.642,0.120,-0.135
16.644,0.120,-0.140
16.647,0.120,-0.140
16.650,0.140,-0.110
16.653,0.150,-0.095
16.656,0.130,-0.080
16.658,0.105,-0.070
16.661,0.090,-0.065
16.664,0.070,-0.060
16.667,0.070,-0.040
16.669,0.060,-0.005
16.672,0.045,0.010
16.675,0.020,0.030
16.678,-0.025,0.035
16.681,-0.035,0.050
16.683,-0.030,0.065
16.686,-0.040,0.095
16.689,-0.075,0.105
16.692,-0.100,0.120
16.694,-0.145,0.130
16.697,-0.150,0.120
16.700,-0.150,0.135
16.703,-0.150,0.165
16.706,-0.145,0.170
16.708,-0.185,0.165
16.711,-0.200,0.160
16.714,-0.205,0.165
16.717,-0.185,0.185
16.719,-0.185,0.190
16.722,-0.185,0.200
16.725,-0.205,0.200
16.728,-0.220,0.185
16.731,-0.230,0.185
16.733,-0.230,0.190
16.736,-0.225,0.200
16.739,-0.220,0.195
16.742,-0.220,0.205
16.744,-0.235,0.180
16.747,-0.225,0.180
16.750,-0.210,0.190
16.753,-0.205,0.200
16.756,-0.215,0.200
16.758,-0.235,0.190
16.761,-0.240,0.190
16.764,-0.235,0.175
16.767,-0.220,0.185
16.769,-0.215,0.205
16.772,-0.210,0.210
16.775,-0.230,0.195
16.778,-0.235,0.185
16.781,-0.225,0.185
16.783,-0.215,0.180
16.786,-0.205,0.195
16.789,-0.220,0.195
16.792,-0.235,0.190
16.794,-0.245,0.180
16.797,-0.230,0.160
16.800,-0.210,0.160
16.803,-0.210,0.180
16.806,-0.210,0.180
16.808,-0.230,0.180
16.811,-0.240,0.155
16.814,-0.230,0.140
16.817,-0.210,0.165
16.819,-0.205,0.170
16.822,-0.220,0.175
16.825,-0.225,0.175
16.828,-0.230,0.155
16.831,-0.220,0.160
16.833,-0.215,0.160
16.836,-0.200,0.165
16.839,-0.210,0.170
16.842,-0.225,0.165
16.844,-0.230,0.160
16.847,-0.220,0.155
16.850,-0.205,0.155
16.853,-0.210,0.175
16.856,-0.200,0.195
16.858,-0.200,0.185
16.861,-0.190,0.200
16.864,-0.175,0.200
16.867,-0.165,0.215
16.869,-0.150,0.235
16.872,-0.145,0.255
16.875,-0.155,0.260
16.878,-0.120,0.235
16.881,-0.085,0.220
16.883,-0.050,0.220
16.886,-0.010,0.210
16.889,-0.015,0.200
16.892,0.005,0.160
16.894,0.030,0.110
16.897,0.080,0.055
16.900,0.120,0.030
16.903,0.165,0.010
16.906,0.185,-0.010
16.908,0.215,-0.080
16.911,0.265,-0.170
16.914,0.335,-0.290
16.917,0.430,-0.390
16.919,0.490,-0.475
16.922,0.540,-0.560
16.925,0.575,-0.625
16.928,0.625,-0.690
16.931,0.675,-0.755
16.933,0.760,-0.810
16.936,0.835,-0.865
16.939,0.910,-0.960
16.942,0.975,-1.005
16.944,1.035,-1.065
16.947,1.085,-1.095
16.950,1.160,-1.115
16.953,1.245,-1.140
16.956,1.315,-1.170
16.958,1.350,-1.175
16.961,1.355,-1.160
16.964,1.345,-1.120
16.967,1.315,-1.065
16.969,1.255,-0.985
16.972,1.195,-0.905
16.975,1.125,-0.815
16.978,1.060,-0.730
16.981,1.030,-0.610
16.983,1.010,-0.480
16.986,0.980,-0.365
16.989,0.940,-0.305
16.992,0.875,-0.235
16.994,0.840,-0.215
16.997,0.810,-0.190
17.000,0.795,-0.150
17.003,0.780,-0.125
17.006,0.730,-0.105
17.008,0.710,-0.110
17.011,0.690,-0.105
17.014,0.685,-0.100
17.017,0.645,-0.090
17.019,0.600,-0.075
17.022,0.495,-0.050
17.025,0.360,-0.030
17.028,0.180,0.025
17.031,-0.005,0.085
17.033,-0.165,0.165
17.036,-0.315,0.250
17.039,-0.430,0.305
17.042,-0.535,0.340
17.044,-0.595,0.370
17.047,-0.635,0.375
17.050,-0.640,0.400
17.053,-0.645,0.425
17.056,-0.660,0.440
17.058,-0.700,0.455
17.061,-0.735,0.455
17.064,-0.745,0.455
17.067,-0.745,0.460
17.069,-0.750,0.485
17.072,-0.760,0.510
17.075,-0.785,0.510
17.078,-0.810,0.500
17.081,-0.800,0.505
17.083,-0.800,0.520
17.086,-0.800,0.540
17.089,-0.820,0.570
17.092,-0.830,0.570
17.094,-0.850,0.560
17.097,-0.840,0.580
17.100,-0.840,0.585
17.103,-0.850,0.605
17.106,-0.850,0.635
17.108,-0.875,0.635
17.111,-0.905,0.650
17.114,-0.905,0.660
17.117,-0.895,0.670
17.119,-0.900,0.700
17.122,-0.915,0.715
17.125,-0.935,0.735
