'Elapsed time','MLII','V1'
'seconds','mV','mV'
0.000,-0.020,0.160
0.003,-0.020,0.160
0.006,-0.020,0.160
0.008,-0.020,0.160
0.011,-0.020,0.160
0.014,-0.020,0.160
0.017,-0.020,0.160
0.019,-0.020,0.160
0.022,-0.020,0.160
0.025,0.005,0.140
0.028,0.020,0.140
0.031,0.025,0.155
0.033,0.040,0.145
0.036,0.040,0.160
0.039,0.045,0.175
0.042,0.075,0.155
0.044,0.090,0.135
0.047,0.090,0.130
0.050,0.095,0.130
0.053,0.090,0.155
0.056,0.110,0.175
0.058,0.130,0.170
0.061,0.130,0.160
0.064,0.140,0.145
0.067,0.130,0.120
0.069,0.120,0.130
0.072,0.125,0.135
0.075,0.130,0.165
0.078,0.150,0.175
0.081,0.140,0.195
0.083,0.120,0.200
0.086,0.135,0.170
0.089,0.135,0.170
0.092,0.155,0.165
0.094,0.165,0.155
0.097,0.165,0.130
0.100,0.135,0.115
0.103,0.125,0.135
0.106,0.130,0.145
0.108,0.125,0.160
0.111,0.110,0.180
0.114,0.100,0.185
0.117,0.080,0.175
0.119,0.060,0.155
0.122,0.075,0.160
0.125,0.085,0.155
0.128,0.090,0.130
0.131,0.070,0.105
0.133,0.045,0.100
0.136,0.020,0.100
0.139,0.010,0.125
0.142,0.005,0.140
0.144,-0.010,0.140
0.147,-0.045,0.110
0.150,-0.065,0.095
0.153,-0.070,0.100
0.156,-0.080,0.110
0.158,-0.070,0.130
0.161,-0.055,0.125
0.164,-0.080,0.145
0.167,-0.115,0.140
0.169,-0.130,0.155
0.172,-0.105,0.140
0.175,-0.080,0.130
0.178,-0.070,0.120
0.181,-0.085,0.105
0.183,-0.110,0.105
0.186,-0.120,0.115
0.189,-0.120,0.140
0.192,-0.105,0.125
0.194,-0.090,0.115
0.197,-0.100,0.095
0.200,-0.110,0.090
0.203,-0.125,0.105
0.206,-0.125,0.110
0.208,-0.105,0.125
0.211,-0.120,0.110
0.214,-0.085,0.090
0.217,-0.100,0.050
0.219,-0.100,0.045
0.222,-0.105,0.055
0.225,-0.105,0.085
0.228,-0.115,0.110
0.231,-0.115,0.100
0.233,-0.110,0.110
0.236,-0.135,0.095
0.239,-0.135,0.090
0.242,-0.120,0.100
0.244,-0.120,0.115
0.247,-0.120,0.105
0.250,-0.115,0.105
0.253,-0.125,0.105
0.256,-0.125,0.120
0.258,-0.120,0.140
0.261,-0.100,0.120
0.264,-0.100,0.110
0.267,-0.110,0.095
0.269,-0.120,0.090
0.272,-0.115,0.090
0.275,-0.115,0.085
0.278,-0.105,0.075
0.281,-0.095,0.075
0.283,-0.125,0.065
0.286,-0.140,0.070
0.289,-0.125,0.090
0.292,-0.110,0.105
0.294,-0.090,0.120
0.297,-0.100,0.105
0.300,-0.120,0.105
0.303,-0.130,0.145
0.306,-0.140,0.175
0.308,-0.140,0.190
0.311,-0.115,0.175
0.314,-0.100,0.140
0.317,-0.110,0.100
0.319,-0.110,0.090
0.322,-0.085,0.105
0.325,-0.065,0.120
0.328,-0.040,0.110
0.331,-0.035,0.095
0.333,-0.055,0.065
0.336,-0.075,0.075
0.339,-0.055,0.105
0.342,-0.030,0.140
0.344,0.000,0.135
0.347,-0.020,0.125
0.350,-0.045,0.110
0.353,-0.060,0.110
0.356,-0.045,0.115
0.358,-0.030,0.105
0.361,-0.025,0.075
0.364,-0.020,0.050
0.367,-0.025,0.020
0.369,-0.060,0.040
0.372,-0.070,0.060
0.375,-0.050,0.090
0.378,-0.045,0.090
0.381,-0.055,0.065
0.383,-0.090,0.060
0.386,-0.105,0.055
0.389,-0.110,0.050
0.392,-0.110,0.055
0.394,-0.090,0.050
0.397,-0.095,0.045
0.400,-0.090,0.060
0.403,-0.090,0.080
0.406,-0.070,0.095
0.408,-0.060,0.090
0.411,-0.065,0.075
0.414,-0.080,0.060
0.417,-0.100,0.035
0.419,-0.115,0.050
0.422,-0.125,0.055
0.425,-0.130,0.055
0.428,-0.140,0.055
0.431,-0.160,0.050
0.433,-0.160,0.055
0.436,-0.165,0.060
0.439,-0.185,0.075
0.442,-0.175,0.120
0.444,-0.185,0.130
0.447,-0.185,0.140
0.450,-0.195,0.170
0.453,-0.200,0.175
0.456,-0.190,0.180
0.458,-0.190,0.150
0.461,-0.185,0.125
0.464,-0.180,0.095
0.467,-0.185,0.080
0.469,-0.190,0.050
0.472,-0.190,0.045
0.475,-0.185,0.050
0.478,-0.175,0.065
0.481,-0.190,0.075
0.483,-0.190,0.090
0.486,-0.200,0.090
0.489,-0.195,0.090
0.492,-0.200,0.120
0.494,-0.210,0.135
0.497,-0.240,0.165
0.500,-0.260,0.170
0.503,-0.250,0.180
0.506,-0.215,0.205
0.508,-0.115,0.210
0.511,0.010,0.215
0.514,0.170,0.210
0.517,0.375,0.215
0.519,0.600,0.235
0.522,0.850,0.235
0.525,1.080,0.205
0.528,1.195,0.120
0.531,1.150,-0.005
0.533,0.900,-0.120
0.536,0.550,-0.155
0.539,0.115,-0.120
0.542,-0.340,-0.095
0.544,-0.710,-0.080
0.547,-0.850,-0.085
0.550,-0.800,-0.085
0.553,-0.680,-0.070
0.556,-0.555,-0.055
0.558,-0.445,-0.035
0.561,-0.375,-0.020
0.564,-0.320,-0.010
0.567,-0.285,-0.010
0.569,-0.255,0.005
0.572,-0.235,0.010
0.575,-0.215,0.050
0.578,-0.220,0.080
0.581,-0.220,0.070
0.583,-0.235,0.050
0.586,-0.210,0.050
0.589,-0.200,0.070
0.592,-0.205,0.090
0.594,-0.200,0.105
0.597,-0.205,0.090
0.600,-0.210,0.095
0.603,-0.225,0.100
0.606,-0.210,0.120
0.608,-0.190,0.125
0.611,-0.180,0.115
0.614,-0.195,0.100
0.617,-0.205,0.095
0.619,-0.210,0.110
0.622,-0.210,0.105
0.625,-0.200,0.125
0.628,-0.195,0.115
0.631,-0.205,0.115
0.633,-0.215,0.110
0.636,-0.205,0.105
0.639,-0.205,0.125
0.642,-0.175,0.155
0.644,-0.175,0.145
0.647,-0.160,0.115
0.650,-0.160,0.075
0.653,-0.140,0.065
0.656,-0.150,0.080
0.658,-0.125,0.115
0.661,-0.120,0.135
0.664,-0.125,0.150
0.667,-0.145,0.185
0.669,-0.145,0.205
0.672,-0.125,0.205
0.675,-0.090,0.170
0.678,-0.060,0.100
0.681,-0.070,0.070
0.683,-0.070,0.075
0.686,-0.075,0.105
0.689,-0.060,0.120
0.692,-0.040,0.120
0.694,-0.015,0.095
0.697,-0.020,0.080
0.700,-0.020,0.090
0.703,0.005,0.110
0.706,0.025,0.120
0.708,0.040,0.125
0.711,0.040,0.130
0.714,0.050,0.135
0.717,0.025,0.125
0.719,0.025,0.115
0.722,0.035,0.130
0.725,0.060,0.140
0.728,0.085,0.125
0.731,0.090,0.110
0.733,0.070,0.130
0.736,0.065,0.125
0.739,0.070,0.135
0.742,0.095,0.155
0.744,0.110,0.150
0.747,0.105,0.145
0.750,0.090,0.135
0.753,0.075,0.145
0.756,0.075,0.160
0.758,0.080,0.175
0.761,0.090,0.160
0.764,0.085,0.160
0.767,0.055,0.150
0.769,0.035,0.155
0.772,0.055,0.175
0.775,0.055,0.185
0.778,0.045,0.220
0.781,0.025,0.235
0.783,0.000,0.225
0.786,-0.005,0.200
0.789,-0.020,0.185
0.792,-0.035,0.175
0.794,-0.045,0.160
0.797,-0.060,0.145
0.800,-0.085,0.105
0.803,-0.105,0.095
0.806,-0.115,0.070
0.808,-0.125,0.075
0.811,-0.120,0.065
0.814,-0.130,0.060
0.817,-0.155,0.055
0.819,-0.160,0.080
0.822,-0.170,0.090
0.825,-0.165,0.105
0.828,-0.175,0.095
0.831,-0.165,0.080
0.833,-0.190,0.090
0.836,-0.205,0.080
0.839,-0.205,0.100
0.842,-0.200,0.115
0.844,-0.205,0.120
0.847,-0.210,0.125
0.850,-0.220,0.125
0.853,-0.235,0.140
0.856,-0.225,0.140
0.858,-0.205,0.160
0.861,-0.195,0.165
0.864,-0.200,0.155
0.867,-0.210,0.110
0.869,-0.230,0.105
0.872,-0.215,0.105
0.875,-0.205,0.105
0.878,-0.200,0.100
0.881,-0.190,0.080
0.883,-0.210,0.050
0.886,-0.220,0.070
0.889,-0.215,0.100
0.892,-0.215,0.135
0.894,-0.195,0.130
0.897,-0.195,0.115
0.900,-0.195,0.095
0.903,-0.210,0.075
0.906,-0.210,0.090
0.908,-0.205,0.100
0.911,-0.195,0.105
0.914,-0.200,0.095
0.917,-0.200,0.095
0.919,-0.205,0.110
0.922,-0.205,0.125
0.925,-0.195,0.145
0.928,-0.180,0.135
0.931,-0.185,0.115
0.933,-0.200,0.075
0.936,-0.200,0.055
0.939,-0.165,0.055
0.942,-0.165,0.080
0.944,-0.145,0.110
0.947,-0.155,0.125
0.950,-0.165,0.115
0.953,-0.150,0.105
0.956,-0.145,0.095
0.958,-0.145,0.105
0.961,-0.150,0.100
0.964,-0.165,0.095
0.967,-0.165,0.095
0.969,-0.170,0.120
0.972,-0.150,0.125
0.975,-0.145,0.135
0.978,-0.130,0.130
0.981,-0.140,0.120
0.983,-0.145,0.105
0.986,-0.145,0.125
0.989,-0.135,0.160
0.992,-0.130,0.170
0.994,-0.115,0.145
0.997,-0.110,0.115
1.000,-0.115,0.070
1.003,-0.120,0.040
1.006,-0.110,0.030
1.008,-0.120,0.045
1.011,-0.120,0.045
1.014,-0.130,0.050
1.017,-0.135,0.030
1.019,-0.140,0.050
1.022,-0.145,0.050
1.025,-0.140,0.055
1.028,-0.125,0.065
1.031,-0.120,0.050
1.033,-0.140,0.050
1.036,-0.170,0.040
1.039,-0.180,0.030
1.042,-0.180,0.050
1.044,-0.175,0.040
1.047,-0.185,0.025
1.050,-0.190,0.025
1.053,-0.205,0.025
1.056,-0.185,0.040
1.058,-0.165,0.060
1.061,-0.145,0.070
1.064,-0.160,0.080
1.067,-0.190,0.100
1.069,-0.215,0.115
1.072,-0.225,0.130
1.075,-0.235,0.120
1.078,-0.245,0.095
1.081,-0.275,0.075
1.083,-0.280,0.070
1.086,-0.275,0.080
1.089,-0.270,0.090
1.092,-0.235,0.100
1.094,-0.240,0.075
1.097,-0.255,0.075
1.100,-0.265,0.095
1.103,-0.265,0.100
1.106,-0.255,0.090
1.108,-0.260,0.095
1.111,-0.250,0.085
1.114,-0.250,0.065
1.117,-0.250,0.030
1.119,-0.250,0.030
1.122,-0.255,0.065
1.125,-0.250,0.090
1.128,-0.240,0.105
1.131,-0.240,0.095
1.133,-0.240,0.070
1.136,-0.260,0.055
1.139,-0.255,0.065
1.142,-0.255,0.085
1.144,-0.285,0.110
1.147,-0.320,0.115
1.150,-0.335,0.135
1.153,-0.360,0.140
1.156,-0.310,0.170
1.158,-0.250,0.205
1.161,-0.160,0.200
1.164,-0.035,0.190
1.167,0.100,0.185
1.169,0.280,0.210
1.172,0.520,0.215
1.175,0.760,0.220
1.178,0.960,0.175
1.181,1.080,0.110
1.183,1.055,0.000
1.186,0.905,-0.090
1.189,0.635,-0.140
1.192,0.325,-0.130
1.194,-0.060,-0.115
1.197,-0.500,-0.110
1.200,-0.810,-0.115
1.203,-0.880,-0.115
1.206,-0.825,-0.090
1.208,-0.740,-0.070
1.211,-0.650,-0.070
1.214,-0.550,-0.100
1.217,-0.475,-0.085
1.219,-0.410,-0.060
1.222,-0.370,-0.005
1.225,-0.335,0.030
1.228,-0.320,0.040
1.231,-0.300,0.065
1.233,-0.305,0.070
1.236,-0.300,0.070
1.239,-0.280,0.095
1.242,-0.275,0.080
1.244,-0.275,0.060
1.247,-0.290,0.030
1.250,-0.285,0.035
1.253,-0.280,0.020
1.256,-0.265,0.040
1.258,-0.260,0.035
1.261,-0.250,0.050
1.264,-0.255,0.045
1.267,-0.270,0.035
1.269,-0.265,0.040
1.272,-0.255,0.045
1.275,-0.245,0.085
1.278,-0.245,0.070
1.281,-0.285,0.055
1.283,-0.275,0.050
1.286,-0.260,0.040
1.289,-0.250,0.055
1.292,-0.235,0.070
1.294,-0.240,0.070
1.297,-0.255,0.070
1.300,-0.225,0.060
1.303,-0.235,0.055
1.306,-0.225,0.065
1.308,-0.210,0.075
1.311,-0.200,0.055
1.314,-0.195,0.045
1.317,-0.205,0.025
1.319,-0.205,0.035
1.322,-0.190,0.060
1.325,-0.160,0.075
1.328,-0.130,0.080
1.331,-0.135,0.065
1.333,-0.155,0.045
1.336,-0.165,0.055
1.339,-0.160,0.065
1.342,-0.145,0.085
1.344,-0.140,0.080
1.347,-0.135,0.085
1.350,-0.130,0.095
1.353,-0.120,0.105
1.356,-0.105,0.130
1.358,-0.075,0.120
1.361,-0.060,0.125
1.364,-0.035,0.100
1.367,-0.040,0.085
1.369,-0.040,0.065
1.372,-0.005,0.060
1.375,0.010,0.065
1.378,0.015,0.065
1.381,0.015,0.065
1.383,0.005,0.065
1.386,0.010,0.065
1.389,0.035,0.050
1.392,0.040,0.040
1.394,0.060,0.030
1.397,0.060,0.045
1.400,0.050,0.055
1.403,0.030,0.070
1.406,0.045,0.085
1.408,0.040,0.105
1.411,0.050,0.090
1.414,0.050,0.080
1.417,0.050,0.060
1.419,0.045,0.055
1.422,0.055,0.060
1.425,0.060,0.075
1.428,0.060,0.070
1.431,0.055,0.065
1.433,0.035,0.065
1.436,0.015,0.075
1.439,0.005,0.100
1.442,0.005,0.110
1.444,-0.010,0.135
1.447,-0.035,0.130
1.450,-0.080,0.125
1.453,-0.095,0.140
1.456,-0.085,0.125
1.458,-0.080,0.115
1.461,-0.085,0.055
1.464,-0.100,0.020
1.467,-0.125,-0.025
1.469,-0.145,-0.020
1.472,-0.150,0.010
1.475,-0.160,0.030
1.478,-0.180,0.050
1.481,-0.185,0.050
1.483,-0.195,0.050
1.486,-0.200,0.035
1.489,-0.205,0.040
1.492,-0.195,0.060
1.494,-0.190,0.075
1.497,-0.190,0.080
1.500,-0.200,0.065
1.503,-0.230,0.055
1.506,-0.215,0.060
1.508,-0.205,0.050
1.511,-0.205,0.060
1.514,-0.220,0.055
1.517,-0.210,0.060
1.519,-0.230,0.070
1.522,-0.240,0.105
1.525,-0.235,0.125
1.528,-0.245,0.135
1.531,-0.235,0.080
1.533,-0.250,0.020
1.536,-0.250,-0.030
1.539,-0.230,-0.025
1.542,-0.225,-0.010
1.544,-0.220,-0.005
1.547,-0.235,-0.005
1.550,-0.240,-0.005
1.553,-0.250,0.000
1.556,-0.250,0.015
1.558,-0.230,0.025
1.561,-0.215,0.040
1.564,-0.220,0.030
1.567,-0.225,0.015
1.569,-0.225,0.020
1.572,-0.215,0.025
1.575,-0.200,0.040
1.578,-0.200,0.040
1.581,-0.215,0.040
1.583,-0.230,0.040
1.586,-0.240,0.050
1.589,-0.230,0.085
1.592,-0.205,0.090
1.594,-0.200,0.105
1.597,-0.205,0.070
1.600,-0.235,0.040
1.603,-0.265,0.050
1.606,-0.250,0.040
1.608,-0.230,0.055
1.611,-0.205,0.050
1.614,-0.205,0.040
1.617,-0.230,0.025
1.619,-0.235,0.015
1.622,-0.225,0.000
1.625,-0.195,0.020
1.628,-0.185,0.025
1.631,-0.165,0.015
1.633,-0.170,0.005
1.636,-0.170,0.010
1.639,-0.185,0.040
1.642,-0.185,0.065
1.644,-0.185,0.070
1.647,-0.175,0.070
1.650,-0.165,0.050
1.653,-0.155,0.055
1.656,-0.160,0.065
1.658,-0.150,0.070
1.661,-0.140,0.050
1.664,-0.155,0.015
1.667,-0.165,0.005
1.669,-0.185,0.010
1.672,-0.195,0.045
1.675,-0.190,0.065
1.678,-0.210,0.080
1.681,-0.215,0.070
1.683,-0.220,0.045
1.686,-0.190,0.020
1.689,-0.180,-0.015
1.692,-0.185,-0.025
1.694,-0.185,-0.055
1.697,-0.195,-0.045
1.700,-0.220,-0.050
1.703,-0.230,-0.025
1.706,-0.230,-0.025
1.708,-0.235,-0.040
1.711,-0.230,-0.030
1.714,-0.240,-0.015
1.717,-0.255,0.005
1.719,-0.255,0.010
1.722,-0.235,0.030
1.725,-0.240,0.030
1.728,-0.250,0.020
1.731,-0.290,0.005
1.733,-0.315,-0.005
1.736,-0.325,-0.005
1.739,-0.315,0.000
1.742,-0.300,0.015
1.744,-0.300,0.030
1.747,-0.295,0.035
1.750,-0.315,0.040
1.753,-0.310,0.040
1.756,-0.310,0.030
1.758,-0.300,0.030
1.761,-0.295,0.020
1.764,-0.305,0.015
1.767,-0.335,0.005
1.769,-0.350,0.025
1.772,-0.340,0.040
1.775,-0.320,0.035
1.778,-0.310,0.045
1.781,-0.295,0.045
1.783,-0.305,0.025
1.786,-0.310,0.010
1.789,-0.305,0.020
1.792,-0.300,0.015
1.794,-0.310,0.035
1.797,-0.335,0.065
1.800,-0.375,0.105
1.803,-0.405,0.135
1.806,-0.415,0.165
1.808,-0.375,0.175
1.811,-0.325,0.155
1.814,-0.220,0.130
1.817,-0.090,0.095
1.819,0.065,0.085
1.822,0.285,0.130
1.825,0.515,0.155
1.828,0.755,0.155
1.831,0.940,0.130
1.833,0.995,0.050
1.836,0.920,-0.040
1.839,0.725,-0.110
1.842,0.445,-0.105
1.844,0.095,-0.100
1.847,-0.340,-0.110
1.850,-0.705,-0.120
1.853,-0.885,-0.105
1.856,-0.885,-0.095
1.858,-0.805,-0.100
1.861,-0.750,-0.105
1.864,-0.700,-0.115
1.867,-0.600,-0.120
1.869,-0.515,-0.130
1.872,-0.440,-0.120
1.875,-0.415,-0.090
1.878,-0.410,-0.050
1.881,-0.395,-0.045
1.883,-0.385,-0.035
1.886,-0.375,-0.010
1.889,-0.365,0.020
1.892,-0.330,0.035
1.894,-0.315,0.030
1.897,-0.320,0.015
1.900,-0.340,0.000
1.903,-0.345,0.030
1.906,-0.335,0.030
1.908,-0.315,0.060
1.911,-0.300,0.035
1.914,-0.310,0.010
1.917,-0.330,0.000
1.919,-0.355,0.010
1.922,-0.335,0.040
1.925,-0.305,0.050
1.928,-0.295,0.015
1.931,-0.305,0.015
1.933,-0.320,-0.005
1.936,-0.325,0.000
1.939,-0.315,0.030
1.942,-0.290,0.035
1.944,-0.285,0.040
1.947,-0.285,0.040
1.950,-0.285,0.030
1.953,-0.275,0.025
1.956,-0.260,0.010
1.958,-0.250,0.010
1.961,-0.245,0.000
1.964,-0.245,0.005
1.967,-0.240,-0.010
1.969,-0.230,-0.005
1.972,-0.220,0.000
1.975,-0.200,0.020
1.978,-0.195,0.035
1.981,-0.185,0.040
1.983,-0.200,0.040
1.986,-0.190,0.015
1.989,-0.175,0.030
1.992,-0.160,0.030
1.994,-0.135,0.015
1.997,-0.110,0.005
2.000,-0.100,-0.005
2.003,-0.100,0.005
2.006,-0.090,0.045
2.008,-0.095,0.045
2.011,-0.095,0.035
2.014,-0.080,0.015
2.017,-0.070,0.010
2.019,-0.060,0.025
2.022,-0.045,0.045
2.025,-0.025,0.050
2.028,-0.010,0.020
2.031,0.010,-0.005
2.033,-0.005,-0.005
2.036,-0.025,0.015
2.039,-0.035,0.035
2.042,-0.020,0.070
2.044,0.000,0.070
2.047,-0.015,0.045
2.050,-0.025,0.020
2.053,0.005,0.020
2.056,0.010,0.040
2.058,0.035,0.055
2.061,0.030,0.040
2.064,0.015,0.030
2.067,-0.015,0.005
2.069,-0.035,0.005
2.072,-0.035,0.045
2.075,-0.050,0.055
2.078,-0.075,0.070
2.081,-0.100,0.060
2.083,-0.120,0.065
2.086,-0.130,0.045
2.089,-0.140,0.050
2.092,-0.115,0.045
2.094,-0.110,0.050
2.097,-0.135,0.025
2.100,-0.165,0.010
2.103,-0.180,-0.015
2.106,-0.190,0.000
2.108,-0.200,0.010
2.111,-0.205,0.020
2.114,-0.220,0.005
2.117,-0.240,-0.010
2.119,-0.280,0.000
2.122,-0.305,0.010
2.125,-0.315,0.025
2.128,-0.305,0.045
2.131,-0.300,0.055
2.133,-0.290,0.045
2.136,-0.315,0.055
2.139,-0.305,0.045
2.142,-0.305,0.050
2.144,-0.305,0.030
2.147,-0.315,0.010
2.150,-0.335,-0.020
2.153,-0.340,-0.015
2.156,-0.330,0.000
2.158,-0.320,0.025
2.161,-0.305,0.035
2.164,-0.315,0.015
2.167,-0.310,0.015
2.169,-0.310,0.025
2.172,-0.290,0.045
2.175,-0.280,0.075
2.178,-0.275,0.065
2.181,-0.295,0.045
2.183,-0.305,0.025
2.186,-0.315,0.030
2.189,-0.295,0.040
2.192,-0.300,0.040
2.194,-0.275,0.010
2.197,-0.280,0.010
2.200,-0.260,0.010
2.203,-0.270,0.035
2.206,-0.255,0.040
2.208,-0.260,0.030
2.211,-0.250,0.000
2.214,-0.265,-0.010
2.217,-0.275,-0.015
2.219,-0.295,0.010
2.222,-0.275,0.025
2.225,-0.265,0.020
2.228,-0.235,0.025
2.231,-0.270,0.020
2.233,-0.290,0.010
2.236,-0.290,0.035
2.239,-0.280,0.045
2.242,-0.250,0.040
2.244,-0.210,0.040
2.247,-0.215,0.020
2.250,-0.240,0.015
2.253,-0.275,0.010
2.256,-0.285,0.010
2.258,-0.260,0.040
2.261,-0.240,0.035
2.264,-0.225,0.030
2.267,-0.250,0.015
2.269,-0.265,0.025
2.272,-0.250,0.045
2.275,-0.235,0.050
2.278,-0.230,0.045
2.281,-0.235,0.045
2.283,-0.250,0.040
2.286,-0.230,0.040
2.289,-0.230,0.055
2.292,-0.215,0.060
2.294,-0.195,0.065
2.297,-0.200,0.065
2.300,-0.210,0.040
2.303,-0.205,-0.010
2.306,-0.230,-0.045
2.308,-0.225,-0.040
2.311,-0.210,-0.045
2.314,-0.200,-0.020
2.317,-0.235,-0.010
2.319,-0.265,-0.015
2.322,-0.270,-0.005
2.325,-0.260,-0.020
2.328,-0.240,-0.020
2.331,-0.225,-0.020
2.333,-0.235,-0.030
2.336,-0.240,-0.015
2.339,-0.240,-0.020
2.342,-0.230,-0.025
2.344,-0.245,-0.050
2.347,-0.280,-0.055
2.350,-0.310,-0.060
2.353,-0.285,-0.050
2.356,-0.255,-0.010
2.358,-0.235,0.005
2.361,-0.255,0.020
2.364,-0.280,0.030
2.367,-0.285,0.020
2.369,-0.305,0.005
2.372,-0.320,0.000
2.375,-0.355,0.020
2.378,-0.360,0.025
2.381,-0.355,0.015
2.383,-0.345,0.010
2.386,-0.345,0.000
2.389,-0.355,0.025
2.392,-0.340,0.040
2.394,-0.330,0.040
2.397,-0.315,0.050
2.400,-0.330,0.030
2.403,-0.355,0.045
2.406,-0.375,0.070
2.408,-0.365,0.085
2.411,-0.345,0.045
2.414,-0.340,0.005
2.417,-0.350,-0.015
2.419,-0.350,-0.040
2.422,-0.350,-0.030
2.425,-0.340,-0.010
2.428,-0.340,-0.020
2.431,-0.345,-0.025
2.433,-0.380,-0.010
2.436,-0.390,0.000
2.439,-0.420,0.050
2.442,-0.450,0.085
2.444,-0.430,0.100
2.447,-0.405,0.105
2.450,-0.350,0.085
2.453,-0.265,0.090
2.456,-0.120,0.095
2.458,0.080,0.110
2.461,0.325,0.125
2.464,0.570,0.155
2.467,0.780,0.140
2.469,0.940,0.120
2.472,1.035,0.050
2.475,0.960,-0.020
2.478,0.770,-0.100
2.481,0.460,-0.125
2.483,0.065,-0.140
2.486,-0.415,-0.120
2.489,-0.765,-0.080
2.492,-0.900,-0.065
2.494,-0.865,-0.095
2.497,-0.805,-0.135
2.500,-0.740,-0.180
2.503,-0.660,-0.155
2.506,-0.555,-0.120
2.508,-0.470,-0.080
2.511,-0.430,-0.055
2.514,-0.440,-0.050
2.517,-0.445,-0.035
2.519,-0.450,-0.035
2.522,-0.420,-0.005
2.525,-0.380,0.010
2.528,-0.375,0.010
2.531,-0.390,-0.005
2.533,-0.395,-0.035
2.536,-0.410,-0.025
2.539,-0.420,0.020
2.542,-0.410,0.050
2.544,-0.385,0.050
2.547,-0.370,0.010
2.550,-0.355,-0.030
2.553,-0.385,-0.040
2.556,-0.400,-0.025
2.558,-0.405,-0.005
2.561,-0.380,-0.015
2.564,-0.375,0.010
2.567,-0.355,-0.005
2.569,-0.340,0.000
2.572,-0.335,0.030
2.575,-0.360,0.040
2.578,-0.370,0.045
2.581,-0.365,0.010
2.583,-0.350,-0.025
2.586,-0.340,-0.020
2.589,-0.355,-0.005
2.592,-0.345,0.020
2.594,-0.315,0.020
2.597,-0.295,0.020
2.600,-0.290,0.025
2.603,-0.295,0.025
2.606,-0.295,0.010
2.608,-0.285,0.000
2.611,-0.290,0.015
2.614,-0.290,0.030
2.617,-0.295,0.040
2.619,-0.280,0.060
2.622,-0.255,0.020
2.625,-0.230,-0.025
2.628,-0.185,-0.035
2.631,-0.170,-0.040
2.633,-0.185,-0.020
2.636,-0.230,-0.010
2.639,-0.255,-0.005
2.642,-0.225,0.015
2.644,-0.170,0.030
2.647,-0.150,0.045
2.650,-0.175,0.035
2.653,-0.185,0.035
2.656,-0.175,0.015
2.658,-0.145,0.025
2.661,-0.110,0.020
2.664,-0.090,0.010
2.667,-0.085,0.010
2.669,-0.090,0.030
2.672,-0.055,0.035
2.675,-0.030,0.040
2.678,0.005,0.010
2.681,-0.030,0.000
2.683,-0.070,-0.015
2.686,-0.110,0.010
2.689,-0.105,0.045
2.692,-0.080,0.095
2.694,-0.060,0.080
2.697,-0.065,0.055
2.700,-0.105,0.045
2.703,-0.100,0.050
2.706,-0.045,0.050
2.708,-0.020,0.050
2.711,-0.045,0.035
2.714,-0.080,0.035
2.717,-0.110,0.030
2.719,-0.085,0.010
2.722,-0.085,0.015
2.725,-0.130,0.025
2.728,-0.170,0.045
2.731,-0.185,0.055
2.733,-0.170,0.045
2.736,-0.150,0.030
2.739,-0.145,0.020
2.742,-0.175,-0.005
2.744,-0.225,-0.025
2.747,-0.230,-0.025
2.750,-0.180,-0.005
2.753,-0.180,0.005
2.756,-0.220,0.005
2.758,-0.315,-0.015
2.761,-0.355,-0.015
2.764,-0.350,-0.020
2.767,-0.335,-0.025
2.769,-0.325,-0.010
2.772,-0.290,0.005
2.775,-0.280,0.030
2.778,-0.285,0.015
2.781,-0.310,-0.015
2.783,-0.345,-0.010
2.786,-0.380,0.020
2.789,-0.380,0.045
2.792,-0.360,0.060
2.794,-0.350,0.065
2.797,-0.330,0.075
2.800,-0.330,0.075
2.803,-0.315,0.080
2.806,-0.320,0.070
2.808,-0.335,0.010
2.811,-0.355,-0.040
2.814,-0.365,-0.085
2.817,-0.340,-0.095
2.819,-0.330,-0.065
2.822,-0.305,-0.030
2.825,-0.320,-0.025
2.828,-0.355,-0.035
2.831,-0.390,-0.045
2.833,-0.395,-0.020
2.836,-0.365,0.000
2.839,-0.325,0.030
2.842,-0.315,0.020
2.844,-0.325,0.015
2.847,-0.355,-0.010
2.850,-0.390,-0.015
2.853,-0.395,-0.015
2.856,-0.360,-0.010
2.858,-0.325,-0.025
2.861,-0.320,-0.025
2.864,-0.335,-0.035
2.867,-0.330,-0.020
2.869,-0.315,0.000
2.872,-0.285,0.020
2.875,-0.280,0.015
2.878,-0.300,0.000
2.881,-0.305,-0.005
2.883,-0.300,-0.010
2.886,-0.290,-0.015
2.889,-0.290,0.005
2.892,-0.305,0.015
2.894,-0.315,0.015
2.897,-0.320,0.000
2.900,-0.290,-0.005
2.903,-0.250,0.020
2.906,-0.200,0.050
2.908,-0.190,0.045
2.911,-0.215,0.040
2.914,-0.235,0.045
2.917,-0.250,0.035
2.919,-0.225,0.025
2.922,-0.185,0.020
2.925,-0.170,0.010
2.928,-0.190,-0.020
2.931,-0.245,-0.025
2.933,-0.250,-0.030
2.936,-0.240,-0.015
2.939,-0.240,-0.015
2.942,-0.265,-0.025
2.944,-0.310,-0.015
2.947,-0.335,-0.020
2.950,-0.340,-0.010
2.953,-0.315,-0.010
2.956,-0.310,0.015
2.958,-0.295,0.015
2.961,-0.300,-0.035
2.964,-0.300,-0.085
2.967,-0.290,-0.100
2.969,-0.280,-0.085
2.972,-0.295,-0.040
2.975,-0.325,-0.045
2.978,-0.325,-0.065
2.981,-0.320,-0.055
2.983,-0.300,-0.050
2.986,-0.290,-0.030
2.989,-0.275,-0.015
2.992,-0.275,-0.015
2.994,-0.300,-0.025
2.997,-0.335,-0.035
3.000,-0.375,-0.060
3.003,-0.365,-0.050
3.006,-0.365,-0.040
3.008,-0.360,-0.035
3.011,-0.355,-0.035
3.014,-0.390,-0.040
3.017,-0.405,-0.025
3.019,-0.370,0.005
3.022,-0.305,0.020
3.025,-0.305,0.035
3.028,-0.370,0.040
3.031,-0.435,0.035
3.033,-0.440,0.015
3.036,-0.410,-0.020
3.039,-0.365,-0.030
3.042,-0.355,-0.025
3.044,-0.370,0.000
3.047,-0.390,-0.010
3.050,-0.405,-0.005
3.053,-0.350,-0.040
3.056,-0.310,-0.050
3.058,-0.295,-0.055
3.061,-0.330,-0.040
3.064,-0.380,-0.015
3.067,-0.430,0.020
3.069,-0.400,0.050
3.072,-0.350,0.080
3.075,-0.250,0.090
3.078,-0.140,0.100
3.081,0.000,0.110
3.083,0.195,0.105
3.086,0.440,0.140
3.089,0.705,0.175
3.092,0.945,0.180
3.094,1.105,0.145
3.097,1.110,0.045
3.100,0.895,-0.055
3.103,0.505,-0.105
3.106,0.060,-0.120
3.108,-0.405,-0.135
3.111,-0.795,-0.150
3.114,-0.970,-0.160
3.117,-0.985,-0.140
3.119,-0.935,-0.115
3.122,-0.865,-0.145
3.125,-0.785,-0.175
3.128,-0.700,-0.160
3.131,-0.635,-0.140
3.133,-0.595,-0.120
3.136,-0.545,-0.080
3.139,-0.480,-0.060
3.142,-0.420,-0.045
3.144,-0.420,-0.035
3.147,-0.445,0.000
3.150,-0.450,0.025
3.153,-0.455,0.035
3.156,-0.450,0.000
3.158,-0.445,-0.025
3.161,-0.455,-0.040
3.164,-0.450,-0.045
3.167,-0.435,-0.040
3.169,-0.415,-0.005
3.172,-0.410,0.030
3.175,-0.385,0.045
3.178,-0.370,0.025
3.181,-0.360,-0.025
3.183,-0.375,-0.065
3.186,-0.390,-0.080
3.189,-0.370,-0.070
3.192,-0.360,-0.075
3.194,-0.345,-0.060
3.197,-0.340,-0.055
3.200,-0.335,-0.045
3.203,-0.355,-0.020
3.206,-0.380,0.010
3.208,-0.405,0.015
3.211,-0.420,0.005
3.214,-0.395,-0.005
3.217,-0.380,0.000
3.219,-0.360,0.005
3.222,-0.360,-0.005
3.225,-0.355,0.010
3.228,-0.370,0.015
3.231,-0.355,0.010
3.233,-0.360,-0.020
3.236,-0.355,-0.055
3.239,-0.370,-0.055
3.242,-0.330,-0.010
3.244,-0.290,-0.015
3.247,-0.285,-0.025
3.250,-0.280,-0.005
3.253,-0.290,0.025
3.256,-0.290,0.050
3.258,-0.270,0.045
3.261,-0.240,0.005
3.264,-0.195,-0.015
3.267,-0.180,-0.015
3.269,-0.195,0.005
3.272,-0.230,0.010
3.275,-0.235,0.005
3.278,-0.200,0.015
3.281,-0.175,-0.010
3.283,-0.150,-0.020
3.286,-0.135,-0.010
3.289,-0.125,0.010
3.292,-0.140,0.020
3.294,-0.160,0.010
3.297,-0.170,-0.005
3.300,-0.180,0.000
3.303,-0.165,-0.005
3.306,-0.135,0.005
3.308,-0.100,0.000
3.311,-0.105,-0.020
3.314,-0.110,-0.025
3.317,-0.090,-0.005
3.319,-0.085,0.020
3.322,-0.070,0.045
3.325,-0.050,0.055
3.328,-0.025,0.040
3.331,-0.020,0.035
3.333,-0.030,0.025
3.336,-0.070,0.025
3.339,-0.085,0.035
3.342,-0.105,0.040
3.344,-0.115,0.040
3.347,-0.135,0.030
3.350,-0.145,0.040
3.353,-0.155,0.025
3.356,-0.165,0.030
3.358,-0.205,0.010
3.361,-0.250,0.000
3.364,-0.280,-0.010
3.367,-0.270,-0.005
3.369,-0.265,-0.010
3.372,-0.270,0.000
3.375,-0.310,0.010
3.378,-0.325,0.005
3.381,-0.330,0.010
3.383,-0.325,-0.005
3.386,-0.320,0.005
3.389,-0.330,0.020
3.392,-0.335,0.050
3.394,-0.335,0.050
3.397,-0.375,0.050
3.400,-0.365,0.075
3.403,-0.355,0.090
3.406,-0.340,0.090
3.408,-0.310,0.055
3.411,-0.300,0.025
3.414,-0.330,0.020
3.417,-0.345,0.040
3.419,-0.340,0.040
3.422,-0.330,0.025
3.425,-0.300,0.000
3.428,-0.275,-0.010
3.431,-0.300,-0.020
3.433,-0.325,-0.050
3.436,-0.335,-0.065
3.439,-0.315,-0.060
3.442,-0.285,-0.040
3.444,-0.270,-0.040
3.447,-0.285,-0.025
3.450,-0.300,-0.025
3.453,-0.295,0.000
3.456,-0.285,0.010
3.458,-0.280,0.000
3.461,-0.275,-0.005
3.464,-0.295,-0.010
3.467,-0.295,-0.010
3.469,-0.305,0.005
3.472,-0.290,0.030
3.475,-0.285,0.020
3.478,-0.285,0.020
3.481,-0.280,-0.005
3.483,-0.280,0.000
3.486,-0.295,0.015
3.489,-0.305,0.040
3.492,-0.300,0.040
3.494,-0.290,0.020
3.497,-0.290,0.020
3.500,-0.315,0.030
3.503,-0.295,0.025
3.506,-0.270,0.050
3.508,-0.250,0.060
3.511,-0.255,0.045
3.514,-0.270,0.030
3.517,-0.270,0.045
3.519,-0.260,0.070
3.522,-0.225,0.115
3.525,-0.215,0.125
3.528,-0.205,0.140
3.531,-0.190,0.110
3.533,-0.195,0.080
3.536,-0.205,0.045
3.539,-0.185,0.010
3.542,-0.170,-0.005
3.544,-0.165,-0.010
3.547,-0.170,-0.010
3.550,-0.185,-0.025
3.553,-0.185,-0.030
3.556,-0.180,-0.025
3.558,-0.165,0.005
3.561,-0.190,0.020
3.564,-0.205,0.025
3.567,-0.200,0.030
3.569,-0.200,0.005
3.572,-0.195,-0.015
3.575,-0.205,-0.020
3.578,-0.245,-0.030
3.581,-0.250,-0.035
3.583,-0.260,-0.030
3.586,-0.250,-0.020
3.589,-0.245,0.015
3.592,-0.235,0.020
3.594,-0.235,0.010
3.597,-0.230,-0.015
3.600,-0.245,-0.020
3.603,-0.230,-0.005
3.606,-0.220,0.030
3.608,-0.205,0.030
3.611,-0.210,0.015
3.614,-0.245,-0.010
3.617,-0.270,-0.005
3.619,-0.300,0.015
3.622,-0.300,0.055
3.625,-0.300,0.050
3.628,-0.305,0.035
3.631,-0.305,0.025
3.633,-0.300,0.025
3.636,-0.305,0.075
3.639,-0.285,0.095
3.642,-0.280,0.065
3.644,-0.265,0.030
3.647,-0.280,-0.010
3.650,-0.280,-0.030
3.653,-0.270,-0.025
3.656,-0.260,0.000
3.658,-0.265,0.010
3.661,-0.275,0.020
3.664,-0.280,0.020
3.667,-0.290,0.020
3.669,-0.280,0.025
3.672,-0.270,0.030
3.675,-0.255,0.025
3.678,-0.270,0.005
3.681,-0.295,0.010
3.683,-0.335,0.035
3.686,-0.350,0.085
3.689,-0.335,0.130
3.692,-0.270,0.170
3.694,-0.170,0.160
3.697,-0.025,0.115
3.700,0.165,0.105
3.703,0.415,0.130
3.706,0.695,0.195
3.708,0.965,0.210
3.711,1.145,0.185
3.714,1.175,0.100
3.717,1.005,0.010
3.719,0.685,-0.075
3.722,0.255,-0.105
3.725,-0.225,-0.100
3.728,-0.670,-0.105
3.731,-0.860,-0.100
3.733,-0.845,-0.105
3.736,-0.780,-0.115
3.739,-0.695,-0.135
3.742,-0.600,-0.130
3.744,-0.500,-0.095
3.747,-0.440,-0.070
3.750,-0.405,-0.045
3.753,-0.375,-0.015
3.756,-0.360,0.025
3.758,-0.320,0.055
3.761,-0.305,0.055
3.764,-0.310,0.050
3.767,-0.325,0.050
3.769,-0.310,0.035
3.772,-0.295,0.005
3.775,-0.290,0.010
3.778,-0.295,0.025
3.781,-0.310,0.050
3.783,-0.305,0.045
3.786,-0.300,0.005
3.789,-0.295,0.000
3.792,-0.275,-0.005
3.794,-0.260,-0.005
3.797,-0.255,-0.005
3.800,-0.250,0.000
3.803,-0.250,0.030
3.806,-0.240,0.060
3.808,-0.220,0.070
3.811,-0.235,0.060
3.814,-0.240,0.055
3.817,-0.245,0.035
3.819,-0.240,0.045
3.822,-0.205,0.075
3.825,-0.195,0.070
3.828,-0.190,0.060
3.831,-0.195,0.060
3.833,-0.195,0.035
3.836,-0.190,0.010
3.839,-0.170,0.035
3.842,-0.170,0.045
3.844,-0.155,0.070
3.847,-0.170,0.070
3.850,-0.160,0.070
3.853,-0.140,0.070
3.856,-0.115,0.080
3.858,-0.100,0.060
3.861,-0.100,0.070
3.864,-0.085,0.070
3.867,-0.080,0.065
3.869,-0.060,0.060
3.872,-0.030,0.045
3.875,-0.010,0.050
3.878,-0.010,0.035
3.881,-0.025,0.040
3.883,-0.040,0.060
3.886,-0.025,0.080
3.889,0.010,0.095
3.892,0.040,0.090
3.894,0.060,0.075
3.897,0.060,0.060
3.900,0.055,0.080
3.903,0.055,0.095
3.906,0.065,0.090
3.908,0.070,0.090
3.911,0.080,0.085
3.914,0.075,0.075
3.917,0.075,0.080
3.919,0.090,0.105
3.922,0.110,0.130
3.925,0.115,0.115
3.928,0.120,0.130
3.931,0.110,0.130
3.933,0.095,0.105
3.936,0.080,0.075
3.939,0.070,0.070
3.942,0.055,0.090
3.944,0.055,0.090
3.947,0.055,0.085
3.950,0.045,0.075
3.953,0.045,0.080
3.956,0.040,0.085
3.958,0.025,0.080
3.961,-0.005,0.075
3.964,-0.035,0.055
3.967,-0.050,0.065
3.969,-0.070,0.070
3.972,-0.080,0.095
3.975,-0.095,0.100
3.978,-0.115,0.100
3.981,-0.135,0.090
3.983,-0.145,0.085
3.986,-0.135,0.100
3.989,-0.120,0.120
3.992,-0.125,0.115
3.994,-0.120,0.100
3.997,-0.155,0.075
4.000,-0.145,0.065
4.003,-0.160,0.095
4.006,-0.160,0.115
4.008,-0.155,0.125
4.011,-0.165,0.115
4.014,-0.170,0.105
4.017,-0.170,0.110
4.019,-0.180,0.145
4.022,-0.165,0.155
4.025,-0.140,0.160
4.028,-0.135,0.090
4.031,-0.120,0.020
4.033,-0.135,0.005
4.036,-0.135,0.020
4.039,-0.130,0.055
4.042,-0.110,0.070
4.044,-0.120,0.055
4.047,-0.135,0.050
4.050,-0.160,0.065
4.053,-0.160,0.075
4.056,-0.155,0.085
4.058,-0.150,0.085
4.061,-0.140,0.090
4.064,-0.145,0.090
4.067,-0.155,0.115
4.069,-0.155,0.125
4.072,-0.145,0.150
4.075,-0.135,0.120
4.078,-0.135,0.120
4.081,-0.130,0.090
4.083,-0.125,0.075
4.086,-0.135,0.095
4.089,-0.120,0.135
4.092,-0.105,0.135
4.094,-0.110,0.085
4.097,-0.130,0.055
4.100,-0.145,0.075
4.103,-0.150,0.085
4.106,-0.125,0.125
4.108,-0.110,0.140
4.111,-0.115,0.150
4.114,-0.125,0.150
4.117,-0.120,0.145
4.119,-0.110,0.125
4.122,-0.105,0.090
4.125,-0.095,0.095
4.128,-0.080,0.115
4.131,-0.075,0.125
4.133,-0.060,0.120
4.136,-0.065,0.120
4.139,-0.045,0.130
4.142,-0.030,0.145
4.144,-0.045,0.145
4.147,-0.035,0.130
4.150,-0.055,0.110
4.153,-0.060,0.080
4.156,-0.065,0.060
4.158,-0.070,0.050
4.161,-0.080,0.050
4.164,-0.070,0.045
4.167,-0.100,0.060
4.169,-0.095,0.060
4.172,-0.090,0.095
4.175,-0.085,0.085
4.178,-0.085,0.095
4.181,-0.100,0.090
4.183,-0.120,0.080
4.186,-0.130,0.105
4.189,-0.120,0.105
4.192,-0.105,0.095
4.194,-0.115,0.080
4.197,-0.120,0.075
4.200,-0.130,0.090
4.203,-0.140,0.100
4.206,-0.125,0.115
4.208,-0.095,0.120
4.211,-0.095,0.115
4.214,-0.105,0.090
4.217,-0.120,0.060
4.219,-0.145,0.085
4.222,-0.150,0.080
4.225,-0.155,0.100
4.228,-0.165,0.100
4.231,-0.180,0.105
4.233,-0.200,0.105
4.236,-0.190,0.110
4.239,-0.180,0.125
4.242,-0.180,0.125
4.244,-0.175,0.135
4.247,-0.185,0.125
4.250,-0.190,0.105
4.253,-0.190,0.135
4.256,-0.185,0.140
4.258,-0.180,0.145
4.261,-0.175,0.140
4.264,-0.190,0.120
4.267,-0.205,0.110
4.269,-0.200,0.110
4.272,-0.190,0.135
4.275,-0.180,0.155
4.278,-0.185,0.140
4.281,-0.205,0.105
4.283,-0.225,0.095
4.286,-0.260,0.140
4.289,-0.245,0.205
4.292,-0.215,0.235
4.294,-0.155,0.250
4.297,-0.050,0.235
4.300,0.095,0.230
4.303,0.295,0.245
4.306,0.560,0.285
4.308,0.830,0.285
4.311,1.090,0.255
4.314,1.255,0.195
4.317,1.300,0.080
4.319,1.150,-0.030
4.322,0.830,-0.085
4.325,0.410,-0.080
4.328,-0.105,-0.065
4.331,-0.590,-0.060
4.333,-0.830,-0.070
4.336,-0.825,-0.075
4.339,-0.710,-0.055
4.342,-0.600,-0.050
4.344,-0.495,-0.045
4.347,-0.410,-0.020
4.350,-0.335,0.010
4.353,-0.280,0.055
4.356,-0.235,0.080
4.358,-0.215,0.090
4.361,-0.215,0.095
4.364,-0.220,0.100
4.367,-0.230,0.115
4.369,-0.220,0.130
4.372,-0.205,0.135
4.375,-0.180,0.140
4.378,-0.200,0.150
4.381,-0.210,0.160
4.383,-0.235,0.170
4.386,-0.220,0.155
4.389,-0.205,0.145
4.392,-0.205,0.125
4.394,-0.195,0.120
4.397,-0.185,0.080
4.400,-0.190,0.075
4.403,-0.190,0.075
4.406,-0.170,0.110
4.408,-0.155,0.115
4.411,-0.160,0.105
4.414,-0.160,0.080
4.417,-0.160,0.090
4.419,-0.175,0.105
4.422,-0.155,0.115
4.425,-0.150,0.135
4.428,-0.155,0.140
4.431,-0.150,0.115
4.433,-0.160,0.105
4.436,-0.150,0.120
4.439,-0.145,0.135
4.442,-0.105,0.135
4.444,-0.115,0.130
4.447,-0.120,0.120
4.450,-0.105,0.140
4.453,-0.085,0.140
4.456,-0.060,0.135
4.458,-0.055,0.170
4.461,-0.045,0.180
4.464,-0.045,0.175
4.467,-0.035,0.160
4.469,-0.015,0.135
4.472,0.005,0.150
4.475,0.030,0.155
4.478,0.025,0.145
4.481,0.025,0.135
4.483,0.010,0.115
4.486,0.045,0.160
4.489,0.075,0.180
4.492,0.090,0.160
4.494,0.105,0.140
4.497,0.085,0.120
4.500,0.095,0.130
4.503,0.110,0.135
4.506,0.120,0.150
4.508,0.145,0.150
4.511,0.130,0.150
4.514,0.140,0.140
4.517,0.145,0.155
4.519,0.135,0.175
4.522,0.155,0.190
4.525,0.170,0.195
4.528,0.165,0.210
4.531,0.145,0.215
4.533,0.130,0.220
4.536,0.135,0.220
4.539,0.155,0.210
4.542,0.155,0.190
4.544,0.155,0.200
4.547,0.150,0.215
4.550,0.140,0.225
4.553,0.150,0.180
4.556,0.160,0.135
4.558,0.165,0.090
4.561,0.145,0.085
4.564,0.110,0.100
4.567,0.090,0.115
4.569,0.075,0.140
4.572,0.065,0.150
4.575,0.065,0.160
4.578,0.045,0.150
4.581,0.020,0.145
4.583,-0.015,0.145
4.586,-0.040,0.140
4.589,-0.035,0.145
4.592,-0.025,0.135
4.594,-0.040,0.145
4.597,-0.065,0.140
4.600,-0.095,0.125
4.603,-0.090,0.135
4.606,-0.055,0.140
4.608,-0.050,0.160
4.611,-0.070,0.145
4.614,-0.080,0.135
4.617,-0.080,0.135
4.619,-0.080,0.170
4.622,-0.080,0.190
4.625,-0.065,0.195
4.628,-0.060,0.175
4.631,-0.070,0.135
4.633,-0.090,0.115
4.636,-0.085,0.105
4.639,-0.080,0.110
4.642,-0.065,0.110
4.644,-0.070,0.115
4.647,-0.080,0.135
4.650,-0.090,0.130
4.653,-0.100,0.140
4.656,-0.100,0.155
4.658,-0.085,0.130
4.661,-0.090,0.115
4.664,-0.085,0.100
4.667,-0.105,0.100
4.669,-0.110,0.130
4.672,-0.085,0.155
4.675,-0.070,0.155
4.678,-0.075,0.150
4.681,-0.090,0.155
4.683,-0.100,0.155
4.686,-0.090,0.160
4.689,-0.080,0.145
4.692,-0.065,0.135
4.694,-0.080,0.135
4.697,-0.075,0.140
4.700,-0.085,0.160
4.703,-0.085,0.170
4.706,-0.070,0.175
4.708,-0.070,0.160
4.711,-0.090,0.145
4.714,-0.095,0.160
4.717,-0.090,0.180
4.719,-0.080,0.180
4.722,-0.065,0.170
4.725,-0.055,0.145
4.728,-0.080,0.110
4.731,-0.080,0.125
4.733,-0.085,0.125
4.736,-0.065,0.135
4.739,-0.045,0.135
4.742,-0.035,0.135
4.744,-0.030,0.150
4.747,-0.025,0.170
4.750,-0.030,0.170
4.753,-0.015,0.170
4.756,0.000,0.165
4.758,0.015,0.185
4.761,0.010,0.165
4.764,0.015,0.140
4.767,0.020,0.115
4.769,-0.005,0.115
4.772,-0.015,0.130
4.775,-0.015,0.125
4.778,-0.025,0.120
4.781,-0.040,0.100
4.783,-0.055,0.105
4.786,-0.025,0.105
4.789,-0.015,0.120
4.792,-0.030,0.125
4.794,-0.035,0.125
4.797,-0.050,0.125
4.800,-0.045,0.110
4.803,-0.070,0.120
4.806,-0.075,0.115
4.808,-0.055,0.135
4.811,-0.065,0.150
4.814,-0.080,0.125
4.817,-0.090,0.110
4.819,-0.100,0.135
4.822,-0.055,0.160
4.825,-0.045,0.175
4.828,-0.055,0.120
4.831,-0.060,0.095
4.833,-0.065,0.075
4.836,-0.075,0.080
4.839,-0.070,0.085
4.842,-0.095,0.070
4.844,-0.110,0.075
4.847,-0.150,0.080
4.850,-0.155,0.100
4.853,-0.155,0.125
4.856,-0.130,0.145
4.858,-0.125,0.125
4.861,-0.125,0.135
4.864,-0.130,0.145
4.867,-0.135,0.130
4.869,-0.145,0.160
4.872,-0.130,0.160
4.875,-0.105,0.165
4.878,-0.110,0.140
4.881,-0.135,0.130
4.883,-0.145,0.155
4.886,-0.135,0.200
4.889,-0.115,0.185
4.892,-0.100,0.150
4.894,-0.120,0.125
4.897,-0.155,0.115
4.900,-0.185,0.135
4.903,-0.215,0.185
4.906,-0.195,0.240
4.908,-0.155,0.250
4.911,-0.065,0.255
4.914,0.075,0.275
4.917,0.260,0.310
4.919,0.535,0.345
4.922,0.855,0.350
4.925,1.165,0.285
4.928,1.395,0.165
4.931,1.370,0.020
4.933,1.045,-0.060
4.936,0.510,-0.080
4.939,-0.110,-0.050
4.942,-0.595,-0.055
4.944,-0.765,-0.085
4.947,-0.665,-0.085
4.950,-0.475,-0.075
4.953,-0.325,-0.035
4.956,-0.245,0.015
4.958,-0.200,0.065
4.961,-0.170,0.085
4.964,-0.170,0.090
4.967,-0.165,0.125
4.969,-0.170,0.145
4.972,-0.170,0.160
4.975,-0.155,0.130
4.978,-0.150,0.130
4.981,-0.160,0.140
4.983,-0.165,0.125
4.986,-0.160,0.130
4.989,-0.155,0.145
4.992,-0.125,0.155
4.994,-0.120,0.150
4.997,-0.125,0.120
5.000,-0.150,0.145
5.003,-0.165,0.160
5.006,-0.135,0.165
5.008,-0.125,0.140
5.011,-0.115,0.100
5.014,-0.125,0.085
5.017,-0.135,0.095
5.019,-0.140,0.120
5.022,-0.125,0.140
5.025,-0.120,0.140
5.028,-0.125,0.125
5.031,-0.130,0.110
5.033,-0.130,0.130
5.036,-0.120,0.145
5.039,-0.110,0.165
5.042,-0.080,0.165
5.044,-0.080,0.160
5.047,-0.080,0.150
5.050,-0.075,0.155
5.053,-0.065,0.150
5.056,-0.065,0.155
5.058,-0.040,0.150
5.061,-0.040,0.165
5.064,-0.040,0.150
5.067,-0.040,0.140
5.069,-0.030,0.175
5.072,0.005,0.205
5.075,0.035,0.220
5.078,0.035,0.200
5.081,0.050,0.160
5.083,0.045,0.155
5.086,0.065,0.155
5.089,0.095,0.145
5.092,0.105,0.150
5.094,0.105,0.160
5.097,0.105,0.155
5.100,0.105,0.160
5.103,0.115,0.160
5.106,0.145,0.160
5.108,0.155,0.165
5.111,0.160,0.160
5.114,0.155,0.155
5.117,0.140,0.155
5.119,0.140,0.185
5.122,0.150,0.215
5.125,0.180,0.210
5.128,0.185,0.190
5.131,0.180,0.160
5.133,0.160,0.170
5.136,0.165,0.175
5.139,0.185,0.205
5.142,0.200,0.220
5.144,0.195,0.195
5.147,0.190,0.185
5.150,0.180,0.175
5.153,0.165,0.190
5.156,0.160,0.200
5.158,0.160,0.185
5.161,0.155,0.150
5.164,0.125,0.130
5.167,0.115,0.125
5.169,0.110,0.165
5.172,0.115,0.165
5.175,0.105,0.165
5.178,0.070,0.160
5.181,0.040,0.165
5.183,0.025,0.165
5.186,0.005,0.175
5.189,0.000,0.175
5.192,-0.005,0.165
5.194,-0.010,0.155
5.197,-0.050,0.145
5.200,-0.050,0.140
5.203,-0.055,0.150
5.206,-0.050,0.155
5.208,-0.060,0.165
5.211,-0.065,0.170
5.214,-0.090,0.145
5.217,-0.090,0.135
5.219,-0.080,0.140
5.222,-0.065,0.150
5.225,-0.070,0.150
5.228,-0.065,0.155
5.231,-0.090,0.145
5.233,-0.105,0.145
5.236,-0.115,0.165
5.239,-0.100,0.180
5.242,-0.090,0.170
5.244,-0.095,0.150
5.247,-0.110,0.120
5.250,-0.115,0.120
5.253,-0.115,0.130
5.256,-0.105,0.125
5.258,-0.095,0.130
5.261,-0.090,0.125
5.264,-0.095,0.110
5.267,-0.105,0.105
5.269,-0.110,0.100
5.272,-0.105,0.125
5.275,-0.100,0.130
5.278,-0.100,0.135
5.281,-0.110,0.125
5.283,-0.125,0.115
5.286,-0.125,0.115
5.289,-0.125,0.125
5.292,-0.105,0.130
5.294,-0.110,0.145
5.297,-0.130,0.145
5.300,-0.145,0.135
5.303,-0.135,0.135
5.306,-0.130,0.140
5.308,-0.120,0.165
5.311,-0.125,0.160
5.314,-0.140,0.175
5.317,-0.140,0.185
5.319,-0.125,0.205
5.322,-0.100,0.180
5.325,-0.100,0.155
5.328,-0.115,0.140
5.331,-0.115,0.155
5.333,-0.110,0.135
5.336,-0.110,0.120
5.339,-0.100,0.120
5.342,-0.080,0.110
5.344,-0.085,0.120
5.347,-0.090,0.110
5.350,-0.085,0.105
5.353,-0.075,0.125
5.356,-0.060,0.140
5.358,-0.050,0.160
5.361,-0.040,0.165
5.364,-0.050,0.165
5.367,-0.065,0.145
5.369,-0.050,0.140
5.372,-0.030,0.140
5.375,-0.015,0.140
5.378,-0.015,0.140
5.381,-0.040,0.135
5.383,-0.045,0.120
5.386,-0.045,0.115
5.389,-0.050,0.125
5.392,-0.040,0.130
5.394,-0.060,0.115
5.397,-0.055,0.105
5.400,-0.070,0.100
5.403,-0.070,0.100
5.406,-0.055,0.095
5.408,-0.055,0.075
5.411,-0.060,0.070
5.414,-0.090,0.060
5.417,-0.110,0.060
5.419,-0.115,0.070
5.422,-0.115,0.105
5.425,-0.105,0.125
5.428,-0.095,0.135
5.431,-0.110,0.125
5.433,-0.115,0.110
5.436,-0.095,0.085
5.439,-0.065,0.080
5.442,-0.060,0.065
5.444,-0.075,0.065
5.447,-0.100,0.080
5.450,-0.115,0.075
5.453,-0.145,0.100
5.456,-0.155,0.115
5.458,-0.160,0.120
5.461,-0.165,0.120
5.464,-0.190,0.100
5.467,-0.200,0.125
5.469,-0.185,0.140
5.472,-0.185,0.170
5.475,-0.160,0.180
5.478,-0.170,0.145
5.481,-0.175,0.110
5.483,-0.175,0.110
5.486,-0.200,0.115
5.489,-0.170,0.135
5.492,-0.165,0.130
5.494,-0.170,0.125
5.497,-0.170,0.105
5.500,-0.180,0.100
5.503,-0.190,0.120
5.506,-0.165,0.145
5.508,-0.160,0.145
5.511,-0.180,0.130
5.514,-0.195,0.125
5.517,-0.205,0.115
5.519,-0.220,0.120
5.522,-0.255,0.135
5.525,-0.280,0.180
5.528,-0.270,0.215
5.531,-0.245,0.215
5.533,-0.185,0.225
5.536,-0.060,0.245
5.539,0.120,0.280
5.542,0.345,0.295
5.544,0.580,0.315
5.547,0.830,0.300
5.550,1.075,0.250
5.553,1.235,0.195
5.556,1.285,0.105
5.558,1.150,0.010
5.561,0.880,-0.075
5.564,0.515,-0.105
5.567,0.120,-0.100
5.569,-0.320,-0.090
5.572,-0.680,-0.100
5.575,-0.810,-0.110
5.578,-0.760,-0.110
5.581,-0.655,-0.105
5.583,-0.565,-0.095
5.586,-0.485,-0.045
5.589,-0.395,0.025
5.592,-0.325,0.050
5.594,-0.285,0.060
5.597,-0.265,0.055
5.600,-0.240,0.085
5.603,-0.215,0.115
5.606,-0.200,0.150
5.608,-0.215,0.150
5.611,-0.225,0.140
5.614,-0.235,0.115
5.617,-0.235,0.125
5.619,-0.245,0.120
5.622,-0.240,0.145
5.625,-0.215,0.125
5.628,-0.215,0.100
5.631,-0.225,0.060
5.633,-0.225,0.060
5.636,-0.230,0.090
5.639,-0.215,0.115
5.642,-0.195,0.130
5.644,-0.210,0.115
5.647,-0.210,0.100
5.650,-0.210,0.100
5.653,-0.215,0.110
5.656,-0.200,0.135
5.658,-0.180,0.140
5.661,-0.190,0.125
5.664,-0.200,0.110
5.667,-0.205,0.110
5.669,-0.210,0.120
5.672,-0.190,0.125
5.675,-0.165,0.130
5.678,-0.160,0.110
5.681,-0.175,0.110
5.683,-0.190,0.115
5.686,-0.165,0.130
5.689,-0.145,0.130
5.692,-0.130,0.160
5.694,-0.125,0.135
5.697,-0.145,0.110
5.700,-0.150,0.100
5.703,-0.140,0.125
5.706,-0.120,0.135
5.708,-0.100,0.150
5.711,-0.100,0.140
5.714,-0.100,0.130
5.717,-0.105,0.150
5.719,-0.100,0.175
5.722,-0.080,0.215
5.725,-0.060,0.245
5.728,-0.050,0.225
5.731,-0.050,0.190
5.733,-0.030,0.180
5.736,-0.015,0.170
5.739,0.005,0.170
5.742,-0.010,0.170
5.744,0.020,0.170
5.747,0.020,0.155
5.750,0.025,0.165
5.753,0.045,0.165
5.756,0.075,0.160
5.758,0.090,0.150
5.761,0.100,0.135
5.764,0.095,0.120
5.767,0.090,0.130
5.769,0.095,0.145
5.772,0.110,0.160
5.775,0.115,0.165
5.778,0.115,0.150
5.781,0.115,0.145
5.783,0.100,0.170
5.786,0.115,0.165
5.789,0.125,0.170
5.792,0.145,0.155
5.794,0.125,0.150
5.797,0.115,0.135
5.800,0.105,0.145
5.803,0.095,0.160
5.806,0.100,0.175
5.808,0.110,0.185
5.811,0.100,0.180
5.814,0.090,0.170
5.817,0.075,0.185
5.819,0.065,0.205
5.822,0.045,0.210
5.825,0.045,0.215
5.828,0.025,0.195
5.831,0.010,0.165
5.833,-0.020,0.145
5.836,-0.030,0.155
5.839,-0.040,0.155
5.842,-0.050,0.180
5.844,-0.070,0.180
5.847,-0.085,0.175
5.850,-0.090,0.155
5.853,-0.095,0.135
5.856,-0.100,0.120
5.858,-0.090,0.115
5.861,-0.130,0.120
5.864,-0.150,0.120
5.867,-0.140,0.115
5.869,-0.140,0.130
5.872,-0.125,0.135
5.875,-0.135,0.135
5.878,-0.155,0.115
5.881,-0.155,0.105
5.883,-0.165,0.115
5.886,-0.160,0.130
5.889,-0.160,0.165
5.892,-0.150,0.175
5.894,-0.170,0.155
5.897,-0.165,0.150
5.900,-0.180,0.145
5.903,-0.175,0.170
5.906,-0.175,0.170
5.908,-0.135,0.140
5.911,-0.140,0.100
5.914,-0.165,0.080
5.917,-0.175,0.085
5.919,-0.185,0.105
5.922,-0.160,0.110
5.925,-0.165,0.120
5.928,-0.155,0.140
5.931,-0.175,0.130
5.933,-0.200,0.135
5.936,-0.190,0.140
5.939,-0.175,0.155
5.942,-0.160,0.155
5.944,-0.155,0.130
5.947,-0.155,0.105
5.950,-0.165,0.105
5.953,-0.165,0.095
5.956,-0.160,0.120
5.958,-0.160,0.125
5.961,-0.150,0.125
5.964,-0.170,0.110
5.967,-0.170,0.100
5.969,-0.165,0.115
5.972,-0.170,0.125
5.975,-0.170,0.130
5.978,-0.165,0.110
5.981,-0.175,0.105
5.983,-0.165,0.110
5.986,-0.160,0.125
5.989,-0.150,0.130
5.992,-0.140,0.120
5.994,-0.130,0.100
5.997,-0.145,0.095
6.000,-0.165,0.100
6.003,-0.155,0.115
6.006,-0.135,0.120
6.008,-0.140,0.115
6.011,-0.130,0.110
6.014,-0.135,0.110
6.017,-0.130,0.120
6.019,-0.120,0.130
6.022,-0.105,0.135
6.025,-0.115,0.160
6.028,-0.115,0.165
6.031,-0.120,0.165
6.033,-0.115,0.165
6.036,-0.100,0.175
6.039,-0.090,0.180
6.042,-0.085,0.160
6.044,-0.100,0.120
6.047,-0.115,0.085
6.050,-0.120,0.075
6.053,-0.120,0.080
6.056,-0.100,0.115
6.058,-0.100,0.145
6.061,-0.110,0.135
6.064,-0.130,0.130
6.067,-0.135,0.125
6.069,-0.135,0.070
6.072,-0.120,0.035
6.075,-0.120,0.025
6.078,-0.140,0.020
6.081,-0.155,0.000
6.083,-0.165,0.010
6.086,-0.170,0.025
6.089,-0.155,0.040
6.092,-0.155,0.060
6.094,-0.160,0.065
6.097,-0.155,0.045
6.100,-0.155,0.055
6.103,-0.160,0.080
6.106,-0.150,0.095
6.108,-0.160,0.095
6.111,-0.185,0.085
6.114,-0.220,0.085
6.117,-0.240,0.080
6.119,-0.240,0.100
6.122,-0.235,0.105
6.125,-0.225,0.120
6.128,-0.230,0.125
6.131,-0.235,0.120
6.133,-0.245,0.120
6.136,-0.245,0.130
6.139,-0.220,0.160
6.142,-0.210,0.150
6.144,-0.215,0.135
6.147,-0.230,0.100
6.150,-0.255,0.100
6.153,-0.250,0.135
6.156,-0.255,0.175
6.158,-0.235,0.180
6.161,-0.230,0.150
6.164,-0.255,0.120
6.167,-0.240,0.105
6.169,-0.235,0.100
6.172,-0.230,0.100
6.175,-0.240,0.090
6.178,-0.255,0.105
6.181,-0.285,0.125
6.183,-0.320,0.170
6.186,-0.325,0.225
6.189,-0.285,0.260
6.192,-0.200,0.275
6.194,-0.105,0.260
6.197,0.025,0.220
6.200,0.195,0.205
6.203,0.445,0.205
6.206,0.710,0.245
6.208,0.970,0.240
6.211,1.145,0.185
6.214,1.215,0.110
6.217,1.095,0.005
6.219,0.815,-0.090
6.222,0.450,-0.110
6.225,0.045,-0.105
6.228,-0.400,-0.115
6.231,-0.765,-0.130
6.233,-0.900,-0.145
6.236,-0.835,-0.120
6.239,-0.720,-0.105
6.242,-0.615,-0.065
6.244,-0.515,-0.055
6.247,-0.420,-0.045
6.250,-0.375,-0.025
6.253,-0.350,0.015
6.256,-0.310,0.060
6.258,-0.295,0.090
6.261,-0.270,0.095
6.264,-0.280,0.115
6.267,-0.290,0.130
6.269,-0.295,0.140
6.272,-0.265,0.135
6.275,-0.250,0.105
6.278,-0.250,0.090
6.281,-0.250,0.075
6.283,-0.260,0.080
6.286,-0.260,0.120
6.289,-0.245,0.140
6.292,-0.245,0.135
6.294,-0.260,0.130
6.297,-0.250,0.105
6.300,-0.265,0.100
6.303,-0.255,0.100
6.306,-0.255,0.095
6.308,-0.250,0.105
6.311,-0.255,0.115
6.314,-0.245,0.115
6.317,-0.225,0.115
6.319,-0.210,0.115
6.322,-0.215,0.115
6.325,-0.195,0.110
6.328,-0.200,0.115
6.331,-0.200,0.105
6.333,-0.200,0.105
6.336,-0.200,0.120
6.339,-0.190,0.135
6.342,-0.185,0.130
6.344,-0.195,0.145
6.347,-0.190,0.165
6.350,-0.185,0.185
6.353,-0.165,0.175
6.356,-0.165,0.210
6.358,-0.155,0.180
6.361,-0.135,0.155
6.364,-0.125,0.125
6.367,-0.115,0.110
6.369,-0.095,0.100
6.372,-0.080,0.120
6.375,-0.070,0.125
6.378,-0.065,0.125
6.381,-0.065,0.120
6.383,-0.075,0.135
6.386,-0.060,0.165
6.389,-0.030,0.180
6.392,-0.020,0.200
6.394,-0.015,0.210
6.397,-0.005,0.185
6.400,0.000,0.160
6.403,0.015,0.165
6.406,0.025,0.155
6.408,0.040,0.175
6.411,0.040,0.185
6.414,0.045,0.185
6.417,0.055,0.175
6.419,0.065,0.160
6.422,0.075,0.140
6.425,0.095,0.130
6.428,0.085,0.135
6.431,0.075,0.125
6.433,0.060,0.155
6.436,0.070,0.170
6.439,0.090,0.195
6.442,0.090,0.165
6.444,0.100,0.155
6.447,0.080,0.150
6.450,0.065,0.160
6.453,0.075,0.180
6.456,0.075,0.190
6.458,0.095,0.180
6.461,0.055,0.155
6.464,0.040,0.145
6.467,0.045,0.150
6.469,0.040,0.160
6.472,0.045,0.175
6.475,0.035,0.170
6.478,0.010,0.160
6.481,-0.015,0.140
6.483,-0.030,0.150
6.486,-0.040,0.155
6.489,-0.040,0.160
6.492,-0.040,0.150
6.494,-0.065,0.135
6.497,-0.100,0.120
6.500,-0.120,0.115
6.503,-0.110,0.120
6.506,-0.115,0.120
6.508,-0.135,0.110
6.511,-0.135,0.105
6.514,-0.155,0.095
6.517,-0.170,0.125
6.519,-0.180,0.145
6.522,-0.160,0.155
6.525,-0.170,0.135
6.528,-0.180,0.135
6.531,-0.185,0.125
6.533,-0.205,0.135
6.536,-0.195,0.135
6.539,-0.175,0.160
6.542,-0.175,0.150
6.544,-0.170,0.155
6.547,-0.190,0.130
6.550,-0.190,0.145
6.553,-0.200,0.165
6.556,-0.190,0.170
6.558,-0.180,0.140
6.561,-0.170,0.095
6.564,-0.175,0.065
6.567,-0.185,0.070
6.569,-0.185,0.075
6.572,-0.160,0.095
6.575,-0.155,0.075
6.578,-0.180,0.075
6.581,-0.210,0.075
6.583,-0.235,0.100
6.586,-0.210,0.110
6.589,-0.200,0.115
6.592,-0.180,0.115
6.594,-0.200,0.115
6.597,-0.205,0.110
6.600,-0.215,0.140
6.603,-0.210,0.125
6.606,-0.180,0.115
6.608,-0.170,0.130
6.611,-0.180,0.090
6.614,-0.205,0.080
6.617,-0.205,0.095
6.619,-0.190,0.105
6.622,-0.200,0.130
6.625,-0.190,0.140
6.628,-0.200,0.150
6.631,-0.195,0.130
6.633,-0.210,0.130
6.636,-0.220,0.135
6.639,-0.195,0.150
6.642,-0.195,0.165
6.644,-0.195,0.155
6.647,-0.205,0.135
6.650,-0.235,0.115
6.653,-0.220,0.105
6.656,-0.195,0.105
6.658,-0.180,0.095
6.661,-0.175,0.085
6.664,-0.190,0.080
6.667,-0.200,0.065
6.669,-0.195,0.075
6.672,-0.185,0.100
6.675,-0.175,0.110
6.678,-0.165,0.140
6.681,-0.160,0.155
6.683,-0.155,0.165
6.686,-0.175,0.175
6.689,-0.150,0.170
6.692,-0.140,0.150
6.694,-0.155,0.115
6.697,-0.145,0.105
6.700,-0.165,0.115
6.703,-0.135,0.095
6.706,-0.130,0.090
6.708,-0.120,0.055
6.711,-0.135,0.030
6.714,-0.155,0.035
6.717,-0.165,0.040
6.719,-0.165,0.065
6.722,-0.150,0.055
6.725,-0.170,0.050
6.728,-0.165,0.040
6.731,-0.175,0.035
6.733,-0.195,0.055
6.736,-0.195,0.060
6.739,-0.195,0.045
6.742,-0.205,0.015
6.744,-0.195,-0.005
6.747,-0.205,-0.005
6.750,-0.210,0.000
6.753,-0.215,0.000
6.756,-0.215,0.035
6.758,-0.195,0.035
6.761,-0.195,0.080
6.764,-0.215,0.085
6.767,-0.225,0.100
6.769,-0.245,0.120
6.772,-0.225,0.140
6.775,-0.235,0.145
6.778,-0.250,0.125
6.781,-0.275,0.090
6.783,-0.300,0.075
6.786,-0.300,0.075
6.789,-0.280,0.085
6.792,-0.265,0.085
6.794,-0.275,0.090
6.797,-0.285,0.085
6.800,-0.295,0.085
6.803,-0.295,0.100
6.806,-0.275,0.120
6.808,-0.265,0.110
6.811,-0.265,0.110
6.814,-0.285,0.105
6.817,-0.305,0.090
6.819,-0.290,0.070
6.822,-0.285,0.075
6.825,-0.270,0.070
6.828,-0.265,0.085
6.831,-0.285,0.065
6.833,-0.285,0.065
6.836,-0.275,0.075
6.839,-0.260,0.085
6.842,-0.270,0.085
6.844,-0.295,0.100
6.847,-0.330,0.110
6.850,-0.370,0.145
6.853,-0.370,0.190
6.856,-0.330,0.210
6.858,-0.265,0.210
6.861,-0.180,0.215
6.864,-0.040,0.205
6.867,0.120,0.205
6.869,0.350,0.220
6.872,0.610,0.230
6.875,0.825,0.220
6.878,1.025,0.160
6.881,1.105,0.075
6.883,1.015,-0.010
6.886,0.790,-0.105
6.889,0.485,-0.145
6.892,0.115,-0.145
6.894,-0.335,-0.125
6.897,-0.750,-0.130
6.900,-0.940,-0.145
6.903,-0.905,-0.155
6.906,-0.800,-0.145
6.908,-0.680,-0.135
6.911,-0.570,-0.110
6.914,-0.475,-0.080
6.917,-0.435,-0.045
6.919,-0.385,0.000
6.922,-0.350,0.030
6.925,-0.320,0.035
6.928,-0.305,0.030
6.931,-0.315,0.045
6.933,-0.335,0.035
6.936,-0.330,0.055
6.939,-0.320,0.075
6.942,-0.320,0.070
6.944,-0.320,0.065
6.947,-0.330,0.070
6.950,-0.325,0.075
6.953,-0.320,0.090
6.956,-0.315,0.105
6.958,-0.305,0.100
6.961,-0.285,0.115
6.964,-0.290,0.120
6.967,-0.300,0.110
6.969,-0.315,0.110
6.972,-0.315,0.105
6.975,-0.290,0.120
6.978,-0.270,0.105
6.981,-0.265,0.075
6.983,-0.270,0.060
6.986,-0.260,0.070
6.989,-0.250,0.065
6.992,-0.245,0.090
6.994,-0.235,0.090
6.997,-0.250,0.085
7.000,-0.250,0.095
7.003,-0.255,0.075
7.006,-0.240,0.085
7.008,-0.225,0.090
7.011,-0.230,0.110
7.014,-0.220,0.115
7.017,-0.240,0.105
7.019,-0.235,0.095
7.022,-0.215,0.080
7.025,-0.200,0.065
7.028,-0.205,0.055
7.031,-0.185,0.045
7.033,-0.180,0.060
7.036,-0.165,0.060
7.039,-0.140,0.070
7.042,-0.135,0.095
7.044,-0.145,0.095
7.047,-0.145,0.095
7.050,-0.135,0.095
7.053,-0.110,0.095
7.056,-0.080,0.100
7.058,-0.065,0.115
7.061,-0.060,0.125
7.064,-0.045,0.125
7.067,-0.040,0.115
7.069,-0.035,0.120
7.072,-0.020,0.145
7.075,0.000,0.130
7.078,-0.005,0.120
7.081,0.005,0.080
7.083,0.000,0.065
7.086,-0.005,0.095
7.089,0.005,0.105
7.092,0.030,0.115
7.094,0.050,0.105
7.097,0.045,0.090
7.100,0.040,0.105
7.103,0.040,0.120
7.106,0.060,0.155
7.108,0.050,0.170
7.111,0.035,0.180
7.114,0.035,0.160
7.117,0.035,0.125
7.119,0.060,0.105
7.122,0.070,0.090
7.125,0.075,0.090
7.128,0.055,0.100
7.131,0.050,0.115
7.133,0.035,0.120
7.136,0.020,0.115
7.139,0.020,0.115
7.142,0.020,0.105
7.144,-0.005,0.105
7.147,-0.025,0.115
7.150,-0.045,0.100
7.153,-0.095,0.095
7.156,-0.120,0.105
7.158,-0.115,0.110
7.161,-0.130,0.120
7.164,-0.140,0.090
7.167,-0.160,0.075
7.169,-0.190,0.055
7.172,-0.200,0.060
7.175,-0.200,0.070
7.178,-0.205,0.070
7.181,-0.215,0.100
7.183,-0.220,0.105
7.186,-0.240,0.120
7.189,-0.225,0.105
7.192,-0.225,0.090
7.194,-0.230,0.075
7.197,-0.255,0.075
7.200,-0.250,0.075
7.203,-0.250,0.085
7.206,-0.260,0.095
7.208,-0.255,0.095
7.211,-0.245,0.090
7.214,-0.240,0.085
7.217,-0.270,0.100
7.219,-0.255,0.135
7.222,-0.245,0.145
7.225,-0.235,0.130
7.228,-0.230,0.090
7.231,-0.240,0.075
7.233,-0.260,0.085
7.236,-0.275,0.070
7.239,-0.270,0.055
7.242,-0.265,0.050
7.244,-0.240,0.020
7.247,-0.260,0.015
7.250,-0.275,0.015
7.253,-0.265,0.035
7.256,-0.260,0.060
7.258,-0.260,0.075
7.261,-0.270,0.075
7.264,-0.250,0.080
7.267,-0.250,0.090
7.269,-0.245,0.090
7.272,-0.260,0.110
7.275,-0.250,0.105
7.278,-0.260,0.085
7.281,-0.280,0.055
7.283,-0.275,0.050
7.286,-0.275,0.060
7.289,-0.275,0.065
7.292,-0.250,0.070
7.294,-0.255,0.070
7.297,-0.260,0.085
7.300,-0.265,0.095
7.303,-0.250,0.105
7.306,-0.235,0.090
7.308,-0.215,0.075
7.311,-0.225,0.040
7.314,-0.235,0.020
7.317,-0.250,0.025
7.319,-0.240,0.045
7.322,-0.215,0.090
7.325,-0.190,0.095
7.328,-0.175,0.085
7.331,-0.190,0.090
7.333,-0.200,0.100
7.336,-0.195,0.110
7.339,-0.170,0.105
7.342,-0.160,0.095
7.344,-0.170,0.085
7.347,-0.170,0.095
7.350,-0.180,0.095
7.353,-0.170,0.110
7.356,-0.175,0.100
7.358,-0.165,0.075
7.361,-0.160,0.050
7.364,-0.175,0.030
7.367,-0.190,0.020
7.369,-0.195,0.020
7.372,-0.195,0.035
7.375,-0.175,0.035
7.378,-0.195,0.025
7.381,-0.195,0.010
7.383,-0.220,0.005
7.386,-0.225,0.010
7.389,-0.225,0.035
7.392,-0.210,0.045
7.394,-0.205,0.025
7.397,-0.215,0.000
7.400,-0.225,0.005
7.403,-0.220,0.025
7.406,-0.215,0.050
7.408,-0.190,0.045
7.411,-0.200,0.045
7.414,-0.215,0.040
7.417,-0.250,0.045
7.419,-0.275,0.070
7.422,-0.285,0.075
7.425,-0.300,0.065
7.428,-0.280,0.060
7.431,-0.295,0.060
7.433,-0.295,0.060
7.436,-0.295,0.085
7.439,-0.290,0.105
7.442,-0.275,0.100
7.444,-0.285,0.070
7.447,-0.295,0.055
7.450,-0.300,0.070
7.453,-0.305,0.080
7.456,-0.285,0.080
7.458,-0.270,0.040
7.461,-0.270,0.045
7.464,-0.300,0.045
7.467,-0.305,0.035
7.469,-0.300,0.055
7.472,-0.285,0.080
7.475,-0.270,0.095
7.478,-0.280,0.080
7.481,-0.290,0.070
7.483,-0.320,0.070
7.486,-0.355,0.095
7.489,-0.365,0.130
7.492,-0.340,0.160
7.494,-0.305,0.155
7.497,-0.250,0.150
7.500,-0.155,0.150
7.503,0.020,0.175
7.506,0.255,0.190
7.508,0.490,0.215
7.511,0.765,0.220
7.514,0.975,0.190
7.517,1.035,0.130
7.519,0.920,0.045
7.522,0.670,-0.050
7.525,0.330,-0.110
7.528,-0.100,-0.130
7.531,-0.565,-0.135
7.533,-0.840,-0.125
7.536,-0.875,-0.105
7.539,-0.815,-0.080
7.542,-0.740,-0.090
7.544,-0.650,-0.085
7.547,-0.570,-0.085
7.550,-0.485,-0.075
7.553,-0.435,-0.030
7.556,-0.385,0.025
7.558,-0.375,0.055
7.561,-0.340,0.065
7.564,-0.330,0.060
7.567,-0.315,0.055
7.569,-0.300,0.055
7.572,-0.300,0.055
7.575,-0.305,0.055
7.578,-0.310,0.050
7.581,-0.295,0.055
7.583,-0.300,0.055
7.586,-0.315,0.060
7.589,-0.305,0.055
7.592,-0.290,0.060
7.594,-0.285,0.070
7.597,-0.295,0.090
7.600,-0.300,0.110
7.603,-0.290,0.095
7.606,-0.265,0.070
7.608,-0.250,0.045
7.611,-0.240,0.020
7.614,-0.250,0.020
7.617,-0.255,0.035
7.619,-0.250,0.050
7.622,-0.240,0.065
7.625,-0.225,0.075
7.628,-0.230,0.075
7.631,-0.220,0.075
7.633,-0.220,0.095
7.636,-0.215,0.130
7.639,-0.205,0.135
7.642,-0.195,0.120
7.644,-0.185,0.095
7.647,-0.175,0.070
7.650,-0.185,0.045
7.653,-0.180,0.050
7.656,-0.155,0.050
7.658,-0.140,0.070
7.661,-0.155,0.070
7.664,-0.145,0.065
7.667,-0.125,0.060
7.669,-0.120,0.055
7.672,-0.120,0.065
7.675,-0.105,0.070
7.678,-0.100,0.100
7.681,-0.095,0.100
7.683,-0.100,0.125
7.686,-0.095,0.120
7.689,-0.070,0.130
7.692,-0.035,0.110
7.694,-0.035,0.095
7.697,-0.035,0.085
7.700,-0.025,0.070
7.703,-0.020,0.055
7.706,0.015,0.075
7.708,0.035,0.070
7.711,0.040,0.070
7.714,0.045,0.065
7.717,0.025,0.090
7.719,0.040,0.105
7.722,0.065,0.125
7.725,0.055,0.125
7.728,0.065,0.125
7.731,0.055,0.125
7.733,0.045,0.115
7.736,0.070,0.130
7.739,0.080,0.130
7.742,0.075,0.135
7.744,0.070,0.145
7.747,0.070,0.165
7.750,0.065,0.165
7.753,0.070,0.155
7.756,0.065,0.130
7.758,0.065,0.105
7.761,0.065,0.100
7.764,0.050,0.105
7.767,0.040,0.090
7.769,0.045,0.085
7.772,0.040,0.100
7.775,0.030,0.095
7.778,0.025,0.115
7.781,0.000,0.130
7.783,-0.025,0.125
7.786,-0.030,0.130
7.789,-0.030,0.145
7.792,-0.040,0.120
7.794,-0.050,0.110
7.797,-0.085,0.080
7.800,-0.095,0.055
7.803,-0.105,0.065
7.806,-0.110,0.090
7.808,-0.115,0.090
7.811,-0.115,0.080
7.814,-0.140,0.080
7.817,-0.165,0.085
7.819,-0.160,0.120
7.822,-0.150,0.140
7.825,-0.150,0.145
7.828,-0.165,0.110
7.831,-0.170,0.070
7.833,-0.175,0.080
7.836,-0.175,0.090
7.839,-0.155,0.110
7.842,-0.150,0.120
7.844,-0.155,0.120
7.847,-0.165,0.075
7.850,-0.180,0.060
7.853,-0.185,0.085
7.856,-0.180,0.100
7.858,-0.160,0.100
7.861,-0.160,0.095
7.864,-0.165,0.075
7.867,-0.175,0.065
7.869,-0.175,0.075
7.872,-0.155,0.095
7.875,-0.140,0.105
7.878,-0.145,0.110
7.881,-0.150,0.095
7.883,-0.155,0.100
7.886,-0.155,0.105
7.889,-0.160,0.110
7.892,-0.150,0.110
7.894,-0.140,0.100
7.897,-0.160,0.095
7.900,-0.175,0.115
7.903,-0.155,0.130
7.906,-0.140,0.145
7.908,-0.125,0.135
7.911,-0.110,0.105
7.914,-0.135,0.080
7.917,-0.150,0.090
7.919,-0.150,0.095
7.922,-0.140,0.120
7.925,-0.135,0.135
7.928,-0.120,0.120
7.931,-0.125,0.090
7.933,-0.130,0.085
7.936,-0.140,0.100
7.939,-0.130,0.100
7.942,-0.130,0.085
7.944,-0.120,0.075
7.947,-0.140,0.095
7.950,-0.135,0.075
7.953,-0.135,0.085
7.956,-0.115,0.115
7.958,-0.100,0.120
7.961,-0.075,0.120
7.964,-0.080,0.085
7.967,-0.080,0.095
7.969,-0.080,0.115
7.972,-0.075,0.140
7.975,-0.070,0.160
7.978,-0.075,0.135
7.981,-0.065,0.110
7.983,-0.070,0.110
7.986,-0.065,0.115
7.989,-0.055,0.125
7.992,-0.055,0.120
7.994,-0.065,0.110
7.997,-0.080,0.095
8.000,-0.095,0.100
8.003,-0.090,0.100
8.006,-0.080,0.095
8.008,-0.075,0.090
8.011,-0.065,0.080
8.014,-0.080,0.085
8.017,-0.095,0.090
8.019,-0.095,0.095
8.022,-0.090,0.085
8.025,-0.100,0.055
8.028,-0.100,0.030
8.031,-0.130,0.030
8.033,-0.130,0.040
8.036,-0.135,0.065
8.039,-0.115,0.090
8.042,-0.095,0.105
8.044,-0.075,0.110
8.047,-0.070,0.100
8.050,-0.085,0.070
8.053,-0.105,0.050
8.056,-0.125,0.065
8.058,-0.145,0.085
8.061,-0.160,0.085
8.064,-0.180,0.095
8.067,-0.185,0.115
8.069,-0.195,0.135
8.072,-0.165,0.165
8.075,-0.160,0.155
8.078,-0.160,0.140
8.081,-0.180,0.110
8.083,-0.175,0.090
8.086,-0.175,0.120
8.089,-0.175,0.115
8.092,-0.160,0.120
8.094,-0.165,0.115
8.097,-0.180,0.105
8.100,-0.200,0.105
8.103,-0.195,0.120
8.106,-0.180,0.145
8.108,-0.170,0.125
8.111,-0.165,0.120
8.114,-0.185,0.120
8.117,-0.200,0.140
8.119,-0.215,0.165
8.122,-0.225,0.190
8.125,-0.225,0.205
8.128,-0.210,0.235
8.131,-0.155,0.260
8.133,-0.045,0.260
8.136,0.135,0.250
8.139,0.335,0.260
8.142,0.595,0.280
8.144,0.870,0.295
8.147,1.120,0.300
8.150,1.310,0.250
8.153,1.355,0.165
8.156,1.195,0.050
8.158,0.835,-0.040
8.161,0.365,-0.090
8.164,-0.175,-0.090
8.167,-0.630,-0.090
8.169,-0.800,-0.095
8.172,-0.730,-0.110
8.175,-0.595,-0.110
8.178,-0.465,-0.080
8.181,-0.380,-0.045
8.183,-0.335,0.000
8.186,-0.290,0.035
8.189,-0.240,0.085
8.192,-0.220,0.095
8.194,-0.220,0.120
8.197,-0.230,0.130
8.200,-0.245,0.155
8.203,-0.225,0.155
8.206,-0.220,0.150
8.208,-0.210,0.130
8.211,-0.195,0.110
8.214,-0.205,0.095
8.217,-0.215,0.100
8.219,-0.225,0.125
8.222,-0.215,0.130
8.225,-0.200,0.140
8.228,-0.200,0.150
8.231,-0.205,0.150
8.233,-0.205,0.155
8.236,-0.210,0.155
8.239,-0.200,0.135
8.242,-0.175,0.140
8.244,-0.170,0.140
8.247,-0.175,0.140
8.250,-0.165,0.120
8.253,-0.155,0.100
8.256,-0.135,0.080
8.258,-0.130,0.095
8.261,-0.140,0.105
8.264,-0.150,0.105
8.267,-0.140,0.105
8.269,-0.140,0.115
8.272,-0.130,0.135
8.275,-0.120,0.135
8.278,-0.115,0.155
8.281,-0.110,0.140
8.283,-0.110,0.145
8.286,-0.095,0.160
8.289,-0.095,0.185
8.292,-0.085,0.195
8.294,-0.075,0.185
8.297,-0.080,0.165
8.300,-0.070,0.145
8.303,-0.065,0.140
8.306,-0.055,0.155
8.308,-0.035,0.165
8.311,-0.010,0.175
8.314,-0.005,0.170
8.317,-0.005,0.175
8.319,0.005,0.190
8.322,0.030,0.190
8.325,0.060,0.175
8.328,0.065,0.165
8.331,0.055,0.170
8.333,0.045,0.175
8.336,0.050,0.200
8.339,0.085,0.195
8.342,0.100,0.175
8.344,0.110,0.155
8.347,0.105,0.140
8.350,0.100,0.155
8.353,0.105,0.155
8.356,0.105,0.180
8.358,0.110,0.205
8.361,0.115,0.215
8.364,0.115,0.195
8.367,0.115,0.200
8.369,0.115,0.210
8.372,0.120,0.205
8.375,0.135,0.195
8.378,0.140,0.200
8.381,0.135,0.190
8.383,0.120,0.165
8.386,0.105,0.145
8.389,0.120,0.150
8.392,0.115,0.165
8.394,0.120,0.175
8.397,0.075,0.175
8.400,0.055,0.180
8.403,0.045,0.200
8.406,0.055,0.195
8.408,0.060,0.195
8.411,0.035,0.175
8.414,0.000,0.160
8.417,-0.035,0.155
8.419,-0.055,0.170
8.422,-0.035,0.185
8.425,-0.040,0.175
8.428,-0.045,0.170
8.431,-0.065,0.150
8.433,-0.090,0.135
8.436,-0.095,0.130
8.439,-0.105,0.135
8.442,-0.080,0.150
8.444,-0.095,0.160
8.447,-0.120,0.155
8.450,-0.135,0.135
8.453,-0.130,0.155
8.456,-0.115,0.170
8.458,-0.115,0.155
8.461,-0.115,0.140
8.464,-0.120,0.130
8.467,-0.140,0.130
8.469,-0.140,0.135
8.472,-0.120,0.135
8.475,-0.120,0.130
8.478,-0.130,0.135
8.481,-0.130,0.135
8.483,-0.135,0.150
8.486,-0.150,0.165
8.489,-0.135,0.185
8.492,-0.135,0.185
8.494,-0.130,0.160
8.497,-0.135,0.155
8.500,-0.140,0.155
8.503,-0.150,0.155
8.506,-0.145,0.155
8.508,-0.140,0.160
8.511,-0.140,0.155
8.514,-0.150,0.130
8.517,-0.150,0.125
8.519,-0.165,0.135
8.522,-0.150,0.165
8.525,-0.140,0.165
8.528,-0.145,0.160
8.531,-0.135,0.160
8.533,-0.160,0.165
8.536,-0.170,0.175
8.539,-0.140,0.180
8.542,-0.155,0.165
8.544,-0.125,0.155
8.547,-0.135,0.120
8.550,-0.155,0.120
8.553,-0.165,0.130
8.556,-0.145,0.140
8.558,-0.125,0.125
8.561,-0.140,0.120
8.564,-0.150,0.120
8.567,-0.155,0.110
8.569,-0.160,0.140
8.572,-0.150,0.190
8.575,-0.145,0.225
8.578,-0.140,0.220
8.581,-0.135,0.200
8.583,-0.135,0.120
8.586,-0.125,0.080
8.589,-0.135,0.075
8.592,-0.120,0.110
8.594,-0.125,0.130
8.597,-0.110,0.140
8.600,-0.110,0.155
8.603,-0.100,0.190
8.606,-0.090,0.195
8.608,-0.080,0.210
8.611,-0.075,0.205
8.614,-0.070,0.195
8.617,-0.070,0.195
8.619,-0.075,0.160
8.622,-0.055,0.165
8.625,-0.055,0.150
8.628,-0.070,0.130
8.631,-0.080,0.120
8.633,-0.080,0.120
8.636,-0.070,0.125
8.639,-0.070,0.125
8.642,-0.070,0.105
8.644,-0.090,0.090
8.647,-0.100,0.075
8.650,-0.110,0.070
8.653,-0.110,0.070
8.656,-0.140,0.085
8.658,-0.130,0.090
8.661,-0.135,0.115
8.664,-0.155,0.100
8.667,-0.145,0.090
8.669,-0.140,0.085
8.672,-0.135,0.075
8.675,-0.135,0.070
8.678,-0.125,0.080
8.681,-0.145,0.060
8.683,-0.135,0.080
8.686,-0.140,0.100
8.689,-0.130,0.125
8.692,-0.140,0.140
8.694,-0.165,0.140
8.697,-0.185,0.135
8.700,-0.205,0.145
8.703,-0.220,0.170
8.706,-0.220,0.175
8.708,-0.200,0.155
8.711,-0.210,0.130
8.714,-0.215,0.125
8.717,-0.230,0.115
8.719,-0.210,0.125
8.722,-0.210,0.120
8.725,-0.210,0.145
8.728,-0.205,0.150
8.731,-0.205,0.140
8.733,-0.205,0.140
8.736,-0.210,0.110
8.739,-0.200,0.115
8.742,-0.200,0.120
8.744,-0.195,0.130
8.747,-0.215,0.135
8.750,-0.240,0.150
8.753,-0.215,0.145
8.756,-0.215,0.145
8.758,-0.230,0.135
8.761,-0.270,0.155
8.764,-0.290,0.175
8.767,-0.280,0.210
8.769,-0.240,0.240
8.772,-0.125,0.275
8.775,0.015,0.280
8.778,0.185,0.255
8.781,0.385,0.265
8.783,0.630,0.290
8.786,0.890,0.275
8.789,1.135,0.255
8.792,1.235,0.175
8.794,1.145,0.040
8.797,0.845,-0.070
8.800,0.465,-0.105
8.803,0.050,-0.095
8.806,-0.395,-0.085
8.808,-0.725,-0.100
8.811,-0.825,-0.115
8.814,-0.770,-0.130
8.817,-0.680,-0.115
8.819,-0.570,-0.055
8.822,-0.460,0.000
8.825,-0.380,0.045
8.828,-0.320,0.045
8.831,-0.285,0.040
8.833,-0.265,0.045
8.836,-0.255,0.070
8.839,-0.240,0.105
8.842,-0.230,0.130
8.844,-0.220,0.135
8.847,-0.230,0.120
8.850,-0.245,0.125
8.853,-0.245,0.115
8.856,-0.240,0.115
8.858,-0.245,0.125
8.861,-0.245,0.130
8.864,-0.230,0.130
8.867,-0.230,0.135
8.869,-0.215,0.135
8.872,-0.210,0.135
8.875,-0.215,0.135
8.878,-0.215,0.140
8.881,-0.225,0.150
8.883,-0.225,0.125
8.886,-0.215,0.125
8.889,-0.195,0.145
8.892,-0.195,0.160
8.894,-0.195,0.160
8.897,-0.205,0.145
8.900,-0.200,0.140
8.903,-0.190,0.165
8.906,-0.180,0.170
8.908,-0.160,0.155
8.911,-0.155,0.100
8.914,-0.170,0.075
8.917,-0.155,0.095
8.919,-0.160,0.125
8.922,-0.155,0.155
8.925,-0.140,0.180
8.928,-0.120,0.175
8.931,-0.135,0.140
8.933,-0.120,0.130
8.936,-0.110,0.140
8.939,-0.105,0.175
8.942,-0.085,0.205
8.944,-0.090,0.170
8.947,-0.070,0.145
8.950,-0.065,0.130
8.953,-0.050,0.160
8.956,-0.035,0.180
8.958,-0.005,0.205
8.961,-0.005,0.200
8.964,-0.010,0.190
8.967,-0.010,0.185
8.969,0.015,0.170
8.972,0.030,0.165
8.975,0.050,0.180
8.978,0.070,0.190
8.981,0.065,0.205
8.983,0.060,0.205
8.986,0.065,0.210
8.989,0.090,0.210
8.992,0.095,0.180
8.994,0.100,0.165
8.997,0.100,0.160
9.000,0.080,0.190
9.003,0.095,0.200
9.006,0.115,0.215
9.008,0.120,0.240
9.011,0.125,0.235
9.014,0.120,0.210
9.017,0.105,0.215
9.019,0.105,0.220
9.022,0.120,0.215
9.025,0.110,0.205
9.028,0.125,0.200
9.031,0.090,0.180
9.033,0.090,0.165
9.036,0.085,0.160
9.039,0.075,0.165
9.042,0.085,0.190
9.044,0.065,0.190
9.047,0.045,0.195
9.050,0.010,0.190
9.053,-0.005,0.190
9.056,-0.015,0.200
9.058,-0.020,0.180
9.061,-0.045,0.160
9.064,-0.055,0.150
9.067,-0.090,0.155
9.069,-0.090,0.170
9.072,-0.100,0.190
9.075,-0.085,0.195
9.078,-0.100,0.175
9.081,-0.130,0.150
9.083,-0.145,0.140
9.086,-0.155,0.155
9.089,-0.150,0.185
9.092,-0.135,0.190
9.094,-0.130,0.170
9.097,-0.140,0.145
9.100,-0.150,0.140
9.103,-0.155,0.165
9.106,-0.155,0.180
9.108,-0.140,0.165
9.111,-0.135,0.135
9.114,-0.150,0.130
9.117,-0.165,0.135
9.119,-0.170,0.135
9.122,-0.155,0.150
9.125,-0.150,0.150
9.128,-0.150,0.140
9.131,-0.165,0.165
9.133,-0.165,0.155
9.136,-0.155,0.170
9.139,-0.150,0.165
9.142,-0.145,0.145
9.144,-0.150,0.115
9.147,-0.170,0.110
9.150,-0.170,0.120
9.153,-0.180,0.150
9.156,-0.165,0.150
9.158,-0.155,0.145
9.161,-0.150,0.145
9.164,-0.165,0.135
9.167,-0.165,0.150
9.169,-0.175,0.145
9.172,-0.165,0.140
9.175,-0.145,0.150
9.178,-0.155,0.155
9.181,-0.165,0.145
9.183,-0.170,0.140
9.186,-0.160,0.155
9.189,-0.145,0.165
9.192,-0.150,0.180
9.194,-0.140,0.150
9.197,-0.150,0.130
9.200,-0.170,0.125
9.203,-0.165,0.135
9.206,-0.155,0.140
9.208,-0.130,0.180
9.211,-0.145,0.170
9.214,-0.145,0.175
9.217,-0.140,0.110
9.219,-0.145,0.055
9.222,-0.115,0.065
9.225,-0.100,0.100
9.228,-0.090,0.155
9.231,-0.095,0.165
9.233,-0.105,0.175
9.236,-0.110,0.170
9.239,-0.090,0.185
9.242,-0.070,0.185
9.244,-0.060,0.170
9.247,-0.055,0.145
9.250,-0.075,0.115
9.253,-0.075,0.115
9.256,-0.075,0.120
9.258,-0.080,0.125
9.261,-0.065,0.105
9.264,-0.075,0.090
9.267,-0.080,0.070
9.269,-0.085,0.090
9.272,-0.075,0.105
9.275,-0.090,0.090
9.278,-0.110,0.085
9.281,-0.125,0.090
9.283,-0.120,0.110
9.286,-0.135,0.115
9.289,-0.135,0.125
9.292,-0.130,0.135
9.294,-0.130,0.110
9.297,-0.145,0.070
9.300,-0.160,0.055
9.303,-0.160,0.065
9.306,-0.135,0.075
9.308,-0.120,0.105
9.311,-0.125,0.125
9.314,-0.150,0.150
9.317,-0.180,0.160
9.319,-0.180,0.160
9.322,-0.185,0.145
9.325,-0.190,0.110
9.328,-0.205,0.095
9.331,-0.220,0.110
9.333,-0.220,0.130
9.336,-0.220,0.140
9.339,-0.210,0.170
9.342,-0.205,0.170
9.344,-0.200,0.120
9.347,-0.220,0.095
9.350,-0.220,0.080
9.353,-0.205,0.095
9.356,-0.205,0.110
9.358,-0.210,0.130
9.361,-0.200,0.140
9.364,-0.205,0.140
9.367,-0.210,0.135
9.369,-0.200,0.135
9.372,-0.190,0.130
9.375,-0.205,0.150
9.378,-0.215,0.175
9.381,-0.230,0.180
9.383,-0.255,0.195
9.386,-0.290,0.220
9.389,-0.290,0.245
9.392,-0.260,0.245
9.394,-0.190,0.240
9.397,-0.095,0.220
9.400,0.045,0.240
9.403,0.225,0.275
9.406,0.465,0.300
9.408,0.725,0.310
9.411,0.985,0.260
9.414,1.155,0.200
9.417,1.180,0.100
9.419,0.995,0.005
9.422,0.690,-0.050
9.425,0.310,-0.075
9.428,-0.135,-0.080
9.431,-0.595,-0.100
9.433,-0.855,-0.140
9.436,-0.850,-0.145
9.439,-0.725,-0.130
9.442,-0.575,-0.090
9.444,-0.475,-0.075
9.447,-0.380,-0.040
9.450,-0.340,0.025
9.453,-0.310,0.075
9.456,-0.260,0.130
9.458,-0.225,0.135
9.461,-0.220,0.105
9.464,-0.235,0.115
9.467,-0.240,0.120
9.469,-0.230,0.105
9.472,-0.220,0.120
9.475,-0.220,0.130
9.478,-0.235,0.150
9.481,-0.245,0.145
9.483,-0.240,0.125
9.486,-0.235,0.105
9.489,-0.230,0.115
9.492,-0.210,0.140
9.494,-0.200,0.150
9.497,-0.210,0.125
9.500,-0.225,0.115
9.503,-0.225,0.120
9.506,-0.210,0.145
9.508,-0.195,0.140
9.511,-0.200,0.135
9.514,-0.210,0.125
9.517,-0.200,0.105
9.519,-0.205,0.115
9.522,-0.185,0.145
9.525,-0.180,0.150
9.528,-0.170,0.155
9.531,-0.170,0.135
9.533,-0.175,0.135
9.536,-0.170,0.140
9.539,-0.160,0.160
9.542,-0.145,0.180
9.544,-0.140,0.175
9.547,-0.145,0.175
9.550,-0.140,0.180
9.553,-0.135,0.180
9.556,-0.110,0.175
9.558,-0.085,0.160
9.561,-0.070,0.135
9.564,-0.080,0.115
9.567,-0.065,0.125
9.569,-0.055,0.140
9.572,-0.035,0.160
9.575,-0.025,0.155
9.578,-0.025,0.155
9.581,-0.035,0.135
9.583,-0.005,0.140
9.586,0.000,0.150
9.589,0.015,0.180
9.592,0.035,0.180
9.594,0.030,0.185
9.597,0.050,0.170
9.600,0.035,0.165
9.603,0.050,0.180
9.606,0.060,0.190
9.608,0.080,0.175
9.611,0.075,0.165
9.614,0.080,0.160
9.617,0.075,0.175
9.619,0.065,0.190
9.622,0.095,0.215
9.625,0.110,0.215
9.628,0.120,0.210
9.631,0.115,0.190
9.633,0.100,0.190
9.636,0.100,0.195
9.639,0.110,0.215
9.642,0.125,0.220
9.644,0.130,0.205
9.647,0.120,0.190
9.650,0.105,0.165
9.653,0.110,0.150
9.656,0.120,0.145
9.658,0.115,0.160
9.661,0.095,0.170
9.664,0.085,0.155
9.667,0.055,0.155
9.669,0.040,0.165
9.672,0.040,0.190
9.675,0.045,0.175
9.678,0.025,0.180
9.681,0.005,0.170
9.683,-0.010,0.170
9.686,-0.040,0.170
9.689,-0.040,0.195
9.692,-0.045,0.180
9.694,-0.045,0.175
9.697,-0.070,0.150
9.700,-0.090,0.135
9.703,-0.105,0.155
9.706,-0.095,0.165
9.708,-0.090,0.170
9.711,-0.100,0.150
9.714,-0.125,0.125
9.717,-0.145,0.130
9.719,-0.145,0.140
9.722,-0.145,0.155
9.725,-0.120,0.160
9.728,-0.120,0.140
9.731,-0.155,0.110
9.733,-0.170,0.125
9.736,-0.175,0.145
9.739,-0.170,0.175
9.742,-0.155,0.195
9.744,-0.155,0.185
9.747,-0.150,0.160
9.750,-0.150,0.145
9.753,-0.175,0.140
9.756,-0.155,0.125
9.758,-0.140,0.130
9.761,-0.135,0.120
9.764,-0.140,0.115
9.767,-0.145,0.100
9.769,-0.150,0.120
9.772,-0.150,0.125
9.775,-0.135,0.130
9.778,-0.130,0.135
9.781,-0.150,0.145
9.783,-0.150,0.135
9.786,-0.155,0.135
9.789,-0.150,0.110
9.792,-0.140,0.120
9.794,-0.125,0.135
9.797,-0.135,0.120
9.800,-0.140,0.115
9.803,-0.155,0.105
9.806,-0.155,0.120
9.808,-0.150,0.130
9.811,-0.140,0.125
9.814,-0.160,0.100
9.817,-0.165,0.100
9.819,-0.160,0.095
9.822,-0.150,0.115
9.825,-0.135,0.130
9.828,-0.145,0.110
9.831,-0.155,0.115
9.833,-0.165,0.110
9.836,-0.160,0.105
9.839,-0.150,0.125
9.842,-0.145,0.150
9.844,-0.155,0.135
9.847,-0.150,0.110
9.850,-0.180,0.105
9.853,-0.180,0.110
9.856,-0.155,0.130
9.858,-0.140,0.145
9.861,-0.115,0.165
9.864,-0.115,0.140
9.867,-0.115,0.140
9.869,-0.095,0.165
9.872,-0.090,0.180
9.875,-0.090,0.155
9.878,-0.075,0.135
9.881,-0.075,0.150
9.883,-0.080,0.155
9.886,-0.065,0.150
9.889,-0.050,0.130
9.892,-0.055,0.115
9.894,-0.065,0.080
9.897,-0.070,0.075
9.900,-0.090,0.075
9.903,-0.100,0.070
9.906,-0.090,0.090
9.908,-0.055,0.080
9.911,-0.075,0.065
9.914,-0.105,0.060
9.917,-0.115,0.065
9.919,-0.135,0.080
9.922,-0.130,0.085
9.925,-0.135,0.075
9.928,-0.125,0.040
9.931,-0.140,0.010
9.933,-0.140,0.010
9.936,-0.150,0.040
9.939,-0.160,0.060
9.942,-0.135,0.095
9.944,-0.120,0.100
9.947,-0.130,0.105
9.950,-0.150,0.115
9.953,-0.160,0.140
9.956,-0.175,0.145
9.958,-0.180,0.125
9.961,-0.190,0.110
9.964,-0.215,0.090
9.967,-0.235,0.090
9.969,-0.235,0.115
9.972,-0.215,0.120
9.975,-0.210,0.155
9.978,-0.220,0.170
9.981,-0.235,0.205
9.983,-0.245,0.195
9.986,-0.240,0.165
9.989,-0.220,0.120
9.992,-0.215,0.100
9.994,-0.215,0.095
9.997,-0.215,0.115
10.000,-0.220,0.105
10.003,-0.225,0.095
10.006,-0.225,0.080
10.008,-0.200,0.085
10.011,-0.200,0.095
10.014,-0.225,0.095
10.017,-0.250,0.095
10.019,-0.265,0.125
10.022,-0.280,0.165
10.025,-0.285,0.205
10.028,-0.270,0.220
10.031,-0.250,0.220
10.033,-0.190,0.220
10.036,-0.075,0.215
10.039,0.085,0.235
10.042,0.300,0.265
10.044,0.565,0.275
10.047,0.820,0.265
10.050,1.040,0.215
10.053,1.145,0.155
10.056,1.070,0.050
10.058,0.800,-0.065
10.061,0.425,-0.135
10.064,-0.020,-0.140
10.067,-0.495,-0.110
10.069,-0.820,-0.105
10.072,-0.890,-0.100
10.075,-0.775,-0.090
10.078,-0.645,-0.080
10.081,-0.535,-0.060
10.083,-0.425,-0.040
10.086,-0.345,-0.020
10.089,-0.300,-0.025
10.092,-0.255,0.000
10.094,-0.240,0.045
10.097,-0.235,0.070
10.100,-0.245,0.090
10.103,-0.245,0.090
10.106,-0.235,0.090
10.108,-0.230,0.085
10.111,-0.230,0.100
10.114,-0.230,0.105
10.117,-0.235,0.110
10.119,-0.235,0.105
10.122,-0.225,0.115
10.125,-0.220,0.130
10.128,-0.210,0.130
10.131,-0.220,0.130
10.133,-0.220,0.115
10.136,-0.210,0.120
10.139,-0.190,0.130
10.142,-0.180,0.125
10.144,-0.175,0.130
10.147,-0.185,0.140
10.150,-0.195,0.135
10.153,-0.195,0.160
10.156,-0.175,0.190
10.158,-0.160,0.205
10.161,-0.165,0.240
10.164,-0.165,0.240
10.167,-0.165,0.230
10.169,-0.155,0.185
10.172,-0.135,0.125
10.175,-0.135,0.095
10.178,-0.140,0.060
10.181,-0.150,0.045
10.183,-0.150,0.070
10.186,-0.150,0.100
10.189,-0.130,0.115
10.192,-0.105,0.110
10.194,-0.115,0.115
10.197,-0.105,0.125
10.200,-0.115,0.120
10.203,-0.085,0.130
10.206,-0.055,0.135
10.208,-0.035,0.130
10.211,-0.015,0.105
10.214,-0.035,0.120
10.217,-0.030,0.130
10.219,-0.025,0.150
10.222,0.000,0.170
10.225,0.010,0.190
10.228,0.030,0.195
10.231,0.030,0.185
10.233,0.035,0.175
10.236,0.045,0.175
10.239,0.035,0.195
10.242,0.065,0.210
10.244,0.080,0.210
10.247,0.075,0.225
10.250,0.085,0.215
10.253,0.090,0.210
10.256,0.105,0.190
10.258,0.115,0.180
10.261,0.095,0.150
10.264,0.120,0.125
10.267,0.105,0.100
10.269,0.100,0.095
10.272,0.105,0.130
10.275,0.105,0.145
10.278,0.100,0.150
10.281,0.095,0.135
10.283,0.100,0.150
10.286,0.085,0.150
10.289,0.085,0.165
10.292,0.085,0.170
10.294,0.080,0.175
10.297,0.055,0.175
10.300,0.045,0.165
10.303,0.025,0.160
10.306,0.020,0.160
10.308,0.010,0.165
10.311,0.000,0.160
10.314,-0.010,0.155
10.317,-0.030,0.155
10.319,-0.040,0.175
10.322,-0.070,0.190
10.325,-0.070,0.210
10.328,-0.090,0.185
10.331,-0.095,0.115
10.333,-0.115,0.085
10.336,-0.110,0.100
10.339,-0.105,0.130
10.342,-0.110,0.130
10.344,-0.120,0.115
10.347,-0.135,0.080
10.350,-0.155,0.060
10.353,-0.160,0.095
10.356,-0.155,0.115
10.358,-0.165,0.115
10.361,-0.165,0.105
10.364,-0.185,0.100
10.367,-0.200,0.100
10.369,-0.205,0.120
10.372,-0.190,0.135
10.375,-0.175,0.140
10.378,-0.175,0.120
10.381,-0.200,0.090
10.383,-0.210,0.095
10.386,-0.205,0.110
10.389,-0.185,0.140
10.392,-0.155,0.140
10.394,-0.145,0.145
10.397,-0.160,0.130
10.400,-0.180,0.145
10.403,-0.175,0.165
10.406,-0.175,0.175
10.408,-0.160,0.170
10.411,-0.155,0.145
10.414,-0.180,0.100
10.417,-0.185,0.070
10.419,-0.165,0.085
10.422,-0.145,0.080
10.425,-0.130,0.070
10.428,-0.135,0.090
10.431,-0.175,0.100
10.433,-0.180,0.085
10.436,-0.190,0.090
10.439,-0.165,0.095
10.442,-0.145,0.095
10.444,-0.150,0.080
10.447,-0.145,0.075
10.450,-0.175,0.065
10.453,-0.180,0.100
10.456,-0.175,0.130
10.458,-0.160,0.140
10.461,-0.140,0.135
10.464,-0.145,0.095
10.467,-0.165,0.085
10.469,-0.175,0.110
10.472,-0.175,0.125
10.475,-0.160,0.115
10.478,-0.170,0.115
10.481,-0.185,0.105
10.483,-0.185,0.110
10.486,-0.165,0.135
10.489,-0.125,0.185
10.492,-0.115,0.215
10.494,-0.110,0.205
10.497,-0.120,0.145
10.500,-0.115,0.100
10.503,-0.120,0.105
10.506,-0.115,0.120
10.508,-0.090,0.130
10.511,-0.090,0.100
10.514,-0.095,0.090
10.517,-0.105,0.075
10.519,-0.105,0.060
10.522,-0.095,0.045
10.525,-0.095,0.040
10.528,-0.105,0.040
10.531,-0.120,0.040
10.533,-0.135,0.040
10.536,-0.135,0.070
10.539,-0.125,0.080
10.542,-0.115,0.070
10.544,-0.135,0.055
10.547,-0.175,0.055
10.550,-0.210,0.055
10.553,-0.205,0.075
10.556,-0.165,0.055
10.558,-0.130,0.065
10.561,-0.140,0.060
10.564,-0.170,0.070
10.567,-0.200,0.085
10.569,-0.185,0.090
10.572,-0.160,0.100
10.575,-0.145,0.085
10.578,-0.155,0.075
10.581,-0.185,0.055
10.583,-0.215,0.065
10.586,-0.230,0.095
10.589,-0.230,0.120
10.592,-0.220,0.115
10.594,-0.230,0.100
10.597,-0.240,0.060
10.600,-0.230,0.035
10.603,-0.230,0.040
10.606,-0.215,0.055
10.608,-0.230,0.070
10.611,-0.230,0.080
10.614,-0.245,0.075
10.617,-0.260,0.065
10.619,-0.255,0.080
10.622,-0.240,0.115
10.625,-0.230,0.130
10.628,-0.225,0.125
10.631,-0.220,0.115
10.633,-0.215,0.120
10.636,-0.235,0.110
10.639,-0.235,0.120
10.642,-0.255,0.115
10.644,-0.275,0.100
10.647,-0.275,0.100
10.650,-0.305,0.105
10.653,-0.330,0.150
10.656,-0.300,0.190
10.658,-0.245,0.225
10.661,-0.175,0.225
10.664,-0.055,0.235
10.667,0.090,0.215
10.669,0.305,0.240
10.672,0.570,0.255
10.675,0.835,0.275
10.678,1.030,0.255
10.681,1.130,0.180
10.683,1.035,0.100
10.686,0.830,0.010
10.689,0.550,-0.075
10.692,0.215,-0.095
10.694,-0.245,-0.090
10.697,-0.670,-0.085
10.700,-0.860,-0.060
10.703,-0.830,-0.040
10.706,-0.750,-0.040
10.708,-0.675,-0.060
10.711,-0.595,-0.065
10.714,-0.500,-0.055
10.717,-0.430,-0.025
10.719,-0.375,0.010
10.722,-0.330,0.030
10.725,-0.290,0.045
10.728,-0.295,0.050
10.731,-0.285,0.070
10.733,-0.280,0.050
10.736,-0.260,0.060
10.739,-0.260,0.085
10.742,-0.245,0.090
10.744,-0.260,0.105
10.747,-0.275,0.110
10.750,-0.290,0.105
10.753,-0.295,0.115
10.756,-0.290,0.125
10.758,-0.245,0.150
10.761,-0.235,0.135
10.764,-0.235,0.115
10.767,-0.235,0.105
10.769,-0.250,0.095
10.772,-0.255,0.090
10.775,-0.260,0.110
10.778,-0.255,0.115
10.781,-0.245,0.095
10.783,-0.235,0.075
10.786,-0.230,0.075
10.789,-0.215,0.105
10.792,-0.200,0.115
10.794,-0.210,0.130
10.797,-0.220,0.100
10.800,-0.215,0.080
10.803,-0.195,0.070
10.806,-0.185,0.070
10.808,-0.175,0.080
10.811,-0.170,0.075
10.814,-0.180,0.060
10.817,-0.165,0.060
10.819,-0.160,0.090
10.822,-0.140,0.110
10.825,-0.110,0.125
10.828,-0.095,0.135
10.831,-0.105,0.115
10.833,-0.095,0.105
10.836,-0.100,0.100
10.839,-0.080,0.100
10.842,-0.040,0.120
10.844,-0.040,0.115
10.847,-0.045,0.130
10.850,-0.040,0.115
10.853,-0.020,0.150
10.856,-0.015,0.145
10.858,0.010,0.150
10.861,0.015,0.155
10.864,0.015,0.160
10.867,0.010,0.150
10.869,0.015,0.130
10.872,0.040,0.135
10.875,0.060,0.135
10.878,0.065,0.175
10.881,0.050,0.190
10.883,0.035,0.170
10.886,0.050,0.130
10.889,0.070,0.100
10.892,0.085,0.090
10.894,0.065,0.085
10.897,0.050,0.100
10.900,0.040,0.115
10.903,0.055,0.150
10.906,0.065,0.150
10.908,0.085,0.155
10.911,0.070,0.120
10.914,0.065,0.095
10.917,0.050,0.110
10.919,0.040,0.165
10.922,0.040,0.180
10.925,0.045,0.175
10.928,0.040,0.135
10.931,0.010,0.115
10.933,-0.015,0.115
10.936,-0.030,0.130
10.939,-0.040,0.165
10.942,-0.045,0.170
10.944,-0.070,0.160
10.947,-0.090,0.155
10.950,-0.105,0.150
10.953,-0.140,0.155
10.956,-0.155,0.140
10.958,-0.160,0.120
10.961,-0.160,0.115
10.964,-0.180,0.095
10.967,-0.200,0.090
10.969,-0.205,0.130
10.972,-0.200,0.150
10.975,-0.205,0.165
10.978,-0.215,0.145
10.981,-0.205,0.140
10.983,-0.220,0.105
10.986,-0.230,0.105
10.989,-0.225,0.120
10.992,-0.210,0.145
10.994,-0.205,0.165
10.997,-0.225,0.175
11.000,-0.225,0.175
11.003,-0.210,0.150
11.006,-0.195,0.125
11.008,-0.190,0.125
11.011,-0.210,0.140
11.014,-0.215,0.130
11.017,-0.225,0.115
11.019,-0.220,0.120
11.022,-0.210,0.135
11.025,-0.185,0.140
11.028,-0.195,0.150
11.031,-0.205,0.145
11.033,-0.220,0.140
11.036,-0.210,0.145
11.039,-0.180,0.145
11.042,-0.165,0.120
11.044,-0.175,0.110
11.047,-0.180,0.095
11.050,-0.185,0.090
11.053,-0.185,0.105
11.056,-0.185,0.125
11.058,-0.185,0.155
11.061,-0.190,0.160
11.064,-0.195,0.160
11.067,-0.200,0.155
11.069,-0.195,0.185
11.072,-0.180,0.195
11.075,-0.160,0.180
11.078,-0.150,0.145
11.081,-0.160,0.120
11.083,-0.175,0.115
11.086,-0.180,0.120
11.089,-0.165,0.110
11.092,-0.155,0.125
11.094,-0.135,0.155
11.097,-0.130,0.150
11.100,-0.145,0.145
11.103,-0.150,0.150
11.106,-0.135,0.180
11.108,-0.125,0.185
11.111,-0.125,0.180
11.114,-0.145,0.155
11.117,-0.160,0.125
11.119,-0.155,0.125
11.122,-0.145,0.125
11.125,-0.145,0.110
11.128,-0.150,0.090
11.131,-0.175,0.085
11.133,-0.180,0.115
11.136,-0.180,0.125
11.139,-0.165,0.130
11.142,-0.155,0.125
11.144,-0.165,0.105
11.147,-0.195,0.065
11.150,-0.215,0.045
11.153,-0.225,0.070
11.156,-0.230,0.080
11.158,-0.205,0.110
11.161,-0.205,0.105
11.164,-0.225,0.105
11.167,-0.220,0.100
11.169,-0.215,0.110
11.172,-0.200,0.115
11.175,-0.200,0.125
11.178,-0.205,0.120
11.181,-0.230,0.115
11.183,-0.245,0.115
11.186,-0.270,0.130
11.189,-0.270,0.135
11.192,-0.255,0.130
11.194,-0.260,0.135
11.197,-0.280,0.150
11.200,-0.295,0.165
11.203,-0.280,0.175
11.206,-0.260,0.170
11.208,-0.260,0.175
11.211,-0.270,0.165
11.214,-0.285,0.165
11.217,-0.275,0.150
11.219,-0.265,0.165
11.222,-0.250,0.155
11.225,-0.230,0.150
11.228,-0.235,0.125
11.231,-0.275,0.140
11.233,-0.270,0.155
11.236,-0.270,0.175
11.239,-0.265,0.185
11.242,-0.250,0.220
11.244,-0.255,0.220
11.247,-0.300,0.210
11.250,-0.330,0.165
11.253,-0.360,0.160
11.256,-0.335,0.190
11.258,-0.265,0.225
11.261,-0.185,0.255
11.264,-0.055,0.260
11.267,0.105,0.280
11.269,0.335,0.300
11.272,0.620,0.325
11.275,0.890,0.320
11.278,1.095,0.280
11.281,1.160,0.200
11.283,1.030,0.085
11.286,0.745,0.005
11.289,0.370,-0.010
11.292,-0.060,0.025
11.294,-0.540,0.020
11.297,-0.855,-0.020
11.300,-0.925,-0.065
11.303,-0.855,-0.070
11.306,-0.740,-0.050
11.308,-0.630,0.000
11.311,-0.525,0.025
11.314,-0.435,0.070
11.317,-0.370,0.100
11.319,-0.335,0.105
11.322,-0.295,0.085
11.325,-0.270,0.090
11.328,-0.255,0.120
11.331,-0.260,0.125
11.333,-0.260,0.115
11.336,-0.260,0.110
11.339,-0.250,0.130
11.342,-0.240,0.145
11.344,-0.245,0.140
11.347,-0.260,0.130
11.350,-0.260,0.140
11.353,-0.260,0.145
11.356,-0.240,0.160
11.358,-0.240,0.180
11.361,-0.245,0.185
11.364,-0.245,0.175
11.367,-0.245,0.165
11.369,-0.245,0.180
11.372,-0.235,0.200
11.375,-0.235,0.205
11.378,-0.230,0.210
11.381,-0.230,0.195
11.383,-0.220,0.165
11.386,-0.205,0.185
11.389,-0.190,0.205
11.392,-0.175,0.200
11.394,-0.180,0.190
11.397,-0.185,0.175
11.400,-0.190,0.160
11.403,-0.185,0.175
11.406,-0.165,0.185
11.408,-0.160,0.185
11.411,-0.155,0.195
11.414,-0.155,0.200
11.417,-0.140,0.210
11.419,-0.145,0.205
11.422,-0.140,0.205
11.425,-0.110,0.215
11.428,-0.095,0.215
11.431,-0.095,0.200
11.433,-0.075,0.195
11.436,-0.060,0.190
11.439,-0.035,0.185
11.442,-0.030,0.205
11.444,-0.020,0.215
11.447,-0.015,0.210
11.450,-0.005,0.205
11.453,0.015,0.195
11.456,0.020,0.220
11.458,0.025,0.225
11.461,0.025,0.235
11.464,0.035,0.220
11.467,0.030,0.220
11.469,0.040,0.240
11.472,0.060,0.245
11.475,0.080,0.240
11.478,0.070,0.230
11.481,0.065,0.205
11.483,0.055,0.215
11.486,0.060,0.240
11.489,0.080,0.235
11.492,0.105,0.235
11.494,0.110,0.225
11.497,0.090,0.215
11.500,0.090,0.225
11.503,0.085,0.230
11.506,0.100,0.250
11.508,0.100,0.275
11.511,0.085,0.255
11.514,0.075,0.245
11.517,0.075,0.250
11.519,0.065,0.250
11.522,0.080,0.260
11.525,0.095,0.250
11.528,0.075,0.210
11.531,0.055,0.195
11.533,0.045,0.175
11.536,0.015,0.200
11.539,0.010,0.225
11.542,-0.010,0.255
11.544,-0.030,0.235
11.547,-0.050,0.215
11.550,-0.070,0.200
11.553,-0.095,0.200
11.556,-0.080,0.225
11.558,-0.080,0.235
11.561,-0.090,0.250
11.564,-0.095,0.230
11.567,-0.100,0.205
11.569,-0.130,0.200
11.572,-0.130,0.220
11.575,-0.125,0.225
11.578,-0.140,0.230
11.581,-0.140,0.215
11.583,-0.150,0.200
11.586,-0.160,0.215
11.589,-0.160,0.215
11.592,-0.155,0.200
11.594,-0.140,0.195
11.597,-0.160,0.205
11.600,-0.175,0.220
11.603,-0.180,0.235
11.606,-0.165,0.235
11.608,-0.145,0.210
11.611,-0.150,0.195
11.614,-0.170,0.190
11.617,-0.170,0.205
11.619,-0.165,0.235
11.622,-0.140,0.225
11.625,-0.145,0.240
11.628,-0.145,0.225
11.631,-0.150,0.200
11.633,-0.150,0.185
11.636,-0.160,0.190
11.639,-0.145,0.205
11.642,-0.135,0.215
11.644,-0.140,0.235
11.647,-0.155,0.220
11.650,-0.155,0.220
11.653,-0.160,0.210
11.656,-0.160,0.220
11.658,-0.125,0.220
11.661,-0.135,0.200
11.664,-0.145,0.170
11.667,-0.150,0.175
11.669,-0.150,0.185
11.672,-0.150,0.215
11.675,-0.140,0.240
11.678,-0.150,0.235
11.681,-0.150,0.230
11.683,-0.155,0.220
11.686,-0.170,0.230
11.689,-0.140,0.245
11.692,-0.125,0.215
11.694,-0.130,0.200
11.697,-0.155,0.190
11.700,-0.170,0.185
11.703,-0.160,0.205
11.706,-0.140,0.215
11.708,-0.135,0.205
11.711,-0.140,0.200
11.714,-0.155,0.195
11.717,-0.165,0.195
11.719,-0.160,0.200
11.722,-0.120,0.240
11.725,-0.100,0.235
11.728,-0.085,0.225
11.731,-0.085,0.205
11.733,-0.085,0.225
11.736,-0.100,0.250
11.739,-0.105,0.285
11.742,-0.080,0.310
11.744,-0.080,0.300
11.747,-0.060,0.250
11.750,-0.065,0.185
11.753,-0.060,0.155
11.756,-0.055,0.165
11.758,-0.040,0.170
11.761,-0.065,0.190
11.764,-0.070,0.210
11.767,-0.075,0.215
11.769,-0.080,0.205
11.772,-0.065,0.165
11.775,-0.065,0.150
11.778,-0.070,0.150
11.781,-0.095,0.135
11.783,-0.105,0.135
11.786,-0.115,0.130
11.789,-0.125,0.150
11.792,-0.125,0.155
11.794,-0.120,0.140
11.797,-0.110,0.135
11.800,-0.125,0.140
11.803,-0.140,0.155
11.806,-0.115,0.175
11.808,-0.105,0.180
11.811,-0.105,0.180
11.814,-0.120,0.195
11.817,-0.145,0.205
11.819,-0.150,0.220
11.822,-0.150,0.230
11.825,-0.150,0.225
11.828,-0.160,0.215
11.831,-0.195,0.205
11.833,-0.190,0.200
11.836,-0.205,0.200
11.839,-0.185,0.195
11.842,-0.195,0.195
11.844,-0.195,0.195
11.847,-0.220,0.195
11.850,-0.205,0.210
11.853,-0.220,0.215
11.856,-0.200,0.225
11.858,-0.170,0.215
11.861,-0.180,0.215
11.864,-0.180,0.200
11.867,-0.195,0.175
11.869,-0.215,0.180
11.872,-0.195,0.180
11.875,-0.200,0.195
11.878,-0.195,0.185
11.881,-0.215,0.185
11.883,-0.220,0.175
11.886,-0.225,0.205
11.889,-0.225,0.210
11.892,-0.220,0.225
11.894,-0.245,0.205
11.897,-0.275,0.225
11.900,-0.260,0.265
11.903,-0.215,0.295
11.906,-0.095,0.325
11.908,0.065,0.340
11.911,0.250,0.355
11.914,0.490,0.365
11.917,0.725,0.390
11.919,0.990,0.395
11.922,1.235,0.380
11.925,1.330,0.315
11.928,1.225,0.175
11.931,0.925,0.045
11.933,0.545,-0.040
11.936,0.110,-0.045
11.939,-0.350,-0.010
11.942,-0.700,-0.010
11.944,-0.850,-0.035
11.947,-0.825,-0.060
11.950,-0.705,-0.075
11.953,-0.595,-0.050
11.956,-0.470,0.000
11.958,-0.370,0.020
11.961,-0.335,0.035
11.964,-0.290,0.040
11.967,-0.275,0.075
11.969,-0.250,0.115
11.972,-0.220,0.140
11.975,-0.200,0.150
11.978,-0.195,0.145
11.981,-0.205,0.125
11.983,-0.225,0.145
11.986,-0.245,0.145
11.989,-0.215,0.170
11.992,-0.205,0.175
11.994,-0.205,0.180
11.997,-0.240,0.175
12.000,-0.230,0.175
12.003,-0.230,0.175
12.006,-0.215,0.195
12.008,-0.205,0.210
12.011,-0.205,0.210
12.014,-0.230,0.190
12.017,-0.230,0.185
12.019,-0.235,0.225
12.022,-0.205,0.240
12.025,-0.185,0.245
12.028,-0.180,0.245
12.031,-0.185,0.220
12.033,-0.195,0.210
12.036,-0.195,0.200
12.039,-0.170,0.175
12.042,-0.150,0.190
12.044,-0.155,0.205
12.047,-0.155,0.200
12.050,-0.155,0.175
12.053,-0.150,0.135
12.056,-0.130,0.130
12.058,-0.110,0.150
12.061,-0.105,0.195
12.064,-0.115,0.185
12.067,-0.100,0.185
12.069,-0.095,0.190
12.072,-0.085,0.200
12.075,-0.065,0.215
12.078,-0.080,0.230
12.081,-0.075,0.235
12.083,-0.070,0.210
12.086,-0.075,0.205
12.089,-0.045,0.235
12.092,-0.030,0.250
12.094,-0.020,0.255
12.097,-0.015,0.220
12.100,-0.005,0.210
12.103,-0.015,0.215
12.106,0.020,0.245
12.108,0.035,0.245
12.111,0.060,0.230
12.114,0.035,0.215
12.117,0.030,0.215
12.119,0.035,0.230
12.122,0.055,0.260
12.125,0.100,0.280
12.128,0.100,0.275
12.131,0.095,0.265
12.133,0.085,0.240
12.136,0.095,0.230
12.139,0.115,0.230
12.142,0.125,0.230
12.144,0.125,0.215
12.147,0.115,0.210
12.150,0.110,0.215
12.153,0.100,0.225
12.156,0.120,0.255
12.158,0.125,0.250
12.161,0.120,0.235
12.164,0.110,0.225
12.167,0.100,0.225
12.169,0.090,0.240
12.172,0.105,0.255
12.175,0.120,0.270
12.178,0.115,0.275
12.181,0.100,0.260
12.183,0.090,0.245
12.186,0.055,0.220
12.189,0.040,0.230
12.192,0.035,0.235
12.194,0.020,0.240
12.197,0.010,0.240
12.200,-0.015,0.225
12.203,-0.030,0.210
12.206,-0.040,0.180
12.208,-0.050,0.175
12.211,-0.055,0.180
12.214,-0.075,0.180
12.217,-0.095,0.205
12.219,-0.100,0.215
12.222,-0.105,0.240
12.225,-0.095,0.255
12.228,-0.105,0.255
12.231,-0.120,0.210
12.233,-0.125,0.165
12.236,-0.140,0.140
12.239,-0.140,0.160
12.242,-0.135,0.190
12.244,-0.125,0.205
12.247,-0.160,0.210
12.250,-0.155,0.220
12.253,-0.160,0.215
12.256,-0.140,0.220
12.258,-0.135,0.210
12.261,-0.140,0.195
12.264,-0.155,0.190
12.267,-0.155,0.190
12.269,-0.165,0.210
12.272,-0.160,0.220
12.275,-0.135,0.220
12.278,-0.145,0.185
12.281,-0.160,0.165
12.283,-0.160,0.165
12.286,-0.160,0.175
12.289,-0.140,0.175
12.292,-0.140,0.185
12.294,-0.135,0.175
12.297,-0.160,0.165
12.300,-0.145,0.175
12.303,-0.155,0.185
12.306,-0.150,0.205
12.308,-0.130,0.200
12.311,-0.130,0.180
12.314,-0.130,0.165
12.317,-0.140,0.155
12.319,-0.150,0.180
12.322,-0.135,0.215
12.325,-0.120,0.220
12.328,-0.130,0.195
12.331,-0.135,0.175
12.333,-0.150,0.165
12.336,-0.150,0.185
12.339,-0.135,0.195
12.342,-0.115,0.220
12.344,-0.130,0.240
12.347,-0.150,0.225
12.350,-0.145,0.195
12.353,-0.150,0.195
12.356,-0.130,0.185
12.358,-0.125,0.185
12.361,-0.125,0.190
12.364,-0.140,0.175
12.367,-0.145,0.175
12.369,-0.150,0.165
12.372,-0.140,0.175
12.375,-0.125,0.195
12.378,-0.130,0.185
12.381,-0.140,0.175
12.383,-0.125,0.160
12.386,-0.100,0.170
12.389,-0.080,0.175
12.392,-0.055,0.205
12.394,-0.090,0.240
12.397,-0.110,0.235
12.400,-0.095,0.220
12.403,-0.070,0.200
12.406,-0.075,0.200
12.408,-0.050,0.200
12.411,-0.065,0.215
12.414,-0.065,0.215
12.417,-0.085,0.200
12.419,-0.075,0.190
12.422,-0.075,0.190
12.425,-0.060,0.170
12.428,-0.065,0.140
12.431,-0.095,0.105
12.433,-0.110,0.095
12.436,-0.115,0.105
12.439,-0.100,0.130
12.442,-0.090,0.140
12.444,-0.095,0.125
12.447,-0.135,0.115
12.450,-0.140,0.115
12.453,-0.140,0.080
12.456,-0.120,0.080
12.458,-0.125,0.100
12.461,-0.120,0.125
12.464,-0.110,0.130
12.467,-0.115,0.125
12.469,-0.120,0.130
12.472,-0.120,0.150
12.475,-0.125,0.170
12.478,-0.120,0.175
12.481,-0.145,0.160
12.483,-0.185,0.160
12.486,-0.190,0.155
12.489,-0.180,0.160
12.492,-0.165,0.165
12.494,-0.155,0.160
12.497,-0.170,0.165
12.500,-0.190,0.165
12.503,-0.205,0.175
12.506,-0.180,0.190
12.508,-0.175,0.190
12.511,-0.185,0.195
12.514,-0.190,0.195
12.517,-0.195,0.185
12.519,-0.205,0.180
12.522,-0.200,0.180
12.525,-0.185,0.185
12.528,-0.175,0.185
12.531,-0.170,0.185
12.533,-0.195,0.190
12.536,-0.200,0.190
12.539,-0.205,0.200
12.542,-0.175,0.185
12.544,-0.165,0.160
12.547,-0.200,0.140
12.550,-0.240,0.150
12.553,-0.280,0.190
12.556,-0.275,0.250
12.558,-0.235,0.295
12.561,-0.160,0.300
12.564,-0.060,0.295
12.567,0.095,0.270
12.569,0.285,0.270
12.572,0.540,0.305
12.575,0.800,0.325
12.578,1.055,0.310
12.581,1.210,0.265
12.583,1.185,0.165
12.586,0.970,0.065
12.589,0.615,-0.015
12.592,0.195,-0.025
12.594,-0.295,-0.050
12.597,-0.715,-0.075
12.600,-0.850,-0.105
12.603,-0.790,-0.090
12.606,-0.630,-0.065
12.608,-0.495,-0.020
12.611,-0.390,0.010
12.614,-0.340,0.050
12.617,-0.300,0.085
12.619,-0.265,0.130
12.622,-0.235,0.165
12.625,-0.205,0.180
12.628,-0.210,0.185
12.631,-0.220,0.180
12.633,-0.220,0.150
12.636,-0.205,0.150
12.639,-0.210,0.145
12.642,-0.190,0.140
12.644,-0.200,0.150
12.647,-0.205,0.170
12.650,-0.215,0.170
12.653,-0.200,0.190
12.656,-0.190,0.190
12.658,-0.195,0.185
12.661,-0.185,0.170
12.664,-0.195,0.150
12.667,-0.195,0.165
12.669,-0.205,0.175
12.672,-0.185,0.190
12.675,-0.165,0.190
12.678,-0.165,0.180
12.681,-0.190,0.170
12.683,-0.195,0.160
12.686,-0.185,0.180
12.689,-0.180,0.205
12.692,-0.170,0.225
12.694,-0.160,0.205
12.697,-0.155,0.180
12.700,-0.150,0.160
12.703,-0.155,0.165
12.706,-0.135,0.190
12.708,-0.115,0.220
12.711,-0.120,0.245
12.714,-0.120,0.220
12.717,-0.115,0.215
12.719,-0.115,0.205
12.722,-0.085,0.205
12.725,-0.065,0.190
12.728,-0.055,0.180
12.731,-0.070,0.180
12.733,-0.065,0.160
12.736,-0.040,0.185
12.739,-0.025,0.180
12.742,-0.015,0.205
12.744,-0.005,0.220
12.747,-0.015,0.225
12.750,-0.005,0.225
12.753,0.005,0.215
12.756,0.020,0.200
12.758,0.025,0.190
12.761,0.030,0.175
12.764,0.035,0.170
12.767,0.035,0.180
12.769,0.050,0.185
12.772,0.065,0.190
12.775,0.085,0.220
12.778,0.100,0.225
12.781,0.095,0.235
12.783,0.100,0.215
12.786,0.095,0.225
12.789,0.110,0.240
12.792,0.120,0.220
12.794,0.135,0.200
12.797,0.130,0.200
12.800,0.105,0.210
12.803,0.105,0.230
12.806,0.105,0.260
12.808,0.135,0.260
12.811,0.130,0.250
12.814,0.130,0.215
12.817,0.110,0.205
12.819,0.120,0.205
12.822,0.120,0.230
12.825,0.140,0.240
12.828,0.125,0.245
12.831,0.105,0.245
12.833,0.100,0.220
12.836,0.080,0.210
12.839,0.080,0.210
12.842,0.090,0.205
12.844,0.090,0.180
12.847,0.060,0.170
12.850,0.015,0.155
12.853,0.010,0.160
12.856,0.000,0.175
12.858,0.000,0.195
12.861,-0.020,0.195
12.864,-0.055,0.190
12.867,-0.075,0.205
12.869,-0.085,0.210
12.872,-0.085,0.220
12.875,-0.080,0.200
12.878,-0.095,0.180
12.881,-0.115,0.155
12.883,-0.115,0.150
12.886,-0.120,0.150
12.889,-0.105,0.160
12.892,-0.105,0.165
12.894,-0.115,0.165
12.897,-0.120,0.165
12.900,-0.155,0.165
12.903,-0.145,0.180
12.906,-0.150,0.200
12.908,-0.140,0.225
12.911,-0.140,0.235
12.914,-0.155,0.245
12.917,-0.170,0.230
12.919,-0.150,0.205
12.922,-0.150,0.170
12.925,-0.125,0.140
12.928,-0.130,0.120
12.931,-0.125,0.110
12.933,-0.145,0.105
12.936,-0.145,0.120
12.939,-0.130,0.165
12.942,-0.125,0.170
12.944,-0.115,0.165
12.947,-0.130,0.165
12.950,-0.140,0.160
12.953,-0.140,0.175
12.956,-0.140,0.205
12.958,-0.125,0.220
12.961,-0.130,0.225
12.964,-0.155,0.200
12.967,-0.155,0.185
12.969,-0.150,0.160
12.972,-0.150,0.165
12.975,-0.125,0.180
12.978,-0.140,0.160
12.981,-0.155,0.145
12.983,-0.155,0.135
12.986,-0.155,0.120
12.989,-0.150,0.125
12.992,-0.135,0.130
12.994,-0.150,0.130
12.997,-0.175,0.140
13.000,-0.175,0.140
13.003,-0.180,0.155
13.006,-0.165,0.180
13.008,-0.150,0.185
13.011,-0.155,0.185
13.014,-0.165,0.155
13.017,-0.170,0.140
13.019,-0.170,0.150
13.022,-0.150,0.150
13.025,-0.145,0.155
13.028,-0.145,0.155
13.031,-0.160,0.165
13.033,-0.165,0.175
13.036,-0.150,0.185
13.039,-0.125,0.175
13.042,-0.095,0.185
13.044,-0.075,0.150
13.047,-0.105,0.150
13.050,-0.110,0.165
13.053,-0.110,0.195
13.056,-0.110,0.215
13.058,-0.090,0.200
13.061,-0.090,0.190
13.064,-0.085,0.165
13.067,-0.115,0.140
13.069,-0.110,0.140
13.072,-0.110,0.155
13.075,-0.105,0.155
13.078,-0.085,0.135
13.081,-0.100,0.100
13.083,-0.120,0.080
13.086,-0.125,0.100
13.089,-0.125,0.130
13.092,-0.110,0.140
13.094,-0.125,0.090
13.097,-0.125,0.045
13.100,-0.150,0.010
13.103,-0.185,0.025
13.106,-0.180,0.050
13.108,-0.170,0.065
13.111,-0.160,0.070
13.114,-0.165,0.070
13.117,-0.175,0.070
13.119,-0.180,0.075
13.122,-0.160,0.105
13.125,-0.140,0.135
13.128,-0.135,0.140
13.131,-0.165,0.140
13.133,-0.180,0.145
13.136,-0.200,0.135
13.139,-0.205,0.140
13.142,-0.220,0.135
13.144,-0.220,0.125
13.147,-0.230,0.125
13.150,-0.235,0.115
13.153,-0.255,0.115
13.156,-0.235,0.125
13.158,-0.235,0.130
13.161,-0.230,0.135
13.164,-0.255,0.130
13.167,-0.265,0.135
13.169,-0.260,0.150
13.172,-0.250,0.165
13.175,-0.235,0.170
13.178,-0.235,0.160
13.181,-0.235,0.145
13.183,-0.240,0.130
13.186,-0.255,0.120
13.189,-0.230,0.145
13.192,-0.235,0.155
13.194,-0.230,0.165
13.197,-0.235,0.145
13.200,-0.255,0.130
13.203,-0.270,0.135
13.206,-0.285,0.140
13.208,-0.295,0.160
13.211,-0.320,0.180
13.214,-0.340,0.205
13.217,-0.340,0.215
13.219,-0.315,0.255
13.222,-0.240,0.275
13.225,-0.110,0.295
13.228,0.035,0.270
13.231,0.220,0.255
13.233,0.420,0.245
13.236,0.660,0.255
13.239,0.915,0.250
13.242,1.090,0.230
13.244,1.100,0.150
13.247,0.910,0.025
13.250,0.630,-0.100
13.253,0.260,-0.145
13.256,-0.185,-0.130
13.258,-0.620,-0.100
13.261,-0.890,-0.110
13.264,-0.930,-0.110
13.267,-0.855,-0.080
13.269,-0.735,-0.055
13.272,-0.615,-0.030
13.275,-0.505,-0.030
13.278,-0.430,-0.045
13.281,-0.390,-0.050
13.283,-0.360,-0.030
13.286,-0.345,0.015
13.289,-0.325,0.070
13.292,-0.305,0.125
13.294,-0.295,0.150
13.297,-0.295,0.130
13.300,-0.300,0.090
13.303,-0.295,0.070
13.306,-0.280,0.085
13.308,-0.275,0.115
13.311,-0.270,0.120
13.314,-0.260,0.100
13.317,-0.265,0.090
13.319,-0.280,0.095
13.322,-0.265,0.115
13.325,-0.255,0.140
13.328,-0.265,0.145
13.331,-0.280,0.145
13.333,-0.290,0.150
13.336,-0.280,0.160
13.339,-0.260,0.150
13.342,-0.250,0.140
13.344,-0.235,0.115
13.347,-0.250,0.080
13.350,-0.265,0.085
13.353,-0.255,0.110
13.356,-0.245,0.130
13.358,-0.240,0.145
13.361,-0.235,0.155
13.364,-0.245,0.135
13.367,-0.250,0.135
13.369,-0.260,0.150
13.372,-0.235,0.175
13.375,-0.210,0.180
13.378,-0.190,0.155
13.381,-0.190,0.130
13.383,-0.205,0.120
13.386,-0.190,0.130
13.389,-0.165,0.155
13.392,-0.150,0.170
13.394,-0.150,0.185
13.397,-0.135,0.160
13.400,-0.130,0.130
13.403,-0.125,0.140
13.406,-0.095,0.135
13.408,-0.080,0.135
13.411,-0.075,0.125
13.414,-0.065,0.120
13.417,-0.060,0.120
13.419,-0.075,0.155
13.422,-0.035,0.175
13.425,-0.035,0.175
13.428,-0.020,0.170
13.431,-0.025,0.145
13.433,-0.020,0.125
13.436,-0.015,0.155
13.439,-0.005,0.160
13.442,0.010,0.160
13.444,-0.015,0.175
13.447,0.005,0.170
13.450,0.020,0.170
13.453,0.025,0.155
13.456,0.040,0.165
13.458,0.070,0.165
13.461,0.055,0.180
13.464,0.045,0.155
13.467,0.040,0.165
13.469,0.040,0.170
13.472,0.040,0.175
13.475,0.060,0.165
13.478,0.075,0.135
13.481,0.055,0.125
13.483,0.050,0.135
13.486,0.035,0.145
13.489,0.040,0.170
13.492,0.040,0.165
13.494,0.030,0.155
13.497,0.010,0.140
13.500,0.000,0.135
13.503,-0.015,0.140
13.506,-0.015,0.130
13.508,-0.030,0.135
13.511,-0.035,0.115
13.514,-0.060,0.115
13.517,-0.080,0.135
13.519,-0.095,0.155
13.522,-0.105,0.170
13.525,-0.105,0.150
13.528,-0.120,0.150
13.531,-0.140,0.130
13.533,-0.150,0.140
13.536,-0.170,0.130
13.539,-0.180,0.125
13.542,-0.170,0.120
13.544,-0.175,0.125
13.547,-0.205,0.120
13.550,-0.220,0.120
13.553,-0.225,0.140
13.556,-0.215,0.165
13.558,-0.210,0.155
13.561,-0.200,0.150
13.564,-0.215,0.110
13.567,-0.230,0.090
13.569,-0.225,0.095
13.572,-0.230,0.090
13.575,-0.220,0.115
13.578,-0.215,0.115
13.581,-0.225,0.110
13.583,-0.245,0.100
13.586,-0.250,0.100
13.589,-0.235,0.125
13.592,-0.235,0.135
13.594,-0.235,0.120
13.597,-0.255,0.100
13.600,-0.240,0.080
13.603,-0.240,0.080
13.606,-0.245,0.095
13.608,-0.225,0.105
13.611,-0.230,0.115
13.614,-0.250,0.100
13.617,-0.280,0.100
13.619,-0.270,0.105
13.622,-0.280,0.110
13.625,-0.255,0.125
13.628,-0.240,0.125
13.631,-0.245,0.120
13.633,-0.240,0.120
13.636,-0.240,0.135
13.639,-0.215,0.140
13.642,-0.215,0.140
13.644,-0.225,0.115
13.647,-0.240,0.110
13.650,-0.265,0.115
13.653,-0.255,0.120
13.656,-0.230,0.115
13.658,-0.225,0.100
13.661,-0.245,0.085
13.664,-0.255,0.080
13.667,-0.255,0.090
13.669,-0.245,0.105
13.672,-0.230,0.100
13.675,-0.225,0.115
13.678,-0.235,0.105
13.681,-0.230,0.110
13.683,-0.235,0.115
13.686,-0.250,0.125
13.689,-0.245,0.130
13.692,-0.225,0.140
13.694,-0.240,0.145
13.697,-0.245,0.135
13.700,-0.255,0.155
13.703,-0.255,0.165
13.706,-0.235,0.140
13.708,-0.210,0.110
13.711,-0.200,0.095
13.714,-0.205,0.075
13.717,-0.190,0.115
13.719,-0.195,0.150
13.722,-0.180,0.160
13.725,-0.185,0.160
13.728,-0.185,0.130
13.731,-0.190,0.100
13.733,-0.185,0.085
13.736,-0.185,0.085
13.739,-0.185,0.110
13.742,-0.170,0.110
13.744,-0.185,0.095
13.747,-0.185,0.085
13.750,-0.190,0.050
13.753,-0.190,0.040
13.756,-0.175,0.045
13.758,-0.165,0.040
13.761,-0.190,0.040
13.764,-0.215,0.045
13.767,-0.240,0.045
13.769,-0.235,0.050
13.772,-0.230,0.050
13.775,-0.235,0.050
13.778,-0.245,0.055
13.781,-0.260,0.040
13.783,-0.265,0.060
13.786,-0.255,0.065
13.789,-0.250,0.075
13.792,-0.245,0.090
13.794,-0.230,0.080
13.797,-0.215,0.085
13.800,-0.225,0.075
13.803,-0.235,0.085
13.806,-0.245,0.105
13.808,-0.255,0.125
13.811,-0.275,0.120
13.814,-0.305,0.115
13.817,-0.345,0.095
13.819,-0.350,0.100
13.822,-0.325,0.100
13.825,-0.295,0.100
13.828,-0.300,0.090
13.831,-0.305,0.075
13.833,-0.320,0.090
13.836,-0.310,0.085
13.839,-0.270,0.080
13.842,-0.265,0.050
13.844,-0.265,0.040
13.847,-0.305,0.045
13.850,-0.320,0.070
13.853,-0.335,0.100
13.856,-0.315,0.115
13.858,-0.315,0.105
13.861,-0.300,0.100
13.864,-0.295,0.085
13.867,-0.290,0.070
13.869,-0.305,0.075
13.872,-0.290,0.090
13.875,-0.290,0.105
13.878,-0.320,0.095
13.881,-0.350,0.080
13.883,-0.385,0.090
13.886,-0.410,0.140
13.889,-0.410,0.180
13.892,-0.370,0.200
13.894,-0.325,0.200
13.897,-0.205,0.215
13.900,-0.065,0.210
13.903,0.125,0.205
13.906,0.365,0.210
13.908,0.620,0.230
13.911,0.855,0.225
13.914,1.015,0.195
13.917,1.015,0.115
13.919,0.865,0.025
13.922,0.605,-0.045
13.925,0.270,-0.060
13.928,-0.155,-0.055
13.931,-0.625,-0.030
13.933,-0.920,-0.010
13.936,-0.975,0.000
13.939,-0.890,-0.005
13.942,-0.800,-0.040
13.944,-0.715,-0.105
13.947,-0.625,-0.110
13.950,-0.550,-0.060
13.953,-0.485,-0.015
13.956,-0.430,0.045
13.958,-0.390,0.050
13.961,-0.395,0.065
13.964,-0.360,0.070
13.967,-0.355,0.070
13.969,-0.345,0.075
13.972,-0.350,0.080
13.975,-0.340,0.080
13.978,-0.345,0.090
13.981,-0.350,0.070
13.983,-0.340,0.060
13.986,-0.340,0.045
13.989,-0.330,0.070
13.992,-0.325,0.075
13.994,-0.310,0.065
13.997,-0.320,0.055
14.000,-0.335,0.045
14.003,-0.330,0.070
14.006,-0.330,0.085
14.008,-0.315,0.105
14.011,-0.320,0.100
14.014,-0.330,0.100
14.017,-0.335,0.095
14.019,-0.330,0.120
14.022,-0.315,0.150
14.025,-0.305,0.155
14.028,-0.290,0.150
14.031,-0.290,0.120
14.033,-0.290,0.125
14.036,-0.290,0.125
14.039,-0.270,0.140
14.042,-0.250,0.140
14.044,-0.235,0.120
14.047,-0.250,0.100
14.050,-0.250,0.075
14.053,-0.245,0.080
14.056,-0.215,0.075
14.058,-0.205,0.060
14.061,-0.200,0.085
14.064,-0.205,0.105
14.067,-0.205,0.115
14.069,-0.200,0.115
14.072,-0.180,0.105
14.075,-0.145,0.105
14.078,-0.125,0.090
14.081,-0.130,0.060
14.083,-0.120,0.045
14.086,-0.100,0.035
14.089,-0.085,0.070
14.092,-0.060,0.105
14.094,-0.055,0.120
14.097,-0.065,0.130
14.100,-0.060,0.105
14.103,-0.055,0.085
14.106,-0.040,0.090
14.108,-0.035,0.095
14.111,-0.030,0.105
14.114,-0.030,0.095
14.117,-0.025,0.100
14.119,-0.020,0.120
14.122,-0.010,0.140
14.125,0.005,0.175
14.128,0.005,0.185
14.131,0.000,0.185
14.133,0.010,0.165
14.136,0.015,0.155
14.139,0.030,0.115
14.142,0.035,0.105
14.144,0.010,0.105
14.147,0.010,0.105
14.150,0.010,0.100
14.153,0.010,0.090
14.156,0.020,0.105
14.158,0.020,0.105
14.161,0.015,0.120
14.164,0.000,0.115
14.167,-0.015,0.110
14.169,-0.015,0.130
14.172,-0.010,0.135
14.175,-0.020,0.145
14.178,-0.045,0.160
14.181,-0.060,0.135
14.183,-0.090,0.100
14.186,-0.095,0.070
14.189,-0.105,0.070
14.192,-0.100,0.100
14.194,-0.115,0.085
14.197,-0.145,0.085
14.200,-0.170,0.085
14.203,-0.200,0.115
14.206,-0.190,0.130
14.208,-0.195,0.125
14.211,-0.195,0.110
14.214,-0.215,0.090
14.217,-0.250,0.095
14.219,-0.250,0.095
14.222,-0.240,0.100
14.225,-0.230,0.110
14.228,-0.240,0.100
14.231,-0.255,0.095
14.233,-0.275,0.085
14.236,-0.275,0.080
14.239,-0.270,0.085
14.242,-0.255,0.070
14.244,-0.260,0.065
14.247,-0.280,0.080
14.250,-0.275,0.100
14.253,-0.280,0.105
14.256,-0.265,0.110
14.258,-0.245,0.110
14.261,-0.250,0.095
14.264,-0.265,0.065
14.267,-0.265,0.065
14.269,-0.275,0.075
14.272,-0.245,0.105
14.275,-0.245,0.120
14.278,-0.245,0.130
14.281,-0.245,0.115
14.283,-0.255,0.115
14.286,-0.270,0.120
14.289,-0.270,0.130
14.292,-0.240,0.150
14.294,-0.225,0.150
14.297,-0.245,0.130
14.300,-0.255,0.135
14.303,-0.265,0.130
14.306,-0.240,0.125
14.308,-0.230,0.110
14.311,-0.230,0.105
14.314,-0.230,0.090
14.317,-0.250,0.065
14.319,-0.240,0.070
14.322,-0.220,0.075
14.325,-0.200,0.085
14.328,-0.215,0.095
14.331,-0.235,0.085
14.333,-0.265,0.090
14.336,-0.245,0.105
14.339,-0.230,0.095
14.342,-0.225,0.080
14.344,-0.210,0.055
14.347,-0.230,0.050
14.350,-0.220,0.065
14.353,-0.225,0.070
14.356,-0.225,0.075
14.358,-0.210,0.075
14.361,-0.215,0.080
14.364,-0.215,0.055
14.367,-0.240,0.060
14.369,-0.245,0.085
14.372,-0.235,0.095
14.375,-0.210,0.105
14.378,-0.205,0.115
14.381,-0.200,0.115
14.383,-0.190,0.120
14.386,-0.195,0.130
14.389,-0.180,0.140
14.392,-0.175,0.165
14.394,-0.180,0.185
14.397,-0.180,0.195
14.400,-0.165,0.190
14.403,-0.160,0.180
14.406,-0.165,0.150
14.408,-0.165,0.140
14.411,-0.170,0.125
14.414,-0.175,0.085
14.417,-0.180,0.050
14.419,-0.175,0.025
14.422,-0.140,0.000
14.425,-0.145,0.000
14.428,-0.170,0.005
14.431,-0.185,0.005
14.433,-0.185,0.020
14.436,-0.190,0.020
14.439,-0.200,0.040
14.442,-0.205,0.030
14.444,-0.220,0.040
14.447,-0.215,0.020
14.450,-0.225,0.025
14.453,-0.240,0.035
14.456,-0.235,0.045
14.458,-0.220,0.065
14.461,-0.210,0.080
14.464,-0.205,0.090
14.467,-0.225,0.105
14.469,-0.230,0.095
14.472,-0.235,0.100
14.475,-0.250,0.100
14.478,-0.265,0.100
14.481,-0.285,0.100
14.483,-0.305,0.100
14.486,-0.300,0.105
14.489,-0.275,0.115
14.492,-0.275,0.125
14.494,-0.295,0.115
14.497,-0.310,0.125
14.500,-0.315,0.145
14.503,-0.320,0.180
14.506,-0.295,0.190
14.508,-0.285,0.195
14.511,-0.285,0.165
14.514,-0.280,0.120
14.517,-0.275,0.060
14.519,-0.265,0.050
14.522,-0.280,0.060
14.525,-0.265,0.095
14.528,-0.270,0.090
14.531,-0.265,0.095
14.533,-0.285,0.100
14.536,-0.295,0.125
14.539,-0.295,0.150
14.542,-0.310,0.145
14.544,-0.330,0.150
14.547,-0.345,0.165
14.550,-0.345,0.185
14.553,-0.280,0.205
14.556,-0.160,0.230
14.558,-0.015,0.230
14.561,0.180,0.240
14.564,0.420,0.250
14.567,0.685,0.260
14.569,0.940,0.245
14.572,1.140,0.220
14.575,1.155,0.140
14.578,0.960,0.030
14.581,0.600,-0.070
14.583,0.190,-0.115
14.586,-0.275,-0.105
14.589,-0.700,-0.090
14.592,-0.925,-0.060
14.594,-0.935,-0.060
14.597,-0.835,-0.055
14.600,-0.720,-0.065
14.603,-0.590,-0.065
14.606,-0.470,-0.030
14.608,-0.375,0.015
14.611,-0.335,0.075
14.614,-0.325,0.125
14.617,-0.305,0.130
14.619,-0.300,0.110
14.622,-0.280,0.085
14.625,-0.270,0.080
14.628,-0.260,0.065
14.631,-0.285,0.055
14.633,-0.290,0.050
14.636,-0.295,0.080
14.639,-0.290,0.105
14.642,-0.295,0.120
14.644,-0.290,0.130
14.647,-0.285,0.115
14.650,-0.290,0.100
14.653,-0.270,0.115
14.656,-0.265,0.120
14.658,-0.265,0.130
14.661,-0.270,0.140
14.664,-0.270,0.145
14.667,-0.270,0.140
14.669,-0.270,0.155
14.672,-0.245,0.150
14.675,-0.245,0.160
14.678,-0.235,0.150
14.681,-0.245,0.130
14.683,-0.230,0.135
14.686,-0.245,0.185
14.689,-0.235,0.215
14.692,-0.200,0.230
14.694,-0.185,0.185
14.697,-0.175,0.160
14.700,-0.170,0.120
14.703,-0.180,0.120
14.706,-0.160,0.110
14.708,-0.170,0.100
14.711,-0.170,0.105
14.714,-0.160,0.120
14.717,-0.150,0.120
14.719,-0.125,0.120
14.722,-0.110,0.115
14.725,-0.090,0.135
14.728,-0.080,0.145
14.731,-0.070,0.150
14.733,-0.075,0.135
14.736,-0.070,0.135
14.739,-0.050,0.155
14.742,-0.025,0.165
14.744,-0.005,0.150
14.747,0.005,0.150
14.750,-0.020,0.150
14.753,-0.005,0.165
14.756,0.000,0.175
14.758,0.035,0.200
14.761,0.030,0.210
14.764,0.025,0.190
14.767,0.040,0.180
14.769,0.030,0.180
14.772,0.055,0.180
14.775,0.065,0.195
14.778,0.065,0.200
14.781,0.065,0.185
14.783,0.070,0.190
14.786,0.070,0.190
14.789,0.080,0.200
14.792,0.095,0.220
14.794,0.090,0.215
14.797,0.075,0.220
14.800,0.060,0.230
14.803,0.060,0.245
14.806,0.075,0.250
14.808,0.085,0.210
14.811,0.065,0.155
14.814,0.070,0.125
14.817,0.050,0.105
14.819,0.045,0.145
14.822,0.050,0.155
14.825,0.045,0.155
14.828,0.025,0.160
14.831,-0.020,0.140
14.833,-0.035,0.150
14.836,-0.040,0.130
14.839,-0.040,0.145
14.842,-0.040,0.160
14.844,-0.070,0.165
14.847,-0.080,0.170
14.850,-0.095,0.165
14.853,-0.115,0.165
14.856,-0.125,0.190
14.858,-0.125,0.170
14.861,-0.120,0.170
14.864,-0.145,0.145
14.867,-0.150,0.135
14.869,-0.175,0.140
14.872,-0.165,0.155
14.875,-0.155,0.175
14.878,-0.165,0.170
14.881,-0.185,0.165
14.883,-0.215,0.175
14.886,-0.210,0.200
14.889,-0.175,0.185
14.892,-0.155,0.145
14.894,-0.150,0.100
14.897,-0.165,0.095
14.900,-0.180,0.115
14.903,-0.190,0.135
14.906,-0.175,0.165
14.908,-0.155,0.195
14.911,-0.150,0.170
14.914,-0.155,0.105
14.917,-0.150,0.065
14.919,-0.160,0.065
14.922,-0.155,0.115
14.925,-0.145,0.140
14.928,-0.145,0.145
14.931,-0.185,0.135
14.933,-0.175,0.125
14.936,-0.180,0.135
14.939,-0.180,0.145
14.942,-0.170,0.150
14.944,-0.175,0.140
14.947,-0.185,0.120
14.950,-0.190,0.125
14.953,-0.195,0.150
14.956,-0.175,0.170
14.958,-0.155,0.170
14.961,-0.170,0.155
14.964,-0.185,0.135
14.967,-0.195,0.140
14.969,-0.190,0.145
14.972,-0.185,0.145
14.975,-0.165,0.150
14.978,-0.155,0.125
14.981,-0.165,0.095
14.983,-0.160,0.090
14.986,-0.180,0.095
14.989,-0.170,0.115
14.992,-0.150,0.130
14.994,-0.155,0.130
14.997,-0.155,0.130
15.000,-0.165,0.150
15.003,-0.175,0.165
15.006,-0.170,0.180
15.008,-0.155,0.175
15.011,-0.165,0.150
15.014,-0.165,0.115
15.017,-0.165,0.085
15.019,-0.165,0.095
15.022,-0.150,0.105
15.025,-0.140,0.140
15.028,-0.135,0.150
15.031,-0.105,0.155
15.033,-0.110,0.160
15.036,-0.135,0.165
15.039,-0.115,0.165
15.042,-0.100,0.175
15.044,-0.090,0.180
15.047,-0.095,0.140
15.050,-0.100,0.120
15.053,-0.120,0.105
15.056,-0.110,0.115
15.058,-0.105,0.125
15.061,-0.095,0.115
15.064,-0.085,0.105
15.067,-0.100,0.075
15.069,-0.120,0.070
15.072,-0.120,0.095
15.075,-0.125,0.080
15.078,-0.115,0.070
15.081,-0.115,0.050
15.083,-0.135,0.055
15.086,-0.145,0.060
15.089,-0.160,0.070
15.092,-0.155,0.080
15.094,-0.160,0.090
15.097,-0.170,0.070
15.100,-0.160,0.050
15.103,-0.155,0.040
15.106,-0.135,0.045
15.108,-0.135,0.080
15.111,-0.160,0.105
15.114,-0.180,0.115
15.117,-0.180,0.100
15.119,-0.195,0.090
15.122,-0.220,0.090
15.125,-0.220,0.105
15.128,-0.230,0.110
15.131,-0.240,0.115
15.133,-0.260,0.110
15.136,-0.255,0.125
15.139,-0.235,0.145
15.142,-0.225,0.145
15.144,-0.215,0.105
15.147,-0.220,0.095
15.150,-0.235,0.105
15.153,-0.240,0.135
15.156,-0.220,0.155
15.158,-0.225,0.165
15.161,-0.210,0.135
15.164,-0.210,0.120
15.167,-0.235,0.110
15.169,-0.235,0.110
15.172,-0.230,0.130
15.175,-0.200,0.160
15.178,-0.215,0.150
15.181,-0.225,0.150
15.183,-0.235,0.145
15.186,-0.240,0.150
15.189,-0.255,0.140
15.192,-0.275,0.155
15.194,-0.280,0.165
15.197,-0.260,0.185
15.200,-0.230,0.190
15.203,-0.150,0.200
15.206,-0.030,0.220
15.208,0.120,0.235
15.211,0.305,0.250
15.214,0.550,0.260
15.217,0.805,0.255
15.219,1.055,0.245
15.222,1.225,0.205
15.225,1.165,0.110
15.228,0.895,-0.045
15.231,0.485,-0.140
15.233,0.030,-0.170
15.236,-0.465,-0.155
15.239,-0.810,-0.155
15.242,-0.895,-0.170
15.244,-0.800,-0.185
15.247,-0.670,-0.175
15.250,-0.545,-0.130
15.253,-0.455,-0.070
15.256,-0.360,-0.020
15.258,-0.305,0.005
15.261,-0.275,0.025
15.264,-0.240,0.035
15.267,-0.240,0.035
15.269,-0.250,0.060
15.272,-0.245,0.070
15.275,-0.235,0.090
15.278,-0.230,0.100
15.281,-0.225,0.105
15.283,-0.240,0.110
15.286,-0.240,0.095
15.289,-0.225,0.095
15.292,-0.225,0.120
15.294,-0.220,0.110
15.297,-0.225,0.105
15.300,-0.230,0.085
15.303,-0.225,0.105
15.306,-0.205,0.135
15.308,-0.195,0.145
15.311,-0.200,0.140
15.314,-0.205,0.115
15.317,-0.220,0.110
15.319,-0.200,0.105
15.322,-0.180,0.120
15.325,-0.175,0.100
15.328,-0.185,0.095
15.331,-0.165,0.080
15.333,-0.175,0.080
15.336,-0.180,0.085
15.339,-0.175,0.120
15.342,-0.150,0.115
15.344,-0.155,0.130
15.347,-0.145,0.120
15.350,-0.145,0.120
15.353,-0.150,0.130
15.356,-0.135,0.120
15.358,-0.120,0.135
15.361,-0.115,0.135
15.364,-0.095,0.130
15.367,-0.100,0.120
15.369,-0.095,0.125
15.372,-0.080,0.175
15.375,-0.050,0.195
15.378,-0.035,0.175
15.381,-0.035,0.145
15.383,-0.025,0.130
15.386,-0.025,0.135
15.389,0.015,0.155
15.392,0.030,0.160
15.394,0.030,0.150
15.397,0.030,0.145
15.400,0.025,0.160
15.403,0.035,0.170
15.406,0.050,0.200
15.408,0.060,0.235
15.411,0.080,0.220
15.414,0.090,0.200
15.417,0.095,0.160
15.419,0.090,0.145
15.422,0.105,0.145
15.425,0.095,0.155
15.428,0.105,0.155
15.431,0.100,0.160
15.433,0.095,0.160
15.436,0.110,0.175
15.439,0.110,0.190
15.442,0.125,0.200
15.444,0.115,0.195
15.447,0.120,0.175
15.450,0.120,0.140
15.453,0.115,0.125
15.456,0.100,0.145
15.458,0.105,0.155
15.461,0.090,0.140
15.464,0.085,0.135
15.467,0.070,0.125
15.469,0.040,0.145
15.472,0.035,0.135
15.475,0.035,0.120
15.478,0.015,0.120
15.481,0.010,0.115
15.483,-0.030,0.115
15.486,-0.035,0.120
15.489,-0.050,0.130
15.492,-0.065,0.150
15.494,-0.065,0.135
15.497,-0.075,0.100
15.500,-0.105,0.075
15.503,-0.115,0.085
15.506,-0.105,0.105
15.508,-0.105,0.115
15.511,-0.100,0.100
15.514,-0.105,0.080
15.517,-0.125,0.085
15.519,-0.145,0.100
15.522,-0.135,0.145
15.525,-0.110,0.165
15.528,-0.105,0.155
15.531,-0.115,0.135
15.533,-0.135,0.130
15.536,-0.145,0.165
15.539,-0.130,0.175
15.542,-0.120,0.150
15.544,-0.125,0.120
15.547,-0.135,0.085
15.550,-0.145,0.095
15.553,-0.140,0.115
15.556,-0.145,0.110
15.558,-0.125,0.105
15.561,-0.110,0.095
15.564,-0.125,0.100
15.567,-0.140,0.100
15.569,-0.135,0.080
15.572,-0.135,0.090
15.575,-0.135,0.105
15.578,-0.135,0.115
15.581,-0.140,0.125
15.583,-0.150,0.100
15.586,-0.145,0.075
15.589,-0.130,0.090
15.592,-0.110,0.105
15.594,-0.105,0.110
15.597,-0.105,0.100
15.600,-0.125,0.085
15.603,-0.130,0.095
15.606,-0.130,0.105
15.608,-0.130,0.115
15.611,-0.125,0.110
15.614,-0.150,0.105
15.617,-0.145,0.110
15.619,-0.130,0.120
15.622,-0.125,0.135
15.625,-0.110,0.130
15.628,-0.120,0.125
15.631,-0.135,0.120
15.633,-0.130,0.115
15.636,-0.135,0.130
15.639,-0.125,0.150
15.642,-0.115,0.130
15.644,-0.105,0.100
15.647,-0.110,0.095
15.650,-0.095,0.090
15.653,-0.090,0.090
15.656,-0.070,0.105
15.658,-0.055,0.125
15.661,-0.045,0.150
15.664,-0.055,0.165
15.667,-0.065,0.180
15.669,-0.085,0.165
15.672,-0.055,0.130
15.675,-0.040,0.110
15.678,-0.040,0.090
15.681,-0.065,0.070
15.683,-0.065,0.060
15.686,-0.070,0.055
15.689,-0.055,0.060
15.692,-0.055,0.070
15.694,-0.050,0.080
15.697,-0.060,0.080
15.700,-0.085,0.065
15.703,-0.085,0.070
15.706,-0.075,0.055
15.708,-0.085,0.045
15.711,-0.105,0.035
15.714,-0.135,0.040
15.717,-0.150,0.025
15.719,-0.140,0.025
15.722,-0.135,0.010
15.725,-0.120,0.025
15.728,-0.130,0.030
15.731,-0.125,0.035
15.733,-0.130,0.025
15.736,-0.135,0.060
15.739,-0.125,0.070
15.742,-0.135,0.085
15.744,-0.145,0.080
15.747,-0.160,0.075
15.750,-0.190,0.085
15.753,-0.205,0.090
15.756,-0.200,0.105
15.758,-0.190,0.125
15.761,-0.180,0.115
15.764,-0.195,0.100
15.767,-0.195,0.085
15.769,-0.215,0.075
15.772,-0.195,0.080
15.775,-0.175,0.085
15.778,-0.185,0.070
15.781,-0.185,0.070
15.783,-0.190,0.075
15.786,-0.195,0.090
15.789,-0.190,0.095
15.792,-0.180,0.075
15.794,-0.190,0.055
15.797,-0.205,0.050
15.800,-0.215,0.055
15.803,-0.215,0.065
15.806,-0.210,0.070
15.808,-0.220,0.080
15.811,-0.245,0.100
15.814,-0.260,0.130
15.817,-0.250,0.150
15.819,-0.200,0.170
15.822,-0.080,0.190
15.825,0.065,0.200
15.828,0.275,0.215
15.831,0.520,0.220
15.833,0.770,0.235
15.836,1.005,0.245
15.839,1.145,0.185
15.842,1.085,0.070
15.844,0.795,-0.065
15.847,0.370,-0.165
15.850,-0.105,-0.170
15.853,-0.570,-0.160
15.856,-0.820,-0.180
15.858,-0.825,-0.180
15.861,-0.705,-0.180
15.864,-0.565,-0.180
15.867,-0.465,-0.135
15.869,-0.380,-0.080
15.872,-0.305,-0.040
15.875,-0.265,0.015
15.878,-0.245,0.050
15.881,-0.225,0.060
15.883,-0.235,0.050
15.886,-0.245,0.070
15.889,-0.230,0.090
15.892,-0.205,0.090
15.894,-0.200,0.085
15.897,-0.200,0.070
15.900,-0.225,0.060
15.903,-0.215,0.065
15.906,-0.210,0.085
15.908,-0.200,0.090
15.911,-0.200,0.110
15.914,-0.200,0.120
15.917,-0.210,0.105
15.919,-0.205,0.105
15.922,-0.180,0.110
15.925,-0.175,0.095
15.928,-0.170,0.090
15.931,-0.175,0.070
15.933,-0.175,0.065
15.936,-0.170,0.070
15.939,-0.160,0.090
15.942,-0.165,0.105
15.944,-0.160,0.090
15.947,-0.150,0.085
15.950,-0.160,0.090
15.953,-0.145,0.090
15.956,-0.125,0.105
15.958,-0.120,0.120
15.961,-0.100,0.110
15.964,-0.095,0.090
15.967,-0.115,0.090
15.969,-0.110,0.110
15.972,-0.075,0.130
15.975,-0.065,0.130
15.978,-0.055,0.115
15.981,-0.055,0.090
15.983,-0.060,0.065
15.986,-0.060,0.070
15.989,-0.060,0.110
15.992,-0.035,0.125
15.994,-0.025,0.125
15.997,-0.010,0.130
16.000,-0.010,0.110
16.003,-0.010,0.115
16.006,0.005,0.115
16.008,0.030,0.135
16.011,0.055,0.135
16.014,0.065,0.115
16.017,0.060,0.080
16.019,0.050,0.095
16.022,0.060,0.110
16.025,0.075,0.145
16.028,0.090,0.145
16.031,0.080,0.170
16.033,0.060,0.180
16.036,0.070,0.165
16.039,0.095,0.160
16.042,0.120,0.125
16.044,0.120,0.100
16.047,0.115,0.115
16.050,0.110,0.130
16.053,0.110,0.135
16.056,0.110,0.130
16.058,0.125,0.125
16.061,0.120,0.120
16.064,0.110,0.130
16.067,0.110,0.130
16.069,0.095,0.150
16.072,0.105,0.150
16.075,0.105,0.150
16.078,0.100,0.140
16.081,0.080,0.145
16.083,0.070,0.135
16.086,0.065,0.130
16.089,0.060,0.110
16.092,0.045,0.100
16.094,0.035,0.075
16.097,0.010,0.070
16.100,-0.030,0.080
16.103,-0.040,0.095
16.106,-0.050,0.115
16.108,-0.045,0.135
16.111,-0.050,0.125
16.114,-0.090,0.115
16.117,-0.100,0.090
16.119,-0.120,0.070
16.122,-0.120,0.065
16.125,-0.120,0.095
16.128,-0.125,0.110
16.131,-0.125,0.110
16.133,-0.135,0.105
16.136,-0.150,0.095
16.139,-0.145,0.095
16.142,-0.140,0.115
16.144,-0.135,0.120
16.147,-0.130,0.085
16.150,-0.135,0.045
16.153,-0.140,0.060
16.156,-0.150,0.085
16.158,-0.135,0.120
16.161,-0.140,0.125
16.164,-0.130,0.100
16.167,-0.140,0.075
16.169,-0.140,0.070
16.172,-0.140,0.060
16.175,-0.150,0.080
16.178,-0.140,0.080
16.181,-0.130,0.065
16.183,-0.145,0.050
16.186,-0.160,0.075
16.189,-0.150,0.080
16.192,-0.140,0.090
16.194,-0.140,0.075
16.197,-0.135,0.060
16.200,-0.160,0.055
16.203,-0.160,0.065
16.206,-0.160,0.085
16.208,-0.150,0.090
16.211,-0.150,0.065
16.214,-0.145,0.045
16.217,-0.165,0.045
16.219,-0.180,0.055
16.222,-0.175,0.090
16.225,-0.150,0.090
16.228,-0.150,0.085
16.231,-0.160,0.085
16.233,-0.170,0.085
16.236,-0.170,0.095
16.239,-0.170,0.110
16.242,-0.160,0.105
16.244,-0.160,0.100
16.247,-0.180,0.090
16.250,-0.175,0.075
16.253,-0.170,0.080
16.256,-0.150,0.080
16.258,-0.155,0.075
16.261,-0.160,0.045
16.264,-0.160,0.040
16.267,-0.160,0.040
16.269,-0.160,0.050
16.272,-0.135,0.050
16.275,-0.140,0.065
16.278,-0.130,0.065
16.281,-0.120,0.080
16.283,-0.110,0.090
16.286,-0.100,0.090
16.289,-0.085,0.090
16.292,-0.105,0.105
16.294,-0.100,0.105
16.297,-0.105,0.100
16.300,-0.090,0.090
16.303,-0.090,0.085
16.306,-0.080,0.095
16.308,-0.080,0.085
16.311,-0.080,0.060
16.314,-0.085,0.030
16.317,-0.085,0.005
16.319,-0.085,0.010
16.322,-0.090,0.010
16.325,-0.095,0.020
16.328,-0.085,0.000
16.331,-0.120,-0.020
16.333,-0.125,-0.020
16.336,-0.130,-0.010
16.339,-0.140,0.010
16.342,-0.160,0.010
16.344,-0.165,0.000
16.347,-0.155,0.000
16.350,-0.165,-0.010
16.353,-0.175,-0.025
16.356,-0.180,-0.015
16.358,-0.160,0.020
16.361,-0.150,0.050
16.364,-0.140,0.065
16.367,-0.175,0.065
16.369,-0.190,0.060
16.372,-0.190,0.020
16.375,-0.200,0.000
16.378,-0.225,-0.010
16.381,-0.225,0.005
16.383,-0.240,0.020
16.386,-0.240,0.060
16.389,-0.240,0.100
16.392,-0.235,0.135
16.394,-0.220,0.100
16.397,-0.220,0.030
16.400,-0.225,-0.020
16.403,-0.230,-0.005
16.406,-0.235,0.020
16.408,-0.230,0.045
16.411,-0.225,0.040
16.414,-0.230,0.050
16.417,-0.240,0.040
16.419,-0.245,0.025
16.422,-0.240,0.025
16.425,-0.235,0.030
16.428,-0.220,0.035
16.431,-0.240,0.045
16.433,-0.265,0.050
16.436,-0.295,0.065
16.439,-0.310,0.085
16.442,-0.315,0.105
16.444,-0.300,0.150
16.447,-0.255,0.140
16.450,-0.165,0.155
16.453,-0.030,0.155
16.456,0.160,0.170
16.458,0.410,0.200
16.461,0.690,0.240
16.464,0.950,0.185
16.467,1.075,0.100
16.469,1.015,-0.030
16.472,0.785,-0.155
16.475,0.455,-0.235
16.478,0.055,-0.220
16.481,-0.425,-0.210
16.483,-0.820,-0.215
16.486,-0.955,-0.245
16.489,-0.880,-0.250
16.492,-0.745,-0.230
16.494,-0.625,-0.210
16.497,-0.520,-0.190
16.500,-0.440,-0.155
16.503,-0.385,-0.110
16.506,-0.340,-0.080
16.508,-0.310,-0.020
16.511,-0.300,0.010
16.514,-0.285,0.015
16.517,-0.280,0.010
16.519,-0.280,0.015
16.522,-0.285,0.025
16.525,-0.265,0.045
16.528,-0.260,0.045
16.531,-0.265,0.030
16.533,-0.270,0.025
16.536,-0.285,0.030
16.539,-0.275,0.040
16.542,-0.275,0.070
16.544,-0.280,0.080
16.547,-0.275,0.065
16.550,-0.255,0.050
16.553,-0.255,0.050
16.556,-0.250,0.035
16.558,-0.230,0.030
16.561,-0.225,0.010
16.564,-0.230,0.000
16.567,-0.240,0.005
16.569,-0.235,0.010
16.572,-0.225,0.025
16.575,-0.205,0.045
16.578,-0.200,0.025
16.581,-0.190,0.010
16.583,-0.200,0.015
16.586,-0.205,0.020
16.589,-0.195,0.040
16.592,-0.170,0.055
16.594,-0.160,0.050
16.597,-0.150,0.025
16.600,-0.150,0.005
16.603,-0.155,0.015
16.606,-0.125,0.040
16.608,-0.120,0.060
16.611,-0.085,0.060
16.614,-0.080,0.055
16.617,-0.075,0.055
16.619,-0.075,0.040
16.622,-0.050,0.050
16.625,-0.035,0.075
16.628,-0.005,0.080
16.631,-0.010,0.075
16.633,-0.030,0.065
16.636,-0.040,0.055
16.639,-0.035,0.055
16.642,0.015,0.050
16.644,0.030,0.050
16.647,0.025,0.040
16.650,0.005,0.030
16.653,0.005,0.035
16.656,0.020,0.060
16.658,0.040,0.075
16.661,0.045,0.065
16.664,0.035,0.040
16.667,0.015,0.025
16.669,0.025,0.025
16.672,0.035,0.045
16.675,0.065,0.070
16.678,0.070,0.060
16.681,0.065,0.050
16.683,0.040,0.040
16.686,0.035,0.060
16.689,0.025,0.070
16.692,0.040,0.075
16.694,0.040,0.070
16.697,0.025,0.075
16.700,0.000,0.055
16.703,0.010,0.045
16.706,0.000,0.045
16.708,-0.015,0.035
16.711,-0.030,0.015
16.714,-0.055,-0.005
16.717,-0.095,-0.020
16.719,-0.120,-0.005
16.722,-0.125,0.000
16.725,-0.150,0.015
16.728,-0.150,0.025
16.731,-0.180,0.035
16.733,-0.185,0.035
16.736,-0.200,0.040
16.739,-0.205,0.025
16.742,-0.205,0.025
16.744,-0.210,0.020
16.747,-0.230,0.015
16.750,-0.250,0.000
16.753,-0.260,0.000
16.756,-0.265,0.005
16.758,-0.255,0.020
16.761,-0.255,0.030
16.764,-0.245,0.025
16.767,-0.255,0.015
16.769,-0.255,0.010
16.772,-0.265,0.010
16.775,-0.260,0.000
16.778,-0.270,0.010
16.781,-0.280,-0.010
16.783,-0.290,-0.035
16.786,-0.290,-0.020
16.789,-0.270,-0.020
16.792,-0.260,0.005
16.794,-0.255,-0.005
16.797,-0.265,-0.015
16.800,-0.290,-0.025
16.803,-0.270,-0.010
16.806,-0.260,0.005
16.808,-0.250,0.010
16.811,-0.255,0.020
16.814,-0.260,0.025
16.817,-0.270,0.030
16.819,-0.275,0.030
16.822,-0.260,0.000
16.825,-0.250,-0.005
16.828,-0.255,-0.015
16.831,-0.265,-0.040
16.833,-0.260,-0.025
16.836,-0.270,-0.030
16.839,-0.255,0.005
16.842,-0.245,0.025
16.844,-0.255,0.015
16.847,-0.260,-0.005
16.850,-0.265,-0.040
16.853,-0.275,-0.035
16.856,-0.255,-0.005
16.858,-0.245,0.005
16.861,-0.245,0.005
16.864,-0.265,-0.015
16.867,-0.275,-0.025
16.869,-0.280,-0.025
16.872,-0.255,-0.015
16.875,-0.250,-0.020
16.878,-0.250,-0.030
16.881,-0.260,-0.025
16.883,-0.270,-0.030
16.886,-0.275,-0.025
16.889,-0.270,-0.005
16.892,-0.250,0.015
16.894,-0.245,0.005
16.897,-0.245,-0.015
16.900,-0.245,-0.020
16.903,-0.235,-0.020
16.906,-0.205,-0.015
16.908,-0.215,-0.005
16.911,-0.215,-0.015
16.914,-0.230,0.010
16.917,-0.225,0.010
16.919,-0.220,0.015
16.922,-0.210,-0.005
16.925,-0.195,-0.005
16.928,-0.210,-0.020
16.931,-0.225,-0.060
16.933,-0.230,-0.090
16.936,-0.225,-0.080
16.939,-0.220,-0.055
16.942,-0.225,-0.070
16.944,-0.225,-0.095
16.947,-0.225,-0.110
16.950,-0.255,-0.120
16.953,-0.280,-0.115
16.956,-0.275,-0.085
16.958,-0.275,-0.065
16.961,-0.270,-0.055
16.964,-0.275,-0.055
16.967,-0.275,-0.060
16.969,-0.280,-0.055
16.972,-0.280,-0.030
16.975,-0.285,0.000
16.978,-0.300,0.015
16.981,-0.315,0.000
16.983,-0.340,-0.045
16.986,-0.350,-0.070
16.989,-0.350,-0.080
16.992,-0.335,-0.065
16.994,-0.325,-0.060
16.997,-0.345,-0.045
17.000,-0.345,-0.040
17.003,-0.365,-0.030
17.006,-0.355,-0.040
17.008,-0.340,-0.050
17.011,-0.335,-0.055
17.014,-0.340,-0.070
17.017,-0.350,-0.100
17.019,-0.365,-0.105
17.022,-0.360,-0.070
17.025,-0.340,-0.055
17.028,-0.330,-0.055
17.031,-0.345,-0.045
17.033,-0.365,-0.050
17.036,-0.370,-0.030
17.039,-0.385,-0.015
17.042,-0.390,0.015
17.044,-0.410,0.045
17.047,-0.410,0.085
17.050,-0.405,0.080
17.053,-0.325,0.095
17.056,-0.175,0.090
17.058,0.010,0.090
17.061,0.225,0.070
17.064,0.480,0.070
17.067,0.745,0.070
17.069,0.935,0.065
17.072,1.000,0.035
17.075,0.870,-0.045
17.078,0.580,-0.140
17.081,0.235,-0.230
17.083,-0.190,-0.245
17.086,-0.620,-0.220
17.089,-0.950,-0.195
17.092,-1.035,-0.165
17.094,-0.965,-0.170
17.097,-0.895,-0.195
17.100,-0.820,-0.215
17.103,-0.715,-0.215
17.106,-0.605,-0.220
17.108,-0.500,-0.170
17.111,-0.455,-0.155
17.114,-0.420,-0.135
17.117,-0.420,-0.115
17.119,-0.415,-0.080
17.122,-0.385,-0.060
17.125,-0.370,-0.035
17.128,-0.370,-0.040
17.131,-0.375,-0.045
17.133,-0.400,-0.030
17.136,-0.390,-0.015
17.139,-0.380,0.005
17.142,-0.370,0.015
17.144,-0.345,0.000
17.147,-0.350,-0.035
17.150,-0.355,-0.055
17.153,-0.370,-0.065
17.156,-0.365,-0.050
17.158,-0.360,-0.050
17.161,-0.350,-0.030
17.164,-0.360,-0.015
17.167,-0.360,-0.010
17.169,-0.365,-0.005
17.172,-0.345,-0.010
17.175,-0.325,-0.030
17.178,-0.320,-0.035
17.181,-0.335,-0.035
17.183,-0.330,-0.040
17.186,-0.325,-0.040
17.189,-0.315,-0.020
17.192,-0.290,0.000
17.194,-0.285,-0.005
17.197,-0.285,-0.025
17.200,-0.290,-0.040
17.203,-0.285,-0.035
17.206,-0.265,-0.025
