'Elapsed time','MLII','V1'
'seconds','mV','mV'
0.000,-0.065,0.135
0.003,-0.065,0.135
0.006,-0.065,0.135
0.008,-0.065,0.135
0.011,-0.065,0.135
0.014,-0.065,0.135
0.017,-0.065,0.135
0.019,-0.065,0.135
0.022,-0.045,0.135
0.025,-0.035,0.130
0.028,-0.040,0.120
0.031,-0.060,0.115
0.033,-0.075,0.105
0.036,-0.055,0.120
0.039,-0.040,0.130
0.042,-0.040,0.120
0.044,-0.050,0.115
0.047,-0.065,0.115
0.050,-0.070,0.105
0.053,-0.065,0.100
0.056,-0.060,0.115
0.058,-0.060,0.115
0.061,-0.060,0.105
0.064,-0.070,0.085
0.067,-0.075,0.065
0.069,-0.075,0.080
0.072,-0.065,0.095
0.075,-0.070,0.080
0.078,-0.075,0.060
0.081,-0.080,0.050
0.083,-0.085,0.060
0.086,-0.075,0.060
0.089,-0.070,0.060
0.092,-0.075,0.060
0.094,-0.080,0.040
0.097,-0.085,0.040
0.100,-0.090,0.025
0.103,-0.090,0.045
0.106,-0.080,0.060
0.108,-0.070,0.065
0.111,-0.075,0.055
0.114,-0.085,0.060
0.117,-0.090,0.065
0.119,-0.070,0.090
0.122,-0.055,0.100
0.125,-0.040,0.090
0.128,-0.020,0.060
0.131,0.025,0.035
0.133,0.105,0.020
0.136,0.235,0.000
0.139,0.350,-0.015
0.142,0.475,-0.050
0.144,0.585,-0.090
0.147,0.685,-0.125
0.150,0.805,-0.130
0.153,0.915,-0.165
0.156,1.035,-0.220
0.158,1.080,-0.275
0.161,1.080,-0.300
0.164,1.025,-0.305
0.167,0.960,-0.285
0.169,0.860,-0.210
0.172,0.715,-0.140
0.175,0.510,-0.090
0.178,0.305,-0.060
0.181,0.145,-0.030
0.183,0.080,-0.020
0.186,0.030,0.025
0.189,-0.015,0.055
0.192,-0.055,0.070
0.194,-0.095,0.065
0.197,-0.110,0.070
0.200,-0.120,0.075
0.203,-0.135,0.100
0.206,-0.140,0.105
0.208,-0.150,0.090
0.211,-0.165,0.085
0.214,-0.185,0.070
0.217,-0.200,0.055
0.219,-0.195,0.070
0.222,-0.195,0.070
0.225,-0.195,0.060
0.228,-0.215,0.035
0.231,-0.225,0.015
0.233,-0.235,0.010
0.236,-0.250,0.005
0.239,-0.230,0.030
0.242,-0.235,0.040
0.244,-0.250,0.040
0.247,-0.240,0.040
0.250,-0.260,0.030
0.253,-0.255,0.050
0.256,-0.245,0.070
0.258,-0.240,0.075
0.261,-0.260,0.070
0.264,-0.275,0.070
0.267,-0.280,0.085
0.269,-0.280,0.120
0.272,-0.255,0.135
0.275,-0.255,0.130
0.278,-0.250,0.130
0.281,-0.270,0.120
0.283,-0.275,0.115
0.286,-0.275,0.125
0.289,-0.255,0.140
0.292,-0.245,0.140
0.294,-0.240,0.120
0.297,-0.270,0.110
0.300,-0.265,0.110
0.303,-0.255,0.125
0.306,-0.245,0.135
0.308,-0.240,0.135
0.311,-0.240,0.130
0.314,-0.225,0.140
0.317,-0.245,0.120
0.319,-0.235,0.130
0.322,-0.230,0.145
0.325,-0.210,0.135
0.328,-0.225,0.135
0.331,-0.225,0.125
0.333,-0.240,0.105
0.336,-0.240,0.095
0.339,-0.225,0.090
0.342,-0.215,0.060
0.344,-0.235,0.015
0.347,-0.230,-0.005
0.350,-0.235,-0.035
0.353,-0.245,-0.020
0.356,-0.215,-0.005
0.358,-0.195,-0.015
0.361,-0.190,-0.025
0.364,-0.200,-0.030
0.367,-0.215,-0.035
0.369,-0.180,-0.020
0.372,-0.165,0.010
0.375,-0.160,0.025
0.378,-0.140,0.015
0.381,-0.145,0.005
0.383,-0.145,0.015
0.386,-0.130,0.045
0.389,-0.120,0.055
0.392,-0.125,0.065
0.394,-0.125,0.055
0.397,-0.135,0.060
0.400,-0.125,0.050
0.403,-0.105,0.080
0.406,-0.080,0.100
0.408,-0.085,0.105
0.411,-0.090,0.095
0.414,-0.090,0.085
0.417,-0.095,0.085
0.419,-0.095,0.090
0.422,-0.075,0.115
0.425,-0.075,0.095
0.428,-0.070,0.085
0.431,-0.075,0.070
0.433,-0.095,0.075
0.436,-0.095,0.095
0.439,-0.080,0.110
0.442,-0.065,0.105
0.444,-0.080,0.100
0.447,-0.100,0.080
0.450,-0.085,0.095
0.453,-0.100,0.100
0.456,-0.085,0.125
0.458,-0.065,0.120
0.461,-0.080,0.100
0.464,-0.100,0.075
0.467,-0.115,0.045
0.469,-0.100,0.055
0.472,-0.095,0.055
0.475,-0.090,0.035
0.478,-0.085,0.030
0.481,-0.105,0.025
0.483,-0.115,0.015
0.486,-0.110,0.030
0.489,-0.110,0.050
0.492,-0.105,0.040
0.494,-0.105,0.035
0.497,-0.110,0.020
0.500,-0.110,0.020
0.503,-0.100,0.045
0.506,-0.110,0.050
0.508,-0.105,0.050
0.511,-0.105,0.040
0.514,-0.120,0.025
0.517,-0.125,0.035
0.519,-0.120,0.045
0.522,-0.110,0.075
0.525,-0.110,0.070
0.528,-0.115,0.065
0.531,-0.125,0.060
0.533,-0.125,0.075
0.536,-0.125,0.090
0.539,-0.100,0.110
0.542,-0.100,0.120
0.544,-0.105,0.105
0.547,-0.100,0.105
0.550,-0.100,0.095
0.553,-0.105,0.110
0.556,-0.100,0.120
0.558,-0.085,0.105
0.561,-0.095,0.095
0.564,-0.110,0.085
0.567,-0.110,0.070
0.569,-0.095,0.085
0.572,-0.085,0.100
0.575,-0.085,0.090
0.578,-0.100,0.060
0.581,-0.110,0.045
0.583,-0.100,0.020
0.586,-0.085,0.025
0.589,-0.090,0.035
0.592,-0.080,0.030
0.594,-0.085,0.015
0.597,-0.095,0.000
0.600,-0.115,0.005
0.603,-0.090,0.010
0.606,-0.080,0.020
0.608,-0.080,0.020
0.611,-0.095,0.010
0.614,-0.105,-0.005
0.617,-0.110,-0.010
0.619,-0.120,0.000
0.622,-0.110,0.015
0.625,-0.100,0.005
0.628,-0.120,0.005
0.631,-0.120,-0.005
0.633,-0.135,-0.010
0.636,-0.130,0.005
0.639,-0.110,0.025
0.642,-0.105,0.020
0.644,-0.105,0.015
0.647,-0.125,0.005
0.650,-0.140,0.015
0.653,-0.125,0.030
0.656,-0.105,0.060
0.658,-0.110,0.050
0.661,-0.105,0.045
0.664,-0.065,0.015
0.667,-0.005,-0.010
0.669,0.095,-0.010
0.672,0.215,-0.040
0.675,0.335,-0.075
0.678,0.440,-0.105
0.681,0.560,-0.155
0.683,0.685,-0.160
0.686,0.805,-0.150
0.689,0.910,-0.185
0.692,1.000,-0.235
0.694,1.035,-0.275
0.697,1.015,-0.295
0.700,0.955,-0.290
0.703,0.870,-0.260
0.706,0.735,-0.195
0.708,0.570,-0.150
0.711,0.335,-0.135
0.714,0.130,-0.115
0.717,-0.005,-0.095
0.719,-0.060,-0.075
0.722,-0.085,-0.040
0.725,-0.110,-0.020
0.728,-0.145,-0.030
0.731,-0.190,-0.025
0.733,-0.190,-0.020
0.736,-0.200,0.000
0.739,-0.190,0.015
0.742,-0.200,0.010
0.744,-0.225,0.005
0.747,-0.245,0.010
0.750,-0.260,0.005
0.753,-0.270,0.005
0.756,-0.255,0.015
0.758,-0.250,0.015
0.761,-0.260,0.005
0.764,-0.295,-0.010
0.767,-0.310,0.000
0.769,-0.300,0.000
0.772,-0.290,0.015
0.775,-0.285,0.000
0.778,-0.300,0.010
0.781,-0.320,0.000
0.783,-0.340,0.000
0.786,-0.335,0.025
0.789,-0.320,0.030
0.792,-0.325,0.035
0.794,-0.330,0.035
0.797,-0.340,0.025
0.800,-0.350,0.035
0.803,-0.345,0.050
0.806,-0.350,0.065
0.808,-0.355,0.070
0.811,-0.360,0.065
0.814,-0.365,0.060
0.817,-0.370,0.070
0.819,-0.375,0.080
0.822,-0.365,0.095
0.825,-0.360,0.085
0.828,-0.360,0.090
0.831,-0.375,0.085
0.833,-0.375,0.085
0.836,-0.360,0.080
0.839,-0.345,0.110
0.842,-0.330,0.105
0.844,-0.345,0.085
0.847,-0.350,0.075
0.850,-0.345,0.045
0.853,-0.345,0.050
0.856,-0.345,0.070
0.858,-0.325,0.040
0.861,-0.335,0.035
0.864,-0.345,0.030
0.867,-0.340,0.030
0.869,-0.330,0.040
0.872,-0.315,0.055
0.875,-0.305,0.055
0.878,-0.295,0.035
0.881,-0.300,0.020
0.883,-0.315,0.025
0.886,-0.305,0.035
0.889,-0.290,0.035
0.892,-0.285,0.030
0.894,-0.295,0.030
0.897,-0.305,0.030
0.900,-0.305,0.025
0.903,-0.280,0.030
0.906,-0.260,0.040
0.908,-0.255,0.030
0.911,-0.260,0.025
0.914,-0.265,0.010
0.917,-0.270,0.015
0.919,-0.260,0.030
0.922,-0.240,0.035
0.925,-0.225,0.035
0.928,-0.220,0.020
0.931,-0.220,0.020
0.933,-0.230,0.010
0.936,-0.205,0.025
0.939,-0.190,0.035
0.942,-0.175,0.030
0.944,-0.175,0.025
0.947,-0.195,0.010
0.950,-0.180,0.000
0.953,-0.180,0.000
0.956,-0.175,0.015
0.958,-0.170,0.015
0.961,-0.165,0.010
0.964,-0.175,0.005
0.967,-0.170,0.000
0.969,-0.180,0.035
0.972,-0.175,0.040
0.975,-0.180,0.045
0.978,-0.175,0.050
0.981,-0.185,0.030
0.983,-0.180,0.040
0.986,-0.185,0.055
0.989,-0.170,0.070
0.992,-0.165,0.070
0.994,-0.190,0.050
0.997,-0.190,0.040
1.000,-0.190,0.035
1.003,-0.175,0.050
1.006,-0.165,0.075
1.008,-0.165,0.075
1.011,-0.160,0.060
1.014,-0.165,0.060
1.017,-0.185,0.050
1.019,-0.180,0.065
1.022,-0.170,0.085
1.025,-0.175,0.090
1.028,-0.175,0.085
1.031,-0.180,0.080
1.033,-0.190,0.080
1.036,-0.180,0.095
1.039,-0.160,0.100
1.042,-0.140,0.095
1.044,-0.160,0.090
1.047,-0.150,0.075
1.050,-0.165,0.075
1.053,-0.155,0.090
1.056,-0.145,0.100
1.058,-0.145,0.085
1.061,-0.150,0.080
1.064,-0.165,0.075
1.067,-0.145,0.070
1.069,-0.145,0.070
1.072,-0.125,0.075
1.075,-0.130,0.070
1.078,-0.145,0.045
1.081,-0.155,0.035
1.083,-0.160,0.015
1.086,-0.160,0.020
1.089,-0.135,0.035
1.092,-0.140,0.035
1.094,-0.140,0.025
1.097,-0.155,0.010
1.100,-0.180,0.000
1.103,-0.160,0.005
1.106,-0.145,0.030
1.108,-0.135,0.025
1.111,-0.145,0.020
1.114,-0.165,0.020
1.117,-0.170,0.015
1.119,-0.165,0.035
1.122,-0.165,0.040
1.125,-0.155,0.035
1.128,-0.170,0.045
1.131,-0.170,0.025
1.133,-0.180,0.035
1.136,-0.175,0.050
1.139,-0.155,0.055
1.142,-0.160,0.050
1.144,-0.170,0.035
1.147,-0.170,0.030
1.150,-0.185,0.030
1.153,-0.175,0.050
1.156,-0.165,0.060
1.158,-0.170,0.065
1.161,-0.180,0.050
1.164,-0.195,0.040
1.167,-0.205,0.045
1.169,-0.205,0.045
1.172,-0.180,0.070
1.175,-0.170,0.070
1.178,-0.170,0.070
1.181,-0.190,0.055
1.183,-0.190,0.065
1.186,-0.180,0.075
1.189,-0.160,0.095
1.192,-0.145,0.095
1.194,-0.145,0.080
1.197,-0.165,0.055
1.200,-0.160,0.050
1.203,-0.150,0.060
1.206,-0.140,0.055
1.208,-0.125,0.060
1.211,-0.145,0.035
1.214,-0.145,0.030
1.217,-0.155,0.030
1.219,-0.155,0.030
1.222,-0.140,0.035
1.225,-0.145,0.025
1.228,-0.145,0.005
1.231,-0.160,0.000
1.233,-0.160,0.005
1.236,-0.175,0.005
1.239,-0.160,0.015
1.242,-0.145,0.025
1.244,-0.155,0.015
1.247,-0.155,0.000
1.250,-0.160,0.005
1.253,-0.150,0.010
1.256,-0.140,0.040
1.258,-0.130,0.035
1.261,-0.135,0.025
1.264,-0.160,0.025
1.267,-0.170,0.035
1.269,-0.150,0.060
1.272,-0.145,0.070
1.275,-0.115,0.040
1.278,-0.085,0.025
1.281,-0.035,0.000
1.283,0.070,-0.040
1.286,0.180,-0.040
1.289,0.300,-0.065
1.292,0.415,-0.090
1.294,0.510,-0.120
1.297,0.625,-0.145
1.300,0.745,-0.150
1.303,0.855,-0.170
1.306,0.940,-0.220
1.308,0.960,-0.265
1.311,0.965,-0.310
1.314,0.910,-0.340
1.317,0.850,-0.335
1.319,0.765,-0.300
1.322,0.640,-0.250
1.325,0.460,-0.195
1.328,0.235,-0.155
1.331,0.035,-0.115
1.333,-0.070,-0.075
1.336,-0.110,-0.050
1.339,-0.145,0.005
1.342,-0.170,0.020
1.344,-0.205,0.015
1.347,-0.235,0.015
1.350,-0.250,0.025
1.353,-0.250,0.045
1.356,-0.255,0.050
1.358,-0.260,0.050
1.361,-0.265,0.040
1.364,-0.290,0.035
1.367,-0.305,0.035
1.369,-0.315,0.045
1.372,-0.300,0.060
1.375,-0.295,0.040
1.378,-0.305,0.030
1.381,-0.330,0.020
1.383,-0.360,0.030
1.386,-0.370,0.030
1.389,-0.370,0.045
1.392,-0.340,0.045
1.394,-0.350,0.025
1.397,-0.370,0.030
1.400,-0.370,0.020
1.403,-0.380,0.035
1.406,-0.365,0.045
1.408,-0.360,0.040
1.411,-0.375,0.050
1.414,-0.380,0.035
1.417,-0.385,0.035
1.419,-0.390,0.055
1.422,-0.380,0.070
1.425,-0.375,0.070
1.428,-0.395,0.070
1.431,-0.410,0.070
1.433,-0.420,0.065
1.436,-0.405,0.075
1.439,-0.395,0.095
1.442,-0.385,0.090
1.444,-0.395,0.070
1.447,-0.400,0.050
1.450,-0.395,0.065
1.453,-0.390,0.075
1.456,-0.390,0.080
1.458,-0.370,0.085
1.461,-0.375,0.070
1.464,-0.405,0.065
1.467,-0.410,0.065
1.469,-0.405,0.075
1.472,-0.375,0.080
1.475,-0.360,0.085
1.478,-0.385,0.065
1.481,-0.390,0.060
1.483,-0.390,0.070
1.486,-0.390,0.070
1.489,-0.360,0.075
1.492,-0.345,0.085
1.494,-0.355,0.075
1.497,-0.360,0.075
1.500,-0.370,0.075
1.503,-0.345,0.080
1.506,-0.335,0.105
1.508,-0.330,0.090
1.511,-0.335,0.080
1.514,-0.360,0.075
1.517,-0.335,0.075
1.519,-0.330,0.075
1.522,-0.330,0.080
1.525,-0.320,0.080
1.528,-0.315,0.065
1.531,-0.325,0.055
1.533,-0.335,0.050
1.536,-0.325,0.050
1.539,-0.300,0.055
1.542,-0.295,0.055
1.544,-0.290,0.035
1.547,-0.290,0.020
1.550,-0.305,0.015
1.553,-0.295,0.020
1.556,-0.275,0.035
1.558,-0.240,0.035
1.561,-0.245,0.025
1.564,-0.260,0.015
1.567,-0.255,0.020
1.569,-0.260,0.020
1.572,-0.240,0.040
1.575,-0.235,0.035
1.578,-0.230,0.040
1.581,-0.235,0.025
1.583,-0.235,0.015
1.586,-0.235,0.030
1.589,-0.230,0.050
1.592,-0.225,0.050
1.594,-0.230,0.050
1.597,-0.245,0.045
1.600,-0.250,0.050
1.603,-0.245,0.065
1.606,-0.230,0.085
1.608,-0.235,0.090
1.611,-0.240,0.085
1.614,-0.240,0.080
1.617,-0.245,0.085
1.619,-0.260,0.100
1.622,-0.245,0.120
1.625,-0.235,0.115
1.628,-0.250,0.105
1.631,-0.255,0.100
1.633,-0.255,0.095
1.636,-0.250,0.095
1.639,-0.245,0.115
1.642,-0.235,0.105
1.644,-0.260,0.105
1.647,-0.260,0.095
1.650,-0.255,0.095
1.653,-0.250,0.095
1.656,-0.230,0.120
1.658,-0.230,0.115
1.661,-0.235,0.120
1.664,-0.240,0.095
1.667,-0.235,0.090
1.669,-0.245,0.100
1.672,-0.225,0.095
1.675,-0.230,0.085
1.678,-0.230,0.070
1.681,-0.250,0.055
1.683,-0.245,0.045
1.686,-0.250,0.020
1.689,-0.245,0.025
1.692,-0.230,0.015
1.694,-0.230,-0.015
1.697,-0.235,-0.040
1.700,-0.230,-0.060
1.703,-0.190,-0.060
1.706,-0.145,-0.045
1.708,-0.145,-0.030
1.711,-0.240,-0.005
1.714,-0.425,0.025
1.717,-0.625,0.060
1.719,-0.760,0.115
1.722,-0.830,0.160
1.725,-0.880,0.210
1.728,-0.905,0.245
1.731,-0.935,0.295
1.733,-0.930,0.365
1.736,-0.935,0.440
1.739,-0.935,0.520
1.742,-0.955,0.575
1.744,-0.945,0.600
1.747,-0.925,0.625
1.750,-0.905,0.645
1.753,-0.875,0.660
1.756,-0.835,0.615
1.758,-0.795,0.560
1.761,-0.755,0.510
1.764,-0.725,0.510
1.767,-0.695,0.530
1.769,-0.660,0.560
1.772,-0.630,0.610
1.775,-0.620,0.635
1.778,-0.620,0.630
1.781,-0.635,0.665
1.783,-0.610,0.675
1.786,-0.575,0.700
1.789,-0.530,0.725
1.792,-0.525,0.715
1.794,-0.475,0.675
1.797,-0.460,0.600
1.800,-0.420,0.510
1.803,-0.360,0.420
1.806,-0.305,0.360
1.808,-0.280,0.295
1.811,-0.275,0.200
1.814,-0.255,0.125
1.817,-0.240,0.070
1.819,-0.215,0.035
1.822,-0.195,0.010
1.825,-0.180,-0.005
1.828,-0.175,-0.020
1.831,-0.190,-0.035
1.833,-0.185,-0.035
1.836,-0.175,-0.045
1.839,-0.145,-0.030
1.842,-0.140,-0.050
1.844,-0.140,-0.060
1.847,-0.155,-0.090
1.850,-0.150,-0.080
1.853,-0.150,-0.095
1.856,-0.145,-0.090
1.858,-0.125,-0.100
1.861,-0.130,-0.100
1.864,-0.140,-0.110
1.867,-0.150,-0.125
1.869,-0.135,-0.115
1.872,-0.105,-0.115
1.875,-0.105,-0.120
1.878,-0.090,-0.130
1.881,-0.090,-0.145
1.883,-0.070,-0.140
1.886,-0.060,-0.135
1.889,-0.055,-0.130
1.892,-0.040,-0.155
1.894,-0.035,-0.160
1.897,-0.025,-0.180
1.900,-0.035,-0.190
1.903,-0.010,-0.180
1.906,0.005,-0.170
1.908,0.015,-0.165
1.911,0.015,-0.185
1.914,0.000,-0.205
1.917,0.025,-0.205
1.919,0.045,-0.210
1.922,0.060,-0.205
1.925,0.085,-0.200
1.928,0.080,-0.220
1.931,0.085,-0.220
1.933,0.080,-0.225
1.936,0.095,-0.215
1.939,0.110,-0.215
1.942,0.130,-0.225
1.944,0.140,-0.240
1.947,0.145,-0.255
1.950,0.140,-0.270
1.953,0.150,-0.270
1.956,0.160,-0.270
1.958,0.165,-0.270
1.961,0.165,-0.285
1.964,0.165,-0.295
1.967,0.155,-0.295
1.969,0.155,-0.280
1.972,0.180,-0.265
1.975,0.180,-0.260
1.978,0.170,-0.270
1.981,0.160,-0.290
1.983,0.140,-0.290
1.986,0.140,-0.270
1.989,0.150,-0.255
1.992,0.140,-0.245
1.994,0.125,-0.255
1.997,0.095,-0.260
2.000,0.080,-0.255
2.003,0.085,-0.240
2.006,0.065,-0.220
2.008,0.065,-0.220
2.011,0.040,-0.235
2.014,0.015,-0.220
2.017,-0.015,-0.225
2.019,-0.035,-0.210
2.022,-0.050,-0.195
2.025,-0.050,-0.195
2.028,-0.055,-0.185
2.031,-0.080,-0.190
2.033,-0.090,-0.185
2.036,-0.100,-0.170
2.039,-0.110,-0.155
2.042,-0.105,-0.135
2.044,-0.125,-0.145
2.047,-0.150,-0.145
2.050,-0.160,-0.135
2.053,-0.165,-0.115
2.056,-0.155,-0.085
2.058,-0.160,-0.075
2.061,-0.160,-0.080
2.064,-0.195,-0.080
2.067,-0.205,-0.070
2.069,-0.210,-0.040
2.072,-0.190,-0.020
2.075,-0.190,-0.010
2.078,-0.205,-0.005
2.081,-0.215,-0.010
2.083,-0.215,0.015
2.086,-0.220,0.030
2.089,-0.200,0.050
2.092,-0.205,0.060
2.094,-0.200,0.060
2.097,-0.215,0.040
2.100,-0.215,0.050
2.103,-0.235,0.055
2.106,-0.215,0.085
2.108,-0.205,0.065
2.111,-0.215,0.065
2.114,-0.225,0.045
2.117,-0.230,0.045
2.119,-0.235,0.065
2.122,-0.215,0.080
2.125,-0.205,0.080
2.128,-0.210,0.080
2.131,-0.215,0.075
2.133,-0.210,0.070
2.136,-0.210,0.085
2.139,-0.195,0.075
2.142,-0.195,0.080
2.144,-0.200,0.070
2.147,-0.220,0.035
2.150,-0.215,0.030
2.153,-0.210,0.035
2.156,-0.200,0.045
2.158,-0.195,0.050
2.161,-0.205,0.025
2.164,-0.220,0.025
2.167,-0.230,0.010
2.169,-0.240,0.010
2.172,-0.240,0.020
2.175,-0.230,0.000
2.178,-0.235,-0.010
2.181,-0.255,-0.015
2.183,-0.260,-0.030
2.186,-0.260,-0.005
2.189,-0.255,0.005
2.192,-0.240,0.005
2.194,-0.245,-0.010
2.197,-0.280,-0.010
2.200,-0.280,-0.005
2.203,-0.275,0.010
2.206,-0.270,0.020
2.208,-0.265,0.035
2.211,-0.270,0.040
2.214,-0.275,0.030
2.217,-0.290,0.045
2.219,-0.280,0.055
2.222,-0.265,0.065
2.225,-0.265,0.075
2.228,-0.265,0.080
2.231,-0.265,0.070
2.233,-0.275,0.075
2.236,-0.270,0.090
2.239,-0.260,0.115
2.242,-0.250,0.105
2.244,-0.260,0.100
2.247,-0.275,0.080
2.250,-0.280,0.070
2.253,-0.255,0.090
2.256,-0.250,0.095
2.258,-0.245,0.090
2.261,-0.265,0.070
2.264,-0.270,0.075
2.267,-0.265,0.070
2.269,-0.255,0.075
2.272,-0.230,0.090
2.275,-0.235,0.090
2.278,-0.245,0.070
2.281,-0.245,0.070
2.283,-0.250,0.080
2.286,-0.255,0.090
2.289,-0.245,0.090
2.292,-0.230,0.085
2.294,-0.230,0.080
2.297,-0.235,0.050
2.300,-0.245,0.055
2.303,-0.235,0.070
2.306,-0.235,0.070
2.308,-0.235,0.070
2.311,-0.235,0.055
2.314,-0.240,0.020
2.317,-0.255,-0.005
2.319,-0.250,-0.005
2.322,-0.265,-0.020
2.325,-0.260,-0.025
2.328,-0.265,-0.045
2.331,-0.265,-0.060
2.333,-0.260,-0.085
2.336,-0.245,-0.065
2.339,-0.245,-0.060
2.342,-0.235,-0.060
2.344,-0.245,-0.060
2.347,-0.245,-0.055
2.350,-0.230,-0.055
2.353,-0.220,-0.040
2.356,-0.215,-0.020
2.358,-0.205,-0.010
2.361,-0.210,-0.025
2.364,-0.210,-0.025
2.367,-0.220,-0.020
2.369,-0.205,0.000
2.372,-0.190,0.000
2.375,-0.150,0.000
2.378,-0.075,-0.035
2.381,0.010,-0.045
2.383,0.100,-0.065
2.386,0.210,-0.080
2.389,0.315,-0.105
2.392,0.425,-0.110
2.394,0.540,-0.125
2.397,0.645,-0.155
2.400,0.715,-0.210
2.403,0.805,-0.260
2.406,0.850,-0.295
2.408,0.850,-0.330
2.411,0.790,-0.345
2.414,0.680,-0.300
2.417,0.550,-0.235
2.419,0.375,-0.170
2.422,0.180,-0.125
2.425,0.025,-0.085
2.428,-0.065,-0.060
2.431,-0.110,-0.045
2.433,-0.160,-0.025
2.436,-0.200,-0.010
2.439,-0.225,0.010
2.442,-0.230,0.020
2.444,-0.245,0.010
2.447,-0.280,0.000
2.450,-0.295,0.015
2.453,-0.295,0.020
2.456,-0.320,0.020
2.458,-0.305,0.010
2.461,-0.315,-0.005
2.464,-0.335,-0.035
2.467,-0.350,-0.045
2.469,-0.350,-0.045
2.472,-0.350,-0.035
2.475,-0.360,-0.040
2.478,-0.365,-0.045
2.481,-0.375,-0.060
2.483,-0.375,-0.070
2.486,-0.385,-0.040
2.489,-0.365,-0.025
2.492,-0.365,-0.025
2.494,-0.370,-0.025
2.497,-0.380,-0.040
2.500,-0.385,-0.030
2.503,-0.375,-0.005
2.506,-0.355,0.010
2.508,-0.345,0.020
2.511,-0.360,0.020
2.514,-0.370,0.015
2.517,-0.380,0.030
2.519,-0.380,0.035
2.522,-0.375,0.060
2.525,-0.370,0.060
2.528,-0.385,0.065
2.531,-0.390,0.055
2.533,-0.380,0.055
2.536,-0.390,0.090
2.539,-0.365,0.085
2.542,-0.355,0.085
2.544,-0.365,0.085
2.547,-0.375,0.070
2.550,-0.375,0.075
2.553,-0.375,0.070
2.556,-0.360,0.090
2.558,-0.365,0.080
2.561,-0.355,0.065
2.564,-0.375,0.040
2.567,-0.380,0.035
2.569,-0.370,0.045
2.572,-0.355,0.060
2.575,-0.350,0.055
2.578,-0.355,0.050
2.581,-0.370,0.030
2.583,-0.375,0.020
2.586,-0.355,0.010
2.589,-0.340,0.020
2.592,-0.340,0.005
2.594,-0.345,-0.010
2.597,-0.380,-0.030
2.600,-0.360,-0.030
2.603,-0.350,-0.025
2.606,-0.345,-0.025
2.608,-0.335,-0.025
2.611,-0.335,-0.025
2.614,-0.345,-0.035
2.617,-0.355,-0.035
2.619,-0.345,-0.040
2.622,-0.340,-0.025
2.625,-0.325,-0.020
2.628,-0.335,-0.030
2.631,-0.320,-0.030
2.633,-0.320,-0.040
2.636,-0.315,-0.020
2.639,-0.280,-0.010
2.642,-0.270,-0.015
2.644,-0.270,-0.010
2.647,-0.270,-0.025
2.650,-0.265,-0.005
2.653,-0.245,-0.005
2.656,-0.230,0.030
2.658,-0.220,0.035
2.661,-0.215,0.035
2.664,-0.215,0.015
2.667,-0.215,0.020
2.669,-0.200,0.025
2.672,-0.190,0.045
2.675,-0.170,0.045
2.678,-0.175,0.055
2.681,-0.185,0.040
2.683,-0.190,0.045
2.686,-0.180,0.065
2.689,-0.170,0.070
2.692,-0.160,0.070
2.694,-0.180,0.060
2.697,-0.165,0.050
2.700,-0.160,0.040
2.703,-0.160,0.040
2.706,-0.140,0.055
2.708,-0.150,0.040
2.711,-0.155,0.025
2.714,-0.155,-0.005
2.717,-0.160,-0.020
2.719,-0.160,-0.015
2.722,-0.155,-0.010
2.725,-0.155,-0.010
2.728,-0.125,-0.020
2.731,-0.150,-0.035
2.733,-0.160,-0.045
2.736,-0.145,-0.040
2.739,-0.115,-0.015
2.742,-0.105,-0.015
2.744,-0.115,-0.030
2.747,-0.120,-0.025
2.750,-0.140,-0.015
2.753,-0.115,-0.005
2.756,-0.105,0.010
2.758,-0.100,0.020
2.761,-0.110,0.000
2.764,-0.125,-0.005
2.767,-0.130,-0.005
2.769,-0.130,0.010
2.772,-0.115,0.010
2.775,-0.115,0.005
2.778,-0.135,0.000
2.781,-0.135,0.000
2.783,-0.130,0.010
2.786,-0.120,0.000
2.789,-0.115,0.020
2.792,-0.120,0.010
2.794,-0.135,0.010
2.797,-0.130,0.015
2.800,-0.125,0.010
2.803,-0.125,0.035
2.806,-0.105,0.025
2.808,-0.115,0.030
2.811,-0.120,0.025
2.814,-0.130,0.025
2.817,-0.135,0.040
2.819,-0.120,0.065
2.822,-0.125,0.055
2.825,-0.130,0.055
2.828,-0.130,0.065
2.831,-0.145,0.060
2.833,-0.130,0.070
2.836,-0.135,0.065
2.839,-0.115,0.065
2.842,-0.120,0.035
2.844,-0.120,0.020
2.847,-0.135,0.010
2.850,-0.125,0.010
2.853,-0.115,0.020
2.856,-0.090,0.005
2.858,-0.110,-0.010
2.861,-0.110,-0.025
2.864,-0.125,-0.020
2.867,-0.105,-0.025
2.869,-0.090,0.000
2.872,-0.085,-0.005
2.875,-0.085,-0.010
2.878,-0.100,-0.015
2.881,-0.095,-0.015
2.883,-0.090,0.010
2.886,-0.075,0.015
2.889,-0.060,0.015
2.892,-0.080,0.005
2.894,-0.080,0.005
2.897,-0.090,0.010
2.900,-0.090,0.010
2.903,-0.075,0.045
2.906,-0.070,0.030
2.908,-0.080,0.025
2.911,-0.085,0.015
2.914,-0.090,0.010
2.917,-0.090,0.020
2.919,-0.065,0.025
2.922,-0.060,0.030
2.925,-0.065,0.010
2.928,-0.085,0.000
2.931,-0.095,0.000
2.933,-0.090,0.005
2.936,-0.075,0.010
2.939,-0.055,0.005
2.942,-0.065,0.005
2.944,-0.095,-0.020
2.947,-0.095,-0.005
2.950,-0.095,-0.010
2.953,-0.075,0.000
2.956,-0.065,-0.015
2.958,-0.075,-0.040
2.961,-0.075,-0.045
2.964,-0.085,-0.050
2.967,-0.075,-0.045
2.969,-0.050,-0.040
2.972,0.000,-0.055
2.975,0.075,-0.080
2.978,0.150,-0.125
2.981,0.240,-0.150
2.983,0.355,-0.170
2.986,0.465,-0.190
2.989,0.585,-0.210
2.992,0.685,-0.210
2.994,0.780,-0.245
2.997,0.875,-0.275
3.000,0.945,-0.335
3.003,1.005,-0.370
3.006,0.995,-0.375
3.008,0.920,-0.380
3.011,0.840,-0.375
3.014,0.735,-0.335
3.017,0.575,-0.270
3.019,0.410,-0.205
3.022,0.255,-0.165
3.025,0.135,-0.140
3.028,0.055,-0.115
3.031,-0.010,-0.100
3.033,-0.045,-0.060
3.036,-0.080,-0.030
3.039,-0.085,-0.025
3.042,-0.110,-0.020
3.044,-0.125,-0.015
3.047,-0.140,-0.005
3.050,-0.140,-0.005
3.053,-0.145,0.020
3.056,-0.150,0.025
3.058,-0.155,0.035
3.061,-0.180,0.020
3.064,-0.205,0.025
3.067,-0.210,0.040
3.069,-0.200,0.050
3.072,-0.215,0.050
3.075,-0.235,0.030
3.078,-0.240,0.020
3.081,-0.250,0.015
3.083,-0.260,0.020
3.086,-0.275,0.025
3.089,-0.270,0.010
3.092,-0.275,-0.010
3.094,-0.285,-0.020
3.097,-0.315,-0.020
3.100,-0.315,-0.030
3.103,-0.315,-0.020
3.106,-0.300,-0.045
3.108,-0.305,-0.030
3.111,-0.325,-0.035
3.114,-0.325,-0.030
3.117,-0.325,-0.020
3.119,-0.325,-0.020
3.122,-0.325,-0.015
3.125,-0.320,-0.015
3.128,-0.335,-0.005
3.131,-0.340,0.005
3.133,-0.335,0.015
3.136,-0.320,0.035
3.139,-0.315,0.050
3.142,-0.315,0.035
3.144,-0.320,0.045
3.147,-0.335,0.040
3.150,-0.315,0.060
3.153,-0.300,0.065
3.156,-0.295,0.065
3.158,-0.300,0.050
3.161,-0.305,0.040
3.164,-0.320,0.035
3.167,-0.320,0.045
3.169,-0.290,0.045
3.172,-0.280,0.050
3.175,-0.280,0.060
3.178,-0.305,0.030
3.181,-0.295,0.025
3.183,-0.285,0.035
3.186,-0.260,0.045
3.189,-0.260,0.055
3.192,-0.245,0.035
3.194,-0.255,0.040
3.197,-0.255,0.040
3.200,-0.245,0.055
3.203,-0.235,0.060
3.206,-0.220,0.055
3.208,-0.220,0.050
3.211,-0.235,0.030
3.214,-0.225,0.045
3.217,-0.220,0.050
3.219,-0.205,0.050
3.222,-0.190,0.050
3.225,-0.185,0.010
3.228,-0.190,-0.020
3.231,-0.190,-0.060
3.233,-0.170,-0.065
3.236,-0.155,-0.050
3.239,-0.140,-0.060
3.242,-0.140,-0.070
3.244,-0.145,-0.075
3.247,-0.150,-0.075
3.250,-0.130,-0.055
3.253,-0.120,-0.040
3.256,-0.105,-0.035
3.258,-0.120,-0.045
3.261,-0.115,-0.060
3.264,-0.125,-0.035
3.267,-0.120,-0.025
3.269,-0.110,0.000
3.272,-0.105,0.000
3.275,-0.115,0.005
3.278,-0.120,0.000
3.281,-0.125,0.010
3.283,-0.130,0.030
3.286,-0.110,0.050
3.289,-0.085,0.045
3.292,-0.085,0.050
3.294,-0.100,0.050
3.297,-0.110,0.045
3.300,-0.110,0.055
3.303,-0.090,0.070
3.306,-0.075,0.070
3.308,-0.075,0.050
3.311,-0.095,0.040
3.314,-0.110,0.045
3.317,-0.100,0.060
3.319,-0.090,0.085
3.322,-0.080,0.075
3.325,-0.080,0.075
3.328,-0.085,0.060
3.331,-0.085,0.065
3.333,-0.085,0.085
3.336,-0.075,0.080
3.339,-0.065,0.080
3.342,-0.075,0.050
3.344,-0.085,0.050
3.347,-0.100,0.055
3.350,-0.090,0.050
3.353,-0.080,0.065
3.356,-0.075,0.065
3.358,-0.080,0.035
3.361,-0.090,0.015
3.364,-0.110,0.015
3.367,-0.105,0.010
3.369,-0.100,0.005
3.372,-0.085,0.010
3.375,-0.085,0.000
3.378,-0.095,-0.005
3.381,-0.105,-0.010
3.383,-0.090,-0.005
3.386,-0.110,0.025
3.389,-0.090,0.015
3.392,-0.080,0.030
3.394,-0.080,0.025
3.397,-0.105,0.015
3.400,-0.105,0.030
3.403,-0.085,0.045
3.406,-0.075,0.060
3.408,-0.085,0.055
3.411,-0.105,0.045
3.414,-0.105,0.050
3.417,-0.100,0.065
3.419,-0.080,0.090
3.422,-0.075,0.095
3.425,-0.065,0.080
3.428,-0.075,0.080
3.431,-0.085,0.080
3.433,-0.085,0.095
3.436,-0.085,0.100
3.439,-0.070,0.100
3.442,-0.055,0.090
3.444,-0.070,0.075
3.447,-0.090,0.075
3.450,-0.090,0.080
3.453,-0.070,0.080
3.456,-0.060,0.075
3.458,-0.055,0.050
3.461,-0.070,0.030
3.464,-0.080,0.030
3.467,-0.075,0.025
3.469,-0.075,0.025
3.472,-0.045,0.015
3.475,-0.045,0.010
3.478,-0.050,-0.010
3.481,-0.060,-0.005
3.483,-0.060,-0.005
3.486,-0.055,0.005
3.489,-0.045,0.010
3.492,-0.055,-0.005
3.494,-0.055,-0.010
3.497,-0.055,-0.010
3.500,-0.065,-0.010
3.503,-0.065,0.005
3.506,-0.055,0.005
3.508,-0.070,-0.010
3.511,-0.080,-0.005
3.514,-0.105,-0.005
3.517,-0.080,-0.010
3.519,-0.070,-0.005
3.522,-0.070,-0.005
3.525,-0.075,-0.015
3.528,-0.085,-0.015
3.531,-0.100,-0.015
3.533,-0.090,0.015
3.536,-0.080,0.020
3.539,-0.050,0.035
3.542,-0.075,0.025
3.544,-0.085,0.020
3.547,-0.100,0.030
3.550,-0.080,0.045
3.553,-0.050,0.055
3.556,-0.045,0.075
3.558,-0.070,0.075
3.561,-0.055,0.070
3.564,-0.060,0.095
3.567,-0.055,0.105
3.569,-0.035,0.120
3.572,0.000,0.105
3.575,0.040,0.080
3.578,0.110,0.035
3.581,0.210,0.005
3.583,0.305,-0.015
3.586,0.430,-0.035
3.589,0.535,-0.060
3.592,0.650,-0.115
3.594,0.755,-0.125
3.597,0.865,-0.145
3.600,0.960,-0.210
3.603,1.020,-0.270
3.606,1.040,-0.295
3.608,1.000,-0.325
3.611,0.935,-0.340
3.614,0.835,-0.305
3.617,0.705,-0.255
3.619,0.515,-0.195
3.622,0.330,-0.160
3.625,0.170,-0.135
3.628,0.090,-0.110
3.631,0.025,-0.085
3.633,-0.010,-0.055
3.636,-0.050,-0.030
3.639,-0.060,-0.020
3.642,-0.090,-0.025
3.644,-0.110,-0.020
3.647,-0.140,-0.030
3.650,-0.145,-0.030
3.653,-0.145,0.000
3.656,-0.145,0.010
3.658,-0.160,-0.005
3.661,-0.175,-0.005
3.664,-0.200,-0.010
3.667,-0.200,0.010
3.669,-0.195,0.030
3.672,-0.185,0.030
3.675,-0.200,0.020
3.678,-0.220,0.010
3.681,-0.230,0.030
3.683,-0.230,0.055
3.686,-0.225,0.070
3.689,-0.230,0.075
3.692,-0.240,0.070
3.694,-0.250,0.075
3.697,-0.260,0.075
3.700,-0.270,0.105
3.703,-0.265,0.120
3.706,-0.265,0.125
3.708,-0.280,0.120
3.711,-0.275,0.120
3.714,-0.285,0.125
3.717,-0.275,0.125
3.719,-0.260,0.155
3.722,-0.260,0.150
3.725,-0.260,0.135
3.728,-0.260,0.125
3.731,-0.255,0.115
3.733,-0.240,0.125
3.736,-0.240,0.125
3.739,-0.240,0.105
3.742,-0.235,0.085
3.744,-0.250,0.065
3.747,-0.260,0.055
3.750,-0.250,0.055
3.753,-0.240,0.065
3.756,-0.235,0.065
3.758,-0.230,0.075
3.761,-0.245,0.045
3.764,-0.250,0.060
3.767,-0.245,0.060
3.769,-0.225,0.085
3.772,-0.210,0.075
3.775,-0.205,0.070
3.778,-0.225,0.065
3.781,-0.225,0.055
3.783,-0.220,0.055
3.786,-0.205,0.080
3.789,-0.190,0.075
3.792,-0.195,0.080
3.794,-0.205,0.065
3.797,-0.215,0.065
3.800,-0.210,0.090
3.803,-0.195,0.080
3.806,-0.205,0.085
3.808,-0.205,0.080
3.811,-0.215,0.075
3.814,-0.215,0.070
3.817,-0.200,0.085
3.819,-0.180,0.100
3.822,-0.175,0.110
3.825,-0.180,0.095
3.828,-0.180,0.090
3.831,-0.185,0.090
3.833,-0.170,0.095
3.836,-0.140,0.120
3.839,-0.135,0.125
3.842,-0.135,0.130
3.844,-0.140,0.110
3.847,-0.135,0.115
3.850,-0.130,0.135
3.853,-0.120,0.140
3.856,-0.115,0.130
3.858,-0.110,0.115
3.861,-0.110,0.085
3.864,-0.120,0.060
3.867,-0.110,0.070
3.869,-0.095,0.080
3.872,-0.090,0.075
3.875,-0.075,0.065
3.878,-0.085,0.045
3.881,-0.085,0.040
3.883,-0.080,0.045
3.886,-0.070,0.045
3.889,-0.070,0.045
3.892,-0.050,0.060
3.894,-0.060,0.045
3.897,-0.060,0.040
3.900,-0.050,0.050
3.903,-0.050,0.060
3.906,-0.045,0.065
3.908,-0.055,0.065
3.911,-0.045,0.070
3.914,-0.060,0.075
3.917,-0.055,0.090
3.919,-0.030,0.120
3.922,-0.025,0.105
3.925,-0.025,0.105
3.928,-0.035,0.105
3.931,-0.040,0.105
3.933,-0.030,0.130
3.936,-0.025,0.130
3.939,-0.015,0.120
3.942,-0.030,0.125
3.944,-0.030,0.125
3.947,-0.055,0.115
3.950,-0.040,0.120
3.953,-0.035,0.140
3.956,-0.030,0.135
3.958,-0.045,0.135
3.961,-0.065,0.110
3.964,-0.055,0.120
3.967,-0.050,0.120
3.969,-0.025,0.140
3.972,-0.025,0.130
3.975,-0.025,0.130
3.978,-0.040,0.120
3.981,-0.050,0.120
3.983,-0.060,0.140
3.986,-0.050,0.155
3.989,-0.050,0.155
3.992,-0.055,0.140
3.994,-0.065,0.120
3.997,-0.060,0.120
4.000,-0.075,0.130
4.003,-0.065,0.130
4.006,-0.060,0.120
4.008,-0.065,0.120
4.011,-0.080,0.105
4.014,-0.070,0.115
4.017,-0.070,0.125
4.019,-0.065,0.135
4.022,-0.065,0.145
4.025,-0.055,0.135
4.028,-0.065,0.115
4.031,-0.070,0.115
4.033,-0.070,0.130
4.036,-0.050,0.125
4.039,-0.050,0.125
4.042,-0.040,0.120
4.044,-0.050,0.105
4.047,-0.055,0.105
4.050,-0.050,0.125
4.053,-0.040,0.135
4.056,-0.025,0.135
4.058,-0.030,0.140
4.061,-0.035,0.130
4.064,-0.040,0.135
4.067,-0.030,0.145
4.069,-0.020,0.160
4.072,-0.010,0.175
4.075,-0.010,0.160
4.078,-0.010,0.155
4.081,-0.020,0.155
4.083,-0.015,0.160
4.086,-0.015,0.175
4.089,0.005,0.150
4.092,-0.005,0.140
4.094,-0.010,0.135
4.097,-0.025,0.115
4.100,-0.010,0.120
4.103,-0.015,0.105
4.106,0.000,0.095
4.108,-0.005,0.080
4.111,-0.020,0.060
4.114,-0.025,0.050
4.117,-0.030,0.055
4.119,-0.020,0.060
4.122,-0.005,0.065
4.125,-0.020,0.050
4.128,-0.035,0.050
4.131,-0.045,0.060
4.133,-0.035,0.070
4.136,-0.020,0.085
4.139,-0.015,0.095
4.142,-0.015,0.100
4.144,-0.040,0.095
4.147,-0.065,0.090
4.150,-0.075,0.105
4.153,-0.055,0.110
4.156,-0.050,0.100
4.158,-0.055,0.090
4.161,-0.075,0.075
4.164,-0.085,0.100
4.167,-0.080,0.115
4.169,-0.075,0.135
4.172,-0.050,0.120
4.175,-0.075,0.115
4.178,-0.060,0.110
4.181,-0.075,0.115
4.183,-0.075,0.125
4.186,-0.075,0.145
4.189,-0.065,0.135
4.192,-0.065,0.140
4.194,-0.090,0.110
4.197,-0.090,0.115
4.200,-0.075,0.125
4.203,-0.070,0.135
4.206,-0.050,0.140
4.208,-0.055,0.145
4.211,-0.065,0.135
4.214,-0.075,0.135
4.217,-0.060,0.155
4.219,-0.040,0.170
4.222,-0.025,0.170
4.225,-0.025,0.165
4.228,-0.040,0.155
4.231,-0.050,0.165
4.233,-0.030,0.180
4.236,-0.020,0.195
4.239,-0.005,0.185
4.242,-0.015,0.185
4.244,-0.035,0.175
4.247,-0.040,0.180
4.250,-0.040,0.180
4.253,-0.035,0.180
4.256,-0.020,0.180
4.258,-0.045,0.150
4.261,-0.065,0.125
4.264,-0.065,0.115
4.267,-0.060,0.110
4.269,-0.055,0.100
4.272,-0.050,0.085
4.275,-0.040,0.065
4.278,-0.055,0.055
4.281,-0.065,0.055
4.283,-0.060,0.055
4.286,-0.055,0.065
4.289,-0.055,0.065
4.292,-0.060,0.055
4.294,-0.085,0.040
4.297,-0.085,0.055
4.300,-0.095,0.065
4.303,-0.070,0.070
4.306,-0.065,0.075
4.308,-0.075,0.065
4.311,-0.085,0.075
4.314,-0.100,0.065
4.317,-0.110,0.085
4.319,-0.105,0.105
4.322,-0.065,0.115
4.325,-0.075,0.110
4.328,-0.085,0.105
4.331,-0.095,0.110
4.333,-0.085,0.130
4.336,-0.075,0.145
4.339,-0.060,0.145
4.342,-0.055,0.135
4.344,-0.070,0.120
4.347,-0.070,0.125
4.350,-0.070,0.130
4.353,-0.055,0.135
4.356,-0.045,0.135
4.358,-0.050,0.135
4.361,-0.055,0.140
4.364,-0.050,0.145
4.367,-0.050,0.155
4.369,-0.030,0.200
4.372,-0.035,0.190
4.375,-0.010,0.185
4.378,0.035,0.155
4.381,0.105,0.145
4.383,0.205,0.145
4.386,0.320,0.135
4.389,0.445,0.105
4.392,0.540,0.050
4.394,0.640,0.015
4.397,0.755,0.000
4.400,0.880,-0.030
4.403,0.965,-0.080
4.406,1.005,-0.160
4.408,0.985,-0.205
4.411,0.920,-0.230
4.414,0.845,-0.225
4.417,0.750,-0.200
4.419,0.635,-0.150
4.422,0.465,-0.105
4.425,0.260,-0.075
4.428,0.105,-0.045
4.431,0.020,-0.045
4.433,-0.015,-0.010
4.436,-0.055,0.025
4.439,-0.095,0.045
4.442,-0.140,0.060
4.444,-0.180,0.060
4.447,-0.180,0.055
4.450,-0.180,0.085
4.453,-0.190,0.095
4.456,-0.195,0.110
4.458,-0.205,0.095
4.461,-0.235,0.090
4.464,-0.240,0.100
4.467,-0.235,0.125
4.469,-0.240,0.140
4.472,-0.225,0.145
4.475,-0.230,0.160
4.478,-0.250,0.150
4.481,-0.255,0.170
4.483,-0.265,0.175
4.486,-0.260,0.200
4.489,-0.250,0.205
4.492,-0.260,0.210
4.494,-0.265,0.200
4.497,-0.290,0.210
4.500,-0.275,0.235
4.503,-0.275,0.240
4.506,-0.260,0.245
4.508,-0.265,0.235
4.511,-0.275,0.225
4.514,-0.280,0.225
4.517,-0.295,0.235
4.519,-0.285,0.255
4.522,-0.275,0.260
4.525,-0.280,0.255
4.528,-0.295,0.240
4.531,-0.290,0.245
4.533,-0.290,0.275
4.536,-0.275,0.285
4.539,-0.260,0.285
4.542,-0.265,0.260
4.544,-0.270,0.225
4.547,-0.275,0.195
4.550,-0.280,0.190
4.553,-0.260,0.175
4.556,-0.255,0.165
4.558,-0.260,0.145
4.561,-0.275,0.125
4.564,-0.280,0.115
4.567,-0.280,0.115
4.569,-0.260,0.135
4.572,-0.270,0.130
4.575,-0.270,0.125
4.578,-0.295,0.095
4.581,-0.300,0.100
4.583,-0.295,0.115
4.586,-0.280,0.125
4.589,-0.275,0.125
4.592,-0.275,0.115
4.594,-0.290,0.095
4.597,-0.285,0.105
4.600,-0.290,0.110
4.603,-0.275,0.145
4.606,-0.260,0.140
4.608,-0.265,0.140
4.611,-0.270,0.130
4.614,-0.280,0.130
4.617,-0.280,0.135
4.619,-0.280,0.160
4.622,-0.270,0.155
4.625,-0.280,0.180
4.628,-0.285,0.185
4.631,-0.275,0.195
4.633,-0.260,0.200
4.636,-0.245,0.225
4.639,-0.245,0.215
4.642,-0.250,0.225
4.644,-0.245,0.215
4.647,-0.240,0.215
4.650,-0.245,0.225
4.653,-0.210,0.230
4.656,-0.205,0.235
4.658,-0.200,0.225
4.661,-0.190,0.205
4.664,-0.180,0.195
4.667,-0.165,0.210
4.669,-0.165,0.210
4.672,-0.155,0.200
4.675,-0.150,0.180
4.678,-0.150,0.170
4.681,-0.155,0.155
4.683,-0.150,0.175
4.686,-0.120,0.175
4.689,-0.105,0.180
4.692,-0.100,0.160
4.694,-0.115,0.145
4.697,-0.115,0.145
4.700,-0.110,0.145
4.703,-0.095,0.150
4.706,-0.080,0.165
4.708,-0.105,0.165
4.711,-0.095,0.140
4.714,-0.120,0.150
4.717,-0.110,0.165
4.719,-0.100,0.175
4.722,-0.100,0.180
4.725,-0.100,0.165
4.728,-0.105,0.165
4.731,-0.110,0.170
4.733,-0.125,0.175
4.736,-0.110,0.190
4.739,-0.100,0.205
4.742,-0.110,0.195
4.744,-0.120,0.205
4.747,-0.140,0.205
4.750,-0.135,0.225
4.753,-0.120,0.235
4.756,-0.105,0.235
4.758,-0.130,0.240
4.761,-0.135,0.225
4.764,-0.135,0.235
4.767,-0.130,0.235
4.769,-0.135,0.250
4.772,-0.115,0.240
4.775,-0.125,0.245
4.778,-0.140,0.220
4.781,-0.140,0.235
4.783,-0.125,0.240
4.786,-0.115,0.245
4.789,-0.115,0.245
4.792,-0.120,0.230
4.794,-0.120,0.210
4.797,-0.130,0.215
4.800,-0.120,0.215
4.803,-0.110,0.210
4.806,-0.100,0.200
4.808,-0.095,0.190
4.811,-0.095,0.150
4.814,-0.110,0.150
4.817,-0.115,0.165
4.819,-0.110,0.175
4.822,-0.100,0.175
4.825,-0.095,0.170
4.828,-0.090,0.160
4.831,-0.090,0.155
4.833,-0.115,0.175
4.836,-0.090,0.195
4.839,-0.085,0.200
4.842,-0.080,0.185
4.844,-0.085,0.175
4.847,-0.080,0.170
4.850,-0.085,0.180
4.853,-0.080,0.175
4.856,-0.090,0.190
4.858,-0.090,0.195
4.861,-0.105,0.170
4.864,-0.100,0.165
4.867,-0.120,0.165
4.869,-0.095,0.180
4.872,-0.105,0.175
4.875,-0.095,0.175
4.878,-0.100,0.170
4.881,-0.105,0.155
4.883,-0.110,0.185
4.886,-0.100,0.195
4.889,-0.100,0.190
4.892,-0.115,0.185
4.894,-0.125,0.190
4.897,-0.135,0.185
4.900,-0.135,0.185
4.903,-0.120,0.195
4.906,-0.115,0.180
4.908,-0.105,0.155
4.911,-0.125,0.135
4.914,-0.125,0.135
4.917,-0.120,0.150
4.919,-0.110,0.160
4.922,-0.080,0.150
4.925,-0.095,0.145
4.928,-0.095,0.140
4.931,-0.115,0.135
4.933,-0.120,0.135
4.936,-0.085,0.145
4.939,-0.070,0.155
4.942,-0.070,0.140
4.944,-0.090,0.130
4.947,-0.100,0.125
4.950,-0.100,0.125
4.953,-0.095,0.135
4.956,-0.060,0.145
4.958,-0.060,0.140
4.961,-0.080,0.130
4.964,-0.105,0.140
4.967,-0.085,0.140
4.969,-0.070,0.150
4.972,-0.065,0.160
4.975,-0.060,0.155
4.978,-0.065,0.155
4.981,-0.070,0.150
4.983,-0.090,0.170
4.986,-0.070,0.170
4.989,-0.080,0.180
4.992,-0.065,0.180
4.994,-0.065,0.165
4.997,-0.075,0.165
5.000,-0.070,0.175
5.003,-0.060,0.185
5.006,-0.050,0.175
5.008,-0.070,0.170
5.011,-0.070,0.170
5.014,-0.095,0.155
5.017,-0.075,0.170
5.019,-0.045,0.165
5.022,0.010,0.145
5.025,0.090,0.120
5.028,0.175,0.075
5.031,0.280,0.040
5.033,0.390,0.010
5.036,0.535,-0.025
5.039,0.675,-0.065
5.042,0.790,-0.110
5.044,0.890,-0.150
5.047,0.940,-0.205
5.050,0.950,-0.245
5.053,0.915,-0.230
5.056,0.865,-0.215
5.058,0.755,-0.185
5.061,0.610,-0.145
5.064,0.405,-0.075
5.067,0.210,-0.015
5.069,0.075,0.030
5.072,0.020,0.065
5.075,-0.040,0.080
5.078,-0.090,0.105
5.081,-0.145,0.110
5.083,-0.150,0.130
5.086,-0.140,0.145
5.089,-0.135,0.135
5.092,-0.145,0.145
5.094,-0.175,0.115
5.097,-0.185,0.125
5.100,-0.185,0.145
5.103,-0.195,0.170
5.106,-0.180,0.170
5.108,-0.180,0.180
5.111,-0.190,0.165
5.114,-0.195,0.155
5.117,-0.200,0.175
5.119,-0.190,0.195
5.122,-0.195,0.205
5.125,-0.210,0.195
5.128,-0.220,0.185
5.131,-0.215,0.185
5.133,-0.215,0.200
5.136,-0.230,0.220
5.139,-0.220,0.210
5.142,-0.220,0.220
5.144,-0.230,0.195
5.147,-0.240,0.165
5.150,-0.260,0.170
5.153,-0.260,0.155
5.156,-0.250,0.135
5.158,-0.255,0.125
5.161,-0.260,0.110
5.164,-0.270,0.120
5.167,-0.260,0.125
5.169,-0.260,0.135
5.172,-0.260,0.140
5.175,-0.240,0.130
5.178,-0.270,0.125
5.181,-0.275,0.110
5.183,-0.255,0.120
5.186,-0.245,0.145
5.189,-0.245,0.145
5.192,-0.255,0.135
5.194,-0.260,0.115
5.197,-0.270,0.105
5.200,-0.285,0.130
5.203,-0.270,0.150
5.206,-0.270,0.155
5.208,-0.265,0.150
5.211,-0.275,0.145
5.214,-0.280,0.150
5.217,-0.275,0.165
5.219,-0.260,0.175
5.222,-0.240,0.175
5.225,-0.235,0.165
5.228,-0.245,0.175
5.231,-0.255,0.165
5.233,-0.250,0.185
5.236,-0.235,0.205
5.239,-0.230,0.215
5.242,-0.230,0.200
5.244,-0.225,0.200
5.247,-0.220,0.185
5.250,-0.230,0.205
5.253,-0.210,0.200
5.256,-0.195,0.195
5.258,-0.185,0.175
5.261,-0.175,0.155
5.264,-0.175,0.145
5.267,-0.165,0.130
5.269,-0.150,0.150
5.272,-0.130,0.145
5.275,-0.125,0.135
5.278,-0.135,0.105
5.281,-0.115,0.105
5.283,-0.110,0.120
5.286,-0.100,0.130
5.289,-0.080,0.115
5.292,-0.085,0.105
5.294,-0.100,0.095
5.297,-0.095,0.090
5.300,-0.100,0.105
5.303,-0.085,0.115
5.306,-0.065,0.115
5.308,-0.055,0.120
5.311,-0.075,0.120
5.314,-0.080,0.100
5.317,-0.075,0.125
5.319,-0.065,0.135
5.322,-0.050,0.140
5.325,-0.045,0.130
5.328,-0.055,0.130
5.331,-0.080,0.130
5.333,-0.085,0.155
5.336,-0.065,0.150
5.339,-0.065,0.170
5.342,-0.075,0.165
5.344,-0.075,0.160
5.347,-0.080,0.155
5.350,-0.085,0.175
5.353,-0.090,0.195
5.356,-0.065,0.200
5.358,-0.065,0.210
5.361,-0.070,0.210
5.364,-0.075,0.210
5.367,-0.070,0.205
5.369,-0.075,0.235
5.372,-0.065,0.225
5.375,-0.050,0.215
5.378,-0.065,0.190
5.381,-0.070,0.165
5.383,-0.055,0.165
5.386,-0.060,0.155
5.389,-0.035,0.145
5.392,-0.040,0.135
5.394,-0.045,0.130
5.397,-0.050,0.125
5.400,-0.050,0.155
5.403,-0.035,0.160
5.406,-0.015,0.185
5.408,-0.015,0.175
5.411,-0.015,0.160
5.414,-0.025,0.165
5.417,-0.020,0.165
5.419,-0.010,0.180
5.422,0.005,0.180
5.425,0.005,0.165
5.428,-0.010,0.155
5.431,-0.030,0.145
5.433,-0.025,0.160
5.436,-0.005,0.165
5.439,0.000,0.155
5.442,-0.010,0.145
5.444,-0.015,0.130
5.447,-0.040,0.115
5.450,-0.035,0.130
5.453,-0.025,0.150
5.456,-0.020,0.145
5.458,-0.020,0.140
5.461,-0.030,0.140
5.464,-0.045,0.130
5.467,-0.050,0.135
5.469,-0.045,0.165
5.472,-0.030,0.175
5.475,-0.035,0.170
5.478,-0.040,0.170
5.481,-0.055,0.175
5.483,-0.065,0.190
5.486,-0.070,0.195
5.489,-0.065,0.205
5.492,-0.060,0.190
5.494,-0.075,0.180
5.497,-0.085,0.195
5.500,-0.075,0.185
5.503,-0.065,0.205
5.506,-0.055,0.200
5.508,-0.050,0.190
5.511,-0.065,0.185
5.514,-0.070,0.175
5.517,-0.055,0.170
5.519,-0.060,0.190
5.522,-0.045,0.175
5.525,-0.035,0.165
5.528,-0.055,0.145
5.531,-0.055,0.145
5.533,-0.055,0.160
5.536,-0.035,0.175
5.539,-0.010,0.175
5.542,-0.020,0.170
5.544,-0.040,0.155
5.547,-0.035,0.155
5.550,-0.035,0.165
5.553,-0.020,0.170
5.556,-0.005,0.180
5.558,0.000,0.175
5.561,-0.020,0.155
5.564,-0.035,0.160
5.567,-0.030,0.160
5.569,-0.005,0.170
5.572,0.000,0.160
5.575,-0.005,0.155
5.578,0.000,0.145
5.581,-0.015,0.130
5.583,-0.030,0.135
5.586,-0.020,0.130
5.589,0.000,0.125
5.592,-0.005,0.120
5.594,-0.025,0.105
5.597,-0.030,0.095
5.600,-0.035,0.100
5.603,-0.010,0.095
5.606,0.015,0.065
5.608,0.080,0.040
5.611,0.160,0.010
5.614,0.255,-0.025
5.617,0.390,-0.045
5.619,0.505,-0.070
5.622,0.655,-0.085
5.625,0.770,-0.075
5.628,0.880,-0.110
5.631,0.975,-0.160
5.633,1.030,-0.200
5.636,1.030,-0.220
5.639,1.000,-0.220
5.642,0.895,-0.180
5.644,0.760,-0.135
5.647,0.585,-0.075
5.650,0.370,-0.010
5.653,0.210,0.035
5.656,0.100,0.080
5.658,0.025,0.095
5.661,-0.025,0.100
5.664,-0.075,0.120
5.667,-0.100,0.145
5.669,-0.110,0.170
5.672,-0.125,0.155
5.675,-0.125,0.160
5.678,-0.150,0.155
5.681,-0.175,0.160
5.683,-0.175,0.170
5.686,-0.170,0.180
5.689,-0.170,0.180
5.692,-0.180,0.170
5.694,-0.190,0.180
5.697,-0.210,0.180
5.700,-0.195,0.180
5.703,-0.195,0.170
5.706,-0.185,0.165
5.708,-0.185,0.155
5.711,-0.195,0.150
5.714,-0.220,0.125
5.717,-0.225,0.130
5.719,-0.225,0.125
5.722,-0.205,0.120
5.725,-0.205,0.090
5.728,-0.220,0.075
5.731,-0.245,0.075
5.733,-0.255,0.065
5.736,-0.245,0.075
5.739,-0.235,0.065
5.742,-0.235,0.045
5.744,-0.250,0.040
5.747,-0.255,0.050
5.750,-0.255,0.065
5.753,-0.255,0.090
5.756,-0.260,0.090
5.758,-0.245,0.110
5.761,-0.250,0.100
5.764,-0.270,0.100
5.767,-0.265,0.115
5.769,-0.255,0.120
5.772,-0.255,0.155
5.775,-0.250,0.150
5.778,-0.270,0.140
5.781,-0.265,0.150
5.783,-0.265,0.165
5.786,-0.255,0.180
5.789,-0.245,0.185
5.792,-0.245,0.195
5.794,-0.260,0.180
5.797,-0.265,0.190
5.800,-0.250,0.200
5.803,-0.250,0.210
5.806,-0.230,0.195
5.808,-0.245,0.195
5.811,-0.235,0.185
5.814,-0.245,0.170
5.817,-0.240,0.165
5.819,-0.225,0.175
5.822,-0.210,0.170
5.825,-0.210,0.160
5.828,-0.210,0.135
5.831,-0.215,0.125
5.833,-0.195,0.130
5.836,-0.185,0.125
5.839,-0.160,0.115
5.842,-0.145,0.110
5.844,-0.145,0.090
5.847,-0.135,0.085
5.850,-0.120,0.105
5.853,-0.100,0.095
5.856,-0.085,0.100
5.858,-0.080,0.080
5.861,-0.085,0.070
5.864,-0.105,0.085
5.867,-0.110,0.080
5.869,-0.090,0.100
5.872,-0.075,0.095
5.875,-0.070,0.090
5.878,-0.075,0.085
5.881,-0.080,0.085
5.883,-0.075,0.105
5.886,-0.065,0.120
5.889,-0.040,0.130
5.892,-0.055,0.135
5.894,-0.060,0.135
5.897,-0.070,0.135
5.900,-0.070,0.145
5.903,-0.065,0.175
5.906,-0.050,0.170
5.908,-0.045,0.160
5.911,-0.065,0.150
5.914,-0.080,0.165
5.917,-0.085,0.175
5.919,-0.085,0.200
5.922,-0.075,0.190
5.925,-0.075,0.185
5.928,-0.070,0.180
5.931,-0.085,0.175
5.933,-0.100,0.175
5.936,-0.095,0.180
5.939,-0.080,0.165
5.942,-0.065,0.160
5.944,-0.075,0.125
5.947,-0.085,0.115
5.950,-0.080,0.110
5.953,-0.090,0.120
5.956,-0.075,0.130
5.958,-0.080,0.125
5.961,-0.085,0.115
5.964,-0.085,0.115
5.967,-0.085,0.140
5.969,-0.065,0.145
5.972,-0.055,0.140
5.975,-0.040,0.140
5.978,-0.045,0.125
5.981,-0.050,0.120
5.983,-0.050,0.135
5.986,-0.040,0.145
5.989,-0.035,0.145
5.992,-0.045,0.155
5.994,-0.070,0.120
5.997,-0.065,0.125
6.000,-0.065,0.130
6.003,-0.055,0.120
6.006,-0.060,0.140
6.008,-0.055,0.135
6.011,-0.060,0.125
6.014,-0.075,0.110
6.017,-0.085,0.125
6.019,-0.065,0.125
6.022,-0.060,0.125
6.025,-0.070,0.125
6.028,-0.090,0.115
6.031,-0.100,0.095
6.033,-0.095,0.115
6.036,-0.085,0.140
6.039,-0.070,0.125
6.042,-0.080,0.125
6.044,-0.090,0.105
6.047,-0.100,0.105
6.050,-0.090,0.115
6.053,-0.100,0.145
6.056,-0.095,0.125
6.058,-0.090,0.125
6.061,-0.095,0.125
6.064,-0.100,0.115
6.067,-0.095,0.130
6.069,-0.075,0.135
6.072,-0.075,0.130
6.075,-0.065,0.115
6.078,-0.075,0.115
6.081,-0.080,0.110
6.083,-0.090,0.115
6.086,-0.075,0.125
6.089,-0.085,0.120
6.092,-0.075,0.125
6.094,-0.075,0.110
6.097,-0.080,0.120
6.100,-0.080,0.125
6.103,-0.070,0.145
6.106,-0.065,0.150
6.108,-0.060,0.145
6.111,-0.055,0.145
6.114,-0.070,0.145
6.117,-0.080,0.150
6.119,-0.055,0.150
6.122,-0.055,0.155
6.125,-0.060,0.150
6.128,-0.075,0.140
6.131,-0.065,0.130
6.133,-0.065,0.140
6.136,-0.055,0.150
6.139,-0.055,0.150
6.142,-0.055,0.140
6.144,-0.070,0.105
6.147,-0.085,0.085
6.150,-0.085,0.065
6.153,-0.075,0.065
6.156,-0.070,0.050
6.158,-0.060,0.040
6.161,-0.070,0.030
6.164,-0.080,0.025
6.167,-0.075,0.030
6.169,-0.075,0.050
6.172,-0.055,0.045
6.175,-0.050,0.045
6.178,-0.065,0.045
6.181,-0.075,0.040
6.183,-0.075,0.060
6.186,-0.065,0.055
6.189,-0.060,0.055
6.192,-0.070,0.050
6.194,-0.070,0.050
6.197,-0.080,0.040
6.200,-0.090,0.060
6.203,-0.070,0.085
6.206,-0.065,0.085
6.208,-0.065,0.095
6.211,-0.090,0.110
6.214,-0.085,0.105
6.217,-0.075,0.120
6.219,-0.030,0.115
6.222,0.040,0.090
6.225,0.145,0.065
6.228,0.260,0.015
6.231,0.375,-0.005
6.233,0.485,-0.045
6.236,0.600,-0.060
6.239,0.725,-0.050
6.242,0.855,-0.090
6.244,0.925,-0.175
6.247,0.955,-0.225
6.250,0.945,-0.235
6.253,0.905,-0.215
6.256,0.825,-0.190
6.258,0.700,-0.145
6.261,0.505,-0.095
6.264,0.270,-0.050
6.267,0.105,0.000
6.269,0.020,0.035
6.272,-0.020,0.045
6.275,-0.090,0.045
6.278,-0.120,0.025
6.281,-0.160,0.020
6.283,-0.175,0.025
6.286,-0.165,0.035
6.289,-0.195,0.045
6.292,-0.210,0.050
6.294,-0.220,0.025
6.297,-0.230,0.025
6.300,-0.240,0.035
6.303,-0.235,0.065
6.306,-0.245,0.075
6.308,-0.255,0.075
6.311,-0.260,0.065
6.314,-0.270,0.060
6.317,-0.270,0.090
6.319,-0.265,0.100
6.322,-0.265,0.090
6.325,-0.285,0.100
6.328,-0.305,0.100
6.331,-0.305,0.090
6.333,-0.305,0.105
6.336,-0.310,0.140
6.339,-0.290,0.150
6.342,-0.290,0.150
6.344,-0.290,0.140
6.347,-0.290,0.145
6.350,-0.280,0.155
6.353,-0.270,0.155
6.356,-0.260,0.160
6.358,-0.285,0.160
6.361,-0.275,0.145
6.364,-0.295,0.135
6.367,-0.290,0.140
6.369,-0.270,0.165
6.372,-0.275,0.165
6.375,-0.275,0.155
6.378,-0.275,0.140
6.381,-0.280,0.140
6.383,-0.275,0.145
6.386,-0.270,0.135
6.389,-0.255,0.130
6.392,-0.260,0.110
6.394,-0.280,0.100
6.397,-0.270,0.090
6.400,-0.265,0.105
6.403,-0.245,0.120
6.406,-0.245,0.100
6.408,-0.245,0.095
6.411,-0.250,0.075
6.414,-0.260,0.075
6.417,-0.260,0.090
6.419,-0.250,0.100
6.422,-0.240,0.100
6.425,-0.250,0.095
6.428,-0.250,0.060
6.431,-0.260,0.070
6.433,-0.250,0.070
6.436,-0.230,0.085
6.439,-0.220,0.085
6.442,-0.215,0.085
6.444,-0.215,0.055
6.447,-0.215,0.065
6.450,-0.210,0.070
6.453,-0.190,0.070
6.456,-0.175,0.065
6.458,-0.175,0.070
6.461,-0.180,0.065
6.464,-0.200,0.050
6.467,-0.200,0.080
6.469,-0.180,0.105
6.472,-0.165,0.110
6.475,-0.155,0.120
6.478,-0.155,0.110
6.481,-0.150,0.115
6.483,-0.145,0.140
6.486,-0.135,0.155
6.489,-0.125,0.160
6.492,-0.135,0.145
6.494,-0.115,0.130
6.497,-0.130,0.135
6.500,-0.115,0.140
6.503,-0.110,0.160
6.506,-0.110,0.150
6.508,-0.105,0.150
6.511,-0.110,0.150
6.514,-0.130,0.140
6.517,-0.110,0.155
6.519,-0.100,0.160
6.522,-0.090,0.160
6.525,-0.090,0.155
6.528,-0.090,0.150
6.531,-0.110,0.140
6.533,-0.100,0.145
6.536,-0.090,0.140
6.539,-0.080,0.135
6.542,-0.085,0.130
6.544,-0.095,0.110
6.547,-0.120,0.100
6.550,-0.110,0.100
6.553,-0.105,0.095
6.556,-0.100,0.080
6.558,-0.105,0.070
6.561,-0.115,0.050
6.564,-0.120,0.050
6.567,-0.125,0.065
6.569,-0.115,0.060
6.572,-0.100,0.075
6.575,-0.100,0.075
6.578,-0.120,0.070
6.581,-0.135,0.070
6.583,-0.140,0.080
6.586,-0.145,0.100
6.589,-0.125,0.095
6.592,-0.130,0.105
6.594,-0.130,0.090
6.597,-0.160,0.090
6.600,-0.160,0.100
6.603,-0.140,0.135
6.606,-0.130,0.140
6.608,-0.135,0.145
6.611,-0.145,0.145
6.614,-0.150,0.155
6.617,-0.140,0.165
6.619,-0.140,0.185
6.622,-0.130,0.190
6.625,-0.130,0.195
6.628,-0.140,0.180
6.631,-0.140,0.185
6.633,-0.145,0.210
6.636,-0.135,0.210
6.639,-0.110,0.200
6.642,-0.115,0.195
6.644,-0.125,0.180
6.647,-0.130,0.170
6.650,-0.130,0.170
6.653,-0.125,0.195
6.656,-0.100,0.185
6.658,-0.100,0.175
6.661,-0.105,0.155
6.664,-0.115,0.140
6.667,-0.105,0.145
6.669,-0.090,0.145
6.672,-0.075,0.135
6.675,-0.090,0.135
6.678,-0.095,0.110
6.681,-0.105,0.100
6.683,-0.100,0.100
6.686,-0.085,0.105
6.689,-0.065,0.100
6.692,-0.070,0.100
6.694,-0.095,0.075
6.697,-0.110,0.075
6.700,-0.100,0.085
6.703,-0.100,0.095
6.706,-0.085,0.075
6.708,-0.095,0.080
6.711,-0.105,0.060
6.714,-0.120,0.065
6.717,-0.130,0.075
6.719,-0.115,0.085
6.722,-0.125,0.085
6.725,-0.115,0.095
6.728,-0.125,0.075
6.731,-0.140,0.100
6.733,-0.130,0.110
6.736,-0.135,0.115
6.739,-0.140,0.120
6.742,-0.135,0.120
6.744,-0.150,0.110
6.747,-0.155,0.120
6.750,-0.160,0.140
6.753,-0.150,0.140
6.756,-0.140,0.145
6.758,-0.145,0.160
6.761,-0.160,0.150
6.764,-0.170,0.140
6.767,-0.165,0.145
6.769,-0.145,0.160
6.772,-0.130,0.160
6.775,-0.145,0.140
6.778,-0.150,0.135
6.781,-0.170,0.125
6.783,-0.170,0.130
6.786,-0.165,0.145
6.789,-0.150,0.145
6.792,-0.155,0.135
6.794,-0.170,0.115
6.797,-0.165,0.120
6.800,-0.165,0.115
6.803,-0.145,0.125
6.806,-0.135,0.135
6.808,-0.130,0.125
6.811,-0.145,0.125
6.814,-0.135,0.105
6.817,-0.120,0.130
6.819,-0.120,0.120
6.822,-0.105,0.130
6.825,-0.090,0.100
6.828,-0.110,0.110
6.831,-0.115,0.100
6.833,-0.110,0.110
6.836,-0.110,0.115
6.839,-0.095,0.115
6.842,-0.115,0.110
6.844,-0.110,0.090
6.847,-0.120,0.085
6.850,-0.125,0.080
6.853,-0.110,0.085
6.856,-0.110,0.090
6.858,-0.115,0.090
6.861,-0.135,0.085
6.864,-0.140,0.075
6.867,-0.150,0.095
6.869,-0.130,0.105
6.872,-0.130,0.115
6.875,-0.130,0.105
6.878,-0.140,0.105
6.881,-0.145,0.100
6.883,-0.150,0.090
6.886,-0.140,0.120
6.889,-0.135,0.120
6.892,-0.125,0.130
6.894,-0.155,0.110
6.897,-0.140,0.115
6.900,-0.160,0.130
6.903,-0.145,0.135
6.906,-0.130,0.135
6.908,-0.125,0.140
6.911,-0.150,0.120
6.914,-0.150,0.120
6.917,-0.160,0.135
6.919,-0.135,0.145
6.922,-0.135,0.160
6.925,-0.125,0.160
6.928,-0.135,0.155
6.931,-0.140,0.140
6.933,-0.105,0.135
6.936,-0.050,0.120
6.939,0.040,0.110
6.942,0.130,0.075
6.944,0.225,0.035
6.947,0.315,-0.010
6.950,0.420,-0.040
6.953,0.545,-0.055
6.956,0.660,-0.060
6.958,0.780,-0.095
6.961,0.855,-0.155
6.964,0.905,-0.210
6.967,0.920,-0.225
6.969,0.910,-0.225
6.972,0.875,-0.220
6.975,0.805,-0.215
6.978,0.705,-0.170
6.981,0.560,-0.115
6.983,0.360,-0.070
6.986,0.205,-0.015
6.989,0.080,0.015
6.992,0.015,0.030
6.994,-0.025,0.050
6.997,-0.075,0.055
7.000,-0.120,0.095
7.003,-0.155,0.125
7.006,-0.170,0.120
7.008,-0.180,0.120
7.011,-0.205,0.110
7.014,-0.235,0.095
7.017,-0.245,0.085
7.019,-0.245,0.105
7.022,-0.245,0.105
7.025,-0.245,0.110
7.028,-0.265,0.100
7.031,-0.290,0.095
7.033,-0.285,0.090
7.036,-0.280,0.105
7.039,-0.270,0.095
7.042,-0.280,0.100
7.044,-0.295,0.095
7.047,-0.305,0.095
7.050,-0.310,0.105
7.053,-0.310,0.110
7.056,-0.305,0.120
7.058,-0.305,0.105
7.061,-0.330,0.110
7.064,-0.350,0.120
7.067,-0.345,0.125
7.069,-0.340,0.135
7.072,-0.330,0.150
7.075,-0.330,0.145
7.078,-0.340,0.135
7.081,-0.350,0.145
7.083,-0.345,0.160
7.086,-0.335,0.170
7.089,-0.340,0.170
7.092,-0.320,0.160
7.094,-0.335,0.155
7.097,-0.345,0.150
7.100,-0.350,0.155
7.103,-0.335,0.160
7.106,-0.330,0.165
7.108,-0.335,0.155
7.111,-0.350,0.160
7.114,-0.340,0.160
7.117,-0.340,0.175
7.119,-0.320,0.195
7.122,-0.315,0.200
7.125,-0.315,0.190
7.128,-0.320,0.185
7.131,-0.315,0.165
7.133,-0.310,0.160
7.136,-0.295,0.180
7.139,-0.290,0.155
7.142,-0.285,0.155
7.144,-0.295,0.150
7.147,-0.315,0.130
7.150,-0.310,0.135
7.153,-0.295,0.140
7.156,-0.285,0.120
7.158,-0.270,0.120
7.161,-0.300,0.110
7.164,-0.305,0.095
7.167,-0.315,0.105
7.169,-0.300,0.110
7.172,-0.270,0.115
7.175,-0.270,0.100
7.178,-0.285,0.090
7.181,-0.285,0.095
7.183,-0.285,0.095
7.186,-0.285,0.110
7.189,-0.270,0.110
7.192,-0.270,0.120
7.194,-0.260,0.110
7.197,-0.265,0.110
7.200,-0.275,0.125
7.203,-0.260,0.125
7.206,-0.245,0.140
7.208,-0.255,0.135
7.211,-0.250,0.135
7.214,-0.240,0.155
7.217,-0.240,0.155
7.219,-0.225,0.175
7.222,-0.215,0.170
7.225,-0.210,0.190
7.228,-0.190,0.175
7.231,-0.205,0.180
7.233,-0.190,0.180
7.236,-0.180,0.195
7.239,-0.170,0.200
7.242,-0.175,0.185
7.244,-0.170,0.165
7.247,-0.170,0.145
7.250,-0.155,0.145
7.253,-0.150,0.150
7.256,-0.140,0.155
7.258,-0.150,0.140
7.261,-0.150,0.125
7.264,-0.160,0.130
7.267,-0.145,0.135
7.269,-0.135,0.135
7.272,-0.120,0.130
7.275,-0.120,0.130
7.278,-0.130,0.115
7.281,-0.150,0.105
7.283,-0.135,0.115
7.286,-0.130,0.120
7.289,-0.130,0.120
7.292,-0.130,0.105
7.294,-0.140,0.100
7.297,-0.165,0.090
7.300,-0.160,0.100
7.303,-0.155,0.115
7.306,-0.145,0.115
7.308,-0.155,0.125
7.311,-0.175,0.120
7.314,-0.185,0.115
7.317,-0.180,0.140
7.319,-0.175,0.145
7.322,-0.180,0.160
7.325,-0.165,0.160
7.328,-0.170,0.160
7.331,-0.185,0.155
7.333,-0.190,0.165
7.336,-0.170,0.175
7.339,-0.170,0.175
7.342,-0.175,0.180
7.344,-0.180,0.155
7.347,-0.190,0.160
7.350,-0.190,0.170
7.353,-0.185,0.180
7.356,-0.175,0.200
7.358,-0.175,0.180
7.361,-0.185,0.180
7.364,-0.195,0.165
7.367,-0.185,0.170
7.369,-0.175,0.185
7.372,-0.155,0.180
7.375,-0.165,0.160
7.378,-0.175,0.140
7.381,-0.185,0.135
7.383,-0.165,0.140
7.386,-0.150,0.135
7.389,-0.140,0.130
7.392,-0.150,0.115
7.394,-0.175,0.110
7.397,-0.170,0.100
7.400,-0.170,0.105
7.403,-0.160,0.110
7.406,-0.155,0.115
7.408,-0.160,0.115
7.411,-0.165,0.110
7.414,-0.165,0.100
7.417,-0.155,0.120
7.419,-0.155,0.135
7.422,-0.145,0.135
7.425,-0.140,0.130
7.428,-0.150,0.130
7.431,-0.150,0.130
7.433,-0.150,0.155
7.436,-0.170,0.150
7.439,-0.150,0.155
7.442,-0.145,0.150
7.444,-0.165,0.135
7.447,-0.185,0.120
7.450,-0.185,0.140
7.453,-0.180,0.150
7.456,-0.165,0.145
7.458,-0.180,0.135
7.461,-0.190,0.125
7.464,-0.185,0.125
7.467,-0.195,0.130
7.469,-0.170,0.135
7.472,-0.160,0.150
7.475,-0.175,0.135
7.478,-0.190,0.120
7.481,-0.195,0.120
7.483,-0.175,0.135
7.486,-0.185,0.140
7.489,-0.175,0.140
7.492,-0.180,0.135
7.494,-0.210,0.115
7.497,-0.210,0.125
7.500,-0.210,0.120
7.503,-0.210,0.125
7.506,-0.190,0.115
7.508,-0.190,0.120
7.511,-0.195,0.110
7.514,-0.210,0.105
7.517,-0.190,0.110
7.519,-0.195,0.125
7.522,-0.185,0.120
7.525,-0.170,0.115
7.528,-0.175,0.080
7.531,-0.195,0.085
7.533,-0.185,0.090
7.536,-0.180,0.100
7.539,-0.160,0.095
7.542,-0.160,0.085
7.544,-0.180,0.070
7.547,-0.185,0.080
7.550,-0.170,0.095
7.553,-0.160,0.105
7.556,-0.150,0.110
7.558,-0.155,0.105
7.561,-0.160,0.090
7.564,-0.180,0.100
7.567,-0.160,0.100
7.569,-0.140,0.120
7.572,-0.135,0.130
7.575,-0.145,0.130
7.578,-0.160,0.125
7.581,-0.150,0.120
7.583,-0.155,0.120
7.586,-0.140,0.125
7.589,-0.130,0.135
7.592,-0.130,0.140
7.594,-0.135,0.135
7.597,-0.150,0.135
7.600,-0.160,0.135
7.603,-0.130,0.130
7.606,-0.085,0.120
7.608,-0.005,0.080
7.611,0.080,0.055
7.614,0.165,0.035
7.617,0.270,0.020
7.619,0.385,-0.010
7.622,0.495,-0.055
7.625,0.610,-0.075
7.628,0.715,-0.100
7.631,0.785,-0.120
7.633,0.855,-0.165
7.636,0.880,-0.195
7.639,0.875,-0.215
7.642,0.830,-0.235
7.644,0.745,-0.240
7.647,0.655,-0.220
7.650,0.530,-0.175
7.653,0.375,-0.110
7.656,0.195,-0.065
7.658,0.055,-0.040
7.661,-0.050,-0.010
7.664,-0.100,0.010
7.667,-0.150,0.055
7.669,-0.180,0.090
7.672,-0.205,0.120
7.675,-0.215,0.120
7.678,-0.230,0.125
7.681,-0.255,0.135
7.683,-0.265,0.130
7.686,-0.260,0.140
7.689,-0.270,0.150
7.692,-0.260,0.135
7.694,-0.270,0.120
7.697,-0.295,0.120
7.700,-0.315,0.120
7.703,-0.305,0.120
7.706,-0.305,0.130
7.708,-0.300,0.130
7.711,-0.310,0.115
7.714,-0.310,0.120
7.717,-0.320,0.125
7.719,-0.320,0.135
7.722,-0.305,0.125
7.725,-0.305,0.120
7.728,-0.320,0.105
7.731,-0.325,0.115
7.733,-0.325,0.110
7.736,-0.320,0.125
7.739,-0.315,0.125
7.742,-0.340,0.115
7.744,-0.340,0.115
7.747,-0.340,0.110
7.750,-0.335,0.110
7.753,-0.335,0.125
7.756,-0.335,0.110
7.758,-0.330,0.100
7.761,-0.335,0.075
7.764,-0.345,0.070
7.767,-0.355,0.075
7.769,-0.340,0.080
7.772,-0.330,0.080
7.775,-0.335,0.075
7.778,-0.340,0.060
7.781,-0.345,0.065
7.783,-0.350,0.060
7.786,-0.335,0.085
7.789,-0.330,0.080
7.792,-0.340,0.075
7.794,-0.360,0.070
7.797,-0.355,0.070
7.800,-0.355,0.090
7.803,-0.335,0.100
7.806,-0.320,0.105
7.808,-0.335,0.100
7.811,-0.350,0.095
7.814,-0.350,0.095
7.817,-0.365,0.100
7.819,-0.345,0.110
7.822,-0.340,0.115
7.825,-0.335,0.125
7.828,-0.350,0.115
7.831,-0.360,0.105
7.833,-0.355,0.125
7.836,-0.350,0.140
7.839,-0.325,0.135
7.842,-0.315,0.140
7.844,-0.315,0.125
7.847,-0.330,0.130
7.850,-0.320,0.120
7.853,-0.325,0.125
7.856,-0.305,0.110
7.858,-0.305,0.100
7.861,-0.310,0.065
7.864,-0.320,0.060
7.867,-0.310,0.070
7.869,-0.305,0.080
7.872,-0.285,0.090
7.875,-0.270,0.080
7.878,-0.270,0.065
7.881,-0.275,0.065
7.883,-0.255,0.090
7.886,-0.240,0.110
7.889,-0.210,0.095
7.892,-0.200,0.090
7.894,-0.220,0.075
7.897,-0.210,0.070
7.900,-0.195,0.075
7.903,-0.180,0.090
7.906,-0.155,0.095
7.908,-0.150,0.095
7.911,-0.165,0.070
7.914,-0.160,0.075
7.917,-0.165,0.080
7.919,-0.155,0.080
7.922,-0.150,0.080
7.925,-0.145,0.090
7.928,-0.160,0.075
7.931,-0.175,0.065
7.933,-0.180,0.085
7.936,-0.160,0.090
7.939,-0.155,0.095
7.942,-0.160,0.090
7.944,-0.175,0.085
7.947,-0.175,0.075
7.950,-0.175,0.085
7.953,-0.160,0.095
7.956,-0.160,0.110
7.958,-0.170,0.105
7.961,-0.175,0.105
7.964,-0.195,0.090
7.967,-0.195,0.110
7.969,-0.185,0.105
7.972,-0.175,0.120
7.975,-0.180,0.105
7.978,-0.190,0.090
7.981,-0.190,0.085
7.983,-0.205,0.090
7.986,-0.185,0.100
7.989,-0.175,0.105
7.992,-0.170,0.085
7.994,-0.180,0.075
7.997,-0.185,0.070
8.000,-0.180,0.085
8.003,-0.165,0.090
8.006,-0.180,0.095
8.008,-0.165,0.095
8.011,-0.175,0.080
8.014,-0.175,0.080
8.017,-0.165,0.090
8.019,-0.145,0.090
8.022,-0.150,0.095
8.025,-0.150,0.110
8.028,-0.150,0.105
8.031,-0.145,0.110
8.033,-0.145,0.135
8.036,-0.130,0.145
8.039,-0.125,0.150
8.042,-0.120,0.155
8.044,-0.120,0.140
8.047,-0.130,0.140
8.050,-0.120,0.150
8.053,-0.110,0.165
8.056,-0.100,0.165
8.058,-0.110,0.165
8.061,-0.115,0.145
8.064,-0.130,0.125
8.067,-0.135,0.135
8.069,-0.120,0.125
8.072,-0.110,0.105
8.075,-0.120,0.090
8.078,-0.135,0.070
8.081,-0.150,0.065
8.083,-0.160,0.060
8.086,-0.145,0.065
8.089,-0.150,0.060
8.092,-0.135,0.055
8.094,-0.150,0.035
8.097,-0.160,0.030
8.100,-0.180,0.050
8.103,-0.170,0.045
8.106,-0.165,0.055
8.108,-0.170,0.055
8.111,-0.170,0.045
8.114,-0.185,0.040
8.117,-0.185,0.045
8.119,-0.175,0.070
8.122,-0.180,0.070
8.125,-0.160,0.080
8.128,-0.165,0.065
8.131,-0.175,0.080
8.133,-0.170,0.075
8.136,-0.170,0.105
8.139,-0.155,0.095
8.142,-0.160,0.100
8.144,-0.170,0.100
8.147,-0.170,0.085
8.150,-0.175,0.105
8.153,-0.155,0.100
8.156,-0.145,0.105
8.158,-0.145,0.105
8.161,-0.155,0.085
8.164,-0.170,0.085
8.167,-0.170,0.090
8.169,-0.150,0.105
8.172,-0.140,0.125
8.175,-0.145,0.120
8.178,-0.155,0.110
8.181,-0.155,0.110
8.183,-0.175,0.125
8.186,-0.170,0.125
8.189,-0.145,0.135
8.192,-0.140,0.115
8.194,-0.135,0.100
8.197,-0.130,0.090
8.200,-0.140,0.085
8.203,-0.140,0.095
8.206,-0.120,0.095
8.208,-0.125,0.085
8.211,-0.140,0.070
8.214,-0.135,0.055
8.217,-0.135,0.060
8.219,-0.130,0.070
8.222,-0.125,0.080
8.225,-0.130,0.055
8.228,-0.145,0.035
8.231,-0.140,0.030
8.233,-0.145,0.035
8.236,-0.135,0.045
8.239,-0.140,0.055
8.242,-0.130,0.040
8.244,-0.145,0.035
8.247,-0.160,0.025
8.250,-0.170,0.035
8.253,-0.140,0.055
8.256,-0.135,0.050
8.258,-0.145,0.060
8.261,-0.135,0.040
8.264,-0.115,0.050
8.267,-0.060,0.035
8.269,0.030,0.035
8.272,0.135,0.010
8.275,0.230,-0.020
8.278,0.330,-0.060
8.281,0.415,-0.085
8.283,0.525,-0.105
8.286,0.655,-0.090
8.289,0.760,-0.085
8.292,0.845,-0.130
8.294,0.885,-0.190
8.297,0.885,-0.230
8.300,0.855,-0.240
8.303,0.800,-0.220
8.306,0.725,-0.205
8.308,0.610,-0.175
8.311,0.440,-0.155
8.314,0.255,-0.120
8.317,0.105,-0.070
8.319,-0.005,-0.035
8.322,-0.045,-0.015
8.325,-0.095,-0.010
8.328,-0.155,-0.005
8.331,-0.205,0.015
8.333,-0.220,0.035
8.336,-0.215,0.055
8.339,-0.215,0.060
8.342,-0.225,0.070
8.344,-0.255,0.055
8.347,-0.275,0.060
8.350,-0.280,0.070
8.353,-0.265,0.085
8.356,-0.255,0.095
8.358,-0.260,0.075
8.361,-0.280,0.060
8.364,-0.290,0.065
8.367,-0.305,0.080
8.369,-0.280,0.100
8.372,-0.270,0.080
8.375,-0.275,0.070
8.378,-0.295,0.050
8.381,-0.310,0.045
8.383,-0.325,0.060
8.386,-0.310,0.060
8.389,-0.305,0.055
8.392,-0.315,0.045
8.394,-0.330,0.040
8.397,-0.350,0.045
8.400,-0.355,0.055
8.403,-0.340,0.070
8.406,-0.330,0.060
8.408,-0.340,0.065
8.411,-0.350,0.060
8.414,-0.365,0.050
8.417,-0.370,0.060
8.419,-0.370,0.080
8.422,-0.360,0.085
8.425,-0.365,0.075
8.428,-0.380,0.080
8.431,-0.390,0.060
8.433,-0.380,0.060
8.436,-0.375,0.080
8.439,-0.385,0.075
8.442,-0.365,0.070
8.444,-0.375,0.060
8.447,-0.390,0.050
8.450,-0.395,0.050
8.453,-0.375,0.060
8.456,-0.365,0.070
8.458,-0.365,0.065
8.461,-0.375,0.065
8.464,-0.365,0.060
8.467,-0.360,0.075
8.469,-0.350,0.080
8.472,-0.345,0.090
8.475,-0.345,0.065
8.478,-0.345,0.055
8.481,-0.355,0.050
8.483,-0.345,0.050
8.486,-0.340,0.075
8.489,-0.330,0.070
8.492,-0.325,0.065
8.494,-0.325,0.065
8.497,-0.340,0.065
8.500,-0.335,0.070
8.503,-0.325,0.075
8.506,-0.305,0.085
8.508,-0.300,0.080
8.511,-0.310,0.075
8.514,-0.315,0.075
8.517,-0.305,0.095
8.519,-0.300,0.100
8.522,-0.285,0.100
8.525,-0.275,0.105
8.528,-0.275,0.080
8.531,-0.265,0.080
8.533,-0.265,0.095
8.536,-0.245,0.100
8.539,-0.235,0.095
8.542,-0.225,0.085
8.544,-0.230,0.055
8.547,-0.230,0.055
8.550,-0.215,0.055
8.553,-0.205,0.055
8.556,-0.195,0.055
8.558,-0.200,0.025
8.561,-0.185,0.010
8.564,-0.200,0.000
8.567,-0.190,0.015
8.569,-0.170,0.015
8.572,-0.160,0.005
8.575,-0.165,0.005
8.578,-0.180,0.005
8.581,-0.190,-0.005
8.583,-0.180,0.010
8.586,-0.175,0.025
8.589,-0.155,0.015
8.592,-0.160,0.025
8.594,-0.170,0.015
8.597,-0.190,0.025
8.600,-0.195,0.025
8.603,-0.190,0.045
8.606,-0.180,0.065
8.608,-0.180,0.060
8.611,-0.185,0.065
8.614,-0.185,0.065
8.617,-0.175,0.090
8.619,-0.165,0.100
8.622,-0.155,0.095
8.625,-0.165,0.095
8.628,-0.170,0.090
8.631,-0.185,0.090
8.633,-0.190,0.100
8.636,-0.160,0.105
8.639,-0.150,0.120
8.642,-0.150,0.105
8.644,-0.165,0.075
8.647,-0.180,0.070
8.650,-0.180,0.090
8.653,-0.180,0.100
8.656,-0.145,0.115
8.658,-0.145,0.110
8.661,-0.160,0.105
8.664,-0.170,0.095
8.667,-0.165,0.115
8.669,-0.155,0.120
8.672,-0.130,0.115
8.675,-0.120,0.090
8.678,-0.130,0.070
8.681,-0.135,0.065
8.683,-0.145,0.070
8.686,-0.140,0.070
8.689,-0.125,0.060
8.692,-0.130,0.060
8.694,-0.135,0.040
8.697,-0.140,0.040
8.700,-0.140,0.030
8.703,-0.140,0.045
8.706,-0.125,0.040
8.708,-0.140,0.035
8.711,-0.145,0.020
8.714,-0.160,0.020
8.717,-0.150,0.035
8.719,-0.140,0.040
8.722,-0.145,0.040
8.725,-0.160,0.040
8.728,-0.170,0.035
8.731,-0.165,0.025
8.733,-0.170,0.035
8.736,-0.165,0.055
8.739,-0.150,0.065
8.742,-0.160,0.055
8.744,-0.160,0.060
8.747,-0.170,0.065
8.750,-0.190,0.070
8.753,-0.175,0.070
8.756,-0.165,0.085
8.758,-0.165,0.085
8.761,-0.180,0.075
8.764,-0.185,0.095
8.767,-0.200,0.110
8.769,-0.175,0.110
8.772,-0.165,0.125
8.775,-0.170,0.120
8.778,-0.180,0.115
8.781,-0.175,0.100
8.783,-0.185,0.100
8.786,-0.180,0.095
8.789,-0.175,0.080
8.792,-0.170,0.055
8.794,-0.175,0.025
8.797,-0.180,0.020
8.800,-0.185,0.015
8.803,-0.175,0.030
8.806,-0.145,0.040
8.808,-0.145,0.035
8.811,-0.150,0.020
8.814,-0.155,0.015
8.817,-0.150,0.030
8.819,-0.130,0.040
8.822,-0.130,0.040
8.825,-0.135,0.045
8.828,-0.130,0.020
8.831,-0.130,0.020
8.833,-0.150,0.030
8.836,-0.125,0.040
8.839,-0.110,0.045
8.842,-0.125,0.040
8.844,-0.120,0.030
8.847,-0.125,0.025
8.850,-0.115,0.030
8.853,-0.125,0.045
8.856,-0.125,0.045
8.858,-0.110,0.025
8.861,-0.130,0.000
8.864,-0.150,0.010
8.867,-0.145,0.015
8.869,-0.135,0.025
8.872,-0.125,0.025
8.875,-0.145,0.030
8.878,-0.150,0.005
8.881,-0.145,0.015
8.883,-0.150,0.030
8.886,-0.140,0.035
8.889,-0.130,0.035
8.892,-0.140,0.045
8.894,-0.155,0.050
8.897,-0.170,0.040
8.900,-0.175,0.035
8.903,-0.165,0.035
8.906,-0.155,0.050
8.908,-0.170,0.040
8.911,-0.185,0.025
8.914,-0.195,0.015
8.917,-0.190,0.030
8.919,-0.195,0.045
8.922,-0.165,0.055
8.925,-0.160,0.035
8.928,-0.175,0.030
8.931,-0.185,0.025
8.933,-0.190,0.030
8.936,-0.185,0.030
8.939,-0.170,0.040
8.942,-0.160,0.040
8.944,-0.160,0.025
8.947,-0.155,0.005
8.950,-0.170,0.005
8.953,-0.170,0.010
8.956,-0.150,0.035
8.958,-0.150,0.030
8.961,-0.155,0.015
8.964,-0.150,0.020
8.967,-0.150,0.035
8.969,-0.140,0.045
8.972,-0.100,0.060
8.975,-0.105,0.050
8.978,-0.115,0.035
8.981,-0.140,0.035
8.983,-0.130,0.045
8.986,-0.090,0.045
8.989,-0.015,0.025
8.992,0.060,0.000
8.994,0.145,-0.025
8.997,0.245,-0.060
9.000,0.350,-0.070
9.003,0.470,-0.095
9.006,0.575,-0.130
9.008,0.690,-0.150
9.011,0.780,-0.165
9.014,0.845,-0.205
9.017,0.885,-0.250
9.019,0.880,-0.270
9.022,0.845,-0.280
9.025,0.795,-0.280
9.028,0.705,-0.275
9.031,0.570,-0.245
9.033,0.385,-0.205
9.036,0.195,-0.150
9.039,0.065,-0.120
9.042,-0.025,-0.110
9.044,-0.070,-0.100
9.047,-0.115,-0.085
9.050,-0.165,-0.065
9.053,-0.200,-0.040
9.056,-0.235,-0.035
9.058,-0.235,-0.010
9.061,-0.235,-0.005
9.064,-0.255,-0.005
9.067,-0.255,0.015
9.069,-0.285,0.040
9.072,-0.275,0.050
9.075,-0.275,0.030
9.078,-0.305,0.030
9.081,-0.300,0.035
9.083,-0.310,0.050
9.086,-0.315,0.060
9.089,-0.300,0.060
9.092,-0.310,0.060
9.094,-0.315,0.040
9.097,-0.320,0.045
9.100,-0.325,0.050
9.103,-0.330,0.055
9.106,-0.315,0.055
9.108,-0.330,0.060
9.111,-0.340,0.040
9.114,-0.345,0.045
9.117,-0.340,0.060
9.119,-0.340,0.070
9.122,-0.320,0.065
9.125,-0.320,0.070
9.128,-0.340,0.040
9.131,-0.355,0.050
9.133,-0.350,0.065
9.136,-0.340,0.070
9.139,-0.320,0.075
9.142,-0.325,0.065
9.144,-0.335,0.060
9.147,-0.340,0.050
9.150,-0.360,0.065
9.153,-0.345,0.060
9.156,-0.345,0.050
9.158,-0.335,0.045
9.161,-0.350,0.030
9.164,-0.350,0.005
9.167,-0.365,0.020
9.169,-0.350,0.025
9.172,-0.330,0.005
9.175,-0.335,-0.010
9.178,-0.335,-0.040
9.181,-0.335,-0.040
9.183,-0.325,-0.030
9.186,-0.320,-0.020
9.189,-0.310,-0.010
9.192,-0.305,-0.005
9.194,-0.315,-0.005
9.197,-0.325,-0.015
9.200,-0.320,-0.020
9.203,-0.315,0.005
9.206,-0.295,0.010
9.208,-0.300,0.005
9.211,-0.310,0.015
9.214,-0.320,0.010
9.217,-0.320,0.020
9.219,-0.310,0.045
9.222,-0.295,0.065
9.225,-0.285,0.065
9.228,-0.285,0.055
9.231,-0.295,0.050
9.233,-0.300,0.050
9.236,-0.280,0.070
9.239,-0.250,0.080
9.242,-0.260,0.085
9.244,-0.260,0.065
9.247,-0.245,0.060
9.250,-0.245,0.060
9.253,-0.240,0.065
9.256,-0.225,0.065
9.258,-0.215,0.055
9.261,-0.205,0.045
9.264,-0.215,0.050
9.267,-0.215,0.050
9.269,-0.205,0.050
9.272,-0.190,0.055
9.275,-0.170,0.050
9.278,-0.180,0.025
9.281,-0.190,0.010
9.283,-0.185,0.015
9.286,-0.180,0.035
9.289,-0.165,0.040
9.292,-0.180,0.025
9.294,-0.185,0.020
9.297,-0.185,0.010
9.300,-0.180,0.005
9.303,-0.180,0.020
9.306,-0.165,0.015
9.308,-0.170,0.020
9.311,-0.180,0.010
9.314,-0.190,-0.005
9.317,-0.180,0.010
9.319,-0.185,0.025
9.322,-0.165,0.025
9.325,-0.170,0.035
9.328,-0.180,0.025
9.331,-0.180,0.025
9.333,-0.190,0.030
9.336,-0.175,0.050
9.339,-0.175,0.065
9.342,-0.175,0.055
9.344,-0.190,0.050
9.347,-0.195,0.050
9.350,-0.210,0.060
9.353,-0.195,0.085
9.356,-0.190,0.100
9.358,-0.180,0.105
9.361,-0.200,0.090
9.364,-0.210,0.100
9.367,-0.195,0.120
9.369,-0.175,0.125
9.372,-0.160,0.140
9.375,-0.165,0.130
9.378,-0.175,0.125
9.381,-0.175,0.125
9.383,-0.185,0.140
9.386,-0.170,0.145
9.389,-0.155,0.145
9.392,-0.160,0.130
9.394,-0.170,0.105
9.397,-0.175,0.090
9.400,-0.175,0.085
9.403,-0.160,0.065
9.406,-0.150,0.040
9.408,-0.145,0.015
9.411,-0.155,-0.005
9.414,-0.155,-0.005
9.417,-0.150,0.005
9.419,-0.140,0.005
9.422,-0.135,0.010
9.425,-0.125,0.000
9.428,-0.145,-0.010
9.431,-0.155,-0.015
9.433,-0.155,0.000
9.436,-0.150,-0.005
9.439,-0.130,0.000
9.442,-0.130,0.000
9.444,-0.155,-0.015
9.447,-0.160,-0.015
9.450,-0.155,-0.010
9.453,-0.160,-0.010
9.456,-0.150,0.000
9.458,-0.155,-0.015
9.461,-0.165,-0.025
9.464,-0.170,-0.020
9.467,-0.180,-0.010
9.469,-0.170,-0.010
9.472,-0.155,-0.005
9.475,-0.165,0.005
9.478,-0.175,-0.005
9.481,-0.180,-0.015
9.483,-0.185,0.005
9.486,-0.185,0.020
9.489,-0.175,0.025
9.492,-0.170,0.025
9.494,-0.190,0.005
9.497,-0.195,0.020
9.500,-0.195,0.030
9.503,-0.190,0.055
9.506,-0.180,0.060
9.508,-0.180,0.060
9.511,-0.210,0.060
9.514,-0.200,0.050
9.517,-0.200,0.080
9.519,-0.200,0.090
9.522,-0.185,0.100
9.525,-0.200,0.100
9.528,-0.210,0.100
9.531,-0.205,0.090
9.533,-0.200,0.100
9.536,-0.175,0.080
9.539,-0.180,0.080
9.542,-0.165,0.045
9.544,-0.170,0.035
9.547,-0.185,0.025
9.550,-0.170,0.030
9.553,-0.155,0.025
9.556,-0.130,0.025
9.558,-0.130,0.015
9.561,-0.145,0.005
9.564,-0.155,0.000
9.567,-0.145,0.005
9.569,-0.130,0.005
9.572,-0.135,0.020
9.575,-0.130,0.010
9.578,-0.135,0.005
9.581,-0.155,-0.010
9.583,-0.155,0.015
9.586,-0.145,0.020
9.589,-0.105,0.005
9.592,-0.065,-0.005
9.594,-0.005,-0.035
9.597,0.090,-0.075
9.600,0.190,-0.095
9.603,0.305,-0.125
9.606,0.425,-0.155
9.608,0.530,-0.185
9.611,0.625,-0.205
9.614,0.715,-0.210
9.617,0.815,-0.230
9.619,0.895,-0.255
9.622,0.910,-0.280
9.625,0.860,-0.305
9.628,0.790,-0.310
9.631,0.720,-0.310
9.633,0.615,-0.265
9.636,0.480,-0.220
9.639,0.315,-0.155
9.642,0.125,-0.110
9.644,-0.025,-0.100
9.647,-0.105,-0.075
9.650,-0.155,-0.040
9.653,-0.190,-0.005
9.656,-0.230,0.010
9.658,-0.265,0.030
9.661,-0.290,0.020
9.664,-0.295,0.020
9.667,-0.300,0.035
9.669,-0.320,0.045
9.672,-0.300,0.050
9.675,-0.300,0.040
9.678,-0.335,0.030
9.681,-0.350,0.020
9.683,-0.355,0.030
9.686,-0.345,0.025
9.689,-0.335,0.025
9.692,-0.345,0.015
9.694,-0.375,-0.005
9.697,-0.350,0.010
9.700,-0.365,0.020
9.703,-0.355,0.040
9.706,-0.345,0.045
9.708,-0.345,0.035
9.711,-0.365,0.030
9.714,-0.365,0.025
9.717,-0.355,0.025
9.719,-0.360,0.035
9.722,-0.350,0.050
9.725,-0.350,0.050
9.728,-0.365,0.025
9.731,-0.385,0.020
9.733,-0.380,0.040
9.736,-0.360,0.050
9.739,-0.355,0.040
9.742,-0.370,0.045
9.744,-0.395,0.030
9.747,-0.395,0.030
9.750,-0.400,0.025
9.753,-0.395,0.035
9.756,-0.385,0.045
9.758,-0.380,0.040
9.761,-0.400,0.030
9.764,-0.395,0.010
9.767,-0.410,0.020
9.769,-0.395,0.020
9.772,-0.375,0.010
9.775,-0.375,0.000
9.778,-0.390,0.005
9.781,-0.400,0.000
9.783,-0.400,0.010
9.786,-0.390,0.010
9.789,-0.385,0.035
9.792,-0.395,0.030
9.794,-0.400,0.010
9.797,-0.410,0.010
9.800,-0.415,0.025
9.803,-0.400,0.035
9.806,-0.395,0.035
9.808,-0.395,0.045
9.811,-0.390,0.040
9.814,-0.390,0.030
9.817,-0.390,0.050
9.819,-0.375,0.060
9.822,-0.365,0.080
9.825,-0.365,0.065
9.828,-0.375,0.045
9.831,-0.380,0.060
9.833,-0.370,0.055
9.836,-0.340,0.075
9.839,-0.320,0.080
9.842,-0.320,0.070
9.844,-0.325,0.050
9.847,-0.325,0.055
9.850,-0.315,0.075
9.853,-0.280,0.075
9.856,-0.270,0.080
9.858,-0.275,0.070
9.861,-0.265,0.065
9.864,-0.255,0.070
9.867,-0.245,0.065
9.869,-0.215,0.065
9.872,-0.200,0.055
9.875,-0.185,0.050
9.878,-0.210,0.025
9.881,-0.205,0.020
9.883,-0.210,0.005
9.886,-0.200,0.005
9.889,-0.200,0.000
9.892,-0.195,-0.005
9.894,-0.205,-0.020
9.897,-0.220,-0.035
9.900,-0.215,-0.035
9.903,-0.215,-0.005
9.906,-0.210,-0.005
9.908,-0.210,-0.020
9.911,-0.210,-0.015
9.914,-0.240,-0.020
9.917,-0.240,-0.015
9.919,-0.230,0.005
9.922,-0.225,0.015
9.925,-0.215,0.015
9.928,-0.215,0.010
9.931,-0.225,0.020
9.933,-0.235,0.040
9.936,-0.245,0.045
9.939,-0.225,0.060
9.942,-0.235,0.065
9.944,-0.245,0.075
9.947,-0.245,0.070
9.950,-0.255,0.100
9.953,-0.230,0.115
9.956,-0.230,0.120
9.958,-0.230,0.120
9.961,-0.235,0.105
9.964,-0.240,0.105
9.967,-0.230,0.105
9.969,-0.220,0.125
9.972,-0.210,0.120
9.975,-0.210,0.120
9.978,-0.210,0.100
9.981,-0.210,0.095
9.983,-0.205,0.085
9.986,-0.195,0.090
9.989,-0.180,0.090
9.992,-0.175,0.075
9.994,-0.185,0.060
9.997,-0.190,0.045
10.000,-0.195,0.045
10.003,-0.180,0.050
10.006,-0.160,0.055
10.008,-0.160,0.045
10.011,-0.165,0.025
10.014,-0.170,0.020
10.017,-0.180,0.030
10.019,-0.165,0.030
10.022,-0.155,0.025
10.025,-0.150,0.020
10.028,-0.155,0.015
10.031,-0.165,0.025
10.033,-0.180,0.010
10.036,-0.170,0.015
10.039,-0.170,0.015
10.042,-0.175,0.010
10.044,-0.185,0.000
10.047,-0.195,-0.005
10.050,-0.195,0.015
10.053,-0.195,0.005
10.056,-0.185,0.015
10.058,-0.200,0.010
10.061,-0.210,0.000
10.064,-0.210,0.000
10.067,-0.210,0.020
10.069,-0.215,0.050
10.072,-0.215,0.055
10.075,-0.210,0.060
10.078,-0.220,0.065
10.081,-0.240,0.055
10.083,-0.240,0.090
10.086,-0.230,0.110
10.089,-0.225,0.130
10.092,-0.215,0.125
10.094,-0.210,0.130
10.097,-0.220,0.125
10.100,-0.210,0.110
10.103,-0.195,0.095
10.106,-0.190,0.110
10.108,-0.195,0.090
10.111,-0.215,0.070
10.114,-0.225,0.065
10.117,-0.215,0.060
10.119,-0.200,0.065
10.122,-0.195,0.065
10.125,-0.195,0.055
10.128,-0.205,0.040
10.131,-0.205,0.035
10.133,-0.205,0.040
10.136,-0.200,0.050
10.139,-0.180,0.045
10.142,-0.175,0.040
10.144,-0.175,0.040
10.147,-0.180,0.030
10.150,-0.180,0.020
10.153,-0.165,0.025
10.156,-0.150,0.030
10.158,-0.145,0.025
10.161,-0.155,0.015
10.164,-0.165,0.010
10.167,-0.180,0.030
10.169,-0.175,0.060
10.172,-0.160,0.055
10.175,-0.120,0.035
10.178,-0.080,0.005
10.181,-0.015,-0.025
10.183,0.075,-0.040
10.186,0.205,-0.060
10.189,0.325,-0.090
10.192,0.430,-0.130
10.194,0.530,-0.175
10.197,0.660,-0.180
10.200,0.755,-0.180
10.203,0.845,-0.200
10.206,0.880,-0.220
10.208,0.865,-0.260
10.211,0.790,-0.285
10.214,0.700,-0.270
10.217,0.585,-0.235
10.219,0.440,-0.190
10.222,0.280,-0.145
10.225,0.070,-0.110
10.228,-0.080,-0.090
10.231,-0.155,-0.070
10.233,-0.195,-0.035
10.236,-0.225,0.010
10.239,-0.260,0.025
10.242,-0.285,0.045
10.244,-0.305,0.040
10.247,-0.325,0.035
10.250,-0.335,0.055
10.253,-0.335,0.085
10.256,-0.325,0.090
10.258,-0.330,0.075
10.261,-0.345,0.060
10.264,-0.370,0.065
10.267,-0.370,0.065
10.269,-0.360,0.065
10.272,-0.355,0.060
10.275,-0.360,0.065
10.278,-0.360,0.055
10.281,-0.370,0.045
10.283,-0.390,0.050
10.286,-0.380,0.060
10.289,-0.370,0.060
10.292,-0.360,0.055
10.294,-0.365,0.040
10.297,-0.375,0.030
10.300,-0.375,0.050
10.303,-0.380,0.065
10.306,-0.375,0.060
10.308,-0.380,0.060
10.311,-0.385,0.055
10.314,-0.400,0.045
10.317,-0.400,0.055
10.319,-0.395,0.080
10.322,-0.385,0.065
10.325,-0.395,0.065
10.328,-0.410,0.060
10.331,-0.420,0.060
10.333,-0.430,0.065
10.336,-0.410,0.085
10.339,-0.415,0.085
10.342,-0.420,0.090
10.344,-0.430,0.075
10.347,-0.435,0.080
10.350,-0.435,0.065
10.353,-0.415,0.080
10.356,-0.395,0.070
10.358,-0.405,0.045
10.361,-0.415,0.020
10.364,-0.415,0.010
10.367,-0.425,0.005
10.369,-0.430,0.035
10.372,-0.400,0.050
10.375,-0.405,0.040
10.378,-0.415,0.025
10.381,-0.425,0.020
10.383,-0.435,0.030
10.386,-0.425,0.050
10.389,-0.420,0.075
10.392,-0.425,0.070
10.394,-0.415,0.050
10.397,-0.430,0.055
10.400,-0.420,0.055
10.403,-0.400,0.070
10.406,-0.385,0.065
10.408,-0.385,0.060
10.411,-0.390,0.050
10.414,-0.385,0.045
10.417,-0.385,0.035
10.419,-0.370,0.045
10.422,-0.350,0.050
10.425,-0.345,0.035
10.428,-0.340,0.030
10.431,-0.335,0.035
10.433,-0.325,0.050
10.436,-0.295,0.060
10.439,-0.270,0.055
10.442,-0.270,0.065
10.444,-0.260,0.055
10.447,-0.260,0.045
10.450,-0.255,0.060
10.453,-0.235,0.075
10.456,-0.205,0.065
10.458,-0.200,0.080
10.461,-0.230,0.065
10.464,-0.225,0.050
10.467,-0.230,0.065
10.469,-0.230,0.080
10.472,-0.220,0.075
10.475,-0.235,0.065
10.478,-0.225,0.055
10.481,-0.245,0.045
10.483,-0.260,0.065
10.486,-0.245,0.075
10.489,-0.230,0.070
10.492,-0.245,0.065
10.494,-0.245,0.040
10.497,-0.255,0.040
10.500,-0.255,0.040
10.503,-0.250,0.040
10.506,-0.225,0.040
10.508,-0.240,0.050
10.511,-0.240,0.040
10.514,-0.245,0.040
10.517,-0.255,0.045
10.519,-0.250,0.060
10.522,-0.240,0.075
10.525,-0.250,0.070
10.528,-0.260,0.075
10.531,-0.250,0.075
10.533,-0.260,0.090
10.536,-0.245,0.100
10.539,-0.235,0.115
10.542,-0.235,0.115
10.544,-0.240,0.125
10.547,-0.260,0.120
10.550,-0.245,0.120
10.553,-0.235,0.130
10.556,-0.220,0.130
10.558,-0.220,0.120
10.561,-0.235,0.115
10.564,-0.245,0.100
10.567,-0.240,0.100
10.569,-0.230,0.115
10.572,-0.215,0.125
10.575,-0.205,0.120
10.578,-0.225,0.105
10.581,-0.230,0.110
10.583,-0.225,0.110
10.586,-0.210,0.130
10.589,-0.185,0.130
10.592,-0.180,0.115
10.594,-0.205,0.100
10.597,-0.200,0.090
10.600,-0.215,0.100
10.603,-0.200,0.090
10.606,-0.190,0.085
10.608,-0.195,0.075
10.611,-0.200,0.050
10.614,-0.225,0.045
10.617,-0.240,0.035
10.619,-0.245,0.045
10.622,-0.265,0.025
10.625,-0.320,0.015
10.628,-0.390,0.005
10.631,-0.445,-0.005
10.633,-0.455,-0.005
10.636,-0.470,0.005
10.639,-0.475,0.020
10.642,-0.530,0.025
10.644,-0.570,0.040
10.647,-0.625,0.050
10.650,-0.675,0.080
10.653,-0.695,0.110
10.656,-0.735,0.130
10.658,-0.810,0.145
10.661,-0.860,0.150
10.664,-0.935,0.160
10.667,-0.985,0.160
10.669,-1.000,0.165
10.672,-0.985,0.155
10.675,-0.955,0.155
10.678,-0.925,0.150
10.681,-0.890,0.160
10.683,-0.840,0.205
10.686,-0.785,0.280
10.689,-0.750,0.315
10.692,-0.710,0.345
10.694,-0.680,0.340
10.697,-0.655,0.360
10.700,-0.620,0.385
10.703,-0.585,0.410
10.706,-0.560,0.430
10.708,-0.535,0.425
10.711,-0.515,0.405
10.714,-0.470,0.345
10.717,-0.425,0.290
10.719,-0.340,0.240
10.722,-0.270,0.185
10.725,-0.215,0.130
10.728,-0.185,0.090
10.731,-0.160,0.080
10.733,-0.145,0.085
10.736,-0.130,0.090
10.739,-0.125,0.065
10.742,-0.110,0.025
10.744,-0.125,0.010
10.747,-0.120,-0.005
10.750,-0.105,-0.015
10.753,-0.095,-0.015
10.756,-0.065,-0.030
10.758,-0.075,-0.040
10.761,-0.080,-0.050
10.764,-0.095,-0.060
10.767,-0.070,-0.060
10.769,-0.060,-0.055
10.772,-0.055,-0.050
10.775,-0.045,-0.050
10.778,-0.045,-0.070
10.781,-0.060,-0.065
10.783,-0.055,-0.050
10.786,-0.025,-0.045
10.789,-0.005,-0.030
10.792,-0.020,-0.030
10.794,-0.010,-0.030
10.797,-0.010,-0.040
10.800,0.000,-0.025
10.803,0.020,-0.010
10.806,0.030,0.005
10.808,0.045,0.000
10.811,0.040,0.000
10.814,0.050,-0.015
10.817,0.050,-0.005
10.819,0.085,0.000
10.822,0.095,0.025
10.825,0.105,0.025
10.828,0.110,0.015
10.831,0.115,0.025
10.833,0.120,0.025
10.836,0.140,0.035
10.839,0.175,0.035
10.842,0.180,0.035
10.844,0.185,0.020
10.847,0.195,0.005
10.850,0.205,0.020
10.853,0.220,0.020
10.856,0.240,0.015
10.858,0.245,-0.005
10.861,0.250,-0.015
10.864,0.240,-0.045
10.867,0.245,-0.050
10.869,0.270,-0.040
10.872,0.285,-0.045
10.875,0.280,-0.060
10.878,0.260,-0.075
10.881,0.255,-0.105
10.883,0.250,-0.090
10.886,0.255,-0.095
10.889,0.265,-0.095
10.892,0.255,-0.090
10.894,0.230,-0.100
10.897,0.220,-0.105
10.900,0.205,-0.090
10.903,0.200,-0.085
10.906,0.200,-0.080
10.908,0.175,-0.080
10.911,0.140,-0.080
10.914,0.130,-0.085
10.917,0.105,-0.060
10.919,0.075,-0.050
10.922,0.075,-0.035
10.925,0.050,-0.045
10.928,0.050,-0.050
10.931,0.025,-0.035
10.933,0.000,-0.030
10.936,-0.010,-0.010
10.939,-0.015,0.010
10.942,-0.020,0.020
10.944,-0.040,0.020
10.947,-0.060,0.025
10.950,-0.080,0.055
10.953,-0.080,0.070
10.956,-0.075,0.080
10.958,-0.105,0.095
10.961,-0.130,0.090
10.964,-0.150,0.090
10.967,-0.155,0.105
10.969,-0.150,0.115
10.972,-0.150,0.120
10.975,-0.160,0.120
10.978,-0.190,0.125
10.981,-0.185,0.115
10.983,-0.205,0.120
10.986,-0.205,0.135
10.989,-0.190,0.135
10.992,-0.185,0.135
10.994,-0.195,0.125
10.997,-0.200,0.110
11.000,-0.205,0.110
11.003,-0.195,0.120
11.006,-0.190,0.120
11.008,-0.190,0.105
11.011,-0.190,0.085
11.014,-0.195,0.075
11.017,-0.195,0.065
11.019,-0.195,0.070
11.022,-0.180,0.070
11.025,-0.185,0.065
11.028,-0.185,0.080
11.031,-0.185,0.070
11.033,-0.180,0.070
11.036,-0.170,0.090
11.039,-0.145,0.125
11.042,-0.160,0.105
11.044,-0.165,0.095
11.047,-0.175,0.095
11.050,-0.180,0.100
11.053,-0.160,0.115
11.056,-0.150,0.115
11.058,-0.160,0.110
11.061,-0.185,0.105
11.064,-0.175,0.110
11.067,-0.195,0.115
11.069,-0.190,0.130
11.072,-0.190,0.125
11.075,-0.190,0.130
11.078,-0.205,0.120
11.081,-0.210,0.120
11.083,-0.220,0.120
11.086,-0.220,0.130
11.089,-0.210,0.135
11.092,-0.225,0.125
11.094,-0.225,0.125
11.097,-0.245,0.130
11.100,-0.260,0.135
11.103,-0.250,0.145
11.106,-0.240,0.160
11.108,-0.255,0.140
11.111,-0.260,0.130
11.114,-0.275,0.105
11.117,-0.275,0.100
11.119,-0.265,0.100
11.122,-0.260,0.105
11.125,-0.255,0.105
11.128,-0.280,0.085
11.131,-0.300,0.085
11.133,-0.280,0.095
11.136,-0.280,0.110
11.139,-0.270,0.110
11.142,-0.275,0.120
11.144,-0.285,0.120
11.147,-0.305,0.100
11.150,-0.300,0.120
11.153,-0.290,0.135
11.156,-0.280,0.135
11.158,-0.275,0.125
11.161,-0.285,0.105
11.164,-0.300,0.105
11.167,-0.305,0.110
11.169,-0.295,0.120
11.172,-0.265,0.135
11.175,-0.260,0.130
11.178,-0.285,0.115
11.181,-0.300,0.105
11.183,-0.285,0.115
11.186,-0.270,0.135
11.189,-0.265,0.135
11.192,-0.260,0.125
11.194,-0.270,0.100
11.197,-0.280,0.105
11.200,-0.275,0.120
11.203,-0.275,0.120
11.206,-0.250,0.130
11.208,-0.265,0.135
11.211,-0.265,0.125
11.214,-0.270,0.105
11.217,-0.280,0.115
11.219,-0.265,0.120
11.222,-0.260,0.145
11.225,-0.265,0.130
11.228,-0.290,0.110
11.231,-0.300,0.110
11.233,-0.300,0.125
11.236,-0.290,0.125
11.239,-0.275,0.130
11.242,-0.300,0.130
11.244,-0.300,0.115
11.247,-0.310,0.100
11.250,-0.330,0.105
11.253,-0.320,0.110
11.256,-0.315,0.115
11.258,-0.325,0.110
11.261,-0.330,0.075
11.264,-0.340,0.060
11.267,-0.365,0.055
11.269,-0.340,0.055
11.272,-0.330,0.060
11.275,-0.330,0.070
11.278,-0.335,0.050
11.281,-0.330,0.050
11.283,-0.355,0.070
11.286,-0.340,0.090
11.289,-0.330,0.105
11.292,-0.330,0.110
11.294,-0.330,0.105
11.297,-0.330,0.100
11.300,-0.330,0.100
11.303,-0.340,0.125
11.306,-0.320,0.130
11.308,-0.320,0.125
11.311,-0.330,0.110
11.314,-0.330,0.115
11.317,-0.345,0.115
11.319,-0.335,0.120
11.322,-0.320,0.120
11.325,-0.315,0.130
11.328,-0.325,0.110
11.331,-0.325,0.125
11.333,-0.340,0.125
11.336,-0.320,0.145
11.339,-0.320,0.150
11.342,-0.305,0.150
11.344,-0.305,0.135
11.347,-0.305,0.140
11.350,-0.305,0.140
11.353,-0.300,0.145
11.356,-0.290,0.140
11.358,-0.285,0.150
11.361,-0.295,0.135
11.364,-0.310,0.125
11.367,-0.305,0.125
11.369,-0.305,0.140
11.372,-0.310,0.140
11.375,-0.305,0.150
11.378,-0.300,0.130
11.381,-0.330,0.135
11.383,-0.335,0.140
11.386,-0.325,0.165
11.389,-0.320,0.165
11.392,-0.325,0.145
11.394,-0.335,0.110
11.397,-0.335,0.085
11.400,-0.340,0.090
11.403,-0.330,0.095
11.406,-0.325,0.070
11.408,-0.330,0.060
11.411,-0.330,0.045
11.414,-0.345,0.050
11.417,-0.345,0.045
11.419,-0.310,0.060
11.422,-0.310,0.070
11.425,-0.305,0.065
11.428,-0.325,0.065
11.431,-0.330,0.055
11.433,-0.320,0.070
11.436,-0.320,0.095
11.439,-0.305,0.115
11.442,-0.305,0.115
11.444,-0.305,0.110
11.447,-0.300,0.105
11.450,-0.315,0.110
11.453,-0.305,0.120
11.456,-0.285,0.125
11.458,-0.285,0.110
11.461,-0.290,0.110
11.464,-0.305,0.100
11.467,-0.320,0.100
11.469,-0.300,0.095
11.472,-0.275,0.095
11.475,-0.270,0.100
11.478,-0.275,0.095
11.481,-0.275,0.095
11.483,-0.275,0.115
11.486,-0.275,0.130
11.489,-0.255,0.125
11.492,-0.245,0.125
11.494,-0.260,0.120
11.497,-0.275,0.125
11.500,-0.270,0.120
11.503,-0.215,0.125
11.506,-0.130,0.105
11.508,-0.030,0.075
11.511,0.060,0.050
11.514,0.165,0.015
11.517,0.275,-0.010
11.519,0.395,-0.025
11.522,0.510,-0.045
11.525,0.620,-0.070
11.528,0.680,-0.145
11.531,0.710,-0.210
11.533,0.690,-0.255
11.536,0.660,-0.265
11.539,0.605,-0.260
11.542,0.480,-0.235
11.544,0.305,-0.200
11.547,0.090,-0.140
11.550,-0.100,-0.085
11.553,-0.195,-0.035
11.556,-0.215,0.005
11.558,-0.260,0.035
11.561,-0.315,0.045
11.564,-0.350,0.060
11.567,-0.375,0.090
11.569,-0.360,0.100
11.572,-0.365,0.130
11.575,-0.375,0.130
11.578,-0.385,0.135
11.581,-0.410,0.130
11.583,-0.415,0.145
11.586,-0.395,0.165
11.589,-0.390,0.175
11.592,-0.400,0.180
11.594,-0.415,0.180
11.597,-0.435,0.165
11.600,-0.425,0.165
11.603,-0.415,0.185
11.606,-0.405,0.190
11.608,-0.415,0.180
11.611,-0.430,0.165
11.614,-0.430,0.165
11.617,-0.455,0.170
11.619,-0.430,0.180
11.622,-0.420,0.190
11.625,-0.420,0.180
11.628,-0.425,0.165
11.631,-0.425,0.160
11.633,-0.430,0.175
11.636,-0.405,0.185
11.639,-0.405,0.190
11.642,-0.415,0.170
11.644,-0.420,0.150
11.647,-0.425,0.130
11.650,-0.430,0.120
11.653,-0.430,0.125
11.656,-0.410,0.115
11.658,-0.420,0.095
11.661,-0.435,0.085
11.664,-0.435,0.065
11.667,-0.445,0.055
11.669,-0.440,0.065
11.672,-0.420,0.070
11.675,-0.435,0.065
11.678,-0.435,0.055
11.681,-0.445,0.055
11.683,-0.425,0.060
11.686,-0.420,0.070
11.689,-0.405,0.075
11.692,-0.395,0.075
11.694,-0.415,0.065
11.697,-0.425,0.070
11.700,-0.410,0.090
11.703,-0.405,0.095
11.706,-0.380,0.120
11.708,-0.385,0.115
11.711,-0.390,0.095
11.714,-0.400,0.110
11.717,-0.400,0.120
11.719,-0.395,0.145
11.722,-0.385,0.155
11.725,-0.380,0.160
11.728,-0.380,0.145
11.731,-0.370,0.140
11.733,-0.375,0.150
11.736,-0.360,0.170
11.739,-0.335,0.185
11.742,-0.340,0.170
11.744,-0.345,0.165
11.747,-0.350,0.155
11.750,-0.350,0.160
11.753,-0.345,0.155
11.756,-0.315,0.155
11.758,-0.320,0.150
11.761,-0.325,0.130
11.764,-0.320,0.125
11.767,-0.320,0.120
11.769,-0.300,0.130
11.772,-0.285,0.140
11.775,-0.270,0.130
11.778,-0.270,0.115
11.781,-0.270,0.095
11.783,-0.255,0.080
11.786,-0.240,0.080
11.789,-0.235,0.075
11.792,-0.245,0.075
11.794,-0.230,0.070
11.797,-0.220,0.065
11.800,-0.230,0.080
11.803,-0.230,0.095
11.806,-0.215,0.100
11.808,-0.210,0.090
11.811,-0.225,0.090
11.814,-0.230,0.075
11.817,-0.235,0.080
11.819,-0.235,0.100
11.822,-0.200,0.105
11.825,-0.200,0.100
11.828,-0.215,0.105
11.831,-0.235,0.100
11.833,-0.230,0.120
11.836,-0.210,0.135
11.839,-0.195,0.155
11.842,-0.205,0.145
11.844,-0.220,0.140
11.847,-0.240,0.155
11.850,-0.250,0.155
11.853,-0.230,0.175
11.856,-0.225,0.175
11.858,-0.210,0.190
11.861,-0.225,0.185
11.864,-0.235,0.175
11.867,-0.240,0.200
11.869,-0.230,0.220
11.872,-0.205,0.230
11.875,-0.205,0.225
11.878,-0.190,0.215
11.881,-0.205,0.210
11.883,-0.220,0.215
11.886,-0.215,0.215
11.889,-0.190,0.215
11.892,-0.190,0.210
11.894,-0.195,0.185
11.897,-0.185,0.150
11.900,-0.200,0.150
11.903,-0.175,0.135
11.906,-0.170,0.115
11.908,-0.175,0.105
11.911,-0.180,0.055
11.914,-0.185,0.065
11.917,-0.190,0.080
11.919,-0.170,0.085
11.922,-0.155,0.100
11.925,-0.150,0.090
11.928,-0.175,0.070
11.931,-0.180,0.070
11.933,-0.180,0.085
11.936,-0.170,0.090
11.939,-0.150,0.090
11.942,-0.165,0.095
11.944,-0.175,0.085
11.947,-0.185,0.065
11.950,-0.180,0.075
11.953,-0.170,0.090
11.956,-0.165,0.095
11.958,-0.170,0.095
11.961,-0.185,0.085
11.964,-0.195,0.075
11.967,-0.185,0.080
11.969,-0.180,0.095
11.972,-0.170,0.095
11.975,-0.185,0.100
11.978,-0.195,0.090
11.981,-0.200,0.095
11.983,-0.190,0.120
11.986,-0.180,0.125
11.989,-0.190,0.135
11.992,-0.180,0.140
11.994,-0.195,0.135
11.997,-0.210,0.130
12.000,-0.215,0.145
12.003,-0.210,0.155
12.006,-0.205,0.175
12.008,-0.200,0.175
12.011,-0.195,0.175
12.014,-0.210,0.185
12.017,-0.215,0.190
12.019,-0.180,0.205
12.022,-0.180,0.210
12.025,-0.185,0.205
12.028,-0.195,0.200
12.031,-0.205,0.205
12.033,-0.205,0.215
12.036,-0.185,0.225
12.039,-0.175,0.230
12.042,-0.175,0.195
12.044,-0.180,0.170
12.047,-0.175,0.160
12.050,-0.175,0.150
12.053,-0.155,0.125
12.056,-0.155,0.110
12.058,-0.145,0.085
12.061,-0.155,0.075
12.064,-0.160,0.065
12.067,-0.160,0.060
12.069,-0.165,0.075
12.072,-0.150,0.065
12.075,-0.140,0.045
12.078,-0.160,0.050
12.081,-0.160,0.045
12.083,-0.185,0.035
12.086,-0.170,0.050
12.089,-0.140,0.070
12.092,-0.150,0.055
12.094,-0.160,0.035
12.097,-0.170,0.030
12.100,-0.180,0.035
12.103,-0.170,0.045
12.106,-0.170,0.050
12.108,-0.165,0.055
12.111,-0.180,0.045
12.114,-0.175,0.045
12.117,-0.175,0.060
12.119,-0.165,0.070
12.122,-0.145,0.075
12.125,-0.150,0.070
12.128,-0.175,0.070
12.131,-0.175,0.075
12.133,-0.175,0.105
12.136,-0.160,0.100
12.139,-0.105,0.105
12.142,-0.040,0.095
12.144,0.040,0.075
12.147,0.140,0.035
12.150,0.245,0.040
12.153,0.375,0.015
12.156,0.495,-0.005
12.158,0.625,-0.010
12.161,0.725,-0.015
12.164,0.815,-0.040
12.167,0.890,-0.075
12.169,0.905,-0.100
12.172,0.895,-0.115
12.175,0.845,-0.150
12.178,0.745,-0.155
12.181,0.610,-0.140
12.183,0.440,-0.095
12.186,0.240,-0.040
12.189,0.075,-0.005
12.192,-0.025,0.010
12.194,-0.080,0.030
12.197,-0.135,0.040
12.200,-0.175,0.060
12.203,-0.210,0.080
12.206,-0.205,0.090
12.208,-0.210,0.090
12.211,-0.220,0.090
12.214,-0.245,0.080
12.217,-0.260,0.095
12.219,-0.255,0.105
12.222,-0.245,0.100
12.225,-0.265,0.100
12.228,-0.270,0.100
12.231,-0.290,0.085
12.233,-0.295,0.100
12.236,-0.290,0.110
12.239,-0.290,0.120
12.242,-0.310,0.120
12.244,-0.325,0.105
12.247,-0.330,0.110
12.250,-0.330,0.110
12.253,-0.340,0.105
12.256,-0.330,0.115
12.258,-0.340,0.110
12.261,-0.355,0.105
12.264,-0.365,0.105
12.267,-0.375,0.110
12.269,-0.365,0.120
12.272,-0.355,0.140
12.275,-0.360,0.125
12.278,-0.380,0.125
12.281,-0.385,0.130
12.283,-0.385,0.150
12.286,-0.380,0.160
12.289,-0.365,0.165
12.292,-0.390,0.165
12.294,-0.390,0.150
12.297,-0.425,0.155
12.300,-0.420,0.150
12.303,-0.385,0.185
12.306,-0.385,0.185
12.308,-0.375,0.190
12.311,-0.380,0.175
12.314,-0.385,0.170
12.317,-0.395,0.160
12.319,-0.385,0.160
12.322,-0.370,0.170
12.325,-0.390,0.145
12.328,-0.380,0.110
12.331,-0.375,0.110
12.333,-0.375,0.110
12.336,-0.355,0.125
12.339,-0.345,0.140
12.342,-0.335,0.135
12.344,-0.325,0.105
12.347,-0.325,0.100
12.350,-0.315,0.125
12.353,-0.300,0.115
12.356,-0.285,0.115
12.358,-0.280,0.120
12.361,-0.275,0.110
12.364,-0.285,0.105
12.367,-0.275,0.100
12.369,-0.260,0.110
12.372,-0.250,0.125
12.375,-0.240,0.115
12.378,-0.230,0.110
12.381,-0.230,0.095
12.383,-0.225,0.115
12.386,-0.210,0.120
12.389,-0.205,0.135
12.392,-0.195,0.130
12.394,-0.200,0.120
12.397,-0.195,0.125
12.400,-0.185,0.145
12.403,-0.185,0.155
12.406,-0.185,0.160
12.408,-0.180,0.165
12.411,-0.200,0.155
12.414,-0.195,0.155
12.417,-0.200,0.165
12.419,-0.200,0.165
12.422,-0.190,0.190
12.425,-0.205,0.175
12.428,-0.215,0.175
12.431,-0.210,0.175
12.433,-0.200,0.190
12.436,-0.205,0.195
12.439,-0.185,0.205
12.442,-0.185,0.190
12.444,-0.205,0.175
12.447,-0.225,0.165
12.450,-0.225,0.150
12.453,-0.210,0.150
12.456,-0.195,0.150
12.458,-0.210,0.155
12.461,-0.205,0.120
12.464,-0.215,0.105
12.467,-0.225,0.095
12.469,-0.215,0.110
12.472,-0.190,0.090
12.475,-0.185,0.075
12.478,-0.190,0.070
12.481,-0.195,0.075
12.483,-0.205,0.085
12.486,-0.190,0.090
12.489,-0.180,0.095
12.492,-0.170,0.105
12.494,-0.180,0.095
12.497,-0.185,0.100
12.500,-0.185,0.115
12.503,-0.165,0.135
12.506,-0.155,0.145
12.508,-0.155,0.160
12.511,-0.155,0.135
12.514,-0.175,0.140
12.517,-0.190,0.145
12.519,-0.175,0.160
12.522,-0.155,0.160
12.525,-0.155,0.150
12.528,-0.170,0.145
12.531,-0.180,0.155
12.533,-0.190,0.155
12.536,-0.175,0.185
12.539,-0.160,0.195
12.542,-0.155,0.190
12.544,-0.185,0.175
12.547,-0.185,0.170
12.550,-0.200,0.185
12.553,-0.190,0.195
12.556,-0.170,0.220
12.558,-0.185,0.220
12.561,-0.185,0.205
12.564,-0.200,0.200
12.567,-0.190,0.205
12.569,-0.180,0.220
12.572,-0.175,0.225
12.575,-0.175,0.215
12.578,-0.190,0.215
12.581,-0.200,0.205
12.583,-0.185,0.195
12.586,-0.170,0.200
12.589,-0.165,0.205
12.592,-0.175,0.190
12.594,-0.190,0.175
12.597,-0.195,0.175
12.600,-0.185,0.170
12.603,-0.175,0.180
12.606,-0.165,0.185
12.608,-0.180,0.180
12.611,-0.190,0.175
12.614,-0.195,0.155
12.617,-0.200,0.160
12.619,-0.185,0.145
12.622,-0.175,0.125
12.625,-0.170,0.115
12.628,-0.190,0.095
12.631,-0.215,0.090
12.633,-0.210,0.085
12.636,-0.190,0.080
12.639,-0.180,0.095
12.642,-0.175,0.085
12.644,-0.180,0.065
12.647,-0.195,0.065
12.650,-0.200,0.070
12.653,-0.185,0.085
12.656,-0.175,0.095
12.658,-0.170,0.095
12.661,-0.160,0.085
12.664,-0.175,0.085
12.667,-0.175,0.085
12.669,-0.165,0.110
12.672,-0.175,0.100
12.675,-0.165,0.105
12.678,-0.170,0.095
12.681,-0.180,0.090
12.683,-0.180,0.105
12.686,-0.180,0.125
12.689,-0.180,0.135
12.692,-0.175,0.125
12.694,-0.185,0.115
12.697,-0.190,0.120
12.700,-0.190,0.130
12.703,-0.190,0.150
12.706,-0.170,0.145
12.708,-0.170,0.165
12.711,-0.185,0.160
12.714,-0.180,0.145
12.717,-0.190,0.160
12.719,-0.170,0.175
12.722,-0.160,0.180
12.725,-0.165,0.180
12.728,-0.180,0.160
12.731,-0.155,0.140
12.733,-0.105,0.140
12.736,-0.025,0.120
12.739,0.080,0.105
12.742,0.205,0.085
12.744,0.315,0.040
12.747,0.410,0.010
12.750,0.495,-0.005
12.753,0.635,-0.020
12.756,0.760,-0.040
12.758,0.895,-0.070
12.761,0.955,-0.120
12.764,0.960,-0.175
12.767,0.920,-0.185
12.769,0.870,-0.175
12.772,0.780,-0.170
12.775,0.640,-0.130
12.778,0.440,-0.095
12.781,0.220,-0.055
12.783,0.060,-0.010
12.786,-0.025,0.040
12.789,-0.070,0.075
12.792,-0.130,0.090
12.794,-0.210,0.085
12.797,-0.260,0.100
12.800,-0.280,0.100
12.803,-0.295,0.120
12.806,-0.285,0.110
12.808,-0.305,0.090
12.811,-0.325,0.055
12.814,-0.345,0.055
12.817,-0.345,0.070
12.819,-0.335,0.080
12.822,-0.325,0.105
12.825,-0.325,0.100
12.828,-0.340,0.090
12.831,-0.355,0.085
12.833,-0.355,0.090
12.836,-0.345,0.110
12.839,-0.350,0.120
12.842,-0.340,0.125
12.844,-0.365,0.115
12.847,-0.370,0.125
12.850,-0.390,0.130
12.853,-0.400,0.150
12.856,-0.395,0.145
12.858,-0.375,0.150
12.861,-0.385,0.150
12.864,-0.385,0.150
12.867,-0.390,0.160
12.869,-0.400,0.175
12.872,-0.380,0.180
12.875,-0.385,0.185
12.878,-0.390,0.165
12.881,-0.395,0.155
12.883,-0.405,0.170
12.886,-0.395,0.180
12.889,-0.370,0.180
12.892,-0.380,0.160
12.894,-0.400,0.155
12.897,-0.410,0.150
12.900,-0.395,0.160
12.903,-0.380,0.165
12.906,-0.365,0.175
12.908,-0.365,0.165
12.911,-0.370,0.160
12.914,-0.380,0.160
12.917,-0.380,0.160
12.919,-0.360,0.160
12.922,-0.340,0.170
12.925,-0.335,0.160
12.928,-0.360,0.155
12.931,-0.365,0.135
12.933,-0.360,0.155
12.936,-0.355,0.165
12.939,-0.345,0.175
12.942,-0.345,0.150
12.944,-0.355,0.155
12.947,-0.385,0.150
12.950,-0.395,0.150
12.953,-0.380,0.150
12.956,-0.370,0.130
12.958,-0.360,0.105
12.961,-0.365,0.075
12.964,-0.370,0.065
12.967,-0.365,0.065
12.969,-0.345,0.065
12.972,-0.335,0.100
12.975,-0.330,0.085
12.978,-0.335,0.085
12.981,-0.330,0.085
12.983,-0.330,0.105
12.986,-0.330,0.110
12.989,-0.300,0.130
12.992,-0.300,0.125
12.994,-0.300,0.090
12.997,-0.305,0.110
13.000,-0.300,0.120
13.003,-0.280,0.130
13.006,-0.255,0.155
13.008,-0.270,0.155
13.011,-0.260,0.140
13.014,-0.270,0.145
13.017,-0.260,0.155
13.019,-0.255,0.185
13.022,-0.225,0.195
13.025,-0.210,0.185
13.028,-0.230,0.180
13.031,-0.230,0.175
13.033,-0.235,0.180
13.036,-0.215,0.190
13.039,-0.195,0.195
13.042,-0.190,0.180
13.044,-0.200,0.175
13.047,-0.215,0.170
13.050,-0.215,0.165
13.053,-0.195,0.180
13.056,-0.170,0.185
13.058,-0.175,0.180
13.061,-0.180,0.185
13.064,-0.180,0.185
13.067,-0.180,0.185
13.069,-0.165,0.195
13.072,-0.160,0.205
13.075,-0.155,0.195
13.078,-0.160,0.185
13.081,-0.175,0.175
13.083,-0.175,0.190
13.086,-0.170,0.180
13.089,-0.170,0.185
13.092,-0.180,0.185
13.094,-0.200,0.170
13.097,-0.220,0.165
13.100,-0.230,0.160
13.103,-0.220,0.155
13.106,-0.205,0.135
13.108,-0.205,0.120
13.111,-0.215,0.105
13.114,-0.210,0.080
13.117,-0.215,0.075
13.119,-0.195,0.095
13.122,-0.185,0.105
13.125,-0.185,0.105
13.128,-0.190,0.115
13.131,-0.210,0.110
13.133,-0.210,0.115
13.136,-0.185,0.135
13.139,-0.180,0.150
13.142,-0.180,0.150
13.144,-0.200,0.135
13.147,-0.230,0.130
13.150,-0.225,0.145
13.153,-0.220,0.170
13.156,-0.200,0.175
13.158,-0.200,0.170
13.161,-0.205,0.175
13.164,-0.210,0.170
13.167,-0.210,0.170
13.169,-0.215,0.195
13.172,-0.205,0.200
13.175,-0.205,0.195
13.178,-0.200,0.185
13.181,-0.195,0.180
13.183,-0.200,0.155
13.186,-0.200,0.175
13.189,-0.200,0.175
13.192,-0.195,0.175
13.194,-0.190,0.165
13.197,-0.185,0.160
13.200,-0.190,0.165
13.203,-0.180,0.170
13.206,-0.170,0.180
13.208,-0.175,0.175
13.211,-0.180,0.175
13.214,-0.185,0.175
13.217,-0.185,0.175
13.219,-0.170,0.180
13.222,-0.160,0.195
13.225,-0.170,0.195
13.228,-0.195,0.185
13.231,-0.200,0.180
13.233,-0.215,0.175
13.236,-0.195,0.185
13.239,-0.195,0.195
13.242,-0.215,0.180
13.244,-0.210,0.135
13.247,-0.225,0.095
13.250,-0.225,0.105
13.253,-0.210,0.105
13.256,-0.195,0.100
13.258,-0.200,0.095
13.261,-0.190,0.095
13.264,-0.220,0.095
13.267,-0.215,0.105
13.269,-0.205,0.120
13.272,-0.200,0.130
13.275,-0.190,0.130
13.278,-0.195,0.125
13.281,-0.200,0.115
13.283,-0.210,0.130
13.286,-0.200,0.150
13.289,-0.205,0.160
13.292,-0.220,0.165
13.294,-0.220,0.155
13.297,-0.220,0.150
13.300,-0.220,0.170
13.303,-0.205,0.190
13.306,-0.200,0.195
13.308,-0.190,0.195
13.311,-0.205,0.185
13.314,-0.210,0.180
13.317,-0.205,0.190
13.319,-0.195,0.195
13.322,-0.180,0.205
13.325,-0.200,0.190
13.328,-0.195,0.195
13.331,-0.210,0.165
13.333,-0.215,0.175
13.336,-0.200,0.185
13.339,-0.175,0.195
13.342,-0.175,0.180
13.344,-0.185,0.170
13.347,-0.195,0.170
13.350,-0.200,0.175
13.353,-0.175,0.190
13.356,-0.160,0.200
13.358,-0.155,0.195
13.361,-0.160,0.190
13.364,-0.180,0.180
13.367,-0.165,0.190
13.369,-0.155,0.195
13.372,-0.095,0.185
13.375,-0.015,0.160
13.378,0.075,0.130
13.381,0.175,0.090
13.383,0.270,0.075
13.386,0.365,0.050
13.389,0.480,-0.005
13.392,0.585,-0.045
13.394,0.690,-0.080
13.397,0.770,-0.095
13.400,0.835,-0.130
13.403,0.870,-0.145
13.406,0.865,-0.190
13.408,0.810,-0.195
13.411,0.740,-0.205
13.414,0.655,-0.210
13.417,0.545,-0.165
13.419,0.390,-0.130
13.422,0.215,-0.080
13.425,0.055,-0.040
13.428,-0.060,-0.015
13.431,-0.115,0.005
13.433,-0.155,0.040
13.436,-0.200,0.080
13.439,-0.225,0.105
13.442,-0.250,0.115
13.444,-0.280,0.115
13.447,-0.300,0.125
13.450,-0.330,0.150
13.453,-0.320,0.155
13.456,-0.320,0.180
13.458,-0.325,0.175
13.461,-0.345,0.170
13.464,-0.355,0.190
13.467,-0.345,0.185
13.469,-0.360,0.200
13.472,-0.360,0.215
13.475,-0.355,0.210
13.478,-0.355,0.190
13.481,-0.390,0.195
13.483,-0.385,0.190
13.486,-0.365,0.200
13.489,-0.350,0.200
13.492,-0.360,0.185
13.494,-0.380,0.170
13.497,-0.380,0.165
13.500,-0.385,0.185
13.503,-0.360,0.200
13.506,-0.345,0.210
13.508,-0.355,0.210
13.511,-0.365,0.185
13.514,-0.370,0.180
13.517,-0.380,0.195
13.519,-0.370,0.195
13.522,-0.345,0.190
13.525,-0.350,0.205
13.528,-0.360,0.180
13.531,-0.380,0.195
13.533,-0.390,0.190
13.536,-0.380,0.205
13.539,-0.365,0.215
13.542,-0.360,0.205
13.544,-0.380,0.190
13.547,-0.390,0.185
13.550,-0.395,0.170
13.553,-0.400,0.160
13.556,-0.400,0.155
13.558,-0.400,0.145
13.561,-0.420,0.115
13.564,-0.430,0.105
13.567,-0.425,0.105
13.569,-0.405,0.115
13.572,-0.405,0.110
13.575,-0.395,0.115
13.578,-0.405,0.105
13.581,-0.410,0.105
13.583,-0.410,0.115
13.586,-0.395,0.125
13.589,-0.390,0.145
13.592,-0.370,0.150
13.594,-0.395,0.145
13.597,-0.410,0.130
13.600,-0.420,0.145
13.603,-0.415,0.160
13.606,-0.400,0.170
13.608,-0.385,0.180
13.611,-0.385,0.175
13.614,-0.410,0.160
13.617,-0.420,0.180
13.619,-0.410,0.200
13.622,-0.395,0.205
13.625,-0.390,0.210
13.628,-0.385,0.215
13.631,-0.405,0.210
13.633,-0.385,0.215
13.636,-0.365,0.220
13.639,-0.370,0.230
13.642,-0.350,0.215
13.644,-0.350,0.205
13.647,-0.340,0.200
13.650,-0.335,0.200
13.653,-0.330,0.225
13.656,-0.310,0.215
13.658,-0.285,0.190
13.661,-0.295,0.180
13.664,-0.295,0.190
13.667,-0.285,0.195
13.669,-0.260,0.200
13.672,-0.245,0.215
13.675,-0.245,0.205
13.678,-0.240,0.195
13.681,-0.225,0.190
13.683,-0.230,0.200
13.686,-0.220,0.215
13.689,-0.205,0.215
13.692,-0.200,0.210
13.694,-0.215,0.210
13.697,-0.230,0.195
13.700,-0.225,0.195
13.703,-0.210,0.195
13.706,-0.205,0.185
13.708,-0.210,0.170
13.711,-0.220,0.160
13.714,-0.230,0.140
13.717,-0.235,0.150
13.719,-0.230,0.155
13.722,-0.220,0.155
13.725,-0.220,0.140
13.728,-0.230,0.130
13.731,-0.245,0.110
13.733,-0.240,0.110
13.736,-0.215,0.130
13.739,-0.205,0.140
13.742,-0.200,0.135
13.744,-0.215,0.140
13.747,-0.240,0.135
13.750,-0.240,0.145
13.753,-0.220,0.160
13.756,-0.205,0.170
13.758,-0.205,0.165
13.761,-0.215,0.165
13.764,-0.240,0.175
13.767,-0.240,0.185
13.769,-0.235,0.205
13.772,-0.220,0.215
13.775,-0.235,0.210
13.778,-0.245,0.210
13.781,-0.245,0.195
13.783,-0.245,0.220
13.786,-0.235,0.225
13.789,-0.220,0.245
13.792,-0.220,0.240
13.794,-0.230,0.225
13.797,-0.245,0.215
13.800,-0.235,0.220
13.803,-0.210,0.225
13.806,-0.205,0.225
13.808,-0.205,0.215
13.811,-0.220,0.205
13.814,-0.220,0.190
13.817,-0.235,0.200
13.819,-0.210,0.205
13.822,-0.195,0.215
13.825,-0.175,0.205
13.828,-0.195,0.205
13.831,-0.195,0.205
13.833,-0.200,0.210
13.836,-0.190,0.220
13.839,-0.175,0.235
13.842,-0.160,0.230
13.844,-0.180,0.220
13.847,-0.190,0.200
13.850,-0.195,0.190
13.853,-0.195,0.190
13.856,-0.165,0.175
13.858,-0.165,0.165
13.861,-0.180,0.145
13.864,-0.195,0.130
13.867,-0.205,0.115
13.869,-0.210,0.115
13.872,-0.205,0.135
13.875,-0.215,0.130
13.878,-0.210,0.110
13.881,-0.220,0.105
13.883,-0.215,0.110
13.886,-0.210,0.125
13.889,-0.200,0.140
13.892,-0.190,0.155
13.894,-0.195,0.135
13.897,-0.200,0.150
13.900,-0.210,0.160
13.903,-0.205,0.170
13.906,-0.195,0.185
13.908,-0.180,0.180
13.911,-0.200,0.175
13.914,-0.210,0.170
13.917,-0.230,0.190
13.919,-0.210,0.205
13.922,-0.200,0.225
13.925,-0.190,0.240
13.928,-0.195,0.215
13.931,-0.210,0.225
13.933,-0.230,0.245
13.936,-0.210,0.260
13.939,-0.200,0.255
13.942,-0.195,0.250
13.944,-0.205,0.240
13.947,-0.225,0.240
13.950,-0.230,0.240
13.953,-0.230,0.240
13.956,-0.205,0.250
13.958,-0.200,0.245
13.961,-0.210,0.225
13.964,-0.220,0.215
13.967,-0.220,0.220
13.969,-0.220,0.235
13.972,-0.200,0.230
13.975,-0.190,0.225
13.978,-0.205,0.205
13.981,-0.215,0.195
13.983,-0.220,0.195
13.986,-0.215,0.205
13.989,-0.205,0.205
13.992,-0.200,0.215
13.994,-0.215,0.200
13.997,-0.225,0.195
14.000,-0.245,0.185
14.003,-0.220,0.195
14.006,-0.220,0.200
14.008,-0.225,0.175
14.011,-0.230,0.150
14.014,-0.240,0.130
14.017,-0.245,0.135
14.019,-0.225,0.120
14.022,-0.220,0.130
14.025,-0.215,0.125
14.028,-0.240,0.110
14.031,-0.245,0.100
14.033,-0.235,0.105
14.036,-0.215,0.115
14.039,-0.205,0.125
14.042,-0.200,0.140
14.044,-0.210,0.120
14.047,-0.225,0.125
14.050,-0.230,0.130
14.053,-0.220,0.155
14.056,-0.205,0.145
14.058,-0.215,0.145
14.061,-0.220,0.165
14.064,-0.235,0.145
14.067,-0.235,0.165
14.069,-0.230,0.170
14.072,-0.220,0.190
14.075,-0.215,0.195
14.078,-0.215,0.200
14.081,-0.230,0.180
14.083,-0.225,0.200
14.086,-0.225,0.205
14.089,-0.205,0.210
14.092,-0.215,0.205
14.094,-0.205,0.200
14.097,-0.220,0.185
14.100,-0.215,0.195
14.103,-0.215,0.190
14.106,-0.195,0.195
14.108,-0.200,0.190
14.111,-0.200,0.200
14.114,-0.205,0.180
14.117,-0.205,0.180
14.119,-0.195,0.195
14.122,-0.170,0.205
14.125,-0.160,0.200
14.128,-0.180,0.185
14.131,-0.190,0.170
14.133,-0.190,0.175
14.136,-0.180,0.190
14.139,-0.165,0.195
14.142,-0.170,0.185
14.144,-0.185,0.190
14.147,-0.200,0.185
14.150,-0.215,0.190
14.153,-0.190,0.210
14.156,-0.185,0.200
14.158,-0.190,0.180
14.161,-0.190,0.160
14.164,-0.205,0.150
14.167,-0.220,0.135
14.169,-0.200,0.125
14.172,-0.190,0.125
14.175,-0.175,0.115
14.178,-0.175,0.110
14.181,-0.185,0.105
14.183,-0.185,0.120
14.186,-0.175,0.140
14.189,-0.170,0.140
14.192,-0.160,0.155
14.194,-0.160,0.150
14.197,-0.160,0.135
14.200,-0.140,0.135
14.203,-0.085,0.135
14.206,-0.010,0.130
14.208,0.085,0.105
14.211,0.175,0.070
14.214,0.270,0.055
14.217,0.365,0.025
14.219,0.480,0.015
14.222,0.590,0.020
14.225,0.705,0.010
14.228,0.800,-0.010
14.231,0.855,-0.055
14.233,0.870,-0.095
14.236,0.850,-0.105
14.239,0.835,-0.125
14.242,0.770,-0.115
14.244,0.665,-0.115
14.247,0.500,-0.065
14.250,0.310,-0.005
14.253,0.110,0.035
14.256,-0.005,0.090
14.258,-0.085,0.115
14.261,-0.120,0.100
14.264,-0.170,0.135
14.267,-0.220,0.155
14.269,-0.245,0.175
14.272,-0.235,0.210
14.275,-0.240,0.200
14.278,-0.245,0.200
14.281,-0.270,0.205
14.283,-0.290,0.205
14.286,-0.285,0.220
14.289,-0.275,0.225
14.292,-0.285,0.230
14.294,-0.315,0.205
14.297,-0.315,0.205
14.300,-0.320,0.220
14.303,-0.315,0.240
14.306,-0.290,0.250
14.308,-0.315,0.240
14.311,-0.335,0.220
14.314,-0.355,0.210
14.317,-0.370,0.205
14.319,-0.385,0.210
14.322,-0.355,0.210
14.325,-0.360,0.195
14.328,-0.375,0.165
14.331,-0.375,0.160
14.333,-0.375,0.145
14.336,-0.380,0.145
14.339,-0.365,0.160
14.342,-0.365,0.145
14.344,-0.360,0.145
14.347,-0.370,0.145
14.350,-0.375,0.155
14.353,-0.365,0.175
14.356,-0.360,0.185
14.358,-0.365,0.180
14.361,-0.385,0.170
14.364,-0.390,0.170
14.367,-0.390,0.175
14.369,-0.390,0.205
14.372,-0.380,0.205
14.375,-0.390,0.205
14.378,-0.405,0.200
14.381,-0.400,0.200
14.383,-0.395,0.205
14.386,-0.390,0.220
14.389,-0.375,0.235
14.392,-0.365,0.230
14.394,-0.375,0.210
14.397,-0.385,0.205
14.400,-0.390,0.210
14.403,-0.370,0.220
14.406,-0.355,0.220
14.408,-0.350,0.210
14.411,-0.360,0.200
14.414,-0.385,0.185
14.417,-0.375,0.185
14.419,-0.365,0.200
14.422,-0.355,0.205
14.425,-0.350,0.215
14.428,-0.330,0.200
14.431,-0.335,0.195
14.433,-0.345,0.190
14.436,-0.330,0.205
14.439,-0.315,0.205
14.442,-0.305,0.215
14.444,-0.305,0.190
14.447,-0.305,0.180
14.450,-0.305,0.190
14.453,-0.300,0.190
14.456,-0.290,0.195
14.458,-0.290,0.195
14.461,-0.285,0.190
14.464,-0.300,0.175
14.467,-0.300,0.185
14.469,-0.280,0.180
14.472,-0.280,0.190
14.475,-0.280,0.185
14.478,-0.285,0.180
14.481,-0.290,0.180
14.483,-0.300,0.170
14.486,-0.275,0.165
14.489,-0.260,0.155
14.492,-0.255,0.130
14.494,-0.240,0.115
14.497,-0.245,0.110
14.500,-0.250,0.105
14.503,-0.235,0.105
14.506,-0.230,0.095
14.508,-0.210,0.100
14.511,-0.205,0.080
14.514,-0.200,0.090
14.517,-0.210,0.125
14.519,-0.190,0.150
14.522,-0.180,0.170
14.525,-0.195,0.170
14.528,-0.205,0.160
14.531,-0.220,0.160
14.533,-0.210,0.170
14.536,-0.195,0.205
14.539,-0.175,0.225
14.542,-0.200,0.220
14.544,-0.195,0.215
14.547,-0.200,0.215
14.550,-0.195,0.230
14.553,-0.180,0.240
14.556,-0.170,0.255
14.558,-0.170,0.250
14.561,-0.175,0.235
14.564,-0.195,0.245
14.567,-0.195,0.240
14.569,-0.195,0.235
14.572,-0.160,0.240
14.575,-0.165,0.245
14.578,-0.175,0.230
14.581,-0.180,0.230
14.583,-0.190,0.230
14.586,-0.180,0.255
14.589,-0.160,0.260
14.592,-0.150,0.275
14.594,-0.160,0.240
14.597,-0.165,0.255
14.600,-0.165,0.255
14.603,-0.160,0.250
14.606,-0.160,0.260
14.608,-0.165,0.255
14.611,-0.180,0.250
14.614,-0.165,0.240
14.617,-0.170,0.245
14.619,-0.165,0.240
14.622,-0.155,0.260
14.625,-0.170,0.260
14.628,-0.185,0.240
14.631,-0.205,0.220
14.633,-0.210,0.220
14.636,-0.180,0.230
14.639,-0.170,0.215
14.642,-0.165,0.200
14.644,-0.170,0.180
14.647,-0.185,0.155
14.650,-0.195,0.145
14.653,-0.185,0.140
14.656,-0.180,0.125
14.658,-0.165,0.125
14.661,-0.180,0.115
14.664,-0.190,0.115
14.667,-0.200,0.125
14.669,-0.190,0.145
14.672,-0.175,0.150
14.675,-0.170,0.165
14.678,-0.175,0.160
14.681,-0.180,0.170
14.683,-0.190,0.170
14.686,-0.185,0.195
14.689,-0.175,0.215
14.692,-0.165,0.215
14.694,-0.180,0.210
14.697,-0.185,0.220
14.700,-0.185,0.225
14.703,-0.175,0.240
14.706,-0.170,0.245
14.708,-0.170,0.245
14.711,-0.175,0.230
14.714,-0.190,0.235
14.717,-0.200,0.230
14.719,-0.175,0.245
14.722,-0.170,0.245
14.725,-0.180,0.235
14.728,-0.185,0.225
14.731,-0.205,0.220
14.733,-0.195,0.225
14.736,-0.190,0.245
14.739,-0.180,0.255
14.742,-0.165,0.250
14.744,-0.175,0.240
14.747,-0.185,0.225
14.750,-0.195,0.235
14.753,-0.180,0.245
14.756,-0.160,0.245
14.758,-0.160,0.240
14.761,-0.165,0.225
14.764,-0.180,0.215
14.767,-0.185,0.210
14.769,-0.185,0.230
14.772,-0.170,0.235
14.775,-0.170,0.220
14.778,-0.175,0.200
14.781,-0.195,0.195
14.783,-0.200,0.190
14.786,-0.200,0.185
14.789,-0.200,0.185
14.792,-0.190,0.175
14.794,-0.190,0.155
14.797,-0.195,0.135
14.800,-0.225,0.135
14.803,-0.215,0.135
14.806,-0.195,0.150
14.808,-0.190,0.125
14.811,-0.195,0.120
14.814,-0.200,0.125
14.817,-0.200,0.140
14.819,-0.185,0.135
14.822,-0.170,0.155
14.825,-0.170,0.160
14.828,-0.180,0.160
14.831,-0.190,0.160
14.833,-0.195,0.175
14.836,-0.185,0.200
14.839,-0.170,0.215
14.842,-0.170,0.210
14.844,-0.170,0.205
14.847,-0.185,0.200
14.850,-0.185,0.215
14.853,-0.170,0.220
14.856,-0.165,0.240
14.858,-0.155,0.240
14.861,-0.155,0.220
14.864,-0.145,0.195
14.867,-0.095,0.200
14.869,0.015,0.175
14.872,0.125,0.160
14.875,0.235,0.145
14.878,0.345,0.115
14.881,0.450,0.070
14.883,0.555,0.045
14.886,0.685,0.050
14.889,0.820,0.035
14.892,0.920,0.010
14.894,0.965,-0.060
14.897,0.945,-0.105
14.900,0.905,-0.115
14.903,0.860,-0.095
14.906,0.790,-0.085
14.908,0.665,-0.035
14.911,0.480,-0.010
14.914,0.255,0.035
14.917,0.085,0.060
14.919,-0.005,0.100
14.922,-0.065,0.130
14.925,-0.110,0.160
14.928,-0.180,0.165
14.931,-0.245,0.170
14.933,-0.280,0.190
14.936,-0.275,0.205
14.939,-0.285,0.200
14.942,-0.290,0.195
14.944,-0.305,0.170
14.947,-0.325,0.160
14.950,-0.350,0.140
14.953,-0.350,0.150
14.956,-0.350,0.155
14.958,-0.345,0.135
14.961,-0.350,0.125
14.964,-0.360,0.115
14.967,-0.380,0.105
14.969,-0.370,0.125
14.972,-0.375,0.135
14.975,-0.370,0.150
14.978,-0.385,0.145
14.981,-0.395,0.145
14.983,-0.390,0.165
14.986,-0.385,0.190
14.989,-0.370,0.205
14.992,-0.370,0.210
14.994,-0.385,0.205
14.997,-0.390,0.210
15.000,-0.385,0.220
15.003,-0.390,0.225
15.006,-0.380,0.240
15.008,-0.365,0.230
15.011,-0.390,0.225
15.014,-0.400,0.215
15.017,-0.410,0.215
15.019,-0.395,0.225
15.022,-0.375,0.235
15.025,-0.375,0.220
15.028,-0.385,0.215
15.031,-0.395,0.200
15.033,-0.400,0.220
15.036,-0.385,0.230
15.039,-0.380,0.235
15.042,-0.380,0.220
15.044,-0.375,0.235
15.047,-0.395,0.230
15.050,-0.375,0.220
15.053,-0.370,0.240
15.056,-0.365,0.245
15.058,-0.350,0.235
15.061,-0.360,0.225
15.064,-0.370,0.225
15.067,-0.370,0.220
15.069,-0.360,0.220
15.072,-0.345,0.240
15.075,-0.355,0.235
15.078,-0.365,0.215
15.081,-0.375,0.200
15.083,-0.375,0.200
15.086,-0.365,0.215
15.089,-0.370,0.210
15.092,-0.370,0.190
15.094,-0.375,0.200
15.097,-0.385,0.190
15.100,-0.385,0.190
15.103,-0.390,0.190
15.106,-0.375,0.190
15.108,-0.365,0.185
15.111,-0.370,0.155
15.114,-0.380,0.150
15.117,-0.385,0.145
15.119,-0.375,0.150
15.122,-0.375,0.150
15.125,-0.340,0.135
15.128,-0.345,0.115
15.131,-0.350,0.115
15.133,-0.340,0.120
15.136,-0.330,0.130
15.139,-0.315,0.150
15.142,-0.305,0.160
15.144,-0.300,0.155
15.147,-0.305,0.160
15.150,-0.295,0.170
15.153,-0.275,0.180
15.156,-0.260,0.200
15.158,-0.255,0.205
15.161,-0.260,0.195
15.164,-0.270,0.195
15.167,-0.250,0.210
15.169,-0.240,0.210
15.172,-0.215,0.220
15.175,-0.210,0.220
15.178,-0.210,0.210
15.181,-0.245,0.205
15.183,-0.240,0.215
15.186,-0.230,0.215
15.189,-0.215,0.220
15.192,-0.215,0.215
15.194,-0.215,0.230
15.197,-0.215,0.210
15.200,-0.225,0.220
15.203,-0.225,0.235
15.206,-0.210,0.245
15.208,-0.195,0.245
15.211,-0.200,0.220
15.214,-0.200,0.215
15.217,-0.205,0.225
15.219,-0.205,0.225
15.222,-0.190,0.235
15.225,-0.200,0.235
15.228,-0.205,0.215
15.231,-0.210,0.215
15.233,-0.215,0.215
15.236,-0.215,0.235
15.239,-0.200,0.230
15.242,-0.215,0.240
15.244,-0.235,0.215
15.247,-0.245,0.210
15.250,-0.250,0.230
15.253,-0.230,0.220
15.256,-0.245,0.235
15.258,-0.245,0.230
15.261,-0.255,0.220
15.264,-0.270,0.210
15.267,-0.270,0.195
15.269,-0.255,0.200
15.272,-0.240,0.200
15.275,-0.230,0.175
15.278,-0.235,0.155
15.281,-0.245,0.145
15.283,-0.245,0.145
15.286,-0.240,0.170
15.289,-0.230,0.170
15.292,-0.230,0.180
15.294,-0.220,0.165
15.297,-0.245,0.175
15.300,-0.250,0.185
15.303,-0.240,0.200
15.306,-0.240,0.210
15.308,-0.225,0.210
15.311,-0.230,0.200
15.314,-0.225,0.190
15.317,-0.220,0.210
15.319,-0.220,0.215
15.322,-0.205,0.210
15.325,-0.205,0.210
15.328,-0.205,0.195
15.331,-0.220,0.185
15.333,-0.215,0.180
15.336,-0.210,0.190
15.339,-0.200,0.215
15.342,-0.200,0.200
15.344,-0.210,0.185
15.347,-0.220,0.185
15.350,-0.230,0.200
15.353,-0.205,0.200
15.356,-0.195,0.225
15.358,-0.185,0.220
15.361,-0.195,0.220
15.364,-0.205,0.200
15.367,-0.215,0.215
15.369,-0.215,0.215
15.372,-0.185,0.225
15.375,-0.190,0.225
15.378,-0.200,0.200
15.381,-0.210,0.205
15.383,-0.225,0.215
15.386,-0.215,0.225
15.389,-0.220,0.220
15.392,-0.210,0.225
15.394,-0.230,0.205
15.397,-0.255,0.200
15.400,-0.250,0.210
15.403,-0.250,0.215
15.406,-0.245,0.225
15.408,-0.235,0.225
15.411,-0.245,0.215
15.414,-0.250,0.185
15.417,-0.245,0.170
15.419,-0.250,0.160
15.422,-0.230,0.170
15.425,-0.235,0.155
15.428,-0.230,0.155
15.431,-0.240,0.160
15.433,-0.250,0.155
15.436,-0.230,0.175
15.439,-0.230,0.165
15.442,-0.225,0.185
15.444,-0.245,0.175
15.447,-0.245,0.180
15.450,-0.260,0.195
15.453,-0.240,0.230
15.456,-0.230,0.235
15.458,-0.235,0.225
15.461,-0.230,0.220
15.464,-0.245,0.220
15.467,-0.250,0.230
15.469,-0.235,0.235
15.472,-0.225,0.245
15.475,-0.230,0.240
15.478,-0.235,0.230
15.481,-0.235,0.210
15.483,-0.245,0.210
15.486,-0.240,0.230
15.489,-0.220,0.225
15.492,-0.225,0.240
15.494,-0.220,0.230
15.497,-0.225,0.215
15.500,-0.235,0.225
15.503,-0.250,0.255
15.506,-0.230,0.250
15.508,-0.220,0.245
15.511,-0.220,0.235
15.514,-0.230,0.220
15.517,-0.230,0.210
15.519,-0.210,0.210
15.522,-0.210,0.215
15.525,-0.210,0.210
15.528,-0.210,0.190
15.531,-0.240,0.165
15.533,-0.225,0.160
15.536,-0.230,0.175
15.539,-0.210,0.185
15.542,-0.200,0.170
15.544,-0.235,0.155
15.547,-0.235,0.145
15.550,-0.245,0.135
15.553,-0.230,0.135
15.556,-0.225,0.140
15.558,-0.210,0.125
15.561,-0.245,0.115
15.564,-0.240,0.105
15.567,-0.245,0.110
15.569,-0.230,0.130
15.572,-0.220,0.150
15.575,-0.205,0.155
15.578,-0.220,0.140
15.581,-0.250,0.140
15.583,-0.255,0.155
15.586,-0.245,0.165
15.589,-0.220,0.190
15.592,-0.215,0.185
15.594,-0.210,0.200
15.597,-0.215,0.190
15.600,-0.215,0.205
15.603,-0.205,0.230
15.606,-0.195,0.245
15.608,-0.180,0.235
15.611,-0.170,0.205
15.614,-0.105,0.190
15.617,-0.015,0.165
15.619,0.100,0.165
15.622,0.235,0.135
15.625,0.345,0.100
15.628,0.445,0.045
15.631,0.540,0.040
15.633,0.675,0.040
15.636,0.795,0.025
15.639,0.880,-0.030
15.642,0.905,-0.090
15.644,0.880,-0.120
15.647,0.815,-0.125
15.650,0.740,-0.110
15.653,0.640,-0.070
15.656,0.470,-0.020
15.658,0.260,0.020
15.661,0.045,0.050
15.664,-0.075,0.070
15.667,-0.120,0.100
15.669,-0.150,0.140
15.672,-0.200,0.155
15.675,-0.230,0.160
15.678,-0.270,0.170
15.681,-0.295,0.150
15.683,-0.305,0.170
15.686,-0.300,0.185
15.689,-0.315,0.185
15.692,-0.335,0.170
15.694,-0.345,0.165
15.697,-0.360,0.160
15.700,-0.375,0.170
15.703,-0.370,0.165
15.706,-0.365,0.170
15.708,-0.365,0.190
15.711,-0.380,0.170
15.714,-0.390,0.170
15.717,-0.385,0.185
15.719,-0.385,0.195
15.722,-0.385,0.205
15.725,-0.380,0.205
15.728,-0.385,0.200
15.731,-0.400,0.195
15.733,-0.425,0.210
15.736,-0.405,0.240
15.739,-0.410,0.245
15.742,-0.405,0.250
15.744,-0.425,0.240
15.747,-0.420,0.240
15.750,-0.430,0.235
15.753,-0.415,0.240
15.756,-0.410,0.250
15.758,-0.410,0.235
15.761,-0.410,0.230
15.764,-0.425,0.220
15.767,-0.420,0.235
15.769,-0.405,0.230
15.772,-0.405,0.240
15.775,-0.400,0.235
15.778,-0.400,0.220
15.781,-0.420,0.225
15.783,-0.420,0.235
15.786,-0.395,0.230
15.789,-0.390,0.240
15.792,-0.375,0.225
15.794,-0.380,0.235
15.797,-0.385,0.225
15.800,-0.385,0.230
15.803,-0.375,0.230
15.806,-0.350,0.235
15.808,-0.365,0.230
15.811,-0.370,0.210
15.814,-0.375,0.200
15.817,-0.375,0.205
15.819,-0.370,0.205
15.822,-0.370,0.210
15.825,-0.370,0.210
15.828,-0.370,0.195
15.831,-0.395,0.170
15.833,-0.390,0.170
15.836,-0.395,0.180
15.839,-0.375,0.185
15.842,-0.365,0.185
15.844,-0.365,0.195
15.847,-0.375,0.175
15.850,-0.370,0.190
15.853,-0.365,0.190
15.856,-0.365,0.210
15.858,-0.375,0.205
15.861,-0.360,0.205
15.864,-0.345,0.190
15.867,-0.355,0.200
15.869,-0.345,0.210
15.872,-0.335,0.210
15.875,-0.335,0.215
15.878,-0.325,0.205
15.881,-0.330,0.210
15.883,-0.320,0.210
15.886,-0.315,0.225
15.889,-0.305,0.230
15.892,-0.295,0.235
15.894,-0.275,0.225
15.897,-0.275,0.225
15.900,-0.270,0.230
15.903,-0.265,0.240
15.906,-0.250,0.250
15.908,-0.250,0.250
15.911,-0.245,0.250
15.914,-0.255,0.235
15.917,-0.260,0.235
15.919,-0.245,0.235
15.922,-0.245,0.230
15.925,-0.230,0.230
15.928,-0.230,0.230
15.931,-0.240,0.215
15.933,-0.250,0.215
15.936,-0.230,0.245
15.939,-0.215,0.240
15.942,-0.205,0.245
15.944,-0.215,0.225
15.947,-0.230,0.215
15.950,-0.230,0.220
15.953,-0.210,0.235
15.956,-0.215,0.235
15.958,-0.210,0.230
15.961,-0.215,0.215
15.964,-0.235,0.210
15.967,-0.235,0.215
15.969,-0.235,0.225
15.972,-0.225,0.235
15.975,-0.220,0.235
15.978,-0.235,0.230
15.981,-0.255,0.225
15.983,-0.245,0.230
15.986,-0.245,0.245
15.989,-0.245,0.245
15.992,-0.240,0.240
15.994,-0.245,0.245
15.997,-0.260,0.220
16.000,-0.250,0.225
16.003,-0.255,0.240
16.006,-0.250,0.245
16.008,-0.255,0.245
16.011,-0.255,0.230
16.014,-0.275,0.225
16.017,-0.270,0.220
16.019,-0.255,0.235
16.022,-0.250,0.255
16.025,-0.235,0.250
16.028,-0.255,0.245
16.031,-0.255,0.245
16.033,-0.260,0.240
16.036,-0.245,0.255
16.039,-0.235,0.260
16.042,-0.225,0.275
16.044,-0.250,0.250
16.047,-0.265,0.255
16.050,-0.265,0.260
16.053,-0.255,0.260
16.056,-0.240,0.255
16.058,-0.220,0.250
16.061,-0.235,0.225
16.064,-0.250,0.215
16.067,-0.260,0.215
16.069,-0.240,0.230
16.072,-0.230,0.225
16.075,-0.225,0.235
16.078,-0.230,0.225
16.081,-0.235,0.205
16.083,-0.235,0.220
16.086,-0.220,0.225
16.089,-0.210,0.225
16.092,-0.200,0.235
16.094,-0.205,0.230
16.097,-0.215,0.210
16.100,-0.245,0.225
16.103,-0.225,0.230
16.106,-0.230,0.250
16.108,-0.220,0.240
16.111,-0.230,0.220
16.114,-0.240,0.225
16.117,-0.250,0.230
16.119,-0.255,0.240
16.122,-0.250,0.245
16.125,-0.250,0.250
16.128,-0.255,0.240
16.131,-0.265,0.225
16.133,-0.270,0.235
16.136,-0.250,0.245
16.139,-0.240,0.250
16.142,-0.235,0.260
16.144,-0.245,0.245
16.147,-0.260,0.250
16.150,-0.275,0.245
16.153,-0.265,0.255
16.156,-0.220,0.250
16.158,-0.175,0.225
16.161,-0.115,0.165
16.164,-0.035,0.120
16.167,0.070,0.090
16.169,0.190,0.065
16.172,0.330,0.035
16.175,0.445,0.000
16.178,0.585,-0.035
16.181,0.700,-0.050
16.183,0.795,-0.065
16.186,0.865,-0.090
16.189,0.875,-0.125
16.192,0.825,-0.135
16.194,0.765,-0.160
16.197,0.655,-0.140
16.200,0.545,-0.105
16.203,0.375,-0.055
16.206,0.165,0.000
16.208,-0.030,0.040
16.211,-0.140,0.055
16.214,-0.215,0.090
16.217,-0.265,0.125
16.219,-0.305,0.165
16.222,-0.310,0.190
16.225,-0.330,0.195
16.228,-0.350,0.195
16.231,-0.370,0.210
16.233,-0.385,0.205
16.236,-0.370,0.230
16.239,-0.350,0.240
16.242,-0.375,0.245
16.244,-0.390,0.240
16.247,-0.400,0.230
16.250,-0.410,0.235
16.253,-0.415,0.250
16.256,-0.395,0.265
16.258,-0.390,0.265
16.261,-0.395,0.255
16.264,-0.425,0.240
16.267,-0.435,0.240
16.269,-0.460,0.240
16.272,-0.445,0.245
16.275,-0.440,0.240
16.278,-0.460,0.220
16.281,-0.490,0.215
16.283,-0.495,0.210
16.286,-0.485,0.220
16.289,-0.480,0.220
16.292,-0.475,0.210
16.294,-0.490,0.205
16.297,-0.505,0.170
16.300,-0.505,0.170
16.303,-0.485,0.170
16.306,-0.500,0.185
16.308,-0.495,0.170
16.311,-0.500,0.170
16.314,-0.520,0.155
16.317,-0.520,0.160
16.319,-0.520,0.165
16.322,-0.505,0.190
16.325,-0.515,0.200
16.328,-0.515,0.200
16.331,-0.535,0.195
16.333,-0.535,0.205
16.336,-0.530,0.220
16.339,-0.515,0.220
16.342,-0.495,0.215
16.344,-0.510,0.205
16.347,-0.520,0.195
16.350,-0.535,0.210
16.353,-0.525,0.210
16.356,-0.505,0.230
16.358,-0.500,0.225
16.361,-0.510,0.215
16.364,-0.510,0.195
16.367,-0.520,0.205
16.369,-0.515,0.220
16.372,-0.505,0.240
16.375,-0.485,0.225
16.378,-0.485,0.220
16.381,-0.485,0.225
16.383,-0.485,0.230
16.386,-0.480,0.245
16.389,-0.450,0.250
16.392,-0.450,0.245
16.394,-0.445,0.230
16.397,-0.445,0.215
16.400,-0.445,0.220
16.403,-0.430,0.225
16.406,-0.410,0.220
16.408,-0.410,0.225
16.411,-0.410,0.205
16.414,-0.410,0.190
16.417,-0.415,0.180
16.419,-0.390,0.195
16.422,-0.385,0.200
16.425,-0.370,0.185
16.428,-0.365,0.175
16.431,-0.360,0.160
16.433,-0.350,0.180
16.436,-0.335,0.175
16.439,-0.330,0.200
16.442,-0.330,0.185
16.444,-0.340,0.170
16.447,-0.345,0.170
16.450,-0.345,0.195
16.453,-0.340,0.195
16.456,-0.330,0.210
16.458,-0.330,0.215
16.461,-0.340,0.215
16.464,-0.345,0.215
16.467,-0.345,0.225
16.469,-0.325,0.245
16.472,-0.315,0.255
16.475,-0.320,0.255
16.478,-0.325,0.255
16.481,-0.330,0.255
16.483,-0.325,0.265
16.486,-0.305,0.270
16.489,-0.295,0.275
16.492,-0.290,0.265
16.494,-0.300,0.250
16.497,-0.320,0.235
16.500,-0.320,0.235
16.503,-0.315,0.230
16.506,-0.295,0.235
16.508,-0.290,0.220
16.511,-0.305,0.215
16.514,-0.315,0.205
16.517,-0.315,0.215
16.519,-0.310,0.235
16.522,-0.290,0.240
16.525,-0.295,0.250
16.528,-0.285,0.240
16.531,-0.290,0.220
16.533,-0.295,0.220
16.536,-0.285,0.240
16.539,-0.280,0.240
16.542,-0.260,0.240
16.544,-0.275,0.225
16.547,-0.285,0.210
16.550,-0.295,0.205
16.553,-0.295,0.215
16.556,-0.300,0.210
16.558,-0.295,0.185
16.561,-0.295,0.165
16.564,-0.310,0.145
16.567,-0.310,0.140
16.569,-0.290,0.150
16.572,-0.285,0.165
16.575,-0.280,0.160
16.578,-0.290,0.155
16.581,-0.315,0.155
16.583,-0.300,0.170
16.586,-0.285,0.175
16.589,-0.280,0.195
16.592,-0.280,0.195
16.594,-0.295,0.190
16.597,-0.295,0.190
16.600,-0.290,0.195
16.603,-0.290,0.230
16.606,-0.275,0.230
16.608,-0.275,0.240
16.611,-0.280,0.220
16.614,-0.305,0.225
16.617,-0.295,0.225
16.619,-0.275,0.235
16.622,-0.270,0.245
16.625,-0.275,0.240
16.628,-0.295,0.240
16.631,-0.295,0.225
16.633,-0.295,0.225
16.636,-0.280,0.220
16.639,-0.265,0.235
16.642,-0.255,0.230
16.644,-0.265,0.205
16.647,-0.290,0.200
16.650,-0.295,0.210
16.653,-0.265,0.215
16.656,-0.250,0.230
16.658,-0.240,0.220
16.661,-0.260,0.200
16.664,-0.270,0.195
16.667,-0.280,0.195
16.669,-0.265,0.210
16.672,-0.250,0.220
16.675,-0.250,0.210
16.678,-0.255,0.195
16.681,-0.265,0.195
16.683,-0.265,0.195
16.686,-0.250,0.190
16.689,-0.250,0.195
16.692,-0.260,0.185
16.694,-0.270,0.155
16.697,-0.265,0.140
16.700,-0.275,0.140
16.703,-0.270,0.135
16.706,-0.270,0.155
16.708,-0.265,0.140
16.711,-0.265,0.140
16.714,-0.270,0.120
16.717,-0.280,0.130
16.719,-0.275,0.150
16.722,-0.260,0.150
16.725,-0.265,0.150
16.728,-0.265,0.140
16.731,-0.270,0.140
16.733,-0.285,0.160
16.736,-0.265,0.175
16.739,-0.270,0.185
16.742,-0.265,0.185
16.744,-0.280,0.180
16.747,-0.290,0.170
16.750,-0.275,0.195
16.753,-0.270,0.195
16.756,-0.260,0.215
16.758,-0.260,0.210
16.761,-0.265,0.200
16.764,-0.280,0.190
16.767,-0.260,0.200
16.769,-0.250,0.215
16.772,-0.245,0.210
16.775,-0.250,0.210
16.778,-0.270,0.200
16.781,-0.275,0.185
16.783,-0.265,0.185
16.786,-0.250,0.200
16.789,-0.220,0.200
16.792,-0.220,0.200
16.794,-0.225,0.200
16.797,-0.235,0.180
16.800,-0.240,0.175
16.803,-0.220,0.200
16.806,-0.205,0.200
16.808,-0.190,0.200
16.811,-0.220,0.205
16.814,-0.235,0.190
16.817,-0.220,0.195
16.819,-0.215,0.190
16.822,-0.195,0.195
16.825,-0.190,0.185
16.828,-0.200,0.145
16.831,-0.205,0.130
16.833,-0.215,0.140
16.836,-0.225,0.140
16.839,-0.200,0.140
16.842,-0.195,0.135
16.844,-0.195,0.125
16.847,-0.205,0.115
16.850,-0.210,0.115
16.853,-0.200,0.120
16.856,-0.195,0.130
16.858,-0.195,0.130
16.861,-0.210,0.120
16.864,-0.205,0.115
16.867,-0.205,0.130
16.869,-0.180,0.135
16.872,-0.180,0.155
16.875,-0.185,0.155
16.878,-0.185,0.130
16.881,-0.195,0.130
16.883,-0.200,0.155
16.886,-0.185,0.165
16.889,-0.175,0.185
16.892,-0.145,0.170
16.894,-0.095,0.145
16.897,-0.010,0.125
16.900,0.105,0.090
16.903,0.250,0.075
16.906,0.365,0.055
16.908,0.470,0.015
16.911,0.585,0.005
16.914,0.680,-0.025
16.917,0.780,-0.040
16.919,0.830,-0.105
16.922,0.860,-0.135
16.925,0.825,-0.160
16.928,0.770,-0.160
16.931,0.690,-0.155
16.933,0.570,-0.080
16.936,0.405,-0.010
16.939,0.230,0.040
16.942,0.060,0.075
16.944,-0.045,0.095
16.947,-0.105,0.105
16.950,-0.150,0.130
16.953,-0.190,0.160
16.956,-0.200,0.190
16.958,-0.210,0.180
16.961,-0.225,0.185
16.964,-0.240,0.195
16.967,-0.260,0.195
16.969,-0.275,0.210
16.972,-0.265,0.200
16.975,-0.265,0.205
16.978,-0.280,0.195
16.981,-0.305,0.185
16.983,-0.325,0.185
16.986,-0.325,0.200
16.989,-0.310,0.195
16.992,-0.315,0.180
16.994,-0.330,0.180
16.997,-0.325,0.165
17.000,-0.345,0.170
17.003,-0.330,0.185
17.006,-0.340,0.175
17.008,-0.330,0.180
17.011,-0.345,0.165
17.014,-0.355,0.145
17.017,-0.375,0.155
17.019,-0.355,0.160
17.022,-0.350,0.170
17.025,-0.360,0.170
17.028,-0.375,0.155
17.031,-0.390,0.145
17.033,-0.400,0.170
17.036,-0.395,0.165
17.039,-0.365,0.185
17.042,-0.365,0.180
17.044,-0.365,0.170
17.047,-0.375,0.170
17.050,-0.380,0.165
17.053,-0.375,0.170
17.056,-0.365,0.180
17.058,-0.335,0.185
17.061,-0.350,0.170
17.064,-0.365,0.160
17.067,-0.355,0.165
17.069,-0.360,0.185
17.072,-0.335,0.190
17.075,-0.320,0.205
17.078,-0.315,0.185
17.081,-0.335,0.185
17.083,-0.330,0.205
17.086,-0.315,0.220
17.089,-0.300,0.220
17.092,-0.295,0.225
17.094,-0.290,0.215
17.097,-0.310,0.205
17.100,-0.295,0.205
17.103,-0.295,0.210
17.106,-0.295,0.230
17.108,-0.285,0.225
17.111,-0.290,0.205
17.114,-0.290,0.190
17.117,-0.305,0.200
17.119,-0.290,0.190
17.122,-0.280,0.190
17.125,-0.280,0.175
