'Elapsed time','MLII','V1'
'seconds','mV','mV'
0.000,0.220,0.185
0.003,0.220,0.185
0.006,0.220,0.185
0.008,0.220,0.185
0.011,0.220,0.185
0.014,0.220,0.185
0.017,0.220,0.185
0.019,0.220,0.185
0.022,0.220,0.185
0.025,0.190,0.165
0.028,0.170,0.185
0.031,0.140,0.195
0.033,0.145,0.225
0.036,0.125,0.215
0.039,0.110,0.190
0.042,0.070,0.200
0.044,0.025,0.205
0.047,0.010,0.220
0.050,0.005,0.235
0.053,0.000,0.240
0.056,-0.030,0.215
0.058,-0.050,0.205
0.061,-0.080,0.225
0.064,-0.080,0.240
0.067,-0.080,0.255
0.069,-0.085,0.245
0.072,-0.110,0.245
0.075,-0.145,0.230
0.078,-0.160,0.230
0.081,-0.140,0.250
0.083,-0.130,0.260
0.086,-0.130,0.250
0.089,-0.140,0.225
0.092,-0.155,0.220
0.094,-0.180,0.225
0.097,-0.175,0.235
0.100,-0.160,0.245
0.103,-0.155,0.245
0.106,-0.170,0.245
0.108,-0.165,0.225
0.111,-0.170,0.225
0.114,-0.160,0.250
0.117,-0.150,0.260
0.119,-0.165,0.270
0.122,-0.170,0.245
0.125,-0.185,0.230
0.128,-0.190,0.235
0.131,-0.165,0.250
0.133,-0.155,0.260
0.136,-0.155,0.260
0.139,-0.155,0.240
0.142,-0.155,0.245
0.144,-0.160,0.245
0.147,-0.145,0.275
0.150,-0.115,0.295
0.153,-0.110,0.280
0.156,-0.110,0.260
0.158,-0.130,0.250
0.161,-0.130,0.270
0.164,-0.125,0.275
0.167,-0.090,0.290
0.169,-0.070,0.265
0.172,-0.070,0.250
0.175,-0.070,0.250
0.178,-0.075,0.250
0.181,-0.070,0.255
0.183,-0.095,0.250
0.186,-0.120,0.225
0.189,-0.130,0.205
0.192,-0.130,0.220
0.194,-0.140,0.220
0.197,-0.130,0.225
0.200,-0.130,0.225
0.203,-0.150,0.225
0.206,-0.155,0.215
0.208,-0.160,0.205
0.211,-0.155,0.210
0.214,-0.130,0.245
0.217,-0.115,0.250
0.219,-0.155,0.250
0.222,-0.175,0.235
0.225,-0.200,0.220
0.228,-0.195,0.235
0.231,-0.175,0.235
0.233,-0.165,0.230
0.236,-0.190,0.235
0.239,-0.200,0.230
0.242,-0.205,0.210
0.244,-0.200,0.230
0.247,-0.180,0.235
0.250,-0.165,0.235
0.253,-0.165,0.250
0.256,-0.175,0.235
0.258,-0.190,0.225
0.261,-0.175,0.230
0.264,-0.175,0.260
0.267,-0.175,0.265
0.269,-0.180,0.260
0.272,-0.185,0.235
0.275,-0.185,0.220
0.278,-0.175,0.235
0.281,-0.180,0.240
0.283,-0.170,0.250
0.286,-0.165,0.240
0.289,-0.175,0.235
0.292,-0.175,0.235
0.294,-0.185,0.245
0.297,-0.180,0.245
0.300,-0.145,0.255
0.303,-0.170,0.235
0.306,-0.190,0.200
0.308,-0.215,0.205
0.311,-0.215,0.220
0.314,-0.200,0.255
0.317,-0.185,0.265
0.319,-0.190,0.280
0.322,-0.190,0.285
0.325,-0.150,0.270
0.328,-0.025,0.260
0.331,0.140,0.220
0.333,0.315,0.175
0.336,0.470,0.120
0.339,0.630,0.060
0.342,0.720,-0.010
0.344,0.800,-0.055
0.347,0.840,-0.120
0.350,0.800,-0.125
0.353,0.675,-0.155
0.356,0.515,-0.165
0.358,0.260,-0.155
0.361,-0.080,-0.115
0.364,-0.415,-0.055
0.367,-0.650,-0.015
0.369,-0.785,0.025
0.372,-0.755,0.065
0.375,-0.665,0.130
0.378,-0.555,0.190
0.381,-0.470,0.235
0.383,-0.375,0.260
0.386,-0.315,0.245
0.389,-0.265,0.235
0.392,-0.255,0.220
0.394,-0.225,0.220
0.397,-0.210,0.230
0.400,-0.175,0.250
0.403,-0.170,0.240
0.406,-0.170,0.220
0.408,-0.185,0.205
0.411,-0.185,0.240
0.414,-0.165,0.245
0.417,-0.130,0.270
0.419,-0.140,0.255
0.422,-0.135,0.215
0.425,-0.140,0.215
0.428,-0.155,0.215
0.431,-0.135,0.240
0.433,-0.115,0.240
0.436,-0.090,0.245
0.439,-0.075,0.240
0.442,-0.085,0.225
0.444,-0.085,0.245
0.447,-0.070,0.250
0.450,-0.060,0.260
0.453,-0.055,0.235
0.456,-0.060,0.220
0.458,-0.065,0.200
0.461,-0.060,0.210
0.464,-0.020,0.215
0.467,0.025,0.245
0.469,0.040,0.235
0.472,0.040,0.210
0.475,0.040,0.200
0.478,0.050,0.205
0.481,0.095,0.220
0.483,0.100,0.245
0.486,0.120,0.230
0.489,0.115,0.220
0.492,0.120,0.200
0.494,0.135,0.210
0.497,0.155,0.215
0.500,0.195,0.220
0.503,0.205,0.215
0.506,0.205,0.180
0.508,0.205,0.185
0.511,0.225,0.190
0.514,0.240,0.210
0.517,0.265,0.215
0.519,0.260,0.200
0.522,0.265,0.195
0.525,0.250,0.185
0.528,0.245,0.190
0.531,0.255,0.210
0.533,0.265,0.225
0.536,0.265,0.205
0.539,0.245,0.195
0.542,0.225,0.195
0.544,0.215,0.215
0.547,0.210,0.225
0.550,0.205,0.255
0.553,0.170,0.230
0.556,0.150,0.230
0.558,0.120,0.230
0.561,0.105,0.235
0.564,0.085,0.260
0.567,0.080,0.265
0.569,0.055,0.265
0.572,0.020,0.245
0.575,-0.010,0.255
0.578,-0.020,0.260
0.581,-0.025,0.280
0.583,-0.040,0.300
0.586,-0.055,0.290
0.589,-0.075,0.280
0.592,-0.110,0.260
0.594,-0.120,0.270
0.597,-0.125,0.305
0.600,-0.115,0.295
0.603,-0.120,0.305
0.606,-0.125,0.290
0.608,-0.150,0.285
0.611,-0.160,0.295
0.614,-0.155,0.320
0.617,-0.150,0.330
0.619,-0.165,0.310
0.622,-0.165,0.305
0.625,-0.195,0.290
0.628,-0.185,0.285
0.631,-0.180,0.300
0.633,-0.170,0.320
0.636,-0.190,0.310
0.639,-0.185,0.275
0.642,-0.200,0.280
0.644,-0.200,0.300
0.647,-0.190,0.310
0.650,-0.180,0.330
0.653,-0.180,0.325
0.656,-0.200,0.305
0.658,-0.190,0.315
0.661,-0.185,0.310
0.664,-0.165,0.345
0.667,-0.155,0.335
0.669,-0.145,0.335
0.672,-0.140,0.335
0.675,-0.165,0.325
0.678,-0.150,0.340
0.681,-0.150,0.355
0.683,-0.130,0.360
0.686,-0.125,0.370
0.689,-0.135,0.360
0.692,-0.125,0.350
0.694,-0.110,0.360
0.697,-0.090,0.370
0.700,-0.075,0.380
0.703,-0.080,0.355
0.706,-0.110,0.325
0.708,-0.115,0.310
0.711,-0.135,0.315
0.714,-0.140,0.325
0.717,-0.130,0.355
0.719,-0.130,0.335
0.722,-0.150,0.315
0.725,-0.180,0.310
0.728,-0.205,0.330
0.731,-0.200,0.345
0.733,-0.170,0.355
0.736,-0.160,0.365
0.739,-0.170,0.355
0.742,-0.195,0.355
0.744,-0.220,0.370
0.747,-0.230,0.390
0.750,-0.195,0.385
0.753,-0.200,0.400
0.756,-0.215,0.395
0.758,-0.230,0.370
0.761,-0.230,0.400
0.764,-0.205,0.410
0.767,-0.190,0.430
0.769,-0.210,0.435
0.772,-0.220,0.415
0.775,-0.210,0.425
0.778,-0.220,0.445
0.781,-0.210,0.450
0.783,-0.205,0.470
0.786,-0.205,0.450
0.789,-0.220,0.445
0.792,-0.220,0.450
0.794,-0.220,0.455
0.797,-0.200,0.470
0.800,-0.195,0.500
0.803,-0.195,0.490
0.806,-0.215,0.480
0.808,-0.235,0.490
0.811,-0.220,0.505
0.814,-0.200,0.510
0.817,-0.185,0.535
0.819,-0.195,0.525
0.822,-0.215,0.530
0.825,-0.210,0.515
0.828,-0.210,0.550
0.831,-0.190,0.560
0.833,-0.175,0.570
0.836,-0.190,0.570
0.839,-0.205,0.575
0.842,-0.225,0.590
0.844,-0.230,0.610
0.847,-0.220,0.655
0.850,-0.185,0.670
0.853,-0.105,0.665
0.856,0.015,0.625
0.858,0.160,0.585
0.861,0.315,0.550
0.864,0.485,0.535
0.867,0.645,0.510
0.869,0.765,0.445
0.872,0.815,0.380
0.875,0.800,0.320
0.878,0.675,0.310
0.881,0.545,0.320
0.883,0.365,0.355
0.886,0.060,0.380
0.889,-0.285,0.440
0.892,-0.575,0.465
0.894,-0.770,0.515
0.897,-0.800,0.585
0.900,-0.735,0.675
0.903,-0.645,0.745
0.906,-0.555,0.785
0.908,-0.480,0.790
0.911,-0.420,0.815
0.914,-0.345,0.825
0.917,-0.270,0.820
0.919,-0.245,0.825
0.922,-0.225,0.825
0.925,-0.230,0.810
0.928,-0.225,0.815
0.931,-0.205,0.845
0.933,-0.175,0.855
0.936,-0.175,0.860
0.939,-0.180,0.845
0.942,-0.190,0.830
0.944,-0.190,0.835
0.947,-0.170,0.850
0.950,-0.150,0.870
0.953,-0.140,0.865
0.956,-0.145,0.855
0.958,-0.145,0.845
0.961,-0.145,0.835
0.964,-0.130,0.845
0.967,-0.115,0.860
0.969,-0.105,0.855
0.972,-0.105,0.830
0.975,-0.100,0.830
0.978,-0.090,0.830
0.981,-0.070,0.855
0.983,-0.050,0.880
0.986,-0.030,0.850
0.989,-0.025,0.830
0.992,-0.040,0.815
0.994,-0.020,0.820
0.997,0.015,0.830
1.000,0.050,0.855
1.003,0.070,0.845
1.006,0.085,0.820
1.008,0.065,0.805
1.011,0.090,0.810
1.014,0.110,0.810
1.017,0.130,0.820
1.019,0.150,0.810
1.022,0.155,0.790
1.025,0.165,0.770
1.028,0.175,0.785
1.031,0.175,0.790
1.033,0.195,0.795
1.036,0.215,0.805
1.039,0.215,0.770
1.042,0.205,0.755
1.044,0.190,0.775
1.047,0.220,0.790
1.050,0.250,0.800
1.053,0.250,0.780
1.056,0.210,0.765
1.058,0.195,0.760
1.061,0.175,0.785
1.064,0.185,0.780
1.067,0.210,0.775
1.069,0.195,0.770
1.072,0.185,0.750
1.075,0.140,0.765
1.078,0.125,0.765
1.081,0.110,0.795
1.083,0.100,0.795
1.086,0.080,0.785
1.089,0.060,0.785
1.092,0.025,0.775
1.094,-0.020,0.775
1.097,-0.030,0.785
1.100,-0.045,0.795
1.103,-0.065,0.795
1.106,-0.090,0.795
1.108,-0.110,0.775
1.111,-0.110,0.770
1.114,-0.115,0.790
1.117,-0.125,0.805
1.119,-0.140,0.795
1.122,-0.160,0.785
1.125,-0.180,0.765
1.128,-0.185,0.775
1.131,-0.185,0.785
1.133,-0.175,0.800
1.136,-0.185,0.780
1.139,-0.210,0.760
1.142,-0.225,0.755
1.144,-0.210,0.775
1.147,-0.205,0.785
1.150,-0.200,0.800
1.153,-0.225,0.790
1.156,-0.220,0.750
1.158,-0.235,0.730
1.161,-0.235,0.740
1.164,-0.230,0.760
1.167,-0.210,0.770
1.169,-0.195,0.765
1.172,-0.200,0.740
1.175,-0.230,0.740
1.178,-0.225,0.740
1.181,-0.200,0.750
1.183,-0.185,0.765
1.186,-0.190,0.760
1.189,-0.195,0.750
1.192,-0.210,0.730
1.194,-0.185,0.745
1.197,-0.175,0.770
1.200,-0.160,0.780
1.203,-0.165,0.750
1.206,-0.195,0.745
1.208,-0.185,0.730
1.211,-0.170,0.750
1.214,-0.150,0.755
1.217,-0.120,0.755
1.219,-0.105,0.750
1.222,-0.105,0.740
1.225,-0.110,0.725
1.228,-0.120,0.730
1.231,-0.125,0.720
1.233,-0.145,0.700
1.236,-0.155,0.705
1.239,-0.180,0.675
1.242,-0.200,0.665
1.244,-0.205,0.680
1.247,-0.200,0.690
1.250,-0.200,0.695
1.253,-0.215,0.675
1.256,-0.225,0.660
1.258,-0.230,0.660
1.261,-0.230,0.675
1.264,-0.205,0.690
1.267,-0.195,0.715
1.269,-0.215,0.715
1.272,-0.240,0.690
1.275,-0.270,0.670
1.278,-0.280,0.665
1.281,-0.265,0.680
1.283,-0.240,0.685
1.286,-0.250,0.675
1.289,-0.250,0.665
1.292,-0.270,0.670
1.294,-0.275,0.665
1.297,-0.260,0.680
1.300,-0.230,0.695
1.303,-0.220,0.680
1.306,-0.240,0.660
1.308,-0.260,0.655
1.311,-0.260,0.665
1.314,-0.250,0.690
1.317,-0.240,0.685
1.319,-0.245,0.675
1.322,-0.250,0.655
1.325,-0.255,0.645
1.328,-0.250,0.650
1.331,-0.255,0.665
1.333,-0.235,0.665
1.336,-0.235,0.655
1.339,-0.250,0.640
1.342,-0.255,0.625
1.344,-0.255,0.625
1.347,-0.240,0.640
1.350,-0.220,0.650
1.353,-0.210,0.645
1.356,-0.220,0.620
1.358,-0.240,0.615
1.361,-0.240,0.635
1.364,-0.245,0.645
1.367,-0.260,0.635
1.369,-0.285,0.650
1.372,-0.285,0.655
1.375,-0.260,0.645
1.378,-0.180,0.655
1.381,-0.035,0.635
1.383,0.125,0.590
1.386,0.260,0.530
1.389,0.370,0.485
1.392,0.500,0.415
1.394,0.605,0.370
1.397,0.680,0.320
1.400,0.725,0.260
1.403,0.675,0.210
1.406,0.535,0.165
1.408,0.365,0.150
1.411,0.180,0.175
1.414,-0.070,0.230
1.417,-0.350,0.275
1.419,-0.610,0.315
1.422,-0.795,0.330
1.425,-0.860,0.380
1.428,-0.800,0.450
1.431,-0.685,0.540
1.433,-0.590,0.585
1.436,-0.520,0.615
1.439,-0.465,0.595
1.442,-0.430,0.600
1.444,-0.360,0.600
1.447,-0.310,0.590
1.450,-0.270,0.595
1.453,-0.255,0.575
1.456,-0.270,0.570
1.458,-0.240,0.570
1.461,-0.240,0.580
1.464,-0.225,0.590
1.467,-0.215,0.605
1.469,-0.210,0.575
1.472,-0.205,0.560
1.475,-0.225,0.540
1.478,-0.215,0.555
1.481,-0.200,0.570
1.483,-0.180,0.585
1.486,-0.170,0.575
1.489,-0.165,0.540
1.492,-0.180,0.540
1.494,-0.165,0.545
1.497,-0.150,0.565
1.500,-0.130,0.580
1.503,-0.135,0.560
1.506,-0.140,0.540
1.508,-0.130,0.530
1.511,-0.120,0.530
1.514,-0.095,0.545
1.517,-0.075,0.560
1.519,-0.060,0.530
1.522,-0.055,0.525
1.525,-0.070,0.515
1.528,-0.055,0.505
1.531,-0.045,0.520
1.533,-0.010,0.520
1.536,-0.010,0.500
1.539,0.000,0.500
1.542,0.015,0.500
1.544,0.030,0.505
1.547,0.055,0.505
1.550,0.095,0.485
1.553,0.115,0.450
1.556,0.125,0.440
1.558,0.120,0.440
1.561,0.125,0.435
1.564,0.140,0.455
1.567,0.170,0.460
1.569,0.180,0.430
1.572,0.185,0.430
1.575,0.185,0.420
1.578,0.180,0.420
1.581,0.185,0.435
1.583,0.200,0.440
1.586,0.195,0.425
1.589,0.200,0.430
1.592,0.190,0.415
1.594,0.190,0.430
1.597,0.205,0.435
1.600,0.215,0.440
1.603,0.205,0.435
1.606,0.180,0.420
1.608,0.160,0.420
1.611,0.140,0.430
1.614,0.130,0.445
1.617,0.135,0.460
1.619,0.125,0.440
1.622,0.105,0.435
1.625,0.075,0.430
1.628,0.030,0.440
1.631,0.025,0.460
1.633,0.005,0.465
1.636,-0.010,0.480
1.639,-0.025,0.440
1.642,-0.065,0.460
1.644,-0.085,0.465
1.647,-0.085,0.475
1.650,-0.080,0.475
1.653,-0.095,0.460
1.656,-0.120,0.460
1.658,-0.140,0.450
1.661,-0.160,0.445
1.664,-0.160,0.460
1.667,-0.150,0.465
1.669,-0.170,0.465
1.672,-0.185,0.445
1.675,-0.195,0.450
1.678,-0.195,0.460
1.681,-0.200,0.460
1.683,-0.200,0.480
1.686,-0.205,0.470
1.689,-0.210,0.455
1.692,-0.230,0.455
1.694,-0.230,0.450
1.697,-0.225,0.460
1.700,-0.205,0.485
1.703,-0.205,0.445
1.706,-0.215,0.435
1.708,-0.230,0.430
1.711,-0.230,0.445
1.714,-0.225,0.440
1.717,-0.220,0.445
1.719,-0.220,0.430
1.722,-0.230,0.405
1.725,-0.245,0.400
1.728,-0.245,0.395
1.731,-0.235,0.430
1.733,-0.215,0.445
1.736,-0.200,0.445
1.739,-0.200,0.445
1.742,-0.225,0.425
1.744,-0.210,0.430
1.747,-0.200,0.455
1.750,-0.200,0.475
1.753,-0.175,0.455
1.756,-0.180,0.450
1.758,-0.185,0.430
1.761,-0.180,0.430
1.764,-0.155,0.440
1.767,-0.145,0.440
1.769,-0.130,0.440
1.772,-0.135,0.435
1.775,-0.120,0.420
1.778,-0.130,0.420
1.781,-0.120,0.420
1.783,-0.125,0.430
1.786,-0.140,0.410
1.789,-0.165,0.400
1.792,-0.190,0.390
1.794,-0.215,0.385
1.797,-0.210,0.400
1.800,-0.205,0.395
1.803,-0.200,0.380
1.806,-0.220,0.355
1.808,-0.245,0.345
1.811,-0.245,0.345
1.814,-0.245,0.360
1.817,-0.240,0.380
1.819,-0.230,0.370
1.822,-0.230,0.370
1.825,-0.240,0.375
1.828,-0.255,0.375
1.831,-0.250,0.385
1.833,-0.245,0.385
1.836,-0.240,0.375
1.839,-0.255,0.360
1.842,-0.270,0.330
1.844,-0.270,0.350
1.847,-0.260,0.370
1.850,-0.265,0.365
1.853,-0.255,0.335
1.856,-0.245,0.320
1.858,-0.275,0.325
1.861,-0.285,0.340
1.864,-0.285,0.355
1.867,-0.275,0.355
1.869,-0.285,0.350
1.872,-0.290,0.350
1.875,-0.315,0.345
1.878,-0.325,0.355
1.881,-0.295,0.380
1.883,-0.265,0.380
1.886,-0.270,0.350
1.889,-0.285,0.335
1.892,-0.305,0.300
1.894,-0.300,0.315
1.897,-0.270,0.345
1.900,-0.250,0.345
1.903,-0.245,0.330
1.906,-0.265,0.310
1.908,-0.285,0.305
1.911,-0.285,0.310
1.914,-0.260,0.325
1.917,-0.235,0.325
1.919,-0.235,0.300
1.922,-0.265,0.300
1.925,-0.300,0.300
1.928,-0.300,0.315
1.931,-0.300,0.335
1.933,-0.285,0.370
1.936,-0.285,0.370
1.939,-0.235,0.385
1.942,-0.170,0.345
1.944,-0.040,0.305
1.947,0.115,0.230
1.950,0.255,0.165
1.953,0.400,0.075
1.956,0.495,0.005
1.958,0.550,-0.065
1.961,0.530,-0.110
1.964,0.430,-0.110
1.967,0.315,-0.100
1.969,0.120,-0.090
1.972,-0.160,-0.080
1.975,-0.450,-0.040
1.978,-0.695,0.025
1.981,-0.850,0.090
1.983,-0.905,0.140
1.986,-0.840,0.185
1.989,-0.750,0.220
1.992,-0.670,0.230
1.994,-0.590,0.245
1.997,-0.505,0.285
2.000,-0.410,0.280
2.003,-0.345,0.265
2.006,-0.320,0.250
2.008,-0.300,0.245
2.011,-0.305,0.260
2.014,-0.285,0.260
2.017,-0.260,0.260
2.019,-0.250,0.260
2.022,-0.260,0.260
2.025,-0.270,0.255
2.028,-0.260,0.275
2.031,-0.260,0.295
2.033,-0.240,0.315
2.036,-0.215,0.290
2.039,-0.230,0.255
2.042,-0.225,0.250
2.044,-0.215,0.250
2.047,-0.180,0.265
2.050,-0.145,0.265
2.053,-0.165,0.245
2.056,-0.190,0.225
2.058,-0.195,0.235
2.061,-0.160,0.235
2.064,-0.125,0.250
2.067,-0.100,0.255
2.069,-0.110,0.240
2.072,-0.115,0.230
2.075,-0.120,0.215
2.078,-0.110,0.240
2.081,-0.075,0.255
2.083,-0.050,0.240
2.086,-0.040,0.240
2.089,-0.050,0.210
2.092,-0.025,0.195
2.094,-0.010,0.190
2.097,0.025,0.225
2.100,0.055,0.220
2.103,0.055,0.200
2.106,0.070,0.165
2.108,0.055,0.170
2.111,0.055,0.190
2.114,0.080,0.210
2.117,0.105,0.215
2.119,0.120,0.190
2.122,0.125,0.160
2.125,0.115,0.165
2.128,0.115,0.175
2.131,0.130,0.185
2.133,0.140,0.205
2.136,0.145,0.175
2.139,0.130,0.170
2.142,0.125,0.165
2.144,0.140,0.160
2.147,0.150,0.185
2.150,0.145,0.190
2.153,0.135,0.185
2.156,0.120,0.170
2.158,0.100,0.165
2.161,0.095,0.180
2.164,0.095,0.210
2.167,0.090,0.225
2.169,0.075,0.215
2.172,0.040,0.205
2.175,0.010,0.195
2.178,-0.020,0.215
2.181,-0.035,0.230
2.183,-0.040,0.240
2.186,-0.070,0.215
2.189,-0.100,0.195
2.192,-0.140,0.200
2.194,-0.150,0.205
2.197,-0.150,0.240
2.200,-0.135,0.245
2.203,-0.135,0.220
2.206,-0.165,0.205
2.208,-0.215,0.200
2.211,-0.225,0.220
2.214,-0.205,0.230
2.217,-0.190,0.260
2.219,-0.195,0.240
2.222,-0.205,0.215
2.225,-0.230,0.200
2.228,-0.245,0.215
2.231,-0.245,0.225
2.233,-0.255,0.255
2.236,-0.255,0.250
2.239,-0.255,0.230
2.242,-0.265,0.210
2.244,-0.255,0.205
2.247,-0.240,0.215
2.250,-0.230,0.235
2.253,-0.235,0.235
2.256,-0.245,0.210
2.258,-0.270,0.220
2.261,-0.280,0.220
2.264,-0.260,0.240
2.267,-0.250,0.240
2.269,-0.250,0.215
2.272,-0.255,0.195
2.275,-0.265,0.205
2.278,-0.260,0.220
2.281,-0.240,0.230
2.283,-0.220,0.240
2.286,-0.210,0.210
2.289,-0.230,0.200
2.292,-0.235,0.215
2.294,-0.245,0.225
2.297,-0.220,0.240
2.300,-0.195,0.235
2.303,-0.195,0.235
2.306,-0.195,0.215
2.308,-0.190,0.220
2.311,-0.185,0.225
2.314,-0.195,0.230
2.317,-0.175,0.250
2.319,-0.170,0.255
2.322,-0.160,0.230
2.325,-0.150,0.215
2.328,-0.145,0.210
2.331,-0.155,0.195
2.333,-0.150,0.180
2.336,-0.185,0.170
2.339,-0.220,0.150
2.342,-0.245,0.140
2.344,-0.245,0.160
2.347,-0.230,0.160
2.350,-0.205,0.195
2.353,-0.215,0.190
2.356,-0.230,0.165
2.358,-0.235,0.145
2.361,-0.245,0.150
2.364,-0.240,0.175
2.367,-0.215,0.200
2.369,-0.250,0.165
2.372,-0.300,0.145
2.375,-0.350,0.130
2.378,-0.350,0.160
2.381,-0.320,0.175
2.383,-0.300,0.185
2.386,-0.290,0.180
2.389,-0.300,0.170
2.392,-0.305,0.160
2.394,-0.305,0.170
2.397,-0.290,0.185
2.400,-0.260,0.195
2.403,-0.250,0.185
2.406,-0.270,0.170
2.408,-0.295,0.160
2.411,-0.280,0.170
2.414,-0.285,0.180
2.417,-0.275,0.200
2.419,-0.280,0.190
2.422,-0.285,0.165
2.425,-0.290,0.160
2.428,-0.270,0.155
2.431,-0.275,0.165
2.433,-0.280,0.175
2.436,-0.285,0.165
2.439,-0.300,0.145
2.442,-0.295,0.130
2.444,-0.275,0.155
2.447,-0.265,0.160
2.450,-0.280,0.175
2.453,-0.280,0.150
2.456,-0.295,0.160
2.458,-0.285,0.135
2.461,-0.265,0.165
2.464,-0.250,0.165
2.467,-0.250,0.185
2.469,-0.255,0.185
2.472,-0.290,0.165
2.475,-0.320,0.170
2.478,-0.300,0.205
2.481,-0.255,0.235
2.483,-0.195,0.215
2.486,-0.110,0.165
2.489,-0.010,0.110
2.492,0.090,0.060
2.494,0.200,0.030
2.497,0.330,-0.010
2.500,0.440,-0.065
2.503,0.510,-0.120
2.506,0.525,-0.175
2.508,0.480,-0.205
2.511,0.395,-0.190
2.514,0.285,-0.150
2.517,0.115,-0.145
2.519,-0.130,-0.135
2.522,-0.400,-0.110
2.525,-0.650,-0.085
2.528,-0.825,-0.025
2.531,-0.900,0.025
2.533,-0.835,0.065
2.536,-0.725,0.105
2.539,-0.630,0.125
2.542,-0.585,0.140
2.544,-0.520,0.150
2.547,-0.435,0.150
2.550,-0.345,0.160
2.553,-0.300,0.135
2.556,-0.285,0.125
2.558,-0.275,0.105
2.561,-0.265,0.140
2.564,-0.265,0.150
2.567,-0.255,0.160
2.569,-0.245,0.155
2.572,-0.250,0.145
2.575,-0.275,0.130
2.578,-0.280,0.120
2.581,-0.245,0.160
2.583,-0.220,0.165
2.586,-0.215,0.160
2.589,-0.215,0.145
2.592,-0.200,0.135
2.594,-0.210,0.145
2.597,-0.205,0.145
2.600,-0.195,0.170
2.603,-0.165,0.140
2.606,-0.170,0.155
2.608,-0.175,0.125
2.611,-0.165,0.125
2.614,-0.140,0.125
2.617,-0.110,0.140
2.619,-0.105,0.120
2.622,-0.100,0.130
2.625,-0.095,0.115
2.628,-0.075,0.115
2.631,-0.075,0.125
2.633,-0.045,0.135
2.636,-0.025,0.125
2.639,-0.005,0.110
2.642,0.005,0.090
2.644,0.005,0.090
2.647,0.000,0.100
2.650,0.025,0.120
2.653,0.030,0.110
2.656,0.035,0.090
2.658,0.050,0.090
2.661,0.070,0.095
2.664,0.095,0.090
2.667,0.120,0.085
2.669,0.120,0.055
2.672,0.115,0.025
2.675,0.100,0.040
2.678,0.100,0.060
2.681,0.135,0.075
2.683,0.165,0.095
2.686,0.165,0.070
2.689,0.175,0.050
2.692,0.165,0.045
2.694,0.175,0.045
2.697,0.175,0.055
2.700,0.165,0.065
2.703,0.160,0.050
2.706,0.175,0.040
2.708,0.190,0.025
2.711,0.180,0.050
2.714,0.170,0.065
2.717,0.135,0.110
2.719,0.095,0.110
2.722,0.035,0.095
2.725,-0.015,0.095
2.728,-0.045,0.095
2.731,-0.045,0.120
2.733,-0.010,0.135
2.736,-0.020,0.125
2.739,-0.065,0.100
2.742,-0.125,0.065
2.744,-0.150,0.100
2.747,-0.150,0.140
2.750,-0.135,0.150
2.753,-0.140,0.140
2.756,-0.170,0.105
2.758,-0.215,0.085
2.761,-0.225,0.105
2.764,-0.230,0.135
2.767,-0.215,0.135
2.769,-0.215,0.125
2.772,-0.235,0.115
2.775,-0.235,0.095
2.778,-0.205,0.110
2.781,-0.215,0.115
2.783,-0.245,0.110
2.786,-0.260,0.095
2.789,-0.290,0.100
2.792,-0.295,0.105
2.794,-0.275,0.115
2.797,-0.245,0.120
2.800,-0.235,0.115
2.803,-0.260,0.100
2.806,-0.265,0.100
2.808,-0.260,0.120
2.811,-0.250,0.135
2.814,-0.255,0.155
2.817,-0.265,0.115
2.819,-0.265,0.085
2.822,-0.280,0.060
2.825,-0.280,0.080
2.828,-0.275,0.100
2.831,-0.255,0.140
2.833,-0.250,0.130
2.836,-0.250,0.115
2.839,-0.275,0.100
2.842,-0.260,0.085
2.844,-0.250,0.105
2.847,-0.225,0.110
2.850,-0.220,0.130
2.853,-0.225,0.105
2.856,-0.215,0.095
2.858,-0.200,0.105
2.861,-0.210,0.120
2.864,-0.205,0.135
2.867,-0.185,0.125
2.869,-0.180,0.120
2.872,-0.175,0.105
2.875,-0.170,0.125
2.878,-0.155,0.115
2.881,-0.145,0.110
2.883,-0.150,0.105
2.886,-0.180,0.095
2.889,-0.205,0.080
2.892,-0.210,0.075
2.894,-0.200,0.090
2.897,-0.215,0.075
2.900,-0.240,0.050
2.903,-0.270,0.055
2.906,-0.270,0.045
2.908,-0.260,0.055
2.911,-0.235,0.075
2.914,-0.200,0.100
2.917,-0.195,0.085
2.919,-0.205,0.085
2.922,-0.225,0.075
2.925,-0.250,0.070
2.928,-0.255,0.075
2.931,-0.230,0.080
2.933,-0.235,0.090
2.936,-0.255,0.065
2.939,-0.295,0.060
2.942,-0.305,0.065
2.944,-0.300,0.095
2.947,-0.285,0.090
2.950,-0.280,0.095
2.953,-0.270,0.080
2.956,-0.290,0.075
2.958,-0.285,0.075
2.961,-0.285,0.085
2.964,-0.275,0.095
2.967,-0.280,0.100
2.969,-0.270,0.100
2.972,-0.265,0.095
2.975,-0.250,0.110
2.978,-0.245,0.115
2.981,-0.245,0.135
2.983,-0.250,0.110
2.986,-0.275,0.075
2.989,-0.300,0.055
2.992,-0.310,0.060
2.994,-0.300,0.055
2.997,-0.280,0.070
3.000,-0.275,0.065
3.003,-0.265,0.075
3.006,-0.280,0.055
3.008,-0.285,0.075
3.011,-0.260,0.090
3.014,-0.245,0.080
3.017,-0.275,0.090
3.019,-0.290,0.085
3.022,-0.305,0.105
3.025,-0.305,0.115
3.028,-0.270,0.140
3.031,-0.205,0.145
3.033,-0.110,0.105
3.036,0.010,0.060
3.039,0.110,0.010
3.042,0.210,-0.030
3.044,0.355,-0.055
3.047,0.495,-0.115
3.050,0.590,-0.165
3.053,0.630,-0.245
3.056,0.610,-0.280
3.058,0.490,-0.285
3.061,0.340,-0.255
3.064,0.115,-0.225
3.067,-0.205,-0.185
3.069,-0.530,-0.140
3.072,-0.790,-0.110
3.075,-0.880,-0.075
3.078,-0.835,-0.030
3.081,-0.720,0.045
3.083,-0.610,0.050
3.086,-0.535,0.070
3.089,-0.485,0.085
3.092,-0.430,0.105
3.094,-0.360,0.120
3.097,-0.300,0.115
3.100,-0.285,0.085
3.103,-0.275,0.050
3.106,-0.280,0.050
3.108,-0.270,0.065
3.111,-0.245,0.085
3.114,-0.220,0.100
3.117,-0.215,0.090
3.119,-0.230,0.075
3.122,-0.230,0.065
3.125,-0.235,0.080
3.128,-0.215,0.105
3.131,-0.190,0.100
3.133,-0.180,0.080
3.136,-0.175,0.080
3.139,-0.195,0.070
3.142,-0.190,0.100
3.144,-0.170,0.115
3.147,-0.135,0.105
3.150,-0.130,0.100
3.153,-0.150,0.075
3.156,-0.145,0.075
3.158,-0.140,0.080
3.161,-0.110,0.095
3.164,-0.075,0.095
3.167,-0.065,0.090
3.169,-0.060,0.080
3.172,-0.055,0.070
3.175,-0.040,0.075
3.178,-0.025,0.080
3.181,0.015,0.100
3.183,0.035,0.100
3.186,0.030,0.080
3.189,0.015,0.070
3.192,0.050,0.070
3.194,0.075,0.080
3.197,0.090,0.070
3.200,0.105,0.055
3.203,0.115,0.045
3.206,0.105,0.050
3.208,0.130,0.055
3.211,0.155,0.070
3.214,0.175,0.090
3.217,0.175,0.065
3.219,0.165,0.035
3.222,0.150,0.035
3.225,0.150,0.045
3.228,0.180,0.075
3.231,0.195,0.080
3.233,0.205,0.065
3.236,0.205,0.045
3.239,0.185,0.045
3.242,0.185,0.065
3.244,0.165,0.070
3.247,0.175,0.090
3.250,0.175,0.075
3.253,0.140,0.060
3.256,0.130,0.060
3.258,0.120,0.085
3.261,0.120,0.110
3.264,0.110,0.115
3.267,0.065,0.105
3.269,0.015,0.110
3.272,-0.005,0.105
3.275,-0.030,0.110
3.278,-0.035,0.135
3.281,-0.050,0.140
3.283,-0.055,0.130
3.286,-0.100,0.115
3.289,-0.135,0.110
3.292,-0.150,0.145
3.294,-0.135,0.165
3.297,-0.120,0.170
3.300,-0.140,0.165
3.303,-0.160,0.155
3.306,-0.180,0.120
3.308,-0.185,0.110
3.311,-0.175,0.140
3.314,-0.175,0.145
3.317,-0.180,0.135
3.319,-0.200,0.130
3.322,-0.215,0.125
3.325,-0.210,0.130
3.328,-0.200,0.150
3.331,-0.190,0.145
3.333,-0.195,0.140
3.336,-0.215,0.125
3.339,-0.230,0.120
3.342,-0.245,0.135
3.344,-0.245,0.165
3.347,-0.220,0.155
3.350,-0.200,0.155
3.353,-0.195,0.115
3.356,-0.195,0.120
3.358,-0.215,0.145
3.361,-0.240,0.160
3.364,-0.235,0.160
3.367,-0.230,0.155
3.369,-0.225,0.150
3.372,-0.220,0.145
3.375,-0.215,0.155
3.378,-0.195,0.185
3.381,-0.185,0.175
3.383,-0.200,0.185
3.386,-0.185,0.160
3.389,-0.200,0.160
3.392,-0.205,0.165
3.394,-0.185,0.195
3.397,-0.150,0.190
3.400,-0.145,0.180
3.403,-0.160,0.155
3.406,-0.160,0.155
3.408,-0.155,0.165
3.411,-0.145,0.175
3.414,-0.125,0.180
3.417,-0.130,0.160
3.419,-0.160,0.125
3.422,-0.175,0.125
3.425,-0.175,0.135
3.428,-0.165,0.155
3.431,-0.170,0.160
3.433,-0.175,0.135
3.436,-0.190,0.115
3.439,-0.205,0.100
3.442,-0.225,0.110
3.444,-0.220,0.120
3.447,-0.215,0.145
3.450,-0.215,0.145
3.453,-0.215,0.130
3.456,-0.205,0.140
3.458,-0.220,0.145
3.461,-0.225,0.160
3.464,-0.225,0.160
3.467,-0.240,0.155
3.469,-0.245,0.135
3.472,-0.255,0.140
3.475,-0.265,0.145
3.478,-0.250,0.160
3.481,-0.230,0.165
3.483,-0.235,0.155
3.486,-0.250,0.160
3.489,-0.260,0.140
3.492,-0.250,0.160
3.494,-0.250,0.170
3.497,-0.235,0.180
3.500,-0.235,0.155
3.503,-0.240,0.130
3.506,-0.250,0.135
3.508,-0.255,0.155
3.511,-0.240,0.165
3.514,-0.240,0.180
3.517,-0.235,0.180
3.519,-0.245,0.155
3.522,-0.250,0.145
3.525,-0.250,0.150
3.528,-0.230,0.165
3.531,-0.225,0.155
3.533,-0.230,0.155
3.536,-0.230,0.150
3.539,-0.240,0.145
3.542,-0.250,0.155
3.544,-0.230,0.160
3.547,-0.205,0.165
3.550,-0.205,0.150
3.553,-0.205,0.125
3.556,-0.240,0.140
3.558,-0.260,0.155
3.561,-0.280,0.180
3.564,-0.265,0.180
3.567,-0.265,0.185
3.569,-0.265,0.180
3.572,-0.230,0.190
3.575,-0.115,0.155
3.578,0.035,0.160
3.581,0.185,0.125
3.583,0.310,0.090
3.586,0.410,0.045
3.589,0.520,-0.020
3.592,0.630,-0.080
3.594,0.730,-0.125
3.597,0.795,-0.180
3.600,0.750,-0.225
3.603,0.625,-0.245
3.606,0.480,-0.245
3.608,0.285,-0.240
3.611,-0.010,-0.190
3.614,-0.295,-0.150
3.617,-0.560,-0.130
3.619,-0.760,-0.115
3.622,-0.840,-0.085
3.625,-0.825,-0.005
3.628,-0.710,0.095
3.631,-0.615,0.145
3.633,-0.545,0.145
3.636,-0.480,0.135
3.639,-0.420,0.135
3.642,-0.360,0.155
3.644,-0.310,0.160
3.647,-0.270,0.155
3.650,-0.250,0.165
3.653,-0.235,0.145
3.656,-0.255,0.135
3.658,-0.245,0.150
3.661,-0.235,0.165
3.664,-0.200,0.170
3.667,-0.195,0.170
3.669,-0.200,0.165
3.672,-0.215,0.145
3.675,-0.215,0.155
3.678,-0.185,0.160
3.681,-0.170,0.155
3.683,-0.165,0.155
3.686,-0.185,0.140
3.689,-0.230,0.135
3.692,-0.205,0.165
3.694,-0.190,0.170
3.697,-0.155,0.160
3.700,-0.130,0.145
3.703,-0.130,0.115
3.706,-0.115,0.105
3.708,-0.110,0.130
3.711,-0.100,0.155
3.714,-0.090,0.160
3.717,-0.065,0.135
3.719,-0.060,0.115
3.722,-0.050,0.100
3.725,-0.040,0.105
3.728,-0.030,0.115
3.731,-0.010,0.140
3.733,0.000,0.125
3.736,0.030,0.110
3.739,0.045,0.090
3.742,0.055,0.100
3.744,0.090,0.105
3.747,0.090,0.115
3.750,0.080,0.105
3.753,0.080,0.085
3.756,0.080,0.085
3.758,0.095,0.100
3.761,0.105,0.120
3.764,0.140,0.115
3.767,0.150,0.100
3.769,0.175,0.050
3.772,0.175,0.045
3.775,0.185,0.060
3.778,0.195,0.075
3.781,0.220,0.100
3.783,0.215,0.090
3.786,0.210,0.080
3.789,0.205,0.055
3.792,0.195,0.060
3.794,0.195,0.100
3.797,0.195,0.100
3.800,0.175,0.095
3.803,0.160,0.075
3.806,0.145,0.080
3.808,0.095,0.095
3.811,0.080,0.140
3.814,0.060,0.170
3.817,0.020,0.150
3.819,0.005,0.115
3.822,-0.005,0.080
3.825,-0.040,0.100
3.828,-0.050,0.130
3.831,-0.065,0.160
3.833,-0.110,0.145
3.836,-0.130,0.135
3.839,-0.165,0.130
3.842,-0.175,0.135
3.844,-0.185,0.145
3.847,-0.180,0.135
3.850,-0.180,0.145
3.853,-0.200,0.140
3.856,-0.230,0.130
3.858,-0.250,0.135
3.861,-0.265,0.160
3.864,-0.240,0.160
3.867,-0.235,0.145
3.869,-0.250,0.130
3.872,-0.265,0.100
3.875,-0.255,0.135
3.878,-0.245,0.160
3.881,-0.235,0.155
3.883,-0.245,0.140
3.886,-0.260,0.125
3.889,-0.270,0.115
3.892,-0.275,0.140
3.894,-0.270,0.165
3.897,-0.265,0.155
3.900,-0.275,0.160
3.903,-0.285,0.130
3.906,-0.290,0.130
3.908,-0.270,0.140
3.911,-0.245,0.150
3.914,-0.225,0.155
3.917,-0.235,0.165
3.919,-0.260,0.145
3.922,-0.275,0.155
3.925,-0.270,0.180
3.928,-0.250,0.185
3.931,-0.230,0.185
3.933,-0.220,0.165
3.936,-0.220,0.150
3.939,-0.215,0.160
3.942,-0.190,0.165
3.944,-0.155,0.175
3.947,-0.145,0.180
3.950,-0.170,0.175
3.953,-0.195,0.155
3.956,-0.205,0.145
3.958,-0.210,0.160
3.961,-0.215,0.150
3.964,-0.215,0.130
3.967,-0.220,0.120
3.969,-0.235,0.100
3.972,-0.250,0.095
3.975,-0.275,0.125
3.978,-0.270,0.120
3.981,-0.260,0.135
3.983,-0.265,0.120
3.986,-0.265,0.115
3.989,-0.280,0.130
3.992,-0.290,0.145
3.994,-0.290,0.145
3.997,-0.295,0.140
4.000,-0.305,0.135
4.003,-0.305,0.120
4.006,-0.320,0.110
4.008,-0.320,0.115
4.011,-0.285,0.135
4.014,-0.270,0.145
4.017,-0.295,0.145
4.019,-0.320,0.125
4.022,-0.360,0.125
4.025,-0.355,0.140
4.028,-0.325,0.150
4.031,-0.290,0.155
4.033,-0.290,0.135
4.036,-0.315,0.130
4.039,-0.330,0.110
4.042,-0.335,0.135
4.044,-0.315,0.125
4.047,-0.285,0.155
4.050,-0.275,0.130
4.053,-0.295,0.135
4.056,-0.300,0.120
4.058,-0.315,0.135
4.061,-0.305,0.150
4.064,-0.285,0.155
4.067,-0.285,0.135
4.069,-0.300,0.115
4.072,-0.295,0.115
4.075,-0.300,0.105
4.078,-0.280,0.125
4.081,-0.265,0.115
4.083,-0.295,0.110
4.086,-0.320,0.115
4.089,-0.345,0.140
4.092,-0.335,0.155
4.094,-0.275,0.180
4.097,-0.180,0.160
4.100,-0.045,0.105
4.103,0.095,0.040
4.106,0.235,0.000
4.108,0.370,-0.045
4.111,0.515,-0.085
4.114,0.630,-0.135
4.117,0.690,-0.205
4.119,0.685,-0.290
4.122,0.560,-0.325
4.125,0.420,-0.320
4.128,0.230,-0.290
4.131,-0.040,-0.240
4.133,-0.380,-0.210
4.136,-0.680,-0.175
4.139,-0.895,-0.145
4.142,-0.940,-0.065
4.144,-0.840,0.045
4.147,-0.685,0.100
4.150,-0.585,0.135
4.153,-0.525,0.130
4.156,-0.480,0.120
4.158,-0.425,0.130
4.161,-0.345,0.145
4.164,-0.285,0.150
4.167,-0.270,0.135
4.169,-0.290,0.120
4.172,-0.305,0.100
4.175,-0.310,0.105
4.178,-0.290,0.140
4.181,-0.255,0.145
4.183,-0.245,0.110
4.186,-0.230,0.085
4.189,-0.220,0.085
4.192,-0.205,0.100
4.194,-0.195,0.130
4.197,-0.205,0.140
4.200,-0.225,0.120
4.203,-0.225,0.115
4.206,-0.225,0.115
4.208,-0.225,0.100
4.211,-0.205,0.120
4.214,-0.170,0.130
4.217,-0.160,0.110
4.219,-0.130,0.095
4.222,-0.115,0.085
4.225,-0.115,0.080
4.228,-0.110,0.090
4.231,-0.100,0.110
4.233,-0.095,0.100
4.236,-0.095,0.095
4.239,-0.075,0.080
4.242,-0.055,0.055
4.244,-0.030,0.070
4.247,-0.020,0.075
4.250,0.000,0.070
4.253,0.000,0.065
4.256,0.010,0.060
4.258,0.040,0.070
4.261,0.080,0.055
4.264,0.100,0.060
4.267,0.095,0.040
4.269,0.120,0.040
4.272,0.120,0.030
4.275,0.150,0.040
4.278,0.165,0.055
4.281,0.180,0.055
4.283,0.170,0.040
4.286,0.155,0.025
4.289,0.125,0.020
4.292,0.130,0.015
4.294,0.135,0.045
4.297,0.145,0.060
4.300,0.155,0.035
4.303,0.150,0.015
4.306,0.135,0.015
4.308,0.095,0.045
4.311,0.095,0.080
4.314,0.100,0.090
4.317,0.065,0.080
4.319,0.030,0.060
4.322,0.000,0.040
4.325,-0.005,0.060
4.328,-0.010,0.085
4.331,-0.025,0.080
4.333,-0.055,0.095
4.336,-0.070,0.075
4.339,-0.090,0.080
4.342,-0.110,0.090
4.344,-0.125,0.105
4.347,-0.145,0.100
4.350,-0.170,0.105
4.353,-0.195,0.095
4.356,-0.225,0.090
4.358,-0.225,0.100
4.361,-0.250,0.115
4.364,-0.235,0.135
4.367,-0.230,0.110
4.369,-0.200,0.090
4.372,-0.210,0.080
4.375,-0.240,0.095
4.378,-0.280,0.100
4.381,-0.270,0.105
4.383,-0.240,0.105
4.386,-0.220,0.090
4.389,-0.220,0.070
4.392,-0.230,0.100
4.394,-0.270,0.130
4.397,-0.305,0.165
4.400,-0.330,0.185
4.403,-0.335,0.165
4.406,-0.320,0.130
4.408,-0.300,0.090
4.411,-0.280,0.095
4.414,-0.300,0.085
4.417,-0.315,0.070
4.419,-0.325,0.070
4.422,-0.335,0.065
4.425,-0.315,0.085
4.428,-0.280,0.105
4.431,-0.260,0.120
4.433,-0.250,0.120
4.436,-0.260,0.100
4.439,-0.270,0.115
4.442,-0.275,0.120
4.444,-0.245,0.130
4.447,-0.230,0.130
4.450,-0.225,0.120
4.453,-0.205,0.100
4.456,-0.200,0.110
4.458,-0.195,0.120
4.461,-0.180,0.130
4.464,-0.185,0.135
4.467,-0.210,0.105
4.469,-0.230,0.090
4.472,-0.255,0.070
4.475,-0.250,0.080
4.478,-0.235,0.105
4.481,-0.220,0.105
4.483,-0.240,0.100
4.486,-0.285,0.095
4.489,-0.315,0.080
4.492,-0.330,0.100
4.494,-0.325,0.105
4.497,-0.305,0.095
4.500,-0.310,0.095
4.503,-0.315,0.075
4.506,-0.305,0.080
4.508,-0.320,0.085
4.511,-0.330,0.105
4.514,-0.325,0.120
4.517,-0.325,0.100
4.519,-0.335,0.100
4.522,-0.335,0.095
4.525,-0.330,0.075
4.528,-0.320,0.095
4.531,-0.305,0.105
4.533,-0.305,0.090
4.536,-0.310,0.075
4.539,-0.330,0.090
4.542,-0.330,0.085
4.544,-0.310,0.095
4.547,-0.300,0.090
4.550,-0.325,0.095
4.553,-0.335,0.105
4.556,-0.335,0.110
4.558,-0.345,0.105
4.561,-0.345,0.120
4.564,-0.345,0.130
4.567,-0.345,0.115
4.569,-0.345,0.110
4.572,-0.350,0.110
4.575,-0.350,0.110
4.578,-0.345,0.115
4.581,-0.315,0.110
4.583,-0.320,0.105
4.586,-0.320,0.095
4.589,-0.330,0.095
4.592,-0.315,0.120
4.594,-0.300,0.110
4.597,-0.275,0.115
4.600,-0.290,0.110
4.603,-0.320,0.095
4.606,-0.345,0.110
4.608,-0.375,0.140
4.611,-0.370,0.165
4.614,-0.325,0.170
4.617,-0.245,0.170
4.619,-0.130,0.095
4.622,-0.015,0.040
4.625,0.120,0.000
4.628,0.295,-0.045
4.631,0.460,-0.095
4.633,0.565,-0.165
4.636,0.625,-0.235
4.639,0.630,-0.305
4.642,0.540,-0.340
4.644,0.395,-0.310
4.647,0.205,-0.290
4.650,-0.070,-0.255
4.653,-0.430,-0.205
4.656,-0.725,-0.175
4.658,-0.915,-0.125
4.661,-0.970,-0.065
4.664,-0.890,0.020
4.667,-0.760,0.060
4.669,-0.680,0.090
4.672,-0.615,0.105
4.675,-0.540,0.120
4.678,-0.455,0.135
4.681,-0.370,0.130
4.683,-0.340,0.105
4.686,-0.335,0.075
4.689,-0.340,0.080
4.692,-0.340,0.095
4.694,-0.315,0.120
4.697,-0.285,0.130
4.700,-0.285,0.135
4.703,-0.285,0.120
4.706,-0.280,0.115
4.708,-0.275,0.135
4.711,-0.245,0.125
4.714,-0.240,0.120
4.717,-0.240,0.100
4.719,-0.240,0.070
4.722,-0.245,0.075
4.725,-0.230,0.085
4.728,-0.215,0.100
4.731,-0.190,0.085
4.733,-0.195,0.105
4.736,-0.190,0.095
4.739,-0.200,0.105
4.742,-0.185,0.100
4.744,-0.165,0.110
4.747,-0.135,0.095
4.750,-0.115,0.090
4.753,-0.100,0.055
4.756,-0.120,0.075
4.758,-0.125,0.080
4.761,-0.100,0.100
4.764,-0.060,0.085
4.767,-0.055,0.055
4.769,-0.040,0.035
4.772,-0.030,0.055
4.775,-0.020,0.060
4.778,0.025,0.050
4.781,0.065,0.045
4.783,0.090,0.045
4.786,0.070,0.045
4.789,0.070,0.025
4.792,0.080,0.030
4.794,0.105,0.035
4.797,0.135,0.025
4.800,0.145,0.030
4.803,0.115,0.015
4.806,0.120,0.025
4.808,0.115,0.045
4.811,0.120,0.050
4.814,0.145,0.055
4.817,0.150,0.035
4.819,0.145,0.020
4.822,0.120,0.035
4.825,0.115,0.055
4.828,0.125,0.065
4.831,0.125,0.075
4.833,0.115,0.065
4.836,0.075,0.055
4.839,0.050,0.035
4.842,0.025,0.045
4.844,0.010,0.070
4.847,0.010,0.090
4.850,-0.010,0.085
4.853,-0.040,0.075
4.856,-0.075,0.070
4.858,-0.100,0.100
4.861,-0.130,0.130
4.864,-0.155,0.120
4.867,-0.165,0.080
4.869,-0.185,0.080
4.872,-0.205,0.110
4.875,-0.215,0.125
4.878,-0.225,0.120
4.881,-0.230,0.115
4.883,-0.225,0.110
4.886,-0.245,0.115
4.889,-0.280,0.125
4.892,-0.285,0.120
4.894,-0.275,0.125
4.897,-0.250,0.115
4.900,-0.250,0.120
4.903,-0.260,0.095
4.906,-0.295,0.110
4.908,-0.290,0.120
4.911,-0.280,0.135
4.914,-0.275,0.145
4.917,-0.270,0.140
4.919,-0.285,0.100
4.922,-0.300,0.090
4.925,-0.295,0.100
4.928,-0.280,0.110
4.931,-0.260,0.130
4.933,-0.260,0.115
4.936,-0.265,0.100
4.939,-0.270,0.100
4.942,-0.265,0.120
4.944,-0.250,0.145
4.947,-0.250,0.140
4.950,-0.260,0.125
4.953,-0.305,0.110
4.956,-0.325,0.135
4.958,-0.315,0.155
4.961,-0.270,0.180
4.964,-0.230,0.170
4.967,-0.230,0.155
4.969,-0.230,0.155
4.972,-0.210,0.135
4.975,-0.210,0.140
4.978,-0.185,0.155
4.981,-0.150,0.150
4.983,-0.150,0.125
4.986,-0.170,0.105
4.989,-0.205,0.110
4.992,-0.240,0.120
4.994,-0.255,0.125
4.997,-0.240,0.115
5.000,-0.250,0.095
5.003,-0.265,0.095
5.006,-0.320,0.115
5.008,-0.340,0.130
5.011,-0.330,0.140
5.014,-0.310,0.135
5.017,-0.300,0.125
5.019,-0.290,0.085
5.022,-0.295,0.095
5.025,-0.315,0.110
5.028,-0.315,0.135
5.031,-0.335,0.125
5.033,-0.315,0.135
5.036,-0.335,0.140
5.039,-0.340,0.130
5.042,-0.350,0.130
5.044,-0.355,0.135
5.047,-0.350,0.140
5.050,-0.340,0.125
5.053,-0.355,0.100
5.056,-0.375,0.125
5.058,-0.345,0.120
5.061,-0.340,0.120
5.064,-0.325,0.110
5.067,-0.330,0.105
5.069,-0.330,0.080
5.072,-0.355,0.085
5.075,-0.360,0.095
5.078,-0.345,0.120
5.081,-0.330,0.115
5.083,-0.325,0.120
5.086,-0.325,0.100
5.089,-0.325,0.110
5.092,-0.310,0.105
5.094,-0.310,0.115
5.097,-0.305,0.135
5.100,-0.310,0.115
5.103,-0.325,0.105
5.106,-0.355,0.120
5.108,-0.365,0.130
5.111,-0.355,0.145
5.114,-0.330,0.130
5.117,-0.320,0.110
5.119,-0.335,0.100
5.122,-0.360,0.135
5.125,-0.375,0.150
5.128,-0.370,0.185
5.131,-0.305,0.185
5.133,-0.230,0.160
5.136,-0.135,0.100
5.139,-0.030,0.045
5.142,0.095,-0.015
5.144,0.230,-0.040
5.147,0.360,-0.100
5.150,0.425,-0.160
5.153,0.490,-0.205
5.156,0.520,-0.255
5.158,0.465,-0.255
5.161,0.370,-0.240
5.164,0.190,-0.210
5.167,-0.115,-0.195
5.169,-0.470,-0.150
5.172,-0.775,-0.130
5.175,-0.960,-0.080
5.178,-0.980,-0.005
5.181,-0.890,0.070
5.183,-0.775,0.125
5.186,-0.665,0.105
5.189,-0.565,0.105
5.192,-0.450,0.115
5.194,-0.390,0.115
5.197,-0.370,0.120
5.200,-0.360,0.090
5.203,-0.365,0.085
5.206,-0.345,0.070
5.208,-0.330,0.080
5.211,-0.320,0.125
5.214,-0.305,0.135
5.217,-0.290,0.115
5.219,-0.295,0.080
5.222,-0.295,0.065
5.225,-0.290,0.100
5.228,-0.285,0.115
5.231,-0.260,0.105
5.233,-0.255,0.105
5.236,-0.250,0.100
5.239,-0.260,0.095
5.242,-0.260,0.105
5.244,-0.235,0.110
5.247,-0.210,0.105
5.250,-0.210,0.095
5.253,-0.215,0.085
5.256,-0.225,0.070
5.258,-0.205,0.070
5.261,-0.170,0.085
5.264,-0.135,0.075
5.267,-0.115,0.060
5.269,-0.120,0.045
5.272,-0.120,0.045
5.275,-0.120,0.065
5.278,-0.090,0.085
5.281,-0.055,0.060
5.283,-0.040,0.040
5.286,-0.035,0.035
5.289,-0.050,0.035
5.292,-0.045,0.085
5.294,-0.025,0.090
5.297,0.015,0.090
5.300,0.045,0.070
5.303,0.050,0.070
5.306,0.050,0.035
5.308,0.065,0.025
5.311,0.090,0.030
5.314,0.130,0.030
5.317,0.135,0.010
5.319,0.115,0.020
5.322,0.085,0.005
5.325,0.085,0.030
5.328,0.105,0.035
5.331,0.115,0.035
5.333,0.115,0.010
5.336,0.095,0.005
5.339,0.070,-0.005
5.342,0.055,0.025
5.344,0.070,0.030
5.347,0.080,0.035
5.350,0.075,0.040
5.353,0.050,0.035
5.356,0.025,0.035
5.358,0.025,0.060
5.361,0.015,0.090
5.364,0.010,0.085
5.367,-0.015,0.080
5.369,-0.050,0.070
5.372,-0.080,0.070
5.375,-0.075,0.060
5.378,-0.070,0.060
5.381,-0.105,0.075
5.383,-0.195,0.085
5.386,-0.295,0.105
5.389,-0.315,0.105
5.392,-0.290,0.125
5.394,-0.275,0.120
5.397,-0.265,0.140
5.400,-0.270,0.135
5.403,-0.270,0.120
5.406,-0.285,0.105
5.408,-0.295,0.100
5.411,-0.305,0.110
5.414,-0.300,0.115
5.417,-0.300,0.120
5.419,-0.315,0.115
5.422,-0.320,0.110
5.425,-0.320,0.130
5.428,-0.315,0.135
5.431,-0.280,0.150
5.433,-0.265,0.140
5.436,-0.250,0.110
5.439,-0.280,0.075
5.442,-0.325,0.075
5.444,-0.345,0.110
5.447,-0.340,0.125
5.450,-0.345,0.135
5.453,-0.340,0.115
5.456,-0.355,0.105
5.458,-0.335,0.115
5.461,-0.305,0.115
5.464,-0.290,0.130
5.467,-0.295,0.115
5.469,-0.295,0.120
5.472,-0.295,0.135
5.475,-0.280,0.150
5.478,-0.260,0.165
5.481,-0.265,0.160
5.483,-0.285,0.150
5.486,-0.295,0.145
5.489,-0.300,0.140
5.492,-0.280,0.145
5.494,-0.240,0.165
5.497,-0.215,0.170
5.500,-0.225,0.155
5.503,-0.220,0.135
5.506,-0.235,0.110
5.508,-0.235,0.120
5.511,-0.235,0.100
5.514,-0.240,0.095
5.517,-0.255,0.085
5.519,-0.265,0.065
5.522,-0.295,0.070
5.525,-0.300,0.060
5.528,-0.300,0.070
5.531,-0.290,0.080
5.533,-0.275,0.085
5.536,-0.280,0.070
5.539,-0.275,0.070
5.542,-0.285,0.090
5.544,-0.305,0.110
5.547,-0.320,0.140
5.550,-0.330,0.125
5.553,-0.345,0.090
5.556,-0.340,0.070
5.558,-0.350,0.080
5.561,-0.340,0.120
5.564,-0.325,0.125
5.567,-0.325,0.105
5.569,-0.340,0.075
5.572,-0.345,0.075
5.575,-0.335,0.085
5.578,-0.315,0.110
5.581,-0.305,0.110
5.583,-0.305,0.095
5.586,-0.325,0.100
5.589,-0.355,0.090
5.592,-0.335,0.100
5.594,-0.320,0.110
5.597,-0.295,0.090
5.600,-0.295,0.110
5.603,-0.335,0.095
5.606,-0.365,0.080
5.608,-0.370,0.105
5.611,-0.350,0.145
5.614,-0.335,0.140
5.617,-0.335,0.115
5.619,-0.320,0.080
5.622,-0.355,0.060
5.625,-0.355,0.090
5.628,-0.340,0.100
5.631,-0.325,0.110
5.633,-0.335,0.090
5.636,-0.345,0.080
5.639,-0.340,0.080
5.642,-0.330,0.105
5.644,-0.335,0.100
5.647,-0.345,0.120
5.650,-0.355,0.115
5.653,-0.345,0.110
5.656,-0.260,0.105
5.658,-0.135,0.080
5.661,0.005,0.050
5.664,0.180,-0.025
5.667,0.325,-0.090
5.669,0.470,-0.190
5.672,0.540,-0.220
5.675,0.550,-0.255
5.678,0.460,-0.260
5.681,0.340,-0.255
5.683,0.145,-0.240
5.686,-0.130,-0.230
5.689,-0.445,-0.180
5.692,-0.740,-0.125
5.694,-0.920,-0.070
5.697,-0.950,-0.035
5.700,-0.865,0.015
5.703,-0.755,0.065
5.706,-0.675,0.085
5.708,-0.595,0.100
5.711,-0.515,0.100
5.714,-0.435,0.105
5.717,-0.415,0.110
5.719,-0.400,0.105
5.722,-0.385,0.095
5.725,-0.365,0.090
5.728,-0.355,0.105
5.731,-0.315,0.105
5.733,-0.310,0.095
5.736,-0.305,0.075
5.739,-0.305,0.065
5.742,-0.300,0.100
5.744,-0.290,0.115
5.747,-0.275,0.125
5.750,-0.260,0.105
5.753,-0.260,0.065
5.756,-0.255,0.070
5.758,-0.255,0.075
5.761,-0.225,0.075
5.764,-0.210,0.070
5.767,-0.225,0.060
5.769,-0.245,0.050
5.772,-0.250,0.050
5.775,-0.235,0.095
5.778,-0.225,0.090
5.781,-0.195,0.095
5.783,-0.190,0.075
5.786,-0.185,0.065
5.789,-0.170,0.075
5.792,-0.150,0.080
5.794,-0.125,0.100
5.797,-0.100,0.080
5.800,-0.080,0.045
5.803,-0.065,0.045
5.806,-0.060,0.045
5.808,-0.035,0.055
5.811,0.000,0.055
5.814,0.030,0.050
5.817,0.050,0.020
5.819,0.065,0.025
5.822,0.070,0.015
5.825,0.085,0.020
5.828,0.115,0.040
5.831,0.135,0.015
5.833,0.130,-0.010
5.836,0.110,-0.015
5.839,0.080,0.000
5.842,0.060,0.005
5.844,0.075,0.050
5.847,0.090,0.045
5.850,0.090,0.040
5.853,0.095,0.040
5.856,0.085,0.055
5.858,0.070,0.085
5.861,0.080,0.085
5.864,0.070,0.040
5.867,0.060,0.005
5.869,0.030,0.015
5.872,-0.010,0.030
5.875,-0.035,0.040
5.878,-0.040,0.065
5.881,-0.045,0.075
5.883,-0.075,0.090
5.886,-0.115,0.065
5.889,-0.160,0.070
5.892,-0.185,0.075
5.894,-0.185,0.090
5.897,-0.195,0.100
5.900,-0.200,0.085
5.903,-0.205,0.075
5.906,-0.215,0.050
5.908,-0.240,0.070
5.911,-0.240,0.090
5.914,-0.240,0.095
5.917,-0.255,0.090
5.919,-0.270,0.075
5.922,-0.290,0.080
5.925,-0.275,0.090
5.928,-0.280,0.115
5.931,-0.275,0.130
5.933,-0.280,0.120
5.936,-0.280,0.090
5.939,-0.310,0.075
5.942,-0.350,0.115
5.944,-0.365,0.120
5.947,-0.330,0.115
5.950,-0.310,0.080
5.953,-0.310,0.055
5.956,-0.335,0.060
5.958,-0.325,0.095
5.961,-0.325,0.120
5.964,-0.320,0.115
5.967,-0.330,0.085
5.969,-0.345,0.085
5.972,-0.350,0.095
5.975,-0.325,0.105
5.978,-0.300,0.120
5.981,-0.270,0.120
5.983,-0.275,0.130
5.986,-0.285,0.135
5.989,-0.310,0.105
5.992,-0.275,0.115
5.994,-0.245,0.145
5.997,-0.235,0.130
6.000,-0.235,0.125
6.003,-0.230,0.080
6.006,-0.210,0.075
6.008,-0.200,0.090
6.011,-0.215,0.090
6.014,-0.240,0.085
6.017,-0.285,0.075
6.019,-0.295,0.055
6.022,-0.290,0.040
6.025,-0.280,0.055
6.028,-0.270,0.065
6.031,-0.250,0.075
6.033,-0.270,0.065
6.036,-0.305,0.055
6.039,-0.255,0.080
6.042,-0.235,0.095
6.044,-0.235,0.095
6.047,-0.300,0.100
6.050,-0.365,0.055
6.053,-0.395,0.045
6.056,-0.415,0.075
6.058,-0.435,0.095
6.061,-0.425,0.115
6.064,-0.385,0.125
6.067,-0.365,0.100
6.069,-0.370,0.070
6.072,-0.385,0.080
6.075,-0.370,0.110
6.078,-0.350,0.110
6.081,-0.340,0.070
6.083,-0.325,0.050
6.086,-0.320,0.030
6.089,-0.320,0.045
6.092,-0.310,0.060
6.094,-0.295,0.085
6.097,-0.290,0.105
6.100,-0.325,0.095
6.103,-0.360,0.095
6.106,-0.365,0.075
6.108,-0.345,0.080
6.111,-0.360,0.105
6.114,-0.365,0.135
6.117,-0.380,0.145
6.119,-0.390,0.115
6.122,-0.390,0.070
6.125,-0.385,0.060
6.128,-0.355,0.065
6.131,-0.345,0.100
6.133,-0.365,0.110
6.136,-0.390,0.075
6.139,-0.380,0.060
6.142,-0.375,0.055
6.144,-0.380,0.080
6.147,-0.360,0.115
6.150,-0.340,0.130
6.153,-0.290,0.080
6.156,-0.170,0.020
6.158,-0.020,-0.025
6.161,0.145,-0.060
6.164,0.310,-0.080
6.167,0.455,-0.140
6.169,0.565,-0.210
6.172,0.635,-0.295
6.175,0.645,-0.335
6.178,0.565,-0.350
6.181,0.410,-0.345
6.183,0.200,-0.345
6.186,-0.100,-0.335
6.189,-0.445,-0.280
6.192,-0.770,-0.215
6.194,-0.960,-0.140
6.197,-0.945,-0.055
6.200,-0.830,0.020
6.203,-0.705,0.075
6.206,-0.605,0.100
6.208,-0.505,0.115
6.211,-0.435,0.100
6.214,-0.395,0.065
6.217,-0.360,0.020
6.219,-0.365,0.020
6.222,-0.350,0.035
6.225,-0.325,0.045
6.228,-0.290,0.070
6.231,-0.310,0.080
6.233,-0.340,0.090
6.236,-0.365,0.080
6.239,-0.360,0.085
6.242,-0.345,0.090
6.244,-0.340,0.080
6.247,-0.325,0.080
6.250,-0.310,0.060
6.253,-0.280,0.015
6.256,-0.260,-0.020
6.258,-0.255,0.000
6.261,-0.265,0.015
6.264,-0.255,0.035
6.267,-0.280,0.025
6.269,-0.290,0.030
6.272,-0.275,0.050
6.275,-0.245,0.085
6.278,-0.245,0.060
6.281,-0.220,0.045
6.283,-0.200,0.020
6.286,-0.160,0.020
6.289,-0.130,0.020
6.292,-0.120,0.015
6.294,-0.110,0.030
6.297,-0.085,0.040
6.300,-0.070,0.030
6.303,-0.050,-0.010
6.306,-0.065,-0.020
6.308,-0.045,0.000
6.311,-0.030,0.035
6.314,0.020,0.035
6.317,0.040,0.025
6.319,0.035,-0.010
6.322,0.025,-0.040
6.325,0.055,-0.035
6.328,0.080,0.015
6.331,0.085,0.015
6.333,0.055,-0.010
6.336,0.000,-0.030
6.339,-0.005,-0.030
6.342,0.030,0.010
6.344,0.050,0.050
6.347,0.050,0.030
6.350,0.075,-0.015
6.353,0.090,-0.045
6.356,0.060,-0.030
6.358,0.025,0.000
6.361,0.015,0.035
6.364,0.030,0.045
6.367,0.010,0.010
6.369,-0.030,0.005
6.372,-0.095,0.010
6.375,-0.110,0.015
6.378,-0.110,0.060
6.381,-0.110,0.050
6.383,-0.125,0.020
6.386,-0.155,0.005
6.389,-0.170,0.020
6.392,-0.215,0.070
6.394,-0.225,0.080
6.397,-0.255,0.060
6.400,-0.275,0.035
6.403,-0.300,0.025
6.406,-0.310,0.015
6.408,-0.310,0.040
6.411,-0.315,0.080
6.414,-0.310,0.085
6.417,-0.335,0.085
6.419,-0.370,0.055
6.422,-0.375,0.025
6.425,-0.350,0.035
6.428,-0.335,0.050
6.431,-0.335,0.060
6.433,-0.360,0.050
6.436,-0.390,0.060
6.439,-0.415,0.065
6.442,-0.395,0.075
6.444,-0.385,0.080
6.447,-0.345,0.065
6.450,-0.380,0.025
6.453,-0.390,0.030
6.456,-0.405,0.050
6.458,-0.395,0.090
6.461,-0.390,0.085
6.464,-0.340,0.060
6.467,-0.360,0.040
6.469,-0.360,0.025
6.472,-0.365,0.035
6.475,-0.345,0.070
6.478,-0.335,0.080
6.481,-0.320,0.065
6.483,-0.325,0.055
6.486,-0.320,0.045
6.489,-0.310,0.065
6.492,-0.300,0.110
6.494,-0.295,0.135
6.497,-0.305,0.140
6.500,-0.315,0.095
6.503,-0.315,0.070
6.506,-0.295,0.050
6.508,-0.280,0.045
6.511,-0.260,0.065
6.514,-0.235,0.065
6.517,-0.240,0.050
6.519,-0.255,0.020
6.522,-0.270,0.000
6.525,-0.290,0.000
6.528,-0.300,0.020
6.531,-0.290,0.020
6.533,-0.300,0.010
6.536,-0.295,0.015
6.539,-0.335,0.010
6.542,-0.325,0.015
6.544,-0.315,0.045
6.547,-0.320,0.035
6.550,-0.335,0.045
6.553,-0.335,0.055
6.556,-0.335,0.090
6.558,-0.335,0.080
6.561,-0.330,0.065
6.564,-0.325,0.020
6.567,-0.330,-0.010
6.569,-0.360,-0.010
6.572,-0.400,0.005
6.575,-0.410,0.050
6.578,-0.400,0.070
6.581,-0.370,0.065
6.583,-0.380,0.055
6.586,-0.395,0.060
6.589,-0.425,0.055
6.592,-0.390,0.040
6.594,-0.385,0.045
6.597,-0.360,0.065
6.600,-0.350,0.080
6.603,-0.340,0.075
6.606,-0.355,0.065
6.608,-0.380,0.075
6.611,-0.385,0.070
6.614,-0.385,0.080
6.617,-0.390,0.080
6.619,-0.385,0.055
6.622,-0.380,0.015
6.625,-0.370,0.020
6.628,-0.345,0.055
6.631,-0.345,0.070
6.633,-0.375,0.060
6.636,-0.380,0.035
6.639,-0.395,0.005
6.642,-0.365,0.025
6.644,-0.350,0.035
6.647,-0.335,0.055
6.650,-0.345,0.040
6.653,-0.370,0.035
6.656,-0.395,0.035
6.658,-0.400,0.050
6.661,-0.370,0.075
6.664,-0.315,0.065
6.667,-0.270,0.065
6.669,-0.200,0.030
6.672,-0.080,-0.015
6.675,0.060,-0.050
6.678,0.225,-0.075
6.681,0.385,-0.125
6.683,0.545,-0.180
6.686,0.625,-0.280
6.689,0.615,-0.345
6.692,0.500,-0.380
6.694,0.365,-0.350
6.697,0.200,-0.330
6.700,-0.055,-0.320
6.703,-0.415,-0.325
6.706,-0.760,-0.275
6.708,-0.980,-0.170
6.711,-0.985,-0.080
6.714,-0.855,-0.010
6.717,-0.705,0.005
6.719,-0.605,0.015
6.722,-0.565,0.030
6.725,-0.530,0.070
6.728,-0.485,0.070
6.731,-0.415,0.025
6.733,-0.355,0.005
6.736,-0.335,-0.025
6.739,-0.325,-0.020
6.742,-0.335,-0.015
6.744,-0.320,0.005
6.747,-0.320,0.015
6.750,-0.295,-0.005
6.753,-0.295,0.015
6.756,-0.285,0.010
6.758,-0.285,0.030
6.761,-0.285,0.035
6.764,-0.265,0.030
6.767,-0.260,0.005
6.769,-0.260,0.000
6.772,-0.285,0.000
6.775,-0.275,0.015
6.778,-0.265,0.035
6.781,-0.240,0.030
6.783,-0.235,0.030
6.786,-0.245,0.015
6.789,-0.250,0.010
6.792,-0.250,0.015
6.794,-0.225,0.045
6.797,-0.205,0.040
6.800,-0.180,0.005
6.803,-0.190,-0.010
6.806,-0.180,-0.005
6.808,-0.140,0.000
6.811,-0.090,0.010
6.814,-0.060,-0.005
6.817,-0.060,-0.005
6.819,-0.065,-0.015
6.822,-0.060,-0.010
6.825,-0.020,-0.010
6.828,0.015,-0.010
6.831,0.035,-0.010
6.833,0.035,-0.035
6.836,0.030,-0.050
6.839,0.025,-0.050
6.842,0.045,-0.035
6.844,0.085,0.000
6.847,0.100,0.000
6.850,0.110,-0.020
6.853,0.085,-0.045
6.856,0.080,-0.050
6.858,0.085,-0.045
6.861,0.110,-0.010
6.864,0.125,-0.005
6.867,0.130,-0.015
6.869,0.105,-0.035
6.872,0.075,-0.040
6.875,0.070,-0.020
6.878,0.070,-0.015
6.881,0.070,-0.025
6.883,0.040,0.000
6.886,0.010,0.000
6.889,-0.010,0.015
6.892,-0.025,0.045
6.894,-0.035,0.090
6.897,-0.050,0.095
6.900,-0.095,0.100
6.903,-0.120,0.065
6.906,-0.120,0.045
6.908,-0.120,0.055
6.911,-0.120,0.045
6.914,-0.175,0.030
6.917,-0.250,0.035
6.919,-0.290,0.020
6.922,-0.300,0.045
6.925,-0.280,0.060
6.928,-0.265,0.055
6.931,-0.250,0.055
6.933,-0.270,0.045
6.936,-0.295,0.035
6.939,-0.305,0.025
6.942,-0.310,0.045
6.944,-0.285,0.080
6.947,-0.275,0.090
6.950,-0.280,0.085
6.953,-0.280,0.050
6.956,-0.305,0.030
6.958,-0.320,0.035
6.961,-0.320,0.045
6.964,-0.315,0.055
6.967,-0.290,0.035
6.969,-0.305,0.020
6.972,-0.310,0.010
6.975,-0.325,0.050
6.978,-0.325,0.070
6.981,-0.315,0.050
6.983,-0.325,0.045
6.986,-0.340,0.040
6.989,-0.340,0.045
6.992,-0.325,0.050
6.994,-0.305,0.075
6.997,-0.265,0.080
7.000,-0.265,0.065
7.003,-0.280,0.075
7.006,-0.295,0.075
7.008,-0.275,0.080
7.011,-0.265,0.095
7.014,-0.255,0.115
7.017,-0.255,0.115
7.019,-0.260,0.090
7.022,-0.260,0.060
7.025,-0.255,0.055
7.028,-0.215,0.060
7.031,-0.190,0.090
7.033,-0.190,0.065
7.036,-0.225,0.045
7.039,-0.250,0.030
7.042,-0.255,0.035
7.044,-0.250,0.055
7.047,-0.250,0.035
7.050,-0.275,0.010
7.053,-0.305,-0.025
7.056,-0.330,-0.010
7.058,-0.330,-0.005
7.061,-0.315,0.015
7.064,-0.295,0.010
7.067,-0.285,0.015
7.069,-0.280,-0.010
7.072,-0.285,0.005
7.075,-0.310,0.015
7.078,-0.330,0.045
7.081,-0.340,0.055
7.083,-0.335,0.065
7.086,-0.360,0.030
7.089,-0.340,0.025
7.092,-0.325,0.015
7.094,-0.315,0.000
7.097,-0.295,-0.005
7.100,-0.295,0.000
7.103,-0.340,0.015
7.106,-0.350,0.030
7.108,-0.345,0.045
7.111,-0.320,0.060
7.114,-0.315,0.040
7.117,-0.300,0.025
7.119,-0.315,0.015
7.122,-0.325,0.025
7.125,-0.325,0.060
7.128,-0.315,0.060
7.131,-0.315,0.060
7.133,-0.335,0.030
7.136,-0.345,0.030
7.139,-0.345,0.025
7.142,-0.345,0.035
7.144,-0.330,0.055
7.147,-0.300,0.050
7.150,-0.305,0.030
7.153,-0.300,0.020
7.156,-0.310,0.015
7.158,-0.320,0.035
7.161,-0.310,0.060
7.164,-0.315,0.050
7.167,-0.295,0.025
7.169,-0.295,0.005
7.172,-0.305,0.035
7.175,-0.325,0.040
7.178,-0.320,0.075
7.181,-0.315,0.080
7.183,-0.315,0.080
7.186,-0.290,0.075
7.189,-0.245,0.060
7.192,-0.135,0.070
7.194,0.010,0.035
7.197,0.155,-0.035
7.200,0.310,-0.150
7.203,0.440,-0.225
7.206,0.535,-0.265
7.208,0.585,-0.315
7.211,0.560,-0.350
7.214,0.435,-0.350
7.217,0.270,-0.325
7.219,-0.030,-0.285
7.222,-0.395,-0.255
7.225,-0.720,-0.235
7.228,-0.915,-0.185
7.231,-0.945,-0.125
7.233,-0.840,-0.070
7.236,-0.735,-0.030
7.239,-0.645,0.000
7.242,-0.575,0.010
7.244,-0.495,0.025
7.247,-0.415,0.040
7.250,-0.355,0.035
7.253,-0.330,0.010
7.256,-0.320,-0.015
7.258,-0.300,-0.015
7.261,-0.275,0.005
7.264,-0.260,0.020
7.267,-0.260,0.010
7.269,-0.265,0.010
7.272,-0.280,0.010
7.275,-0.255,0.030
7.278,-0.245,0.040
7.281,-0.225,0.055
7.283,-0.230,0.040
7.286,-0.230,0.020
7.289,-0.230,0.020
7.292,-0.235,0.035
7.294,-0.210,0.035
7.297,-0.205,0.030
7.300,-0.200,-0.010
7.303,-0.200,-0.005
7.306,-0.190,0.015
7.308,-0.180,0.020
7.311,-0.160,0.015
7.314,-0.120,-0.010
7.317,-0.125,-0.025
7.319,-0.115,-0.020
7.322,-0.110,-0.010
7.325,-0.080,0.005
7.328,-0.050,0.010
7.331,-0.030,-0.010
7.333,-0.025,-0.045
7.336,-0.030,-0.065
7.339,-0.020,-0.030
7.342,0.005,-0.025
7.344,0.030,-0.035
7.347,0.070,-0.060
7.350,0.080,-0.065
7.353,0.090,-0.085
7.356,0.080,-0.070
7.358,0.115,-0.070
7.361,0.130,-0.040
7.364,0.145,-0.055
7.367,0.110,-0.060
7.369,0.080,-0.070
7.372,0.105,-0.060
7.375,0.120,-0.060
7.378,0.145,-0.055
7.381,0.165,-0.060
7.383,0.170,-0.055
7.386,0.145,-0.070
7.389,0.145,-0.040
7.392,0.150,-0.030
7.394,0.150,-0.020
7.397,0.170,-0.020
7.400,0.160,-0.060
7.403,0.110,-0.075
7.406,0.095,-0.070
7.408,0.070,-0.025
7.411,0.070,-0.025
7.414,0.055,-0.035
7.417,0.035,-0.025
7.419,0.000,-0.040
7.422,-0.040,-0.010
7.425,-0.075,0.025
7.428,-0.080,0.060
7.431,-0.085,0.055
7.433,-0.120,0.030
7.436,-0.140,0.010
7.439,-0.160,0.000
7.442,-0.180,-0.015
7.444,-0.185,0.015
7.447,-0.180,-0.010
7.450,-0.180,-0.005
7.453,-0.200,-0.025
7.456,-0.225,-0.025
7.458,-0.235,-0.015
7.461,-0.215,0.000
7.464,-0.190,0.000
7.467,-0.220,0.000
7.469,-0.260,-0.025
7.472,-0.260,-0.005
7.475,-0.255,0.035
7.478,-0.250,0.055
7.481,-0.235,0.030
7.483,-0.240,0.005
7.486,-0.255,-0.010
7.489,-0.250,-0.005
7.492,-0.255,0.015
7.494,-0.240,0.025
7.497,-0.230,0.010
7.500,-0.225,-0.010
7.503,-0.235,-0.015
7.506,-0.260,0.000
7.508,-0.280,0.000
7.511,-0.280,0.040
7.514,-0.285,0.075
7.517,-0.275,0.095
7.519,-0.275,0.080
7.522,-0.260,0.030
7.525,-0.230,0.025
7.528,-0.225,0.030
7.531,-0.210,0.020
7.533,-0.200,0.005
7.536,-0.205,-0.035
7.539,-0.215,-0.025
7.542,-0.215,0.000
7.544,-0.195,0.020
7.547,-0.175,0.065
7.550,-0.155,0.045
7.553,-0.170,0.025
7.556,-0.165,0.015
7.558,-0.155,0.025
7.561,-0.125,0.030
7.564,-0.125,0.000
7.567,-0.140,-0.005
7.569,-0.180,-0.030
7.572,-0.210,-0.020
7.575,-0.235,-0.040
7.578,-0.230,-0.035
7.581,-0.215,-0.040
7.583,-0.225,-0.035
7.586,-0.245,-0.040
7.589,-0.255,-0.030
7.592,-0.260,-0.020
7.594,-0.260,0.010
7.597,-0.235,-0.005
7.600,-0.220,-0.015
7.603,-0.255,-0.025
7.606,-0.270,-0.010
7.608,-0.270,0.020
7.611,-0.275,0.020
7.614,-0.280,0.015
7.617,-0.260,0.000
7.619,-0.275,-0.005
7.622,-0.280,-0.010
7.625,-0.265,0.010
7.628,-0.270,0.010
7.631,-0.255,0.020
7.633,-0.260,0.005
7.636,-0.275,-0.015
7.639,-0.295,-0.015
7.642,-0.285,-0.005
7.644,-0.280,0.020
7.647,-0.265,0.030
7.650,-0.275,0.020
7.653,-0.275,0.000
7.656,-0.285,0.000
7.658,-0.280,0.020
7.661,-0.260,0.030
7.664,-0.255,0.020
7.667,-0.245,0.005
7.669,-0.265,-0.020
7.672,-0.285,-0.010
7.675,-0.295,0.005
7.678,-0.295,0.020
7.681,-0.285,0.030
7.683,-0.285,0.005
7.686,-0.275,-0.010
7.689,-0.290,-0.015
7.692,-0.285,0.000
7.694,-0.265,0.030
7.697,-0.250,0.035
7.700,-0.260,0.055
7.703,-0.270,0.030
7.706,-0.275,0.025
7.708,-0.295,0.040
7.711,-0.285,0.050
7.714,-0.275,0.065
7.717,-0.250,0.055
7.719,-0.200,0.025
7.722,-0.120,-0.020
7.725,-0.010,-0.045
7.728,0.115,-0.075
7.731,0.235,-0.120
7.733,0.375,-0.195
7.736,0.480,-0.250
7.739,0.535,-0.285
7.742,0.570,-0.315
7.744,0.580,-0.345
7.747,0.520,-0.350
7.750,0.385,-0.355
7.753,0.175,-0.355
7.756,-0.120,-0.310
7.758,-0.425,-0.235
7.761,-0.700,-0.185
7.764,-0.840,-0.130
7.767,-0.900,-0.085
7.769,-0.830,-0.050
7.772,-0.720,0.005
7.775,-0.640,0.040
7.778,-0.545,0.040
7.781,-0.470,0.010
7.783,-0.400,-0.025
7.786,-0.350,-0.045
7.789,-0.330,-0.035
7.792,-0.300,-0.025
7.794,-0.280,-0.010
7.797,-0.265,-0.005
7.800,-0.250,-0.025
7.803,-0.250,-0.015
7.806,-0.240,-0.015
7.808,-0.240,0.020
7.811,-0.215,0.010
7.814,-0.190,-0.005
7.817,-0.205,0.000
7.819,-0.210,0.005
7.822,-0.220,0.005
7.825,-0.220,0.035
7.828,-0.210,0.045
7.831,-0.200,0.030
7.833,-0.185,0.000
7.836,-0.185,-0.030
7.839,-0.180,-0.025
7.842,-0.185,-0.005
7.844,-0.150,0.015
7.847,-0.130,0.010
7.850,-0.115,-0.030
7.853,-0.125,-0.040
7.856,-0.130,-0.035
7.858,-0.125,-0.020
7.861,-0.095,-0.005
7.864,-0.075,-0.005
7.867,-0.055,-0.035
7.869,-0.045,-0.055
7.872,-0.035,-0.060
7.875,-0.020,-0.030
7.878,0.005,-0.040
7.881,0.035,-0.045
7.883,0.040,-0.050
7.886,0.055,-0.050
7.889,0.060,-0.030
7.892,0.070,-0.040
7.894,0.095,-0.045
7.897,0.115,-0.070
7.900,0.120,-0.075
7.903,0.115,-0.065
7.906,0.105,-0.050
7.908,0.120,-0.035
7.911,0.140,-0.025
7.914,0.170,-0.060
7.917,0.170,-0.080
7.919,0.170,-0.085
7.922,0.165,-0.085
7.925,0.190,-0.055
7.928,0.190,-0.045
7.931,0.190,-0.060
7.933,0.180,-0.080
7.936,0.160,-0.095
7.939,0.145,-0.085
7.942,0.155,-0.060
7.944,0.160,-0.035
7.947,0.140,-0.020
7.950,0.125,0.000
7.953,0.090,-0.025
7.956,0.065,-0.005
7.958,0.045,-0.010
7.961,0.030,-0.005
7.964,0.035,-0.025
7.967,0.025,-0.025
7.969,-0.005,-0.025
7.972,-0.055,-0.020
7.975,-0.065,0.015
7.978,-0.065,0.025
7.981,-0.115,0.030
7.983,-0.130,0.000
7.986,-0.160,-0.010
7.989,-0.170,0.000
7.992,-0.170,0.020
7.994,-0.160,0.045
7.997,-0.160,0.045
8.000,-0.175,0.030
8.003,-0.210,0.005
8.006,-0.220,0.010
8.008,-0.225,0.015
8.011,-0.220,0.015
8.014,-0.220,0.010
8.017,-0.225,0.005
8.019,-0.245,-0.005
8.022,-0.245,0.015
8.025,-0.230,0.020
8.028,-0.225,0.050
8.031,-0.220,0.060
8.033,-0.230,0.075
8.036,-0.240,0.060
8.039,-0.255,0.040
8.042,-0.240,0.015
8.044,-0.235,0.020
8.047,-0.225,0.020
8.050,-0.250,0.010
8.053,-0.255,0.000
8.056,-0.250,-0.005
8.058,-0.240,0.010
8.061,-0.225,0.025
8.064,-0.210,0.035
8.067,-0.215,0.065
8.069,-0.220,0.055
8.072,-0.225,0.045
8.075,-0.215,0.050
8.078,-0.195,0.060
8.081,-0.180,0.070
8.083,-0.180,0.055
8.086,-0.185,0.035
8.089,-0.210,0.060
8.092,-0.205,0.075
8.094,-0.195,0.080
8.097,-0.185,0.055
8.100,-0.155,0.055
8.103,-0.145,0.030
8.106,-0.145,0.020
8.108,-0.135,0.050
8.111,-0.135,0.045
8.114,-0.100,0.055
8.117,-0.120,0.025
8.119,-0.150,0.010
8.122,-0.175,0.025
8.125,-0.190,0.015
8.128,-0.180,0.025
8.131,-0.155,-0.010
8.133,-0.170,-0.040
8.136,-0.185,-0.040
8.139,-0.215,-0.035
8.142,-0.215,-0.015
8.144,-0.200,0.010
8.147,-0.195,-0.005
8.150,-0.200,-0.005
8.153,-0.215,-0.030
8.156,-0.210,-0.025
8.158,-0.205,0.010
8.161,-0.195,0.010
8.164,-0.200,0.015
8.167,-0.225,-0.010
8.169,-0.255,-0.010
8.172,-0.270,-0.010
8.175,-0.265,0.010
8.178,-0.245,0.050
8.181,-0.235,0.060
8.183,-0.255,0.035
8.186,-0.255,-0.010
8.189,-0.260,0.000
8.192,-0.255,0.035
8.194,-0.250,0.045
8.197,-0.235,0.060
8.200,-0.245,0.020
8.203,-0.235,-0.010
8.206,-0.240,-0.025
8.208,-0.255,-0.030
8.211,-0.240,-0.015
8.214,-0.230,-0.015
8.217,-0.235,-0.015
8.219,-0.250,-0.020
8.222,-0.255,-0.010
8.225,-0.245,0.020
8.228,-0.235,0.065
8.231,-0.210,0.060
8.233,-0.220,0.030
8.236,-0.235,-0.010
8.239,-0.250,-0.030
8.242,-0.235,0.000
8.244,-0.220,0.020
8.247,-0.230,0.035
8.250,-0.225,0.010
8.253,-0.240,0.005
8.256,-0.240,0.005
8.258,-0.235,0.015
8.261,-0.245,0.035
8.264,-0.230,0.050
8.267,-0.245,0.035
8.269,-0.275,0.015
8.272,-0.295,0.010
8.275,-0.290,0.030
8.278,-0.265,0.070
8.281,-0.220,0.050
8.283,-0.185,0.015
8.286,-0.130,-0.045
8.289,-0.045,-0.065
8.292,0.055,-0.065
8.294,0.175,-0.060
8.297,0.305,-0.120
8.300,0.420,-0.180
8.303,0.485,-0.250
8.306,0.535,-0.285
8.308,0.585,-0.300
8.311,0.600,-0.310
8.314,0.555,-0.315
8.317,0.425,-0.310
8.319,0.225,-0.305
8.322,-0.060,-0.270
8.325,-0.345,-0.245
8.328,-0.585,-0.195
8.331,-0.760,-0.155
8.333,-0.845,-0.125
8.336,-0.830,-0.110
8.339,-0.735,-0.055
8.342,-0.625,-0.015
8.344,-0.535,0.025
8.347,-0.460,0.025
8.350,-0.390,0.020
8.353,-0.350,-0.005
8.356,-0.315,-0.035
8.358,-0.285,-0.030
8.361,-0.250,0.000
8.364,-0.240,-0.005
8.367,-0.225,-0.020
8.369,-0.240,-0.035
8.372,-0.235,-0.025
8.375,-0.220,0.005
8.378,-0.190,0.010
8.381,-0.175,0.000
8.383,-0.190,-0.005
8.386,-0.190,-0.015
8.389,-0.195,-0.020
8.392,-0.180,-0.010
8.394,-0.155,-0.025
8.397,-0.150,-0.030
8.400,-0.160,-0.035
8.403,-0.165,-0.025
8.406,-0.170,0.005
8.408,-0.150,0.035
8.411,-0.130,0.055
8.414,-0.110,0.050
8.417,-0.105,0.005
8.419,-0.105,-0.050
8.422,-0.100,-0.075
8.425,-0.090,-0.070
8.428,-0.075,-0.045
8.431,-0.050,-0.040
8.433,-0.040,-0.030
8.436,-0.050,-0.055
8.439,-0.030,-0.040
8.442,-0.010,-0.035
8.444,0.015,-0.035
8.447,0.040,-0.065
8.450,0.050,-0.080
8.453,0.050,-0.075
8.456,0.065,-0.060
8.458,0.085,-0.045
8.461,0.115,-0.030
8.464,0.135,-0.065
8.467,0.140,-0.115
8.469,0.145,-0.140
8.472,0.145,-0.115
8.475,0.160,-0.110
8.478,0.180,-0.090
8.481,0.195,-0.100
8.483,0.210,-0.105
8.486,0.200,-0.105
8.489,0.185,-0.105
8.492,0.200,-0.105
8.494,0.225,-0.080
8.497,0.230,-0.070
8.500,0.220,-0.080
8.503,0.210,-0.100
8.506,0.195,-0.105
8.508,0.195,-0.080
8.511,0.215,-0.075
8.514,0.225,-0.085
8.517,0.215,-0.085
8.519,0.195,-0.085
8.522,0.175,-0.070
8.525,0.160,-0.055
8.528,0.160,-0.025
8.531,0.135,-0.040
8.533,0.120,-0.050
8.536,0.085,-0.065
8.539,0.065,-0.065
8.542,0.050,-0.040
8.544,0.050,-0.035
8.547,0.020,-0.055
8.550,0.000,-0.055
8.553,-0.040,-0.040
8.556,-0.070,-0.030
8.558,-0.090,-0.005
8.561,-0.100,0.025
8.564,-0.090,0.030
8.567,-0.110,0.020
8.569,-0.130,-0.015
8.572,-0.155,-0.030
8.575,-0.150,-0.015
8.578,-0.140,0.015
8.581,-0.140,-0.005
8.583,-0.155,-0.045
8.586,-0.165,-0.050
8.589,-0.190,-0.025
8.592,-0.190,-0.005
8.594,-0.165,0.005
8.597,-0.165,-0.015
8.600,-0.175,-0.025
8.603,-0.205,-0.035
8.606,-0.200,-0.015
8.608,-0.195,-0.010
8.611,-0.175,0.000
8.614,-0.170,-0.020
8.617,-0.165,-0.030
8.619,-0.190,-0.025
8.622,-0.215,-0.020
8.625,-0.205,0.010
8.628,-0.180,-0.010
8.631,-0.155,-0.015
8.633,-0.165,-0.020
8.636,-0.180,-0.025
8.639,-0.195,-0.020
8.642,-0.195,0.005
8.644,-0.175,0.010
8.647,-0.170,0.010
8.650,-0.160,0.000
8.653,-0.165,-0.035
8.656,-0.170,-0.050
8.658,-0.145,-0.005
8.661,-0.125,0.020
8.664,-0.145,0.005
8.667,-0.140,-0.015
8.669,-0.160,-0.030
8.672,-0.150,-0.005
8.675,-0.140,0.010
8.678,-0.105,0.035
8.681,-0.075,0.060
8.683,-0.070,0.035
8.686,-0.090,0.010
8.689,-0.100,-0.005
8.692,-0.095,0.010
8.694,-0.090,0.000
8.697,-0.085,-0.030
8.700,-0.095,-0.050
8.703,-0.120,-0.090
8.706,-0.150,-0.070
8.708,-0.145,-0.045
8.711,-0.130,-0.020
8.714,-0.140,-0.025
8.717,-0.140,-0.030
8.719,-0.155,-0.030
8.722,-0.175,-0.020
8.725,-0.180,0.015
8.728,-0.165,0.030
8.731,-0.150,0.005
8.733,-0.150,-0.045
8.736,-0.150,-0.080
8.739,-0.160,-0.060
8.742,-0.185,-0.030
8.744,-0.160,-0.010
8.747,-0.150,-0.010
8.750,-0.155,-0.025
8.753,-0.160,-0.060
8.756,-0.185,-0.055
8.758,-0.170,-0.050
8.761,-0.175,-0.015
8.764,-0.155,-0.015
8.767,-0.160,-0.030
8.769,-0.180,-0.060
8.772,-0.180,-0.070
8.775,-0.175,-0.065
8.778,-0.160,-0.050
8.781,-0.130,-0.040
8.783,-0.145,-0.060
8.786,-0.165,-0.055
8.789,-0.165,-0.035
8.792,-0.150,-0.005
8.794,-0.140,-0.005
8.797,-0.140,0.010
8.800,-0.145,-0.025
8.803,-0.155,-0.060
8.806,-0.175,-0.065
8.808,-0.160,-0.090
8.811,-0.145,-0.055
8.814,-0.130,-0.040
8.817,-0.135,-0.045
8.819,-0.155,-0.035
8.822,-0.160,-0.045
8.825,-0.150,-0.030
8.828,-0.130,-0.035
8.831,-0.125,-0.050
8.833,-0.140,-0.065
8.836,-0.150,-0.060
8.839,-0.170,-0.050
8.842,-0.160,-0.045
8.844,-0.130,-0.025
8.847,-0.135,-0.015
8.850,-0.160,-0.040
8.853,-0.190,-0.020
8.856,-0.220,0.010
8.858,-0.190,0.065
8.861,-0.105,0.075
8.864,0.020,0.045
8.867,0.160,-0.035
8.869,0.280,-0.145
8.872,0.410,-0.195
8.875,0.555,-0.220
8.878,0.695,-0.215
8.881,0.795,-0.250
8.883,0.875,-0.330
8.886,0.925,-0.420
8.889,0.925,-0.470
8.892,0.865,-0.490
8.894,0.755,-0.465
8.897,0.595,-0.475
8.900,0.315,-0.455
8.903,-0.010,-0.415
8.906,-0.315,-0.370
8.908,-0.555,-0.320
8.911,-0.700,-0.245
8.914,-0.730,-0.185
8.917,-0.680,-0.105
8.919,-0.610,-0.060
8.922,-0.525,-0.030
8.925,-0.430,-0.015
8.928,-0.330,-0.005
8.931,-0.255,-0.035
8.933,-0.225,-0.050
8.936,-0.205,-0.050
8.939,-0.195,-0.045
8.942,-0.175,-0.020
8.944,-0.140,-0.010
8.947,-0.120,-0.010
8.950,-0.115,-0.015
8.953,-0.130,-0.025
8.956,-0.125,-0.025
8.958,-0.115,-0.015
8.961,-0.095,-0.005
8.964,-0.090,0.000
8.967,-0.085,-0.015
8.969,-0.095,-0.050
8.972,-0.105,-0.040
8.975,-0.100,-0.010
8.978,-0.100,0.035
8.981,-0.080,0.025
8.983,-0.080,0.010
8.986,-0.080,-0.035
8.989,-0.085,-0.055
8.992,-0.055,-0.045
8.994,-0.045,-0.020
8.997,-0.025,-0.030
9.000,-0.025,-0.065
9.003,-0.020,-0.060
9.006,-0.010,-0.065
9.008,-0.005,-0.055
9.011,0.020,-0.030
9.014,0.035,-0.040
9.017,0.040,-0.035
9.019,0.035,-0.060
9.022,0.030,-0.070
9.025,0.060,-0.070
9.028,0.090,-0.045
9.031,0.110,-0.050
9.033,0.120,-0.065
9.036,0.125,-0.080
9.039,0.135,-0.075
9.042,0.155,-0.060
9.044,0.185,-0.040
9.047,0.210,-0.050
9.050,0.215,-0.035
9.053,0.200,-0.050
9.056,0.215,-0.060
9.058,0.235,-0.090
9.061,0.250,-0.080
9.064,0.280,-0.075
9.067,0.285,-0.100
9.069,0.285,-0.125
9.072,0.275,-0.135
9.075,0.280,-0.125
9.078,0.310,-0.110
9.081,0.325,-0.110
9.083,0.325,-0.110
9.086,0.305,-0.130
9.089,0.285,-0.125
9.092,0.295,-0.100
9.094,0.295,-0.080
9.097,0.300,-0.075
9.100,0.285,-0.090
9.103,0.250,-0.105
9.106,0.235,-0.110
9.108,0.230,-0.105
9.111,0.210,-0.065
9.114,0.190,-0.035
9.117,0.165,-0.050
9.119,0.130,-0.035
9.122,0.100,-0.045
9.125,0.090,-0.040
9.128,0.075,-0.025
9.131,0.070,-0.015
9.133,0.040,-0.030
9.136,0.025,-0.025
9.139,-0.005,-0.005
9.142,-0.020,0.010
9.144,-0.015,0.015
9.147,-0.025,0.015
9.150,-0.050,-0.010
9.153,-0.055,-0.015
9.156,-0.070,-0.005
9.158,-0.070,-0.015
9.161,-0.055,-0.010
9.164,-0.050,-0.005
9.167,-0.065,-0.030
9.169,-0.085,-0.035
9.172,-0.120,-0.005
9.175,-0.110,0.000
9.178,-0.105,0.025
9.181,-0.090,0.015
9.183,-0.105,0.000
9.186,-0.130,-0.010
9.189,-0.115,0.005
9.192,-0.120,0.015
9.194,-0.100,0.055
9.197,-0.100,0.050
9.200,-0.105,0.010
9.203,-0.125,-0.035
9.206,-0.120,-0.045
9.208,-0.110,-0.010
9.211,-0.085,0.030
9.214,-0.070,0.025
9.217,-0.070,0.005
9.219,-0.075,-0.005
9.222,-0.075,0.005
9.225,-0.085,0.050
9.228,-0.070,0.110
9.231,-0.055,0.090
9.233,-0.050,0.060
9.236,-0.070,0.040
9.239,-0.075,0.045
9.242,-0.055,0.045
9.244,-0.020,0.060
9.247,0.005,0.065
9.250,0.005,0.050
9.253,-0.015,0.030
9.256,-0.020,0.015
9.258,-0.020,-0.005
9.261,-0.040,-0.005
9.264,-0.050,-0.020
9.267,-0.065,-0.035
9.269,-0.075,-0.025
9.272,-0.105,-0.045
9.275,-0.105,-0.005
9.278,-0.085,0.025
9.281,-0.070,-0.005
9.283,-0.080,-0.020
9.286,-0.110,-0.040
9.289,-0.140,-0.035
9.292,-0.130,-0.005
9.294,-0.115,0.025
9.297,-0.095,0.035
9.300,-0.110,0.030
9.303,-0.145,0.020
9.306,-0.175,0.020
9.308,-0.190,0.005
9.311,-0.195,0.020
9.314,-0.185,0.040
9.317,-0.180,0.045
9.319,-0.180,0.025
9.322,-0.190,0.000
9.325,-0.180,0.000
9.328,-0.150,0.005
9.331,-0.135,-0.025
9.333,-0.135,-0.035
9.336,-0.150,-0.035
9.339,-0.170,-0.030
9.342,-0.180,-0.010
9.344,-0.160,0.005
9.347,-0.155,-0.005
9.350,-0.160,0.015
9.353,-0.180,0.035
9.356,-0.210,0.055
9.358,-0.205,0.075
9.361,-0.180,0.060
9.364,-0.160,0.030
9.367,-0.155,-0.015
9.369,-0.165,-0.005
9.372,-0.155,-0.015
9.375,-0.155,-0.030
9.378,-0.150,-0.055
9.381,-0.155,-0.080
9.383,-0.155,-0.065
9.386,-0.180,-0.040
9.389,-0.170,-0.005
9.392,-0.165,0.025
9.394,-0.150,0.020
9.397,-0.135,0.015
9.400,-0.160,0.025
9.403,-0.190,0.020
9.406,-0.190,0.025
9.408,-0.190,0.030
9.411,-0.170,0.035
9.414,-0.165,0.050
9.417,-0.155,0.060
9.419,-0.135,0.040
9.422,-0.075,0.015
9.425,0.050,0.015
9.428,0.190,-0.025
9.431,0.315,-0.045
9.433,0.440,-0.095
9.436,0.580,-0.170
9.439,0.685,-0.245
9.442,0.750,-0.300
9.444,0.795,-0.355
9.447,0.770,-0.395
9.450,0.640,-0.405
9.453,0.475,-0.430
9.456,0.225,-0.455
9.458,-0.105,-0.390
9.461,-0.450,-0.260
9.464,-0.715,-0.180
9.467,-0.825,-0.115
9.469,-0.780,-0.070
9.472,-0.655,-0.060
9.475,-0.540,-0.065
9.478,-0.460,-0.075
9.481,-0.375,-0.040
9.483,-0.315,-0.030
9.486,-0.265,-0.035
9.489,-0.210,-0.055
9.492,-0.185,-0.045
9.494,-0.165,0.010
9.497,-0.175,0.030
9.500,-0.160,0.040
9.503,-0.140,0.000
9.506,-0.160,0.010
9.508,-0.150,-0.005
9.511,-0.155,-0.015
9.514,-0.145,-0.015
9.517,-0.150,-0.020
9.519,-0.145,0.010
9.522,-0.155,0.000
9.525,-0.135,0.025
9.528,-0.110,0.030
9.531,-0.085,0.030
9.533,-0.070,0.025
9.536,-0.085,0.010
9.539,-0.070,-0.025
9.542,-0.060,-0.065
9.544,-0.050,-0.045
9.547,-0.050,-0.025
9.550,-0.070,-0.015
9.553,-0.080,-0.035
9.556,-0.080,-0.055
9.558,-0.060,-0.050
9.561,-0.020,-0.030
9.564,0.010,-0.025
9.567,0.005,-0.015
9.569,0.005,-0.025
9.572,0.010,-0.040
9.575,0.050,-0.030
9.578,0.070,-0.010
9.581,0.105,-0.025
9.583,0.110,-0.045
9.586,0.105,-0.075
9.589,0.105,-0.055
9.592,0.115,0.000
9.594,0.130,0.035
9.597,0.165,-0.020
9.600,0.200,-0.115
9.603,0.200,-0.155
9.606,0.185,-0.135
9.608,0.195,-0.080
9.611,0.215,-0.045
9.614,0.210,-0.060
9.617,0.225,-0.065
9.619,0.230,-0.060
9.622,0.225,-0.060
9.625,0.235,-0.075
9.628,0.265,-0.110
9.631,0.280,-0.135
9.633,0.260,-0.145
9.636,0.235,-0.110
9.639,0.220,-0.065
9.642,0.220,-0.030
9.644,0.225,0.000
9.647,0.260,-0.015
9.650,0.250,-0.085
9.653,0.220,-0.160
9.656,0.210,-0.155
9.658,0.200,-0.105
9.661,0.185,-0.070
9.664,0.140,-0.040
9.667,0.100,-0.025
9.669,0.070,-0.040
9.672,0.040,-0.045
9.675,0.005,-0.040
9.678,0.015,-0.030
9.681,0.005,-0.040
9.683,-0.020,-0.050
9.686,-0.050,-0.060
9.689,-0.065,-0.045
9.692,-0.075,-0.015
9.694,-0.080,0.000
9.697,-0.085,0.000
9.700,-0.090,0.025
9.703,-0.140,0.040
9.706,-0.180,0.095
9.708,-0.180,0.125
9.711,-0.160,0.125
9.714,-0.130,0.045
9.717,-0.120,-0.035
9.719,-0.125,-0.080
9.722,-0.160,-0.075
9.725,-0.180,-0.035
9.728,-0.180,0.000
9.731,-0.175,0.035
9.733,-0.180,0.040
9.736,-0.195,0.025
9.739,-0.190,0.020
9.742,-0.220,0.030
9.744,-0.200,0.050
9.747,-0.195,0.030
9.750,-0.190,-0.025
9.753,-0.180,-0.060
9.756,-0.190,-0.055
9.758,-0.200,-0.040
9.761,-0.190,-0.010
9.764,-0.190,-0.035
9.767,-0.195,-0.035
9.769,-0.205,-0.040
9.772,-0.215,-0.015
9.775,-0.215,-0.010
9.778,-0.190,0.020
9.781,-0.180,0.010
9.783,-0.170,-0.025
9.786,-0.190,-0.020
9.789,-0.210,-0.005
9.792,-0.190,0.020
9.794,-0.160,0.015
9.797,-0.160,-0.010
9.800,-0.155,-0.005
9.803,-0.175,0.005
9.806,-0.180,0.020
9.808,-0.180,0.050
9.811,-0.185,0.060
9.814,-0.165,0.050
9.817,-0.150,0.015
9.819,-0.145,-0.030
9.822,-0.135,-0.035
9.825,-0.115,-0.010
9.828,-0.095,0.010
9.831,-0.105,-0.010
9.833,-0.105,0.005
9.836,-0.130,0.010
9.839,-0.155,-0.010
9.842,-0.175,-0.020
9.844,-0.160,-0.030
9.847,-0.165,-0.060
9.850,-0.180,-0.070
9.853,-0.205,-0.070
9.856,-0.240,-0.065
9.858,-0.225,-0.060
9.861,-0.200,-0.035
9.864,-0.175,-0.005
9.867,-0.210,0.005
9.869,-0.230,-0.005
9.872,-0.220,-0.005
9.875,-0.185,0.000
9.878,-0.205,0.035
9.881,-0.220,0.030
9.883,-0.235,-0.015
9.886,-0.255,-0.060
9.889,-0.260,-0.065
9.892,-0.250,-0.035
9.894,-0.240,-0.020
9.897,-0.215,-0.030
9.900,-0.220,-0.045
9.903,-0.240,-0.050
9.906,-0.245,-0.025
9.908,-0.245,-0.030
9.911,-0.235,-0.020
9.914,-0.215,-0.035
9.917,-0.225,-0.030
9.919,-0.240,-0.020
9.922,-0.250,-0.020
9.925,-0.250,-0.005
9.928,-0.250,0.035
9.931,-0.245,0.045
9.933,-0.260,0.030
9.936,-0.280,-0.015
9.939,-0.260,-0.070
9.942,-0.230,-0.080
9.944,-0.225,-0.045
9.947,-0.240,0.010
9.950,-0.245,-0.005
9.953,-0.250,-0.020
9.956,-0.265,-0.040
9.958,-0.240,-0.020
9.961,-0.230,0.005
9.964,-0.255,-0.005
9.967,-0.255,-0.015
9.969,-0.265,-0.035
9.972,-0.280,-0.045
9.975,-0.270,-0.040
9.978,-0.245,0.005
9.981,-0.255,0.025
9.983,-0.275,0.040
9.986,-0.285,0.030
9.989,-0.280,0.040
9.992,-0.245,0.040
9.994,-0.175,0.030
9.997,-0.070,-0.025
10.000,0.045,-0.070
10.003,0.145,-0.170
10.006,0.275,-0.225
10.008,0.405,-0.255
10.011,0.530,-0.260
10.014,0.620,-0.310
10.017,0.680,-0.370
10.019,0.660,-0.430
10.022,0.545,-0.435
10.025,0.360,-0.415
10.028,0.115,-0.355
10.031,-0.180,-0.305
10.033,-0.500,-0.285
10.036,-0.755,-0.285
10.039,-0.890,-0.230
10.042,-0.880,-0.165
10.044,-0.760,-0.085
10.047,-0.635,-0.040
10.050,-0.550,-0.025
10.053,-0.490,-0.025
10.056,-0.440,-0.030
10.058,-0.380,-0.025
10.061,-0.340,-0.010
10.064,-0.305,-0.015
10.067,-0.275,-0.030
10.069,-0.255,-0.050
10.072,-0.230,-0.060
10.075,-0.230,-0.035
10.078,-0.210,-0.015
10.081,-0.215,-0.035
10.083,-0.220,-0.070
10.086,-0.240,-0.080
10.089,-0.245,-0.045
10.092,-0.235,-0.005
10.094,-0.200,0.035
10.097,-0.175,-0.005
10.100,-0.175,-0.020
10.103,-0.185,-0.035
10.106,-0.185,-0.030
10.108,-0.155,-0.030
10.111,-0.140,-0.035
10.114,-0.130,-0.080
10.117,-0.125,-0.105
10.119,-0.150,-0.110
10.122,-0.115,-0.085
10.125,-0.085,-0.045
10.128,-0.055,-0.030
10.131,-0.055,-0.045
10.133,-0.050,-0.060
10.136,-0.035,-0.070
10.139,-0.020,-0.055
10.142,-0.010,-0.050
10.144,0.030,-0.030
10.147,0.030,-0.055
10.150,0.040,-0.075
10.153,0.040,-0.090
10.156,0.050,-0.095
10.158,0.080,-0.080
10.161,0.115,-0.055
10.164,0.135,-0.025
10.167,0.140,-0.025
10.169,0.145,-0.055
10.172,0.150,-0.080
10.175,0.175,-0.085
10.178,0.185,-0.065
10.181,0.200,-0.045
10.183,0.185,-0.045
10.186,0.185,-0.090
10.189,0.195,-0.130
10.192,0.220,-0.100
10.194,0.230,-0.070
10.197,0.215,-0.080
10.200,0.200,-0.080
10.203,0.190,-0.080
10.206,0.170,-0.040
10.208,0.165,-0.010
10.211,0.165,0.020
10.214,0.165,-0.020
10.217,0.160,-0.075
10.219,0.140,-0.140
10.222,0.115,-0.130
10.225,0.100,-0.075
10.228,0.085,-0.020
10.231,0.055,-0.010
10.233,0.030,-0.015
10.236,-0.025,-0.030
10.239,-0.055,-0.015
10.242,-0.060,0.005
10.244,-0.040,0.050
10.247,-0.060,0.025
10.250,-0.090,-0.010
10.253,-0.105,-0.035
10.256,-0.125,-0.040
10.258,-0.140,-0.015
10.261,-0.130,-0.015
10.264,-0.140,-0.005
10.267,-0.155,0.000
10.269,-0.185,0.000
10.272,-0.185,0.005
10.275,-0.185,0.035
10.278,-0.185,0.035
10.281,-0.180,0.010
10.283,-0.180,-0.020
10.286,-0.185,-0.015
10.289,-0.200,-0.025
10.292,-0.210,-0.005
10.294,-0.185,0.030
10.297,-0.180,0.030
10.300,-0.195,0.020
10.303,-0.215,0.015
10.306,-0.215,0.025
10.308,-0.210,0.060
10.311,-0.195,0.075
10.314,-0.190,0.045
10.317,-0.200,0.035
10.319,-0.215,0.040
10.322,-0.220,0.050
10.325,-0.200,0.070
10.328,-0.170,0.055
10.331,-0.155,0.040
10.333,-0.155,0.025
10.336,-0.180,0.040
10.339,-0.185,0.050
10.342,-0.185,0.085
10.344,-0.155,0.115
10.347,-0.130,0.115
10.350,-0.130,0.090
10.353,-0.125,0.075
10.356,-0.135,0.050
10.358,-0.115,0.010
10.361,-0.090,-0.020
10.364,-0.085,-0.015
10.367,-0.115,0.000
10.369,-0.160,-0.005
10.372,-0.185,0.005
10.375,-0.190,0.040
10.378,-0.180,0.080
10.381,-0.185,0.085
10.383,-0.195,0.065
10.386,-0.210,0.080
10.389,-0.210,0.085
10.392,-0.205,0.060
10.394,-0.190,0.020
10.397,-0.190,0.010
10.400,-0.195,0.030
10.403,-0.230,0.070
10.406,-0.250,0.075
10.408,-0.250,0.045
10.411,-0.220,0.020
10.414,-0.205,0.030
10.417,-0.225,0.025
10.419,-0.230,0.030
10.422,-0.245,0.055
10.425,-0.245,0.095
10.428,-0.225,0.090
10.431,-0.220,0.075
10.433,-0.220,0.005
10.436,-0.230,-0.020
10.439,-0.240,0.005
10.442,-0.235,0.050
10.444,-0.210,0.075
10.447,-0.190,0.060
10.450,-0.185,0.045
10.453,-0.180,0.020
10.456,-0.195,0.015
10.458,-0.215,0.035
10.461,-0.210,0.050
10.464,-0.220,0.030
10.467,-0.225,0.020
10.469,-0.240,0.035
10.472,-0.260,0.050
10.475,-0.245,0.075
10.478,-0.230,0.110
10.481,-0.220,0.105
10.483,-0.220,0.050
10.486,-0.220,0.025
10.489,-0.230,0.035
10.492,-0.215,0.095
10.494,-0.210,0.110
10.497,-0.210,0.070
10.500,-0.230,0.060
10.503,-0.245,0.090
10.506,-0.200,0.140
10.508,-0.095,0.140
10.511,0.070,0.070
10.514,0.215,-0.025
10.517,0.360,-0.090
10.519,0.495,-0.130
10.522,0.615,-0.180
10.525,0.710,-0.235
10.528,0.775,-0.285
10.531,0.750,-0.345
10.533,0.610,-0.390
10.536,0.410,-0.405
10.539,0.125,-0.370
10.542,-0.240,-0.275
10.544,-0.575,-0.195
10.547,-0.810,-0.135
10.550,-0.880,-0.095
10.553,-0.810,-0.020
10.556,-0.675,0.060
10.558,-0.545,0.090
10.561,-0.440,0.095
10.564,-0.355,0.070
10.567,-0.300,0.030
10.569,-0.260,0.005
10.572,-0.260,0.000
10.575,-0.240,0.035
10.578,-0.200,0.060
10.581,-0.195,0.065
10.583,-0.190,0.040
10.586,-0.195,0.025
10.589,-0.195,0.040
10.592,-0.175,0.070
10.594,-0.155,0.090
10.597,-0.145,0.105
10.600,-0.155,0.100
10.603,-0.170,0.080
10.606,-0.160,0.085
10.608,-0.150,0.100
10.611,-0.120,0.125
10.614,-0.095,0.130
10.617,-0.110,0.110
10.619,-0.110,0.080
10.622,-0.095,0.065
10.625,-0.095,0.100
10.628,-0.075,0.135
10.631,-0.055,0.130
10.633,-0.030,0.085
10.636,-0.030,0.045
10.639,-0.020,0.005
10.642,0.015,0.015
10.644,0.040,0.035
10.647,0.050,0.030
10.650,0.040,0.050
10.653,0.040,0.045
10.656,0.055,0.050
10.658,0.100,0.065
10.661,0.125,0.070
10.664,0.150,0.045
10.667,0.165,0.015
10.669,0.185,0.005
10.672,0.170,0.000
10.675,0.175,0.030
10.678,0.195,0.030
10.681,0.215,0.015
10.683,0.235,-0.005
10.686,0.230,-0.015
10.689,0.220,0.005
10.692,0.230,0.020
10.694,0.255,0.035
10.697,0.270,0.035
10.700,0.240,0.040
10.703,0.195,0.035
10.706,0.190,0.020
10.708,0.215,0.035
10.711,0.225,0.035
10.714,0.215,0.010
10.717,0.180,0.010
10.719,0.145,0.020
10.722,0.145,0.035
10.725,0.140,0.045
10.728,0.125,0.065
10.731,0.095,0.075
10.733,0.050,0.075
10.736,0.005,0.065
10.739,-0.005,0.055
10.742,-0.015,0.050
10.744,-0.025,0.070
10.747,-0.030,0.065
10.750,-0.070,0.075
10.753,-0.110,0.075
10.756,-0.125,0.100
10.758,-0.115,0.125
10.761,-0.115,0.125
10.764,-0.125,0.135
10.767,-0.140,0.085
10.769,-0.170,0.090
10.772,-0.165,0.095
10.775,-0.160,0.085
10.778,-0.170,0.125
10.781,-0.185,0.120
10.783,-0.190,0.115
10.786,-0.185,0.100
10.789,-0.185,0.100
10.792,-0.180,0.115
10.794,-0.160,0.135
10.797,-0.155,0.105
10.800,-0.165,0.080
10.803,-0.190,0.065
10.806,-0.180,0.090
10.808,-0.180,0.100
10.811,-0.190,0.115
10.814,-0.195,0.110
10.817,-0.190,0.095
10.819,-0.200,0.100
10.822,-0.205,0.115
10.825,-0.190,0.130
10.828,-0.160,0.135
10.831,-0.155,0.115
10.833,-0.165,0.135
10.836,-0.170,0.150
10.839,-0.165,0.140
10.842,-0.155,0.145
10.844,-0.125,0.145
10.847,-0.115,0.150
10.850,-0.135,0.155
10.853,-0.135,0.160
10.856,-0.125,0.165
10.858,-0.100,0.170
10.861,-0.070,0.180
10.864,-0.050,0.155
10.867,-0.055,0.135
10.869,-0.090,0.120
10.872,-0.120,0.110
10.875,-0.130,0.115
10.878,-0.145,0.140
10.881,-0.150,0.125
10.883,-0.190,0.085
10.886,-0.210,0.065
10.889,-0.205,0.060
10.892,-0.195,0.105
10.894,-0.170,0.105
10.897,-0.160,0.095
10.900,-0.160,0.090
10.903,-0.165,0.085
10.906,-0.180,0.075
10.908,-0.195,0.075
10.911,-0.185,0.095
10.914,-0.190,0.105
10.917,-0.210,0.075
10.919,-0.225,0.050
10.922,-0.230,0.060
10.925,-0.235,0.085
10.928,-0.225,0.120
10.931,-0.235,0.115
10.933,-0.240,0.110
10.936,-0.250,0.065
10.939,-0.235,0.090
10.942,-0.210,0.110
10.944,-0.210,0.125
10.947,-0.210,0.100
10.950,-0.215,0.070
10.953,-0.230,0.070
10.956,-0.235,0.090
10.958,-0.225,0.115
10.961,-0.200,0.145
10.964,-0.175,0.135
10.967,-0.190,0.115
10.969,-0.210,0.075
10.972,-0.205,0.065
10.975,-0.180,0.090
10.978,-0.180,0.095
10.981,-0.190,0.135
10.983,-0.210,0.140
10.986,-0.240,0.110
10.989,-0.245,0.070
10.992,-0.255,0.045
10.994,-0.240,0.080
10.997,-0.230,0.095
11.000,-0.240,0.100
11.003,-0.250,0.100
11.006,-0.260,0.100
11.008,-0.265,0.165
11.011,-0.245,0.205
11.014,-0.190,0.170
11.017,-0.085,0.105
11.019,0.025,0.030
11.022,0.155,-0.005
11.025,0.310,-0.075
11.028,0.470,-0.120
11.031,0.595,-0.190
11.033,0.650,-0.270
11.036,0.645,-0.315
11.039,0.570,-0.330
11.042,0.435,-0.305
11.044,0.260,-0.275
11.047,-0.020,-0.240
11.050,-0.365,-0.165
11.053,-0.685,-0.140
11.056,-0.870,-0.115
11.058,-0.885,-0.060
11.061,-0.750,0.050
11.064,-0.610,0.130
11.067,-0.515,0.130
11.069,-0.455,0.065
11.072,-0.390,0.075
11.075,-0.300,0.045
11.078,-0.240,0.055
11.081,-0.225,0.065
11.083,-0.220,0.075
11.086,-0.220,0.055
11.089,-0.210,0.060
11.092,-0.190,0.070
11.094,-0.175,0.110
11.097,-0.160,0.110
11.100,-0.180,0.085
11.103,-0.185,0.055
11.106,-0.190,0.035
11.108,-0.175,0.060
11.111,-0.150,0.075
11.114,-0.115,0.080
11.117,-0.115,0.060
11.119,-0.125,0.035
11.122,-0.130,0.020
11.125,-0.105,0.025
11.128,-0.090,0.060
11.131,-0.070,0.075
11.133,-0.065,0.060
11.136,-0.080,0.045
11.139,-0.075,0.050
11.142,-0.055,0.090
11.144,-0.040,0.105
11.147,-0.015,0.100
11.150,-0.005,0.065
11.153,0.005,0.030
11.156,0.015,-0.010
11.158,0.050,0.015
11.161,0.080,0.035
11.164,0.105,0.025
11.167,0.120,0.015
11.169,0.120,-0.005
11.172,0.130,0.010
11.175,0.155,-0.005
11.178,0.190,0.015
11.181,0.190,0.050
11.183,0.175,0.055
11.186,0.185,0.010
11.189,0.190,-0.050
11.192,0.215,-0.065
11.194,0.245,-0.035
11.197,0.235,-0.005
11.200,0.230,-0.005
11.203,0.205,-0.015
11.206,0.205,-0.030
11.208,0.225,-0.025
11.211,0.235,0.005
11.214,0.235,-0.015
11.217,0.200,-0.050
11.219,0.155,-0.015
11.222,0.115,0.020
11.225,0.095,0.045
11.228,0.095,0.040
11.231,0.090,0.050
11.233,0.075,0.045
11.236,0.035,0.070
11.239,0.010,0.095
11.242,-0.020,0.085
11.244,-0.035,0.055
11.247,-0.050,0.045
11.250,-0.080,0.060
11.253,-0.105,0.080
11.256,-0.115,0.075
11.258,-0.125,0.070
11.261,-0.135,0.075
11.264,-0.145,0.075
11.267,-0.150,0.070
11.269,-0.200,0.080
11.272,-0.235,0.105
11.275,-0.225,0.125
11.278,-0.205,0.145
11.281,-0.185,0.090
11.283,-0.185,0.025
11.286,-0.195,-0.010
11.289,-0.205,0.035
11.292,-0.205,0.055
11.294,-0.180,0.070
11.297,-0.180,0.070
11.300,-0.185,0.095
11.303,-0.215,0.095
11.306,-0.220,0.070
11.308,-0.210,0.035
11.311,-0.165,0.025
11.314,-0.160,0.040
11.317,-0.170,0.035
11.319,-0.185,0.025
11.322,-0.185,0.030
11.325,-0.190,0.055
11.328,-0.190,0.075
11.331,-0.200,0.065
11.333,-0.190,0.045
11.336,-0.190,0.045
11.339,-0.195,0.075
11.342,-0.175,0.110
11.344,-0.160,0.135
11.347,-0.170,0.160
11.350,-0.185,0.180
11.353,-0.175,0.160
11.356,-0.155,0.105
11.358,-0.125,0.055
11.361,-0.090,0.035
11.364,-0.110,0.050
11.367,-0.110,0.080
11.369,-0.125,0.085
11.372,-0.135,0.095
11.375,-0.135,0.075
11.378,-0.140,0.055
11.381,-0.140,0.035
11.383,-0.135,-0.025
11.386,-0.125,-0.075
11.389,-0.155,-0.100
11.392,-0.195,-0.055
11.394,-0.215,-0.010
11.397,-0.215,0.020
11.400,-0.195,0.030
11.403,-0.200,0.020
11.406,-0.185,-0.015
11.408,-0.175,-0.025
11.411,-0.185,-0.020
11.414,-0.205,-0.020
11.417,-0.215,-0.005
11.419,-0.235,-0.030
11.422,-0.235,-0.035
11.425,-0.220,-0.025
11.428,-0.225,-0.015
11.431,-0.230,0.000
11.433,-0.245,-0.020
11.436,-0.255,-0.025
11.439,-0.260,-0.025
11.442,-0.265,0.015
11.444,-0.255,0.025
11.447,-0.235,0.010
11.450,-0.240,0.000
11.453,-0.270,-0.030
11.456,-0.270,-0.060
11.458,-0.250,-0.070
11.461,-0.235,-0.025
11.464,-0.230,0.015
11.467,-0.250,0.015
11.469,-0.270,-0.010
11.472,-0.270,-0.035
11.475,-0.250,-0.055
11.478,-0.240,-0.050
11.481,-0.225,-0.030
11.483,-0.225,-0.045
11.486,-0.240,-0.080
11.489,-0.235,-0.110
11.492,-0.235,-0.070
11.494,-0.235,-0.050
11.497,-0.225,-0.080
11.500,-0.235,-0.095
11.503,-0.250,-0.115
11.506,-0.260,-0.085
11.508,-0.250,-0.070
11.511,-0.235,-0.040
11.514,-0.230,-0.015
11.517,-0.220,0.000
11.519,-0.150,-0.030
11.522,-0.040,-0.075
11.525,0.080,-0.110
11.528,0.205,-0.140
11.531,0.335,-0.210
11.533,0.440,-0.315
11.536,0.510,-0.425
11.539,0.545,-0.505
11.542,0.525,-0.535
11.544,0.450,-0.495
11.547,0.325,-0.445
11.550,0.070,-0.430
11.553,-0.225,-0.420
11.556,-0.515,-0.350
11.558,-0.735,-0.265
11.561,-0.830,-0.190
11.564,-0.775,-0.120
11.567,-0.660,-0.100
11.569,-0.565,-0.095
11.572,-0.490,-0.075
11.575,-0.415,-0.075
11.578,-0.355,-0.135
11.581,-0.320,-0.160
11.583,-0.275,-0.145
11.586,-0.270,-0.115
11.589,-0.245,-0.110
11.592,-0.230,-0.085
11.594,-0.215,-0.090
11.597,-0.225,-0.110
11.600,-0.230,-0.125
11.603,-0.235,-0.125
11.606,-0.225,-0.110
11.608,-0.200,-0.100
11.611,-0.165,-0.105
11.614,-0.160,-0.130
11.617,-0.145,-0.135
11.619,-0.165,-0.145
11.622,-0.165,-0.120
11.625,-0.165,-0.135
11.628,-0.145,-0.115
11.631,-0.135,-0.100
11.633,-0.130,-0.090
11.636,-0.110,-0.110
11.639,-0.110,-0.140
11.642,-0.080,-0.180
11.644,-0.065,-0.155
11.647,-0.050,-0.170
11.650,-0.050,-0.165
11.653,-0.045,-0.195
11.656,-0.045,-0.210
11.658,0.000,-0.220
11.661,0.035,-0.185
11.664,0.070,-0.140
11.667,0.065,-0.100
11.669,0.065,-0.100
11.672,0.095,-0.125
11.675,0.120,-0.205
11.678,0.125,-0.230
11.681,0.090,-0.210
11.683,0.075,-0.200
11.686,0.075,-0.205
11.689,0.120,-0.210
11.692,0.130,-0.220
11.694,0.160,-0.230
11.697,0.175,-0.210
11.700,0.160,-0.205
11.703,0.135,-0.205
11.706,0.155,-0.205
11.708,0.170,-0.200
11.711,0.200,-0.200
11.714,0.215,-0.225
11.717,0.200,-0.225
11.719,0.175,-0.245
11.722,0.140,-0.230
11.725,0.120,-0.215
11.728,0.145,-0.190
11.731,0.160,-0.190
11.733,0.155,-0.225
11.736,0.105,-0.240
11.739,0.070,-0.260
11.742,0.055,-0.235
11.744,0.055,-0.195
11.747,0.020,-0.170
11.750,-0.005,-0.185
11.753,-0.030,-0.205
11.756,-0.050,-0.200
11.758,-0.070,-0.155
11.761,-0.080,-0.120
11.764,-0.105,-0.125
11.767,-0.125,-0.160
11.769,-0.140,-0.215
11.772,-0.135,-0.245
11.775,-0.135,-0.200
11.778,-0.150,-0.120
11.781,-0.165,-0.070
11.783,-0.175,-0.115
11.786,-0.180,-0.215
11.789,-0.185,-0.240
11.792,-0.180,-0.220
11.794,-0.175,-0.190
11.797,-0.170,-0.190
11.800,-0.175,-0.215
11.803,-0.195,-0.225
11.806,-0.210,-0.205
11.808,-0.210,-0.200
11.811,-0.215,-0.190
11.814,-0.215,-0.195
11.817,-0.220,-0.200
11.819,-0.220,-0.165
11.822,-0.235,-0.115
11.825,-0.205,-0.050
11.828,-0.190,-0.075
11.831,-0.185,-0.140
11.833,-0.205,-0.195
11.836,-0.230,-0.240
11.839,-0.225,-0.245
11.842,-0.205,-0.225
11.844,-0.210,-0.195
11.847,-0.190,-0.185
11.850,-0.200,-0.170
11.853,-0.200,-0.175
11.856,-0.200,-0.185
11.858,-0.190,-0.170
11.861,-0.180,-0.140
11.864,-0.200,-0.155
11.867,-0.205,-0.160
11.869,-0.210,-0.155
11.872,-0.180,-0.150
11.875,-0.160,-0.140
11.878,-0.130,-0.120
11.881,-0.135,-0.120
11.883,-0.150,-0.110
11.886,-0.155,-0.115
11.889,-0.140,-0.140
11.892,-0.125,-0.185
11.894,-0.090,-0.210
11.897,-0.085,-0.235
11.900,-0.105,-0.270
11.903,-0.140,-0.275
11.906,-0.150,-0.255
11.908,-0.155,-0.245
11.911,-0.160,-0.235
11.914,-0.170,-0.230
11.917,-0.170,-0.255
11.919,-0.175,-0.235
11.922,-0.160,-0.190
11.925,-0.150,-0.140
11.928,-0.140,-0.110
11.931,-0.155,-0.120
11.933,-0.180,-0.150
11.936,-0.200,-0.175
11.939,-0.205,-0.215
11.942,-0.185,-0.260
11.944,-0.170,-0.265
11.947,-0.175,-0.250
11.950,-0.205,-0.275
11.953,-0.205,-0.255
11.956,-0.195,-0.235
11.958,-0.200,-0.200
11.961,-0.195,-0.160
11.964,-0.175,-0.170
11.967,-0.185,-0.155
11.969,-0.200,-0.170
11.972,-0.205,-0.160
11.975,-0.210,-0.155
11.978,-0.205,-0.135
11.981,-0.190,-0.165
11.983,-0.185,-0.205
11.986,-0.200,-0.255
11.989,-0.220,-0.260
11.992,-0.210,-0.220
11.994,-0.195,-0.185
11.997,-0.180,-0.135
12.000,-0.185,-0.130
12.003,-0.205,-0.140
12.006,-0.225,-0.185
12.008,-0.195,-0.245
12.011,-0.165,-0.270
12.014,-0.155,-0.275
12.017,-0.170,-0.270
12.019,-0.195,-0.250
12.022,-0.210,-0.190
12.025,-0.220,-0.100
12.028,-0.235,-0.050
12.031,-0.230,-0.070
12.033,-0.180,-0.160
12.036,-0.095,-0.250
12.039,0.020,-0.265
12.042,0.170,-0.270
12.044,0.305,-0.285
12.047,0.460,-0.360
12.050,0.585,-0.450
12.053,0.665,-0.530
12.056,0.705,-0.550
12.058,0.665,-0.565
12.061,0.550,-0.540
12.064,0.355,-0.555
12.067,0.035,-0.520
12.069,-0.320,-0.485
12.072,-0.610,-0.445
12.075,-0.790,-0.395
12.078,-0.770,-0.310
12.081,-0.655,-0.215
12.083,-0.530,-0.170
12.086,-0.450,-0.195
12.089,-0.380,-0.205
12.092,-0.305,-0.200
12.094,-0.250,-0.145
12.097,-0.225,-0.125
12.100,-0.225,-0.145
12.103,-0.230,-0.175
12.106,-0.225,-0.180
12.108,-0.200,-0.175
12.111,-0.170,-0.185
12.114,-0.140,-0.265
12.117,-0.130,-0.320
12.119,-0.150,-0.295
12.122,-0.170,-0.220
12.125,-0.145,-0.175
12.128,-0.135,-0.130
12.131,-0.125,-0.095
12.133,-0.120,-0.110
12.136,-0.115,-0.170
12.139,-0.095,-0.235
12.142,-0.080,-0.260
12.144,-0.050,-0.230
12.147,-0.030,-0.235
12.150,-0.030,-0.240
12.153,-0.030,-0.260
12.156,-0.055,-0.255
12.158,-0.030,-0.220
12.161,0.005,-0.170
12.164,0.040,-0.200
12.167,0.065,-0.250
12.169,0.055,-0.275
12.172,0.060,-0.235
12.175,0.080,-0.150
12.178,0.110,-0.110
12.181,0.140,-0.120
12.183,0.135,-0.160
12.186,0.140,-0.200
12.189,0.160,-0.210
12.192,0.190,-0.260
12.194,0.220,-0.305
12.197,0.245,-0.330
12.200,0.225,-0.295
12.203,0.210,-0.255
12.206,0.215,-0.220
12.208,0.255,-0.220
12.211,0.280,-0.220
12.214,0.275,-0.230
12.217,0.270,-0.225
12.219,0.245,-0.230
12.222,0.225,-0.225
12.225,0.220,-0.175
12.228,0.245,-0.140
12.231,0.230,-0.125
12.233,0.200,-0.180
12.236,0.155,-0.215
12.239,0.115,-0.205
12.242,0.100,-0.175
12.244,0.110,-0.210
12.247,0.130,-0.260
12.250,0.120,-0.280
12.253,0.080,-0.240
12.256,0.045,-0.170
12.258,0.010,-0.105
12.261,-0.010,-0.100
12.264,-0.050,-0.080
12.267,-0.060,-0.090
12.269,-0.055,-0.145
12.272,-0.060,-0.195
12.275,-0.090,-0.190
12.278,-0.100,-0.170
12.281,-0.125,-0.160
12.283,-0.125,-0.145
12.286,-0.115,-0.105
12.289,-0.135,-0.090
12.292,-0.150,-0.130
12.294,-0.160,-0.160
12.297,-0.145,-0.170
12.300,-0.135,-0.170
12.303,-0.150,-0.175
12.306,-0.165,-0.155
12.308,-0.170,-0.105
12.311,-0.160,-0.090
12.314,-0.150,-0.110
12.317,-0.175,-0.140
12.319,-0.185,-0.190
12.322,-0.180,-0.180
12.325,-0.160,-0.140
12.328,-0.140,-0.065
12.331,-0.150,-0.020
12.333,-0.180,-0.050
12.336,-0.190,-0.160
12.339,-0.185,-0.260
12.342,-0.150,-0.270
12.344,-0.140,-0.220
12.347,-0.165,-0.155
12.350,-0.195,-0.095
12.353,-0.205,-0.060
12.356,-0.180,-0.045
12.358,-0.135,-0.075
12.361,-0.095,-0.105
12.364,-0.095,-0.125
12.367,-0.110,-0.120
12.369,-0.135,-0.100
12.372,-0.130,-0.050
12.375,-0.110,-0.065
12.378,-0.080,-0.080
12.381,-0.075,-0.105
12.383,-0.075,-0.135
12.386,-0.080,-0.160
12.389,-0.095,-0.150
12.392,-0.090,-0.085
12.394,-0.095,-0.045
12.397,-0.115,-0.060
12.400,-0.135,-0.140
12.403,-0.145,-0.235
12.406,-0.125,-0.255
12.408,-0.100,-0.235
12.411,-0.105,-0.180
12.414,-0.110,-0.170
12.417,-0.140,-0.145
12.419,-0.155,-0.120
12.422,-0.160,-0.110
12.425,-0.155,-0.090
12.428,-0.150,-0.085
12.431,-0.170,-0.070
12.433,-0.210,-0.065
12.436,-0.245,-0.085
12.439,-0.230,-0.120
12.442,-0.165,-0.145
12.444,-0.155,-0.150
12.447,-0.175,-0.145
12.450,-0.220,-0.135
12.453,-0.240,-0.130
12.456,-0.235,-0.090
12.458,-0.195,-0.110
12.461,-0.170,-0.125
12.464,-0.160,-0.110
12.467,-0.175,-0.065
12.469,-0.200,-0.065
12.472,-0.195,-0.135
12.475,-0.190,-0.230
12.478,-0.180,-0.240
12.481,-0.160,-0.200
12.483,-0.190,-0.170
12.486,-0.225,-0.165
12.489,-0.235,-0.150
12.492,-0.210,-0.085
12.494,-0.210,-0.005
12.497,-0.205,-0.005
12.500,-0.220,-0.025
12.503,-0.210,-0.095
12.506,-0.195,-0.125
12.508,-0.175,-0.140
12.511,-0.170,-0.135
12.514,-0.165,-0.145
12.517,-0.175,-0.165
12.519,-0.200,-0.165
12.522,-0.200,-0.140
12.525,-0.215,-0.095
12.528,-0.200,-0.050
12.531,-0.180,-0.050
12.533,-0.175,-0.080
12.536,-0.150,-0.090
12.539,-0.090,-0.100
12.542,0.055,-0.135
12.544,0.205,-0.135
12.547,0.335,-0.180
12.550,0.460,-0.250
12.553,0.565,-0.335
12.556,0.660,-0.410
12.558,0.770,-0.485
12.561,0.810,-0.500
12.564,0.715,-0.535
12.567,0.530,-0.550
12.569,0.275,-0.525
12.572,-0.070,-0.460
12.575,-0.385,-0.395
12.578,-0.615,-0.345
12.581,-0.735,-0.305
12.583,-0.745,-0.250
12.586,-0.660,-0.225
12.589,-0.555,-0.205
12.592,-0.460,-0.180
12.594,-0.375,-0.155
12.597,-0.335,-0.150
12.600,-0.300,-0.130
12.603,-0.270,-0.105
12.606,-0.250,-0.060
12.608,-0.220,-0.040
12.611,-0.205,-0.005
12.614,-0.210,-0.030
12.617,-0.190,-0.065
12.619,-0.170,-0.140
12.622,-0.165,-0.210
12.625,-0.165,-0.175
12.628,-0.180,-0.130
12.631,-0.185,-0.100
12.633,-0.190,-0.110
12.636,-0.185,-0.110
12.639,-0.180,-0.080
12.642,-0.165,-0.050
12.644,-0.140,-0.040
12.647,-0.125,-0.070
12.650,-0.130,-0.080
12.653,-0.145,-0.035
12.656,-0.150,0.010
12.658,-0.130,-0.005
12.661,-0.075,-0.100
12.664,-0.035,-0.205
12.667,0.005,-0.245
12.669,0.025,-0.230
12.672,0.035,-0.185
12.675,0.010,-0.175
12.678,0.010,-0.180
12.681,0.010,-0.195
12.683,0.005,-0.165
12.686,0.030,-0.130
12.689,0.075,-0.110
12.692,0.135,-0.085
12.694,0.180,-0.055
12.697,0.190,-0.030
12.700,0.165,-0.070
12.703,0.160,-0.110
12.706,0.155,-0.120
12.708,0.165,-0.090
12.711,0.190,-0.115
12.714,0.220,-0.165
12.717,0.235,-0.225
12.719,0.245,-0.260
12.722,0.255,-0.250
12.725,0.265,-0.155
12.728,0.245,-0.065
12.731,0.245,-0.030
12.733,0.235,-0.060
12.736,0.230,-0.100
12.739,0.210,-0.070
12.742,0.205,-0.060
12.744,0.210,-0.105
12.747,0.245,-0.185
12.750,0.250,-0.215
12.753,0.210,-0.170
12.756,0.175,-0.135
12.758,0.165,-0.145
12.761,0.170,-0.190
12.764,0.145,-0.190
12.767,0.110,-0.165
12.769,0.075,-0.105
12.772,0.025,-0.065
12.775,0.015,-0.030
12.778,0.015,-0.035
12.781,-0.015,-0.025
12.783,-0.060,-0.055
12.786,-0.105,-0.080
12.789,-0.105,-0.100
12.792,-0.080,-0.090
12.794,-0.065,-0.075
12.797,-0.080,-0.020
12.800,-0.120,0.000
12.803,-0.150,-0.030
12.806,-0.140,-0.085
12.808,-0.135,-0.100
12.811,-0.125,-0.090
12.814,-0.135,-0.070
12.817,-0.135,-0.125
12.819,-0.145,-0.155
12.822,-0.175,-0.135
12.825,-0.185,-0.105
12.828,-0.180,-0.035
12.831,-0.170,-0.020
12.833,-0.145,0.000
12.836,-0.150,-0.005
12.839,-0.185,-0.030
12.842,-0.195,-0.050
12.844,-0.195,-0.055
12.847,-0.180,-0.070
12.850,-0.165,-0.110
12.853,-0.165,-0.125
12.856,-0.180,-0.075
12.858,-0.190,-0.005
12.861,-0.185,0.035
12.864,-0.165,0.005
12.867,-0.145,-0.035
12.869,-0.150,-0.075
12.872,-0.180,-0.075
12.875,-0.195,-0.065
12.878,-0.190,-0.040
12.881,-0.160,-0.010
12.883,-0.135,-0.015
12.886,-0.130,-0.065
12.889,-0.100,-0.080
12.892,-0.100,-0.030
12.894,-0.120,0.025
12.897,-0.135,0.005
12.900,-0.115,-0.055
12.903,-0.110,-0.065
12.906,-0.105,-0.060
12.908,-0.080,-0.030
12.911,-0.065,0.020
12.914,-0.040,0.010
12.917,-0.070,-0.035
12.919,-0.100,-0.080
12.922,-0.140,-0.080
12.925,-0.140,-0.055
12.928,-0.140,-0.020
12.931,-0.130,-0.040
12.933,-0.135,-0.045
12.936,-0.165,-0.015
12.939,-0.160,-0.015
12.942,-0.150,-0.050
12.944,-0.130,-0.085
12.947,-0.115,-0.120
12.950,-0.120,-0.110
12.953,-0.140,-0.120
12.956,-0.160,-0.085
12.958,-0.170,-0.030
12.961,-0.180,0.035
12.964,-0.190,0.060
12.967,-0.200,0.035
12.969,-0.200,-0.065
12.972,-0.205,-0.100
12.975,-0.230,-0.095
12.978,-0.230,-0.045
12.981,-0.220,-0.055
12.983,-0.215,-0.065
12.986,-0.215,-0.080
12.989,-0.210,-0.055
12.992,-0.175,-0.010
12.994,-0.160,0.000
12.997,-0.160,-0.035
13.000,-0.170,-0.095
13.003,-0.195,-0.120
13.006,-0.225,-0.095
13.008,-0.220,-0.070
13.011,-0.185,-0.040
13.014,-0.180,-0.040
13.017,-0.195,-0.045
13.019,-0.220,-0.035
13.022,-0.210,-0.015
13.025,-0.185,0.010
13.028,-0.185,0.020
13.031,-0.215,-0.005
13.033,-0.215,-0.015
13.036,-0.235,0.005
13.039,-0.235,-0.005
13.042,-0.210,-0.020
13.044,-0.195,-0.040
13.047,-0.185,-0.065
13.050,-0.210,-0.090
13.053,-0.250,-0.085
13.056,-0.260,-0.065
13.058,-0.240,-0.035
13.061,-0.205,-0.005
13.064,-0.195,0.015
13.067,-0.160,-0.020
13.069,-0.080,-0.080
13.072,0.065,-0.130
13.075,0.200,-0.145
13.078,0.355,-0.170
13.081,0.480,-0.200
13.083,0.585,-0.235
13.086,0.680,-0.285
13.089,0.730,-0.340
13.092,0.705,-0.375
13.094,0.590,-0.395
13.097,0.345,-0.415
13.100,-0.035,-0.390
13.103,-0.385,-0.330
13.106,-0.645,-0.275
13.108,-0.795,-0.230
13.111,-0.800,-0.165
13.114,-0.705,-0.100
13.117,-0.615,-0.095
13.119,-0.525,-0.110
13.122,-0.455,-0.095
13.125,-0.385,-0.035
13.128,-0.305,-0.025
13.131,-0.270,-0.030
13.133,-0.255,-0.060
13.136,-0.255,-0.085
13.139,-0.225,-0.100
13.142,-0.190,-0.070
13.144,-0.170,-0.020
13.147,-0.195,-0.015
13.150,-0.220,-0.025
13.153,-0.220,-0.030
13.156,-0.195,-0.030
13.158,-0.195,-0.015
13.161,-0.210,-0.025
13.164,-0.210,-0.055
13.167,-0.200,-0.070
13.169,-0.190,-0.080
13.172,-0.165,-0.045
13.175,-0.145,-0.025
13.178,-0.145,-0.035
13.181,-0.125,-0.045
13.183,-0.105,-0.060
13.186,-0.105,-0.080
13.189,-0.115,-0.065
13.192,-0.125,-0.040
13.194,-0.110,-0.015
13.197,-0.105,-0.020
13.200,-0.090,-0.005
13.203,-0.095,-0.005
13.206,-0.080,0.000
13.208,-0.045,-0.010
13.211,-0.005,-0.015
13.214,0.005,0.005
13.217,0.005,-0.010
13.219,0.000,-0.035
13.222,0.030,-0.070
13.225,0.075,-0.110
13.228,0.110,-0.130
13.231,0.100,-0.125
13.233,0.095,-0.105
13.236,0.095,-0.090
13.239,0.130,-0.085
13.242,0.155,-0.100
13.244,0.170,-0.080
13.247,0.175,-0.095
13.250,0.165,-0.095
13.253,0.155,-0.085
13.256,0.150,-0.040
13.258,0.155,-0.040
13.261,0.195,-0.040
13.264,0.220,-0.075
13.267,0.220,-0.090
13.269,0.200,-0.070
13.272,0.175,-0.045
13.275,0.165,-0.020
13.278,0.155,-0.025
13.281,0.140,-0.065
13.283,0.115,-0.065
13.286,0.105,-0.065
13.289,0.100,-0.060
13.292,0.120,-0.045
13.294,0.130,-0.035
13.297,0.100,-0.025
13.300,0.050,-0.035
13.303,0.000,-0.020
13.306,-0.030,-0.020
13.308,-0.050,-0.005
13.311,-0.075,0.045
13.314,-0.105,0.045
13.317,-0.150,0.020
13.319,-0.170,0.000
13.322,-0.190,-0.005
13.325,-0.195,-0.005
13.328,-0.195,0.035
13.331,-0.210,0.040
13.333,-0.225,0.025
13.336,-0.235,0.010
13.339,-0.255,-0.040
13.342,-0.245,-0.050
13.344,-0.215,-0.065
13.347,-0.230,-0.050
13.350,-0.250,-0.040
13.353,-0.285,-0.020
13.356,-0.290,0.000
13.358,-0.300,0.030
13.361,-0.300,0.085
13.364,-0.315,0.130
13.367,-0.340,0.165
13.369,-0.335,0.145
13.372,-0.315,0.125
13.375,-0.300,0.050
13.378,-0.285,-0.020
13.381,-0.265,-0.070
13.383,-0.280,-0.065
13.386,-0.280,-0.020
13.389,-0.280,0.005
13.392,-0.290,0.020
13.394,-0.275,0.020
13.397,-0.285,0.010
13.400,-0.300,0.000
13.403,-0.320,0.005
13.406,-0.335,0.025
13.408,-0.325,0.050
13.411,-0.320,0.075
13.414,-0.295,0.070
13.417,-0.305,0.100
13.419,-0.315,0.120
13.422,-0.320,0.145
13.425,-0.315,0.150
13.428,-0.285,0.120
13.431,-0.280,0.115
13.433,-0.270,0.095
13.436,-0.280,0.070
13.439,-0.280,0.065
13.442,-0.240,0.070
13.444,-0.205,0.075
13.447,-0.205,0.095
13.450,-0.215,0.095
13.453,-0.225,0.070
13.456,-0.230,0.085
13.458,-0.230,0.070
13.461,-0.220,0.065
13.464,-0.230,0.060
13.467,-0.245,0.035
13.469,-0.260,-0.010
13.472,-0.270,0.000
13.475,-0.275,-0.005
13.478,-0.280,0.025
13.481,-0.275,0.065
13.483,-0.295,0.070
13.486,-0.315,0.075
13.489,-0.320,0.075
13.492,-0.305,0.065
13.494,-0.270,0.065
13.497,-0.255,0.030
13.500,-0.280,0.045
13.503,-0.310,0.030
13.506,-0.325,0.035
13.508,-0.330,0.060
13.511,-0.310,0.040
13.514,-0.315,0.040
13.517,-0.320,0.050
13.519,-0.375,0.065
13.522,-0.410,0.090
13.525,-0.400,0.105
13.528,-0.360,0.110
13.531,-0.330,0.075
13.533,-0.340,0.060
13.536,-0.375,0.035
13.539,-0.385,0.065
13.542,-0.365,0.095
13.544,-0.360,0.100
13.547,-0.365,0.075
13.550,-0.355,0.045
13.553,-0.340,0.025
13.556,-0.325,0.035
13.558,-0.310,0.055
13.561,-0.305,0.075
13.564,-0.310,0.065
13.567,-0.340,0.045
13.569,-0.350,0.030
13.572,-0.370,0.060
13.575,-0.350,0.095
13.578,-0.360,0.115
13.581,-0.370,0.105
13.583,-0.385,0.085
13.586,-0.405,0.085
13.589,-0.390,0.090
13.592,-0.360,0.145
13.594,-0.320,0.145
13.597,-0.300,0.110
13.600,-0.310,0.065
13.603,-0.355,0.050
13.606,-0.385,0.070
13.608,-0.395,0.090
13.611,-0.395,0.105
13.614,-0.395,0.100
13.617,-0.380,0.125
13.619,-0.320,0.120
13.622,-0.235,0.095
13.625,-0.090,0.060
13.628,0.065,0.030
13.631,0.230,-0.005
13.633,0.360,-0.045
13.636,0.450,-0.085
13.639,0.510,-0.085
13.642,0.560,-0.100
13.644,0.545,-0.145
13.647,0.460,-0.195
13.650,0.285,-0.265
13.653,0.005,-0.265
13.656,-0.320,-0.195
13.658,-0.590,-0.120
13.661,-0.780,-0.090
13.664,-0.875,-0.070
13.667,-0.870,-0.055
13.669,-0.810,0.005
13.672,-0.745,0.065
13.675,-0.675,0.090
13.678,-0.600,0.115
13.681,-0.520,0.085
13.683,-0.470,0.075
13.686,-0.445,0.065
13.689,-0.430,0.080
13.692,-0.380,0.095
13.694,-0.340,0.130
13.697,-0.300,0.125
13.700,-0.300,0.085
13.703,-0.310,0.025
13.706,-0.295,0.030
13.708,-0.290,0.045
13.711,-0.285,0.110
13.714,-0.285,0.155
13.717,-0.290,0.170
13.719,-0.300,0.160
13.722,-0.310,0.145
13.725,-0.310,0.145
13.728,-0.295,0.150
13.731,-0.290,0.150
13.733,-0.280,0.120
13.736,-0.280,0.080
13.739,-0.265,0.055
13.742,-0.230,0.060
13.744,-0.185,0.075
13.747,-0.165,0.070
13.750,-0.160,0.050
13.753,-0.175,0.045
13.756,-0.175,0.075
13.758,-0.155,0.100
13.761,-0.145,0.110
13.764,-0.155,0.115
13.767,-0.175,0.120
13.769,-0.185,0.115
13.772,-0.180,0.135
13.775,-0.150,0.145
13.778,-0.105,0.165
13.781,-0.055,0.130
13.783,-0.035,0.080
13.786,-0.030,0.060
13.789,-0.025,0.075
13.792,0.000,0.120
13.794,0.030,0.100
13.797,0.035,0.050
13.800,0.020,0.010
13.803,-0.005,0.050
13.806,0.005,0.060
13.808,0.055,0.115
13.811,0.105,0.130
13.814,0.130,0.115
13.817,0.140,0.080
13.819,0.125,0.050
13.822,0.110,0.050
13.825,0.120,0.060
13.828,0.135,0.095
13.831,0.120,0.085
13.833,0.100,0.070
13.836,0.090,0.075
13.839,0.105,0.095
13.842,0.150,0.125
13.844,0.170,0.105
13.847,0.120,0.080
13.850,0.080,0.045
13.853,0.035,0.040
13.856,0.030,0.065
13.858,0.025,0.110
13.861,0.040,0.130
13.864,0.030,0.110
13.867,0.020,0.105
13.869,0.015,0.085
13.872,-0.020,0.075
13.875,-0.050,0.090
13.878,-0.090,0.120
13.881,-0.125,0.145
13.883,-0.160,0.150
13.886,-0.195,0.140
13.889,-0.215,0.130
13.892,-0.210,0.150
13.894,-0.190,0.155
13.897,-0.190,0.185
13.900,-0.230,0.180
13.903,-0.245,0.190
13.906,-0.265,0.205
13.908,-0.270,0.205
13.911,-0.285,0.185
13.914,-0.290,0.145
13.917,-0.290,0.100
13.919,-0.300,0.085
13.922,-0.300,0.085
13.925,-0.290,0.125
13.928,-0.285,0.145
13.931,-0.270,0.135
13.933,-0.270,0.155
13.936,-0.290,0.145
13.939,-0.280,0.165
13.942,-0.255,0.175
13.944,-0.235,0.195
13.947,-0.295,0.175
13.950,-0.350,0.170
13.953,-0.365,0.145
13.956,-0.340,0.170
13.958,-0.305,0.225
13.961,-0.270,0.220
13.964,-0.245,0.170
13.967,-0.225,0.070
13.969,-0.225,0.035
13.972,-0.235,0.060
13.975,-0.245,0.115
13.978,-0.250,0.160
13.981,-0.240,0.155
13.983,-0.255,0.150
13.986,-0.280,0.170
13.989,-0.300,0.175
13.992,-0.325,0.205
13.994,-0.330,0.240
13.997,-0.310,0.225
14.000,-0.300,0.210
14.003,-0.275,0.220
14.006,-0.265,0.245
14.008,-0.225,0.240
14.011,-0.205,0.230
14.014,-0.210,0.195
14.017,-0.205,0.155
14.019,-0.210,0.150
14.022,-0.205,0.160
14.025,-0.215,0.170
14.028,-0.205,0.175
14.031,-0.220,0.165
14.033,-0.255,0.140
14.036,-0.255,0.155
14.039,-0.260,0.150
14.042,-0.245,0.135
14.044,-0.235,0.105
14.047,-0.255,0.075
14.050,-0.275,0.075
14.053,-0.290,0.110
14.056,-0.275,0.135
14.058,-0.285,0.170
14.061,-0.275,0.165
14.064,-0.275,0.150
14.067,-0.280,0.145
14.069,-0.305,0.140
14.072,-0.305,0.175
14.075,-0.295,0.185
14.078,-0.295,0.190
14.081,-0.320,0.155
14.083,-0.340,0.145
14.086,-0.325,0.130
14.089,-0.325,0.130
14.092,-0.290,0.145
14.094,-0.280,0.155
14.097,-0.290,0.175
14.100,-0.305,0.170
14.103,-0.335,0.150
14.106,-0.325,0.155
14.108,-0.305,0.185
14.111,-0.280,0.200
14.114,-0.285,0.170
14.117,-0.295,0.120
14.119,-0.300,0.090
14.122,-0.305,0.090
14.125,-0.310,0.125
14.128,-0.275,0.140
14.131,-0.270,0.130
14.133,-0.275,0.125
14.136,-0.270,0.125
14.139,-0.280,0.135
14.142,-0.290,0.145
14.144,-0.305,0.170
14.147,-0.335,0.185
14.150,-0.340,0.155
14.153,-0.330,0.150
14.156,-0.320,0.130
14.158,-0.290,0.145
14.161,-0.260,0.160
14.164,-0.265,0.180
14.167,-0.295,0.165
14.169,-0.335,0.175
14.172,-0.375,0.215
14.175,-0.365,0.235
14.178,-0.320,0.220
14.181,-0.245,0.170
14.183,-0.160,0.105
14.186,-0.040,0.045
14.189,0.125,0.005
14.192,0.305,0.005
14.194,0.460,-0.005
14.197,0.555,-0.045
14.200,0.595,-0.075
14.203,0.580,-0.120
14.206,0.505,-0.100
14.208,0.350,-0.105
14.211,0.090,-0.065
14.214,-0.235,-0.010
14.217,-0.530,0.055
14.219,-0.760,0.070
14.222,-0.870,0.090
14.225,-0.840,0.120
14.228,-0.710,0.135
14.231,-0.605,0.130
14.233,-0.545,0.120
14.236,-0.465,0.115
14.239,-0.385,0.130
14.242,-0.335,0.160
14.244,-0.295,0.170
14.247,-0.300,0.175
14.250,-0.300,0.135
14.253,-0.295,0.115
14.256,-0.290,0.135
14.258,-0.260,0.165
14.261,-0.240,0.170
14.264,-0.245,0.170
14.267,-0.250,0.145
14.269,-0.245,0.150
14.272,-0.245,0.165
14.275,-0.230,0.180
14.278,-0.205,0.185
14.281,-0.220,0.185
14.283,-0.245,0.160
14.286,-0.250,0.155
14.289,-0.240,0.160
14.292,-0.215,0.175
14.294,-0.200,0.190
14.297,-0.215,0.180
14.300,-0.205,0.170
14.303,-0.200,0.165
14.306,-0.180,0.170
14.308,-0.155,0.170
14.311,-0.130,0.180
14.314,-0.120,0.155
14.317,-0.135,0.135
14.319,-0.130,0.130
14.322,-0.110,0.135
14.325,-0.085,0.155
14.328,-0.050,0.180
14.331,-0.025,0.175
14.333,-0.035,0.155
14.336,-0.040,0.130
14.339,-0.030,0.165
14.342,0.015,0.160
14.344,0.075,0.155
14.347,0.095,0.140
14.350,0.085,0.115
14.353,0.045,0.110
14.356,0.050,0.120
14.358,0.085,0.170
14.361,0.130,0.185
14.364,0.140,0.155
14.367,0.150,0.150
14.369,0.130,0.145
14.372,0.130,0.130
14.375,0.160,0.125
14.378,0.195,0.125
14.381,0.200,0.125
14.383,0.180,0.095
14.386,0.140,0.085
14.389,0.125,0.090
14.392,0.130,0.115
14.394,0.145,0.145
14.397,0.135,0.150
14.400,0.110,0.150
14.403,0.070,0.150
14.406,0.055,0.150
14.408,0.030,0.155
14.411,0.005,0.125
14.414,-0.010,0.120
14.417,-0.040,0.085
14.419,-0.075,0.080
14.422,-0.080,0.090
14.425,-0.085,0.090
14.428,-0.115,0.120
14.431,-0.135,0.105
14.433,-0.155,0.085
14.436,-0.165,0.075
14.439,-0.185,0.090
14.442,-0.190,0.110
14.444,-0.205,0.120
14.447,-0.200,0.095
14.450,-0.205,0.095
14.453,-0.230,0.095
14.456,-0.220,0.110
14.458,-0.215,0.105
14.461,-0.215,0.115
14.464,-0.220,0.090
14.467,-0.245,0.075
14.469,-0.275,0.085
14.472,-0.275,0.105
14.475,-0.250,0.115
14.478,-0.225,0.115
14.481,-0.240,0.100
14.483,-0.245,0.095
14.486,-0.255,0.065
14.489,-0.255,0.085
14.492,-0.225,0.105
14.494,-0.220,0.100
14.497,-0.220,0.085
14.500,-0.225,0.080
14.503,-0.260,0.090
14.506,-0.275,0.095
14.508,-0.265,0.095
14.511,-0.265,0.085
14.514,-0.270,0.105
14.517,-0.285,0.090
14.519,-0.275,0.120
14.522,-0.255,0.115
14.525,-0.220,0.115
14.528,-0.195,0.105
14.531,-0.205,0.100
14.533,-0.230,0.100
14.536,-0.235,0.100
14.539,-0.220,0.135
14.542,-0.200,0.155
14.544,-0.185,0.155
14.547,-0.180,0.160
14.550,-0.190,0.140
14.553,-0.180,0.115
14.556,-0.175,0.110
14.558,-0.155,0.100
14.561,-0.140,0.095
14.564,-0.135,0.115
14.567,-0.160,0.105
14.569,-0.185,0.095
14.572,-0.195,0.090
14.575,-0.190,0.095
14.578,-0.185,0.100
14.581,-0.185,0.105
14.583,-0.210,0.065
14.586,-0.230,0.055
14.589,-0.235,0.085
14.592,-0.225,0.115
14.594,-0.220,0.155
14.597,-0.215,0.170
14.600,-0.225,0.135
14.603,-0.235,0.125
14.606,-0.210,0.115
14.608,-0.190,0.115
14.611,-0.215,0.125
14.614,-0.260,0.115
14.617,-0.280,0.105
14.619,-0.275,0.085
14.622,-0.265,0.090
14.625,-0.230,0.100
14.628,-0.215,0.095
14.631,-0.225,0.095
14.633,-0.255,0.090
14.636,-0.270,0.095
14.639,-0.285,0.125
14.642,-0.275,0.145
14.644,-0.255,0.140
14.647,-0.225,0.125
14.650,-0.220,0.110
14.653,-0.240,0.090
14.656,-0.245,0.115
14.658,-0.260,0.145
14.661,-0.245,0.170
14.664,-0.260,0.155
14.667,-0.255,0.135
14.669,-0.250,0.125
14.672,-0.250,0.135
14.675,-0.260,0.160
14.678,-0.255,0.165
14.681,-0.240,0.140
14.683,-0.210,0.105
14.686,-0.215,0.100
14.689,-0.210,0.110
14.692,-0.195,0.125
14.694,-0.175,0.130
14.697,-0.180,0.125
14.700,-0.215,0.095
14.703,-0.265,0.110
14.706,-0.270,0.130
14.708,-0.240,0.135
14.711,-0.215,0.135
14.714,-0.230,0.150
14.717,-0.250,0.150
14.719,-0.285,0.150
14.722,-0.260,0.185
14.725,-0.190,0.180
14.728,-0.115,0.145
14.731,-0.020,0.090
14.733,0.100,0.050
14.736,0.250,0.040
14.739,0.420,0.025
14.742,0.570,0.005
14.744,0.685,-0.025
14.747,0.765,-0.090
14.750,0.790,-0.170
14.753,0.715,-0.165
14.756,0.565,-0.090
14.758,0.300,-0.055
14.761,-0.015,-0.010
14.764,-0.335,-0.005
14.767,-0.605,-0.005
14.769,-0.720,-0.010
14.772,-0.730,0.035
14.775,-0.665,0.090
14.778,-0.575,0.120
14.781,-0.530,0.135
14.783,-0.500,0.165
14.786,-0.455,0.165
14.789,-0.375,0.150
14.792,-0.295,0.145
14.794,-0.250,0.120
14.797,-0.235,0.145
14.800,-0.245,0.155
14.803,-0.260,0.155
14.806,-0.255,0.155
14.808,-0.230,0.160
14.811,-0.170,0.155
14.814,-0.135,0.095
14.817,-0.150,0.070
14.819,-0.175,0.055
14.822,-0.175,0.080
14.825,-0.165,0.115
14.828,-0.150,0.120
14.831,-0.145,0.125
14.833,-0.155,0.095
14.836,-0.150,0.065
14.839,-0.135,0.060
14.842,-0.110,0.095
14.844,-0.070,0.135
14.847,-0.070,0.120
14.850,-0.090,0.130
14.853,-0.130,0.160
14.856,-0.145,0.185
14.858,-0.115,0.185
14.861,-0.075,0.175
14.864,-0.055,0.125
14.867,-0.060,0.110
14.869,-0.065,0.105
14.872,-0.045,0.110
14.875,-0.020,0.130
14.878,0.010,0.130
14.881,0.035,0.100
14.883,0.065,0.080
14.886,0.055,0.055
14.889,0.070,0.050
14.892,0.070,0.075
14.894,0.095,0.080
14.897,0.100,0.090
14.900,0.120,0.080
14.903,0.130,0.070
14.906,0.155,0.075
14.908,0.155,0.070
14.911,0.190,0.085
14.914,0.190,0.100
14.917,0.165,0.090
14.919,0.170,0.075
14.922,0.195,0.080
14.925,0.260,0.095
14.928,0.300,0.105
14.931,0.270,0.105
14.933,0.205,0.065
14.936,0.175,0.055
14.939,0.190,0.060
14.942,0.200,0.090
14.944,0.180,0.105
14.947,0.160,0.120
14.950,0.140,0.090
14.953,0.115,0.100
14.956,0.115,0.100
14.958,0.125,0.125
14.961,0.110,0.130
14.964,0.065,0.115
14.967,0.030,0.090
14.969,0.010,0.065
14.972,0.000,0.080
14.975,-0.005,0.085
14.978,-0.030,0.105
14.981,-0.060,0.145
14.983,-0.080,0.160
14.986,-0.080,0.175
14.989,-0.105,0.190
14.992,-0.125,0.195
14.994,-0.160,0.185
14.997,-0.190,0.170
15.000,-0.205,0.140
15.003,-0.200,0.160
15.006,-0.185,0.170
15.008,-0.150,0.175
15.011,-0.115,0.145
15.014,-0.120,0.110
15.017,-0.145,0.095
15.019,-0.175,0.080
15.022,-0.200,0.105
15.025,-0.195,0.155
15.028,-0.205,0.175
15.031,-0.230,0.185
15.033,-0.255,0.145
15.036,-0.280,0.120
15.039,-0.260,0.140
15.042,-0.250,0.160
15.044,-0.240,0.155
15.047,-0.240,0.150
15.050,-0.230,0.120
15.053,-0.235,0.095
15.056,-0.240,0.120
15.058,-0.255,0.170
15.061,-0.250,0.195
15.064,-0.240,0.205
15.067,-0.235,0.185
15.069,-0.220,0.150
15.072,-0.225,0.155
15.075,-0.225,0.135
15.078,-0.220,0.135
15.081,-0.215,0.120
15.083,-0.205,0.145
15.086,-0.195,0.175
15.089,-0.185,0.200
15.092,-0.160,0.180
15.094,-0.135,0.170
15.097,-0.135,0.150
15.100,-0.140,0.150
15.103,-0.145,0.180
15.106,-0.150,0.205
15.108,-0.120,0.200
15.111,-0.125,0.175
15.114,-0.145,0.155
15.117,-0.180,0.155
15.119,-0.180,0.145
15.122,-0.180,0.140
15.125,-0.190,0.130
15.128,-0.170,0.105
15.131,-0.180,0.130
15.133,-0.215,0.115
15.136,-0.240,0.135
15.139,-0.245,0.145
15.142,-0.230,0.130
15.144,-0.225,0.120
15.147,-0.235,0.095
15.150,-0.255,0.070
15.153,-0.260,0.080
15.156,-0.270,0.120
15.158,-0.260,0.165
15.161,-0.270,0.230
15.164,-0.280,0.250
15.167,-0.265,0.240
15.169,-0.285,0.195
15.172,-0.275,0.155
15.175,-0.255,0.145
15.178,-0.215,0.145
15.181,-0.220,0.160
15.183,-0.250,0.150
15.186,-0.270,0.140
15.189,-0.275,0.130
15.192,-0.265,0.105
15.194,-0.225,0.085
15.197,-0.205,0.090
15.200,-0.225,0.080
15.203,-0.250,0.110
15.206,-0.275,0.170
15.208,-0.270,0.210
15.211,-0.265,0.245
15.214,-0.270,0.235
15.217,-0.285,0.175
15.219,-0.305,0.115
15.222,-0.295,0.085
15.225,-0.265,0.125
15.228,-0.265,0.190
15.231,-0.280,0.210
15.233,-0.290,0.185
15.236,-0.290,0.145
15.239,-0.285,0.130
15.242,-0.255,0.155
15.244,-0.215,0.170
15.247,-0.190,0.185
15.250,-0.215,0.190
15.253,-0.260,0.220
15.256,-0.285,0.240
15.258,-0.305,0.220
15.261,-0.295,0.245
15.264,-0.255,0.235
15.267,-0.200,0.185
15.269,-0.100,0.150
15.272,0.035,0.095
15.275,0.205,0.040
15.278,0.390,0.020
15.281,0.540,0.005
15.283,0.635,-0.010
15.286,0.720,-0.055
15.289,0.810,-0.125
15.292,0.865,-0.120
15.294,0.810,-0.100
15.297,0.600,-0.080
15.300,0.285,-0.075
15.303,-0.070,-0.080
15.306,-0.390,-0.030
15.308,-0.625,-0.010
15.311,-0.725,0.010
15.314,-0.740,0.035
15.317,-0.670,0.055
15.319,-0.595,0.065
15.322,-0.515,0.095
15.325,-0.410,0.120
15.328,-0.315,0.115
15.331,-0.275,0.145
15.333,-0.245,0.150
15.336,-0.250,0.185
15.339,-0.270,0.205
15.342,-0.265,0.270
15.344,-0.220,0.250
15.347,-0.215,0.235
15.350,-0.215,0.195
15.353,-0.225,0.170
15.356,-0.240,0.155
15.358,-0.215,0.185
15.361,-0.200,0.210
15.364,-0.185,0.210
15.367,-0.170,0.195
15.369,-0.145,0.160
15.372,-0.155,0.135
15.375,-0.140,0.135
15.378,-0.100,0.155
15.381,-0.105,0.175
15.383,-0.120,0.135
15.386,-0.140,0.135
15.389,-0.110,0.140
15.392,-0.095,0.175
15.394,-0.055,0.195
15.397,-0.055,0.165
15.400,-0.045,0.170
15.403,-0.030,0.160
15.406,-0.005,0.185
15.408,0.000,0.210
15.411,0.015,0.205
15.414,0.020,0.180
15.417,0.040,0.150
15.419,0.055,0.115
15.422,0.075,0.115
15.425,0.095,0.145
15.428,0.105,0.170
15.431,0.120,0.150
15.433,0.120,0.140
15.436,0.120,0.145
15.439,0.145,0.165
15.442,0.175,0.185
15.444,0.195,0.195
15.447,0.220,0.155
15.450,0.225,0.115
15.453,0.235,0.095
15.456,0.235,0.110
15.458,0.255,0.155
15.461,0.260,0.180
15.464,0.250,0.190
15.467,0.250,0.190
15.469,0.255,0.200
15.472,0.255,0.190
15.475,0.245,0.180
15.478,0.245,0.175
15.481,0.210,0.140
15.483,0.185,0.095
15.486,0.165,0.095
15.489,0.150,0.125
15.492,0.130,0.195
15.494,0.105,0.205
15.497,0.080,0.160
15.500,0.045,0.140
15.503,0.020,0.125
15.506,0.025,0.145
15.508,0.010,0.190
15.511,-0.005,0.180
15.514,-0.050,0.155
15.517,-0.090,0.160
15.519,-0.115,0.160
15.522,-0.110,0.185
15.525,-0.105,0.210
15.528,-0.140,0.220
15.531,-0.175,0.225
15.533,-0.180,0.210
15.536,-0.165,0.190
15.539,-0.150,0.175
15.542,-0.110,0.165
15.544,-0.105,0.175
15.547,-0.105,0.185
15.550,-0.145,0.195
15.553,-0.180,0.205
15.556,-0.185,0.205
15.558,-0.185,0.195
15.561,-0.190,0.155
15.564,-0.230,0.150
15.567,-0.215,0.155
15.569,-0.205,0.160
15.572,-0.200,0.165
15.575,-0.245,0.170
15.578,-0.235,0.215
15.581,-0.245,0.250
15.583,-0.235,0.250
15.586,-0.205,0.235
15.589,-0.190,0.245
15.592,-0.150,0.255
15.594,-0.130,0.255
15.597,-0.145,0.205
15.600,-0.180,0.175
15.603,-0.200,0.185
15.606,-0.190,0.210
15.608,-0.165,0.210
15.611,-0.115,0.215
15.614,-0.125,0.210
15.617,-0.140,0.195
15.619,-0.125,0.175
15.622,-0.090,0.180
15.625,-0.050,0.180
15.628,-0.020,0.180
15.631,-0.030,0.155
15.633,-0.070,0.125
15.636,-0.105,0.120
15.639,-0.135,0.140
15.642,-0.150,0.150
15.644,-0.140,0.190
15.647,-0.175,0.205
15.650,-0.190,0.210
15.653,-0.190,0.205
15.656,-0.185,0.215
15.658,-0.175,0.220
15.661,-0.145,0.210
15.664,-0.150,0.170
15.667,-0.170,0.130
15.669,-0.195,0.135
15.672,-0.225,0.175
15.675,-0.230,0.210
15.678,-0.200,0.225
15.681,-0.205,0.230
15.683,-0.225,0.200
15.686,-0.245,0.175
15.689,-0.235,0.190
15.692,-0.230,0.235
15.694,-0.225,0.245
15.697,-0.240,0.210
15.700,-0.250,0.160
15.703,-0.255,0.150
15.706,-0.235,0.180
15.708,-0.200,0.225
15.711,-0.170,0.255
15.714,-0.175,0.235
15.717,-0.230,0.185
15.719,-0.255,0.140
15.722,-0.255,0.165
15.725,-0.240,0.205
15.728,-0.210,0.235
15.731,-0.220,0.210
15.733,-0.225,0.185
15.736,-0.230,0.175
15.739,-0.235,0.180
15.742,-0.220,0.190
15.744,-0.195,0.205
15.747,-0.185,0.185
15.750,-0.225,0.175
15.753,-0.230,0.155
15.756,-0.230,0.175
15.758,-0.225,0.185
15.761,-0.185,0.195
15.764,-0.185,0.205
15.767,-0.215,0.165
15.769,-0.245,0.180
15.772,-0.265,0.215
15.775,-0.285,0.290
15.778,-0.305,0.345
15.781,-0.290,0.325
15.783,-0.205,0.250
15.786,-0.070,0.160
15.789,0.080,0.095
15.792,0.250,0.120
15.794,0.430,0.105
15.797,0.620,0.095
15.800,0.765,0.040
15.803,0.890,-0.020
15.806,1.010,-0.080
15.808,1.040,-0.105
15.811,0.960,-0.090
15.814,0.730,-0.105
15.817,0.390,-0.105
15.819,-0.005,-0.080
15.822,-0.355,-0.030
15.825,-0.590,0.035
15.828,-0.670,0.070
15.831,-0.670,0.100
15.833,-0.610,0.100
15.836,-0.515,0.120
15.839,-0.400,0.120
15.842,-0.310,0.145
15.844,-0.225,0.180
15.847,-0.205,0.200
15.850,-0.180,0.205
15.853,-0.185,0.215
15.856,-0.180,0.210
15.858,-0.160,0.160
15.861,-0.140,0.145
15.864,-0.155,0.135
15.867,-0.155,0.165
15.869,-0.165,0.180
15.872,-0.160,0.210
15.875,-0.145,0.220
15.878,-0.120,0.200
15.881,-0.120,0.165
15.883,-0.150,0.175
15.886,-0.150,0.215
15.889,-0.130,0.255
15.892,-0.105,0.265
15.894,-0.070,0.230
15.897,-0.060,0.205
15.900,-0.060,0.190
15.903,-0.060,0.205
15.906,-0.045,0.235
15.908,-0.015,0.255
15.911,0.000,0.235
15.914,0.005,0.210
15.917,0.005,0.205
15.919,0.000,0.155
15.922,0.020,0.185
15.925,0.050,0.225
15.928,0.095,0.225
15.931,0.110,0.220
15.933,0.105,0.215
15.936,0.110,0.215
15.939,0.130,0.230
15.942,0.150,0.240
15.944,0.180,0.200
15.947,0.210,0.165
15.950,0.225,0.160
15.953,0.220,0.160
15.956,0.225,0.195
15.958,0.245,0.205
15.961,0.280,0.210
15.964,0.290,0.205
15.967,0.275,0.215
15.969,0.265,0.255
15.972,0.275,0.285
15.975,0.295,0.295
15.978,0.335,0.265
15.981,0.330,0.225
15.983,0.320,0.185
15.986,0.295,0.180
15.989,0.275,0.225
15.992,0.285,0.255
15.994,0.310,0.275
15.997,0.330,0.195
16.000,0.295,0.125
16.003,0.265,0.080
16.006,0.245,0.075
16.008,0.240,0.120
16.011,0.220,0.160
16.014,0.205,0.185
16.017,0.150,0.160
16.019,0.110,0.170
16.022,0.075,0.220
16.025,0.055,0.300
16.028,0.055,0.320
16.031,0.035,0.270
16.033,0.020,0.190
16.036,0.000,0.155
16.039,-0.030,0.180
16.042,-0.035,0.215
16.044,-0.030,0.210
16.047,-0.030,0.165
16.050,-0.060,0.170
16.053,-0.095,0.195
16.056,-0.100,0.250
16.058,-0.100,0.290
16.061,-0.090,0.280
16.064,-0.075,0.225
16.067,-0.085,0.210
16.069,-0.095,0.210
16.072,-0.095,0.255
16.075,-0.100,0.270
16.078,-0.090,0.270
16.081,-0.100,0.240
16.083,-0.105,0.195
16.086,-0.120,0.165
16.089,-0.100,0.200
16.092,-0.070,0.230
16.094,-0.040,0.195
16.097,-0.050,0.145
16.100,-0.095,0.150
16.103,-0.110,0.220
16.106,-0.110,0.295
16.108,-0.100,0.355
16.111,-0.080,0.340
16.114,-0.090,0.320
16.117,-0.080,0.275
16.119,-0.075,0.225
16.122,-0.055,0.210
16.125,-0.020,0.220
16.128,0.015,0.240
16.131,-0.005,0.255
16.133,-0.025,0.260
16.136,-0.025,0.200
16.139,0.005,0.145
16.142,0.020,0.145
16.144,0.040,0.190
16.147,0.025,0.220
16.150,0.015,0.245
16.153,-0.005,0.250
16.156,-0.015,0.245
16.158,-0.025,0.245
16.161,-0.025,0.255
16.164,-0.040,0.240
16.167,-0.060,0.195
16.169,-0.065,0.165
16.172,-0.080,0.165
16.175,-0.085,0.190
16.178,-0.080,0.215
16.181,-0.090,0.230
16.183,-0.100,0.235
16.186,-0.105,0.215
16.189,-0.105,0.230
16.192,-0.095,0.230
16.194,-0.095,0.235
16.197,-0.110,0.190
16.200,-0.150,0.185
16.203,-0.165,0.200
16.206,-0.165,0.220
16.208,-0.150,0.265
16.211,-0.145,0.270
16.214,-0.155,0.275
16.217,-0.145,0.260
16.219,-0.130,0.250
16.222,-0.120,0.240
16.225,-0.100,0.255
16.228,-0.075,0.240
16.231,-0.070,0.210
16.233,-0.080,0.190
16.236,-0.110,0.180
16.239,-0.110,0.195
16.242,-0.110,0.205
16.244,-0.120,0.200
16.247,-0.135,0.235
16.250,-0.150,0.290
16.253,-0.150,0.290
16.256,-0.135,0.260
16.258,-0.105,0.205
16.261,-0.070,0.155
16.264,-0.090,0.145
16.267,-0.130,0.170
16.269,-0.145,0.200
16.272,-0.140,0.225
16.275,-0.100,0.240
16.278,-0.100,0.210
16.281,-0.095,0.215
16.283,-0.110,0.210
16.286,-0.125,0.245
16.289,-0.125,0.265
16.292,-0.120,0.250
16.294,-0.100,0.245
16.297,-0.105,0.260
16.300,-0.105,0.295
16.303,-0.045,0.290
16.306,0.100,0.250
16.308,0.290,0.165
16.311,0.465,0.115
16.314,0.605,0.100
16.317,0.755,0.080
16.319,0.905,0.020
16.322,1.025,-0.065
16.325,1.105,-0.155
16.328,1.085,-0.195
16.331,0.970,-0.215
16.333,0.775,-0.250
16.336,0.495,-0.280
16.339,0.120,-0.250
16.342,-0.260,-0.160
16.344,-0.535,-0.040
16.347,-0.640,0.080
16.350,-0.625,0.140
16.353,-0.530,0.165
16.356,-0.400,0.170
16.358,-0.285,0.190
16.361,-0.200,0.200
16.364,-0.170,0.215
16.367,-0.165,0.195
16.369,-0.150,0.200
16.372,-0.125,0.195
16.375,-0.095,0.240
16.378,-0.105,0.290
16.381,-0.105,0.335
16.383,-0.100,0.355
16.386,-0.095,0.310
16.389,-0.085,0.255
16.392,-0.050,0.185
16.394,-0.060,0.130
16.397,-0.075,0.165
16.400,-0.095,0.220
16.403,-0.095,0.255
16.406,-0.085,0.245
16.408,-0.055,0.240
16.411,-0.025,0.250
16.414,-0.010,0.270
16.417,-0.010,0.250
16.419,-0.005,0.215
16.422,-0.005,0.200
16.425,0.005,0.190
16.428,0.035,0.195
16.431,0.045,0.205
16.433,0.045,0.205
16.436,0.040,0.175
16.439,0.055,0.170
16.442,0.075,0.190
16.444,0.095,0.175
16.447,0.105,0.170
16.450,0.130,0.165
16.453,0.130,0.215
16.456,0.150,0.275
16.458,0.185,0.330
16.461,0.200,0.295
16.464,0.215,0.220
16.467,0.220,0.150
16.469,0.215,0.160
16.472,0.215,0.185
16.475,0.245,0.180
16.478,0.285,0.140
16.481,0.285,0.090
16.483,0.290,0.090
16.486,0.290,0.100
16.489,0.295,0.135
16.492,0.320,0.155
16.494,0.325,0.175
16.497,0.305,0.170
16.500,0.300,0.165
16.503,0.295,0.140
16.506,0.290,0.180
16.508,0.305,0.230
16.511,0.335,0.250
16.514,0.335,0.205
16.517,0.325,0.145
16.519,0.290,0.095
16.522,0.260,0.130
16.525,0.255,0.165
16.528,0.250,0.175
16.531,0.230,0.160
16.533,0.185,0.190
16.536,0.155,0.225
16.539,0.125,0.265
16.542,0.120,0.245
16.544,0.115,0.220
16.547,0.075,0.205
16.550,0.025,0.245
16.553,-0.015,0.280
16.556,-0.025,0.305
16.558,-0.005,0.280
16.561,0.000,0.270
16.564,-0.020,0.260
16.567,-0.055,0.245
16.569,-0.075,0.250
16.572,-0.065,0.235
16.575,-0.050,0.200
16.578,-0.030,0.170
16.581,-0.045,0.180
16.583,-0.080,0.180
16.586,-0.130,0.220
16.589,-0.145,0.255
16.592,-0.145,0.240
16.594,-0.145,0.200
16.597,-0.140,0.185
16.600,-0.145,0.170
16.603,-0.135,0.160
16.606,-0.135,0.215
16.608,-0.105,0.275
16.611,-0.100,0.295
16.614,-0.120,0.245
16.617,-0.150,0.205
16.619,-0.185,0.240
16.622,-0.175,0.290
16.625,-0.160,0.290
16.628,-0.155,0.250
16.631,-0.145,0.210
16.633,-0.165,0.195
16.636,-0.190,0.185
16.639,-0.225,0.220
16.642,-0.210,0.280
16.644,-0.165,0.285
16.647,-0.165,0.245
16.650,-0.155,0.185
16.653,-0.155,0.195
16.656,-0.160,0.260
16.658,-0.120,0.340
16.661,-0.120,0.385
16.664,-0.115,0.365
16.667,-0.130,0.275
16.669,-0.135,0.180
16.672,-0.120,0.145
16.675,-0.115,0.120
16.678,-0.090,0.140
16.681,-0.110,0.155
16.683,-0.115,0.170
16.686,-0.135,0.200
16.689,-0.140,0.285
16.692,-0.150,0.345
16.694,-0.145,0.350
16.697,-0.165,0.290
16.700,-0.170,0.225
16.703,-0.175,0.165
16.706,-0.165,0.170
16.708,-0.160,0.200
16.711,-0.165,0.230
16.714,-0.200,0.250
16.717,-0.245,0.275
16.719,-0.255,0.320
16.722,-0.235,0.335
16.725,-0.175,0.295
16.728,-0.155,0.225
16.731,-0.160,0.155
16.733,-0.220,0.160
16.736,-0.260,0.210
16.739,-0.285,0.225
16.742,-0.265,0.200
16.744,-0.225,0.160
16.747,-0.235,0.175
16.750,-0.245,0.205
16.753,-0.265,0.235
16.756,-0.250,0.230
16.758,-0.245,0.210
16.761,-0.230,0.215
16.764,-0.230,0.195
16.767,-0.240,0.185
16.769,-0.250,0.165
16.772,-0.245,0.160
16.775,-0.255,0.195
16.778,-0.265,0.225
16.781,-0.275,0.275
16.783,-0.295,0.345
16.786,-0.295,0.355
16.789,-0.275,0.295
16.792,-0.240,0.195
16.794,-0.235,0.115
16.797,-0.245,0.110
16.800,-0.275,0.120
16.803,-0.260,0.105
16.806,-0.250,0.145
16.808,-0.225,0.195
16.811,-0.210,0.190
16.814,-0.225,0.195
16.817,-0.255,0.210
16.819,-0.280,0.225
16.822,-0.315,0.250
16.825,-0.305,0.275
16.828,-0.295,0.270
16.831,-0.290,0.235
16.833,-0.280,0.210
16.836,-0.275,0.250
16.839,-0.205,0.280
16.842,-0.090,0.235
16.844,0.090,0.150
16.847,0.245,0.080
16.850,0.380,0.055
16.853,0.510,0.035
16.856,0.665,-0.005
16.858,0.795,-0.055
16.861,0.870,-0.120
16.864,0.830,-0.190
16.867,0.695,-0.235
16.869,0.470,-0.250
16.872,0.160,-0.230
16.875,-0.175,-0.190
16.878,-0.495,-0.155
16.881,-0.755,-0.100
16.883,-0.880,-0.020
16.886,-0.850,0.090
16.889,-0.755,0.220
16.892,-0.620,0.265
16.894,-0.495,0.230
16.897,-0.415,0.170
16.900,-0.370,0.105
16.903,-0.335,0.095
16.906,-0.305,0.130
16.908,-0.285,0.150
16.911,-0.255,0.185
16.914,-0.255,0.230
16.917,-0.260,0.215
16.919,-0.280,0.225
16.922,-0.295,0.250
16.925,-0.275,0.285
16.928,-0.270,0.300
16.931,-0.270,0.280
16.933,-0.240,0.220
16.936,-0.225,0.185
16.939,-0.220,0.175
16.942,-0.205,0.200
16.944,-0.185,0.210
16.947,-0.180,0.190
16.950,-0.185,0.185
16.953,-0.210,0.210
16.956,-0.210,0.270
16.958,-0.205,0.305
16.961,-0.180,0.300
16.964,-0.160,0.255
16.967,-0.160,0.205
16.969,-0.175,0.160
16.972,-0.150,0.130
16.975,-0.120,0.140
16.978,-0.095,0.160
16.981,-0.085,0.175
16.983,-0.065,0.170
16.986,-0.060,0.155
16.989,-0.040,0.175
16.992,-0.025,0.210
16.994,0.000,0.225
16.997,0.010,0.215
17.000,0.010,0.195
17.003,0.015,0.170
17.006,0.030,0.190
17.008,0.060,0.200
17.011,0.090,0.195
17.014,0.100,0.165
17.017,0.095,0.125
17.019,0.075,0.140
17.022,0.075,0.170
17.025,0.100,0.225
17.028,0.125,0.225
17.031,0.140,0.175
17.033,0.135,0.125
17.036,0.125,0.120
17.039,0.115,0.150
17.042,0.120,0.185
17.044,0.125,0.190
17.047,0.115,0.140
17.050,0.090,0.125
17.053,0.070,0.145
17.056,0.065,0.165
17.058,0.065,0.205
17.061,0.060,0.240
17.064,0.040,0.230
17.067,0.015,0.210
17.069,-0.005,0.185
17.072,-0.025,0.225
17.075,-0.055,0.245
17.078,-0.050,0.220
17.081,-0.075,0.190
17.083,-0.110,0.165
17.086,-0.155,0.175
17.089,-0.185,0.235
17.092,-0.190,0.255
17.094,-0.195,0.265
17.097,-0.220,0.270
17.100,-0.250,0.250
17.103,-0.255,0.240
17.106,-0.270,0.240
17.108,-0.260,0.235
17.111,-0.260,0.240
