'Elapsed time','MLII','V1'
'seconds','mV','mV'
0.000,-0.140,-0.375
0.003,-0.140,-0.375
0.006,-0.140,-0.375
0.008,-0.140,-0.375
0.011,-0.140,-0.375
0.014,-0.140,-0.375
0.017,-0.140,-0.375
0.019,-0.140,-0.375
0.022,-0.140,-0.350
0.025,-0.115,-0.355
0.028,-0.140,-0.370
0.031,-0.140,-0.385
0.033,-0.155,-0.385
0.036,-0.145,-0.365
0.039,-0.130,-0.360
0.042,-0.110,-0.360
0.044,-0.125,-0.360
0.047,-0.125,-0.375
0.050,-0.130,-0.360
0.053,-0.125,-0.350
0.056,-0.100,-0.335
0.058,-0.075,-0.320
0.061,-0.075,-0.320
0.064,-0.070,-0.340
0.067,-0.075,-0.325
0.069,-0.070,-0.320
0.072,-0.060,-0.295
0.075,-0.025,-0.280
0.078,-0.020,-0.285
0.081,-0.005,-0.290
0.083,0.005,-0.300
0.086,0.050,-0.310
0.089,0.115,-0.330
0.092,0.160,-0.360
0.094,0.170,-0.380
0.097,0.175,-0.380
0.100,0.165,-0.390
0.103,0.170,-0.380
0.106,0.150,-0.380
0.108,0.185,-0.380
0.111,0.135,-0.385
0.114,0.105,-0.390
0.117,0.080,-0.390
0.119,0.065,-0.365
0.122,0.060,-0.355
0.125,0.060,-0.345
0.128,0.015,-0.380
0.131,-0.025,-0.395
0.133,-0.070,-0.405
0.136,-0.090,-0.395
0.139,-0.120,-0.375
0.142,-0.130,-0.385
0.144,-0.120,-0.395
0.147,-0.150,-0.415
0.150,-0.170,-0.400
0.153,-0.175,-0.395
0.156,-0.165,-0.390
0.158,-0.145,-0.385
0.161,-0.155,-0.400
0.164,-0.160,-0.395
0.167,-0.160,-0.385
0.169,-0.150,-0.375
0.172,-0.140,-0.380
0.175,-0.120,-0.385
0.178,-0.140,-0.395
0.181,-0.155,-0.390
0.183,-0.155,-0.375
0.186,-0.135,-0.335
0.189,-0.130,-0.285
0.192,-0.110,-0.245
0.194,-0.105,-0.255
0.197,-0.130,-0.330
0.200,-0.140,-0.440
0.203,-0.140,-0.585
0.206,-0.140,-0.790
0.208,-0.100,-1.025
0.211,0.020,-1.210
0.214,0.180,-1.345
0.217,0.380,-1.380
0.219,0.605,-1.310
0.222,0.790,-1.195
0.225,0.895,-1.075
0.228,0.840,-0.930
0.231,0.590,-0.780
0.233,0.225,-0.635
0.236,-0.055,-0.475
0.239,-0.185,-0.360
0.242,-0.190,-0.310
0.244,-0.195,-0.295
0.247,-0.160,-0.290
0.250,-0.135,-0.295
0.253,-0.125,-0.280
0.256,-0.100,-0.275
0.258,-0.100,-0.280
0.261,-0.120,-0.290
0.264,-0.135,-0.305
0.267,-0.155,-0.290
0.269,-0.150,-0.285
0.272,-0.125,-0.285
0.275,-0.105,-0.295
0.278,-0.100,-0.300
0.281,-0.115,-0.305
0.283,-0.125,-0.305
0.286,-0.120,-0.295
0.289,-0.100,-0.295
0.292,-0.095,-0.290
0.294,-0.105,-0.300
0.297,-0.115,-0.330
0.300,-0.120,-0.320
0.303,-0.110,-0.305
0.306,-0.105,-0.290
0.308,-0.095,-0.295
0.311,-0.095,-0.305
0.314,-0.110,-0.315
0.317,-0.110,-0.320
0.319,-0.105,-0.305
0.322,-0.090,-0.295
0.325,-0.085,-0.310
0.328,-0.090,-0.310
0.331,-0.115,-0.320
0.333,-0.105,-0.325
0.336,-0.090,-0.305
0.339,-0.085,-0.300
0.342,-0.085,-0.285
0.344,-0.085,-0.310
0.347,-0.090,-0.315
0.350,-0.100,-0.310
0.353,-0.095,-0.295
0.356,-0.080,-0.285
0.358,-0.060,-0.285
0.361,-0.075,-0.295
0.364,-0.080,-0.315
0.367,-0.085,-0.320
0.369,-0.075,-0.300
0.372,-0.070,-0.285
0.375,-0.055,-0.290
0.378,-0.070,-0.305
0.381,-0.085,-0.300
0.383,-0.080,-0.310
0.386,-0.085,-0.295
0.389,-0.055,-0.300
0.392,-0.040,-0.290
0.394,-0.050,-0.295
0.397,-0.065,-0.305
0.400,-0.060,-0.305
0.403,-0.065,-0.295
0.406,-0.050,-0.285
0.408,-0.035,-0.290
0.411,-0.045,-0.290
0.414,-0.045,-0.290
0.417,-0.045,-0.305
0.419,-0.045,-0.290
0.422,-0.030,-0.270
0.425,-0.035,-0.265
0.428,-0.020,-0.285
0.431,-0.040,-0.295
0.433,-0.050,-0.310
0.436,-0.055,-0.290
0.439,-0.030,-0.280
0.442,-0.025,-0.270
0.444,-0.030,-0.290
0.447,-0.055,-0.300
0.450,-0.055,-0.295
0.453,-0.050,-0.280
0.456,-0.040,-0.270
0.458,-0.040,-0.290
0.461,-0.050,-0.295
0.464,-0.065,-0.300
0.467,-0.085,-0.295
0.469,-0.080,-0.295
0.472,-0.080,-0.280
0.475,-0.070,-0.285
0.478,-0.070,-0.310
0.481,-0.080,-0.315
0.483,-0.090,-0.315
0.486,-0.090,-0.310
0.489,-0.095,-0.310
0.492,-0.090,-0.300
0.494,-0.090,-0.310
0.497,-0.115,-0.320
0.500,-0.135,-0.330
0.503,-0.115,-0.325
0.506,-0.105,-0.320
0.508,-0.100,-0.330
0.511,-0.110,-0.335
0.514,-0.125,-0.340
0.517,-0.140,-0.335
0.519,-0.140,-0.330
0.522,-0.120,-0.320
0.525,-0.115,-0.330
0.528,-0.130,-0.345
0.531,-0.135,-0.360
0.533,-0.150,-0.360
0.536,-0.145,-0.340
0.539,-0.130,-0.325
0.542,-0.130,-0.335
0.544,-0.145,-0.340
0.547,-0.150,-0.375
0.550,-0.160,-0.360
0.553,-0.150,-0.350
0.556,-0.130,-0.335
0.558,-0.125,-0.335
0.561,-0.125,-0.350
0.564,-0.155,-0.370
0.567,-0.155,-0.360
0.569,-0.155,-0.350
0.572,-0.140,-0.340
0.575,-0.125,-0.350
0.578,-0.130,-0.355
0.581,-0.135,-0.370
0.583,-0.150,-0.360
0.586,-0.155,-0.345
0.589,-0.135,-0.340
0.592,-0.130,-0.340
0.594,-0.135,-0.350
0.597,-0.140,-0.365
0.600,-0.165,-0.360
0.603,-0.150,-0.360
0.606,-0.135,-0.340
0.608,-0.125,-0.330
0.611,-0.145,-0.350
0.614,-0.150,-0.360
0.617,-0.160,-0.365
0.619,-0.155,-0.355
0.622,-0.135,-0.345
0.625,-0.140,-0.350
0.628,-0.150,-0.355
0.631,-0.145,-0.375
0.633,-0.160,-0.365
0.636,-0.155,-0.360
0.639,-0.150,-0.335
0.642,-0.130,-0.350
0.644,-0.125,-0.365
0.647,-0.145,-0.385
0.650,-0.150,-0.375
0.653,-0.145,-0.365
0.656,-0.135,-0.360
0.658,-0.120,-0.355
0.661,-0.130,-0.360
0.664,-0.130,-0.370
0.667,-0.150,-0.380
0.669,-0.130,-0.355
0.672,-0.125,-0.365
0.675,-0.110,-0.350
0.678,-0.120,-0.365
0.681,-0.135,-0.385
0.683,-0.140,-0.385
0.686,-0.130,-0.355
0.689,-0.115,-0.350
0.692,-0.105,-0.360
0.694,-0.110,-0.365
0.697,-0.115,-0.375
0.700,-0.125,-0.380
0.703,-0.125,-0.360
0.706,-0.105,-0.355
0.708,-0.100,-0.340
0.711,-0.105,-0.355
0.714,-0.110,-0.365
0.717,-0.120,-0.375
0.719,-0.110,-0.365
0.722,-0.100,-0.350
0.725,-0.080,-0.355
0.728,-0.085,-0.360
0.731,-0.120,-0.385
0.733,-0.110,-0.380
0.736,-0.105,-0.370
0.739,-0.105,-0.355
0.742,-0.090,-0.360
0.744,-0.085,-0.375
0.747,-0.105,-0.380
0.750,-0.120,-0.365
0.753,-0.105,-0.365
0.756,-0.105,-0.355
0.758,-0.090,-0.355
0.761,-0.090,-0.365
0.764,-0.115,-0.390
0.767,-0.130,-0.380
0.769,-0.110,-0.370
0.772,-0.095,-0.355
0.775,-0.085,-0.355
0.778,-0.095,-0.365
0.781,-0.095,-0.385
0.783,-0.120,-0.380
0.786,-0.100,-0.370
0.789,-0.090,-0.350
0.792,-0.100,-0.360
0.794,-0.095,-0.370
0.797,-0.105,-0.380
0.800,-0.110,-0.385
0.803,-0.100,-0.370
0.806,-0.090,-0.355
0.808,-0.070,-0.360
0.811,-0.085,-0.370
0.814,-0.095,-0.365
0.817,-0.110,-0.375
0.819,-0.090,-0.365
0.822,-0.085,-0.350
0.825,-0.075,-0.340
0.828,-0.085,-0.360
0.831,-0.095,-0.375
0.833,-0.125,-0.360
0.836,-0.090,-0.340
0.839,-0.070,-0.325
0.842,-0.055,-0.320
0.844,-0.060,-0.325
0.847,-0.045,-0.335
0.850,-0.055,-0.320
0.853,-0.050,-0.310
0.856,-0.020,-0.290
0.858,-0.005,-0.285
0.861,0.000,-0.295
0.864,0.020,-0.290
0.867,0.020,-0.285
0.869,0.050,-0.290
0.872,0.115,-0.310
0.875,0.175,-0.340
0.878,0.200,-0.380
0.881,0.200,-0.400
0.883,0.180,-0.410
0.886,0.200,-0.400
0.889,0.205,-0.385
0.892,0.190,-0.385
0.894,0.145,-0.395
0.897,0.115,-0.400
0.900,0.095,-0.385
0.903,0.075,-0.360
0.906,0.070,-0.350
0.908,0.065,-0.370
0.911,0.020,-0.385
0.914,-0.020,-0.395
0.917,-0.075,-0.395
0.919,-0.085,-0.405
0.922,-0.105,-0.395
0.925,-0.100,-0.395
0.928,-0.120,-0.410
0.931,-0.160,-0.410
0.933,-0.160,-0.405
0.936,-0.155,-0.395
0.939,-0.145,-0.395
0.942,-0.130,-0.395
0.944,-0.145,-0.400
0.947,-0.155,-0.410
0.950,-0.150,-0.410
0.953,-0.145,-0.410
0.956,-0.135,-0.390
0.958,-0.115,-0.380
0.961,-0.120,-0.375
0.964,-0.115,-0.375
0.967,-0.125,-0.340
0.969,-0.130,-0.290
0.972,-0.115,-0.270
0.975,-0.105,-0.300
0.978,-0.100,-0.395
0.981,-0.115,-0.550
0.983,-0.155,-0.755
0.986,-0.140,-0.990
0.989,-0.040,-1.180
0.992,0.140,-1.325
0.994,0.365,-1.340
0.997,0.570,-1.285
1.000,0.735,-1.160
1.003,0.805,-0.995
1.006,0.725,-0.830
1.008,0.465,-0.665
1.011,0.150,-0.540
1.014,-0.075,-0.435
1.017,-0.175,-0.370
1.019,-0.175,-0.340
1.022,-0.140,-0.310
1.025,-0.110,-0.310
1.028,-0.105,-0.330
1.031,-0.135,-0.345
1.033,-0.155,-0.360
1.036,-0.160,-0.340
1.039,-0.130,-0.330
1.042,-0.120,-0.330
1.044,-0.120,-0.350
1.047,-0.140,-0.365
1.050,-0.150,-0.360
1.053,-0.160,-0.350
1.056,-0.140,-0.340
1.058,-0.120,-0.345
1.061,-0.125,-0.345
1.064,-0.135,-0.375
1.067,-0.160,-0.355
1.069,-0.155,-0.350
1.072,-0.125,-0.340
1.075,-0.110,-0.340
1.078,-0.120,-0.355
1.081,-0.130,-0.370
1.083,-0.120,-0.375
1.086,-0.105,-0.375
1.089,-0.100,-0.355
1.092,-0.075,-0.360
1.094,-0.075,-0.370
1.097,-0.080,-0.390
1.100,-0.095,-0.390
1.103,-0.085,-0.370
1.106,-0.075,-0.360
1.108,-0.055,-0.365
1.111,-0.055,-0.360
1.114,-0.075,-0.375
1.117,-0.070,-0.375
1.119,-0.075,-0.360
1.122,-0.080,-0.345
1.125,-0.070,-0.340
1.128,-0.085,-0.360
1.131,-0.100,-0.365
1.133,-0.110,-0.340
1.136,-0.100,-0.335
1.139,-0.115,-0.325
1.142,-0.085,-0.335
1.144,-0.085,-0.330
1.147,-0.105,-0.365
1.150,-0.110,-0.350
1.153,-0.120,-0.335
1.156,-0.120,-0.325
1.158,-0.105,-0.315
1.161,-0.115,-0.325
1.164,-0.120,-0.330
1.167,-0.135,-0.325
1.169,-0.105,-0.320
1.172,-0.100,-0.300
1.175,-0.085,-0.305
1.178,-0.095,-0.305
1.181,-0.115,-0.315
1.183,-0.115,-0.315
1.186,-0.120,-0.300
1.189,-0.110,-0.295
1.192,-0.095,-0.310
1.194,-0.095,-0.320
1.197,-0.105,-0.325
1.200,-0.120,-0.320
1.203,-0.110,-0.300
1.206,-0.100,-0.285
1.208,-0.085,-0.280
1.211,-0.105,-0.300
1.214,-0.120,-0.310
1.217,-0.125,-0.310
1.219,-0.120,-0.315
1.222,-0.130,-0.295
1.225,-0.115,-0.310
1.228,-0.125,-0.310
1.231,-0.150,-0.325
1.233,-0.175,-0.330
1.236,-0.170,-0.320
1.239,-0.140,-0.305
1.242,-0.145,-0.315
1.244,-0.155,-0.330
1.247,-0.175,-0.350
1.250,-0.185,-0.340
1.253,-0.205,-0.335
1.256,-0.210,-0.335
1.258,-0.190,-0.340
1.261,-0.200,-0.345
1.264,-0.210,-0.365
1.267,-0.220,-0.365
1.269,-0.230,-0.360
1.272,-0.210,-0.335
1.275,-0.190,-0.355
1.278,-0.195,-0.355
1.281,-0.210,-0.380
1.283,-0.240,-0.360
1.286,-0.235,-0.365
1.289,-0.235,-0.350
1.292,-0.210,-0.365
1.294,-0.220,-0.365
1.297,-0.225,-0.365
1.300,-0.245,-0.365
1.303,-0.235,-0.355
1.306,-0.225,-0.355
1.308,-0.220,-0.350
1.311,-0.235,-0.350
1.314,-0.245,-0.365
1.317,-0.260,-0.375
1.319,-0.255,-0.350
1.322,-0.245,-0.350
1.325,-0.230,-0.360
1.328,-0.230,-0.370
1.331,-0.250,-0.385
1.333,-0.270,-0.375
1.336,-0.250,-0.360
1.339,-0.250,-0.350
1.342,-0.260,-0.360
1.344,-0.260,-0.365
1.347,-0.275,-0.375
1.350,-0.290,-0.360
1.353,-0.285,-0.365
1.356,-0.265,-0.350
1.358,-0.260,-0.355
1.361,-0.255,-0.370
1.364,-0.265,-0.380
1.367,-0.275,-0.380
1.369,-0.265,-0.370
1.372,-0.270,-0.365
1.375,-0.265,-0.365
1.378,-0.255,-0.385
1.381,-0.265,-0.395
1.383,-0.280,-0.380
1.386,-0.265,-0.365
1.389,-0.265,-0.360
1.392,-0.250,-0.375
1.394,-0.260,-0.385
1.397,-0.270,-0.400
1.400,-0.270,-0.400
1.403,-0.255,-0.375
1.406,-0.245,-0.350
1.408,-0.225,-0.365
1.411,-0.225,-0.375
1.414,-0.260,-0.395
1.417,-0.265,-0.390
1.419,-0.260,-0.390
1.422,-0.255,-0.380
1.425,-0.245,-0.395
1.428,-0.235,-0.395
1.431,-0.270,-0.405
1.433,-0.250,-0.405
1.436,-0.250,-0.395
1.439,-0.225,-0.375
1.442,-0.225,-0.390
1.444,-0.225,-0.400
1.447,-0.235,-0.415
1.450,-0.245,-0.410
1.453,-0.240,-0.400
1.456,-0.230,-0.385
1.458,-0.225,-0.390
1.461,-0.235,-0.415
1.464,-0.240,-0.425
1.467,-0.250,-0.415
1.469,-0.245,-0.400
1.472,-0.245,-0.390
1.475,-0.190,-0.390
1.478,-0.215,-0.400
1.481,-0.215,-0.415
1.483,-0.235,-0.410
1.486,-0.225,-0.395
1.489,-0.225,-0.405
1.492,-0.220,-0.390
1.494,-0.200,-0.405
1.497,-0.220,-0.430
1.500,-0.230,-0.430
1.503,-0.235,-0.410
1.506,-0.220,-0.395
1.508,-0.205,-0.405
1.511,-0.205,-0.405
1.514,-0.195,-0.415
1.517,-0.230,-0.420
1.519,-0.205,-0.400
1.522,-0.200,-0.390
1.525,-0.190,-0.385
1.528,-0.195,-0.405
1.531,-0.215,-0.420
1.533,-0.215,-0.415
1.536,-0.200,-0.400
1.539,-0.190,-0.380
1.542,-0.170,-0.390
1.544,-0.175,-0.400
1.547,-0.185,-0.420
1.550,-0.210,-0.425
1.553,-0.190,-0.405
1.556,-0.185,-0.385
1.558,-0.185,-0.390
1.561,-0.190,-0.400
1.564,-0.185,-0.415
1.567,-0.200,-0.420
1.569,-0.200,-0.390
1.572,-0.180,-0.390
1.575,-0.180,-0.395
1.578,-0.175,-0.405
1.581,-0.200,-0.410
1.583,-0.195,-0.410
1.586,-0.200,-0.385
1.589,-0.190,-0.385
1.592,-0.190,-0.385
1.594,-0.175,-0.400
1.597,-0.180,-0.405
1.600,-0.200,-0.410
1.603,-0.195,-0.400
1.606,-0.165,-0.380
1.608,-0.155,-0.380
1.611,-0.175,-0.405
1.614,-0.195,-0.405
1.617,-0.195,-0.395
1.619,-0.185,-0.390
1.622,-0.165,-0.375
1.625,-0.150,-0.385
1.628,-0.145,-0.375
1.631,-0.150,-0.385
1.633,-0.170,-0.365
1.636,-0.150,-0.345
1.639,-0.135,-0.330
1.642,-0.105,-0.330
1.644,-0.110,-0.335
1.647,-0.110,-0.355
1.650,-0.100,-0.355
1.653,-0.080,-0.345
1.656,-0.055,-0.335
1.658,-0.015,-0.350
1.661,0.000,-0.380
1.664,0.020,-0.415
1.667,0.030,-0.430
1.669,0.055,-0.440
1.672,0.065,-0.415
1.675,0.090,-0.425
1.678,0.090,-0.440
1.681,0.065,-0.450
1.683,0.045,-0.435
1.686,0.050,-0.420
1.689,0.030,-0.405
1.692,0.030,-0.395
1.694,-0.010,-0.395
1.697,-0.025,-0.410
1.700,-0.050,-0.395
1.703,-0.070,-0.390
1.706,-0.090,-0.385
1.708,-0.090,-0.395
1.711,-0.145,-0.390
1.714,-0.175,-0.415
1.717,-0.185,-0.415
1.719,-0.205,-0.420
1.722,-0.205,-0.385
1.725,-0.200,-0.395
1.728,-0.200,-0.420
1.731,-0.200,-0.420
1.733,-0.210,-0.425
1.736,-0.215,-0.395
1.739,-0.200,-0.390
1.742,-0.190,-0.380
1.744,-0.190,-0.395
1.747,-0.195,-0.405
1.750,-0.205,-0.400
1.753,-0.185,-0.365
1.756,-0.180,-0.330
1.758,-0.170,-0.310
1.761,-0.165,-0.330
1.764,-0.180,-0.350
1.767,-0.190,-0.430
1.769,-0.195,-0.505
1.772,-0.210,-0.610
1.775,-0.230,-0.775
1.778,-0.215,-0.945
1.781,-0.145,-1.105
1.783,-0.005,-1.200
1.786,0.190,-1.220
1.789,0.415,-1.170
1.792,0.615,-1.075
1.794,0.695,-0.960
1.797,0.580,-0.835
1.800,0.275,-0.690
1.803,-0.020,-0.535
1.806,-0.195,-0.415
1.808,-0.260,-0.350
1.811,-0.250,-0.325
1.814,-0.245,-0.335
1.817,-0.205,-0.325
1.819,-0.165,-0.305
1.822,-0.155,-0.290
1.825,-0.140,-0.295
1.828,-0.155,-0.305
1.831,-0.180,-0.325
1.833,-0.195,-0.325
1.836,-0.190,-0.305
1.839,-0.185,-0.305
1.842,-0.165,-0.300
1.844,-0.190,-0.315
1.847,-0.180,-0.325
1.850,-0.200,-0.325
1.853,-0.185,-0.300
1.856,-0.175,-0.295
1.858,-0.170,-0.290
1.861,-0.175,-0.305
1.864,-0.175,-0.320
1.867,-0.180,-0.305
1.869,-0.160,-0.295
1.872,-0.160,-0.300
1.875,-0.150,-0.280
1.878,-0.150,-0.295
1.881,-0.155,-0.300
1.883,-0.160,-0.315
1.886,-0.155,-0.290
1.889,-0.145,-0.290
1.892,-0.125,-0.290
1.894,-0.135,-0.305
1.897,-0.150,-0.315
1.900,-0.155,-0.305
1.903,-0.150,-0.295
1.906,-0.135,-0.290
1.908,-0.120,-0.285
1.911,-0.120,-0.290
1.914,-0.130,-0.305
1.917,-0.145,-0.305
1.919,-0.130,-0.290
1.922,-0.125,-0.280
1.925,-0.120,-0.290
1.928,-0.115,-0.290
1.931,-0.125,-0.315
1.933,-0.145,-0.305
1.936,-0.135,-0.300
1.939,-0.130,-0.280
1.942,-0.110,-0.295
1.944,-0.115,-0.295
1.947,-0.110,-0.310
1.950,-0.135,-0.310
1.953,-0.130,-0.295
1.956,-0.105,-0.290
1.958,-0.090,-0.285
1.961,-0.100,-0.295
1.964,-0.110,-0.305
1.967,-0.125,-0.300
1.969,-0.100,-0.290
1.972,-0.090,-0.275
1.975,-0.085,-0.270
1.978,-0.095,-0.285
1.981,-0.095,-0.305
1.983,-0.095,-0.295
1.986,-0.100,-0.285
1.989,-0.095,-0.280
1.992,-0.085,-0.280
1.994,-0.075,-0.290
1.997,-0.100,-0.305
2.000,-0.095,-0.300
2.003,-0.095,-0.295
2.006,-0.085,-0.275
2.008,-0.080,-0.290
2.011,-0.080,-0.290
2.014,-0.110,-0.315
2.017,-0.135,-0.315
2.019,-0.120,-0.295
2.022,-0.120,-0.285
2.025,-0.105,-0.285
2.028,-0.115,-0.305
2.031,-0.135,-0.310
2.033,-0.145,-0.305
2.036,-0.160,-0.310
2.039,-0.135,-0.300
2.042,-0.140,-0.300
2.044,-0.160,-0.305
2.047,-0.165,-0.320
2.050,-0.185,-0.315
2.053,-0.170,-0.310
2.056,-0.160,-0.305
2.058,-0.150,-0.300
2.061,-0.160,-0.325
2.064,-0.155,-0.325
2.067,-0.175,-0.320
2.069,-0.175,-0.310
2.072,-0.150,-0.295
2.075,-0.145,-0.295
2.078,-0.155,-0.310
2.081,-0.155,-0.320
2.083,-0.180,-0.320
2.086,-0.160,-0.305
2.089,-0.165,-0.295
2.092,-0.150,-0.305
2.094,-0.155,-0.320
2.097,-0.170,-0.315
2.100,-0.185,-0.325
2.103,-0.170,-0.305
2.106,-0.170,-0.285
2.108,-0.160,-0.290
2.111,-0.165,-0.320
2.114,-0.180,-0.320
2.117,-0.190,-0.325
2.119,-0.185,-0.320
2.122,-0.155,-0.305
2.125,-0.155,-0.310
2.128,-0.175,-0.310
2.131,-0.190,-0.325
2.133,-0.190,-0.320
2.136,-0.180,-0.300
2.139,-0.175,-0.305
2.142,-0.160,-0.315
2.144,-0.160,-0.315
2.147,-0.185,-0.345
2.150,-0.185,-0.325
2.153,-0.195,-0.325
2.156,-0.170,-0.310
2.158,-0.170,-0.305
2.161,-0.175,-0.330
2.164,-0.185,-0.330
2.167,-0.185,-0.335
2.169,-0.185,-0.340
2.172,-0.170,-0.310
2.175,-0.155,-0.310
2.178,-0.165,-0.315
2.181,-0.170,-0.345
2.183,-0.190,-0.340
2.186,-0.180,-0.325
2.189,-0.170,-0.310
2.192,-0.160,-0.330
2.194,-0.155,-0.335
2.197,-0.175,-0.345
2.200,-0.180,-0.340
2.203,-0.180,-0.330
2.206,-0.155,-0.325
2.208,-0.160,-0.315
2.211,-0.160,-0.325
2.214,-0.165,-0.345
2.217,-0.165,-0.345
2.219,-0.155,-0.325
2.222,-0.150,-0.310
2.225,-0.125,-0.320
2.228,-0.130,-0.345
2.231,-0.155,-0.345
2.233,-0.170,-0.345
2.236,-0.165,-0.330
2.239,-0.150,-0.315
2.242,-0.130,-0.320
2.244,-0.145,-0.325
2.247,-0.155,-0.335
2.250,-0.170,-0.340
2.253,-0.160,-0.330
2.256,-0.155,-0.325
2.258,-0.145,-0.320
2.261,-0.145,-0.345
2.264,-0.170,-0.355
2.267,-0.165,-0.345
2.269,-0.150,-0.330
2.272,-0.145,-0.310
2.275,-0.140,-0.320
2.278,-0.145,-0.330
2.281,-0.155,-0.340
2.283,-0.175,-0.340
2.286,-0.160,-0.330
2.289,-0.140,-0.310
2.292,-0.115,-0.325
2.294,-0.135,-0.330
2.297,-0.150,-0.335
2.300,-0.150,-0.340
2.303,-0.150,-0.340
2.306,-0.125,-0.310
2.308,-0.115,-0.305
2.311,-0.115,-0.310
2.314,-0.130,-0.340
2.317,-0.150,-0.325
2.319,-0.140,-0.315
2.322,-0.140,-0.315
2.325,-0.120,-0.300
2.328,-0.115,-0.295
2.331,-0.115,-0.310
2.333,-0.110,-0.305
2.336,-0.100,-0.280
2.339,-0.070,-0.270
2.342,-0.050,-0.265
2.344,-0.045,-0.270
2.347,-0.040,-0.280
2.350,-0.060,-0.265
2.353,-0.040,-0.260
2.356,-0.005,-0.250
2.358,0.055,-0.250
2.361,0.110,-0.305
2.364,0.140,-0.320
2.367,0.155,-0.340
2.369,0.160,-0.315
2.372,0.150,-0.305
2.375,0.170,-0.315
2.378,0.160,-0.330
2.381,0.125,-0.345
2.383,0.095,-0.340
2.386,0.080,-0.335
2.389,0.065,-0.310
2.392,0.085,-0.320
2.394,0.065,-0.320
2.397,0.020,-0.345
2.400,-0.025,-0.345
2.403,-0.070,-0.335
2.406,-0.095,-0.335
2.408,-0.110,-0.330
2.411,-0.130,-0.335
2.414,-0.165,-0.360
2.417,-0.175,-0.355
2.419,-0.185,-0.340
2.422,-0.165,-0.335
2.425,-0.150,-0.335
2.428,-0.155,-0.345
2.431,-0.175,-0.355
2.433,-0.180,-0.345
2.436,-0.160,-0.325
2.439,-0.170,-0.315
2.442,-0.140,-0.305
2.444,-0.130,-0.290
2.447,-0.145,-0.300
2.450,-0.160,-0.310
2.453,-0.160,-0.380
2.456,-0.160,-0.505
2.458,-0.160,-0.690
2.461,-0.145,-0.865
2.464,-0.065,-1.005
2.467,0.115,-1.070
2.469,0.360,-1.060
2.472,0.575,-1.005
2.475,0.735,-0.945
2.478,0.795,-0.875
2.481,0.760,-0.785
2.483,0.560,-0.700
2.486,0.310,-0.580
2.489,0.050,-0.470
2.492,-0.120,-0.395
2.494,-0.215,-0.340
2.497,-0.245,-0.310
2.500,-0.230,-0.265
2.503,-0.190,-0.255
2.506,-0.150,-0.235
2.508,-0.120,-0.230
2.511,-0.120,-0.245
2.514,-0.155,-0.250
2.517,-0.170,-0.255
2.519,-0.165,-0.230
2.522,-0.150,-0.215
2.525,-0.140,-0.235
2.528,-0.160,-0.245
2.531,-0.160,-0.260
2.533,-0.160,-0.255
2.536,-0.160,-0.245
2.539,-0.150,-0.225
2.542,-0.140,-0.220
2.544,-0.140,-0.230
2.547,-0.155,-0.240
2.550,-0.155,-0.250
2.553,-0.155,-0.235
2.556,-0.140,-0.225
2.558,-0.130,-0.225
2.561,-0.125,-0.235
2.564,-0.125,-0.240
2.567,-0.135,-0.245
2.569,-0.140,-0.230
2.572,-0.120,-0.215
2.575,-0.120,-0.215
2.578,-0.115,-0.240
2.581,-0.120,-0.255
2.583,-0.125,-0.235
2.586,-0.120,-0.230
2.589,-0.100,-0.225
2.592,-0.090,-0.230
2.594,-0.095,-0.235
2.597,-0.110,-0.260
2.600,-0.105,-0.245
2.603,-0.120,-0.235
2.606,-0.100,-0.225
2.608,-0.095,-0.225
2.611,-0.110,-0.225
2.614,-0.105,-0.250
2.617,-0.125,-0.245
2.619,-0.110,-0.225
2.622,-0.105,-0.220
2.625,-0.085,-0.205
2.628,-0.095,-0.230
2.631,-0.095,-0.235
2.633,-0.110,-0.225
2.636,-0.100,-0.225
2.639,-0.090,-0.200
2.642,-0.070,-0.205
2.644,-0.070,-0.220
2.647,-0.080,-0.235
2.650,-0.105,-0.230
2.653,-0.085,-0.210
2.656,-0.075,-0.200
2.658,-0.050,-0.205
2.661,-0.055,-0.205
2.664,-0.060,-0.220
2.667,-0.070,-0.225
2.669,-0.080,-0.205
2.672,-0.075,-0.190
2.675,-0.045,-0.210
2.678,-0.045,-0.215
2.681,-0.060,-0.220
2.683,-0.060,-0.215
2.686,-0.055,-0.205
2.689,-0.045,-0.190
2.692,-0.050,-0.195
2.694,-0.055,-0.205
2.697,-0.055,-0.230
2.700,-0.065,-0.225
2.703,-0.065,-0.200
2.706,-0.040,-0.175
2.708,-0.045,-0.185
2.711,-0.050,-0.200
2.714,-0.070,-0.225
2.717,-0.085,-0.205
2.719,-0.075,-0.205
2.722,-0.065,-0.205
2.725,-0.065,-0.200
2.728,-0.065,-0.225
2.731,-0.080,-0.235
2.733,-0.100,-0.235
2.736,-0.095,-0.215
2.739,-0.100,-0.205
2.742,-0.100,-0.225
2.744,-0.105,-0.235
2.747,-0.120,-0.250
2.750,-0.120,-0.235
2.753,-0.130,-0.230
2.756,-0.120,-0.220
2.758,-0.105,-0.235
2.761,-0.120,-0.245
2.764,-0.140,-0.260
2.767,-0.150,-0.250
2.769,-0.130,-0.230
2.772,-0.130,-0.245
2.775,-0.130,-0.255
2.778,-0.135,-0.270
2.781,-0.145,-0.270
2.783,-0.150,-0.255
2.786,-0.140,-0.245
2.789,-0.135,-0.255
2.792,-0.160,-0.275
2.794,-0.165,-0.280
2.797,-0.165,-0.280
2.800,-0.155,-0.265
2.803,-0.150,-0.265
2.806,-0.135,-0.245
2.808,-0.125,-0.255
2.811,-0.160,-0.280
2.814,-0.160,-0.275
2.817,-0.160,-0.270
2.819,-0.150,-0.260
2.822,-0.135,-0.265
2.825,-0.150,-0.255
2.828,-0.150,-0.280
2.831,-0.145,-0.270
2.833,-0.135,-0.265
2.836,-0.120,-0.260
2.839,-0.115,-0.260
2.842,-0.120,-0.270
2.844,-0.125,-0.290
2.847,-0.155,-0.290
2.850,-0.140,-0.275
2.853,-0.135,-0.260
2.856,-0.115,-0.265
2.858,-0.125,-0.285
2.861,-0.145,-0.300
2.864,-0.165,-0.290
2.867,-0.155,-0.290
2.869,-0.135,-0.260
2.872,-0.120,-0.280
2.875,-0.125,-0.280
2.878,-0.145,-0.290
2.881,-0.155,-0.295
2.883,-0.145,-0.280
2.886,-0.140,-0.270
2.889,-0.140,-0.290
2.892,-0.145,-0.285
2.894,-0.160,-0.300
2.897,-0.160,-0.305
2.900,-0.150,-0.285
2.903,-0.145,-0.280
2.906,-0.155,-0.290
2.908,-0.155,-0.300
2.911,-0.155,-0.320
2.914,-0.150,-0.300
2.917,-0.160,-0.290
2.919,-0.145,-0.275
2.922,-0.140,-0.285
2.925,-0.140,-0.285
2.928,-0.160,-0.305
2.931,-0.165,-0.295
2.933,-0.140,-0.290
2.936,-0.140,-0.290
2.939,-0.130,-0.290
2.942,-0.125,-0.300
2.944,-0.140,-0.315
2.947,-0.140,-0.305
2.950,-0.135,-0.295
2.953,-0.125,-0.280
2.956,-0.115,-0.290
2.958,-0.125,-0.285
2.961,-0.140,-0.300
2.964,-0.135,-0.305
2.967,-0.125,-0.285
2.969,-0.120,-0.285
2.972,-0.110,-0.285
2.975,-0.120,-0.305
2.978,-0.125,-0.305
2.981,-0.145,-0.300
2.983,-0.140,-0.300
2.986,-0.120,-0.295
2.989,-0.100,-0.285
2.992,-0.100,-0.295
2.994,-0.115,-0.310
2.997,-0.115,-0.305
3.000,-0.120,-0.290
3.003,-0.095,-0.280
3.006,-0.105,-0.285
3.008,-0.110,-0.300
3.011,-0.110,-0.305
3.014,-0.120,-0.305
3.017,-0.105,-0.295
3.019,-0.120,-0.285
3.022,-0.110,-0.290
3.025,-0.105,-0.285
3.028,-0.110,-0.305
3.031,-0.115,-0.310
3.033,-0.115,-0.305
3.036,-0.100,-0.280
3.039,-0.090,-0.290
3.042,-0.090,-0.295
3.044,-0.095,-0.310
3.047,-0.100,-0.295
3.050,-0.100,-0.295
3.053,-0.100,-0.280
3.056,-0.080,-0.290
3.058,-0.080,-0.305
3.061,-0.090,-0.315
3.064,-0.090,-0.305
3.067,-0.095,-0.290
3.069,-0.090,-0.275
3.072,-0.070,-0.285
3.075,-0.075,-0.290
3.078,-0.090,-0.310
3.081,-0.090,-0.310
3.083,-0.100,-0.295
3.086,-0.090,-0.285
3.089,-0.085,-0.290
3.092,-0.080,-0.305
3.094,-0.080,-0.315
3.097,-0.100,-0.305
3.100,-0.095,-0.290
3.103,-0.075,-0.280
3.106,-0.065,-0.290
3.108,-0.070,-0.295
3.111,-0.105,-0.295
3.114,-0.100,-0.305
3.117,-0.095,-0.285
3.119,-0.075,-0.265
3.122,-0.065,-0.290
3.125,-0.065,-0.285
3.128,-0.075,-0.315
3.131,-0.075,-0.310
3.133,-0.060,-0.295
3.136,-0.055,-0.270
3.139,-0.045,-0.255
3.142,-0.050,-0.255
3.144,-0.055,-0.265
3.147,-0.065,-0.250
3.150,-0.040,-0.225
3.153,-0.010,-0.225
3.156,0.015,-0.220
3.158,0.010,-0.230
3.161,-0.010,-0.240
3.164,-0.015,-0.240
3.167,0.015,-0.225
3.169,0.040,-0.215
3.172,0.060,-0.235
3.175,0.075,-0.255
3.178,0.090,-0.295
3.181,0.105,-0.300
3.183,0.125,-0.305
3.186,0.165,-0.305
3.189,0.180,-0.300
3.192,0.195,-0.325
3.194,0.180,-0.330
3.197,0.145,-0.330
3.200,0.140,-0.310
3.203,0.120,-0.300
3.206,0.115,-0.285
3.208,0.100,-0.275
3.211,0.075,-0.295
3.214,0.055,-0.300
3.217,0.055,-0.280
3.219,0.030,-0.260
3.222,0.010,-0.275
3.225,-0.030,-0.295
3.228,-0.080,-0.310
3.231,-0.095,-0.305
3.233,-0.105,-0.295
3.236,-0.110,-0.275
3.239,-0.105,-0.290
3.242,-0.120,-0.300
3.244,-0.135,-0.315
3.247,-0.145,-0.315
3.250,-0.140,-0.300
3.253,-0.125,-0.290
3.256,-0.120,-0.285
3.258,-0.125,-0.285
3.261,-0.130,-0.305
3.264,-0.130,-0.295
3.267,-0.115,-0.270
3.269,-0.105,-0.230
3.272,-0.090,-0.210
3.275,-0.105,-0.190
3.278,-0.105,-0.200
3.281,-0.120,-0.215
3.283,-0.105,-0.245
3.286,-0.100,-0.295
3.289,-0.105,-0.400
3.292,-0.140,-0.525
3.294,-0.160,-0.670
3.297,-0.120,-0.815
3.300,-0.025,-0.940
3.303,0.105,-1.040
3.306,0.270,-1.105
3.308,0.425,-1.115
3.311,0.605,-1.065
3.314,0.775,-0.970
3.317,0.880,-0.825
3.319,0.820,-0.675
3.322,0.555,-0.545
3.325,0.215,-0.420
3.328,-0.055,-0.330
3.331,-0.160,-0.265
3.333,-0.185,-0.225
3.336,-0.140,-0.205
3.339,-0.090,-0.200
3.342,-0.080,-0.205
3.344,-0.085,-0.215
3.347,-0.095,-0.215
3.350,-0.105,-0.205
3.353,-0.120,-0.200
3.356,-0.100,-0.190
3.358,-0.115,-0.205
3.361,-0.120,-0.225
3.364,-0.110,-0.220
3.367,-0.105,-0.200
3.369,-0.105,-0.190
3.372,-0.085,-0.210
3.375,-0.095,-0.205
3.378,-0.105,-0.220
3.381,-0.110,-0.210
3.383,-0.100,-0.205
3.386,-0.080,-0.200
3.389,-0.070,-0.205
3.392,-0.085,-0.205
3.394,-0.090,-0.225
3.397,-0.095,-0.215
3.400,-0.090,-0.210
3.403,-0.065,-0.195
3.406,-0.070,-0.200
3.408,-0.065,-0.215
3.411,-0.075,-0.225
3.414,-0.080,-0.215
3.417,-0.060,-0.205
3.419,-0.050,-0.190
3.422,-0.045,-0.200
3.425,-0.055,-0.215
3.428,-0.055,-0.220
3.431,-0.065,-0.225
3.433,-0.060,-0.220
3.436,-0.050,-0.205
3.439,-0.040,-0.215
3.442,-0.045,-0.220
3.444,-0.070,-0.220
3.447,-0.070,-0.220
3.450,-0.055,-0.210
3.453,-0.050,-0.210
3.456,-0.040,-0.215
3.458,-0.045,-0.220
3.461,-0.050,-0.225
3.464,-0.065,-0.225
3.467,-0.070,-0.210
3.469,-0.040,-0.190
3.472,-0.035,-0.205
3.475,-0.025,-0.215
3.478,-0.055,-0.230
3.481,-0.055,-0.220
3.483,-0.050,-0.200
3.486,-0.050,-0.200
3.489,-0.025,-0.210
3.492,-0.045,-0.210
3.494,-0.050,-0.230
3.497,-0.055,-0.225
3.500,-0.045,-0.210
3.503,-0.030,-0.195
3.506,-0.020,-0.215
3.508,-0.030,-0.205
3.511,-0.040,-0.220
3.514,-0.040,-0.215
3.517,-0.035,-0.205
3.519,-0.035,-0.195
3.522,-0.005,-0.200
3.525,-0.035,-0.205
3.528,-0.040,-0.220
3.531,-0.050,-0.225
3.533,-0.045,-0.200
3.536,-0.035,-0.190
3.539,-0.030,-0.195
3.542,-0.035,-0.210
3.544,-0.045,-0.220
3.547,-0.070,-0.220
3.550,-0.055,-0.215
3.553,-0.045,-0.205
3.556,-0.050,-0.220
3.558,-0.060,-0.215
3.561,-0.075,-0.225
3.564,-0.105,-0.230
3.567,-0.100,-0.220
3.569,-0.090,-0.200
3.572,-0.090,-0.225
3.575,-0.105,-0.225
3.578,-0.125,-0.255
3.581,-0.120,-0.255
3.583,-0.115,-0.235
3.586,-0.100,-0.225
3.589,-0.090,-0.235
3.592,-0.105,-0.245
3.594,-0.120,-0.260
3.597,-0.145,-0.255
3.600,-0.140,-0.255
3.603,-0.120,-0.240
3.606,-0.115,-0.245
3.608,-0.130,-0.265
3.611,-0.140,-0.265
3.614,-0.155,-0.250
3.617,-0.145,-0.240
3.619,-0.155,-0.235
3.622,-0.145,-0.245
3.625,-0.140,-0.270
3.628,-0.160,-0.275
3.631,-0.145,-0.275
3.633,-0.145,-0.265
3.636,-0.140,-0.260
3.639,-0.150,-0.255
3.642,-0.135,-0.260
3.644,-0.150,-0.275
3.647,-0.165,-0.275
3.650,-0.160,-0.260
3.653,-0.170,-0.260
3.656,-0.145,-0.250
3.658,-0.145,-0.270
3.661,-0.185,-0.285
3.664,-0.180,-0.280
3.667,-0.180,-0.275
3.669,-0.160,-0.270
3.672,-0.140,-0.275
3.675,-0.155,-0.285
3.678,-0.170,-0.290
3.681,-0.180,-0.285
3.683,-0.185,-0.280
3.686,-0.165,-0.265
3.689,-0.160,-0.275
3.692,-0.185,-0.290
3.694,-0.180,-0.300
3.697,-0.190,-0.295
3.700,-0.180,-0.290
3.703,-0.160,-0.270
3.706,-0.150,-0.275
3.708,-0.150,-0.280
3.711,-0.160,-0.290
3.714,-0.170,-0.295
3.717,-0.170,-0.280
3.719,-0.155,-0.270
3.722,-0.150,-0.285
3.725,-0.160,-0.290
3.728,-0.175,-0.310
3.731,-0.190,-0.310
3.733,-0.195,-0.280
3.736,-0.185,-0.275
3.739,-0.170,-0.280
3.742,-0.180,-0.285
3.744,-0.165,-0.310
3.747,-0.180,-0.315
3.750,-0.165,-0.290
3.753,-0.165,-0.295
3.756,-0.155,-0.295
3.758,-0.180,-0.310
3.761,-0.195,-0.315
3.764,-0.200,-0.310
3.767,-0.180,-0.305
3.769,-0.170,-0.290
3.772,-0.165,-0.280
3.775,-0.165,-0.295
3.778,-0.175,-0.305
3.781,-0.180,-0.300
3.783,-0.170,-0.290
3.786,-0.160,-0.280
3.789,-0.145,-0.290
3.792,-0.155,-0.305
3.794,-0.170,-0.315
3.797,-0.165,-0.310
3.800,-0.175,-0.300
3.803,-0.170,-0.290
3.806,-0.140,-0.300
3.808,-0.150,-0.310
3.811,-0.170,-0.320
3.814,-0.175,-0.315
3.817,-0.170,-0.300
3.819,-0.150,-0.295
3.822,-0.145,-0.285
3.825,-0.150,-0.300
3.828,-0.160,-0.320
3.831,-0.175,-0.310
3.833,-0.155,-0.300
3.836,-0.150,-0.290
3.839,-0.140,-0.290
3.842,-0.145,-0.310
3.844,-0.150,-0.330
3.847,-0.180,-0.315
3.850,-0.170,-0.295
3.853,-0.145,-0.285
3.856,-0.130,-0.285
3.858,-0.145,-0.300
3.861,-0.155,-0.305
3.864,-0.185,-0.330
3.867,-0.165,-0.315
3.869,-0.155,-0.295
3.872,-0.140,-0.300
3.875,-0.140,-0.305
3.878,-0.150,-0.315
3.881,-0.160,-0.320
3.883,-0.155,-0.305
3.886,-0.155,-0.305
3.889,-0.140,-0.310
3.892,-0.140,-0.315
3.894,-0.145,-0.325
3.897,-0.150,-0.310
3.900,-0.165,-0.295
3.903,-0.145,-0.285
3.906,-0.130,-0.300
3.908,-0.140,-0.315
3.911,-0.145,-0.330
3.914,-0.160,-0.315
3.917,-0.160,-0.315
3.919,-0.145,-0.295
3.922,-0.130,-0.300
3.925,-0.130,-0.305
3.928,-0.155,-0.310
3.931,-0.150,-0.305
3.933,-0.145,-0.285
3.936,-0.120,-0.270
3.939,-0.115,-0.260
3.942,-0.120,-0.255
3.944,-0.135,-0.270
3.947,-0.120,-0.250
3.950,-0.110,-0.245
3.953,-0.090,-0.230
3.956,-0.075,-0.225
3.958,-0.050,-0.230
3.961,-0.055,-0.245
3.964,-0.070,-0.225
3.967,-0.035,-0.220
3.969,0.000,-0.230
3.972,0.020,-0.270
3.975,0.050,-0.300
3.978,0.075,-0.340
3.981,0.090,-0.345
3.983,0.095,-0.340
3.986,0.115,-0.335
3.989,0.120,-0.325
3.992,0.115,-0.330
3.994,0.085,-0.335
3.997,0.060,-0.325
4.000,0.040,-0.310
4.003,0.040,-0.280
4.006,0.035,-0.275
4.008,0.015,-0.300
4.011,-0.005,-0.310
4.014,-0.025,-0.320
4.017,-0.045,-0.305
4.019,-0.070,-0.285
4.022,-0.095,-0.300
4.025,-0.130,-0.310
4.028,-0.165,-0.325
4.031,-0.165,-0.325
4.033,-0.160,-0.320
4.036,-0.175,-0.310
4.039,-0.175,-0.305
4.042,-0.180,-0.320
4.044,-0.185,-0.330
4.047,-0.200,-0.330
4.050,-0.180,-0.315
4.053,-0.170,-0.305
4.056,-0.155,-0.305
4.058,-0.150,-0.310
4.061,-0.180,-0.315
4.064,-0.170,-0.315
4.067,-0.160,-0.280
4.069,-0.150,-0.255
4.072,-0.120,-0.220
4.075,-0.110,-0.190
4.078,-0.135,-0.170
4.081,-0.150,-0.185
4.083,-0.135,-0.225
4.086,-0.115,-0.265
4.089,-0.140,-0.405
4.092,-0.165,-0.565
4.094,-0.200,-0.755
4.097,-0.175,-0.925
4.100,-0.085,-1.070
4.103,0.080,-1.180
4.106,0.265,-1.235
4.108,0.450,-1.220
4.111,0.640,-1.145
4.114,0.775,-1.010
4.117,0.855,-0.865
4.119,0.790,-0.710
4.122,0.545,-0.570
4.125,0.220,-0.445
4.128,-0.055,-0.350
4.131,-0.190,-0.255
4.133,-0.220,-0.195
4.136,-0.175,-0.185
4.139,-0.145,-0.180
4.142,-0.105,-0.200
4.144,-0.105,-0.205
4.147,-0.135,-0.205
4.150,-0.130,-0.195
4.153,-0.135,-0.200
4.156,-0.115,-0.205
4.158,-0.125,-0.195
4.161,-0.135,-0.205
4.164,-0.140,-0.220
4.167,-0.115,-0.210
4.169,-0.105,-0.195
4.172,-0.100,-0.195
4.175,-0.115,-0.215
4.178,-0.120,-0.215
4.181,-0.125,-0.220
4.183,-0.125,-0.200
4.186,-0.135,-0.195
4.189,-0.110,-0.200
4.192,-0.115,-0.215
4.194,-0.125,-0.230
4.197,-0.125,-0.225
4.200,-0.115,-0.210
4.203,-0.105,-0.205
4.206,-0.075,-0.195
4.208,-0.100,-0.210
4.211,-0.115,-0.210
4.214,-0.110,-0.215
4.217,-0.095,-0.205
4.219,-0.085,-0.190
4.222,-0.060,-0.205
4.225,-0.070,-0.215
4.228,-0.080,-0.225
4.231,-0.090,-0.205
4.233,-0.070,-0.190
4.236,-0.060,-0.180
4.239,-0.045,-0.175
4.242,-0.065,-0.200
4.244,-0.065,-0.205
4.247,-0.075,-0.200
4.250,-0.070,-0.195
4.253,-0.065,-0.190
4.256,-0.060,-0.190
4.258,-0.060,-0.195
4.261,-0.065,-0.200
4.264,-0.065,-0.200
4.267,-0.060,-0.205
4.269,-0.050,-0.185
4.272,-0.060,-0.185
4.275,-0.050,-0.210
4.278,-0.050,-0.220
4.281,-0.055,-0.200
4.283,-0.035,-0.190
4.286,-0.030,-0.180
4.289,-0.010,-0.190
4.292,-0.025,-0.200
4.294,-0.035,-0.210
4.297,-0.060,-0.215
4.300,-0.040,-0.190
4.303,-0.020,-0.165
4.306,-0.020,-0.175
4.308,-0.010,-0.190
4.311,-0.030,-0.185
4.314,-0.035,-0.190
4.317,-0.020,-0.180
4.319,-0.010,-0.160
4.322,0.010,-0.170
4.325,0.010,-0.190
4.328,0.005,-0.200
4.331,-0.015,-0.195
4.333,-0.005,-0.175
4.336,-0.005,-0.155
4.339,-0.010,-0.160
4.342,0.000,-0.170
4.344,-0.020,-0.190
4.347,-0.020,-0.190
4.350,-0.020,-0.180
4.353,-0.015,-0.165
4.356,-0.005,-0.165
4.358,-0.025,-0.190
4.361,-0.045,-0.200
4.364,-0.040,-0.205
4.367,-0.035,-0.190
4.369,-0.030,-0.185
4.372,-0.020,-0.200
4.375,-0.040,-0.205
4.378,-0.065,-0.220
4.381,-0.070,-0.210
4.383,-0.065,-0.210
4.386,-0.060,-0.190
4.389,-0.050,-0.210
4.392,-0.070,-0.220
4.394,-0.080,-0.230
4.397,-0.105,-0.230
4.400,-0.095,-0.220
4.403,-0.080,-0.210
4.406,-0.070,-0.210
4.408,-0.060,-0.220
4.411,-0.085,-0.235
4.414,-0.095,-0.240
4.417,-0.100,-0.230
4.419,-0.075,-0.225
4.422,-0.075,-0.225
4.425,-0.080,-0.235
4.428,-0.100,-0.250
4.431,-0.120,-0.240
4.433,-0.105,-0.230
4.436,-0.105,-0.215
4.439,-0.095,-0.225
4.442,-0.095,-0.230
4.444,-0.100,-0.255
4.447,-0.110,-0.235
4.450,-0.115,-0.230
4.453,-0.095,-0.210
4.456,-0.095,-0.215
4.458,-0.095,-0.215
4.461,-0.105,-0.235
4.464,-0.115,-0.235
4.467,-0.110,-0.220
4.469,-0.105,-0.215
4.472,-0.075,-0.225
4.475,-0.090,-0.235
4.478,-0.090,-0.235
4.481,-0.100,-0.240
4.483,-0.095,-0.240
4.486,-0.105,-0.215
4.489,-0.085,-0.230
4.492,-0.085,-0.235
4.494,-0.105,-0.250
4.497,-0.100,-0.250
4.500,-0.115,-0.235
4.503,-0.110,-0.220
4.506,-0.105,-0.230
4.508,-0.100,-0.240
4.511,-0.110,-0.255
4.514,-0.120,-0.250
4.517,-0.100,-0.235
4.519,-0.105,-0.215
4.522,-0.095,-0.230
4.525,-0.105,-0.235
4.528,-0.110,-0.245
4.531,-0.130,-0.260
4.533,-0.120,-0.255
4.536,-0.105,-0.235
4.539,-0.100,-0.240
4.542,-0.095,-0.235
4.544,-0.105,-0.250
4.547,-0.105,-0.245
4.550,-0.100,-0.240
4.553,-0.105,-0.225
4.556,-0.080,-0.230
4.558,-0.075,-0.240
4.561,-0.105,-0.245
4.564,-0.105,-0.245
4.567,-0.100,-0.240
4.569,-0.095,-0.220
4.572,-0.080,-0.230
4.575,-0.090,-0.245
4.578,-0.090,-0.250
4.581,-0.090,-0.255
4.583,-0.095,-0.245
4.586,-0.080,-0.230
4.589,-0.070,-0.235
4.592,-0.080,-0.240
4.594,-0.095,-0.260
4.597,-0.105,-0.250
4.600,-0.105,-0.250
4.603,-0.105,-0.235
4.606,-0.085,-0.245
4.608,-0.060,-0.255
4.611,-0.095,-0.270
4.614,-0.085,-0.265
4.617,-0.080,-0.245
4.619,-0.080,-0.240
4.622,-0.055,-0.235
4.625,-0.075,-0.235
4.628,-0.085,-0.255
4.631,-0.085,-0.255
4.633,-0.075,-0.250
4.636,-0.075,-0.230
4.639,-0.070,-0.240
4.642,-0.060,-0.250
4.644,-0.075,-0.255
4.647,-0.080,-0.255
4.650,-0.075,-0.240
4.653,-0.055,-0.230
4.656,-0.050,-0.235
4.658,-0.060,-0.250
4.661,-0.080,-0.270
4.664,-0.085,-0.265
4.667,-0.070,-0.250
4.669,-0.055,-0.240
4.672,-0.040,-0.245
4.675,-0.050,-0.245
4.678,-0.065,-0.270
4.681,-0.100,-0.245
4.683,-0.070,-0.240
4.686,-0.055,-0.225
4.689,-0.040,-0.235
4.692,-0.070,-0.250
4.694,-0.050,-0.250
4.697,-0.070,-0.245
4.700,-0.050,-0.245
4.703,-0.050,-0.235
4.706,-0.035,-0.240
4.708,-0.040,-0.250
4.711,-0.055,-0.260
4.714,-0.070,-0.250
4.717,-0.070,-0.235
4.719,-0.050,-0.240
4.722,-0.040,-0.225
4.725,-0.040,-0.250
4.728,-0.050,-0.265
4.731,-0.060,-0.245
4.733,-0.075,-0.240
4.736,-0.070,-0.225
4.739,-0.055,-0.230
4.742,-0.060,-0.240
4.744,-0.075,-0.255
4.747,-0.080,-0.245
4.750,-0.065,-0.230
4.753,-0.060,-0.220
4.756,-0.045,-0.215
4.758,-0.035,-0.230
4.761,-0.040,-0.225
4.764,-0.030,-0.210
4.767,-0.025,-0.190
4.769,0.005,-0.175
4.772,0.010,-0.165
4.775,0.005,-0.180
4.778,0.005,-0.180
4.781,0.005,-0.175
4.783,0.025,-0.170
4.786,0.050,-0.155
4.789,0.070,-0.175
4.792,0.095,-0.200
4.794,0.110,-0.245
4.797,0.130,-0.265
4.800,0.150,-0.275
4.803,0.170,-0.270
4.806,0.185,-0.270
4.808,0.170,-0.295
4.811,0.155,-0.315
4.814,0.135,-0.300
4.817,0.130,-0.275
4.819,0.100,-0.255
4.822,0.105,-0.250
4.825,0.085,-0.250
4.828,0.055,-0.265
4.831,0.040,-0.255
4.833,0.025,-0.250
4.836,0.015,-0.230
4.839,0.000,-0.245
4.842,-0.035,-0.260
4.844,-0.065,-0.265
4.847,-0.105,-0.265
4.850,-0.125,-0.265
4.853,-0.110,-0.260
4.856,-0.130,-0.260
4.858,-0.145,-0.270
4.861,-0.150,-0.270
4.864,-0.145,-0.265
4.867,-0.150,-0.265
4.869,-0.135,-0.250
4.872,-0.115,-0.255
4.875,-0.130,-0.265
4.878,-0.155,-0.285
4.881,-0.165,-0.265
4.883,-0.160,-0.255
4.886,-0.140,-0.235
4.889,-0.130,-0.240
4.892,-0.135,-0.235
4.894,-0.150,-0.220
4.897,-0.165,-0.185
4.900,-0.130,-0.140
4.903,-0.115,-0.120
4.906,-0.115,-0.170
4.908,-0.120,-0.235
4.911,-0.120,-0.330
4.914,-0.150,-0.475
4.917,-0.160,-0.630
4.919,-0.170,-0.805
4.922,-0.110,-0.980
4.925,-0.030,-1.130
4.928,0.105,-1.215
4.931,0.275,-1.210
4.933,0.490,-1.145
4.936,0.665,-1.035
4.939,0.750,-0.915
4.942,0.690,-0.770
4.944,0.475,-0.640
4.947,0.190,-0.495
4.950,-0.030,-0.365
4.953,-0.155,-0.240
4.956,-0.205,-0.190
4.958,-0.200,-0.185
4.961,-0.180,-0.180
4.964,-0.175,-0.175
4.967,-0.140,-0.175
4.969,-0.135,-0.160
4.972,-0.120,-0.160
4.975,-0.135,-0.170
4.978,-0.160,-0.180
4.981,-0.160,-0.180
4.983,-0.170,-0.155
4.986,-0.155,-0.145
4.989,-0.145,-0.160
4.992,-0.140,-0.165
4.994,-0.150,-0.195
4.997,-0.145,-0.195
5.000,-0.150,-0.185
5.003,-0.140,-0.170
5.006,-0.125,-0.170
5.008,-0.135,-0.175
5.011,-0.145,-0.205
5.014,-0.150,-0.195
5.017,-0.145,-0.170
5.019,-0.150,-0.165
5.022,-0.150,-0.180
5.025,-0.130,-0.180
5.028,-0.140,-0.195
5.031,-0.160,-0.185
5.033,-0.150,-0.165
5.036,-0.125,-0.155
5.039,-0.115,-0.145
5.042,-0.110,-0.170
5.044,-0.130,-0.180
5.047,-0.145,-0.170
5.050,-0.145,-0.160
5.053,-0.120,-0.155
5.056,-0.105,-0.160
5.058,-0.120,-0.175
5.061,-0.120,-0.175
5.064,-0.125,-0.185
5.067,-0.120,-0.165
5.069,-0.115,-0.165
5.072,-0.095,-0.175
5.075,-0.090,-0.175
5.078,-0.105,-0.185
5.081,-0.115,-0.175
5.083,-0.100,-0.175
5.086,-0.110,-0.165
5.089,-0.090,-0.165
5.092,-0.100,-0.170
5.094,-0.100,-0.180
5.097,-0.125,-0.185
5.100,-0.105,-0.170
5.103,-0.085,-0.160
5.106,-0.080,-0.160
5.108,-0.085,-0.160
5.111,-0.105,-0.175
5.114,-0.100,-0.165
5.117,-0.100,-0.150
5.119,-0.100,-0.140
5.122,-0.090,-0.150
5.125,-0.085,-0.165
5.128,-0.100,-0.175
5.131,-0.115,-0.165
5.133,-0.095,-0.145
5.136,-0.080,-0.140
5.139,-0.075,-0.150
5.142,-0.085,-0.160
5.144,-0.080,-0.190
5.147,-0.095,-0.180
5.150,-0.090,-0.170
5.153,-0.080,-0.155
5.156,-0.060,-0.155
5.158,-0.080,-0.160
5.161,-0.085,-0.170
5.164,-0.100,-0.165
5.167,-0.100,-0.160
5.169,-0.095,-0.160
5.172,-0.070,-0.155
5.175,-0.080,-0.170
5.178,-0.080,-0.180
5.181,-0.080,-0.190
5.183,-0.085,-0.170
5.186,-0.095,-0.165
5.189,-0.085,-0.175
5.192,-0.105,-0.180
5.194,-0.125,-0.195
5.197,-0.145,-0.205
5.200,-0.155,-0.180
5.203,-0.140,-0.180
5.206,-0.120,-0.195
5.208,-0.130,-0.190
5.211,-0.155,-0.205
5.214,-0.165,-0.200
5.217,-0.160,-0.200
5.219,-0.155,-0.185
5.222,-0.150,-0.195
5.225,-0.160,-0.205
5.228,-0.155,-0.210
5.231,-0.160,-0.205
5.233,-0.160,-0.200
5.236,-0.145,-0.195
5.239,-0.150,-0.195
5.242,-0.165,-0.225
5.244,-0.180,-0.235
5.247,-0.185,-0.220
5.250,-0.180,-0.195
5.253,-0.180,-0.195
5.256,-0.170,-0.190
5.258,-0.165,-0.210
5.261,-0.170,-0.210
5.264,-0.180,-0.205
5.267,-0.175,-0.215
5.269,-0.160,-0.200
5.272,-0.155,-0.190
5.275,-0.165,-0.205
5.278,-0.175,-0.225
5.281,-0.185,-0.215
5.283,-0.190,-0.205
5.286,-0.160,-0.210
5.289,-0.160,-0.205
5.292,-0.160,-0.210
5.294,-0.180,-0.210
5.297,-0.195,-0.210
5.300,-0.195,-0.205
5.303,-0.180,-0.200
5.306,-0.165,-0.195
5.308,-0.175,-0.225
5.311,-0.185,-0.235
5.314,-0.190,-0.245
5.317,-0.200,-0.215
5.319,-0.190,-0.200
5.322,-0.175,-0.215
5.325,-0.190,-0.215
5.328,-0.185,-0.225
5.331,-0.205,-0.230
5.333,-0.200,-0.215
5.336,-0.190,-0.210
5.339,-0.165,-0.215
5.342,-0.170,-0.225
5.344,-0.185,-0.240
5.347,-0.185,-0.225
5.350,-0.185,-0.225
5.353,-0.175,-0.220
5.356,-0.180,-0.230
5.358,-0.165,-0.230
5.361,-0.175,-0.245
5.364,-0.190,-0.230
5.367,-0.185,-0.225
5.369,-0.155,-0.210
5.372,-0.160,-0.215
5.375,-0.170,-0.225
5.378,-0.190,-0.245
5.381,-0.185,-0.240
5.383,-0.180,-0.235
5.386,-0.160,-0.200
5.389,-0.140,-0.215
5.392,-0.145,-0.225
5.394,-0.160,-0.245
5.397,-0.165,-0.240
5.400,-0.180,-0.220
5.403,-0.155,-0.220
5.406,-0.150,-0.225
5.408,-0.165,-0.225
5.411,-0.165,-0.245
5.414,-0.165,-0.245
5.417,-0.175,-0.240
5.419,-0.165,-0.225
5.422,-0.145,-0.230
5.425,-0.145,-0.250
5.428,-0.155,-0.255
5.431,-0.160,-0.250
5.433,-0.165,-0.240
5.436,-0.140,-0.225
5.439,-0.135,-0.235
5.442,-0.145,-0.240
5.444,-0.150,-0.250
5.447,-0.160,-0.240
5.450,-0.155,-0.235
5.453,-0.140,-0.230
5.456,-0.130,-0.215
5.458,-0.135,-0.230
5.461,-0.150,-0.250
5.464,-0.145,-0.240
5.467,-0.155,-0.235
5.469,-0.140,-0.215
5.472,-0.115,-0.210
5.475,-0.120,-0.235
5.478,-0.130,-0.245
5.481,-0.125,-0.235
5.483,-0.130,-0.220
5.486,-0.115,-0.215
5.489,-0.120,-0.210
5.492,-0.125,-0.230
5.494,-0.125,-0.245
5.497,-0.130,-0.225
5.500,-0.120,-0.230
5.503,-0.130,-0.220
5.506,-0.115,-0.225
5.508,-0.115,-0.235
5.511,-0.125,-0.245
5.514,-0.125,-0.240
5.517,-0.125,-0.220
5.519,-0.125,-0.225
5.522,-0.110,-0.200
5.525,-0.095,-0.225
5.528,-0.125,-0.230
5.531,-0.135,-0.230
5.533,-0.125,-0.225
5.536,-0.100,-0.215
5.539,-0.085,-0.220
5.542,-0.100,-0.240
5.544,-0.110,-0.245
5.547,-0.115,-0.245
5.550,-0.120,-0.235
5.553,-0.105,-0.205
5.556,-0.080,-0.215
5.558,-0.095,-0.230
5.561,-0.110,-0.245
5.564,-0.115,-0.235
5.567,-0.115,-0.215
5.569,-0.090,-0.195
5.572,-0.085,-0.200
5.575,-0.095,-0.225
5.578,-0.100,-0.230
5.581,-0.110,-0.225
5.583,-0.090,-0.220
5.586,-0.080,-0.185
5.589,-0.070,-0.185
5.592,-0.065,-0.170
5.594,-0.070,-0.175
5.597,-0.055,-0.180
5.600,-0.050,-0.160
5.603,-0.025,-0.150
5.606,0.000,-0.165
5.608,0.010,-0.180
5.611,0.005,-0.185
5.614,0.015,-0.200
5.617,0.045,-0.190
5.619,0.095,-0.220
5.622,0.135,-0.245
5.625,0.140,-0.270
5.628,0.150,-0.280
5.631,0.145,-0.280
5.633,0.150,-0.260
5.636,0.135,-0.245
5.639,0.130,-0.245
5.642,0.115,-0.260
5.644,0.095,-0.255
5.647,0.075,-0.240
5.650,0.065,-0.220
5.653,0.075,-0.210
5.656,0.070,-0.205
5.658,0.055,-0.230
5.661,0.000,-0.235
5.664,-0.045,-0.220
5.667,-0.065,-0.225
5.669,-0.095,-0.225
5.672,-0.105,-0.230
5.675,-0.120,-0.255
5.678,-0.130,-0.245
5.681,-0.140,-0.240
5.683,-0.150,-0.225
5.686,-0.125,-0.220
5.689,-0.110,-0.225
5.692,-0.115,-0.225
5.694,-0.130,-0.245
5.697,-0.135,-0.230
5.700,-0.135,-0.220
5.703,-0.115,-0.225
5.706,-0.105,-0.215
5.708,-0.110,-0.225
5.711,-0.100,-0.235
5.714,-0.100,-0.210
5.717,-0.100,-0.165
5.719,-0.090,-0.120
5.722,-0.070,-0.105
5.725,-0.080,-0.140
5.728,-0.095,-0.220
5.731,-0.125,-0.310
5.733,-0.145,-0.450
5.736,-0.150,-0.610
5.739,-0.130,-0.800
5.742,-0.070,-0.980
5.744,0.050,-1.115
5.747,0.215,-1.170
5.750,0.440,-1.120
5.753,0.665,-1.000
5.756,0.800,-0.840
5.758,0.770,-0.695
5.761,0.550,-0.535
5.764,0.215,-0.380
5.767,-0.030,-0.230
5.769,-0.130,-0.160
5.772,-0.145,-0.115
5.775,-0.115,-0.115
5.778,-0.100,-0.120
5.781,-0.095,-0.120
5.783,-0.080,-0.105
5.786,-0.055,-0.100
5.789,-0.060,-0.110
5.792,-0.080,-0.130
5.794,-0.095,-0.145
5.797,-0.085,-0.135
5.800,-0.090,-0.135
5.803,-0.080,-0.120
5.806,-0.075,-0.110
5.808,-0.065,-0.130
5.811,-0.075,-0.145
5.814,-0.080,-0.140
5.817,-0.070,-0.125
5.819,-0.060,-0.130
5.822,-0.060,-0.140
5.825,-0.055,-0.130
5.828,-0.060,-0.150
5.831,-0.065,-0.155
5.833,-0.055,-0.135
5.836,-0.045,-0.130
5.839,-0.050,-0.120
5.842,-0.055,-0.140
5.844,-0.070,-0.155
5.847,-0.080,-0.155
5.850,-0.050,-0.135
5.853,-0.050,-0.115
5.856,-0.020,-0.120
5.858,-0.035,-0.135
5.861,-0.050,-0.145
5.864,-0.040,-0.155
5.867,-0.045,-0.125
5.869,-0.030,-0.125
5.872,-0.020,-0.125
5.875,-0.015,-0.125
5.878,-0.035,-0.145
5.881,-0.040,-0.150
5.883,-0.030,-0.145
5.886,-0.020,-0.130
5.889,-0.015,-0.140
5.892,-0.025,-0.135
5.894,-0.035,-0.145
5.897,-0.025,-0.150
5.900,-0.025,-0.135
5.903,-0.015,-0.120
5.906,-0.005,-0.120
5.908,-0.015,-0.135
5.911,-0.030,-0.150
5.914,-0.035,-0.140
5.917,-0.035,-0.140
5.919,-0.010,-0.115
5.922,-0.005,-0.110
5.925,-0.005,-0.145
5.928,-0.020,-0.140
5.931,-0.020,-0.160
5.933,-0.020,-0.145
5.936,0.000,-0.130
5.939,0.015,-0.110
5.942,0.020,-0.145
5.944,0.005,-0.150
5.947,0.000,-0.155
5.950,0.000,-0.145
5.953,0.015,-0.135
5.956,0.005,-0.140
5.958,0.015,-0.150
5.961,0.010,-0.145
5.964,-0.005,-0.160
5.967,0.010,-0.135
5.969,0.015,-0.130
5.972,0.035,-0.140
5.975,0.010,-0.150
5.978,0.005,-0.170
5.981,0.000,-0.165
5.983,0.000,-0.145
5.986,0.000,-0.145
5.989,0.010,-0.140
5.992,0.000,-0.145
5.994,-0.015,-0.170
5.997,-0.035,-0.175
6.000,-0.030,-0.150
6.003,-0.030,-0.145
6.006,-0.025,-0.160
6.008,-0.045,-0.170
6.011,-0.055,-0.185
6.014,-0.075,-0.180
6.017,-0.060,-0.175
6.019,-0.055,-0.160
6.022,-0.035,-0.165
6.025,-0.055,-0.170
6.028,-0.080,-0.185
6.031,-0.100,-0.170
6.033,-0.070,-0.165
6.036,-0.045,-0.155
6.039,-0.050,-0.155
6.042,-0.050,-0.170
6.044,-0.070,-0.180
6.047,-0.075,-0.180
6.050,-0.070,-0.170
6.053,-0.050,-0.145
6.056,-0.045,-0.155
6.058,-0.045,-0.170
6.061,-0.055,-0.175
6.064,-0.065,-0.180
6.067,-0.075,-0.175
6.069,-0.060,-0.175
6.072,-0.035,-0.175
6.075,-0.050,-0.185
6.078,-0.075,-0.205
6.081,-0.085,-0.205
6.083,-0.090,-0.175
6.086,-0.055,-0.160
6.089,-0.055,-0.175
6.092,-0.065,-0.195
6.094,-0.065,-0.210
6.097,-0.090,-0.200
6.100,-0.080,-0.170
6.103,-0.065,-0.180
6.106,-0.060,-0.180
6.108,-0.070,-0.195
6.111,-0.095,-0.200
6.114,-0.095,-0.205
6.117,-0.090,-0.190
6.119,-0.080,-0.175
6.122,-0.080,-0.195
6.125,-0.080,-0.205
6.128,-0.095,-0.220
6.131,-0.100,-0.205
6.133,-0.090,-0.205
6.136,-0.070,-0.180
6.139,-0.070,-0.190
6.142,-0.075,-0.210
6.144,-0.090,-0.215
6.147,-0.100,-0.220
6.150,-0.090,-0.195
6.153,-0.080,-0.195
6.156,-0.060,-0.200
6.158,-0.060,-0.215
6.161,-0.085,-0.235
6.164,-0.095,-0.230
6.167,-0.085,-0.215
6.169,-0.065,-0.205
6.172,-0.060,-0.200
6.175,-0.065,-0.210
6.178,-0.090,-0.225
6.181,-0.090,-0.215
6.183,-0.080,-0.215
6.186,-0.070,-0.200
6.189,-0.060,-0.205
6.192,-0.060,-0.230
6.194,-0.065,-0.230
6.197,-0.070,-0.225
6.200,-0.065,-0.210
6.203,-0.055,-0.195
6.206,-0.045,-0.210
6.208,-0.055,-0.230
6.211,-0.070,-0.240
6.214,-0.075,-0.225
6.217,-0.055,-0.225
6.219,-0.040,-0.215
6.222,-0.040,-0.215
6.225,-0.045,-0.225
6.228,-0.055,-0.230
6.231,-0.065,-0.225
6.233,-0.055,-0.210
6.236,-0.050,-0.205
6.239,-0.045,-0.210
6.242,-0.040,-0.210
6.244,-0.055,-0.245
6.247,-0.065,-0.235
6.250,-0.055,-0.225
6.253,-0.020,-0.215
6.256,-0.015,-0.220
6.258,-0.030,-0.235
6.261,-0.045,-0.245
6.264,-0.045,-0.240
6.267,-0.040,-0.225
6.269,-0.045,-0.205
6.272,-0.025,-0.225
6.275,-0.035,-0.230
6.278,-0.035,-0.250
6.281,-0.055,-0.250
6.283,-0.055,-0.225
6.286,-0.050,-0.225
6.289,-0.020,-0.225
6.292,-0.030,-0.230
6.294,-0.040,-0.245
6.297,-0.060,-0.250
6.300,-0.045,-0.220
6.303,-0.035,-0.220
6.306,-0.015,-0.195
6.308,-0.010,-0.225
6.311,-0.020,-0.220
6.314,-0.025,-0.205
6.317,-0.025,-0.190
6.319,0.000,-0.170
6.322,0.025,-0.180
6.325,0.020,-0.175
6.328,0.020,-0.200
6.331,0.025,-0.185
6.333,0.035,-0.175
6.336,0.035,-0.150
6.339,0.065,-0.135
6.342,0.065,-0.140
6.344,0.080,-0.160
6.347,0.110,-0.180
6.350,0.160,-0.200
6.353,0.225,-0.215
6.356,0.250,-0.225
6.358,0.255,-0.260
6.361,0.250,-0.270
6.364,0.230,-0.270
6.367,0.240,-0.265
6.369,0.255,-0.250
6.372,0.230,-0.250
6.375,0.195,-0.250
6.378,0.180,-0.250
6.381,0.155,-0.230
6.383,0.130,-0.230
6.386,0.130,-0.225
6.389,0.100,-0.225
6.392,0.085,-0.255
6.394,0.005,-0.260
6.397,-0.030,-0.250
6.400,-0.045,-0.260
6.403,-0.035,-0.250
6.406,-0.050,-0.250
6.408,-0.060,-0.260
6.411,-0.080,-0.275
6.414,-0.090,-0.265
6.417,-0.100,-0.265
6.419,-0.085,-0.255
6.422,-0.085,-0.260
6.425,-0.090,-0.260
6.428,-0.100,-0.275
6.431,-0.120,-0.245
6.433,-0.095,-0.235
6.436,-0.075,-0.240
6.439,-0.060,-0.225
6.442,-0.065,-0.235
6.444,-0.075,-0.235
6.447,-0.080,-0.205
6.450,-0.070,-0.140
6.453,-0.050,-0.105
6.456,-0.045,-0.105
6.458,-0.050,-0.165
6.461,-0.075,-0.285
6.464,-0.100,-0.465
6.467,-0.105,-0.680
6.469,-0.080,-0.885
6.472,0.025,-1.105
6.475,0.180,-1.240
6.478,0.365,-1.295
6.481,0.540,-1.265
6.483,0.715,-1.145
6.486,0.860,-1.010
6.489,0.890,-0.865
6.492,0.795,-0.715
6.494,0.535,-0.565
6.497,0.190,-0.385
6.500,-0.060,-0.245
6.503,-0.170,-0.165
6.506,-0.155,-0.155
6.508,-0.100,-0.155
6.511,-0.080,-0.175
6.514,-0.085,-0.170
6.517,-0.095,-0.160
6.519,-0.100,-0.140
6.522,-0.090,-0.145
6.525,-0.100,-0.160
6.528,-0.100,-0.175
6.531,-0.105,-0.170
6.533,-0.090,-0.155
6.536,-0.075,-0.155
6.539,-0.085,-0.155
6.542,-0.070,-0.160
6.544,-0.085,-0.160
6.547,-0.085,-0.165
6.550,-0.080,-0.150
6.553,-0.080,-0.150
6.556,-0.075,-0.155
6.558,-0.080,-0.170
6.561,-0.090,-0.180
6.564,-0.090,-0.175
6.567,-0.080,-0.165
6.569,-0.070,-0.145
6.572,-0.060,-0.145
6.575,-0.065,-0.160
6.578,-0.080,-0.175
6.581,-0.075,-0.185
6.583,-0.080,-0.170
6.586,-0.065,-0.155
6.589,-0.055,-0.155
6.592,-0.060,-0.160
6.594,-0.065,-0.180
6.597,-0.080,-0.180
6.600,-0.080,-0.165
6.603,-0.055,-0.150
6.606,-0.040,-0.150
6.608,-0.045,-0.155
6.611,-0.050,-0.165
6.614,-0.065,-0.150
6.617,-0.065,-0.150
6.619,-0.045,-0.140
6.622,-0.030,-0.150
6.625,-0.060,-0.160
6.628,-0.050,-0.155
6.631,-0.070,-0.165
6.633,-0.050,-0.135
6.636,-0.035,-0.135
6.639,-0.030,-0.135
6.642,-0.035,-0.160
6.644,-0.045,-0.150
6.647,-0.050,-0.160
6.650,-0.040,-0.130
6.653,-0.030,-0.120
6.656,-0.010,-0.120
6.658,-0.025,-0.135
6.661,-0.040,-0.145
6.664,-0.045,-0.145
6.667,-0.025,-0.125
6.669,-0.015,-0.110
6.672,0.000,-0.125
6.675,-0.015,-0.130
6.678,-0.015,-0.155
6.681,-0.020,-0.140
6.683,-0.015,-0.130
6.686,-0.010,-0.115
6.689,-0.005,-0.120
6.692,-0.005,-0.135
6.694,-0.015,-0.140
6.697,-0.035,-0.130
6.700,-0.040,-0.120
6.703,-0.025,-0.120
6.706,-0.020,-0.115
6.708,-0.025,-0.130
6.711,-0.040,-0.155
6.714,-0.060,-0.155
6.717,-0.065,-0.145
6.719,-0.040,-0.130
6.722,-0.055,-0.140
6.725,-0.070,-0.155
6.728,-0.090,-0.165
6.731,-0.105,-0.170
6.733,-0.100,-0.165
6.736,-0.090,-0.160
6.739,-0.070,-0.170
6.742,-0.090,-0.170
6.744,-0.115,-0.180
6.747,-0.125,-0.190
6.750,-0.115,-0.170
6.753,-0.115,-0.165
6.756,-0.105,-0.180
6.758,-0.120,-0.190
6.761,-0.130,-0.195
6.764,-0.135,-0.190
6.767,-0.145,-0.175
6.769,-0.145,-0.170
6.772,-0.135,-0.180
6.775,-0.150,-0.185
6.778,-0.165,-0.220
6.781,-0.170,-0.210
6.783,-0.170,-0.190
6.786,-0.155,-0.195
6.789,-0.155,-0.180
6.792,-0.155,-0.195
6.794,-0.165,-0.205
6.797,-0.170,-0.200
6.800,-0.170,-0.200
6.803,-0.165,-0.190
6.806,-0.150,-0.200
6.808,-0.170,-0.215
6.811,-0.175,-0.215
6.814,-0.185,-0.210
6.817,-0.160,-0.205
6.819,-0.165,-0.215
6.822,-0.150,-0.220
6.825,-0.165,-0.210
6.828,-0.170,-0.240
6.831,-0.180,-0.245
6.833,-0.175,-0.220
6.836,-0.175,-0.205
6.839,-0.165,-0.210
6.842,-0.175,-0.230
6.844,-0.195,-0.240
6.847,-0.200,-0.240
6.850,-0.190,-0.225
6.853,-0.180,-0.215
6.856,-0.180,-0.225
6.858,-0.175,-0.215
6.861,-0.175,-0.230
6.864,-0.180,-0.225
6.867,-0.180,-0.220
6.869,-0.175,-0.210
6.872,-0.155,-0.215
6.875,-0.175,-0.240
6.878,-0.185,-0.240
6.881,-0.185,-0.235
6.883,-0.190,-0.220
6.886,-0.190,-0.220
6.889,-0.175,-0.225
6.892,-0.170,-0.240
6.894,-0.180,-0.235
6.897,-0.185,-0.255
6.900,-0.185,-0.225
6.903,-0.175,-0.225
6.906,-0.165,-0.220
6.908,-0.170,-0.230
6.911,-0.180,-0.255
6.914,-0.195,-0.245
6.917,-0.180,-0.235
6.919,-0.165,-0.220
6.922,-0.170,-0.225
6.925,-0.170,-0.240
6.928,-0.165,-0.255
6.931,-0.180,-0.255
6.933,-0.170,-0.225
6.936,-0.165,-0.235
6.939,-0.150,-0.230
6.942,-0.175,-0.230
6.944,-0.165,-0.250
6.947,-0.180,-0.235
6.950,-0.170,-0.230
6.953,-0.155,-0.225
6.956,-0.155,-0.240
6.958,-0.170,-0.250
6.961,-0.165,-0.260
6.964,-0.175,-0.255
6.967,-0.170,-0.245
6.969,-0.150,-0.220
6.972,-0.160,-0.225
6.975,-0.165,-0.245
6.978,-0.180,-0.265
6.981,-0.175,-0.255
6.983,-0.170,-0.245
6.986,-0.155,-0.225
6.989,-0.150,-0.235
6.992,-0.160,-0.245
6.994,-0.180,-0.260
6.997,-0.180,-0.250
7.000,-0.175,-0.265
7.003,-0.165,-0.240
7.006,-0.160,-0.235
7.008,-0.160,-0.255
7.011,-0.180,-0.255
7.014,-0.185,-0.260
7.017,-0.190,-0.240
7.019,-0.175,-0.235
7.022,-0.170,-0.250
7.025,-0.160,-0.260
7.028,-0.175,-0.265
7.031,-0.190,-0.260
7.033,-0.200,-0.240
7.036,-0.180,-0.235
7.039,-0.175,-0.250
7.042,-0.175,-0.250
7.044,-0.190,-0.260
7.047,-0.210,-0.270
7.050,-0.205,-0.270
7.053,-0.195,-0.245
7.056,-0.185,-0.245
7.058,-0.190,-0.260
7.061,-0.205,-0.260
7.064,-0.210,-0.255
7.067,-0.205,-0.240
7.069,-0.200,-0.240
7.072,-0.195,-0.235
7.075,-0.205,-0.255
7.078,-0.205,-0.270
7.081,-0.210,-0.270
7.083,-0.205,-0.255
7.086,-0.200,-0.240
7.089,-0.185,-0.240
7.092,-0.220,-0.255
7.094,-0.230,-0.270
7.097,-0.230,-0.270
7.100,-0.210,-0.255
7.103,-0.215,-0.240
7.106,-0.200,-0.245
7.108,-0.215,-0.255
7.111,-0.225,-0.280
7.114,-0.225,-0.265
7.117,-0.225,-0.245
7.119,-0.210,-0.245
7.122,-0.220,-0.245
7.125,-0.235,-0.245
7.128,-0.250,-0.270
7.131,-0.245,-0.260
7.133,-0.235,-0.265
7.136,-0.225,-0.230
7.139,-0.220,-0.235
7.142,-0.235,-0.245
7.144,-0.230,-0.260
7.147,-0.240,-0.255
7.150,-0.220,-0.255
7.153,-0.220,-0.245
7.156,-0.215,-0.255
7.158,-0.230,-0.260
7.161,-0.240,-0.260
7.164,-0.245,-0.245
7.167,-0.225,-0.245
7.169,-0.215,-0.215
7.172,-0.220,-0.225
7.175,-0.215,-0.255
7.178,-0.230,-0.265
7.181,-0.215,-0.260
7.183,-0.220,-0.240
7.186,-0.200,-0.235
7.189,-0.195,-0.240
7.192,-0.205,-0.245
7.194,-0.215,-0.260
7.197,-0.230,-0.255
7.200,-0.215,-0.270
7.203,-0.175,-0.275
7.206,-0.165,-0.280
7.208,-0.160,-0.310
7.211,-0.170,-0.325
7.214,-0.165,-0.340
7.217,-0.155,-0.330
7.219,-0.135,-0.320
7.222,-0.115,-0.335
7.225,-0.105,-0.340
7.228,-0.120,-0.345
7.231,-0.140,-0.335
7.233,-0.180,-0.300
7.236,-0.160,-0.280
7.239,-0.165,-0.275
7.242,-0.190,-0.275
7.244,-0.220,-0.260
7.247,-0.215,-0.240
7.250,-0.215,-0.225
7.253,-0.200,-0.215
7.256,-0.200,-0.230
7.258,-0.235,-0.245
7.261,-0.260,-0.250
7.264,-0.270,-0.260
7.267,-0.295,-0.260
7.269,-0.290,-0.245
7.272,-0.270,-0.240
7.275,-0.270,-0.260
7.278,-0.290,-0.265
7.281,-0.305,-0.275
7.283,-0.300,-0.250
7.286,-0.300,-0.250
7.289,-0.270,-0.250
7.292,-0.270,-0.255
7.294,-0.280,-0.270
7.297,-0.285,-0.260
7.300,-0.290,-0.245
7.303,-0.280,-0.220
7.306,-0.265,-0.185
7.308,-0.255,-0.140
7.311,-0.275,-0.120
7.314,-0.275,-0.120
7.317,-0.265,-0.140
7.319,-0.250,-0.225
7.322,-0.270,-0.365
7.325,-0.290,-0.570
7.328,-0.335,-0.805
7.331,-0.310,-1.010
7.333,-0.200,-1.135
7.336,-0.045,-1.195
7.339,0.155,-1.165
7.342,0.315,-1.090
7.344,0.410,-1.000
7.347,0.415,-0.840
7.350,0.310,-0.670
7.353,0.100,-0.490
7.356,-0.155,-0.375
7.358,-0.345,-0.260
7.361,-0.420,-0.225
7.364,-0.415,-0.170
7.367,-0.360,-0.150
7.369,-0.305,-0.145
7.372,-0.260,-0.140
7.375,-0.260,-0.145
7.378,-0.270,-0.160
7.381,-0.300,-0.160
7.383,-0.295,-0.155
7.386,-0.290,-0.145
7.389,-0.295,-0.145
7.392,-0.305,-0.160
7.394,-0.310,-0.180
7.397,-0.315,-0.185
7.400,-0.280,-0.170
7.403,-0.275,-0.170
7.406,-0.265,-0.165
7.408,-0.280,-0.170
7.411,-0.290,-0.180
7.414,-0.300,-0.180
7.417,-0.300,-0.175
7.419,-0.265,-0.165
7.422,-0.265,-0.160
7.425,-0.275,-0.175
7.428,-0.290,-0.190
7.431,-0.305,-0.180
7.433,-0.280,-0.170
7.436,-0.280,-0.160
7.439,-0.270,-0.160
7.442,-0.270,-0.185
7.444,-0.275,-0.195
7.447,-0.285,-0.195
7.450,-0.275,-0.165
7.453,-0.260,-0.155
7.456,-0.245,-0.170
7.458,-0.265,-0.185
7.461,-0.295,-0.200
7.464,-0.300,-0.190
7.467,-0.285,-0.190
7.469,-0.265,-0.175
7.472,-0.255,-0.170
7.475,-0.265,-0.185
7.478,-0.290,-0.200
7.481,-0.310,-0.190
7.483,-0.300,-0.185
7.486,-0.295,-0.175
7.489,-0.270,-0.195
7.492,-0.260,-0.200
7.494,-0.270,-0.205
7.497,-0.285,-0.210
7.500,-0.270,-0.205
7.503,-0.270,-0.180
7.506,-0.255,-0.190
7.508,-0.260,-0.200
7.511,-0.280,-0.210
7.514,-0.290,-0.205
7.517,-0.290,-0.185
7.519,-0.270,-0.185
7.522,-0.260,-0.190
7.525,-0.275,-0.195
7.528,-0.295,-0.215
7.531,-0.290,-0.195
7.533,-0.280,-0.185
7.536,-0.270,-0.165
7.539,-0.255,-0.175
7.542,-0.260,-0.190
7.544,-0.280,-0.210
7.547,-0.300,-0.195
7.550,-0.305,-0.195
7.553,-0.295,-0.180
7.556,-0.275,-0.185
7.558,-0.290,-0.205
7.561,-0.295,-0.210
7.564,-0.305,-0.210
7.567,-0.295,-0.205
7.569,-0.290,-0.190
7.572,-0.280,-0.205
7.575,-0.295,-0.205
7.578,-0.305,-0.225
7.581,-0.310,-0.210
7.583,-0.310,-0.200
7.586,-0.305,-0.200
7.589,-0.315,-0.200
7.592,-0.355,-0.225
7.594,-0.365,-0.225
7.597,-0.380,-0.225
7.600,-0.390,-0.220
7.603,-0.385,-0.215
7.606,-0.385,-0.225
7.608,-0.375,-0.225
7.611,-0.385,-0.235
7.614,-0.400,-0.220
7.617,-0.390,-0.205
7.619,-0.390,-0.205
7.622,-0.385,-0.200
7.625,-0.395,-0.215
7.628,-0.415,-0.235
7.631,-0.420,-0.240
7.633,-0.440,-0.230
7.636,-0.405,-0.210
7.639,-0.370,-0.220
7.642,-0.380,-0.230
7.644,-0.410,-0.235
7.647,-0.405,-0.245
7.650,-0.410,-0.235
7.653,-0.405,-0.215
7.656,-0.395,-0.230
7.658,-0.400,-0.235
7.661,-0.435,-0.240
7.664,-0.435,-0.235
7.667,-0.430,-0.225
7.669,-0.415,-0.210
7.672,-0.395,-0.230
7.675,-0.395,-0.235
7.678,-0.435,-0.250
7.681,-0.430,-0.240
7.683,-0.435,-0.240
7.686,-0.430,-0.220
7.689,-0.435,-0.235
7.692,-0.420,-0.245
7.694,-0.430,-0.260
7.697,-0.440,-0.250
7.700,-0.435,-0.230
7.703,-0.425,-0.225
7.706,-0.415,-0.225
7.708,-0.415,-0.240
7.711,-0.425,-0.245
7.714,-0.440,-0.245
7.717,-0.435,-0.245
7.719,-0.425,-0.240
7.722,-0.445,-0.255
7.725,-0.430,-0.250
7.728,-0.445,-0.260
7.731,-0.445,-0.270
7.733,-0.440,-0.250
7.736,-0.435,-0.235
7.739,-0.430,-0.240
7.742,-0.430,-0.260
7.744,-0.435,-0.265
7.747,-0.450,-0.255
7.750,-0.430,-0.245
7.753,-0.425,-0.240
7.756,-0.405,-0.245
7.758,-0.420,-0.260
7.761,-0.435,-0.275
7.764,-0.430,-0.250
7.767,-0.430,-0.245
7.769,-0.425,-0.250
7.772,-0.415,-0.250
7.775,-0.430,-0.260
7.778,-0.435,-0.265
7.781,-0.440,-0.270
7.783,-0.445,-0.260
7.786,-0.410,-0.260
7.789,-0.410,-0.250
7.792,-0.410,-0.255
7.794,-0.430,-0.270
7.797,-0.435,-0.270
7.800,-0.430,-0.250
7.803,-0.415,-0.250
7.806,-0.395,-0.250
7.808,-0.400,-0.275
7.811,-0.410,-0.270
7.814,-0.430,-0.265
7.817,-0.420,-0.255
7.819,-0.410,-0.250
7.822,-0.400,-0.250
7.825,-0.415,-0.260
7.828,-0.425,-0.265
7.831,-0.430,-0.270
7.833,-0.425,-0.250
7.836,-0.420,-0.245
7.839,-0.400,-0.245
7.842,-0.410,-0.255
7.844,-0.405,-0.255
7.847,-0.420,-0.270
7.850,-0.420,-0.250
7.853,-0.405,-0.250
7.856,-0.405,-0.245
7.858,-0.405,-0.250
7.861,-0.420,-0.265
7.864,-0.420,-0.270
7.867,-0.415,-0.250
7.869,-0.405,-0.240
7.872,-0.400,-0.245
7.875,-0.405,-0.260
7.878,-0.400,-0.270
7.881,-0.410,-0.250
7.883,-0.420,-0.260
7.886,-0.400,-0.240
7.889,-0.385,-0.250
7.892,-0.385,-0.260
7.894,-0.400,-0.255
7.897,-0.405,-0.270
7.900,-0.415,-0.260
7.903,-0.390,-0.245
7.906,-0.390,-0.240
7.908,-0.395,-0.260
7.911,-0.400,-0.265
7.914,-0.420,-0.275
7.917,-0.395,-0.255
7.919,-0.390,-0.250
7.922,-0.375,-0.255
7.925,-0.390,-0.260
7.928,-0.405,-0.270
7.931,-0.420,-0.260
7.933,-0.415,-0.255
7.936,-0.395,-0.250
7.939,-0.385,-0.240
7.942,-0.395,-0.255
7.944,-0.400,-0.260
7.947,-0.410,-0.265
7.950,-0.425,-0.250
7.953,-0.395,-0.240
7.956,-0.385,-0.235
7.958,-0.400,-0.245
7.961,-0.410,-0.265
7.964,-0.415,-0.265
7.967,-0.400,-0.235
7.969,-0.390,-0.230
7.972,-0.380,-0.220
7.975,-0.385,-0.235
7.978,-0.395,-0.240
7.981,-0.405,-0.240
7.983,-0.395,-0.225
7.986,-0.375,-0.215
7.989,-0.365,-0.225
7.992,-0.370,-0.250
7.994,-0.385,-0.260
7.997,-0.390,-0.245
8.000,-0.385,-0.230
8.003,-0.370,-0.220
8.006,-0.360,-0.225
8.008,-0.370,-0.240
8.011,-0.360,-0.260
8.014,-0.375,-0.260
8.017,-0.360,-0.260
8.019,-0.340,-0.265
8.022,-0.320,-0.285
8.025,-0.320,-0.305
8.028,-0.325,-0.335
8.031,-0.320,-0.340
8.033,-0.310,-0.310
8.036,-0.280,-0.320
8.039,-0.260,-0.320
8.042,-0.250,-0.345
8.044,-0.260,-0.330
8.047,-0.265,-0.305
8.050,-0.285,-0.295
8.053,-0.290,-0.270
8.056,-0.290,-0.275
8.058,-0.305,-0.265
8.061,-0.325,-0.260
8.064,-0.340,-0.245
8.067,-0.335,-0.225
8.069,-0.310,-0.205
8.072,-0.315,-0.230
8.075,-0.325,-0.240
8.078,-0.355,-0.250
8.081,-0.385,-0.255
8.083,-0.400,-0.235
8.086,-0.395,-0.235
8.089,-0.385,-0.240
8.092,-0.400,-0.260
8.094,-0.405,-0.260
8.097,-0.410,-0.265
8.100,-0.400,-0.240
8.103,-0.390,-0.235
8.106,-0.390,-0.235
8.108,-0.390,-0.245
8.111,-0.410,-0.250
8.114,-0.395,-0.250
8.117,-0.380,-0.230
8.119,-0.365,-0.200
8.122,-0.355,-0.220
8.125,-0.360,-0.200
8.128,-0.375,-0.165
8.131,-0.360,-0.135
8.133,-0.365,-0.120
8.136,-0.335,-0.130
8.139,-0.335,-0.220
8.142,-0.355,-0.355
8.144,-0.385,-0.555
8.147,-0.400,-0.765
8.150,-0.340,-0.940
8.153,-0.235,-1.065
8.156,-0.075,-1.135
8.158,0.085,-1.155
8.161,0.220,-1.115
8.164,0.350,-0.995
8.167,0.395,-0.840
8.169,0.325,-0.685
8.172,0.145,-0.545
8.175,-0.095,-0.410
8.178,-0.295,-0.290
8.181,-0.400,-0.195
8.183,-0.430,-0.120
8.186,-0.400,-0.100
8.189,-0.350,-0.100
8.192,-0.335,-0.115
8.194,-0.340,-0.135
8.197,-0.350,-0.135
8.200,-0.345,-0.120
8.203,-0.345,-0.120
8.206,-0.360,-0.115
8.208,-0.355,-0.130
8.211,-0.345,-0.130
8.214,-0.365,-0.135
8.217,-0.350,-0.135
8.219,-0.350,-0.125
8.222,-0.330,-0.115
8.225,-0.335,-0.130
8.228,-0.350,-0.145
8.231,-0.355,-0.135
8.233,-0.360,-0.125
8.236,-0.340,-0.115
8.239,-0.335,-0.125
8.242,-0.335,-0.135
8.244,-0.340,-0.145
8.247,-0.345,-0.150
8.250,-0.345,-0.130
8.253,-0.335,-0.120
8.256,-0.325,-0.120
8.258,-0.330,-0.140
8.261,-0.345,-0.150
8.264,-0.340,-0.150
8.267,-0.320,-0.135
8.269,-0.310,-0.110
8.272,-0.300,-0.120
8.275,-0.305,-0.120
8.278,-0.310,-0.145
8.281,-0.310,-0.145
8.283,-0.300,-0.130
8.286,-0.300,-0.125
8.289,-0.280,-0.130
8.292,-0.290,-0.140
8.294,-0.300,-0.145
8.297,-0.305,-0.135
8.300,-0.305,-0.145
8.303,-0.300,-0.115
8.306,-0.290,-0.125
8.308,-0.285,-0.130
8.311,-0.305,-0.150
8.314,-0.310,-0.145
8.317,-0.295,-0.140
8.319,-0.285,-0.125
8.322,-0.290,-0.135
8.325,-0.295,-0.140
8.328,-0.300,-0.140
8.331,-0.305,-0.145
8.333,-0.295,-0.125
8.336,-0.295,-0.110
8.339,-0.280,-0.125
8.342,-0.275,-0.135
8.344,-0.300,-0.135
8.347,-0.300,-0.150
8.350,-0.295,-0.135
8.353,-0.275,-0.130
8.356,-0.275,-0.130
8.358,-0.280,-0.130
8.361,-0.275,-0.145
8.364,-0.295,-0.130
8.367,-0.295,-0.125
8.369,-0.290,-0.115
8.372,-0.270,-0.125
8.375,-0.280,-0.135
8.378,-0.285,-0.160
8.381,-0.300,-0.145
8.383,-0.285,-0.130
8.386,-0.285,-0.125
8.389,-0.275,-0.130
8.392,-0.280,-0.150
8.394,-0.305,-0.160
8.397,-0.300,-0.155
8.400,-0.315,-0.155
8.403,-0.305,-0.135
8.406,-0.300,-0.140
8.408,-0.310,-0.165
8.411,-0.345,-0.165
8.414,-0.340,-0.170
8.417,-0.340,-0.165
8.419,-0.340,-0.155
8.422,-0.325,-0.160
8.425,-0.325,-0.165
8.428,-0.345,-0.190
8.431,-0.350,-0.175
8.433,-0.350,-0.155
8.436,-0.345,-0.160
8.439,-0.345,-0.160
8.442,-0.330,-0.175
8.444,-0.345,-0.175
8.447,-0.365,-0.170
8.450,-0.345,-0.175
8.453,-0.340,-0.155
8.456,-0.320,-0.165
8.458,-0.325,-0.175
8.461,-0.340,-0.180
8.464,-0.345,-0.180
8.467,-0.355,-0.165
8.469,-0.330,-0.160
8.472,-0.320,-0.165
8.475,-0.320,-0.175
8.478,-0.340,-0.185
8.481,-0.340,-0.185
8.483,-0.345,-0.175
8.486,-0.320,-0.160
8.489,-0.320,-0.160
8.492,-0.320,-0.185
8.494,-0.335,-0.180
8.497,-0.345,-0.200
8.500,-0.340,-0.185
8.503,-0.340,-0.160
8.506,-0.315,-0.170
8.508,-0.320,-0.185
8.511,-0.340,-0.195
8.514,-0.345,-0.180
8.517,-0.335,-0.175
8.519,-0.310,-0.170
8.522,-0.315,-0.170
8.525,-0.315,-0.180
8.528,-0.325,-0.195
8.531,-0.330,-0.180
8.533,-0.325,-0.170
8.536,-0.315,-0.160
8.539,-0.295,-0.175
8.542,-0.310,-0.175
8.544,-0.320,-0.200
8.547,-0.320,-0.175
8.550,-0.315,-0.180
8.553,-0.315,-0.175
8.556,-0.290,-0.175
8.558,-0.305,-0.185
8.561,-0.315,-0.200
8.564,-0.330,-0.200
8.567,-0.315,-0.175
8.569,-0.305,-0.160
8.572,-0.310,-0.170
8.575,-0.275,-0.170
8.578,-0.320,-0.190
8.581,-0.290,-0.195
8.583,-0.295,-0.180
8.586,-0.285,-0.185
8.589,-0.270,-0.180
8.592,-0.295,-0.195
8.594,-0.290,-0.195
8.597,-0.300,-0.190
8.600,-0.285,-0.165
8.603,-0.280,-0.170
8.606,-0.280,-0.175
8.608,-0.275,-0.190
8.611,-0.280,-0.190
8.614,-0.290,-0.195
8.617,-0.285,-0.175
8.619,-0.265,-0.165
8.622,-0.250,-0.175
8.625,-0.250,-0.180
8.628,-0.265,-0.200
8.631,-0.275,-0.195
8.633,-0.270,-0.190
8.636,-0.260,-0.185
8.639,-0.250,-0.175
8.642,-0.260,-0.180
8.644,-0.275,-0.200
8.647,-0.275,-0.195
8.650,-0.280,-0.180
8.653,-0.255,-0.175
8.656,-0.250,-0.190
8.658,-0.255,-0.190
8.661,-0.265,-0.200
8.664,-0.275,-0.200
8.667,-0.265,-0.180
8.669,-0.255,-0.160
8.672,-0.240,-0.170
8.675,-0.240,-0.185
8.678,-0.245,-0.200
8.681,-0.255,-0.195
8.683,-0.245,-0.175
8.686,-0.230,-0.150
8.689,-0.225,-0.150
8.692,-0.210,-0.140
8.694,-0.205,-0.160
8.697,-0.210,-0.145
8.700,-0.200,-0.120
8.703,-0.175,-0.110
8.706,-0.160,-0.105
8.708,-0.145,-0.110
8.711,-0.165,-0.120
8.714,-0.145,-0.120
8.717,-0.140,-0.100
8.719,-0.120,-0.110
8.722,-0.095,-0.140
8.725,-0.060,-0.190
8.728,-0.030,-0.235
8.731,-0.020,-0.245
8.733,-0.025,-0.230
8.736,-0.010,-0.220
8.739,0.005,-0.225
8.742,-0.005,-0.245
8.744,-0.025,-0.235
8.747,-0.055,-0.220
8.750,-0.070,-0.195
8.753,-0.070,-0.170
8.756,-0.080,-0.165
8.758,-0.080,-0.165
8.761,-0.105,-0.185
8.764,-0.115,-0.180
8.767,-0.130,-0.185
8.769,-0.160,-0.175
8.772,-0.170,-0.190
8.775,-0.200,-0.205
8.778,-0.235,-0.220
8.781,-0.250,-0.220
8.783,-0.255,-0.205
8.786,-0.250,-0.190
8.789,-0.255,-0.190
8.792,-0.255,-0.195
8.794,-0.250,-0.210
8.797,-0.265,-0.215
8.800,-0.260,-0.195
8.803,-0.240,-0.180
8.806,-0.225,-0.185
8.808,-0.245,-0.200
8.811,-0.235,-0.205
8.814,-0.235,-0.205
8.817,-0.230,-0.185
8.819,-0.210,-0.175
8.822,-0.205,-0.160
8.825,-0.205,-0.140
8.828,-0.205,-0.100
8.831,-0.215,-0.055
8.833,-0.195,-0.055
8.836,-0.185,-0.090
8.839,-0.195,-0.205
8.842,-0.215,-0.360
8.844,-0.240,-0.580
8.847,-0.245,-0.800
8.850,-0.170,-1.000
8.853,-0.015,-1.135
8.856,0.170,-1.195
8.858,0.370,-1.160
8.861,0.525,-1.050
8.864,0.620,-0.900
8.867,0.620,-0.750
8.869,0.480,-0.605
8.872,0.250,-0.470
8.875,-0.015,-0.340
8.878,-0.195,-0.245
8.881,-0.280,-0.165
8.883,-0.280,-0.105
8.886,-0.245,-0.080
8.889,-0.215,-0.065
8.892,-0.200,-0.080
8.894,-0.195,-0.095
8.897,-0.195,-0.095
8.900,-0.190,-0.085
8.903,-0.185,-0.070
8.906,-0.190,-0.080
8.908,-0.205,-0.095
8.911,-0.230,-0.115
8.914,-0.210,-0.100
8.917,-0.205,-0.090
8.919,-0.200,-0.085
8.922,-0.205,-0.090
8.925,-0.175,-0.100
8.928,-0.185,-0.120
8.931,-0.190,-0.115
8.933,-0.180,-0.115
8.936,-0.170,-0.100
8.939,-0.165,-0.095
8.942,-0.170,-0.110
8.944,-0.170,-0.110
8.947,-0.180,-0.115
8.950,-0.170,-0.105
8.953,-0.165,-0.085
8.956,-0.155,-0.100
8.958,-0.170,-0.115
8.961,-0.170,-0.130
8.964,-0.165,-0.115
8.967,-0.155,-0.100
8.969,-0.150,-0.085
8.972,-0.140,-0.095
8.975,-0.145,-0.115
8.978,-0.155,-0.115
8.981,-0.170,-0.125
8.983,-0.160,-0.105
8.986,-0.145,-0.080
8.989,-0.125,-0.100
8.992,-0.135,-0.105
8.994,-0.150,-0.120
8.997,-0.165,-0.115
9.000,-0.150,-0.110
9.003,-0.130,-0.085
9.006,-0.120,-0.100
9.008,-0.120,-0.115
9.011,-0.130,-0.115
9.014,-0.130,-0.115
9.017,-0.120,-0.105
9.019,-0.110,-0.080
9.022,-0.105,-0.085
9.025,-0.100,-0.105
9.028,-0.120,-0.125
9.031,-0.120,-0.115
9.033,-0.115,-0.100
9.036,-0.095,-0.080
9.039,-0.085,-0.090
9.042,-0.080,-0.110
9.044,-0.100,-0.115
9.047,-0.100,-0.105
9.050,-0.105,-0.105
9.053,-0.080,-0.075
9.056,-0.070,-0.080
9.058,-0.070,-0.105
9.061,-0.070,-0.115
9.064,-0.085,-0.105
9.067,-0.095,-0.110
9.069,-0.085,-0.085
9.072,-0.055,-0.095
9.075,-0.060,-0.090
9.078,-0.080,-0.105
9.081,-0.080,-0.100
9.083,-0.065,-0.090
9.086,-0.070,-0.070
9.089,-0.065,-0.080
9.092,-0.075,-0.095
9.094,-0.080,-0.110
9.097,-0.085,-0.095
9.100,-0.080,-0.090
9.103,-0.085,-0.080
9.106,-0.075,-0.090
9.108,-0.095,-0.095
9.111,-0.100,-0.110
9.114,-0.115,-0.115
9.117,-0.125,-0.110
9.119,-0.110,-0.100
9.122,-0.110,-0.110
9.125,-0.110,-0.130
9.128,-0.125,-0.145
9.131,-0.125,-0.140
9.133,-0.130,-0.135
9.136,-0.135,-0.125
9.139,-0.125,-0.130
9.142,-0.140,-0.150
9.144,-0.155,-0.160
9.147,-0.165,-0.160
9.150,-0.160,-0.150
9.153,-0.140,-0.135
9.156,-0.145,-0.135
9.158,-0.145,-0.155
9.161,-0.160,-0.175
9.164,-0.170,-0.165
9.167,-0.170,-0.160
9.169,-0.165,-0.155
9.172,-0.150,-0.150
9.175,-0.165,-0.180
9.178,-0.180,-0.180
9.181,-0.180,-0.165
9.183,-0.170,-0.160
9.186,-0.160,-0.160
9.189,-0.150,-0.145
9.192,-0.165,-0.170
9.194,-0.175,-0.185
9.197,-0.175,-0.175
9.200,-0.180,-0.155
9.203,-0.160,-0.155
9.206,-0.155,-0.155
9.208,-0.165,-0.155
9.211,-0.170,-0.175
9.214,-0.175,-0.180
9.217,-0.175,-0.170
9.219,-0.170,-0.145
9.222,-0.160,-0.160
9.225,-0.170,-0.155
9.228,-0.170,-0.180
9.231,-0.190,-0.180
9.233,-0.175,-0.160
9.236,-0.155,-0.165
9.239,-0.155,-0.170
9.242,-0.165,-0.190
9.244,-0.170,-0.200
9.247,-0.185,-0.190
9.250,-0.175,-0.170
9.253,-0.165,-0.150
9.256,-0.160,-0.155
9.258,-0.170,-0.180
9.261,-0.195,-0.195
9.264,-0.195,-0.195
9.267,-0.180,-0.175
9.269,-0.160,-0.175
9.272,-0.165,-0.180
9.275,-0.160,-0.185
9.278,-0.180,-0.200
9.281,-0.175,-0.210
9.283,-0.175,-0.180
9.286,-0.160,-0.160
9.289,-0.140,-0.175
9.292,-0.140,-0.200
9.294,-0.155,-0.205
9.297,-0.160,-0.195
9.300,-0.150,-0.190
9.303,-0.135,-0.175
9.306,-0.140,-0.185
9.308,-0.135,-0.185
9.311,-0.145,-0.200
9.314,-0.155,-0.205
9.317,-0.155,-0.200
9.319,-0.140,-0.190
9.322,-0.125,-0.190
9.325,-0.130,-0.195
9.328,-0.135,-0.205
9.331,-0.150,-0.200
9.333,-0.145,-0.190
9.336,-0.135,-0.180
9.339,-0.135,-0.190
9.342,-0.145,-0.200
9.344,-0.125,-0.210
9.347,-0.150,-0.210
9.350,-0.140,-0.190
9.353,-0.135,-0.180
9.356,-0.125,-0.195
9.358,-0.130,-0.195
9.361,-0.135,-0.215
9.364,-0.140,-0.215
9.367,-0.130,-0.195
9.369,-0.115,-0.180
9.372,-0.100,-0.190
9.375,-0.115,-0.200
9.378,-0.125,-0.210
9.381,-0.130,-0.210
9.383,-0.135,-0.190
9.386,-0.115,-0.195
9.389,-0.105,-0.195
9.392,-0.120,-0.200
9.394,-0.130,-0.205
9.397,-0.140,-0.205
9.400,-0.120,-0.195
9.403,-0.105,-0.190
9.406,-0.095,-0.200
9.408,-0.095,-0.205
9.411,-0.115,-0.215
9.414,-0.130,-0.205
9.417,-0.130,-0.200
9.419,-0.110,-0.185
9.422,-0.105,-0.190
9.425,-0.100,-0.205
9.428,-0.095,-0.200
9.431,-0.105,-0.195
9.433,-0.100,-0.200
9.436,-0.100,-0.185
9.439,-0.075,-0.190
9.442,-0.090,-0.215
9.444,-0.090,-0.220
9.447,-0.115,-0.210
9.450,-0.100,-0.190
9.453,-0.095,-0.185
9.456,-0.090,-0.190
9.458,-0.095,-0.195
9.461,-0.105,-0.205
9.464,-0.115,-0.205
9.467,-0.105,-0.185
9.469,-0.085,-0.190
9.472,-0.085,-0.185
9.475,-0.095,-0.195
9.478,-0.095,-0.200
9.481,-0.110,-0.215
9.483,-0.095,-0.200
9.486,-0.085,-0.200
9.489,-0.080,-0.210
9.492,-0.085,-0.215
9.494,-0.085,-0.230
9.497,-0.100,-0.210
9.500,-0.090,-0.200
9.503,-0.085,-0.190
9.506,-0.075,-0.195
9.508,-0.080,-0.200
9.511,-0.100,-0.230
9.514,-0.095,-0.215
9.517,-0.090,-0.205
9.519,-0.075,-0.190
9.522,-0.075,-0.200
9.525,-0.070,-0.205
9.528,-0.080,-0.210
9.531,-0.095,-0.225
9.533,-0.090,-0.195
9.536,-0.075,-0.195
9.539,-0.060,-0.200
9.542,-0.075,-0.200
9.544,-0.100,-0.220
9.547,-0.085,-0.205
9.550,-0.080,-0.185
9.553,-0.070,-0.175
9.556,-0.055,-0.190
9.558,-0.070,-0.210
9.561,-0.100,-0.220
9.564,-0.100,-0.215
9.567,-0.085,-0.200
9.569,-0.055,-0.195
9.572,-0.055,-0.200
9.575,-0.055,-0.200
9.578,-0.075,-0.210
9.581,-0.080,-0.195
9.583,-0.090,-0.190
9.586,-0.055,-0.180
9.589,-0.035,-0.190
9.592,-0.050,-0.195
9.594,-0.050,-0.205
9.597,-0.050,-0.195
9.600,-0.040,-0.190
9.603,-0.040,-0.170
9.606,-0.030,-0.185
9.608,-0.030,-0.195
9.611,-0.025,-0.230
9.614,-0.045,-0.230
9.617,-0.030,-0.215
9.619,-0.010,-0.205
9.622,0.000,-0.220
9.625,-0.005,-0.250
9.628,-0.025,-0.280
9.631,-0.005,-0.265
9.633,0.000,-0.270
9.636,0.020,-0.270
9.639,0.045,-0.270
9.642,0.040,-0.295
9.644,0.045,-0.305
9.647,0.055,-0.300
9.650,0.065,-0.280
9.653,0.070,-0.265
9.656,0.050,-0.270
9.658,0.050,-0.260
9.661,0.020,-0.265
9.664,-0.005,-0.245
9.667,0.000,-0.200
9.669,-0.020,-0.170
9.672,-0.005,-0.170
9.675,-0.005,-0.175
9.678,-0.005,-0.195
9.681,-0.020,-0.190
9.683,-0.025,-0.185
9.686,-0.045,-0.185
9.689,-0.045,-0.195
9.692,-0.055,-0.195
9.694,-0.070,-0.210
9.697,-0.080,-0.200
9.700,-0.080,-0.185
9.703,-0.075,-0.175
9.706,-0.070,-0.195
9.708,-0.080,-0.200
9.711,-0.065,-0.215
9.714,-0.075,-0.215
9.717,-0.070,-0.205
9.719,-0.060,-0.205
9.722,-0.055,-0.200
9.725,-0.070,-0.205
9.728,-0.075,-0.215
9.731,-0.075,-0.195
9.733,-0.055,-0.170
9.736,-0.050,-0.145
9.739,-0.040,-0.115
9.742,-0.040,-0.080
9.744,-0.045,-0.060
9.747,-0.050,-0.070
9.750,-0.040,-0.110
9.753,-0.035,-0.200
9.756,-0.050,-0.340
9.758,-0.070,-0.550
9.761,-0.070,-0.755
9.764,-0.010,-0.935
9.767,0.115,-1.085
9.769,0.270,-1.175
9.772,0.445,-1.175
9.775,0.605,-1.115
9.778,0.710,-0.985
9.781,0.740,-0.830
9.783,0.670,-0.665
9.786,0.480,-0.515
9.789,0.250,-0.390
9.792,0.040,-0.255
9.794,-0.075,-0.180
9.797,-0.120,-0.130
9.800,-0.115,-0.100
9.803,-0.080,-0.080
9.806,-0.045,-0.085
9.808,-0.035,-0.100
9.811,-0.055,-0.105
9.814,-0.065,-0.095
9.817,-0.070,-0.080
9.819,-0.060,-0.065
9.822,-0.050,-0.075
9.825,-0.070,-0.095
9.828,-0.085,-0.110
9.831,-0.065,-0.100
9.833,-0.060,-0.090
9.836,-0.040,-0.080
9.839,-0.030,-0.090
9.842,-0.030,-0.100
9.844,-0.065,-0.115
9.847,-0.065,-0.115
9.850,-0.065,-0.100
9.853,-0.040,-0.095
9.856,-0.030,-0.110
9.858,-0.025,-0.100
9.861,-0.050,-0.110
9.864,-0.055,-0.100
9.867,-0.045,-0.100
9.869,-0.050,-0.085
9.872,-0.045,-0.085
9.875,-0.030,-0.095
9.878,-0.035,-0.110
9.881,-0.050,-0.115
9.883,-0.035,-0.095
9.886,-0.025,-0.080
9.889,-0.005,-0.085
9.892,-0.005,-0.100
9.894,-0.015,-0.110
9.897,-0.035,-0.110
9.900,-0.020,-0.100
9.903,-0.020,-0.100
9.906,-0.015,-0.100
9.908,-0.030,-0.105
9.911,-0.050,-0.120
9.914,-0.050,-0.120
9.917,-0.045,-0.110
9.919,-0.025,-0.095
9.922,-0.025,-0.095
9.925,-0.025,-0.110
9.928,-0.040,-0.125
9.931,-0.040,-0.125
9.933,-0.030,-0.105
9.936,-0.015,-0.090
9.939,-0.010,-0.100
9.942,-0.015,-0.100
9.944,-0.035,-0.110
9.947,-0.035,-0.115
9.950,-0.015,-0.100
9.953,-0.005,-0.095
9.956,0.005,-0.100
9.958,-0.020,-0.110
9.961,-0.030,-0.115
9.964,-0.035,-0.120
9.967,-0.020,-0.100
9.969,-0.015,-0.095
9.972,-0.005,-0.105
9.975,-0.010,-0.115
9.978,-0.015,-0.115
9.981,-0.025,-0.115
9.983,-0.020,-0.100
9.986,-0.020,-0.090
9.989,0.005,-0.090
9.992,0.005,-0.115
9.994,0.000,-0.120
9.997,-0.015,-0.120
10.000,-0.005,-0.115
10.003,0.005,-0.110
10.006,0.005,-0.105
10.008,-0.005,-0.100
10.011,-0.020,-0.120
10.014,-0.030,-0.115
10.017,-0.025,-0.100
10.019,-0.015,-0.075
10.022,-0.010,-0.095
10.025,-0.010,-0.100
10.028,-0.025,-0.125
10.031,-0.040,-0.120
10.033,-0.035,-0.105
10.036,-0.055,-0.105
10.039,-0.030,-0.110
10.042,-0.050,-0.130
10.044,-0.070,-0.150
10.047,-0.080,-0.140
10.050,-0.080,-0.120
10.053,-0.060,-0.120
10.056,-0.050,-0.125
10.058,-0.065,-0.135
10.061,-0.095,-0.155
10.064,-0.095,-0.155
10.067,-0.085,-0.135
10.069,-0.070,-0.135
10.072,-0.060,-0.130
10.075,-0.080,-0.140
10.078,-0.110,-0.165
10.081,-0.115,-0.145
10.083,-0.105,-0.145
10.086,-0.080,-0.140
10.089,-0.095,-0.140
10.092,-0.090,-0.155
10.094,-0.105,-0.165
10.097,-0.125,-0.175
10.100,-0.120,-0.150
10.103,-0.095,-0.135
10.106,-0.090,-0.130
10.108,-0.105,-0.140
10.111,-0.105,-0.155
10.114,-0.110,-0.155
10.117,-0.110,-0.140
10.119,-0.110,-0.130
10.122,-0.100,-0.145
10.125,-0.105,-0.160
10.128,-0.115,-0.170
10.131,-0.125,-0.155
10.133,-0.110,-0.135
10.136,-0.095,-0.120
10.139,-0.095,-0.140
10.142,-0.085,-0.145
10.144,-0.110,-0.160
10.147,-0.120,-0.165
10.150,-0.115,-0.160
10.153,-0.105,-0.135
10.156,-0.100,-0.135
10.158,-0.110,-0.140
10.161,-0.120,-0.170
10.164,-0.125,-0.155
10.167,-0.105,-0.150
10.169,-0.100,-0.130
10.172,-0.085,-0.150
10.175,-0.090,-0.145
10.178,-0.115,-0.155
10.181,-0.130,-0.160
10.183,-0.125,-0.150
10.186,-0.100,-0.130
10.189,-0.090,-0.140
10.192,-0.085,-0.170
10.194,-0.095,-0.170
10.197,-0.095,-0.170
10.200,-0.090,-0.165
10.203,-0.090,-0.160
10.206,-0.090,-0.165
10.208,-0.095,-0.175
10.211,-0.110,-0.175
10.214,-0.120,-0.175
10.217,-0.115,-0.160
10.219,-0.090,-0.155
10.222,-0.070,-0.165
10.225,-0.075,-0.170
10.228,-0.095,-0.185
10.231,-0.090,-0.170
10.233,-0.080,-0.165
10.236,-0.075,-0.160
10.239,-0.060,-0.165
10.242,-0.060,-0.180
10.244,-0.075,-0.190
10.247,-0.100,-0.195
10.250,-0.085,-0.165
10.253,-0.075,-0.155
10.256,-0.070,-0.160
10.258,-0.060,-0.170
10.261,-0.080,-0.180
10.264,-0.070,-0.170
10.267,-0.060,-0.170
10.269,-0.060,-0.170
10.272,-0.045,-0.175
10.275,-0.055,-0.180
10.278,-0.070,-0.180
10.281,-0.075,-0.180
10.283,-0.055,-0.165
10.286,-0.055,-0.155
10.289,-0.055,-0.175
10.292,-0.060,-0.190
10.294,-0.065,-0.195
10.297,-0.080,-0.190
10.300,-0.080,-0.175
10.303,-0.060,-0.160
10.306,-0.060,-0.165
10.308,-0.065,-0.175
10.311,-0.070,-0.175
10.314,-0.075,-0.185
10.317,-0.060,-0.165
10.319,-0.045,-0.150
10.322,-0.040,-0.175
10.325,-0.030,-0.180
10.328,-0.045,-0.190
10.331,-0.080,-0.180
10.333,-0.075,-0.175
10.336,-0.060,-0.165
10.339,-0.055,-0.170
10.342,-0.075,-0.190
10.344,-0.080,-0.190
10.347,-0.080,-0.195
10.350,-0.075,-0.165
10.353,-0.055,-0.150
10.356,-0.055,-0.165
10.358,-0.060,-0.175
10.361,-0.070,-0.190
10.364,-0.070,-0.185
10.367,-0.040,-0.170
10.369,-0.035,-0.170
10.372,-0.035,-0.175
10.375,-0.045,-0.180
10.378,-0.055,-0.190
10.381,-0.070,-0.190
10.383,-0.065,-0.175
10.386,-0.040,-0.160
10.389,-0.030,-0.170
10.392,-0.045,-0.185
10.394,-0.055,-0.185
10.397,-0.055,-0.195
10.400,-0.050,-0.185
10.403,-0.045,-0.170
10.406,-0.035,-0.170
10.408,-0.035,-0.180
10.411,-0.045,-0.200
10.414,-0.050,-0.190
10.417,-0.050,-0.185
10.419,-0.050,-0.170
10.422,-0.050,-0.175
10.425,-0.035,-0.190
10.428,-0.040,-0.200
10.431,-0.050,-0.185
10.433,-0.060,-0.175
10.436,-0.040,-0.165
10.439,-0.025,-0.175
10.442,-0.035,-0.180
10.444,-0.040,-0.190
10.447,-0.045,-0.200
10.450,-0.035,-0.175
10.453,-0.015,-0.150
10.456,-0.005,-0.135
10.458,-0.015,-0.155
10.461,-0.030,-0.160
10.464,-0.040,-0.145
10.467,-0.020,-0.125
10.469,0.005,-0.115
10.472,0.025,-0.110
10.475,0.020,-0.115
10.478,0.010,-0.125
10.481,0.000,-0.125
10.483,0.035,-0.120
10.486,0.050,-0.100
10.489,0.075,-0.110
10.492,0.080,-0.130
10.494,0.095,-0.165
10.497,0.100,-0.170
10.500,0.150,-0.180
10.503,0.175,-0.175
10.506,0.180,-0.200
10.508,0.210,-0.225
10.511,0.205,-0.230
10.514,0.185,-0.230
10.517,0.200,-0.225
10.519,0.195,-0.215
10.522,0.205,-0.205
10.525,0.165,-0.190
10.528,0.130,-0.195
10.531,0.105,-0.170
10.533,0.105,-0.165
10.536,0.095,-0.165
10.539,0.080,-0.165
10.542,0.045,-0.180
10.544,0.005,-0.200
10.547,0.000,-0.195
10.550,-0.030,-0.180
10.553,-0.030,-0.175
10.556,-0.040,-0.180
10.558,-0.045,-0.205
10.561,-0.065,-0.210
10.564,-0.075,-0.205
10.567,-0.090,-0.185
10.569,-0.065,-0.185
10.572,-0.065,-0.180
10.575,-0.080,-0.190
10.578,-0.095,-0.195
10.581,-0.095,-0.190
10.583,-0.085,-0.180
10.586,-0.075,-0.175
10.589,-0.075,-0.180
10.592,-0.075,-0.195
10.594,-0.085,-0.190
10.597,-0.085,-0.170
10.600,-0.075,-0.140
10.603,-0.065,-0.105
10.606,-0.060,-0.080
10.608,-0.060,-0.090
10.611,-0.065,-0.120
10.614,-0.070,-0.165
10.617,-0.080,-0.220
10.619,-0.105,-0.310
10.622,-0.140,-0.475
10.625,-0.175,-0.665
10.628,-0.190,-0.845
10.631,-0.120,-0.950
10.633,0.020,-1.025
10.636,0.185,-1.025
10.639,0.350,-0.975
10.642,0.465,-0.870
10.644,0.505,-0.745
10.647,0.395,-0.605
10.650,0.210,-0.485
10.653,0.015,-0.370
10.656,-0.115,-0.265
10.658,-0.190,-0.175
10.661,-0.230,-0.130
10.664,-0.190,-0.100
10.667,-0.105,-0.095
10.669,-0.040,-0.090
10.672,-0.015,-0.085
10.675,-0.015,-0.090
10.678,-0.030,-0.105
10.681,-0.055,-0.110
10.683,-0.040,-0.095
10.686,-0.070,-0.080
10.689,-0.030,-0.080
10.692,-0.040,-0.110
10.694,-0.065,-0.115
10.697,-0.050,-0.100
10.700,-0.040,-0.090
10.703,-0.040,-0.080
10.706,-0.030,-0.095
10.708,-0.035,-0.105
10.711,-0.045,-0.110
10.714,-0.055,-0.105
10.717,-0.030,-0.100
10.719,-0.025,-0.085
10.722,-0.005,-0.075
10.725,-0.005,-0.085
10.728,-0.015,-0.100
10.731,-0.035,-0.105
10.733,-0.025,-0.095
10.736,-0.020,-0.090
10.739,-0.015,-0.085
10.742,-0.005,-0.095
10.744,-0.015,-0.110
10.747,-0.020,-0.095
10.750,-0.010,-0.095
10.753,0.000,-0.075
10.756,-0.005,-0.080
10.758,0.000,-0.105
10.761,-0.010,-0.105
10.764,-0.010,-0.105
10.767,-0.010,-0.080
10.769,-0.005,-0.075
10.772,0.010,-0.080
10.775,0.000,-0.100
10.778,-0.010,-0.110
10.781,-0.005,-0.110
10.783,0.005,-0.110
10.786,0.015,-0.090
10.789,0.020,-0.085
10.792,0.000,-0.090
10.794,0.000,-0.110
10.797,-0.005,-0.105
10.800,-0.010,-0.090
10.803,0.010,-0.085
10.806,0.015,-0.090
10.808,0.010,-0.095
10.811,-0.010,-0.120
10.814,-0.020,-0.115
10.817,-0.005,-0.095
10.819,0.005,-0.070
10.822,0.005,-0.075
10.825,-0.005,-0.090
10.828,-0.010,-0.105
10.831,-0.015,-0.105
10.833,-0.010,-0.090
10.836,-0.005,-0.075
10.839,0.000,-0.090
10.842,-0.010,-0.100
10.844,-0.015,-0.115
10.847,-0.020,-0.105
10.850,-0.015,-0.100
10.853,-0.005,-0.080
10.856,0.005,-0.085
10.858,0.000,-0.095
10.861,-0.015,-0.110
10.864,-0.025,-0.105
10.867,-0.035,-0.105
10.869,-0.015,-0.075
10.872,-0.005,-0.095
10.875,-0.010,-0.120
10.878,-0.035,-0.115
10.881,-0.055,-0.115
10.883,-0.035,-0.110
10.886,-0.030,-0.090
10.889,-0.020,-0.105
10.892,-0.035,-0.100
10.894,-0.055,-0.125
10.897,-0.070,-0.115
10.900,-0.065,-0.110
10.903,-0.070,-0.105
10.906,-0.060,-0.095
10.908,-0.055,-0.115
10.911,-0.085,-0.125
10.914,-0.105,-0.115
10.917,-0.110,-0.100
10.919,-0.090,-0.080
10.922,-0.090,-0.095
10.925,-0.085,-0.110
10.928,-0.100,-0.120
10.931,-0.105,-0.120
10.933,-0.095,-0.110
10.936,-0.090,-0.110
10.939,-0.080,-0.095
10.942,-0.090,-0.100
10.944,-0.100,-0.105
10.947,-0.115,-0.110
10.950,-0.120,-0.090
10.953,-0.090,-0.100
10.956,-0.085,-0.090
10.958,-0.095,-0.115
10.961,-0.110,-0.120
10.964,-0.110,-0.115
10.967,-0.100,-0.105
10.969,-0.120,-0.100
10.972,-0.090,-0.110
10.975,-0.095,-0.130
10.978,-0.115,-0.135
10.981,-0.115,-0.130
10.983,-0.100,-0.115
10.986,-0.085,-0.100
10.989,-0.080,-0.115
10.992,-0.090,-0.140
10.994,-0.105,-0.145
10.997,-0.100,-0.150
11.000,-0.095,-0.135
11.003,-0.080,-0.125
11.006,-0.070,-0.125
11.008,-0.080,-0.125
11.011,-0.095,-0.145
11.014,-0.095,-0.135
11.017,-0.090,-0.135
11.019,-0.085,-0.125
11.022,-0.085,-0.135
11.025,-0.080,-0.145
11.028,-0.085,-0.155
11.031,-0.090,-0.160
11.033,-0.080,-0.145
11.036,-0.080,-0.135
11.039,-0.055,-0.130
11.042,-0.055,-0.150
11.044,-0.065,-0.160
11.047,-0.085,-0.150
11.050,-0.065,-0.145
11.053,-0.055,-0.130
11.056,-0.045,-0.130
11.058,-0.050,-0.150
11.061,-0.050,-0.150
11.064,-0.065,-0.160
11.067,-0.040,-0.150
11.069,-0.040,-0.140
11.072,-0.020,-0.135
11.075,-0.025,-0.150
11.078,-0.030,-0.150
11.081,-0.045,-0.155
11.083,-0.030,-0.140
11.086,-0.025,-0.130
11.089,-0.015,-0.135
11.092,-0.025,-0.150
11.094,-0.030,-0.155
11.097,-0.055,-0.155
11.100,-0.055,-0.130
11.103,-0.025,-0.140
11.106,-0.030,-0.135
11.108,-0.025,-0.150
11.111,-0.025,-0.160
11.114,-0.040,-0.160
11.117,-0.020,-0.150
11.119,-0.010,-0.125
11.122,0.000,-0.130
11.125,-0.005,-0.135
11.128,-0.025,-0.150
11.131,-0.030,-0.155
11.133,-0.010,-0.135
11.136,-0.005,-0.125
11.139,0.000,-0.140
11.142,-0.010,-0.150
11.144,-0.010,-0.140
11.147,-0.020,-0.155
11.150,-0.005,-0.135
11.153,0.005,-0.125
11.156,0.000,-0.130
11.158,0.005,-0.135
11.161,-0.015,-0.155
11.164,-0.010,-0.155
11.167,-0.010,-0.130
11.169,-0.005,-0.120
11.172,0.015,-0.130
11.175,0.010,-0.135
11.178,-0.015,-0.150
11.181,-0.020,-0.155
11.183,-0.005,-0.150
11.186,0.010,-0.130
11.189,0.015,-0.135
11.192,-0.005,-0.130
11.194,-0.020,-0.150
11.197,-0.015,-0.150
11.200,-0.015,-0.140
11.203,-0.010,-0.125
11.206,-0.005,-0.130
11.208,0.000,-0.140
11.211,-0.005,-0.155
11.214,-0.035,-0.145
11.217,-0.005,-0.130
11.219,0.015,-0.110
11.222,0.010,-0.115
11.225,0.010,-0.145
11.228,-0.005,-0.150
11.231,-0.005,-0.150
11.233,0.005,-0.125
11.236,0.010,-0.100
11.239,0.015,-0.115
11.242,0.010,-0.115
11.244,-0.010,-0.105
11.247,0.000,-0.100
11.250,0.030,-0.085
11.253,0.050,-0.075
11.256,0.075,-0.075
11.258,0.075,-0.070
11.261,0.060,-0.080
11.264,0.050,-0.070
11.267,0.080,-0.055
11.269,0.095,-0.040
11.272,0.130,-0.065
11.275,0.130,-0.085
11.278,0.145,-0.100
11.281,0.180,-0.125
11.283,0.210,-0.145
11.286,0.240,-0.150
11.289,0.260,-0.165
11.292,0.255,-0.170
11.294,0.250,-0.195
11.297,0.230,-0.185
11.300,0.225,-0.150
11.303,0.210,-0.130
11.306,0.195,-0.120
11.308,0.180,-0.120
11.311,0.155,-0.140
11.314,0.135,-0.140
11.317,0.125,-0.130
11.319,0.105,-0.130
11.322,0.090,-0.125
11.325,0.060,-0.155
11.328,0.025,-0.155
11.331,0.005,-0.150
11.333,-0.005,-0.130
11.336,-0.005,-0.125
11.339,-0.020,-0.135
11.342,-0.030,-0.155
11.344,-0.040,-0.165
11.347,-0.065,-0.155
11.350,-0.040,-0.145
11.353,-0.015,-0.130
11.356,-0.010,-0.115
11.358,-0.015,-0.130
11.361,-0.035,-0.145
11.364,-0.050,-0.145
11.367,-0.035,-0.130
11.369,-0.005,-0.115
11.372,0.000,-0.080
11.375,-0.005,-0.050
11.378,-0.010,-0.005
11.381,-0.015,0.020
11.383,-0.010,0.015
11.386,-0.010,-0.040
11.389,-0.025,-0.140
11.392,-0.035,-0.300
11.394,-0.045,-0.530
11.397,-0.015,-0.775
11.400,0.100,-1.000
11.403,0.265,-1.120
11.406,0.440,-1.160
11.408,0.605,-1.120
11.411,0.725,-1.005
11.414,0.780,-0.845
11.417,0.750,-0.665
11.419,0.590,-0.490
11.422,0.330,-0.335
11.425,0.085,-0.200
11.428,-0.050,-0.120
11.431,-0.075,-0.075
11.433,-0.045,-0.045
11.436,0.000,-0.040
11.439,0.015,-0.025
11.442,0.010,-0.045
11.444,-0.025,-0.045
11.447,-0.035,-0.060
11.450,-0.030,-0.040
11.453,-0.015,-0.020
11.456,-0.005,-0.040
11.458,-0.010,-0.045
11.461,-0.030,-0.055
11.464,-0.030,-0.050
11.467,-0.020,-0.040
11.469,-0.015,-0.040
11.472,-0.010,-0.045
11.475,-0.010,-0.055
11.478,-0.025,-0.075
11.481,-0.030,-0.065
11.483,-0.035,-0.055
11.486,-0.020,-0.035
11.489,0.005,-0.040
11.492,-0.010,-0.065
11.494,-0.020,-0.065
11.497,-0.030,-0.045
11.500,-0.010,-0.060
11.503,-0.005,-0.035
11.506,0.015,-0.055
11.508,-0.010,-0.065
11.511,-0.005,-0.075
11.514,-0.010,-0.070
11.517,0.000,-0.045
11.519,0.010,-0.030
11.522,0.015,-0.050
11.525,-0.015,-0.060
11.528,-0.005,-0.050
11.531,-0.015,-0.045
11.533,0.000,-0.040
11.536,0.020,-0.025
11.539,0.035,-0.030
11.542,0.020,-0.040
11.544,0.010,-0.050
11.547,0.010,-0.050
11.550,0.015,-0.040
11.553,0.030,-0.025
11.556,0.025,-0.030
11.558,0.035,-0.035
11.561,0.020,-0.060
11.564,0.015,-0.050
11.567,0.025,-0.045
11.569,0.045,-0.025
11.572,0.050,-0.025
11.575,0.050,-0.035
11.578,0.035,-0.045
11.581,0.025,-0.030
11.583,0.030,-0.025
11.586,0.035,-0.005
11.589,0.055,-0.020
11.592,0.050,-0.035
11.594,0.035,-0.035
11.597,0.040,-0.025
11.600,0.040,-0.005
11.603,0.055,-0.005
11.606,0.060,-0.005
11.608,0.045,-0.030
11.611,0.040,-0.025
11.614,0.040,-0.025
11.617,0.030,0.000
11.619,0.055,0.000
11.622,0.050,-0.010
11.625,0.025,-0.020
11.628,0.025,-0.035
11.631,0.030,-0.035
11.633,0.025,-0.020
11.636,0.045,-0.005
11.639,0.050,0.000
11.642,0.025,-0.015
11.644,0.020,-0.040
11.647,0.015,-0.025
11.650,0.010,-0.020
11.653,0.010,-0.020
11.656,0.010,-0.040
11.658,-0.010,-0.050
11.661,-0.020,-0.060
11.664,-0.035,-0.055
11.667,-0.030,-0.055
11.669,-0.025,-0.035
11.672,-0.010,-0.060
11.675,-0.020,-0.060
11.678,-0.040,-0.065
11.681,-0.040,-0.065
11.683,-0.035,-0.060
11.686,-0.035,-0.050
11.689,-0.030,-0.055
11.692,-0.030,-0.075
11.694,-0.050,-0.100
11.697,-0.070,-0.080
11.700,-0.070,-0.070
11.703,-0.060,-0.065
11.706,-0.055,-0.065
11.708,-0.055,-0.080
11.711,-0.075,-0.090
11.714,-0.090,-0.090
11.717,-0.080,-0.080
11.719,-0.080,-0.080
11.722,-0.070,-0.085
11.725,-0.065,-0.095
11.728,-0.090,-0.105
11.731,-0.090,-0.100
11.733,-0.090,-0.090
11.736,-0.080,-0.090
11.739,-0.060,-0.070
11.742,-0.075,-0.090
11.744,-0.080,-0.110
11.747,-0.100,-0.100
11.750,-0.100,-0.095
11.753,-0.080,-0.085
11.756,-0.070,-0.095
11.758,-0.085,-0.100
11.761,-0.085,-0.110
11.764,-0.090,-0.100
11.767,-0.090,-0.090
11.769,-0.080,-0.090
11.772,-0.065,-0.090
11.775,-0.070,-0.100
11.778,-0.085,-0.115
11.781,-0.085,-0.100
11.783,-0.105,-0.100
11.786,-0.080,-0.075
11.789,-0.065,-0.095
11.792,-0.065,-0.105
11.794,-0.080,-0.110
11.797,-0.085,-0.125
11.800,-0.070,-0.110
11.803,-0.065,-0.095
11.806,-0.050,-0.100
11.808,-0.070,-0.115
11.811,-0.080,-0.125
11.814,-0.085,-0.115
11.817,-0.075,-0.100
11.819,-0.065,-0.100
11.822,-0.050,-0.095
11.825,-0.065,-0.110
11.828,-0.080,-0.125
11.831,-0.075,-0.105
11.833,-0.070,-0.105
11.836,-0.070,-0.100
11.839,-0.055,-0.100
11.842,-0.040,-0.125
11.844,-0.070,-0.120
11.847,-0.085,-0.120
11.850,-0.085,-0.110
11.853,-0.065,-0.095
11.856,-0.050,-0.100
11.858,-0.070,-0.125
11.861,-0.055,-0.125
11.864,-0.065,-0.120
11.867,-0.065,-0.100
11.869,-0.050,-0.100
11.872,-0.060,-0.090
11.875,-0.055,-0.115
11.878,-0.065,-0.125
11.881,-0.060,-0.120
11.883,-0.065,-0.100
11.886,-0.045,-0.090
11.889,-0.030,-0.105
11.892,-0.035,-0.110
11.894,-0.065,-0.125
11.897,-0.065,-0.125
11.900,-0.055,-0.115
11.903,-0.040,-0.085
11.906,-0.045,-0.100
11.908,-0.050,-0.115
11.911,-0.060,-0.120
11.914,-0.075,-0.125
11.917,-0.055,-0.095
11.919,-0.045,-0.095
11.922,-0.025,-0.095
11.925,-0.045,-0.105
11.928,-0.065,-0.120
11.931,-0.065,-0.120
11.933,-0.050,-0.100
11.936,-0.040,-0.085
11.939,-0.030,-0.095
11.942,-0.035,-0.115
11.944,-0.060,-0.130
11.947,-0.065,-0.130
11.950,-0.060,-0.105
11.953,-0.040,-0.085
11.956,-0.030,-0.095
11.958,-0.050,-0.105
11.961,-0.055,-0.110
11.964,-0.065,-0.120
11.967,-0.055,-0.100
11.969,-0.040,-0.085
11.972,-0.025,-0.100
11.975,-0.040,-0.105
11.978,-0.045,-0.110
11.981,-0.060,-0.115
11.983,-0.060,-0.105
11.986,-0.050,-0.090
11.989,-0.030,-0.095
11.992,-0.060,-0.105
11.994,-0.050,-0.120
11.997,-0.060,-0.120
12.000,-0.045,-0.110
12.003,-0.040,-0.085
12.006,-0.030,-0.090
12.008,-0.045,-0.115
12.011,-0.060,-0.135
12.014,-0.060,-0.120
12.017,-0.045,-0.095
12.019,-0.035,-0.085
12.022,-0.035,-0.090
12.025,-0.040,-0.115
12.028,-0.050,-0.115
12.031,-0.055,-0.110
12.033,-0.045,-0.100
12.036,-0.030,-0.080
12.039,-0.045,-0.085
12.042,-0.040,-0.100
12.044,-0.050,-0.110
12.047,-0.070,-0.110
12.050,-0.055,-0.105
12.053,-0.045,-0.090
12.056,-0.025,-0.100
12.058,-0.030,-0.095
12.061,-0.050,-0.095
12.064,-0.050,-0.085
12.067,-0.055,-0.075
12.069,-0.030,-0.040
12.072,-0.010,-0.035
12.075,0.000,-0.050
12.078,-0.005,-0.060
12.081,-0.010,-0.060
12.083,0.010,-0.030
12.086,0.020,-0.025
12.089,0.040,-0.030
12.092,0.050,-0.050
12.094,0.045,-0.080
12.097,0.060,-0.095
12.100,0.095,-0.115
12.103,0.140,-0.130
12.106,0.150,-0.135
12.108,0.145,-0.155
12.111,0.150,-0.155
12.114,0.135,-0.160
12.117,0.145,-0.155
12.119,0.145,-0.130
12.122,0.135,-0.130
12.125,0.110,-0.130
12.128,0.085,-0.140
12.131,0.055,-0.105
12.133,0.075,-0.100
12.136,0.070,-0.065
12.139,0.075,-0.070
12.142,0.060,-0.105
12.144,0.020,-0.115
12.147,0.000,-0.110
12.150,-0.050,-0.095
12.153,-0.040,-0.100
12.156,-0.040,-0.095
12.158,-0.065,-0.110
12.161,-0.090,-0.115
12.164,-0.105,-0.120
12.167,-0.095,-0.115
12.169,-0.085,-0.100
12.172,-0.080,-0.100
12.175,-0.090,-0.115
12.178,-0.100,-0.140
12.181,-0.100,-0.120
12.183,-0.100,-0.100
12.186,-0.080,-0.085
12.189,-0.065,-0.090
12.192,-0.085,-0.095
12.194,-0.085,-0.085
12.197,-0.080,-0.025
12.200,-0.065,0.030
12.203,-0.050,0.050
12.206,-0.050,0.010
12.208,-0.060,-0.110
12.211,-0.075,-0.255
12.214,-0.100,-0.465
12.217,-0.095,-0.670
12.219,-0.045,-0.850
12.222,0.060,-1.015
12.225,0.180,-1.105
12.228,0.300,-1.120
12.231,0.460,-1.010
12.233,0.590,-0.860
12.236,0.650,-0.695
12.239,0.580,-0.545
12.242,0.365,-0.400
12.244,0.150,-0.280
12.247,-0.005,-0.145
12.250,-0.085,-0.045
12.253,-0.105,-0.010
12.256,-0.090,0.000
12.258,-0.085,-0.010
12.261,-0.095,-0.020
12.264,-0.115,-0.020
12.267,-0.115,0.000
12.269,-0.105,0.015
12.272,-0.090,-0.005
12.275,-0.095,-0.010
12.278,-0.115,-0.035
12.281,-0.105,-0.025
12.283,-0.105,-0.020
12.286,-0.105,-0.015
12.289,-0.090,-0.015
12.292,-0.090,-0.020
12.294,-0.115,-0.040
12.297,-0.115,-0.040
12.300,-0.100,-0.015
12.303,-0.085,-0.015
12.306,-0.080,-0.010
12.308,-0.080,-0.020
12.311,-0.100,-0.040
12.314,-0.100,-0.030
12.317,-0.085,-0.020
12.319,-0.090,0.005
12.322,-0.085,-0.015
12.325,-0.090,-0.040
12.328,-0.100,-0.040
12.331,-0.105,-0.025
12.333,-0.110,-0.025
12.336,-0.090,-0.005
12.339,-0.070,-0.010
12.342,-0.095,-0.015
12.344,-0.080,-0.035
12.347,-0.095,-0.020
12.350,-0.075,-0.015
12.353,-0.065,-0.005
12.356,-0.060,-0.025
12.358,-0.055,-0.040
12.361,-0.075,-0.040
12.364,-0.080,-0.040
12.367,-0.075,-0.020
12.369,-0.055,-0.005
12.372,-0.055,-0.020
12.375,-0.050,-0.030
12.378,-0.060,-0.060
12.381,-0.060,-0.035
12.383,-0.060,-0.025
12.386,-0.070,-0.015
12.389,-0.050,-0.020
12.392,-0.050,-0.035
12.394,-0.055,-0.045
12.397,-0.070,-0.030
12.400,-0.050,-0.025
12.403,-0.035,-0.010
12.406,-0.020,-0.020
12.408,-0.030,-0.020
12.411,-0.055,-0.025
12.414,-0.050,-0.015
12.417,-0.040,0.000
12.419,-0.035,0.005
12.422,-0.025,-0.010
12.425,-0.035,-0.030
12.428,-0.050,-0.035
12.431,-0.050,-0.010
12.433,-0.040,0.000
12.436,-0.035,-0.005
12.439,-0.030,0.000
12.442,-0.030,-0.030
12.444,-0.035,-0.025
12.447,-0.045,-0.035
12.450,-0.040,-0.025
12.453,-0.045,-0.020
12.456,-0.030,-0.025
12.458,-0.040,-0.035
12.461,-0.050,-0.040
12.464,-0.050,-0.035
12.467,-0.050,-0.030
12.469,-0.040,-0.025
12.472,-0.050,-0.010
12.475,-0.075,-0.020
12.478,-0.085,-0.035
12.481,-0.105,-0.045
12.483,-0.095,-0.035
12.486,-0.095,-0.030
12.489,-0.090,-0.030
12.492,-0.115,-0.065
12.494,-0.120,-0.060
12.497,-0.125,-0.060
12.500,-0.115,-0.045
12.503,-0.115,-0.030
12.506,-0.105,-0.055
12.508,-0.115,-0.070
12.511,-0.130,-0.075
12.514,-0.135,-0.090
12.517,-0.130,-0.075
12.519,-0.120,-0.065
12.522,-0.115,-0.060
12.525,-0.135,-0.075
12.528,-0.150,-0.080
12.531,-0.155,-0.090
12.533,-0.150,-0.070
12.536,-0.175,-0.070
12.539,-0.145,-0.070
12.542,-0.155,-0.070
12.544,-0.165,-0.080
12.547,-0.170,-0.080
12.550,-0.165,-0.070
12.553,-0.165,-0.065
12.556,-0.150,-0.075
12.558,-0.150,-0.085
12.561,-0.160,-0.100
12.564,-0.180,-0.100
12.567,-0.180,-0.080
12.569,-0.165,-0.080
12.572,-0.150,-0.085
12.575,-0.150,-0.100
12.578,-0.170,-0.110
12.581,-0.185,-0.115
12.583,-0.175,-0.090
12.586,-0.155,-0.075
12.589,-0.155,-0.085
12.592,-0.155,-0.100
12.594,-0.170,-0.110
12.597,-0.185,-0.095
12.600,-0.190,-0.100
12.603,-0.180,-0.085
12.606,-0.170,-0.085
12.608,-0.160,-0.105
12.611,-0.170,-0.110
12.614,-0.170,-0.110
12.617,-0.170,-0.090
12.619,-0.150,-0.090
12.622,-0.145,-0.100
12.625,-0.150,-0.110
12.628,-0.160,-0.125
12.631,-0.165,-0.110
12.633,-0.155,-0.090
12.636,-0.140,-0.095
12.639,-0.145,-0.100
12.642,-0.145,-0.105
12.644,-0.165,-0.115
12.647,-0.155,-0.120
12.650,-0.165,-0.115
12.653,-0.135,-0.100
12.656,-0.140,-0.105
12.658,-0.135,-0.130
12.661,-0.155,-0.135
12.664,-0.165,-0.120
12.667,-0.160,-0.110
12.669,-0.140,-0.105
12.672,-0.145,-0.110
12.675,-0.135,-0.125
12.678,-0.160,-0.140
12.681,-0.150,-0.125
12.683,-0.160,-0.115
12.686,-0.145,-0.120
12.689,-0.145,-0.120
12.692,-0.160,-0.140
12.694,-0.160,-0.150
12.697,-0.165,-0.125
12.700,-0.155,-0.120
12.703,-0.155,-0.110
12.706,-0.135,-0.095
12.708,-0.135,-0.115
12.711,-0.140,-0.125
12.714,-0.160,-0.125
12.717,-0.130,-0.120
12.719,-0.120,-0.110
12.722,-0.125,-0.115
12.725,-0.140,-0.125
12.728,-0.150,-0.135
12.731,-0.145,-0.125
12.733,-0.130,-0.130
12.736,-0.130,-0.115
12.739,-0.120,-0.120
12.742,-0.140,-0.140
12.744,-0.150,-0.140
12.747,-0.145,-0.130
12.750,-0.145,-0.115
12.753,-0.130,-0.095
12.756,-0.130,-0.115
12.758,-0.135,-0.150
12.761,-0.140,-0.155
12.764,-0.150,-0.145
12.767,-0.125,-0.130
12.769,-0.130,-0.110
12.772,-0.135,-0.135
12.775,-0.125,-0.140
12.778,-0.150,-0.150
12.781,-0.160,-0.130
12.783,-0.140,-0.130
12.786,-0.120,-0.120
12.789,-0.120,-0.135
12.792,-0.130,-0.140
12.794,-0.145,-0.145
12.797,-0.150,-0.130
12.800,-0.155,-0.140
12.803,-0.145,-0.115
12.806,-0.140,-0.125
12.808,-0.130,-0.125
12.811,-0.150,-0.145
12.814,-0.155,-0.135
12.817,-0.155,-0.130
12.819,-0.125,-0.115
12.822,-0.120,-0.115
12.825,-0.115,-0.140
12.828,-0.125,-0.145
12.831,-0.130,-0.145
12.833,-0.140,-0.130
12.836,-0.125,-0.110
12.839,-0.120,-0.120
12.842,-0.125,-0.140
12.844,-0.130,-0.130
12.847,-0.140,-0.125
12.850,-0.130,-0.115
12.853,-0.110,-0.110
12.856,-0.095,-0.120
12.858,-0.110,-0.110
12.861,-0.105,-0.100
12.864,-0.120,-0.100
12.867,-0.115,-0.065
12.869,-0.095,-0.055
12.872,-0.065,-0.060
12.875,-0.065,-0.060
12.878,-0.055,-0.075
12.881,-0.055,-0.070
12.883,-0.035,-0.055
12.886,-0.005,-0.040
12.889,0.015,-0.055
12.892,0.020,-0.085
12.894,0.030,-0.140
12.897,0.045,-0.160
12.900,0.060,-0.165
12.903,0.085,-0.160
12.906,0.095,-0.145
12.908,0.080,-0.170
12.911,0.070,-0.170
12.914,0.060,-0.170
12.917,0.050,-0.140
12.919,0.045,-0.105
12.922,0.035,-0.115
12.925,0.025,-0.125
12.928,-0.015,-0.155
12.931,-0.035,-0.140
12.933,-0.065,-0.140
12.936,-0.080,-0.125
12.939,-0.090,-0.140
12.942,-0.130,-0.155
12.944,-0.145,-0.175
12.947,-0.165,-0.170
12.950,-0.170,-0.150
12.953,-0.170,-0.135
12.956,-0.155,-0.135
12.958,-0.160,-0.145
12.961,-0.175,-0.160
12.964,-0.185,-0.165
12.967,-0.180,-0.150
12.969,-0.160,-0.145
12.972,-0.165,-0.140
12.975,-0.165,-0.160
12.978,-0.200,-0.155
12.981,-0.180,-0.140
12.983,-0.190,-0.135
12.986,-0.180,-0.120
12.989,-0.160,-0.090
12.992,-0.160,-0.065
12.994,-0.175,-0.050
12.997,-0.165,-0.065
13.000,-0.160,-0.110
13.003,-0.155,-0.180
13.006,-0.185,-0.315
13.008,-0.215,-0.505
13.011,-0.240,-0.705
13.014,-0.205,-0.860
13.017,-0.125,-0.980
13.019,-0.005,-1.015
13.022,0.130,-1.025
13.025,0.250,-0.950
13.028,0.315,-0.830
13.031,0.295,-0.680
13.033,0.190,-0.510
13.036,0.020,-0.370
13.039,-0.155,-0.265
13.042,-0.240,-0.165
13.044,-0.275,-0.110
13.047,-0.260,-0.080
13.050,-0.195,-0.060
13.053,-0.145,-0.065
13.056,-0.145,-0.055
13.058,-0.155,-0.070
13.061,-0.155,-0.075
13.064,-0.180,-0.085
13.067,-0.160,-0.075
13.069,-0.140,-0.065
13.072,-0.140,-0.065
13.075,-0.145,-0.065
13.078,-0.180,-0.085
13.081,-0.195,-0.085
13.083,-0.180,-0.065
13.086,-0.155,-0.065
13.089,-0.150,-0.060
13.092,-0.150,-0.065
13.094,-0.150,-0.080
13.097,-0.155,-0.075
13.100,-0.140,-0.065
13.103,-0.135,-0.055
13.106,-0.125,-0.060
13.108,-0.130,-0.085
13.111,-0.140,-0.085
13.114,-0.145,-0.075
13.117,-0.175,-0.055
13.119,-0.145,-0.050
13.122,-0.140,-0.050
13.125,-0.155,-0.070
13.128,-0.175,-0.075
13.131,-0.155,-0.075
13.133,-0.145,-0.050
13.136,-0.120,-0.050
13.139,-0.115,-0.050
13.142,-0.125,-0.060
13.144,-0.145,-0.080
13.147,-0.155,-0.085
13.150,-0.140,-0.070
13.153,-0.125,-0.060
13.156,-0.115,-0.060
13.158,-0.130,-0.075
13.161,-0.130,-0.080
13.164,-0.150,-0.075
13.167,-0.135,-0.065
13.169,-0.120,-0.040
13.172,-0.105,-0.045
13.175,-0.115,-0.060
13.178,-0.120,-0.065
13.181,-0.125,-0.080
13.183,-0.120,-0.070
13.186,-0.125,-0.050
13.189,-0.130,-0.055
13.192,-0.120,-0.070
13.194,-0.140,-0.075
13.197,-0.150,-0.080
13.200,-0.145,-0.065
13.203,-0.130,-0.050
13.206,-0.130,-0.055
13.208,-0.140,-0.065
13.211,-0.155,-0.085
13.214,-0.150,-0.080
13.217,-0.135,-0.075
13.219,-0.120,-0.055
13.222,-0.125,-0.055
13.225,-0.120,-0.070
13.228,-0.165,-0.075
13.231,-0.170,-0.085
13.233,-0.155,-0.075
13.236,-0.145,-0.065
13.239,-0.135,-0.070
13.242,-0.140,-0.075
13.244,-0.160,-0.095
13.247,-0.180,-0.095
13.250,-0.170,-0.085
13.253,-0.170,-0.065
13.256,-0.170,-0.085
13.258,-0.195,-0.090
13.261,-0.205,-0.110
13.264,-0.225,-0.100
13.267,-0.215,-0.085
13.269,-0.195,-0.075
13.272,-0.205,-0.080
13.275,-0.220,-0.095
13.278,-0.220,-0.110
13.281,-0.235,-0.090
13.283,-0.230,-0.080
13.286,-0.230,-0.060
13.289,-0.220,-0.075
13.292,-0.220,-0.090
13.294,-0.240,-0.085
13.297,-0.240,-0.090
13.300,-0.230,-0.075
13.303,-0.225,-0.075
13.306,-0.220,-0.065
13.308,-0.240,-0.080
13.311,-0.245,-0.095
13.314,-0.245,-0.090
13.317,-0.235,-0.080
13.319,-0.235,-0.075
13.322,-0.220,-0.070
13.325,-0.230,-0.085
13.328,-0.245,-0.105
13.331,-0.250,-0.100
13.333,-0.250,-0.085
13.336,-0.225,-0.085
13.339,-0.215,-0.100
13.342,-0.220,-0.110
13.344,-0.230,-0.130
13.347,-0.245,-0.120
13.350,-0.235,-0.110
13.353,-0.220,-0.095
13.356,-0.220,-0.100
13.358,-0.215,-0.115
13.361,-0.215,-0.120
13.364,-0.225,-0.125
13.367,-0.225,-0.120
13.369,-0.220,-0.110
13.372,-0.200,-0.105
13.375,-0.220,-0.125
13.378,-0.230,-0.115
13.381,-0.235,-0.120
13.383,-0.225,-0.125
13.386,-0.220,-0.115
13.389,-0.185,-0.120
13.392,-0.200,-0.125
13.394,-0.200,-0.135
13.397,-0.210,-0.125
13.400,-0.200,-0.120
13.403,-0.190,-0.105
13.406,-0.185,-0.105
13.408,-0.175,-0.125
13.411,-0.200,-0.140
13.414,-0.205,-0.125
13.417,-0.200,-0.120
13.419,-0.190,-0.110
13.422,-0.175,-0.120
13.425,-0.175,-0.130
13.428,-0.200,-0.145
13.431,-0.210,-0.145
13.433,-0.190,-0.130
13.436,-0.170,-0.115
13.439,-0.160,-0.125
13.442,-0.165,-0.125
13.444,-0.175,-0.140
13.447,-0.170,-0.145
13.450,-0.175,-0.130
13.453,-0.155,-0.115
13.456,-0.150,-0.135
13.458,-0.160,-0.150
13.461,-0.175,-0.155
13.464,-0.165,-0.150
13.467,-0.155,-0.120
13.469,-0.140,-0.115
13.472,-0.140,-0.110
13.475,-0.140,-0.145
13.478,-0.150,-0.155
13.481,-0.150,-0.145
13.483,-0.150,-0.125
13.486,-0.140,-0.130
13.489,-0.130,-0.140
13.492,-0.135,-0.145
13.494,-0.145,-0.145
13.497,-0.140,-0.150
13.500,-0.135,-0.135
13.503,-0.135,-0.135
13.506,-0.135,-0.120
13.508,-0.135,-0.130
13.511,-0.130,-0.130
13.514,-0.140,-0.125
13.517,-0.125,-0.120
13.519,-0.130,-0.105
13.522,-0.105,-0.115
13.525,-0.135,-0.125
13.528,-0.120,-0.145
13.531,-0.130,-0.130
13.533,-0.130,-0.120
13.536,-0.110,-0.110
13.539,-0.100,-0.120
13.542,-0.110,-0.115
13.544,-0.120,-0.135
13.547,-0.115,-0.130
13.550,-0.115,-0.120
13.553,-0.105,-0.120
13.556,-0.110,-0.120
13.558,-0.105,-0.120
13.561,-0.105,-0.140
13.564,-0.100,-0.135
13.567,-0.110,-0.115
13.569,-0.080,-0.110
13.572,-0.085,-0.125
13.575,-0.095,-0.135
13.578,-0.095,-0.140
13.581,-0.105,-0.125
13.583,-0.095,-0.125
13.586,-0.090,-0.115
13.589,-0.070,-0.120
13.592,-0.080,-0.125
13.594,-0.090,-0.160
13.597,-0.105,-0.140
13.600,-0.095,-0.125
13.603,-0.090,-0.105
13.606,-0.085,-0.120
13.608,-0.075,-0.135
13.611,-0.090,-0.155
13.614,-0.105,-0.150
13.617,-0.085,-0.125
13.619,-0.085,-0.120
13.622,-0.075,-0.115
13.625,-0.075,-0.140
13.628,-0.090,-0.145
13.631,-0.090,-0.135
13.633,-0.085,-0.125
13.636,-0.070,-0.110
13.639,-0.055,-0.125
13.642,-0.065,-0.125
13.644,-0.070,-0.120
13.647,-0.070,-0.100
13.650,-0.050,-0.080
13.653,-0.030,-0.055
13.656,-0.020,-0.055
13.658,-0.015,-0.075
13.661,-0.010,-0.085
13.664,-0.005,-0.080
13.667,0.010,-0.055
13.669,0.030,-0.040
13.672,0.055,-0.040
13.675,0.065,-0.065
13.678,0.065,-0.080
13.681,0.090,-0.100
13.683,0.115,-0.100
13.686,0.150,-0.130
13.689,0.180,-0.150
13.692,0.180,-0.170
13.694,0.175,-0.165
13.697,0.170,-0.170
13.700,0.165,-0.160
13.703,0.175,-0.140
13.706,0.180,-0.130
13.708,0.160,-0.140
13.711,0.115,-0.155
13.714,0.085,-0.135
13.717,0.090,-0.115
13.719,0.085,-0.115
13.722,0.070,-0.115
13.725,0.045,-0.135
13.728,0.005,-0.150
13.731,-0.030,-0.145
13.733,-0.025,-0.140
13.736,-0.030,-0.135
13.739,-0.040,-0.140
13.742,-0.045,-0.145
13.744,-0.070,-0.150
13.747,-0.080,-0.145
13.750,-0.080,-0.135
13.753,-0.050,-0.130
13.756,-0.055,-0.135
13.758,-0.060,-0.150
13.761,-0.085,-0.160
13.764,-0.070,-0.145
13.767,-0.065,-0.145
13.769,-0.045,-0.120
13.772,-0.045,-0.120
13.775,-0.040,-0.125
13.778,-0.035,-0.100
13.781,-0.055,-0.060
13.783,-0.040,-0.005
13.786,-0.025,0.015
13.789,-0.030,-0.050
13.792,-0.030,-0.135
13.794,-0.055,-0.240
13.797,-0.065,-0.375
13.800,-0.055,-0.530
13.803,-0.025,-0.715
13.806,0.060,-0.915
13.808,0.180,-1.055
13.811,0.325,-1.110
13.814,0.465,-1.050
13.817,0.635,-0.925
13.819,0.715,-0.765
13.822,0.705,-0.605
13.825,0.540,-0.455
13.828,0.300,-0.300
13.831,0.100,-0.180
13.833,-0.005,-0.080
13.836,-0.025,-0.030
13.839,0.000,-0.035
13.842,-0.005,-0.045
13.844,-0.020,-0.060
13.847,-0.030,-0.045
13.850,-0.025,-0.040
13.853,-0.025,-0.030
13.856,-0.020,-0.035
13.858,-0.020,-0.050
13.861,-0.030,-0.060
13.864,-0.040,-0.045
13.867,-0.040,-0.040
13.869,-0.025,-0.035
13.872,-0.025,-0.035
13.875,-0.045,-0.050
13.878,-0.060,-0.070
13.881,-0.065,-0.055
13.883,-0.035,-0.045
13.886,-0.025,-0.015
13.889,-0.025,-0.040
13.892,-0.035,-0.055
13.894,-0.045,-0.070
13.897,-0.055,-0.040
13.900,-0.035,-0.040
13.903,-0.010,-0.025
13.906,-0.015,-0.025
13.908,-0.010,-0.035
13.911,-0.040,-0.050
13.914,-0.065,-0.040
13.917,-0.035,-0.035
13.919,-0.020,-0.030
13.922,-0.005,-0.035
13.925,-0.020,-0.040
13.928,-0.015,-0.055
13.931,-0.020,-0.055
13.933,-0.020,-0.035
13.936,-0.005,-0.030
13.939,-0.015,-0.020
13.942,-0.015,-0.050
13.944,-0.020,-0.065
13.947,-0.015,-0.060
13.950,-0.025,-0.045
13.953,0.000,-0.025
13.956,-0.005,-0.040
13.958,-0.010,-0.045
13.961,-0.025,-0.060
13.964,-0.025,-0.065
13.967,-0.020,-0.045
13.969,-0.010,-0.030
13.972,0.005,-0.035
13.975,0.000,-0.040
13.978,-0.020,-0.055
13.981,-0.015,-0.045
13.983,-0.005,-0.045
13.986,0.010,-0.025
13.989,0.015,-0.040
13.992,0.010,-0.065
13.994,-0.015,-0.065
13.997,-0.010,-0.050
14.000,-0.005,-0.045
14.003,0.005,-0.030
14.006,0.015,-0.030
14.008,0.005,-0.040
14.011,0.005,-0.055
14.014,-0.020,-0.050
14.017,0.005,-0.035
14.019,0.015,-0.025
14.022,0.020,-0.040
14.025,0.015,-0.045
14.028,0.000,-0.060
14.031,-0.005,-0.050
14.033,0.000,-0.040
14.036,0.015,-0.030
14.039,0.015,-0.040
14.042,0.010,-0.055
14.044,-0.015,-0.060
14.047,-0.020,-0.045
14.050,-0.005,-0.040
14.053,-0.005,-0.030
14.056,0.000,-0.050
14.058,-0.010,-0.055
14.061,-0.020,-0.065
14.064,-0.025,-0.060
14.067,-0.035,-0.045
14.069,-0.025,-0.035
14.072,-0.035,-0.040
14.075,-0.025,-0.065
14.078,-0.045,-0.085
14.081,-0.055,-0.065
14.083,-0.050,-0.070
14.086,-0.040,-0.060
14.089,-0.045,-0.070
14.092,-0.065,-0.085
14.094,-0.070,-0.095
14.097,-0.065,-0.085
14.100,-0.055,-0.080
14.103,-0.040,-0.075
14.106,-0.040,-0.080
14.108,-0.065,-0.090
14.111,-0.070,-0.100
14.114,-0.065,-0.105
14.117,-0.065,-0.085
14.119,-0.050,-0.065
14.122,-0.055,-0.075
14.125,-0.065,-0.095
14.128,-0.065,-0.110
14.131,-0.085,-0.100
14.133,-0.070,-0.100
14.136,-0.060,-0.080
14.139,-0.055,-0.085
14.142,-0.065,-0.100
14.144,-0.075,-0.110
14.147,-0.060,-0.115
14.150,-0.080,-0.100
14.153,-0.065,-0.105
14.156,-0.050,-0.110
14.158,-0.065,-0.120
14.161,-0.080,-0.120
14.164,-0.080,-0.110
14.167,-0.080,-0.100
14.169,-0.065,-0.095
14.172,-0.055,-0.100
14.175,-0.060,-0.115
14.178,-0.060,-0.125
14.181,-0.090,-0.110
14.183,-0.075,-0.100
14.186,-0.050,-0.080
14.189,-0.045,-0.095
14.192,-0.055,-0.110
14.194,-0.050,-0.110
14.197,-0.065,-0.120
14.200,-0.060,-0.100
14.203,-0.040,-0.095
14.206,-0.040,-0.095
14.208,-0.040,-0.120
14.211,-0.060,-0.120
14.214,-0.060,-0.115
14.217,-0.055,-0.100
14.219,-0.050,-0.105
14.222,-0.040,-0.115
14.225,-0.040,-0.110
14.228,-0.055,-0.135
14.231,-0.060,-0.125
14.233,-0.045,-0.110
14.236,-0.040,-0.095
14.239,-0.030,-0.105
14.242,-0.025,-0.120
14.244,-0.050,-0.135
14.247,-0.060,-0.130
14.250,-0.045,-0.115
14.253,-0.030,-0.105
14.256,-0.015,-0.105
14.258,-0.035,-0.135
14.261,-0.035,-0.125
14.264,-0.050,-0.125
14.267,-0.040,-0.110
14.269,-0.020,-0.110
14.272,-0.005,-0.115
14.275,-0.025,-0.130
14.278,-0.030,-0.130
14.281,-0.025,-0.130
14.283,-0.025,-0.115
14.286,-0.005,-0.100
14.289,-0.005,-0.115
14.292,-0.010,-0.130
14.294,-0.025,-0.140
14.297,-0.025,-0.140
14.300,-0.010,-0.130
14.303,0.000,-0.110
14.306,-0.005,-0.115
14.308,0.000,-0.130
14.311,-0.020,-0.145
14.314,-0.020,-0.130
14.317,-0.010,-0.120
14.319,-0.005,-0.105
14.322,0.005,-0.115
14.325,0.010,-0.120
14.328,-0.010,-0.130
14.331,-0.030,-0.130
14.333,-0.010,-0.120
14.336,0.010,-0.115
14.339,0.015,-0.105
14.342,-0.005,-0.125
14.344,-0.010,-0.135
14.347,-0.005,-0.150
14.350,0.005,-0.120
14.353,0.010,-0.105
14.356,0.015,-0.115
14.358,0.025,-0.130
14.361,0.010,-0.140
14.364,0.005,-0.135
14.367,0.010,-0.110
14.369,0.020,-0.095
14.372,0.020,-0.095
14.375,0.025,-0.090
14.378,0.015,-0.105
14.381,0.015,-0.085
14.383,0.035,-0.060
14.386,0.050,-0.055
14.389,0.065,-0.055
14.392,0.075,-0.070
14.394,0.065,-0.075
14.397,0.065,-0.070
14.400,0.090,-0.055
14.403,0.110,-0.030
14.406,0.135,-0.035
14.408,0.155,-0.050
14.411,0.155,-0.080
14.414,0.190,-0.095
14.417,0.235,-0.105
14.419,0.265,-0.105
14.422,0.280,-0.145
14.425,0.265,-0.160
14.428,0.250,-0.175
14.431,0.240,-0.150
14.433,0.225,-0.130
14.436,0.205,-0.110
14.439,0.200,-0.110
14.442,0.185,-0.120
14.444,0.140,-0.140
14.447,0.105,-0.145
14.450,0.085,-0.135
14.453,0.065,-0.120
14.456,0.040,-0.135
14.458,0.015,-0.150
14.461,-0.005,-0.155
14.464,-0.020,-0.150
14.467,-0.025,-0.145
14.469,-0.020,-0.145
14.472,-0.020,-0.130
14.475,-0.020,-0.130
14.478,-0.030,-0.155
14.481,-0.040,-0.155
14.483,-0.030,-0.135
14.486,-0.015,-0.125
14.489,-0.010,-0.110
14.492,-0.030,-0.115
14.494,-0.015,-0.135
14.497,-0.025,-0.115
14.500,-0.020,-0.070
14.503,0.000,-0.025
14.506,0.010,0.010
14.508,0.005,0.000
14.511,-0.015,-0.035
14.514,-0.010,-0.080
14.517,-0.025,-0.160
14.519,-0.020,-0.280
14.522,-0.015,-0.485
14.525,-0.030,-0.725
14.528,0.015,-0.940
14.531,0.130,-1.095
14.533,0.325,-1.130
14.536,0.495,-1.060
14.539,0.655,-0.940
14.542,0.715,-0.810
14.544,0.685,-0.675
14.547,0.540,-0.515
14.550,0.330,-0.365
14.553,0.140,-0.230
14.556,0.020,-0.140
14.558,-0.050,-0.100
14.561,-0.050,-0.075
14.564,-0.045,-0.055
14.567,-0.015,-0.045
14.569,-0.005,-0.015
14.572,0.005,-0.015
14.575,0.005,-0.030
14.578,-0.010,-0.055
14.581,-0.015,-0.055
14.583,-0.005,-0.045
14.586,0.000,-0.025
14.589,0.005,-0.035
14.592,-0.015,-0.045
14.594,-0.005,-0.055
14.597,-0.020,-0.065
14.600,-0.010,-0.045
14.603,0.005,-0.035
14.606,0.010,-0.040
14.608,0.010,-0.055
14.611,-0.010,-0.065
14.614,-0.015,-0.065
14.617,-0.010,-0.045
14.619,0.010,-0.035
14.622,0.020,-0.040
14.625,0.015,-0.060
14.628,0.005,-0.070
14.631,0.005,-0.070
14.633,0.005,-0.060
14.636,0.025,-0.040
14.639,0.020,-0.045
14.642,0.025,-0.045
14.644,0.015,-0.060
14.647,0.000,-0.050
14.650,0.000,-0.035
14.653,0.020,-0.030
14.656,0.030,-0.045
14.658,0.025,-0.045
14.661,0.005,-0.065
14.664,-0.005,-0.060
14.667,0.005,-0.050
14.669,0.030,-0.035
14.672,0.035,-0.040
14.675,0.025,-0.060
14.678,0.015,-0.060
14.681,0.015,-0.065
14.683,0.025,-0.050
14.686,0.015,-0.030
14.689,0.040,-0.040
14.692,0.030,-0.035
14.694,0.015,-0.055
14.697,0.010,-0.055
14.700,0.005,-0.045
14.703,0.010,-0.030
14.706,0.040,-0.030
14.708,0.035,-0.045
14.711,0.030,-0.050
14.714,0.025,-0.040
14.717,0.025,-0.030
14.719,0.025,-0.020
14.722,0.035,-0.030
14.725,0.045,-0.035
14.728,0.025,-0.055
14.731,0.015,-0.050
14.733,0.035,-0.025
14.736,0.040,-0.015
14.739,0.045,-0.020
14.742,0.025,-0.040
14.744,0.015,-0.040
14.747,0.015,-0.030
14.750,0.020,-0.025
14.753,0.040,-0.015
14.756,0.025,-0.025
14.758,0.045,-0.045
14.761,0.030,-0.040
14.764,0.025,-0.040
14.767,0.020,-0.030
14.769,0.030,-0.015
14.772,0.035,-0.025
14.775,0.025,-0.040
14.778,0.015,-0.045
14.781,-0.005,-0.040
14.783,0.010,-0.020
14.786,0.020,-0.015
14.789,0.025,-0.030
14.792,0.025,-0.040
14.794,0.005,-0.065
14.797,-0.010,-0.060
14.800,-0.010,-0.040
14.803,-0.010,-0.025
14.806,0.000,-0.030
14.808,-0.030,-0.050
14.811,-0.035,-0.065
14.814,-0.050,-0.065
14.817,-0.035,-0.045
14.819,-0.040,-0.040
14.822,-0.025,-0.055
14.825,-0.040,-0.065
14.828,-0.065,-0.085
14.831,-0.075,-0.080
14.833,-0.070,-0.065
14.836,-0.055,-0.060
14.839,-0.065,-0.075
14.842,-0.070,-0.085
14.844,-0.085,-0.105
14.847,-0.090,-0.105
14.850,-0.090,-0.085
14.853,-0.075,-0.070
14.856,-0.085,-0.090
14.858,-0.085,-0.090
14.861,-0.100,-0.100
14.864,-0.100,-0.110
14.867,-0.105,-0.085
14.869,-0.080,-0.080
14.872,-0.100,-0.090
14.875,-0.095,-0.100
14.878,-0.095,-0.105
14.881,-0.105,-0.100
14.883,-0.115,-0.100
14.886,-0.105,-0.080
14.889,-0.100,-0.105
14.892,-0.105,-0.100
14.894,-0.120,-0.110
14.897,-0.120,-0.110
14.900,-0.110,-0.090
14.903,-0.085,-0.090
14.906,-0.085,-0.085
14.908,-0.095,-0.100
14.911,-0.100,-0.110
14.914,-0.130,-0.115
14.917,-0.110,-0.105
14.919,-0.105,-0.095
14.922,-0.100,-0.100
14.925,-0.105,-0.105
14.928,-0.120,-0.120
14.931,-0.120,-0.115
14.933,-0.100,-0.105
14.936,-0.085,-0.100
14.939,-0.085,-0.100
14.942,-0.100,-0.115
14.944,-0.115,-0.125
14.947,-0.110,-0.130
14.950,-0.115,-0.110
14.953,-0.095,-0.090
14.956,-0.090,-0.105
14.958,-0.105,-0.120
14.961,-0.115,-0.130
14.964,-0.120,-0.135
14.967,-0.115,-0.125
14.969,-0.095,-0.100
14.972,-0.090,-0.095
14.975,-0.110,-0.115
14.978,-0.135,-0.130
14.981,-0.115,-0.130
14.983,-0.105,-0.120
14.986,-0.100,-0.115
14.989,-0.080,-0.130
14.992,-0.090,-0.135
14.994,-0.095,-0.135
14.997,-0.110,-0.135
15.000,-0.105,-0.135
15.003,-0.095,-0.120
15.006,-0.080,-0.115
15.008,-0.085,-0.135
15.011,-0.095,-0.145
15.014,-0.095,-0.145
15.017,-0.090,-0.120
15.019,-0.085,-0.115
15.022,-0.080,-0.120
15.025,-0.065,-0.130
15.028,-0.075,-0.135
15.031,-0.100,-0.140
15.033,-0.070,-0.125
15.036,-0.060,-0.110
15.039,-0.055,-0.115
15.042,-0.065,-0.135
15.044,-0.085,-0.140
15.047,-0.080,-0.130
15.050,-0.090,-0.115
15.053,-0.080,-0.105
15.056,-0.070,-0.115
15.058,-0.080,-0.140
15.061,-0.095,-0.140
15.064,-0.090,-0.145
15.067,-0.090,-0.125
15.069,-0.070,-0.125
15.072,-0.060,-0.125
15.075,-0.070,-0.135
15.078,-0.080,-0.140
15.081,-0.085,-0.140
15.083,-0.070,-0.130
15.086,-0.060,-0.115
15.089,-0.050,-0.125
15.092,-0.050,-0.135
15.094,-0.075,-0.145
15.097,-0.090,-0.125
15.100,-0.075,-0.125
15.103,-0.055,-0.110
15.106,-0.055,-0.130
15.108,-0.070,-0.135
15.111,-0.080,-0.130
15.114,-0.090,-0.130
15.117,-0.080,-0.125
15.119,-0.075,-0.120
15.122,-0.055,-0.100
15.125,-0.070,-0.120
15.128,-0.065,-0.130
15.131,-0.080,-0.120
15.133,-0.070,-0.115
15.136,-0.050,-0.105
15.139,-0.055,-0.130
15.142,-0.065,-0.140
15.144,-0.085,-0.140
15.147,-0.075,-0.125
15.150,-0.075,-0.115
15.153,-0.050,-0.110
15.156,-0.060,-0.120
15.158,-0.070,-0.135
15.161,-0.095,-0.150
15.164,-0.090,-0.145
15.167,-0.075,-0.140
15.169,-0.060,-0.110
15.172,-0.045,-0.130
15.175,-0.065,-0.140
15.178,-0.075,-0.135
15.181,-0.085,-0.140
15.183,-0.085,-0.120
15.186,-0.080,-0.105
15.189,-0.070,-0.110
15.192,-0.080,-0.135
15.194,-0.080,-0.150
15.197,-0.085,-0.140
15.200,-0.085,-0.125
15.203,-0.060,-0.125
15.206,-0.050,-0.120
15.208,-0.055,-0.135
15.211,-0.065,-0.150
15.214,-0.080,-0.140
15.217,-0.080,-0.125
15.219,-0.055,-0.120
15.222,-0.045,-0.120
15.225,-0.070,-0.125
15.228,-0.070,-0.130
15.231,-0.095,-0.125
15.233,-0.080,-0.120
15.236,-0.070,-0.110
15.239,-0.065,-0.105
15.242,-0.065,-0.125
15.244,-0.090,-0.135
15.247,-0.080,-0.125
15.250,-0.065,-0.110
15.253,-0.055,-0.100
15.256,-0.055,-0.130
15.258,-0.055,-0.140
15.261,-0.075,-0.140
15.264,-0.080,-0.140
15.267,-0.080,-0.115
15.269,-0.070,-0.110
15.272,-0.030,-0.110
15.275,-0.045,-0.115
15.278,-0.060,-0.125
15.281,-0.070,-0.130
15.283,-0.065,-0.110
15.286,-0.045,-0.105
15.289,-0.045,-0.110
15.292,-0.050,-0.115
15.294,-0.060,-0.125
15.297,-0.065,-0.115
15.300,-0.065,-0.115
15.303,-0.060,-0.120
15.306,-0.040,-0.120
15.308,-0.045,-0.135
15.311,-0.055,-0.150
15.314,-0.060,-0.135
15.317,-0.040,-0.115
15.319,-0.030,-0.125
15.322,-0.025,-0.145
15.325,-0.015,-0.175
15.328,-0.010,-0.205
15.331,-0.025,-0.195
15.333,-0.005,-0.180
15.336,0.015,-0.170
15.339,0.025,-0.180
15.342,0.030,-0.190
15.344,0.030,-0.210
15.347,0.020,-0.210
15.350,0.025,-0.185
15.353,0.015,-0.160
15.356,0.010,-0.170
15.358,0.005,-0.175
15.361,-0.030,-0.170
15.364,-0.055,-0.145
15.367,-0.040,-0.115
15.369,-0.020,-0.100
15.372,-0.025,-0.100
15.375,-0.020,-0.115
15.378,-0.030,-0.130
15.381,-0.055,-0.130
15.383,-0.075,-0.115
15.386,-0.070,-0.095
15.389,-0.085,-0.090
15.392,-0.105,-0.115
15.394,-0.120,-0.125
15.397,-0.130,-0.130
15.400,-0.115,-0.120
15.403,-0.095,-0.105
15.406,-0.090,-0.110
15.408,-0.095,-0.135
15.411,-0.115,-0.150
15.414,-0.125,-0.135
15.417,-0.105,-0.110
15.419,-0.080,-0.105
15.422,-0.080,-0.110
15.425,-0.085,-0.125
15.428,-0.095,-0.130
15.431,-0.110,-0.105
15.433,-0.085,-0.080
15.436,-0.080,-0.040
15.439,-0.060,-0.005
15.442,-0.065,-0.015
15.444,-0.085,-0.060
15.447,-0.090,-0.135
15.450,-0.095,-0.245
15.453,-0.105,-0.395
15.456,-0.140,-0.575
15.458,-0.125,-0.740
15.461,-0.075,-0.855
15.464,0.000,-0.925
15.467,0.140,-0.975
15.469,0.255,-0.960
15.472,0.380,-0.915
15.475,0.455,-0.820
15.478,0.475,-0.710
15.481,0.365,-0.550
15.483,0.170,-0.405
15.486,-0.015,-0.265
15.489,-0.140,-0.165
15.492,-0.185,-0.090
15.494,-0.195,-0.055
15.497,-0.180,-0.045
15.500,-0.110,-0.030
15.503,-0.065,-0.025
15.506,-0.055,-0.010
15.508,-0.070,-0.020
15.511,-0.080,-0.030
15.514,-0.080,-0.035
15.517,-0.075,-0.030
15.519,-0.060,-0.015
15.522,-0.050,-0.030
15.525,-0.065,-0.025
15.528,-0.085,-0.045
15.531,-0.080,-0.035
15.533,-0.065,-0.025
15.536,-0.045,-0.005
15.539,-0.045,-0.005
15.542,-0.055,-0.015
15.544,-0.060,-0.040
15.547,-0.075,-0.025
15.550,-0.050,-0.030
15.553,-0.045,-0.005
15.556,-0.035,-0.015
15.558,-0.035,-0.020
15.561,-0.060,-0.035
15.564,-0.065,-0.040
15.567,-0.060,-0.030
15.569,-0.045,-0.025
15.572,-0.040,-0.030
15.575,-0.035,-0.045
15.578,-0.050,-0.050
15.581,-0.045,-0.040
15.583,-0.035,-0.020
15.586,-0.035,-0.015
15.589,-0.025,-0.030
15.592,-0.040,-0.025
15.594,-0.060,-0.050
15.597,-0.065,-0.050
15.600,-0.050,-0.035
15.603,-0.030,-0.015
15.606,-0.035,-0.025
15.608,-0.040,-0.040
15.611,-0.055,-0.030
15.614,-0.050,-0.030
15.617,-0.060,-0.040
15.619,-0.030,-0.030
15.622,-0.030,-0.025
15.625,-0.030,-0.035
15.628,-0.050,-0.040
15.631,-0.045,-0.050
15.633,-0.040,-0.040
15.636,-0.030,-0.020
15.639,-0.030,-0.035
15.642,-0.030,-0.040
15.644,-0.055,-0.060
15.647,-0.055,-0.055
15.650,-0.065,-0.040
15.653,-0.050,-0.025
15.656,-0.035,-0.035
15.658,-0.050,-0.050
15.661,-0.045,-0.055
15.664,-0.050,-0.050
15.667,-0.035,-0.030
15.669,-0.025,-0.015
15.672,-0.030,-0.035
15.675,-0.055,-0.040
15.678,-0.065,-0.070
15.681,-0.070,-0.065
15.683,-0.070,-0.050
15.686,-0.060,-0.045
15.689,-0.045,-0.040
15.692,-0.060,-0.055
15.694,-0.070,-0.080
15.697,-0.065,-0.065
15.700,-0.065,-0.050
15.703,-0.045,-0.050
15.706,-0.055,-0.045
15.708,-0.075,-0.050
15.711,-0.085,-0.075
15.714,-0.095,-0.070
15.717,-0.100,-0.060
15.719,-0.080,-0.045
15.722,-0.070,-0.045
15.725,-0.090,-0.055
15.728,-0.095,-0.080
15.731,-0.115,-0.065
15.733,-0.105,-0.060
15.736,-0.105,-0.045
15.739,-0.105,-0.045
15.742,-0.130,-0.065
15.744,-0.140,-0.080
15.747,-0.155,-0.075
15.750,-0.140,-0.065
15.753,-0.125,-0.060
15.756,-0.125,-0.060
15.758,-0.125,-0.075
15.761,-0.135,-0.085
15.764,-0.140,-0.080
15.767,-0.145,-0.050
15.769,-0.130,-0.045
15.772,-0.130,-0.060
15.775,-0.165,-0.075
15.778,-0.170,-0.085
15.781,-0.185,-0.070
15.783,-0.190,-0.070
15.786,-0.160,-0.055
15.789,-0.145,-0.055
15.792,-0.145,-0.065
15.794,-0.155,-0.075
15.797,-0.150,-0.075
15.800,-0.170,-0.065
15.803,-0.160,-0.055
15.806,-0.155,-0.060
15.808,-0.160,-0.085
15.811,-0.175,-0.095
15.814,-0.190,-0.080
15.817,-0.180,-0.075
15.819,-0.185,-0.070
15.822,-0.175,-0.075
15.825,-0.170,-0.080
15.828,-0.180,-0.100
15.831,-0.175,-0.095
15.833,-0.190,-0.075
15.836,-0.160,-0.070
15.839,-0.165,-0.075
15.842,-0.165,-0.085
15.844,-0.175,-0.095
15.847,-0.180,-0.095
15.850,-0.195,-0.085
15.853,-0.170,-0.085
15.856,-0.180,-0.085
15.858,-0.195,-0.085
15.861,-0.195,-0.110
15.864,-0.210,-0.095
15.867,-0.195,-0.090
15.869,-0.190,-0.085
15.872,-0.185,-0.095
15.875,-0.175,-0.105
15.878,-0.195,-0.115
15.881,-0.205,-0.110
15.883,-0.195,-0.095
15.886,-0.180,-0.085
15.889,-0.165,-0.095
15.892,-0.180,-0.105
15.894,-0.205,-0.125
15.897,-0.205,-0.115
15.900,-0.190,-0.105
15.903,-0.185,-0.080
15.906,-0.170,-0.085
15.908,-0.175,-0.090
15.911,-0.195,-0.100
15.914,-0.200,-0.105
15.917,-0.200,-0.095
15.919,-0.190,-0.080
15.922,-0.180,-0.095
15.925,-0.200,-0.100
15.928,-0.205,-0.105
15.931,-0.215,-0.100
15.933,-0.200,-0.085
15.936,-0.190,-0.080
15.939,-0.190,-0.095
15.942,-0.200,-0.115
15.944,-0.210,-0.130
15.947,-0.185,-0.115
15.950,-0.190,-0.100
15.953,-0.185,-0.075
15.956,-0.180,-0.085
15.958,-0.190,-0.100
15.961,-0.200,-0.115
15.964,-0.205,-0.110
15.967,-0.190,-0.095
15.969,-0.180,-0.080
15.972,-0.190,-0.080
15.975,-0.175,-0.095
15.978,-0.205,-0.110
15.981,-0.210,-0.110
15.983,-0.210,-0.100
15.986,-0.185,-0.085
15.989,-0.175,-0.090
15.992,-0.185,-0.100
15.994,-0.185,-0.115
15.997,-0.190,-0.110
16.000,-0.185,-0.095
16.003,-0.175,-0.080
16.006,-0.175,-0.080
16.008,-0.185,-0.110
16.011,-0.185,-0.105
16.014,-0.195,-0.095
16.017,-0.185,-0.080
16.019,-0.175,-0.075
16.022,-0.185,-0.085
16.025,-0.180,-0.105
16.028,-0.200,-0.110
16.031,-0.195,-0.100
16.033,-0.190,-0.085
16.036,-0.175,-0.075
16.039,-0.175,-0.090
16.042,-0.190,-0.100
16.044,-0.195,-0.110
16.047,-0.200,-0.115
16.050,-0.205,-0.080
16.053,-0.185,-0.070
16.056,-0.190,-0.070
16.058,-0.195,-0.085
16.061,-0.200,-0.105
16.064,-0.200,-0.090
16.067,-0.200,-0.075
16.069,-0.175,-0.065
16.072,-0.170,-0.075
16.075,-0.175,-0.095
16.078,-0.195,-0.105
16.081,-0.200,-0.100
16.083,-0.195,-0.090
16.086,-0.195,-0.080
16.089,-0.185,-0.090
16.092,-0.200,-0.105
16.094,-0.215,-0.100
16.097,-0.215,-0.090
16.100,-0.200,-0.095
16.103,-0.195,-0.080
16.106,-0.190,-0.075
16.108,-0.200,-0.090
16.111,-0.210,-0.100
16.114,-0.210,-0.085
16.117,-0.215,-0.085
16.119,-0.195,-0.065
16.122,-0.180,-0.085
16.125,-0.195,-0.085
16.128,-0.205,-0.095
16.131,-0.215,-0.095
16.133,-0.205,-0.080
16.136,-0.180,-0.065
16.139,-0.190,-0.075
16.142,-0.195,-0.085
16.144,-0.225,-0.095
16.147,-0.220,-0.090
16.150,-0.225,-0.095
16.153,-0.220,-0.065
16.156,-0.205,-0.065
16.158,-0.205,-0.090
16.161,-0.210,-0.090
16.164,-0.215,-0.090
16.167,-0.210,-0.070
16.169,-0.190,-0.050
16.172,-0.195,-0.070
16.175,-0.195,-0.070
16.178,-0.200,-0.075
16.181,-0.205,-0.075
16.183,-0.205,-0.065
16.186,-0.190,-0.050
16.189,-0.180,-0.050
16.192,-0.180,-0.070
16.194,-0.200,-0.070
16.197,-0.215,-0.075
16.200,-0.195,-0.060
16.203,-0.180,-0.055
16.206,-0.175,-0.060
16.208,-0.180,-0.075
16.211,-0.185,-0.090
16.214,-0.165,-0.095
16.217,-0.150,-0.095
16.219,-0.155,-0.110
16.222,-0.120,-0.120
16.225,-0.135,-0.130
16.228,-0.130,-0.150
16.231,-0.120,-0.145
16.233,-0.100,-0.130
16.236,-0.085,-0.120
16.239,-0.065,-0.130
16.242,-0.065,-0.150
16.244,-0.095,-0.150
16.247,-0.090,-0.130
16.250,-0.110,-0.105
16.253,-0.095,-0.090
16.256,-0.100,-0.100
16.258,-0.110,-0.100
16.261,-0.140,-0.070
16.264,-0.145,-0.060
16.267,-0.130,-0.045
16.269,-0.115,-0.040
16.272,-0.120,-0.050
16.275,-0.130,-0.065
16.278,-0.160,-0.075
16.281,-0.180,-0.090
16.283,-0.195,-0.070
16.286,-0.175,-0.060
16.289,-0.170,-0.060
16.292,-0.185,-0.080
16.294,-0.210,-0.095
16.297,-0.210,-0.085
16.300,-0.200,-0.080
16.303,-0.170,-0.065
16.306,-0.165,-0.070
16.308,-0.175,-0.085
16.311,-0.190,-0.100
16.314,-0.185,-0.075
16.317,-0.170,-0.050
16.319,-0.160,-0.040
16.322,-0.140,-0.040
16.325,-0.165,-0.030
16.328,-0.160,-0.005
16.331,-0.170,0.030
16.333,-0.150,0.050
16.336,-0.125,0.030
16.339,-0.120,-0.025
16.342,-0.130,-0.120
16.344,-0.145,-0.275
16.347,-0.170,-0.450
16.350,-0.150,-0.630
16.353,-0.095,-0.780
16.356,0.030,-0.895
16.358,0.160,-0.945
16.361,0.290,-0.925
16.364,0.405,-0.835
16.367,0.490,-0.690
16.369,0.465,-0.540
16.372,0.325,-0.385
16.375,0.085,-0.285
16.378,-0.080,-0.175
16.381,-0.160,-0.070
16.383,-0.200,0.005
16.386,-0.175,0.030
16.389,-0.150,0.040
16.392,-0.155,0.030
16.394,-0.130,0.015
16.397,-0.135,0.015
16.400,-0.125,0.025
16.403,-0.105,0.045
16.406,-0.105,0.035
16.408,-0.135,0.020
16.411,-0.145,0.005
16.414,-0.140,0.020
16.417,-0.110,0.030
16.419,-0.110,0.040
16.422,-0.110,0.025
16.425,-0.115,0.020
16.428,-0.130,0.015
16.431,-0.130,0.020
16.433,-0.115,0.025
16.436,-0.105,0.040
16.439,-0.100,0.025
16.442,-0.105,0.020
16.444,-0.125,0.015
