'Elapsed time','MLII','V1'
'seconds','mV','mV'
0.000,-0.930,-0.160
0.003,-0.930,-0.160
0.006,-0.930,-0.160
0.008,-0.930,-0.160
0.011,-0.930,-0.160
0.014,-0.930,-0.160
0.017,-0.930,-0.160
0.019,-0.930,-0.160
0.022,-0.925,-0.160
0.025,-0.925,-0.170
0.028,-0.920,-0.160
0.031,-0.915,-0.160
0.033,-0.910,-0.150
0.036,-0.900,-0.145
0.039,-0.875,-0.135
0.042,-0.870,-0.130
0.044,-0.850,-0.125
0.047,-0.840,-0.130
0.050,-0.815,-0.130
0.053,-0.815,-0.150
0.056,-0.805,-0.170
0.058,-0.785,-0.180
0.061,-0.775,-0.175
0.064,-0.770,-0.180
0.067,-0.740,-0.185
0.069,-0.735,-0.190
0.072,-0.710,-0.190
0.075,-0.700,-0.190
0.078,-0.675,-0.190
0.081,-0.670,-0.195
0.083,-0.660,-0.210
0.086,-0.655,-0.225
0.089,-0.665,-0.235
0.092,-0.660,-0.260
0.094,-0.665,-0.270
0.097,-0.665,-0.270
0.100,-0.660,-0.270
0.103,-0.670,-0.275
0.106,-0.650,-0.265
0.108,-0.655,-0.260
0.111,-0.640,-0.255
0.114,-0.630,-0.270
0.117,-0.640,-0.285
0.119,-0.635,-0.300
0.122,-0.645,-0.310
0.125,-0.650,-0.315
0.128,-0.660,-0.325
0.131,-0.665,-0.315
0.133,-0.670,-0.315
0.136,-0.665,-0.310
0.139,-0.660,-0.315
0.142,-0.650,-0.305
0.144,-0.645,-0.310
0.147,-0.650,-0.320
0.150,-0.650,-0.315
0.153,-0.650,-0.330
0.156,-0.660,-0.345
0.158,-0.670,-0.340
0.161,-0.675,-0.350
0.164,-0.680,-0.350
0.167,-0.685,-0.340
0.169,-0.690,-0.325
0.172,-0.670,-0.330
0.175,-0.675,-0.325
0.178,-0.670,-0.320
0.181,-0.675,-0.320
0.183,-0.690,-0.330
0.186,-0.695,-0.340
0.189,-0.695,-0.345
0.192,-0.680,-0.365
0.194,-0.700,-0.360
0.197,-0.695,-0.365
0.200,-0.700,-0.355
0.203,-0.695,-0.350
0.206,-0.700,-0.340
0.208,-0.690,-0.330
0.211,-0.690,-0.335
0.214,-0.695,-0.340
0.217,-0.690,-0.335
0.219,-0.695,-0.350
0.222,-0.695,-0.350
0.225,-0.700,-0.360
0.228,-0.700,-0.360
0.231,-0.700,-0.355
0.233,-0.700,-0.360
0.236,-0.700,-0.350
0.239,-0.685,-0.340
0.242,-0.685,-0.330
0.244,-0.675,-0.335
0.247,-0.670,-0.345
0.250,-0.665,-0.350
0.253,-0.670,-0.350
0.256,-0.675,-0.370
0.258,-0.670,-0.370
0.261,-0.675,-0.370
0.264,-0.685,-0.375
0.267,-0.680,-0.370
0.269,-0.680,-0.365
0.272,-0.660,-0.360
0.275,-0.655,-0.360
0.278,-0.645,-0.350
0.281,-0.655,-0.350
0.283,-0.630,-0.375
0.286,-0.640,-0.375
0.289,-0.630,-0.380
0.292,-0.640,-0.380
0.294,-0.650,-0.385
0.297,-0.650,-0.385
0.300,-0.660,-0.385
0.303,-0.650,-0.380
0.306,-0.645,-0.380
0.308,-0.625,-0.365
0.311,-0.615,-0.370
0.314,-0.625,-0.355
0.317,-0.625,-0.365
0.319,-0.620,-0.385
0.322,-0.635,-0.385
0.325,-0.635,-0.400
0.328,-0.635,-0.405
0.331,-0.635,-0.405
0.333,-0.630,-0.400
0.336,-0.625,-0.395
0.339,-0.625,-0.395
0.342,-0.605,-0.380
0.344,-0.595,-0.370
0.347,-0.580,-0.380
0.350,-0.575,-0.370
0.353,-0.565,-0.385
0.356,-0.570,-0.405
0.358,-0.565,-0.400
0.361,-0.575,-0.405
0.364,-0.565,-0.400
0.367,-0.550,-0.390
0.369,-0.550,-0.380
0.372,-0.535,-0.385
0.375,-0.520,-0.365
0.378,-0.505,-0.365
0.381,-0.495,-0.370
0.383,-0.485,-0.365
0.386,-0.480,-0.380
0.389,-0.480,-0.395
0.392,-0.470,-0.395
0.394,-0.475,-0.420
0.397,-0.465,-0.425
0.400,-0.445,-0.430
0.403,-0.450,-0.435
0.406,-0.435,-0.435
0.408,-0.430,-0.445
0.411,-0.435,-0.450
0.414,-0.445,-0.470
0.417,-0.465,-0.465
0.419,-0.470,-0.470
0.422,-0.495,-0.475
0.425,-0.515,-0.475
0.428,-0.530,-0.480
0.431,-0.550,-0.455
0.433,-0.550,-0.460
0.436,-0.575,-0.445
0.439,-0.560,-0.425
0.442,-0.565,-0.420
0.444,-0.565,-0.400
0.447,-0.575,-0.415
0.450,-0.600,-0.415
0.453,-0.610,-0.410
0.456,-0.625,-0.415
0.458,-0.640,-0.425
0.461,-0.645,-0.435
0.464,-0.650,-0.430
0.467,-0.635,-0.420
0.469,-0.630,-0.405
0.472,-0.620,-0.410
0.475,-0.605,-0.405
0.478,-0.595,-0.405
0.481,-0.605,-0.405
0.483,-0.590,-0.415
0.486,-0.590,-0.420
0.489,-0.595,-0.435
0.492,-0.605,-0.430
0.494,-0.605,-0.445
0.497,-0.625,-0.450
0.500,-0.620,-0.435
0.503,-0.595,-0.430
0.506,-0.585,-0.420
0.508,-0.580,-0.425
0.511,-0.565,-0.415
0.514,-0.555,-0.425
0.517,-0.550,-0.425
0.519,-0.545,-0.435
0.522,-0.520,-0.440
0.525,-0.505,-0.445
0.528,-0.470,-0.465
0.531,-0.435,-0.455
0.533,-0.355,-0.450
0.536,-0.280,-0.440
0.539,-0.170,-0.425
0.542,-0.050,-0.435
0.544,0.065,-0.435
0.547,0.240,-0.450
0.550,0.410,-0.495
0.553,0.615,-0.545
0.556,0.810,-0.620
0.558,0.980,-0.730
0.561,1.115,-0.850
0.564,1.230,-0.955
0.567,1.335,-1.080
0.569,1.445,-1.190
0.572,1.500,-1.290
0.575,1.455,-1.410
0.578,1.240,-1.505
0.581,0.855,-1.600
0.583,0.405,-1.625
0.586,-0.060,-1.610
0.589,-0.450,-1.525
0.592,-0.710,-1.420
0.594,-0.840,-1.300
0.597,-0.870,-1.165
0.600,-0.820,-1.050
0.603,-0.765,-0.945
0.606,-0.730,-0.850
0.608,-0.695,-0.780
0.611,-0.670,-0.700
0.614,-0.665,-0.640
0.617,-0.665,-0.575
0.619,-0.675,-0.525
0.622,-0.690,-0.485
0.625,-0.705,-0.470
0.628,-0.720,-0.455
0.631,-0.720,-0.455
0.633,-0.725,-0.450
0.636,-0.740,-0.445
0.639,-0.725,-0.420
0.642,-0.710,-0.415
0.644,-0.710,-0.395
0.647,-0.735,-0.395
0.650,-0.725,-0.395
0.653,-0.720,-0.420
0.656,-0.730,-0.420
0.658,-0.735,-0.420
0.661,-0.750,-0.430
0.664,-0.745,-0.425
0.667,-0.755,-0.410
0.669,-0.765,-0.410
0.672,-0.760,-0.400
0.675,-0.755,-0.400
0.678,-0.760,-0.390
0.681,-0.750,-0.385
0.683,-0.765,-0.380
0.686,-0.765,-0.395
0.689,-0.770,-0.400
0.692,-0.770,-0.405
0.694,-0.785,-0.400
0.697,-0.775,-0.390
0.700,-0.775,-0.400
0.703,-0.775,-0.380
0.706,-0.775,-0.380
0.708,-0.775,-0.375
0.711,-0.775,-0.365
0.714,-0.770,-0.350
0.717,-0.770,-0.365
0.719,-0.780,-0.375
0.722,-0.785,-0.380
0.725,-0.795,-0.395
0.728,-0.810,-0.380
0.731,-0.820,-0.385
0.733,-0.825,-0.375
0.736,-0.815,-0.370
0.739,-0.815,-0.365
0.742,-0.810,-0.360
0.744,-0.805,-0.350
0.747,-0.800,-0.355
0.750,-0.815,-0.360
0.753,-0.820,-0.355
0.756,-0.825,-0.370
0.758,-0.840,-0.370
0.761,-0.845,-0.370
0.764,-0.865,-0.355
0.767,-0.860,-0.355
0.769,-0.875,-0.355
0.772,-0.855,-0.340
0.775,-0.855,-0.320
0.778,-0.860,-0.320
0.781,-0.855,-0.320
0.783,-0.860,-0.315
0.786,-0.870,-0.315
0.789,-0.890,-0.315
0.792,-0.900,-0.315
0.794,-0.900,-0.315
0.797,-0.895,-0.325
0.800,-0.895,-0.315
0.803,-0.910,-0.285
0.806,-0.905,-0.290
0.808,-0.890,-0.275
0.811,-0.885,-0.250
0.814,-0.865,-0.260
0.817,-0.870,-0.245
0.819,-0.880,-0.245
0.822,-0.885,-0.255
0.825,-0.890,-0.250
0.828,-0.900,-0.265
0.831,-0.880,-0.260
0.833,-0.875,-0.255
0.836,-0.865,-0.240
0.839,-0.840,-0.230
0.842,-0.830,-0.220
0.844,-0.805,-0.220
0.847,-0.795,-0.230
0.850,-0.775,-0.240
0.853,-0.760,-0.250
0.856,-0.760,-0.250
0.858,-0.750,-0.260
0.861,-0.740,-0.270
0.864,-0.730,-0.275
0.867,-0.725,-0.275
0.869,-0.700,-0.270
0.872,-0.685,-0.270
0.875,-0.655,-0.275
0.878,-0.645,-0.265
0.881,-0.635,-0.280
0.883,-0.630,-0.300
0.886,-0.610,-0.310
0.889,-0.610,-0.320
0.892,-0.615,-0.335
0.894,-0.615,-0.345
0.897,-0.620,-0.355
0.900,-0.625,-0.355
0.903,-0.620,-0.360
0.906,-0.600,-0.350
0.908,-0.595,-0.360
0.911,-0.575,-0.355
0.914,-0.580,-0.365
0.917,-0.580,-0.370
0.919,-0.595,-0.380
0.922,-0.590,-0.390
0.925,-0.585,-0.410
0.928,-0.595,-0.410
0.931,-0.590,-0.405
0.933,-0.595,-0.400
0.936,-0.605,-0.395
0.939,-0.590,-0.400
0.942,-0.605,-0.395
0.944,-0.590,-0.395
0.947,-0.595,-0.385
0.950,-0.590,-0.400
0.953,-0.605,-0.410
0.956,-0.600,-0.415
0.958,-0.610,-0.425
0.961,-0.610,-0.425
0.964,-0.610,-0.430
0.967,-0.610,-0.420
0.969,-0.610,-0.415
0.972,-0.620,-0.415
0.975,-0.615,-0.405
0.978,-0.610,-0.410
0.981,-0.600,-0.415
0.983,-0.605,-0.415
0.986,-0.630,-0.410
0.989,-0.625,-0.415
0.992,-0.640,-0.430
0.994,-0.645,-0.440
0.997,-0.645,-0.435
1.000,-0.640,-0.435
1.003,-0.630,-0.425
1.006,-0.635,-0.405
1.008,-0.625,-0.400
1.011,-0.625,-0.395
1.014,-0.610,-0.405
1.017,-0.620,-0.400
1.019,-0.620,-0.420
1.022,-0.620,-0.420
1.025,-0.645,-0.415
1.028,-0.650,-0.420
1.031,-0.660,-0.425
1.033,-0.650,-0.420
1.036,-0.655,-0.410
1.039,-0.630,-0.395
1.042,-0.615,-0.400
1.044,-0.610,-0.390
1.047,-0.610,-0.410
1.050,-0.605,-0.405
1.053,-0.610,-0.400
1.056,-0.615,-0.420
1.058,-0.620,-0.420
1.061,-0.620,-0.425
1.064,-0.630,-0.430
1.067,-0.635,-0.425
1.069,-0.625,-0.410
1.072,-0.605,-0.405
1.075,-0.585,-0.405
1.078,-0.580,-0.400
1.081,-0.580,-0.405
1.083,-0.590,-0.410
1.086,-0.590,-0.410
1.089,-0.590,-0.425
1.092,-0.585,-0.420
1.094,-0.605,-0.430
1.097,-0.595,-0.430
1.100,-0.605,-0.425
1.103,-0.600,-0.415
1.106,-0.600,-0.400
1.108,-0.590,-0.415
1.111,-0.575,-0.395
1.114,-0.560,-0.410
1.117,-0.565,-0.405
1.119,-0.550,-0.415
1.122,-0.550,-0.420
1.125,-0.560,-0.435
1.128,-0.560,-0.430
1.131,-0.570,-0.430
1.133,-0.555,-0.420
1.136,-0.545,-0.430
1.139,-0.535,-0.410
1.142,-0.525,-0.410
1.144,-0.515,-0.395
1.147,-0.515,-0.390
1.150,-0.505,-0.395
1.153,-0.510,-0.400
1.156,-0.495,-0.410
1.158,-0.500,-0.410
1.161,-0.500,-0.415
1.164,-0.490,-0.410
1.167,-0.475,-0.400
1.169,-0.455,-0.405
1.172,-0.440,-0.395
1.175,-0.430,-0.390
1.178,-0.425,-0.400
1.181,-0.395,-0.410
1.183,-0.385,-0.430
1.186,-0.400,-0.460
1.189,-0.400,-0.475
1.192,-0.420,-0.500
1.194,-0.445,-0.510
1.197,-0.455,-0.515
1.200,-0.470,-0.490
1.203,-0.485,-0.485
1.206,-0.490,-0.465
1.208,-0.520,-0.445
1.211,-0.525,-0.430
1.214,-0.525,-0.430
1.217,-0.545,-0.435
1.219,-0.560,-0.435
1.222,-0.580,-0.430
1.225,-0.600,-0.435
1.228,-0.625,-0.445
1.231,-0.645,-0.435
1.233,-0.620,-0.430
1.236,-0.630,-0.435
1.239,-0.610,-0.430
1.242,-0.615,-0.415
1.244,-0.600,-0.410
1.247,-0.595,-0.410
1.250,-0.595,-0.415
1.253,-0.585,-0.410
1.256,-0.600,-0.440
1.258,-0.610,-0.445
1.261,-0.620,-0.455
1.264,-0.610,-0.450
1.267,-0.605,-0.450
1.269,-0.600,-0.435
1.272,-0.600,-0.430
1.275,-0.585,-0.435
1.278,-0.570,-0.420
1.281,-0.545,-0.435
1.283,-0.535,-0.445
1.286,-0.525,-0.445
1.289,-0.490,-0.445
1.292,-0.470,-0.465
1.294,-0.410,-0.470
1.297,-0.335,-0.475
1.300,-0.255,-0.465
1.303,-0.145,-0.450
1.306,-0.015,-0.460
1.308,0.110,-0.450
1.311,0.280,-0.465
1.314,0.430,-0.505
1.317,0.600,-0.545
1.319,0.780,-0.605
1.322,0.930,-0.685
1.325,1.065,-0.790
1.328,1.165,-0.890
1.331,1.250,-0.995
1.333,1.325,-1.085
1.336,1.405,-1.170
1.339,1.445,-1.275
1.342,1.445,-1.360
1.344,1.325,-1.465
1.347,1.075,-1.560
1.350,0.710,-1.630
1.353,0.290,-1.660
1.356,-0.100,-1.650
1.358,-0.425,-1.585
1.361,-0.650,-1.475
1.364,-0.765,-1.345
1.367,-0.780,-1.220
1.369,-0.770,-1.105
1.372,-0.735,-1.000
1.375,-0.725,-0.925
1.378,-0.695,-0.850
1.381,-0.690,-0.790
1.383,-0.690,-0.750
1.386,-0.680,-0.685
1.389,-0.690,-0.615
1.392,-0.690,-0.565
1.394,-0.710,-0.515
1.397,-0.710,-0.495
1.400,-0.720,-0.455
1.403,-0.730,-0.450
1.406,-0.725,-0.440
1.408,-0.715,-0.430
1.411,-0.715,-0.435
1.414,-0.710,-0.420
1.417,-0.715,-0.420
1.419,-0.725,-0.410
1.422,-0.725,-0.420
1.425,-0.740,-0.425
1.428,-0.745,-0.435
1.431,-0.755,-0.415
1.433,-0.760,-0.420
1.436,-0.765,-0.410
1.439,-0.745,-0.390
1.442,-0.750,-0.385
1.444,-0.745,-0.380
1.447,-0.745,-0.375
1.450,-0.755,-0.385
1.453,-0.745,-0.390
1.456,-0.760,-0.400
1.458,-0.775,-0.400
1.461,-0.770,-0.400
1.464,-0.785,-0.400
1.467,-0.790,-0.395
1.469,-0.775,-0.390
1.472,-0.780,-0.385
1.475,-0.760,-0.370
1.478,-0.765,-0.365
1.481,-0.770,-0.365
1.483,-0.775,-0.375
1.486,-0.765,-0.370
1.489,-0.790,-0.370
1.492,-0.785,-0.385
1.494,-0.795,-0.385
1.497,-0.795,-0.385
1.500,-0.790,-0.380
1.503,-0.805,-0.365
1.506,-0.785,-0.365
1.508,-0.795,-0.350
1.511,-0.790,-0.350
1.514,-0.790,-0.345
1.517,-0.795,-0.355
1.519,-0.800,-0.350
1.522,-0.810,-0.355
1.525,-0.820,-0.365
1.528,-0.825,-0.365
1.531,-0.830,-0.365
1.533,-0.845,-0.350
1.536,-0.845,-0.355
1.539,-0.840,-0.335
1.542,-0.835,-0.325
1.544,-0.830,-0.315
1.547,-0.830,-0.315
1.550,-0.840,-0.320
1.553,-0.850,-0.325
1.556,-0.865,-0.320
1.558,-0.875,-0.330
1.561,-0.900,-0.320
1.564,-0.900,-0.320
1.567,-0.890,-0.310
1.569,-0.885,-0.310
1.572,-0.885,-0.280
1.575,-0.880,-0.265
1.578,-0.870,-0.265
1.581,-0.880,-0.255
1.583,-0.875,-0.250
1.586,-0.865,-0.260
1.589,-0.885,-0.265
1.592,-0.885,-0.260
1.594,-0.885,-0.260
1.597,-0.890,-0.245
1.600,-0.885,-0.245
1.603,-0.870,-0.225
1.606,-0.870,-0.215
1.608,-0.850,-0.225
1.611,-0.835,-0.200
1.614,-0.825,-0.220
1.617,-0.805,-0.220
1.619,-0.790,-0.220
1.622,-0.785,-0.230
1.625,-0.760,-0.235
1.628,-0.770,-0.245
1.631,-0.745,-0.245
1.633,-0.730,-0.245
1.636,-0.720,-0.250
1.639,-0.700,-0.245
1.642,-0.680,-0.250
1.644,-0.660,-0.245
1.647,-0.645,-0.255
1.650,-0.650,-0.260
1.653,-0.630,-0.270
1.656,-0.640,-0.295
1.658,-0.630,-0.305
1.661,-0.630,-0.320
1.664,-0.640,-0.315
1.667,-0.625,-0.325
1.669,-0.630,-0.325
1.672,-0.610,-0.315
1.675,-0.605,-0.315
1.678,-0.590,-0.330
1.681,-0.585,-0.325
1.683,-0.585,-0.330
1.686,-0.590,-0.335
1.689,-0.585,-0.355
1.692,-0.605,-0.370
1.694,-0.610,-0.375
1.697,-0.625,-0.370
1.700,-0.615,-0.370
1.703,-0.605,-0.365
1.706,-0.600,-0.370
1.708,-0.600,-0.365
1.711,-0.595,-0.375
1.714,-0.585,-0.375
1.717,-0.595,-0.390
1.719,-0.605,-0.380
1.722,-0.610,-0.390
1.725,-0.615,-0.390
1.728,-0.605,-0.410
1.731,-0.615,-0.410
1.733,-0.635,-0.425
1.736,-0.625,-0.395
1.739,-0.620,-0.395
1.742,-0.620,-0.385
1.744,-0.610,-0.385
1.747,-0.595,-0.375
1.750,-0.600,-0.385
1.753,-0.605,-0.395
1.756,-0.625,-0.395
1.758,-0.625,-0.410
1.761,-0.650,-0.410
1.764,-0.650,-0.420
1.767,-0.655,-0.415
1.769,-0.640,-0.400
1.772,-0.650,-0.395
1.775,-0.640,-0.390
1.778,-0.645,-0.380
1.781,-0.620,-0.385
1.783,-0.620,-0.380
1.786,-0.640,-0.385
1.789,-0.640,-0.395
1.792,-0.635,-0.400
1.794,-0.645,-0.395
1.797,-0.655,-0.390
1.800,-0.655,-0.395
1.803,-0.665,-0.390
1.806,-0.675,-0.390
1.808,-0.660,-0.375
1.811,-0.660,-0.370
1.814,-0.655,-0.370
1.817,-0.640,-0.385
1.819,-0.640,-0.390
1.822,-0.645,-0.395
1.825,-0.665,-0.390
1.828,-0.665,-0.395
1.831,-0.665,-0.400
1.833,-0.650,-0.400
1.836,-0.660,-0.385
1.839,-0.645,-0.380
1.842,-0.630,-0.370
1.844,-0.620,-0.370
1.847,-0.610,-0.365
1.850,-0.610,-0.380
1.853,-0.610,-0.375
1.856,-0.610,-0.385
1.858,-0.615,-0.395
1.861,-0.615,-0.385
1.864,-0.610,-0.390
1.867,-0.620,-0.390
1.869,-0.610,-0.385
1.872,-0.615,-0.385
1.875,-0.610,-0.380
1.878,-0.590,-0.355
1.881,-0.585,-0.365
1.883,-0.590,-0.370
1.886,-0.575,-0.365
1.889,-0.575,-0.380
1.892,-0.580,-0.405
1.894,-0.580,-0.410
1.897,-0.580,-0.395
1.900,-0.575,-0.390
1.903,-0.560,-0.380
1.906,-0.555,-0.375
1.908,-0.545,-0.360
1.911,-0.530,-0.355
1.914,-0.525,-0.355
1.917,-0.525,-0.370
1.919,-0.520,-0.365
1.922,-0.510,-0.370
1.925,-0.520,-0.380
1.928,-0.520,-0.380
1.931,-0.520,-0.375
1.933,-0.500,-0.375
1.936,-0.490,-0.365
1.939,-0.480,-0.350
1.942,-0.465,-0.345
1.944,-0.440,-0.355
1.947,-0.425,-0.370
1.950,-0.415,-0.375
1.953,-0.415,-0.380
1.956,-0.410,-0.415
1.958,-0.420,-0.430
1.961,-0.430,-0.450
1.964,-0.440,-0.465
1.967,-0.445,-0.460
1.969,-0.445,-0.465
1.972,-0.455,-0.460
1.975,-0.455,-0.455
1.978,-0.465,-0.435
1.981,-0.475,-0.430
1.983,-0.490,-0.430
1.986,-0.510,-0.420
1.989,-0.515,-0.420
1.992,-0.535,-0.425
1.994,-0.555,-0.425
1.997,-0.560,-0.425
2.000,-0.580,-0.415
2.003,-0.605,-0.400
2.006,-0.595,-0.400
2.008,-0.605,-0.390
2.011,-0.595,-0.370
2.014,-0.600,-0.385
2.017,-0.605,-0.385
2.019,-0.600,-0.395
2.022,-0.610,-0.390
2.025,-0.625,-0.395
2.028,-0.630,-0.405
2.031,-0.615,-0.415
2.033,-0.615,-0.405
2.036,-0.605,-0.400
2.039,-0.600,-0.400
2.042,-0.590,-0.395
2.044,-0.585,-0.385
2.047,-0.570,-0.395
2.050,-0.575,-0.395
2.053,-0.565,-0.395
2.056,-0.555,-0.400
2.058,-0.550,-0.410
2.061,-0.540,-0.425
2.064,-0.525,-0.420
2.067,-0.505,-0.415
2.069,-0.455,-0.420
2.072,-0.400,-0.410
2.075,-0.320,-0.405
2.078,-0.235,-0.405
2.081,-0.125,-0.385
2.083,-0.005,-0.405
2.086,0.130,-0.420
2.089,0.295,-0.450
2.092,0.470,-0.510
2.094,0.675,-0.560
2.097,0.875,-0.640
2.100,1.030,-0.740
2.103,1.175,-0.845
2.106,1.275,-0.960
2.108,1.355,-1.070
2.111,1.425,-1.165
2.114,1.445,-1.290
2.117,1.370,-1.395
2.119,1.185,-1.510
2.122,0.885,-1.590
2.125,0.525,-1.655
2.128,0.145,-1.675
2.131,-0.200,-1.645
2.133,-0.465,-1.550
2.136,-0.635,-1.450
2.139,-0.715,-1.310
2.142,-0.740,-1.195
2.144,-0.720,-1.085
2.147,-0.710,-0.990
2.150,-0.700,-0.925
2.153,-0.700,-0.865
2.156,-0.700,-0.820
2.158,-0.705,-0.765
2.161,-0.695,-0.705
2.164,-0.690,-0.655
2.167,-0.690,-0.580
2.169,-0.680,-0.525
2.172,-0.685,-0.475
2.175,-0.680,-0.435
2.178,-0.685,-0.395
2.181,-0.690,-0.390
2.183,-0.695,-0.390
2.186,-0.705,-0.405
2.189,-0.700,-0.405
2.192,-0.695,-0.395
2.194,-0.730,-0.405
2.197,-0.735,-0.405
2.200,-0.735,-0.375
2.203,-0.745,-0.370
2.206,-0.740,-0.360
2.208,-0.730,-0.360
2.211,-0.740,-0.350
2.214,-0.720,-0.365
2.217,-0.735,-0.360
2.219,-0.725,-0.370
2.222,-0.730,-0.375
2.225,-0.740,-0.375
2.228,-0.745,-0.375
2.231,-0.760,-0.375
2.233,-0.755,-0.370
2.236,-0.750,-0.360
2.239,-0.760,-0.350
2.242,-0.750,-0.345
2.244,-0.750,-0.330
2.247,-0.740,-0.345
2.250,-0.750,-0.335
2.253,-0.745,-0.345
2.256,-0.760,-0.345
2.258,-0.770,-0.355
2.261,-0.785,-0.355
2.264,-0.795,-0.355
2.267,-0.795,-0.345
2.269,-0.790,-0.345
2.272,-0.790,-0.325
2.275,-0.785,-0.320
2.278,-0.775,-0.315
2.281,-0.780,-0.305
2.283,-0.780,-0.320
2.286,-0.785,-0.330
2.289,-0.790,-0.335
2.292,-0.815,-0.330
2.294,-0.815,-0.330
2.297,-0.835,-0.330
2.300,-0.825,-0.325
2.303,-0.830,-0.315
2.306,-0.825,-0.310
2.308,-0.825,-0.285
2.311,-0.820,-0.285
2.314,-0.820,-0.280
2.317,-0.830,-0.285
2.319,-0.825,-0.285
2.322,-0.835,-0.285
2.325,-0.845,-0.290
2.328,-0.855,-0.285
2.331,-0.865,-0.285
2.333,-0.875,-0.265
2.336,-0.860,-0.260
2.339,-0.860,-0.255
2.342,-0.870,-0.250
2.344,-0.865,-0.225
2.347,-0.865,-0.220
2.350,-0.850,-0.230
2.353,-0.860,-0.230
2.356,-0.865,-0.220
2.358,-0.875,-0.220
2.361,-0.870,-0.225
2.364,-0.865,-0.235
2.367,-0.870,-0.220
2.369,-0.865,-0.205
2.372,-0.860,-0.175
2.375,-0.850,-0.180
2.378,-0.840,-0.170
2.381,-0.835,-0.160
2.383,-0.820,-0.175
2.386,-0.815,-0.175
2.389,-0.810,-0.190
2.392,-0.800,-0.190
2.394,-0.795,-0.200
2.397,-0.790,-0.185
2.400,-0.770,-0.180
2.403,-0.760,-0.190
2.406,-0.750,-0.185
2.408,-0.735,-0.190
2.411,-0.715,-0.170
2.414,-0.680,-0.175
2.417,-0.670,-0.200
2.419,-0.665,-0.210
2.422,-0.655,-0.215
2.425,-0.645,-0.230
2.428,-0.640,-0.240
2.431,-0.645,-0.245
2.433,-0.640,-0.250
2.436,-0.625,-0.245
2.439,-0.610,-0.250
2.442,-0.595,-0.260
2.444,-0.600,-0.245
2.447,-0.585,-0.260
2.450,-0.580,-0.275
2.453,-0.580,-0.295
2.456,-0.595,-0.300
2.458,-0.595,-0.315
2.461,-0.590,-0.305
2.464,-0.580,-0.330
2.467,-0.585,-0.335
2.469,-0.580,-0.325
2.472,-0.575,-0.310
2.475,-0.575,-0.315
2.478,-0.560,-0.300
2.481,-0.555,-0.320
2.483,-0.570,-0.320
2.486,-0.565,-0.335
2.489,-0.580,-0.350
2.492,-0.590,-0.350
2.494,-0.595,-0.355
2.497,-0.600,-0.365
2.500,-0.590,-0.360
2.503,-0.605,-0.360
2.506,-0.595,-0.340
2.508,-0.585,-0.350
2.511,-0.580,-0.340
2.514,-0.580,-0.355
2.517,-0.580,-0.345
2.519,-0.595,-0.355
2.522,-0.600,-0.355
2.525,-0.600,-0.375
2.528,-0.605,-0.375
2.531,-0.615,-0.370
2.533,-0.620,-0.365
2.536,-0.615,-0.350
2.539,-0.600,-0.350
2.542,-0.605,-0.345
2.544,-0.605,-0.335
2.547,-0.585,-0.340
2.550,-0.595,-0.350
2.553,-0.605,-0.350
2.556,-0.615,-0.360
2.558,-0.615,-0.365
2.561,-0.620,-0.355
2.564,-0.620,-0.370
2.567,-0.625,-0.355
2.569,-0.620,-0.360
2.572,-0.620,-0.350
2.575,-0.610,-0.340
2.578,-0.605,-0.330
2.581,-0.600,-0.330
2.583,-0.610,-0.335
2.586,-0.610,-0.345
2.589,-0.620,-0.340
2.592,-0.620,-0.335
2.594,-0.630,-0.350
2.597,-0.630,-0.360
2.600,-0.640,-0.345
2.603,-0.625,-0.335
2.606,-0.615,-0.325
2.608,-0.605,-0.325
2.611,-0.600,-0.315
2.614,-0.590,-0.320
2.617,-0.590,-0.325
2.619,-0.595,-0.330
2.622,-0.595,-0.335
2.625,-0.595,-0.345
2.628,-0.595,-0.345
2.631,-0.595,-0.355
2.633,-0.590,-0.340
2.636,-0.590,-0.345
2.639,-0.580,-0.340
2.642,-0.590,-0.320
2.644,-0.565,-0.315
2.647,-0.565,-0.325
2.650,-0.560,-0.325
2.653,-0.550,-0.330
2.656,-0.555,-0.335
2.658,-0.570,-0.335
2.661,-0.585,-0.345
2.664,-0.570,-0.355
2.667,-0.565,-0.330
2.669,-0.550,-0.330
2.672,-0.550,-0.330
2.675,-0.530,-0.325
2.678,-0.505,-0.300
2.681,-0.500,-0.305
2.683,-0.490,-0.315
2.686,-0.495,-0.315
2.689,-0.500,-0.310
2.692,-0.495,-0.320
2.694,-0.510,-0.315
2.697,-0.520,-0.320
2.700,-0.500,-0.320
2.703,-0.485,-0.310
2.706,-0.470,-0.290
2.708,-0.460,-0.285
2.711,-0.455,-0.280
2.714,-0.425,-0.275
2.717,-0.410,-0.285
2.719,-0.395,-0.290
2.722,-0.400,-0.300
2.725,-0.395,-0.320
2.728,-0.400,-0.335
2.731,-0.395,-0.335
2.733,-0.400,-0.350
2.736,-0.395,-0.360
2.739,-0.415,-0.355
2.742,-0.405,-0.370
2.744,-0.395,-0.370
2.747,-0.400,-0.355
2.750,-0.415,-0.365
2.753,-0.440,-0.345
2.756,-0.455,-0.350
2.758,-0.475,-0.360
2.761,-0.490,-0.335
2.764,-0.510,-0.340
2.767,-0.535,-0.315
2.769,-0.540,-0.330
2.772,-0.540,-0.320
2.775,-0.545,-0.295
2.778,-0.550,-0.295
2.781,-0.560,-0.305
2.783,-0.575,-0.295
2.786,-0.580,-0.305
2.789,-0.575,-0.310
2.792,-0.585,-0.310
2.794,-0.585,-0.315
2.797,-0.590,-0.305
2.800,-0.590,-0.315
2.803,-0.575,-0.305
2.806,-0.580,-0.295
2.808,-0.580,-0.305
2.811,-0.555,-0.295
2.814,-0.555,-0.295
2.817,-0.535,-0.285
2.819,-0.540,-0.310
2.822,-0.545,-0.320
2.825,-0.540,-0.325
2.828,-0.530,-0.340
2.831,-0.530,-0.335
2.833,-0.495,-0.325
2.836,-0.470,-0.320
2.839,-0.425,-0.300
2.842,-0.345,-0.300
2.844,-0.225,-0.300
2.847,-0.095,-0.300
2.850,0.055,-0.320
2.853,0.230,-0.335
2.856,0.420,-0.375
2.858,0.625,-0.415
2.861,0.820,-0.490
2.864,0.990,-0.570
2.867,1.125,-0.685
2.869,1.220,-0.785
2.872,1.295,-0.910
2.875,1.370,-1.005
2.878,1.400,-1.115
2.881,1.345,-1.240
2.883,1.180,-1.345
2.886,0.870,-1.445
2.889,0.475,-1.505
2.892,0.060,-1.525
2.894,-0.300,-1.485
2.897,-0.580,-1.380
2.900,-0.730,-1.255
2.903,-0.800,-1.120
2.906,-0.780,-0.985
2.908,-0.750,-0.875
2.911,-0.715,-0.795
2.914,-0.675,-0.730
2.917,-0.655,-0.665
2.919,-0.645,-0.595
2.922,-0.650,-0.535
2.925,-0.655,-0.475
2.928,-0.650,-0.420
2.931,-0.655,-0.355
2.933,-0.665,-0.330
2.936,-0.675,-0.290
2.939,-0.675,-0.280
2.942,-0.675,-0.270
2.944,-0.670,-0.270
2.947,-0.665,-0.275
2.950,-0.665,-0.280
2.953,-0.660,-0.270
2.956,-0.685,-0.275
2.958,-0.690,-0.265
2.961,-0.710,-0.270
2.964,-0.695,-0.255
2.967,-0.700,-0.255
2.969,-0.700,-0.250
2.972,-0.690,-0.235
2.975,-0.695,-0.225
2.978,-0.700,-0.230
2.981,-0.700,-0.230
2.983,-0.695,-0.230
2.986,-0.705,-0.245
2.989,-0.705,-0.245
2.992,-0.715,-0.245
2.994,-0.730,-0.260
2.997,-0.735,-0.240
3.000,-0.730,-0.230
3.003,-0.725,-0.225
3.006,-0.720,-0.215
3.008,-0.740,-0.210
3.011,-0.740,-0.200
3.014,-0.735,-0.215
3.017,-0.730,-0.215
3.019,-0.725,-0.225
3.022,-0.735,-0.215
3.025,-0.735,-0.235
3.028,-0.750,-0.230
3.031,-0.750,-0.205
3.033,-0.750,-0.215
3.036,-0.750,-0.210
3.039,-0.760,-0.195
3.042,-0.755,-0.190
3.044,-0.755,-0.190
3.047,-0.755,-0.190
3.050,-0.765,-0.190
3.053,-0.770,-0.200
3.056,-0.785,-0.205
3.058,-0.795,-0.200
3.061,-0.800,-0.205
3.064,-0.805,-0.195
3.067,-0.810,-0.190
3.069,-0.820,-0.180
3.072,-0.820,-0.165
3.075,-0.815,-0.155
3.078,-0.815,-0.145
3.081,-0.820,-0.160
3.083,-0.825,-0.145
3.086,-0.835,-0.170
3.089,-0.835,-0.155
3.092,-0.845,-0.160
3.094,-0.860,-0.150
3.097,-0.855,-0.145
3.100,-0.850,-0.120
3.103,-0.850,-0.110
3.106,-0.850,-0.105
3.108,-0.855,-0.085
3.111,-0.830,-0.090
3.114,-0.835,-0.080
3.117,-0.835,-0.090
3.119,-0.835,-0.080
3.122,-0.840,-0.075
3.125,-0.840,-0.080
3.128,-0.840,-0.080
3.131,-0.840,-0.060
3.133,-0.820,-0.070
3.136,-0.815,-0.050
3.139,-0.785,-0.035
3.142,-0.780,-0.040
3.144,-0.765,-0.040
3.147,-0.750,-0.055
3.150,-0.740,-0.050
3.153,-0.730,-0.060
3.156,-0.725,-0.075
3.158,-0.700,-0.075
3.161,-0.700,-0.080
3.164,-0.680,-0.075
3.167,-0.670,-0.070
3.169,-0.635,-0.075
3.172,-0.620,-0.060
3.175,-0.605,-0.065
3.178,-0.590,-0.080
3.181,-0.580,-0.095
3.183,-0.580,-0.100
3.186,-0.585,-0.125
3.189,-0.580,-0.135
3.192,-0.585,-0.140
3.194,-0.595,-0.150
3.197,-0.570,-0.145
3.200,-0.575,-0.155
3.203,-0.565,-0.155
3.206,-0.540,-0.150
3.208,-0.540,-0.160
3.211,-0.540,-0.150
3.214,-0.540,-0.175
3.217,-0.535,-0.180
3.219,-0.550,-0.185
3.222,-0.565,-0.205
3.225,-0.555,-0.205
3.228,-0.570,-0.210
3.231,-0.570,-0.215
3.233,-0.565,-0.200
3.236,-0.545,-0.200
3.239,-0.545,-0.210
3.242,-0.540,-0.195
3.244,-0.540,-0.190
3.247,-0.545,-0.210
3.250,-0.555,-0.210
3.253,-0.575,-0.220
3.256,-0.580,-0.235
3.258,-0.590,-0.230
3.261,-0.585,-0.245
3.264,-0.590,-0.245
3.267,-0.585,-0.240
3.269,-0.565,-0.220
3.272,-0.565,-0.215
3.275,-0.565,-0.215
3.278,-0.560,-0.210
3.281,-0.575,-0.220
3.283,-0.565,-0.230
3.286,-0.585,-0.245
3.289,-0.595,-0.240
3.292,-0.605,-0.245
3.294,-0.605,-0.240
3.297,-0.615,-0.245
3.300,-0.610,-0.240
3.303,-0.610,-0.220
3.306,-0.600,-0.220
3.308,-0.600,-0.220
3.311,-0.595,-0.210
3.314,-0.605,-0.215
3.317,-0.600,-0.220
3.319,-0.615,-0.235
3.322,-0.620,-0.230
3.325,-0.630,-0.240
3.328,-0.625,-0.240
3.331,-0.620,-0.240
3.333,-0.620,-0.240
3.336,-0.620,-0.230
3.339,-0.610,-0.215
3.342,-0.605,-0.210
3.344,-0.595,-0.205
3.347,-0.595,-0.215
3.350,-0.585,-0.215
3.353,-0.590,-0.230
3.356,-0.600,-0.230
3.358,-0.600,-0.245
3.361,-0.605,-0.250
3.364,-0.600,-0.240
3.367,-0.600,-0.235
3.369,-0.590,-0.230
3.372,-0.590,-0.220
3.375,-0.590,-0.225
3.378,-0.575,-0.215
3.381,-0.565,-0.235
3.383,-0.565,-0.230
3.386,-0.585,-0.245
3.389,-0.575,-0.245
3.392,-0.580,-0.250
3.394,-0.570,-0.255
3.397,-0.580,-0.245
3.400,-0.580,-0.240
3.403,-0.570,-0.240
3.406,-0.560,-0.235
3.408,-0.565,-0.235
3.411,-0.540,-0.225
3.414,-0.540,-0.230
3.417,-0.540,-0.240
3.419,-0.535,-0.250
3.422,-0.545,-0.255
3.425,-0.540,-0.260
3.428,-0.545,-0.270
3.431,-0.550,-0.265
3.433,-0.535,-0.260
3.436,-0.535,-0.255
3.439,-0.510,-0.240
3.442,-0.510,-0.240
3.444,-0.485,-0.225
3.447,-0.485,-0.245
3.450,-0.490,-0.235
3.453,-0.460,-0.245
3.456,-0.470,-0.245
3.458,-0.470,-0.245
3.461,-0.465,-0.245
3.464,-0.465,-0.245
3.467,-0.450,-0.240
3.469,-0.430,-0.235
3.472,-0.420,-0.240
3.475,-0.400,-0.245
3.478,-0.400,-0.250
3.481,-0.390,-0.285
3.483,-0.410,-0.295
3.486,-0.410,-0.315
3.489,-0.430,-0.340
3.492,-0.430,-0.335
3.494,-0.445,-0.355
3.497,-0.460,-0.335
3.500,-0.460,-0.325
3.503,-0.485,-0.315
3.506,-0.495,-0.290
3.508,-0.510,-0.280
3.511,-0.510,-0.280
3.514,-0.510,-0.280
3.517,-0.530,-0.290
3.519,-0.545,-0.285
3.522,-0.565,-0.285
3.525,-0.585,-0.295
3.528,-0.590,-0.280
3.531,-0.615,-0.280
3.533,-0.620,-0.270
3.536,-0.625,-0.275
3.539,-0.615,-0.255
3.542,-0.605,-0.250
3.544,-0.600,-0.255
3.547,-0.590,-0.265
3.550,-0.585,-0.255
3.553,-0.600,-0.265
3.556,-0.590,-0.275
3.558,-0.590,-0.275
3.561,-0.605,-0.285
3.564,-0.595,-0.290
3.567,-0.595,-0.270
3.569,-0.595,-0.270
3.572,-0.580,-0.255
3.575,-0.570,-0.260
3.578,-0.555,-0.270
3.581,-0.560,-0.270
3.583,-0.545,-0.275
3.586,-0.535,-0.285
3.589,-0.515,-0.285
3.592,-0.500,-0.300
3.594,-0.460,-0.305
3.597,-0.405,-0.295
3.600,-0.315,-0.290
3.603,-0.205,-0.285
3.606,-0.080,-0.265
3.608,0.075,-0.275
3.611,0.265,-0.275
3.614,0.460,-0.305
3.617,0.660,-0.350
3.619,0.855,-0.425
3.622,1.005,-0.535
3.625,1.130,-0.660
3.628,1.220,-0.770
3.631,1.290,-0.890
3.633,1.355,-0.995
3.636,1.350,-1.110
3.639,1.220,-1.230
3.642,0.905,-1.325
3.644,0.480,-1.415
3.647,0.000,-1.420
3.650,-0.445,-1.370
3.653,-0.750,-1.270
3.656,-0.905,-1.110
3.658,-0.935,-0.970
3.661,-0.900,-0.850
3.664,-0.835,-0.755
3.667,-0.760,-0.665
3.669,-0.695,-0.600
3.672,-0.655,-0.535
3.675,-0.640,-0.450
3.678,-0.645,-0.380
3.681,-0.655,-0.340
3.683,-0.670,-0.305
3.686,-0.675,-0.290
3.689,-0.695,-0.275
3.692,-0.710,-0.280
3.694,-0.720,-0.285
3.697,-0.735,-0.270
3.700,-0.745,-0.275
3.703,-0.730,-0.255
3.706,-0.725,-0.250
3.708,-0.725,-0.240
3.711,-0.700,-0.230
3.714,-0.705,-0.245
3.717,-0.715,-0.235
3.719,-0.715,-0.245
3.722,-0.725,-0.245
3.725,-0.750,-0.245
3.728,-0.755,-0.255
3.731,-0.755,-0.245
3.733,-0.765,-0.245
3.736,-0.750,-0.225
3.739,-0.740,-0.225
3.742,-0.745,-0.215
3.744,-0.735,-0.225
3.747,-0.740,-0.215
3.750,-0.750,-0.215
3.753,-0.755,-0.230
3.756,-0.770,-0.235
3.758,-0.770,-0.240
3.761,-0.770,-0.235
3.764,-0.780,-0.230
3.767,-0.785,-0.225
3.769,-0.780,-0.225
3.772,-0.785,-0.205
3.775,-0.775,-0.200
3.778,-0.770,-0.190
3.781,-0.770,-0.195
3.783,-0.780,-0.200
3.786,-0.790,-0.210
3.789,-0.800,-0.205
3.792,-0.805,-0.220
3.794,-0.810,-0.220
3.797,-0.810,-0.205
3.800,-0.820,-0.210
3.803,-0.835,-0.190
3.806,-0.820,-0.190
3.808,-0.820,-0.185
3.811,-0.810,-0.170
3.814,-0.830,-0.180
3.817,-0.840,-0.175
3.819,-0.835,-0.170
3.822,-0.840,-0.190
3.825,-0.860,-0.185
3.828,-0.870,-0.180
3.831,-0.865,-0.170
3.833,-0.875,-0.165
3.836,-0.870,-0.145
3.839,-0.875,-0.145
3.842,-0.875,-0.125
3.844,-0.880,-0.125
3.847,-0.870,-0.120
3.850,-0.875,-0.110
3.853,-0.865,-0.105
3.856,-0.895,-0.105
3.858,-0.890,-0.100
3.861,-0.885,-0.115
3.864,-0.885,-0.105
3.867,-0.860,-0.095
3.869,-0.865,-0.075
3.872,-0.850,-0.070
3.875,-0.830,-0.065
3.878,-0.810,-0.060
3.881,-0.805,-0.075
3.883,-0.790,-0.070
3.886,-0.770,-0.075
3.889,-0.760,-0.075
3.892,-0.760,-0.090
3.894,-0.745,-0.085
3.897,-0.725,-0.095
3.900,-0.720,-0.095
3.903,-0.690,-0.105
3.906,-0.670,-0.085
3.908,-0.645,-0.080
3.911,-0.630,-0.090
3.914,-0.630,-0.125
3.917,-0.620,-0.120
3.919,-0.615,-0.135
3.922,-0.635,-0.155
3.925,-0.620,-0.160
3.928,-0.615,-0.170
3.931,-0.620,-0.175
3.933,-0.615,-0.180
3.936,-0.610,-0.185
3.939,-0.595,-0.175
3.942,-0.575,-0.170
3.944,-0.570,-0.175
3.947,-0.560,-0.175
3.950,-0.560,-0.205
3.953,-0.580,-0.205
3.956,-0.585,-0.210
3.958,-0.585,-0.225
3.961,-0.600,-0.225
3.964,-0.595,-0.225
3.967,-0.600,-0.225
3.969,-0.605,-0.215
3.972,-0.585,-0.210
3.975,-0.580,-0.200
3.978,-0.570,-0.205
3.981,-0.575,-0.220
3.983,-0.580,-0.210
3.986,-0.590,-0.220
3.989,-0.610,-0.235
3.992,-0.615,-0.240
3.994,-0.630,-0.250
3.997,-0.620,-0.250
4.000,-0.620,-0.230
4.003,-0.610,-0.235
4.006,-0.615,-0.225
4.008,-0.610,-0.220
4.011,-0.600,-0.220
4.014,-0.600,-0.220
4.017,-0.610,-0.235
4.019,-0.610,-0.240
4.022,-0.615,-0.240
4.025,-0.620,-0.240
4.028,-0.630,-0.245
4.031,-0.630,-0.240
4.033,-0.640,-0.235
4.036,-0.650,-0.230
4.039,-0.635,-0.235
4.042,-0.630,-0.225
4.044,-0.630,-0.220
4.047,-0.625,-0.230
4.050,-0.635,-0.240
4.053,-0.630,-0.245
4.056,-0.640,-0.245
4.058,-0.640,-0.240
4.061,-0.640,-0.255
4.064,-0.645,-0.250
4.067,-0.655,-0.245
4.069,-0.650,-0.240
4.072,-0.645,-0.225
4.075,-0.620,-0.230
4.078,-0.630,-0.215
4.081,-0.625,-0.225
4.083,-0.620,-0.235
4.086,-0.625,-0.245
4.089,-0.625,-0.250
4.092,-0.630,-0.245
4.094,-0.625,-0.250
4.097,-0.625,-0.245
4.100,-0.620,-0.240
4.103,-0.615,-0.250
4.106,-0.600,-0.235
4.108,-0.605,-0.240
4.111,-0.590,-0.230
4.114,-0.595,-0.225
4.117,-0.600,-0.240
4.119,-0.595,-0.250
4.122,-0.590,-0.250
4.125,-0.605,-0.255
4.128,-0.600,-0.270
4.131,-0.610,-0.265
4.133,-0.605,-0.250
4.136,-0.615,-0.250
4.139,-0.610,-0.240
4.142,-0.605,-0.230
4.144,-0.575,-0.235
4.147,-0.570,-0.240
4.150,-0.580,-0.245
4.153,-0.590,-0.240
4.156,-0.585,-0.255
4.158,-0.585,-0.265
4.161,-0.575,-0.270
4.164,-0.575,-0.270
4.167,-0.565,-0.255
4.169,-0.555,-0.255
4.172,-0.550,-0.250
4.175,-0.540,-0.245
4.178,-0.525,-0.240
4.181,-0.540,-0.245
4.183,-0.535,-0.255
4.186,-0.530,-0.250
4.189,-0.535,-0.265
4.192,-0.530,-0.260
4.194,-0.530,-0.265
4.197,-0.535,-0.245
4.200,-0.520,-0.240
4.203,-0.515,-0.240
4.206,-0.495,-0.230
4.208,-0.490,-0.235
4.211,-0.460,-0.235
4.214,-0.440,-0.250
4.217,-0.430,-0.265
4.219,-0.440,-0.285
4.222,-0.440,-0.315
4.225,-0.445,-0.325
4.228,-0.450,-0.360
4.231,-0.475,-0.360
4.233,-0.470,-0.365
4.236,-0.495,-0.345
4.239,-0.490,-0.335
4.242,-0.490,-0.320
4.244,-0.510,-0.300
4.247,-0.525,-0.295
4.250,-0.550,-0.300
4.253,-0.560,-0.290
4.256,-0.580,-0.300
4.258,-0.600,-0.310
4.261,-0.615,-0.300
4.264,-0.635,-0.285
4.267,-0.635,-0.290
4.269,-0.645,-0.270
4.272,-0.640,-0.270
4.275,-0.620,-0.270
4.278,-0.615,-0.260
4.281,-0.615,-0.270
4.283,-0.615,-0.280
4.286,-0.615,-0.290
4.289,-0.610,-0.300
4.292,-0.625,-0.305
4.294,-0.635,-0.310
4.297,-0.630,-0.295
4.300,-0.635,-0.300
4.303,-0.630,-0.295
4.306,-0.620,-0.285
4.308,-0.615,-0.285
4.311,-0.595,-0.275
4.314,-0.590,-0.285
4.317,-0.585,-0.290
4.319,-0.575,-0.305
4.322,-0.570,-0.310
4.325,-0.555,-0.315
4.328,-0.535,-0.325
4.331,-0.500,-0.315
4.333,-0.455,-0.310
4.336,-0.380,-0.295
4.339,-0.280,-0.295
4.342,-0.185,-0.275
4.344,-0.050,-0.270
4.347,0.085,-0.275
4.350,0.235,-0.305
4.353,0.410,-0.315
4.356,0.580,-0.360
4.358,0.740,-0.425
4.361,0.890,-0.500
4.364,1.015,-0.585
4.367,1.100,-0.695
4.369,1.195,-0.780
4.372,1.260,-0.875
4.375,1.350,-0.940
4.378,1.380,-1.040
4.381,1.310,-1.145
4.383,1.140,-1.230
4.386,0.850,-1.330
4.389,0.485,-1.400
4.392,0.100,-1.410
4.394,-0.245,-1.420
4.397,-0.525,-1.385
4.400,-0.705,-1.315
4.403,-0.805,-1.205
4.406,-0.825,-1.105
4.408,-0.815,-0.990
4.411,-0.785,-0.900
4.414,-0.770,-0.835
4.417,-0.755,-0.760
4.419,-0.740,-0.710
4.422,-0.730,-0.640
4.425,-0.725,-0.575
4.428,-0.725,-0.510
4.431,-0.720,-0.425
4.433,-0.715,-0.385
4.436,-0.715,-0.330
4.439,-0.725,-0.320
4.442,-0.715,-0.305
4.444,-0.715,-0.300
4.447,-0.715,-0.305
4.450,-0.725,-0.305
4.453,-0.740,-0.305
4.456,-0.745,-0.305
4.458,-0.750,-0.310
4.461,-0.765,-0.315
4.464,-0.775,-0.300
4.467,-0.775,-0.310
4.469,-0.765,-0.295
4.472,-0.770,-0.285
4.475,-0.765,-0.285
4.478,-0.760,-0.270
4.481,-0.760,-0.265
4.483,-0.765,-0.275
4.486,-0.770,-0.275
4.489,-0.785,-0.295
4.492,-0.780,-0.295
4.494,-0.790,-0.300
4.497,-0.790,-0.300
4.500,-0.800,-0.285
4.503,-0.795,-0.280
4.506,-0.785,-0.275
4.508,-0.790,-0.265
4.511,-0.770,-0.255
4.514,-0.785,-0.275
4.517,-0.795,-0.270
4.519,-0.800,-0.280
4.522,-0.815,-0.285
4.525,-0.805,-0.285
4.528,-0.825,-0.290
4.531,-0.825,-0.290
4.533,-0.830,-0.285
4.536,-0.825,-0.265
4.539,-0.815,-0.255
4.542,-0.825,-0.255
4.544,-0.815,-0.255
4.547,-0.835,-0.250
4.550,-0.835,-0.255
4.553,-0.835,-0.260
4.556,-0.835,-0.270
4.558,-0.845,-0.270
4.561,-0.855,-0.275
4.564,-0.865,-0.270
4.567,-0.870,-0.265
4.569,-0.865,-0.260
4.572,-0.860,-0.245
4.575,-0.860,-0.230
4.578,-0.865,-0.230
4.581,-0.865,-0.230
4.583,-0.880,-0.230
4.586,-0.875,-0.245
4.589,-0.880,-0.245
4.592,-0.905,-0.255
4.594,-0.905,-0.245
4.597,-0.915,-0.245
4.600,-0.915,-0.230
4.603,-0.915,-0.220
4.606,-0.915,-0.210
4.608,-0.910,-0.200
4.611,-0.900,-0.180
4.614,-0.885,-0.195
4.617,-0.885,-0.195
4.619,-0.890,-0.200
4.622,-0.900,-0.200
4.625,-0.885,-0.195
4.628,-0.890,-0.195
4.631,-0.890,-0.185
4.633,-0.880,-0.180
4.636,-0.875,-0.175
4.639,-0.845,-0.175
4.642,-0.845,-0.155
4.644,-0.840,-0.165
4.647,-0.815,-0.170
4.650,-0.820,-0.170
4.653,-0.805,-0.185
4.656,-0.790,-0.185
4.658,-0.770,-0.190
4.661,-0.750,-0.200
4.664,-0.740,-0.205
4.667,-0.700,-0.205
4.669,-0.690,-0.205
4.672,-0.670,-0.210
4.675,-0.650,-0.210
4.678,-0.625,-0.210
4.681,-0.615,-0.225
4.683,-0.610,-0.240
4.686,-0.600,-0.255
4.689,-0.595,-0.275
4.692,-0.600,-0.285
4.694,-0.605,-0.285
4.697,-0.600,-0.285
4.700,-0.595,-0.290
4.703,-0.590,-0.290
4.706,-0.580,-0.290
4.708,-0.580,-0.290
4.711,-0.565,-0.285
4.714,-0.570,-0.300
4.717,-0.565,-0.310
4.719,-0.560,-0.310
4.722,-0.575,-0.330
4.725,-0.565,-0.345
4.728,-0.575,-0.350
4.731,-0.575,-0.340
4.733,-0.570,-0.340
4.736,-0.565,-0.335
4.739,-0.575,-0.340
4.742,-0.565,-0.330
4.744,-0.550,-0.335
4.747,-0.560,-0.340
4.750,-0.560,-0.345
4.753,-0.560,-0.355
4.756,-0.570,-0.370
4.758,-0.565,-0.370
4.761,-0.575,-0.370
4.764,-0.580,-0.360
4.767,-0.580,-0.365
4.769,-0.580,-0.360
4.772,-0.570,-0.365
4.775,-0.555,-0.360
4.778,-0.575,-0.345
4.781,-0.575,-0.365
4.783,-0.580,-0.370
4.786,-0.595,-0.375
4.789,-0.595,-0.385
4.792,-0.590,-0.395
4.794,-0.610,-0.390
4.797,-0.610,-0.390
4.800,-0.610,-0.380
4.803,-0.595,-0.370
4.806,-0.590,-0.365
4.808,-0.585,-0.360
4.811,-0.580,-0.360
4.814,-0.590,-0.375
4.817,-0.580,-0.370
4.819,-0.590,-0.380
4.822,-0.590,-0.385
4.825,-0.600,-0.385
4.828,-0.600,-0.385
4.831,-0.610,-0.385
4.833,-0.605,-0.390
4.836,-0.605,-0.370
4.839,-0.590,-0.370
4.842,-0.580,-0.360
4.844,-0.570,-0.365
4.847,-0.570,-0.370
4.850,-0.570,-0.360
4.853,-0.585,-0.375
4.856,-0.570,-0.380
4.858,-0.580,-0.385
4.861,-0.575,-0.395
4.864,-0.585,-0.395
4.867,-0.580,-0.390
4.869,-0.575,-0.375
4.872,-0.565,-0.385
4.875,-0.560,-0.360
4.878,-0.560,-0.360
4.881,-0.545,-0.370
4.883,-0.545,-0.370
4.886,-0.535,-0.390
4.889,-0.550,-0.400
4.892,-0.550,-0.390
4.894,-0.560,-0.410
4.897,-0.555,-0.400
4.900,-0.545,-0.395
4.903,-0.555,-0.390
4.906,-0.540,-0.385
4.908,-0.535,-0.380
4.911,-0.520,-0.370
4.914,-0.505,-0.380
4.917,-0.520,-0.385
4.919,-0.515,-0.395
4.922,-0.520,-0.410
4.925,-0.515,-0.410
4.928,-0.520,-0.420
4.931,-0.525,-0.410
4.933,-0.510,-0.405
4.936,-0.510,-0.405
4.939,-0.495,-0.390
4.942,-0.480,-0.390
4.944,-0.465,-0.380
4.947,-0.460,-0.390
4.950,-0.455,-0.390
4.953,-0.450,-0.395
4.956,-0.460,-0.395
4.958,-0.465,-0.395
4.961,-0.465,-0.405
4.964,-0.460,-0.390
4.967,-0.445,-0.385
4.969,-0.435,-0.385
4.972,-0.415,-0.375
4.975,-0.405,-0.375
4.978,-0.380,-0.375
4.981,-0.365,-0.385
4.983,-0.355,-0.390
4.986,-0.355,-0.420
4.989,-0.360,-0.425
4.992,-0.370,-0.445
4.994,-0.370,-0.475
4.997,-0.385,-0.480
5.000,-0.400,-0.480
5.003,-0.405,-0.485
5.006,-0.410,-0.480
5.008,-0.405,-0.455
5.011,-0.405,-0.455
5.014,-0.410,-0.445
5.017,-0.415,-0.445
5.019,-0.445,-0.445
5.022,-0.465,-0.450
5.025,-0.485,-0.450
5.028,-0.490,-0.440
5.031,-0.505,-0.440
5.033,-0.510,-0.440
5.036,-0.515,-0.425
5.039,-0.530,-0.405
5.042,-0.520,-0.410
5.044,-0.525,-0.400
5.047,-0.540,-0.400
5.050,-0.555,-0.405
5.053,-0.555,-0.415
5.056,-0.560,-0.410
5.058,-0.560,-0.425
5.061,-0.555,-0.435
5.064,-0.565,-0.425
5.067,-0.555,-0.415
5.069,-0.555,-0.425
5.072,-0.555,-0.410
5.075,-0.535,-0.400
5.078,-0.540,-0.400
5.081,-0.535,-0.410
5.083,-0.515,-0.410
5.086,-0.515,-0.420
5.089,-0.520,-0.435
5.092,-0.520,-0.440
5.094,-0.505,-0.445
5.097,-0.505,-0.445
5.100,-0.490,-0.445
5.103,-0.475,-0.430
5.106,-0.445,-0.420
5.108,-0.425,-0.410
5.111,-0.370,-0.405
5.114,-0.320,-0.425
5.117,-0.255,-0.430
5.119,-0.175,-0.435
5.122,-0.085,-0.450
5.125,0.025,-0.450
5.128,0.145,-0.460
5.131,0.290,-0.475
5.133,0.470,-0.495
5.136,0.680,-0.530
5.139,0.860,-0.575
5.142,1.040,-0.675
5.144,1.185,-0.775
5.147,1.320,-0.885
5.150,1.420,-0.990
5.153,1.525,-1.105
5.156,1.615,-1.215
5.158,1.635,-1.320
5.161,1.570,-1.420
5.164,1.345,-1.520
5.167,1.020,-1.590
5.169,0.610,-1.625
5.172,0.215,-1.635
5.175,-0.150,-1.590
5.178,-0.415,-1.510
5.181,-0.575,-1.420
5.183,-0.650,-1.310
5.186,-0.660,-1.195
5.189,-0.660,-1.095
5.192,-0.655,-1.025
5.194,-0.655,-0.960
5.197,-0.660,-0.895
5.200,-0.635,-0.830
5.203,-0.630,-0.765
5.206,-0.620,-0.690
5.208,-0.605,-0.620
5.211,-0.600,-0.560
5.214,-0.600,-0.495
5.217,-0.605,-0.460
5.219,-0.615,-0.455
5.222,-0.625,-0.445
5.225,-0.640,-0.465
5.228,-0.650,-0.450
5.231,-0.660,-0.440
5.233,-0.665,-0.435
5.236,-0.655,-0.420
5.239,-0.670,-0.410
5.242,-0.650,-0.400
5.244,-0.645,-0.380
5.247,-0.650,-0.385
5.250,-0.660,-0.400
5.253,-0.660,-0.390
5.256,-0.670,-0.405
5.258,-0.670,-0.410
5.261,-0.695,-0.410
5.264,-0.685,-0.400
5.267,-0.690,-0.390
5.269,-0.700,-0.395
5.272,-0.705,-0.390
5.275,-0.690,-0.380
5.278,-0.685,-0.355
5.281,-0.680,-0.370
5.283,-0.680,-0.375
5.286,-0.685,-0.385
5.289,-0.695,-0.380
5.292,-0.705,-0.395
5.294,-0.720,-0.395
5.297,-0.725,-0.385
5.300,-0.735,-0.380
5.303,-0.730,-0.370
5.306,-0.730,-0.370
5.308,-0.735,-0.360
5.311,-0.730,-0.355
5.314,-0.720,-0.355
5.317,-0.725,-0.345
5.319,-0.730,-0.365
5.322,-0.740,-0.370
5.325,-0.745,-0.365
5.328,-0.760,-0.370
5.331,-0.780,-0.360
5.333,-0.785,-0.355
5.336,-0.790,-0.350
5.339,-0.785,-0.350
5.342,-0.775,-0.330
5.344,-0.770,-0.325
5.347,-0.765,-0.320
5.350,-0.780,-0.325
5.353,-0.780,-0.325
5.356,-0.795,-0.320
5.358,-0.800,-0.335
5.361,-0.815,-0.330
5.364,-0.825,-0.335
5.367,-0.825,-0.325
5.369,-0.835,-0.320
5.372,-0.830,-0.290
5.375,-0.830,-0.290
5.378,-0.830,-0.265
5.381,-0.825,-0.270
5.383,-0.840,-0.270
5.386,-0.835,-0.275
5.389,-0.845,-0.285
5.392,-0.830,-0.270
5.394,-0.850,-0.270
5.397,-0.850,-0.260
5.400,-0.840,-0.255
5.403,-0.840,-0.245
5.406,-0.830,-0.230
5.408,-0.815,-0.220
5.411,-0.805,-0.215
5.414,-0.805,-0.215
5.417,-0.785,-0.205
5.419,-0.785,-0.215
5.422,-0.775,-0.235
5.425,-0.770,-0.230
5.428,-0.765,-0.240
5.431,-0.765,-0.235
5.433,-0.750,-0.220
5.436,-0.730,-0.230
5.439,-0.710,-0.225
5.442,-0.680,-0.230
5.444,-0.655,-0.225
5.447,-0.645,-0.225
5.450,-0.625,-0.250
5.453,-0.625,-0.255
5.456,-0.620,-0.265
5.458,-0.625,-0.270
5.461,-0.610,-0.290
5.464,-0.605,-0.300
5.467,-0.580,-0.310
5.469,-0.590,-0.300
5.472,-0.560,-0.315
5.475,-0.560,-0.325
5.478,-0.555,-0.320
5.481,-0.545,-0.330
5.483,-0.545,-0.340
5.486,-0.540,-0.355
5.489,-0.535,-0.370
5.492,-0.540,-0.370
5.494,-0.545,-0.385
5.497,-0.550,-0.385
5.500,-0.545,-0.390
5.503,-0.540,-0.380
5.506,-0.535,-0.385
5.508,-0.540,-0.375
5.511,-0.520,-0.375
5.514,-0.515,-0.385
5.517,-0.530,-0.375
5.519,-0.540,-0.395
5.522,-0.550,-0.405
5.525,-0.560,-0.405
5.528,-0.550,-0.410
5.531,-0.560,-0.405
5.533,-0.560,-0.400
5.536,-0.565,-0.395
5.539,-0.545,-0.400
5.542,-0.550,-0.400
5.544,-0.550,-0.390
5.547,-0.550,-0.400
5.550,-0.555,-0.390
5.553,-0.565,-0.405
5.556,-0.565,-0.415
5.558,-0.575,-0.420
5.561,-0.585,-0.415
5.564,-0.585,-0.410
5.567,-0.585,-0.415
5.569,-0.590,-0.410
5.572,-0.585,-0.395
5.575,-0.580,-0.395
5.578,-0.585,-0.385
5.581,-0.580,-0.385
5.583,-0.600,-0.395
5.586,-0.580,-0.405
5.589,-0.590,-0.390
5.592,-0.585,-0.415
5.594,-0.600,-0.410
5.597,-0.600,-0.400
5.600,-0.605,-0.405
5.603,-0.600,-0.400
5.606,-0.595,-0.395
5.608,-0.595,-0.395
5.611,-0.585,-0.385
5.614,-0.585,-0.385
5.617,-0.575,-0.390
5.619,-0.575,-0.395
5.622,-0.595,-0.405
5.625,-0.585,-0.410
5.628,-0.600,-0.405
5.631,-0.605,-0.405
5.633,-0.600,-0.415
5.636,-0.585,-0.405
5.639,-0.580,-0.400
5.642,-0.570,-0.385
5.644,-0.575,-0.375
5.647,-0.565,-0.385
5.650,-0.570,-0.385
5.653,-0.570,-0.405
5.656,-0.580,-0.405
5.658,-0.575,-0.410
5.661,-0.575,-0.415
5.664,-0.580,-0.410
5.667,-0.570,-0.405
5.669,-0.565,-0.395
5.672,-0.560,-0.395
5.675,-0.560,-0.385
5.678,-0.560,-0.385
5.681,-0.540,-0.395
5.683,-0.540,-0.405
5.686,-0.530,-0.395
5.689,-0.540,-0.405
5.692,-0.520,-0.400
5.694,-0.530,-0.420
5.697,-0.520,-0.425
5.700,-0.520,-0.415
5.703,-0.515,-0.410
5.706,-0.500,-0.385
5.708,-0.500,-0.385
5.711,-0.490,-0.370
5.714,-0.475,-0.370
5.717,-0.475,-0.385
5.719,-0.470,-0.380
5.722,-0.465,-0.385
5.725,-0.470,-0.385
5.728,-0.460,-0.400
5.731,-0.465,-0.395
5.733,-0.455,-0.390
5.736,-0.445,-0.385
5.739,-0.415,-0.385
5.742,-0.405,-0.385
5.744,-0.390,-0.390
5.747,-0.385,-0.410
5.750,-0.375,-0.420
5.753,-0.385,-0.445
5.756,-0.390,-0.460
5.758,-0.405,-0.480
5.761,-0.425,-0.500
5.764,-0.425,-0.495
5.767,-0.445,-0.485
5.769,-0.450,-0.480
5.772,-0.460,-0.455
5.775,-0.470,-0.425
5.778,-0.465,-0.430
5.781,-0.475,-0.420
5.783,-0.495,-0.430
5.786,-0.515,-0.425
5.789,-0.525,-0.420
5.792,-0.540,-0.435
5.794,-0.560,-0.435
5.797,-0.575,-0.440
5.800,-0.600,-0.420
5.803,-0.595,-0.415
5.806,-0.590,-0.405
5.808,-0.585,-0.410
5.811,-0.580,-0.395
5.814,-0.575,-0.400
5.817,-0.575,-0.415
5.819,-0.585,-0.420
5.822,-0.585,-0.425
5.825,-0.600,-0.430
5.828,-0.605,-0.445
5.831,-0.610,-0.435
5.833,-0.605,-0.430
5.836,-0.610,-0.420
5.839,-0.595,-0.415
5.842,-0.585,-0.410
5.844,-0.575,-0.405
5.847,-0.545,-0.415
5.850,-0.540,-0.415
5.853,-0.530,-0.420
5.856,-0.555,-0.435
5.858,-0.530,-0.440
5.861,-0.530,-0.460
5.864,-0.505,-0.450
5.867,-0.480,-0.445
5.869,-0.425,-0.440
5.872,-0.340,-0.440
5.875,-0.250,-0.430
5.878,-0.130,-0.435
5.881,0.025,-0.435
5.883,0.205,-0.455
5.886,0.420,-0.495
5.889,0.625,-0.570
5.892,0.830,-0.665
5.894,1.015,-0.775
5.897,1.170,-0.895
5.900,1.280,-1.030
5.903,1.370,-1.145
5.906,1.440,-1.250
5.908,1.435,-1.355
5.911,1.300,-1.465
5.914,1.065,-1.560
5.917,0.715,-1.630
5.919,0.330,-1.680
5.922,-0.045,-1.675
5.925,-0.355,-1.615
5.928,-0.585,-1.535
5.931,-0.705,-1.420
5.933,-0.745,-1.295
5.936,-0.750,-1.185
5.939,-0.720,-1.080
5.942,-0.695,-1.000
5.944,-0.700,-0.930
5.947,-0.695,-0.880
5.950,-0.690,-0.820
5.953,-0.685,-0.755
5.956,-0.680,-0.695
5.958,-0.685,-0.620
5.961,-0.690,-0.555
5.964,-0.715,-0.515
5.967,-0.715,-0.465
5.969,-0.710,-0.455
5.972,-0.715,-0.440
5.975,-0.710,-0.435
5.978,-0.725,-0.425
5.981,-0.700,-0.420
5.983,-0.710,-0.420
5.986,-0.715,-0.405
5.989,-0.720,-0.415
5.992,-0.725,-0.425
5.994,-0.730,-0.420
5.997,-0.740,-0.415
6.000,-0.745,-0.420
6.003,-0.755,-0.410
6.006,-0.755,-0.395
6.008,-0.760,-0.390
6.011,-0.745,-0.380
6.014,-0.735,-0.385
6.017,-0.740,-0.390
6.019,-0.740,-0.405
6.022,-0.755,-0.400
6.025,-0.765,-0.405
6.028,-0.770,-0.400
6.031,-0.780,-0.395
6.033,-0.770,-0.390
6.036,-0.780,-0.390
6.039,-0.775,-0.360
6.042,-0.780,-0.370
6.044,-0.765,-0.365
6.047,-0.775,-0.365
6.050,-0.785,-0.375
6.053,-0.780,-0.375
6.056,-0.780,-0.375
6.058,-0.795,-0.385
6.061,-0.800,-0.390
6.064,-0.820,-0.380
6.067,-0.810,-0.375
6.069,-0.810,-0.370
6.072,-0.805,-0.360
6.075,-0.810,-0.345
6.078,-0.805,-0.340
6.081,-0.810,-0.330
6.083,-0.810,-0.350
6.086,-0.825,-0.345
6.089,-0.825,-0.360
6.092,-0.845,-0.350
6.094,-0.855,-0.370
6.097,-0.855,-0.355
6.100,-0.860,-0.345
6.103,-0.875,-0.335
6.106,-0.870,-0.335
6.108,-0.870,-0.320
6.111,-0.870,-0.305
6.114,-0.875,-0.300
6.117,-0.880,-0.295
6.119,-0.875,-0.310
6.122,-0.895,-0.300
6.125,-0.895,-0.305
6.128,-0.910,-0.300
6.131,-0.915,-0.285
6.133,-0.915,-0.295
6.136,-0.930,-0.275
6.139,-0.915,-0.265
6.142,-0.915,-0.250
6.144,-0.905,-0.240
6.147,-0.895,-0.240
6.150,-0.900,-0.225
6.153,-0.900,-0.235
6.156,-0.895,-0.230
6.158,-0.905,-0.240
6.161,-0.900,-0.235
6.164,-0.920,-0.230
6.167,-0.905,-0.225
6.169,-0.890,-0.220
6.172,-0.870,-0.210
6.175,-0.860,-0.190
6.178,-0.840,-0.190
6.181,-0.830,-0.190
6.183,-0.815,-0.200
6.186,-0.810,-0.210
6.189,-0.800,-0.220
6.192,-0.785,-0.220
6.194,-0.770,-0.235
6.197,-0.760,-0.240
6.200,-0.750,-0.250
6.203,-0.725,-0.235
6.206,-0.715,-0.245
6.208,-0.690,-0.235
6.211,-0.670,-0.240
6.214,-0.655,-0.260
6.217,-0.655,-0.255
6.219,-0.650,-0.285
6.222,-0.640,-0.300
6.225,-0.650,-0.305
6.228,-0.655,-0.320
6.231,-0.660,-0.335
6.233,-0.650,-0.330
6.236,-0.640,-0.325
6.239,-0.640,-0.320
6.242,-0.625,-0.325
6.244,-0.615,-0.325
6.247,-0.610,-0.325
6.250,-0.620,-0.335
6.253,-0.625,-0.345
6.256,-0.630,-0.370
6.258,-0.630,-0.370
6.261,-0.630,-0.395
6.264,-0.630,-0.395
6.267,-0.640,-0.380
6.269,-0.645,-0.385
6.272,-0.645,-0.380
6.275,-0.610,-0.370
6.278,-0.620,-0.370
6.281,-0.610,-0.380
6.283,-0.610,-0.370
6.286,-0.620,-0.390
6.289,-0.635,-0.410
6.292,-0.635,-0.405
6.294,-0.645,-0.420
6.297,-0.650,-0.420
6.300,-0.640,-0.410
6.303,-0.650,-0.395
6.306,-0.635,-0.400
6.308,-0.650,-0.390
6.311,-0.645,-0.370
6.314,-0.640,-0.385
6.317,-0.655,-0.390
6.319,-0.665,-0.390
6.322,-0.665,-0.400
6.325,-0.670,-0.410
6.328,-0.670,-0.410
6.331,-0.675,-0.405
6.333,-0.670,-0.405
6.336,-0.680,-0.395
6.339,-0.665,-0.385
6.342,-0.655,-0.380
6.344,-0.655,-0.370
6.347,-0.655,-0.370
6.350,-0.655,-0.385
6.353,-0.655,-0.390
6.356,-0.660,-0.385
6.358,-0.680,-0.385
6.361,-0.670,-0.395
6.364,-0.680,-0.385
6.367,-0.680,-0.390
6.369,-0.670,-0.380
6.372,-0.665,-0.380
6.375,-0.660,-0.365
6.378,-0.660,-0.365
6.381,-0.640,-0.360
6.383,-0.650,-0.380
6.386,-0.645,-0.375
6.389,-0.645,-0.395
6.392,-0.645,-0.385
6.394,-0.650,-0.405
6.397,-0.645,-0.390
6.400,-0.640,-0.395
6.403,-0.635,-0.380
6.406,-0.635,-0.385
6.408,-0.640,-0.370
6.411,-0.620,-0.365
6.414,-0.600,-0.370
6.417,-0.600,-0.380
6.419,-0.595,-0.385
6.422,-0.595,-0.380
6.425,-0.605,-0.390
6.428,-0.600,-0.400
6.431,-0.595,-0.390
6.433,-0.590,-0.385
6.436,-0.595,-0.385
6.439,-0.580,-0.375
6.442,-0.575,-0.360
6.444,-0.555,-0.360
6.447,-0.555,-0.350
6.450,-0.545,-0.350
6.453,-0.530,-0.370
6.456,-0.540,-0.360
6.458,-0.525,-0.370
6.461,-0.520,-0.360
6.464,-0.520,-0.360
6.467,-0.500,-0.365
6.469,-0.490,-0.360
6.472,-0.465,-0.360
6.475,-0.455,-0.370
6.478,-0.440,-0.370
6.481,-0.430,-0.385
6.483,-0.445,-0.400
6.486,-0.445,-0.425
6.489,-0.470,-0.455
6.492,-0.475,-0.455
6.494,-0.505,-0.465
6.497,-0.525,-0.465
6.500,-0.535,-0.440
6.503,-0.550,-0.415
6.506,-0.550,-0.400
6.508,-0.560,-0.390
6.511,-0.570,-0.375
6.514,-0.575,-0.385
6.517,-0.605,-0.385
6.519,-0.610,-0.385
6.522,-0.630,-0.380
6.525,-0.635,-0.390
6.528,-0.655,-0.390
6.531,-0.650,-0.385
6.533,-0.650,-0.395
6.536,-0.650,-0.385
6.539,-0.640,-0.375
6.542,-0.635,-0.375
6.544,-0.630,-0.355
6.547,-0.610,-0.365
6.550,-0.630,-0.380
6.553,-0.620,-0.385
6.556,-0.630,-0.385
6.558,-0.610,-0.400
6.561,-0.615,-0.400
6.564,-0.625,-0.400
6.567,-0.605,-0.400
6.569,-0.595,-0.390
6.572,-0.585,-0.375
6.575,-0.570,-0.375
6.578,-0.535,-0.375
6.581,-0.500,-0.380
6.583,-0.455,-0.385
6.586,-0.395,-0.400
6.589,-0.320,-0.405
6.592,-0.220,-0.400
6.594,-0.095,-0.415
6.597,0.040,-0.415
6.600,0.210,-0.440
6.603,0.400,-0.465
6.606,0.625,-0.515
6.608,0.815,-0.575
6.611,0.990,-0.680
6.614,1.120,-0.795
6.617,1.215,-0.940
6.619,1.285,-1.050
6.622,1.345,-1.170
6.625,1.330,-1.290
6.628,1.215,-1.410
6.631,1.035,-1.515
6.633,0.740,-1.585
6.636,0.395,-1.635
6.639,0.050,-1.635
6.642,-0.250,-1.600
6.644,-0.500,-1.535
6.647,-0.640,-1.445
6.650,-0.730,-1.340
6.653,-0.760,-1.230
6.656,-0.755,-1.125
6.658,-0.750,-1.030
6.661,-0.750,-0.950
6.664,-0.755,-0.875
6.667,-0.750,-0.795
6.669,-0.740,-0.725
6.672,-0.725,-0.640
6.675,-0.715,-0.555
6.678,-0.715,-0.485
6.681,-0.705,-0.430
6.683,-0.715,-0.395
6.686,-0.720,-0.380
6.689,-0.750,-0.365
6.692,-0.740,-0.385
6.694,-0.755,-0.370
6.697,-0.765,-0.365
6.700,-0.760,-0.360
6.703,-0.755,-0.355
6.706,-0.760,-0.345
6.708,-0.760,-0.330
6.711,-0.765,-0.325
6.714,-0.745,-0.325
6.717,-0.760,-0.325
6.719,-0.755,-0.320
6.722,-0.770,-0.340
6.725,-0.760,-0.345
6.728,-0.765,-0.340
6.731,-0.770,-0.345
6.733,-0.770,-0.335
6.736,-0.770,-0.325
6.739,-0.775,-0.320
6.742,-0.770,-0.315
6.744,-0.765,-0.310
6.747,-0.765,-0.315
6.750,-0.775,-0.320
6.753,-0.770,-0.315
6.756,-0.790,-0.315
6.758,-0.800,-0.330
6.761,-0.800,-0.330
6.764,-0.805,-0.330
6.767,-0.805,-0.315
6.769,-0.800,-0.310
6.772,-0.800,-0.295
6.775,-0.810,-0.305
6.778,-0.800,-0.300
6.781,-0.800,-0.290
6.783,-0.815,-0.295
6.786,-0.815,-0.305
6.789,-0.820,-0.305
6.792,-0.845,-0.300
6.794,-0.850,-0.325
6.797,-0.845,-0.305
6.800,-0.835,-0.315
6.803,-0.840,-0.290
6.806,-0.840,-0.280
6.808,-0.830,-0.280
6.811,-0.830,-0.270
6.814,-0.830,-0.260
6.817,-0.840,-0.280
6.819,-0.855,-0.270
6.822,-0.860,-0.280
6.825,-0.865,-0.280
6.828,-0.895,-0.270
6.831,-0.905,-0.285
6.833,-0.900,-0.270
6.836,-0.900,-0.260
6.839,-0.900,-0.240
6.842,-0.890,-0.230
6.844,-0.895,-0.220
6.847,-0.890,-0.215
6.850,-0.890,-0.215
6.853,-0.910,-0.225
6.856,-0.920,-0.215
6.858,-0.920,-0.220
6.861,-0.915,-0.225
6.864,-0.920,-0.215
6.867,-0.920,-0.195
6.869,-0.915,-0.185
6.872,-0.900,-0.170
6.875,-0.890,-0.165
6.878,-0.895,-0.155
6.881,-0.870,-0.135
6.883,-0.865,-0.160
6.886,-0.860,-0.145
6.889,-0.870,-0.160
6.892,-0.850,-0.160
6.894,-0.855,-0.170
6.897,-0.835,-0.155
6.900,-0.820,-0.160
6.903,-0.795,-0.155
6.906,-0.770,-0.150
6.908,-0.745,-0.150
6.911,-0.740,-0.150
6.914,-0.700,-0.150
6.917,-0.690,-0.175
6.919,-0.680,-0.180
6.922,-0.680,-0.190
6.925,-0.670,-0.210
6.928,-0.670,-0.215
6.931,-0.660,-0.230
6.933,-0.650,-0.230
6.936,-0.650,-0.230
6.939,-0.630,-0.240
6.942,-0.620,-0.250
6.944,-0.615,-0.235
6.947,-0.600,-0.245
6.950,-0.595,-0.265
6.953,-0.600,-0.265
6.956,-0.600,-0.280
6.958,-0.605,-0.290
6.961,-0.610,-0.295
6.964,-0.615,-0.310
6.967,-0.610,-0.305
6.969,-0.610,-0.300
6.972,-0.615,-0.300
6.975,-0.605,-0.290
6.978,-0.600,-0.290
6.981,-0.600,-0.295
6.983,-0.585,-0.305
6.986,-0.590,-0.320
6.989,-0.590,-0.310
6.992,-0.595,-0.340
6.994,-0.615,-0.340
6.997,-0.620,-0.340
7.000,-0.615,-0.325
7.003,-0.620,-0.320
7.006,-0.605,-0.315
7.008,-0.605,-0.305
7.011,-0.595,-0.315
7.014,-0.595,-0.300
7.017,-0.585,-0.320
7.019,-0.595,-0.305
7.022,-0.605,-0.325
7.025,-0.610,-0.335
7.028,-0.615,-0.330
7.031,-0.630,-0.335
7.033,-0.625,-0.330
7.036,-0.625,-0.315
7.039,-0.625,-0.310
7.042,-0.620,-0.305
7.044,-0.610,-0.300
7.047,-0.615,-0.305
7.050,-0.605,-0.310
7.053,-0.610,-0.310
7.056,-0.620,-0.305
7.058,-0.630,-0.315
7.061,-0.630,-0.315
7.064,-0.625,-0.320
7.067,-0.635,-0.315
7.069,-0.640,-0.300
7.072,-0.630,-0.290
7.075,-0.630,-0.285
7.078,-0.630,-0.280
7.081,-0.630,-0.280
7.083,-0.620,-0.280
7.086,-0.625,-0.290
7.089,-0.630,-0.300
7.092,-0.630,-0.300
7.094,-0.630,-0.310
7.097,-0.635,-0.300
7.100,-0.635,-0.290
7.103,-0.625,-0.290
7.106,-0.620,-0.280
7.108,-0.615,-0.280
7.111,-0.605,-0.270
7.114,-0.595,-0.270
7.117,-0.585,-0.285
7.119,-0.590,-0.280
7.122,-0.585,-0.280
7.125,-0.590,-0.290
7.128,-0.600,-0.300
7.131,-0.595,-0.295
7.133,-0.585,-0.285
7.136,-0.580,-0.275
7.139,-0.565,-0.270
7.142,-0.555,-0.270
7.144,-0.545,-0.255
7.147,-0.535,-0.255
7.150,-0.525,-0.255
7.153,-0.530,-0.260
7.156,-0.535,-0.275
7.158,-0.540,-0.285
7.161,-0.530,-0.270
7.164,-0.530,-0.270
7.167,-0.515,-0.265
7.169,-0.520,-0.260
7.172,-0.505,-0.245
7.175,-0.480,-0.240
7.178,-0.480,-0.230
7.181,-0.465,-0.230
7.183,-0.435,-0.245
7.186,-0.415,-0.245
7.189,-0.410,-0.260
7.192,-0.405,-0.270
7.194,-0.405,-0.290
7.197,-0.420,-0.300
7.200,-0.415,-0.305
7.203,-0.430,-0.310
7.206,-0.425,-0.320
7.208,-0.425,-0.330
7.211,-0.435,-0.330
7.214,-0.425,-0.320
7.217,-0.440,-0.310
7.219,-0.450,-0.310
7.222,-0.475,-0.320
7.225,-0.485,-0.305
7.228,-0.505,-0.300
7.231,-0.525,-0.305
7.233,-0.540,-0.295
7.236,-0.545,-0.285
7.239,-0.535,-0.265
7.242,-0.550,-0.260
7.244,-0.555,-0.260
7.247,-0.560,-0.245
7.250,-0.575,-0.260
7.253,-0.585,-0.265
7.256,-0.595,-0.265
7.258,-0.605,-0.270
7.261,-0.615,-0.275
7.264,-0.615,-0.280
7.267,-0.605,-0.265
7.269,-0.610,-0.270
7.272,-0.605,-0.245
7.275,-0.595,-0.255
7.278,-0.595,-0.240
7.281,-0.590,-0.250
7.283,-0.580,-0.255
7.286,-0.575,-0.270
7.289,-0.585,-0.270
7.292,-0.575,-0.285
7.294,-0.575,-0.280
7.297,-0.585,-0.295
7.300,-0.580,-0.280
7.303,-0.555,-0.285
7.306,-0.560,-0.285
7.308,-0.535,-0.270
7.311,-0.485,-0.270
7.314,-0.430,-0.265
7.317,-0.365,-0.270
7.319,-0.275,-0.260
7.322,-0.160,-0.285
7.325,-0.025,-0.290
7.328,0.120,-0.305
7.331,0.285,-0.315
7.333,0.480,-0.340
7.336,0.665,-0.380
7.339,0.845,-0.460
7.342,0.995,-0.545
7.344,1.110,-0.655
7.347,1.200,-0.780
7.350,1.270,-0.885
7.353,1.335,-0.995
7.356,1.360,-1.095
7.358,1.290,-1.200
7.361,1.105,-1.320
7.364,0.815,-1.410
7.367,0.445,-1.465
7.369,0.075,-1.485
7.372,-0.275,-1.460
7.375,-0.530,-1.395
7.378,-0.690,-1.280
7.381,-0.750,-1.165
7.383,-0.770,-1.050
7.386,-0.760,-0.945
7.389,-0.745,-0.870
7.392,-0.720,-0.810
7.394,-0.720,-0.750
7.397,-0.720,-0.690
7.400,-0.710,-0.635
7.403,-0.705,-0.565
7.406,-0.685,-0.495
7.408,-0.690,-0.430
7.411,-0.685,-0.370
7.414,-0.670,-0.315
7.417,-0.675,-0.290
7.419,-0.680,-0.270
7.422,-0.705,-0.270
7.425,-0.705,-0.265
7.428,-0.715,-0.285
7.431,-0.715,-0.280
7.433,-0.720,-0.250
7.436,-0.720,-0.255
7.439,-0.715,-0.240
7.442,-0.715,-0.225
7.444,-0.715,-0.215
7.447,-0.695,-0.210
7.450,-0.715,-0.230
7.453,-0.720,-0.225
7.456,-0.730,-0.220
7.458,-0.720,-0.230
7.461,-0.740,-0.230
7.464,-0.750,-0.230
7.467,-0.745,-0.220
7.469,-0.750,-0.215
7.472,-0.740,-0.195
7.475,-0.735,-0.200
7.478,-0.735,-0.190
7.481,-0.735,-0.190
7.483,-0.730,-0.200
7.486,-0.745,-0.185
7.489,-0.755,-0.200
7.492,-0.765,-0.210
7.494,-0.765,-0.210
7.497,-0.770,-0.195
7.500,-0.775,-0.195
7.503,-0.780,-0.190
7.506,-0.780,-0.185
7.508,-0.765,-0.175
7.511,-0.755,-0.155
7.514,-0.755,-0.165
7.517,-0.765,-0.180
7.519,-0.765,-0.170
7.522,-0.775,-0.180
7.525,-0.790,-0.175
7.528,-0.805,-0.195
7.531,-0.815,-0.185
7.533,-0.810,-0.170
7.536,-0.820,-0.175
7.539,-0.820,-0.150
7.542,-0.815,-0.150
7.544,-0.805,-0.140
7.547,-0.815,-0.125
7.550,-0.815,-0.145
7.553,-0.830,-0.140
7.556,-0.840,-0.150
7.558,-0.845,-0.150
7.561,-0.845,-0.145
7.564,-0.860,-0.145
7.567,-0.865,-0.135
7.569,-0.865,-0.120
7.572,-0.870,-0.100
7.575,-0.855,-0.100
7.578,-0.850,-0.095
7.581,-0.865,-0.075
7.583,-0.870,-0.090
7.586,-0.875,-0.090
7.589,-0.880,-0.085
7.592,-0.885,-0.080
7.594,-0.885,-0.075
7.597,-0.890,-0.075
7.600,-0.890,-0.075
7.603,-0.890,-0.050
7.606,-0.870,-0.050
7.608,-0.860,-0.030
7.611,-0.855,-0.030
7.614,-0.840,-0.020
7.617,-0.835,-0.025
7.619,-0.835,-0.035
7.622,-0.825,-0.035
7.625,-0.835,-0.035
7.628,-0.835,-0.050
7.631,-0.820,-0.045
7.633,-0.825,-0.035
7.636,-0.815,-0.035
7.639,-0.790,-0.040
7.642,-0.770,-0.010
7.644,-0.745,-0.005
7.647,-0.725,-0.010
7.650,-0.720,-0.030
7.653,-0.695,-0.035
7.656,-0.700,-0.055
7.658,-0.690,-0.050
7.661,-0.685,-0.060
7.664,-0.680,-0.070
7.667,-0.675,-0.070
7.669,-0.665,-0.065
7.672,-0.635,-0.065
7.675,-0.630,-0.070
7.678,-0.615,-0.070
7.681,-0.605,-0.080
7.683,-0.595,-0.090
7.686,-0.595,-0.095
7.689,-0.600,-0.115
7.692,-0.600,-0.135
7.694,-0.600,-0.140
7.697,-0.600,-0.150
7.700,-0.605,-0.140
7.703,-0.605,-0.150
7.706,-0.600,-0.140
7.708,-0.595,-0.135
7.711,-0.580,-0.150
7.714,-0.565,-0.145
7.717,-0.565,-0.150
7.719,-0.585,-0.165
7.722,-0.590,-0.185
7.725,-0.590,-0.190
7.728,-0.590,-0.190
7.731,-0.605,-0.195
7.733,-0.610,-0.175
7.736,-0.615,-0.190
7.739,-0.620,-0.185
7.742,-0.610,-0.170
7.744,-0.600,-0.180
7.747,-0.580,-0.170
7.750,-0.590,-0.190
7.753,-0.590,-0.195
7.756,-0.605,-0.205
7.758,-0.605,-0.200
7.761,-0.610,-0.200
7.764,-0.620,-0.210
7.767,-0.625,-0.200
7.769,-0.630,-0.205
7.772,-0.615,-0.185
7.775,-0.625,-0.185
7.778,-0.610,-0.180
7.781,-0.615,-0.175
7.783,-0.615,-0.180
7.786,-0.625,-0.180
7.789,-0.635,-0.200
7.792,-0.625,-0.200
7.794,-0.660,-0.195
7.797,-0.650,-0.200
7.800,-0.655,-0.190
7.803,-0.665,-0.195
7.806,-0.655,-0.185
7.808,-0.650,-0.180
7.811,-0.645,-0.180
7.814,-0.625,-0.165
7.817,-0.615,-0.180
7.819,-0.625,-0.180
7.822,-0.630,-0.190
7.825,-0.625,-0.195
7.828,-0.640,-0.210
7.831,-0.650,-0.205
7.833,-0.650,-0.190
7.836,-0.650,-0.205
7.839,-0.645,-0.190
7.842,-0.640,-0.185
7.844,-0.645,-0.185
7.847,-0.610,-0.185
7.850,-0.615,-0.195
7.853,-0.610,-0.185
7.856,-0.615,-0.200
7.858,-0.635,-0.190
7.861,-0.615,-0.210
7.864,-0.635,-0.215
7.867,-0.625,-0.200
7.869,-0.615,-0.215
7.872,-0.610,-0.195
7.875,-0.605,-0.185
7.878,-0.585,-0.180
7.881,-0.585,-0.175
7.883,-0.570,-0.185
7.886,-0.565,-0.185
7.889,-0.565,-0.185
7.892,-0.570,-0.210
7.894,-0.575,-0.215
7.897,-0.555,-0.210
7.900,-0.570,-0.200
7.903,-0.560,-0.205
7.906,-0.555,-0.190
7.908,-0.540,-0.180
7.911,-0.525,-0.175
7.914,-0.505,-0.160
7.917,-0.475,-0.175
7.919,-0.470,-0.185
7.922,-0.450,-0.205
7.925,-0.445,-0.220
7.928,-0.445,-0.225
7.931,-0.450,-0.255
7.933,-0.450,-0.265
7.936,-0.455,-0.280
7.939,-0.460,-0.285
7.942,-0.470,-0.280
7.944,-0.475,-0.255
7.947,-0.470,-0.255
7.950,-0.495,-0.235
7.953,-0.515,-0.250
7.956,-0.535,-0.240
7.958,-0.550,-0.240
7.961,-0.570,-0.230
7.964,-0.590,-0.230
7.967,-0.595,-0.215
7.969,-0.610,-0.230
7.972,-0.615,-0.210
7.975,-0.625,-0.205
7.978,-0.635,-0.195
7.981,-0.630,-0.195
7.983,-0.625,-0.210
7.986,-0.625,-0.205
7.989,-0.625,-0.210
7.992,-0.625,-0.220
7.994,-0.625,-0.230
7.997,-0.640,-0.230
8.000,-0.640,-0.230
8.003,-0.660,-0.225
8.006,-0.645,-0.225
8.008,-0.640,-0.205
8.011,-0.615,-0.195
8.014,-0.600,-0.210
8.017,-0.595,-0.225
8.019,-0.585,-0.220
8.022,-0.585,-0.225
8.025,-0.585,-0.235
8.028,-0.585,-0.235
8.031,-0.575,-0.245
8.033,-0.555,-0.235
8.036,-0.520,-0.220
8.039,-0.495,-0.220
8.042,-0.435,-0.225
8.044,-0.370,-0.220
8.047,-0.285,-0.210
8.050,-0.190,-0.220
8.053,-0.075,-0.220
8.056,0.035,-0.225
8.058,0.210,-0.250
8.061,0.390,-0.270
8.064,0.580,-0.300
8.067,0.780,-0.375
8.069,0.945,-0.465
8.072,1.090,-0.560
8.075,1.185,-0.680
8.078,1.295,-0.780
8.081,1.360,-0.890
8.083,1.375,-1.015
8.086,1.270,-1.125
8.089,1.005,-1.250
8.092,0.620,-1.330
8.094,0.145,-1.385
8.097,-0.290,-1.375
8.100,-0.615,-1.305
8.103,-0.825,-1.200
8.106,-0.905,-1.060
8.108,-0.905,-0.930
8.111,-0.860,-0.830
8.114,-0.810,-0.725
8.117,-0.765,-0.660
8.119,-0.740,-0.600
8.122,-0.730,-0.535
8.125,-0.715,-0.465
8.128,-0.735,-0.395
8.131,-0.740,-0.340
8.133,-0.750,-0.280
8.136,-0.755,-0.250
8.139,-0.745,-0.215
8.142,-0.740,-0.210
8.144,-0.750,-0.200
8.147,-0.760,-0.200
8.150,-0.755,-0.215
8.153,-0.755,-0.185
8.156,-0.760,-0.200
8.158,-0.750,-0.205
8.161,-0.770,-0.200
8.164,-0.780,-0.205
8.167,-0.780,-0.190
8.169,-0.775,-0.185
8.172,-0.775,-0.185
8.175,-0.775,-0.170
8.178,-0.780,-0.155
8.181,-0.765,-0.150
8.183,-0.780,-0.160
8.186,-0.770,-0.175
8.189,-0.780,-0.175
8.192,-0.795,-0.180
8.194,-0.795,-0.175
8.197,-0.800,-0.180
8.200,-0.810,-0.170
8.203,-0.815,-0.165
8.206,-0.805,-0.150
8.208,-0.800,-0.150
8.211,-0.790,-0.140
8.214,-0.790,-0.140
8.217,-0.795,-0.150
8.219,-0.795,-0.150
8.222,-0.815,-0.170
8.225,-0.835,-0.160
8.228,-0.845,-0.165
8.231,-0.845,-0.160
8.233,-0.840,-0.165
8.236,-0.845,-0.155
8.239,-0.820,-0.135
8.242,-0.830,-0.145
8.244,-0.815,-0.135
8.247,-0.810,-0.125
8.250,-0.825,-0.135
8.253,-0.825,-0.135
8.256,-0.825,-0.130
8.258,-0.845,-0.145
8.261,-0.855,-0.140
8.264,-0.860,-0.140
8.267,-0.875,-0.140
8.269,-0.875,-0.120
8.272,-0.865,-0.125
8.275,-0.865,-0.120
8.278,-0.870,-0.100
8.281,-0.870,-0.090
8.283,-0.870,-0.100
8.286,-0.890,-0.100
8.289,-0.890,-0.100
8.292,-0.890,-0.100
8.294,-0.915,-0.115
8.297,-0.915,-0.100
8.300,-0.915,-0.090
8.303,-0.915,-0.085
8.306,-0.925,-0.070
8.308,-0.905,-0.050
8.311,-0.910,-0.045
8.314,-0.905,-0.040
8.317,-0.905,-0.040
8.319,-0.910,-0.040
8.322,-0.930,-0.040
8.325,-0.910,-0.035
8.328,-0.910,-0.040
8.331,-0.915,-0.045
8.333,-0.910,-0.030
8.336,-0.900,-0.010
8.339,-0.880,-0.005
8.342,-0.865,-0.010
8.344,-0.850,0.000
8.347,-0.830,0.015
8.350,-0.825,0.000
8.353,-0.805,-0.005
8.356,-0.800,-0.010
8.358,-0.800,-0.015
8.361,-0.790,-0.030
8.364,-0.785,-0.030
8.367,-0.770,-0.025
8.369,-0.760,-0.035
8.372,-0.735,-0.030
8.375,-0.720,-0.020
8.378,-0.715,-0.020
8.381,-0.700,-0.025
8.383,-0.690,-0.040
8.386,-0.685,-0.055
8.389,-0.660,-0.065
8.392,-0.665,-0.080
8.394,-0.670,-0.080
8.397,-0.665,-0.100
8.400,-0.660,-0.085
8.403,-0.665,-0.090
8.406,-0.655,-0.085
8.408,-0.645,-0.090
8.411,-0.630,-0.100
8.414,-0.630,-0.085
8.417,-0.620,-0.100
8.419,-0.630,-0.110
8.422,-0.615,-0.130
8.425,-0.625,-0.135
8.428,-0.640,-0.140
8.431,-0.640,-0.145
8.433,-0.650,-0.135
8.436,-0.650,-0.140
8.439,-0.665,-0.140
8.442,-0.650,-0.125
8.444,-0.635,-0.135
8.447,-0.645,-0.130
8.450,-0.635,-0.140
8.453,-0.640,-0.145
8.456,-0.640,-0.150
8.458,-0.645,-0.160
8.461,-0.655,-0.170
8.464,-0.665,-0.180
8.467,-0.670,-0.175
8.469,-0.655,-0.165
8.472,-0.655,-0.165
8.475,-0.660,-0.160
8.478,-0.645,-0.145
8.481,-0.645,-0.145
8.483,-0.655,-0.160
8.486,-0.660,-0.165
8.489,-0.665,-0.165
8.492,-0.675,-0.170
8.494,-0.685,-0.185
8.497,-0.690,-0.190
8.500,-0.685,-0.185
8.503,-0.695,-0.170
8.506,-0.680,-0.170
8.508,-0.680,-0.165
8.511,-0.685,-0.165
8.514,-0.675,-0.165
8.517,-0.675,-0.165
8.519,-0.670,-0.165
8.522,-0.680,-0.185
8.525,-0.685,-0.185
8.528,-0.700,-0.190
8.531,-0.695,-0.185
8.533,-0.705,-0.185
8.536,-0.715,-0.175
8.539,-0.705,-0.180
8.542,-0.710,-0.180
8.544,-0.690,-0.175
8.547,-0.690,-0.165
8.550,-0.685,-0.175
8.553,-0.690,-0.170
8.556,-0.685,-0.185
8.558,-0.695,-0.190
8.561,-0.700,-0.190
8.564,-0.700,-0.190
8.567,-0.690,-0.195
8.569,-0.685,-0.185
8.572,-0.680,-0.175
8.575,-0.670,-0.185
8.578,-0.685,-0.165
8.581,-0.660,-0.165
8.583,-0.655,-0.180
8.586,-0.670,-0.185
8.589,-0.670,-0.185
8.592,-0.670,-0.195
8.594,-0.665,-0.210
8.597,-0.670,-0.205
8.600,-0.670,-0.195
8.603,-0.660,-0.195
8.606,-0.645,-0.185
8.608,-0.635,-0.190
8.611,-0.620,-0.175
8.614,-0.620,-0.175
8.617,-0.610,-0.180
8.619,-0.615,-0.190
8.622,-0.600,-0.200
8.625,-0.600,-0.210
8.628,-0.600,-0.205
8.631,-0.610,-0.210
8.633,-0.600,-0.195
8.636,-0.580,-0.190
8.639,-0.570,-0.185
8.642,-0.565,-0.175
8.644,-0.545,-0.180
8.647,-0.525,-0.175
8.650,-0.515,-0.180
8.653,-0.510,-0.190
8.656,-0.500,-0.205
8.658,-0.495,-0.205
8.661,-0.485,-0.230
8.664,-0.495,-0.240
8.667,-0.490,-0.250
8.669,-0.495,-0.250
8.672,-0.495,-0.260
8.675,-0.495,-0.265
8.678,-0.490,-0.270
8.681,-0.485,-0.275
8.683,-0.495,-0.285
8.686,-0.500,-0.290
8.689,-0.520,-0.280
8.692,-0.535,-0.290
8.694,-0.565,-0.290
8.697,-0.580,-0.275
8.700,-0.600,-0.260
8.703,-0.610,-0.255
8.706,-0.620,-0.240
8.708,-0.615,-0.230
8.711,-0.625,-0.230
8.714,-0.635,-0.210
8.717,-0.655,-0.235
8.719,-0.660,-0.230
8.722,-0.665,-0.230
8.725,-0.670,-0.235
8.728,-0.685,-0.255
8.731,-0.675,-0.250
8.733,-0.680,-0.245
8.736,-0.680,-0.240
8.739,-0.670,-0.240
8.742,-0.655,-0.240
8.744,-0.655,-0.230
8.747,-0.640,-0.225
8.750,-0.640,-0.235
8.753,-0.645,-0.245
8.756,-0.645,-0.245
8.758,-0.635,-0.250
8.761,-0.630,-0.270
8.764,-0.635,-0.265
8.767,-0.625,-0.265
8.769,-0.615,-0.260
8.772,-0.585,-0.260
8.775,-0.560,-0.250
8.778,-0.530,-0.260
8.781,-0.490,-0.255
8.783,-0.440,-0.260
8.786,-0.355,-0.265
8.789,-0.275,-0.255
8.792,-0.155,-0.265
8.794,-0.030,-0.270
8.797,0.105,-0.285
8.800,0.300,-0.305
8.803,0.515,-0.340
8.806,0.730,-0.395
8.808,0.915,-0.480
8.811,1.070,-0.590
8.814,1.175,-0.695
8.817,1.290,-0.805
8.819,1.375,-0.925
8.822,1.445,-1.030
8.825,1.420,-1.135
8.828,1.270,-1.235
8.831,0.965,-1.325
8.833,0.580,-1.390
8.836,0.135,-1.420
8.839,-0.265,-1.415
8.842,-0.565,-1.350
8.844,-0.750,-1.255
8.847,-0.830,-1.150
8.850,-0.835,-1.040
8.853,-0.810,-0.955
8.856,-0.775,-0.875
8.858,-0.745,-0.800
8.861,-0.735,-0.755
8.864,-0.735,-0.685
8.867,-0.735,-0.625
8.869,-0.720,-0.565
8.872,-0.710,-0.490
8.875,-0.710,-0.420
8.878,-0.705,-0.365
8.881,-0.695,-0.325
8.883,-0.710,-0.300
8.886,-0.720,-0.295
8.889,-0.720,-0.290
8.892,-0.745,-0.310
8.894,-0.745,-0.305
8.897,-0.765,-0.300
8.900,-0.745,-0.300
8.903,-0.750,-0.275
8.906,-0.760,-0.270
8.908,-0.750,-0.260
8.911,-0.735,-0.260
8.914,-0.730,-0.245
8.917,-0.735,-0.250
8.919,-0.730,-0.265
8.922,-0.740,-0.260
8.925,-0.755,-0.265
8.928,-0.750,-0.280
8.931,-0.755,-0.275
8.933,-0.765,-0.270
8.936,-0.765,-0.260
8.939,-0.760,-0.250
8.942,-0.765,-0.240
8.944,-0.760,-0.235
8.947,-0.750,-0.245
8.950,-0.760,-0.235
8.953,-0.765,-0.250
8.956,-0.775,-0.245
8.958,-0.795,-0.255
8.961,-0.790,-0.260
8.964,-0.800,-0.260
8.967,-0.805,-0.245
8.969,-0.795,-0.255
8.972,-0.800,-0.240
8.975,-0.800,-0.230
8.978,-0.800,-0.210
8.981,-0.795,-0.220
8.983,-0.795,-0.220
8.986,-0.800,-0.235
8.989,-0.805,-0.225
8.992,-0.820,-0.235
8.994,-0.825,-0.250
8.997,-0.855,-0.250
9.000,-0.860,-0.240
9.003,-0.845,-0.230
9.006,-0.840,-0.225
9.008,-0.840,-0.225
9.011,-0.840,-0.200
9.014,-0.835,-0.190
9.017,-0.835,-0.200
9.019,-0.835,-0.205
9.022,-0.855,-0.205
9.025,-0.860,-0.200
9.028,-0.860,-0.200
9.031,-0.875,-0.205
9.033,-0.870,-0.195
9.036,-0.890,-0.180
9.039,-0.875,-0.155
9.042,-0.875,-0.155
9.044,-0.865,-0.150
9.047,-0.865,-0.145
9.050,-0.865,-0.160
9.053,-0.870,-0.140
9.056,-0.880,-0.145
9.058,-0.875,-0.160
9.061,-0.885,-0.150
9.064,-0.890,-0.150
9.067,-0.885,-0.150
9.069,-0.875,-0.145
9.072,-0.865,-0.135
9.075,-0.865,-0.130
9.078,-0.845,-0.125
9.081,-0.825,-0.115
9.083,-0.815,-0.120
9.086,-0.805,-0.130
9.089,-0.805,-0.130
9.092,-0.790,-0.130
9.094,-0.790,-0.145
9.097,-0.775,-0.155
9.100,-0.770,-0.135
9.103,-0.755,-0.140
9.106,-0.725,-0.140
9.108,-0.705,-0.135
9.111,-0.685,-0.120
9.114,-0.665,-0.135
9.117,-0.645,-0.160
9.119,-0.635,-0.160
9.122,-0.630,-0.175
9.125,-0.625,-0.185
9.128,-0.620,-0.200
9.131,-0.605,-0.215
9.133,-0.600,-0.215
9.136,-0.590,-0.220
9.139,-0.575,-0.225
9.142,-0.580,-0.220
9.144,-0.560,-0.225
9.147,-0.555,-0.225
9.150,-0.550,-0.235
9.153,-0.555,-0.250
9.156,-0.560,-0.275
9.158,-0.565,-0.275
9.161,-0.570,-0.290
9.164,-0.575,-0.290
9.167,-0.565,-0.285
9.169,-0.570,-0.290
9.172,-0.565,-0.280
9.175,-0.560,-0.280
9.178,-0.550,-0.275
9.181,-0.550,-0.285
9.183,-0.550,-0.300
9.186,-0.555,-0.295
9.189,-0.565,-0.305
9.192,-0.570,-0.310
9.194,-0.580,-0.325
9.197,-0.580,-0.330
9.200,-0.595,-0.330
9.203,-0.600,-0.330
9.206,-0.590,-0.315
9.208,-0.590,-0.315
9.211,-0.565,-0.315
9.214,-0.565,-0.295
9.217,-0.560,-0.315
9.219,-0.570,-0.315
9.222,-0.575,-0.325
9.225,-0.580,-0.320
9.228,-0.600,-0.335
9.231,-0.595,-0.345
9.233,-0.605,-0.330
9.236,-0.610,-0.330
9.239,-0.595,-0.320
9.242,-0.605,-0.320
9.244,-0.590,-0.310
9.247,-0.580,-0.305
9.250,-0.595,-0.310
9.253,-0.615,-0.320
9.256,-0.600,-0.325
9.258,-0.610,-0.335
9.261,-0.625,-0.340
9.264,-0.615,-0.340
9.267,-0.625,-0.330
9.269,-0.635,-0.315
9.272,-0.620,-0.315
9.275,-0.615,-0.315
9.278,-0.595,-0.300
9.281,-0.600,-0.295
9.283,-0.595,-0.310
9.286,-0.595,-0.320
9.289,-0.595,-0.320
9.292,-0.600,-0.330
9.294,-0.610,-0.335
9.297,-0.620,-0.345
9.300,-0.620,-0.335
9.303,-0.615,-0.335
9.306,-0.605,-0.320
9.308,-0.605,-0.310
9.311,-0.595,-0.305
9.314,-0.585,-0.310
9.317,-0.585,-0.315
9.319,-0.575,-0.310
9.322,-0.575,-0.330
9.325,-0.590,-0.340
9.328,-0.590,-0.340
9.331,-0.595,-0.335
9.333,-0.605,-0.345
9.336,-0.600,-0.335
9.339,-0.575,-0.330
9.342,-0.565,-0.325
9.344,-0.555,-0.325
9.347,-0.540,-0.315
9.350,-0.535,-0.320
9.353,-0.545,-0.325
9.356,-0.545,-0.335
9.358,-0.525,-0.335
9.361,-0.525,-0.325
9.364,-0.525,-0.340
9.367,-0.520,-0.335
9.369,-0.510,-0.320
9.372,-0.515,-0.315
9.375,-0.500,-0.305
9.378,-0.490,-0.305
9.381,-0.475,-0.305
9.383,-0.465,-0.310
9.386,-0.460,-0.300
9.389,-0.450,-0.315
9.392,-0.450,-0.320
9.394,-0.435,-0.330
9.397,-0.430,-0.335
9.400,-0.425,-0.345
9.403,-0.420,-0.345
9.406,-0.410,-0.340
9.408,-0.405,-0.355
9.411,-0.395,-0.355
9.414,-0.390,-0.365
9.417,-0.395,-0.385
9.419,-0.405,-0.400
9.422,-0.420,-0.400
9.425,-0.430,-0.415
9.428,-0.435,-0.410
9.431,-0.455,-0.410
9.433,-0.480,-0.395
9.436,-0.490,-0.385
9.439,-0.500,-0.360
9.442,-0.495,-0.350
9.444,-0.515,-0.345
9.447,-0.530,-0.335
9.450,-0.530,-0.340
9.453,-0.530,-0.340
9.456,-0.545,-0.355
9.458,-0.570,-0.360
9.461,-0.585,-0.355
9.464,-0.605,-0.350
9.467,-0.620,-0.355
9.469,-0.615,-0.335
9.472,-0.625,-0.340
9.475,-0.605,-0.335
9.478,-0.595,-0.330
9.481,-0.590,-0.335
9.483,-0.585,-0.320
9.486,-0.590,-0.340
9.489,-0.600,-0.350
9.492,-0.600,-0.350
9.494,-0.615,-0.350
9.497,-0.610,-0.355
9.500,-0.605,-0.345
9.503,-0.605,-0.360
9.506,-0.590,-0.350
9.508,-0.595,-0.350
9.511,-0.570,-0.340
9.514,-0.555,-0.335
9.517,-0.550,-0.345
9.519,-0.550,-0.345
9.522,-0.560,-0.360
9.525,-0.550,-0.360
9.528,-0.530,-0.365
9.531,-0.495,-0.380
9.533,-0.445,-0.375
9.536,-0.360,-0.370
9.539,-0.275,-0.365
9.542,-0.145,-0.365
9.544,0.005,-0.360
9.547,0.185,-0.370
9.550,0.400,-0.420
9.553,0.630,-0.470
9.556,0.840,-0.540
9.558,1.025,-0.655
9.561,1.165,-0.790
9.564,1.275,-0.895
9.567,1.370,-1.010
9.569,1.470,-1.115
9.572,1.510,-1.215
9.575,1.445,-1.310
9.578,1.215,-1.405
9.581,0.875,-1.480
9.583,0.465,-1.540
9.586,0.040,-1.535
9.589,-0.305,-1.525
9.592,-0.565,-1.455
9.594,-0.715,-1.365
9.597,-0.775,-1.260
9.600,-0.785,-1.135
9.603,-0.750,-1.030
9.606,-0.725,-0.940
9.608,-0.720,-0.880
9.611,-0.710,-0.790
9.614,-0.675,-0.720
9.617,-0.670,-0.655
9.619,-0.670,-0.595
9.622,-0.670,-0.540
9.625,-0.680,-0.475
9.628,-0.705,-0.440
9.631,-0.705,-0.405
9.633,-0.720,-0.380
9.636,-0.720,-0.365
9.639,-0.725,-0.355
9.642,-0.700,-0.345
9.644,-0.705,-0.345
9.647,-0.690,-0.320
9.650,-0.695,-0.325
9.653,-0.715,-0.325
9.656,-0.725,-0.325
9.658,-0.705,-0.325
9.661,-0.720,-0.340
9.664,-0.735,-0.340
9.667,-0.735,-0.320
9.669,-0.750,-0.320
9.672,-0.730,-0.310
9.675,-0.730,-0.295
9.678,-0.720,-0.305
9.681,-0.715,-0.295
9.683,-0.725,-0.285
9.686,-0.730,-0.300
9.689,-0.735,-0.300
9.692,-0.740,-0.305
9.694,-0.750,-0.315
9.697,-0.755,-0.315
9.700,-0.770,-0.310
9.703,-0.780,-0.310
9.706,-0.780,-0.300
9.708,-0.765,-0.290
9.711,-0.760,-0.285
9.714,-0.755,-0.270
9.717,-0.750,-0.275
9.719,-0.760,-0.270
9.722,-0.760,-0.275
9.725,-0.785,-0.290
9.728,-0.785,-0.290
9.731,-0.790,-0.290
9.733,-0.800,-0.300
9.736,-0.815,-0.280
9.739,-0.820,-0.275
9.742,-0.820,-0.265
9.744,-0.805,-0.255
9.747,-0.805,-0.255
9.750,-0.815,-0.260
9.753,-0.825,-0.255
9.756,-0.825,-0.260
9.758,-0.845,-0.260
9.761,-0.850,-0.270
9.764,-0.850,-0.260
9.767,-0.865,-0.250
9.769,-0.865,-0.240
9.772,-0.880,-0.240
9.775,-0.865,-0.220
9.778,-0.870,-0.210
9.781,-0.865,-0.200
9.783,-0.855,-0.200
9.786,-0.870,-0.190
9.789,-0.880,-0.195
9.792,-0.875,-0.205
9.794,-0.890,-0.200
9.797,-0.890,-0.195
9.800,-0.900,-0.180
9.803,-0.890,-0.180
9.806,-0.880,-0.160
9.808,-0.875,-0.150
9.811,-0.870,-0.140
9.814,-0.860,-0.135
9.817,-0.850,-0.135
9.819,-0.855,-0.140
9.822,-0.835,-0.140
9.825,-0.840,-0.150
9.828,-0.835,-0.145
9.831,-0.825,-0.155
9.833,-0.820,-0.145
9.836,-0.805,-0.140
9.839,-0.790,-0.140
9.842,-0.760,-0.140
9.844,-0.750,-0.125
9.847,-0.725,-0.135
9.850,-0.695,-0.130
9.853,-0.680,-0.145
9.856,-0.680,-0.155
9.858,-0.680,-0.180
9.861,-0.665,-0.185
9.864,-0.665,-0.200
9.867,-0.665,-0.200
9.869,-0.655,-0.205
9.872,-0.640,-0.205
9.875,-0.620,-0.210
9.878,-0.610,-0.195
9.881,-0.600,-0.215
9.883,-0.595,-0.225
9.886,-0.580,-0.240
9.889,-0.580,-0.255
9.892,-0.600,-0.265
9.894,-0.595,-0.270
9.897,-0.595,-0.295
9.900,-0.590,-0.295
9.903,-0.590,-0.290
9.906,-0.585,-0.275
9.908,-0.580,-0.280
9.911,-0.570,-0.275
9.914,-0.570,-0.280
9.917,-0.570,-0.280
9.919,-0.575,-0.295
9.922,-0.565,-0.300
9.925,-0.575,-0.310
9.928,-0.580,-0.320
9.931,-0.600,-0.325
9.933,-0.620,-0.330
9.936,-0.600,-0.320
9.939,-0.605,-0.315
9.942,-0.610,-0.315
9.944,-0.595,-0.305
9.947,-0.595,-0.305
9.950,-0.585,-0.315
9.953,-0.595,-0.320
9.956,-0.605,-0.325
9.958,-0.625,-0.340
9.961,-0.620,-0.350
9.964,-0.620,-0.345
9.967,-0.630,-0.350
9.969,-0.630,-0.330
9.972,-0.630,-0.325
9.975,-0.630,-0.320
9.978,-0.635,-0.310
9.981,-0.615,-0.305
9.983,-0.620,-0.320
9.986,-0.610,-0.315
9.989,-0.625,-0.325
9.992,-0.630,-0.345
9.994,-0.640,-0.340
9.997,-0.640,-0.335
10.000,-0.645,-0.335
10.003,-0.655,-0.320
10.006,-0.645,-0.315
10.008,-0.635,-0.315
10.011,-0.635,-0.305
10.014,-0.635,-0.300
10.017,-0.630,-0.300
10.019,-0.635,-0.310
10.022,-0.640,-0.315
10.025,-0.650,-0.320
10.028,-0.650,-0.315
10.031,-0.660,-0.330
10.033,-0.650,-0.320
10.036,-0.640,-0.320
10.039,-0.650,-0.300
10.042,-0.635,-0.305
10.044,-0.635,-0.290
10.047,-0.625,-0.290
10.050,-0.620,-0.300
10.053,-0.620,-0.300
10.056,-0.635,-0.305
10.058,-0.615,-0.310
10.061,-0.620,-0.310
10.064,-0.625,-0.320
10.067,-0.615,-0.325
10.069,-0.610,-0.315
10.072,-0.615,-0.310
10.075,-0.605,-0.305
10.078,-0.600,-0.300
10.081,-0.580,-0.290
10.083,-0.575,-0.295
10.086,-0.570,-0.305
10.089,-0.570,-0.310
10.092,-0.565,-0.320
10.094,-0.575,-0.325
10.097,-0.575,-0.335
10.100,-0.565,-0.320
10.103,-0.560,-0.315
10.106,-0.545,-0.300
10.108,-0.545,-0.295
10.111,-0.530,-0.290
10.114,-0.520,-0.285
10.117,-0.515,-0.285
10.119,-0.510,-0.300
10.122,-0.500,-0.295
10.125,-0.500,-0.300
10.128,-0.505,-0.305
10.131,-0.490,-0.305
10.133,-0.495,-0.295
10.136,-0.485,-0.310
10.139,-0.455,-0.300
10.142,-0.440,-0.300
10.144,-0.430,-0.305
10.147,-0.420,-0.305
10.150,-0.415,-0.325
10.153,-0.410,-0.345
10.156,-0.420,-0.375
10.158,-0.425,-0.385
10.161,-0.450,-0.410
10.164,-0.460,-0.415
10.167,-0.475,-0.420
10.169,-0.490,-0.385
10.172,-0.505,-0.370
10.175,-0.510,-0.360
10.178,-0.520,-0.335
10.181,-0.530,-0.325
10.183,-0.540,-0.330
10.186,-0.550,-0.325
10.189,-0.560,-0.345
10.192,-0.585,-0.340
10.194,-0.605,-0.340
10.197,-0.620,-0.335
10.200,-0.635,-0.335
10.203,-0.630,-0.330
10.206,-0.630,-0.320
10.208,-0.625,-0.310
10.211,-0.615,-0.305
10.214,-0.605,-0.300
10.217,-0.600,-0.315
10.219,-0.610,-0.305
10.222,-0.605,-0.320
10.225,-0.620,-0.330
10.228,-0.620,-0.340
10.231,-0.620,-0.330
10.233,-0.620,-0.320
10.236,-0.620,-0.330
10.239,-0.620,-0.330
10.242,-0.600,-0.315
10.244,-0.590,-0.310
10.247,-0.580,-0.310
10.250,-0.580,-0.315
10.253,-0.580,-0.315
10.256,-0.570,-0.320
10.258,-0.555,-0.330
10.261,-0.550,-0.340
10.264,-0.530,-0.340
10.267,-0.505,-0.350
10.269,-0.445,-0.345
10.272,-0.370,-0.335
10.275,-0.270,-0.330
10.278,-0.160,-0.325
10.281,-0.025,-0.320
10.283,0.125,-0.340
10.286,0.290,-0.365
10.289,0.480,-0.405
10.292,0.675,-0.465
10.294,0.860,-0.540
10.297,1.010,-0.635
10.300,1.125,-0.735
10.303,1.220,-0.850
10.306,1.320,-0.965
10.308,1.415,-1.065
10.311,1.460,-1.170
10.314,1.415,-1.285
10.317,1.240,-1.400
10.319,0.925,-1.500
10.322,0.515,-1.565
10.325,0.085,-1.585
10.328,-0.285,-1.560
10.331,-0.575,-1.490
10.333,-0.735,-1.375
10.336,-0.810,-1.265
10.339,-0.810,-1.135
10.342,-0.775,-1.015
10.344,-0.745,-0.915
10.347,-0.720,-0.835
10.350,-0.705,-0.765
10.353,-0.695,-0.690
10.356,-0.690,-0.630
10.358,-0.690,-0.560
10.361,-0.695,-0.495
10.364,-0.720,-0.430
10.367,-0.725,-0.380
10.369,-0.715,-0.355
10.372,-0.730,-0.335
10.375,-0.725,-0.335
10.378,-0.720,-0.320
10.381,-0.720,-0.315
10.383,-0.715,-0.330
10.386,-0.730,-0.300
10.389,-0.745,-0.310
10.392,-0.740,-0.310
10.394,-0.740,-0.300
10.397,-0.750,-0.310
10.400,-0.755,-0.305
10.403,-0.755,-0.300
10.406,-0.755,-0.295
10.408,-0.740,-0.285
10.411,-0.745,-0.275
10.414,-0.735,-0.270
10.417,-0.735,-0.280
10.419,-0.745,-0.265
10.422,-0.750,-0.290
10.425,-0.755,-0.285
10.428,-0.755,-0.285
10.431,-0.765,-0.300
10.433,-0.775,-0.285
10.436,-0.780,-0.285
10.439,-0.775,-0.275
10.442,-0.760,-0.255
10.444,-0.765,-0.265
10.447,-0.760,-0.250
10.450,-0.755,-0.275
10.453,-0.765,-0.260
10.456,-0.770,-0.265
10.458,-0.775,-0.260
10.461,-0.770,-0.285
10.464,-0.800,-0.275
10.467,-0.805,-0.270
10.469,-0.815,-0.265
10.472,-0.805,-0.250
10.475,-0.810,-0.240
10.478,-0.805,-0.250
10.481,-0.820,-0.240
10.483,-0.825,-0.250
10.486,-0.820,-0.235
10.489,-0.825,-0.245
10.492,-0.840,-0.245
10.494,-0.845,-0.245
10.497,-0.850,-0.250
10.500,-0.870,-0.240
10.503,-0.870,-0.235
10.506,-0.870,-0.230
10.508,-0.865,-0.205
10.511,-0.870,-0.210
10.514,-0.870,-0.200
10.517,-0.875,-0.185
10.519,-0.880,-0.190
10.522,-0.885,-0.185
10.525,-0.885,-0.185
10.528,-0.900,-0.195
10.531,-0.900,-0.190
10.533,-0.910,-0.185
10.536,-0.910,-0.165
10.539,-0.920,-0.150
10.542,-0.900,-0.140
10.544,-0.900,-0.145
10.547,-0.890,-0.110
10.550,-0.880,-0.125
10.553,-0.880,-0.115
10.556,-0.880,-0.125
10.558,-0.860,-0.120
10.561,-0.855,-0.130
10.564,-0.850,-0.130
10.567,-0.840,-0.125
10.569,-0.820,-0.130
10.572,-0.805,-0.115
10.575,-0.770,-0.115
10.578,-0.755,-0.100
10.581,-0.735,-0.120
10.583,-0.710,-0.135
10.586,-0.700,-0.130
10.589,-0.695,-0.135
10.592,-0.675,-0.170
10.594,-0.660,-0.180
10.597,-0.665,-0.180
10.600,-0.650,-0.180
10.603,-0.635,-0.185
10.606,-0.635,-0.195
10.608,-0.635,-0.195
10.611,-0.615,-0.210
10.614,-0.605,-0.200
10.617,-0.600,-0.210
10.619,-0.605,-0.230
10.622,-0.595,-0.235
10.625,-0.600,-0.245
10.628,-0.600,-0.265
10.631,-0.615,-0.260
10.633,-0.595,-0.275
10.636,-0.620,-0.275
10.639,-0.615,-0.255
10.642,-0.605,-0.255
10.644,-0.590,-0.265
10.647,-0.590,-0.260
10.650,-0.585,-0.265
10.653,-0.595,-0.280
10.656,-0.580,-0.285
10.658,-0.595,-0.295
10.661,-0.590,-0.300
10.664,-0.600,-0.305
10.667,-0.610,-0.290
10.669,-0.600,-0.295
10.672,-0.600,-0.295
10.675,-0.605,-0.280
10.678,-0.590,-0.275
10.681,-0.595,-0.280
10.683,-0.585,-0.285
10.686,-0.590,-0.290
10.689,-0.595,-0.295
10.692,-0.610,-0.305
10.694,-0.615,-0.325
10.697,-0.635,-0.320
10.700,-0.645,-0.300
10.703,-0.640,-0.310
10.706,-0.625,-0.300
10.708,-0.625,-0.305
10.711,-0.610,-0.295
10.714,-0.615,-0.290
10.717,-0.620,-0.295
10.719,-0.620,-0.285
10.722,-0.620,-0.290
10.725,-0.625,-0.300
10.728,-0.640,-0.305
10.731,-0.655,-0.310
10.733,-0.655,-0.315
10.736,-0.650,-0.300
10.739,-0.645,-0.300
10.742,-0.640,-0.290
10.744,-0.655,-0.275
10.747,-0.630,-0.280
10.750,-0.635,-0.270
10.753,-0.645,-0.280
10.756,-0.645,-0.290
10.758,-0.645,-0.285
10.761,-0.650,-0.305
10.764,-0.645,-0.300
10.767,-0.650,-0.295
10.769,-0.650,-0.295
10.772,-0.640,-0.285
10.775,-0.625,-0.270
10.778,-0.620,-0.280
10.781,-0.615,-0.270
10.783,-0.610,-0.275
10.786,-0.605,-0.285
10.789,-0.615,-0.285
10.792,-0.610,-0.290
10.794,-0.610,-0.300
10.797,-0.610,-0.305
10.800,-0.610,-0.295
10.803,-0.600,-0.295
10.806,-0.605,-0.285
10.808,-0.590,-0.285
10.811,-0.575,-0.265
10.814,-0.555,-0.265
10.817,-0.535,-0.270
10.819,-0.555,-0.270
10.822,-0.540,-0.275
10.825,-0.540,-0.285
10.828,-0.550,-0.285
10.831,-0.550,-0.290
10.833,-0.535,-0.280
10.836,-0.530,-0.265
10.839,-0.540,-0.260
10.842,-0.515,-0.260
10.844,-0.515,-0.230
10.847,-0.485,-0.235
10.850,-0.480,-0.245
10.853,-0.455,-0.250
10.856,-0.445,-0.255
10.858,-0.445,-0.275
10.861,-0.450,-0.265
10.864,-0.440,-0.290
10.867,-0.430,-0.300
10.869,-0.430,-0.305
10.872,-0.425,-0.305
10.875,-0.430,-0.320
10.878,-0.430,-0.315
10.881,-0.435,-0.325
10.883,-0.430,-0.345
10.886,-0.445,-0.355
10.889,-0.450,-0.355
10.892,-0.465,-0.345
10.894,-0.480,-0.355
10.897,-0.490,-0.350
10.900,-0.525,-0.340
10.903,-0.530,-0.330
10.906,-0.555,-0.315
10.908,-0.545,-0.300
10.911,-0.550,-0.295
10.914,-0.555,-0.275
10.917,-0.565,-0.290
10.919,-0.585,-0.290
10.922,-0.590,-0.290
10.925,-0.630,-0.295
10.928,-0.625,-0.300
10.931,-0.635,-0.310
10.933,-0.650,-0.295
10.936,-0.645,-0.280
10.939,-0.640,-0.295
10.942,-0.620,-0.285
10.944,-0.610,-0.280
10.947,-0.600,-0.280
10.950,-0.600,-0.290
10.953,-0.595,-0.290
10.956,-0.600,-0.295
10.958,-0.615,-0.305
10.961,-0.605,-0.310
10.964,-0.610,-0.320
10.967,-0.595,-0.310
10.969,-0.580,-0.310
10.972,-0.570,-0.305
10.975,-0.555,-0.305
10.978,-0.540,-0.300
10.981,-0.505,-0.300
10.983,-0.465,-0.295
10.986,-0.415,-0.300
10.989,-0.335,-0.315
10.992,-0.245,-0.325
10.994,-0.120,-0.335
10.997,0.020,-0.350
11.000,0.185,-0.350
11.003,0.385,-0.375
11.006,0.590,-0.410
11.008,0.795,-0.470
11.011,0.975,-0.555
11.014,1.115,-0.645
11.017,1.230,-0.780
11.019,1.310,-0.895
11.022,1.380,-1.010
11.025,1.400,-1.130
11.028,1.345,-1.260
11.031,1.155,-1.370
11.033,0.825,-1.460
11.036,0.420,-1.520
11.039,0.005,-1.540
11.042,-0.360,-1.500
11.044,-0.620,-1.395
11.047,-0.765,-1.280
11.050,-0.800,-1.150
11.053,-0.790,-1.040
11.056,-0.755,-0.945
11.058,-0.730,-0.875
11.061,-0.715,-0.815
11.064,-0.710,-0.770
11.067,-0.710,-0.705
11.069,-0.715,-0.650
11.072,-0.710,-0.570
11.075,-0.690,-0.510
11.078,-0.680,-0.435
11.081,-0.680,-0.370
11.083,-0.675,-0.345
11.086,-0.685,-0.320
11.089,-0.695,-0.305
11.092,-0.700,-0.305
11.094,-0.710,-0.310
11.097,-0.720,-0.315
11.100,-0.720,-0.315
11.103,-0.720,-0.300
11.106,-0.715,-0.275
11.108,-0.725,-0.270
11.111,-0.710,-0.255
11.114,-0.710,-0.245
11.117,-0.705,-0.245
11.119,-0.720,-0.245
11.122,-0.725,-0.260
11.125,-0.735,-0.260
11.128,-0.745,-0.270
11.131,-0.750,-0.270
11.133,-0.765,-0.255
11.136,-0.770,-0.255
11.139,-0.765,-0.250
11.142,-0.760,-0.250
11.144,-0.760,-0.250
11.147,-0.745,-0.235
11.150,-0.745,-0.240
11.153,-0.750,-0.240
11.156,-0.760,-0.235
11.158,-0.765,-0.245
11.161,-0.770,-0.250
11.164,-0.780,-0.260
11.167,-0.790,-0.250
11.169,-0.785,-0.240
11.172,-0.780,-0.240
11.175,-0.780,-0.230
11.178,-0.775,-0.225
11.181,-0.770,-0.200
11.183,-0.785,-0.220
11.186,-0.790,-0.220
11.189,-0.790,-0.220
11.192,-0.800,-0.230
11.194,-0.815,-0.220
11.197,-0.835,-0.235
11.200,-0.825,-0.225
11.203,-0.830,-0.225
11.206,-0.830,-0.205
11.208,-0.830,-0.200
11.211,-0.835,-0.190
11.214,-0.825,-0.190
11.217,-0.830,-0.175
11.219,-0.820,-0.180
11.222,-0.835,-0.190
11.225,-0.850,-0.185
11.228,-0.855,-0.190
11.231,-0.875,-0.180
11.233,-0.880,-0.185
11.236,-0.885,-0.185
11.239,-0.885,-0.160
11.242,-0.880,-0.150
11.244,-0.880,-0.135
11.247,-0.875,-0.125
11.250,-0.870,-0.115
11.253,-0.870,-0.125
11.256,-0.875,-0.130
11.258,-0.890,-0.120
11.261,-0.890,-0.125
11.264,-0.900,-0.120
11.267,-0.900,-0.110
11.269,-0.890,-0.100
11.272,-0.875,-0.085
11.275,-0.865,-0.075
11.278,-0.855,-0.070
11.281,-0.840,-0.065
11.283,-0.815,-0.060
11.286,-0.825,-0.065
11.289,-0.810,-0.075
11.292,-0.810,-0.080
11.294,-0.805,-0.070
11.297,-0.795,-0.085
11.300,-0.775,-0.080
11.303,-0.755,-0.070
11.306,-0.740,-0.080
11.308,-0.725,-0.070
11.311,-0.700,-0.065
11.314,-0.680,-0.060
11.317,-0.660,-0.070
11.319,-0.650,-0.075
11.322,-0.640,-0.080
11.325,-0.640,-0.100
11.328,-0.620,-0.125
11.331,-0.615,-0.120
11.333,-0.615,-0.130
11.336,-0.605,-0.135
11.339,-0.605,-0.130
11.342,-0.590,-0.145
11.344,-0.575,-0.130
11.347,-0.570,-0.140
11.350,-0.560,-0.150
11.353,-0.555,-0.155
11.356,-0.555,-0.165
11.358,-0.560,-0.185
11.361,-0.565,-0.185
11.364,-0.565,-0.200
11.367,-0.585,-0.200
11.369,-0.580,-0.205
11.372,-0.575,-0.190
11.375,-0.570,-0.200
11.378,-0.570,-0.190
11.381,-0.565,-0.185
11.383,-0.550,-0.190
11.386,-0.565,-0.205
11.389,-0.560,-0.210
11.392,-0.565,-0.205
11.394,-0.575,-0.210
11.397,-0.590,-0.230
11.400,-0.605,-0.230
11.403,-0.600,-0.230
11.406,-0.595,-0.215
11.408,-0.585,-0.210
11.411,-0.585,-0.205
11.414,-0.575,-0.195
11.417,-0.580,-0.210
11.419,-0.575,-0.210
11.422,-0.585,-0.225
11.425,-0.575,-0.225
11.428,-0.600,-0.220
11.431,-0.605,-0.240
11.433,-0.615,-0.235
11.436,-0.605,-0.230
11.439,-0.600,-0.215
11.442,-0.605,-0.215
11.444,-0.600,-0.210
11.447,-0.595,-0.205
11.450,-0.600,-0.195
11.453,-0.605,-0.205
11.456,-0.615,-0.210
11.458,-0.610,-0.210
11.461,-0.610,-0.220
11.464,-0.615,-0.230
11.467,-0.630,-0.225
11.469,-0.625,-0.215
11.472,-0.635,-0.200
11.475,-0.625,-0.200
11.478,-0.615,-0.190
11.481,-0.610,-0.185
11.483,-0.600,-0.190
11.486,-0.590,-0.195
11.489,-0.600,-0.190
11.492,-0.605,-0.205
11.494,-0.605,-0.210
11.497,-0.615,-0.205
11.500,-0.625,-0.200
11.503,-0.635,-0.200
11.506,-0.630,-0.185
11.508,-0.610,-0.180
11.511,-0.610,-0.180
11.514,-0.605,-0.175
11.517,-0.595,-0.170
11.519,-0.590,-0.170
11.522,-0.605,-0.195
11.525,-0.595,-0.195
11.528,-0.595,-0.210
11.531,-0.605,-0.205
11.533,-0.590,-0.200
11.536,-0.590,-0.200
11.539,-0.580,-0.195
11.542,-0.575,-0.190
11.544,-0.565,-0.175
11.547,-0.545,-0.170
11.550,-0.540,-0.170
11.553,-0.535,-0.190
11.556,-0.525,-0.195
11.558,-0.530,-0.200
11.561,-0.530,-0.210
11.564,-0.530,-0.205
11.567,-0.520,-0.205
11.569,-0.520,-0.185
11.572,-0.515,-0.190
11.575,-0.500,-0.185
11.578,-0.510,-0.170
11.581,-0.485,-0.150
11.583,-0.485,-0.155
11.586,-0.460,-0.165
11.589,-0.440,-0.170
11.592,-0.440,-0.180
11.594,-0.430,-0.185
11.597,-0.435,-0.195
11.600,-0.415,-0.210
11.603,-0.405,-0.210
11.606,-0.410,-0.220
11.608,-0.405,-0.220
11.611,-0.405,-0.215
11.614,-0.395,-0.225
11.617,-0.405,-0.240
11.619,-0.415,-0.255
11.622,-0.435,-0.255
11.625,-0.450,-0.265
11.628,-0.450,-0.260
11.631,-0.485,-0.250
11.633,-0.500,-0.255
11.636,-0.510,-0.235
11.639,-0.520,-0.225
11.642,-0.520,-0.215
11.644,-0.525,-0.200
11.647,-0.520,-0.200
11.650,-0.525,-0.205
11.653,-0.560,-0.205
11.656,-0.555,-0.195
11.658,-0.570,-0.205
11.661,-0.585,-0.210
11.664,-0.610,-0.200
11.667,-0.605,-0.200
11.669,-0.605,-0.195
11.672,-0.600,-0.195
11.675,-0.585,-0.190
11.678,-0.590,-0.190
11.681,-0.580,-0.180
11.683,-0.575,-0.175
11.686,-0.575,-0.185
11.689,-0.580,-0.190
11.692,-0.585,-0.215
11.694,-0.585,-0.210
11.697,-0.590,-0.225
11.700,-0.605,-0.205
11.703,-0.595,-0.215
11.706,-0.585,-0.210
11.708,-0.585,-0.205
11.711,-0.585,-0.190
11.714,-0.565,-0.205
11.717,-0.550,-0.205
11.719,-0.545,-0.210
11.722,-0.525,-0.210
11.725,-0.535,-0.220
11.728,-0.525,-0.235
11.731,-0.500,-0.235
11.733,-0.485,-0.225
11.736,-0.450,-0.240
11.739,-0.375,-0.240
11.742,-0.290,-0.225
11.744,-0.200,-0.225
11.747,-0.085,-0.210
11.750,0.065,-0.220
11.753,0.225,-0.245
11.756,0.430,-0.290
11.758,0.640,-0.335
11.761,0.850,-0.410
11.764,1.015,-0.510
11.767,1.150,-0.605
11.769,1.260,-0.715
11.772,1.355,-0.820
11.775,1.425,-0.940
11.778,1.405,-1.045
11.781,1.245,-1.150
11.783,0.905,-1.255
11.786,0.465,-1.305
11.789,0.000,-1.330
11.792,-0.420,-1.295
11.794,-0.695,-1.215
11.797,-0.850,-1.105
11.800,-0.895,-1.000
11.803,-0.865,-0.895
11.806,-0.805,-0.800
11.808,-0.745,-0.720
11.811,-0.715,-0.645
11.814,-0.685,-0.585
11.817,-0.660,-0.535
11.819,-0.660,-0.490
11.822,-0.675,-0.430
11.825,-0.665,-0.370
11.828,-0.690,-0.335
11.831,-0.720,-0.295
11.833,-0.725,-0.255
11.836,-0.725,-0.230
11.839,-0.715,-0.225
11.842,-0.715,-0.205
11.844,-0.705,-0.200
11.847,-0.710,-0.185
11.850,-0.710,-0.185
11.853,-0.700,-0.195
11.856,-0.710,-0.185
11.858,-0.710,-0.185
11.861,-0.715,-0.200
11.864,-0.730,-0.195
11.867,-0.725,-0.195
11.869,-0.735,-0.190
11.872,-0.730,-0.175
11.875,-0.735,-0.160
11.878,-0.730,-0.150
11.881,-0.730,-0.155
11.883,-0.725,-0.150
11.886,-0.730,-0.145
11.889,-0.730,-0.145
11.892,-0.730,-0.165
11.894,-0.745,-0.165
11.897,-0.755,-0.160
11.900,-0.765,-0.170
11.903,-0.760,-0.165
11.906,-0.770,-0.145
11.908,-0.760,-0.150
11.911,-0.765,-0.140
11.914,-0.760,-0.125
11.917,-0.755,-0.135
11.919,-0.760,-0.130
11.922,-0.755,-0.135
11.925,-0.765,-0.155
11.928,-0.780,-0.155
11.931,-0.785,-0.160
11.933,-0.785,-0.150
11.936,-0.785,-0.150
11.939,-0.790,-0.135
11.942,-0.790,-0.130
11.944,-0.800,-0.125
11.947,-0.785,-0.120
11.950,-0.795,-0.110
11.953,-0.805,-0.120
11.956,-0.810,-0.130
11.958,-0.815,-0.125
11.961,-0.830,-0.130
11.964,-0.840,-0.135
11.967,-0.840,-0.130
11.969,-0.835,-0.130
11.972,-0.850,-0.130
11.975,-0.835,-0.110
11.978,-0.840,-0.100
11.981,-0.840,-0.085
11.983,-0.840,-0.080
11.986,-0.845,-0.080
11.989,-0.845,-0.075
11.992,-0.860,-0.090
11.994,-0.865,-0.085
11.997,-0.885,-0.095
12.000,-0.890,-0.080
12.003,-0.895,-0.075
12.006,-0.890,-0.060
12.008,-0.890,-0.060
12.011,-0.890,-0.045
12.014,-0.885,-0.025
12.017,-0.875,-0.035
12.019,-0.880,-0.025
12.022,-0.880,-0.030
12.025,-0.895,-0.025
12.028,-0.885,-0.035
12.031,-0.895,-0.035
12.033,-0.885,-0.030
12.036,-0.895,-0.015
12.039,-0.875,-0.015
12.042,-0.865,-0.005
12.044,-0.855,0.010
12.047,-0.835,0.005
12.050,-0.820,0.005
12.053,-0.810,0.005
12.056,-0.795,-0.005
12.058,-0.795,0.005
12.061,-0.775,-0.010
12.064,-0.770,-0.010
12.067,-0.765,-0.020
12.069,-0.745,-0.015
12.072,-0.725,-0.015
12.075,-0.705,-0.005
12.078,-0.685,0.005
12.081,-0.655,0.000
12.083,-0.660,-0.010
12.086,-0.645,-0.025
12.089,-0.635,-0.040
12.092,-0.635,-0.050
12.094,-0.620,-0.065
12.097,-0.620,-0.075
12.100,-0.615,-0.075
12.103,-0.610,-0.075
12.106,-0.610,-0.080
12.108,-0.610,-0.080
12.111,-0.590,-0.075
12.114,-0.580,-0.080
12.117,-0.575,-0.090
12.119,-0.570,-0.100
12.122,-0.575,-0.115
12.125,-0.575,-0.120
12.128,-0.575,-0.125
12.131,-0.580,-0.135
12.133,-0.590,-0.135
12.136,-0.595,-0.140
12.139,-0.595,-0.140
12.142,-0.590,-0.130
12.144,-0.585,-0.130
12.147,-0.565,-0.130
12.150,-0.570,-0.135
12.153,-0.580,-0.140
12.156,-0.580,-0.150
12.158,-0.580,-0.160
12.161,-0.595,-0.165
12.164,-0.595,-0.175
12.167,-0.605,-0.175
12.169,-0.605,-0.175
12.172,-0.615,-0.165
12.175,-0.595,-0.165
12.178,-0.605,-0.160
12.181,-0.600,-0.150
12.183,-0.605,-0.155
12.186,-0.600,-0.170
12.189,-0.600,-0.170
12.192,-0.610,-0.180
12.194,-0.615,-0.180
12.197,-0.625,-0.185
12.200,-0.635,-0.190
12.203,-0.635,-0.180
12.206,-0.640,-0.175
12.208,-0.635,-0.160
12.211,-0.645,-0.170
12.214,-0.630,-0.150
12.217,-0.620,-0.160
12.219,-0.635,-0.165
12.222,-0.625,-0.180
12.225,-0.640,-0.170
12.228,-0.630,-0.185
12.231,-0.640,-0.185
12.233,-0.660,-0.185
12.236,-0.665,-0.185
12.239,-0.660,-0.180
12.242,-0.660,-0.170
12.244,-0.645,-0.160
12.247,-0.645,-0.160
12.250,-0.640,-0.165
12.253,-0.660,-0.165
12.256,-0.640,-0.165
12.258,-0.650,-0.170
12.261,-0.650,-0.190
12.264,-0.650,-0.185
12.267,-0.655,-0.185
12.269,-0.655,-0.185
12.272,-0.645,-0.180
12.275,-0.635,-0.190
12.278,-0.645,-0.160
12.281,-0.650,-0.150
12.283,-0.625,-0.165
12.286,-0.615,-0.175
12.289,-0.615,-0.190
12.292,-0.635,-0.190
12.294,-0.625,-0.200
12.297,-0.625,-0.190
12.300,-0.630,-0.195
12.303,-0.630,-0.190
12.306,-0.630,-0.190
12.308,-0.625,-0.175
12.311,-0.610,-0.180
12.314,-0.590,-0.175
12.317,-0.575,-0.175
12.319,-0.575,-0.180
12.322,-0.575,-0.190
12.325,-0.575,-0.195
12.328,-0.570,-0.205
12.331,-0.585,-0.200
12.333,-0.575,-0.200
12.336,-0.580,-0.195
12.339,-0.565,-0.190
12.342,-0.560,-0.190
12.344,-0.545,-0.165
12.347,-0.535,-0.165
12.350,-0.530,-0.160
12.353,-0.530,-0.170
12.356,-0.525,-0.170
12.358,-0.530,-0.175
12.361,-0.515,-0.185
12.364,-0.525,-0.180
12.367,-0.515,-0.180
12.369,-0.500,-0.195
12.372,-0.490,-0.185
12.375,-0.485,-0.195
12.378,-0.465,-0.190
12.381,-0.445,-0.200
12.383,-0.430,-0.215
12.386,-0.435,-0.240
12.389,-0.435,-0.245
12.392,-0.460,-0.280
12.394,-0.465,-0.290
12.397,-0.490,-0.285
12.400,-0.495,-0.285
12.403,-0.520,-0.285
12.406,-0.525,-0.255
12.408,-0.535,-0.250
12.411,-0.540,-0.230
12.414,-0.550,-0.220
12.417,-0.560,-0.220
12.419,-0.570,-0.220
12.422,-0.585,-0.220
12.425,-0.600,-0.225
12.428,-0.620,-0.230
12.431,-0.635,-0.240
12.433,-0.640,-0.240
12.436,-0.655,-0.235
12.439,-0.665,-0.230
12.442,-0.640,-0.220
12.444,-0.625,-0.210
12.447,-0.610,-0.195
12.450,-0.610,-0.195
12.453,-0.610,-0.210
12.456,-0.625,-0.215
12.458,-0.640,-0.225
12.461,-0.630,-0.230
12.464,-0.645,-0.230
12.467,-0.650,-0.245
12.469,-0.640,-0.245
12.472,-0.630,-0.235
12.475,-0.625,-0.225
12.478,-0.600,-0.225
12.481,-0.595,-0.215
12.483,-0.580,-0.220
12.486,-0.585,-0.240
12.489,-0.560,-0.230
12.492,-0.555,-0.245
12.494,-0.545,-0.260
12.497,-0.515,-0.255
12.500,-0.475,-0.260
12.503,-0.425,-0.250
12.506,-0.335,-0.250
12.508,-0.215,-0.250
12.511,-0.105,-0.240
12.514,0.035,-0.250
12.517,0.215,-0.250
12.519,0.405,-0.270
12.522,0.610,-0.325
12.525,0.805,-0.385
12.528,0.960,-0.475
12.531,1.080,-0.575
12.533,1.160,-0.680
12.536,1.235,-0.785
12.539,1.330,-0.885
12.542,1.415,-0.960
12.544,1.420,-1.060
12.547,1.335,-1.165
12.550,1.080,-1.255
12.553,0.715,-1.330
12.556,0.290,-1.400
12.558,-0.120,-1.410
12.561,-0.455,-1.375
12.564,-0.695,-1.320
12.567,-0.810,-1.215
12.569,-0.840,-1.110
12.572,-0.830,-0.985
12.575,-0.795,-0.880
12.578,-0.765,-0.785
12.581,-0.745,-0.720
12.583,-0.730,-0.640
12.586,-0.720,-0.570
12.589,-0.710,-0.495
12.592,-0.705,-0.425
12.594,-0.715,-0.360
12.597,-0.720,-0.310
12.600,-0.740,-0.275
12.603,-0.745,-0.265
12.606,-0.745,-0.245
12.608,-0.735,-0.245
12.611,-0.735,-0.225
12.614,-0.730,-0.215
12.617,-0.725,-0.210
12.619,-0.730,-0.215
12.622,-0.735,-0.210
12.625,-0.755,-0.225
12.628,-0.750,-0.225
12.631,-0.755,-0.215
12.633,-0.765,-0.220
12.636,-0.780,-0.215
12.639,-0.785,-0.200
12.642,-0.780,-0.210
12.644,-0.770,-0.200
12.647,-0.755,-0.190
12.650,-0.760,-0.180
12.653,-0.755,-0.185
12.656,-0.765,-0.185
12.658,-0.765,-0.195
12.661,-0.765,-0.195
12.664,-0.770,-0.205
12.667,-0.785,-0.200
12.669,-0.785,-0.190
12.672,-0.800,-0.185
12.675,-0.800,-0.180
12.678,-0.800,-0.165
12.681,-0.790,-0.160
12.683,-0.790,-0.165
12.686,-0.800,-0.170
12.689,-0.790,-0.175
12.692,-0.805,-0.175
12.694,-0.815,-0.175
12.697,-0.825,-0.185
12.700,-0.825,-0.180
12.703,-0.830,-0.165
12.706,-0.845,-0.165
12.708,-0.840,-0.160
12.711,-0.840,-0.145
12.714,-0.825,-0.145
12.717,-0.835,-0.150
12.719,-0.850,-0.150
12.722,-0.850,-0.150
12.725,-0.865,-0.165
12.728,-0.875,-0.155
12.731,-0.870,-0.165
12.733,-0.875,-0.155
12.736,-0.890,-0.150
12.739,-0.885,-0.145
12.742,-0.890,-0.130
12.744,-0.890,-0.125
12.747,-0.890,-0.105
12.750,-0.895,-0.110
12.753,-0.900,-0.105
12.756,-0.905,-0.120
12.758,-0.900,-0.105
12.761,-0.905,-0.105
12.764,-0.910,-0.120
12.767,-0.910,-0.100
12.769,-0.910,-0.090
12.772,-0.920,-0.095
12.775,-0.910,-0.085
12.778,-0.905,-0.070
12.781,-0.910,-0.050
12.783,-0.900,-0.050
12.786,-0.900,-0.060
12.789,-0.900,-0.065
12.792,-0.900,-0.055
12.794,-0.890,-0.040
12.797,-0.890,-0.050
12.800,-0.885,-0.045
12.803,-0.870,-0.050
12.806,-0.865,-0.050
12.808,-0.850,-0.030
12.811,-0.825,-0.025
12.814,-0.810,-0.020
12.817,-0.790,-0.030
12.819,-0.770,-0.035
12.822,-0.765,-0.045
12.825,-0.740,-0.060
12.828,-0.745,-0.055
12.831,-0.745,-0.050
12.833,-0.725,-0.065
12.836,-0.715,-0.065
12.839,-0.695,-0.065
12.842,-0.670,-0.080
12.844,-0.665,-0.080
12.847,-0.645,-0.075
12.850,-0.640,-0.090
12.853,-0.625,-0.105
12.856,-0.625,-0.115
12.858,-0.620,-0.125
12.861,-0.625,-0.145
12.864,-0.640,-0.145
12.867,-0.630,-0.155
12.869,-0.620,-0.150
12.872,-0.615,-0.165
12.875,-0.620,-0.160
12.878,-0.610,-0.150
12.881,-0.595,-0.155
12.883,-0.600,-0.160
12.886,-0.600,-0.160
12.889,-0.595,-0.170
12.892,-0.605,-0.185
12.894,-0.605,-0.190
12.897,-0.610,-0.195
12.900,-0.620,-0.210
12.903,-0.620,-0.200
12.906,-0.615,-0.185
12.908,-0.610,-0.195
12.911,-0.610,-0.195
12.914,-0.605,-0.185
12.917,-0.605,-0.180
12.919,-0.605,-0.195
12.922,-0.610,-0.210
12.925,-0.620,-0.220
12.928,-0.635,-0.215
12.931,-0.640,-0.225
12.933,-0.640,-0.220
12.936,-0.645,-0.215
12.939,-0.635,-0.210
12.942,-0.635,-0.205
12.944,-0.630,-0.195
12.947,-0.625,-0.190
12.950,-0.620,-0.200
12.953,-0.630,-0.200
12.956,-0.640,-0.205
12.958,-0.640,-0.220
12.961,-0.650,-0.215
12.964,-0.660,-0.210
12.967,-0.680,-0.225
12.969,-0.665,-0.220
12.972,-0.670,-0.210
12.975,-0.660,-0.210
12.978,-0.665,-0.200
12.981,-0.655,-0.200
12.983,-0.655,-0.205
12.986,-0.655,-0.200
12.989,-0.655,-0.215
12.992,-0.675,-0.200
12.994,-0.680,-0.210
12.997,-0.680,-0.225
13.000,-0.690,-0.225
13.003,-0.690,-0.225
13.006,-0.685,-0.215
13.008,-0.670,-0.210
13.011,-0.650,-0.195
13.014,-0.655,-0.190
13.017,-0.645,-0.200
13.019,-0.645,-0.200
13.022,-0.640,-0.200
13.025,-0.650,-0.210
13.028,-0.660,-0.225
13.031,-0.665,-0.225
13.033,-0.680,-0.230
13.036,-0.680,-0.215
13.039,-0.675,-0.210
13.042,-0.655,-0.215
13.044,-0.660,-0.210
13.047,-0.645,-0.195
13.050,-0.635,-0.200
13.053,-0.635,-0.215
13.056,-0.625,-0.205
13.058,-0.625,-0.210
13.061,-0.625,-0.205
13.064,-0.620,-0.235
13.067,-0.620,-0.225
13.069,-0.610,-0.225
13.072,-0.605,-0.225
13.075,-0.590,-0.210
13.078,-0.570,-0.210
13.081,-0.570,-0.200
13.083,-0.565,-0.200
13.086,-0.560,-0.205
13.089,-0.565,-0.195
13.092,-0.550,-0.220
13.094,-0.545,-0.220
13.097,-0.555,-0.225
13.100,-0.550,-0.215
13.103,-0.550,-0.205
13.106,-0.525,-0.210
13.108,-0.505,-0.200
13.111,-0.490,-0.195
13.114,-0.470,-0.195
13.117,-0.455,-0.205
13.119,-0.445,-0.220
13.122,-0.445,-0.235
13.125,-0.445,-0.260
13.128,-0.450,-0.290
13.131,-0.465,-0.290
13.133,-0.485,-0.305
13.136,-0.485,-0.310
13.139,-0.495,-0.310
13.142,-0.495,-0.295
13.144,-0.510,-0.290
13.147,-0.525,-0.275
13.150,-0.530,-0.270
13.153,-0.540,-0.265
13.156,-0.555,-0.260
13.158,-0.575,-0.265
13.161,-0.605,-0.250
13.164,-0.610,-0.255
13.167,-0.625,-0.255
13.169,-0.640,-0.260
13.172,-0.650,-0.240
13.175,-0.660,-0.235
13.178,-0.660,-0.230
13.181,-0.650,-0.230
13.183,-0.655,-0.210
13.186,-0.650,-0.230
13.189,-0.640,-0.235
13.192,-0.635,-0.245
13.194,-0.650,-0.245
13.197,-0.660,-0.250
13.200,-0.660,-0.260
13.203,-0.650,-0.260
13.206,-0.655,-0.245
13.208,-0.650,-0.245
13.211,-0.630,-0.240
13.214,-0.625,-0.235
13.217,-0.610,-0.235
13.219,-0.605,-0.260
13.222,-0.610,-0.255
13.225,-0.595,-0.260
13.228,-0.595,-0.275
13.231,-0.585,-0.285
13.233,-0.555,-0.285
13.236,-0.515,-0.280
13.239,-0.460,-0.265
13.242,-0.375,-0.260
13.244,-0.270,-0.265
13.247,-0.145,-0.255
13.250,-0.015,-0.245
13.253,0.130,-0.260
13.256,0.315,-0.280
13.258,0.510,-0.320
13.261,0.700,-0.370
13.264,0.895,-0.455
13.267,1.050,-0.560
13.269,1.175,-0.660
13.272,1.280,-0.780
13.275,1.400,-0.885
13.278,1.495,-1.015
13.281,1.480,-1.120
13.283,1.320,-1.225
13.286,0.980,-1.345
13.289,0.520,-1.405
13.292,0.020,-1.430
13.294,-0.390,-1.405
13.297,-0.680,-1.340
13.300,-0.840,-1.235
13.303,-0.890,-1.110
13.306,-0.880,-0.995
13.308,-0.825,-0.895
13.311,-0.775,-0.810
13.314,-0.740,-0.730
13.317,-0.720,-0.665
13.319,-0.710,-0.600
13.322,-0.705,-0.530
13.325,-0.705,-0.475
13.328,-0.710,-0.430
13.331,-0.735,-0.360
13.333,-0.740,-0.325
13.336,-0.745,-0.300
13.339,-0.730,-0.280
13.342,-0.745,-0.275
13.344,-0.735,-0.270
13.347,-0.730,-0.260
13.350,-0.735,-0.260
13.353,-0.725,-0.255
13.356,-0.730,-0.260
13.358,-0.735,-0.265
13.361,-0.750,-0.270
13.364,-0.765,-0.260
13.367,-0.755,-0.265
13.369,-0.750,-0.270
13.372,-0.760,-0.260
13.375,-0.765,-0.255
13.378,-0.760,-0.245
13.381,-0.750,-0.230
13.383,-0.745,-0.230
13.386,-0.745,-0.245
13.389,-0.750,-0.240
13.392,-0.750,-0.260
13.394,-0.775,-0.260
13.397,-0.770,-0.260
13.400,-0.785,-0.265
13.403,-0.785,-0.250
13.406,-0.790,-0.255
13.408,-0.790,-0.255
13.411,-0.780,-0.225
13.414,-0.780,-0.220
13.417,-0.785,-0.225
13.419,-0.785,-0.225
13.422,-0.795,-0.225
13.425,-0.795,-0.230
13.428,-0.795,-0.240
13.431,-0.810,-0.240
13.433,-0.815,-0.240
13.436,-0.820,-0.235
13.439,-0.815,-0.225
13.442,-0.825,-0.220
13.444,-0.825,-0.205
13.447,-0.835,-0.200
13.450,-0.810,-0.200
13.453,-0.830,-0.200
13.456,-0.815,-0.195
13.458,-0.845,-0.205
13.461,-0.850,-0.210
13.464,-0.860,-0.220
13.467,-0.870,-0.210
13.469,-0.865,-0.205
13.472,-0.880,-0.195
13.475,-0.870,-0.170
13.478,-0.870,-0.160
13.481,-0.865,-0.150
13.483,-0.860,-0.155
13.486,-0.860,-0.155
13.489,-0.860,-0.155
13.492,-0.865,-0.160
13.494,-0.885,-0.155
13.497,-0.880,-0.145
13.500,-0.875,-0.145
13.503,-0.880,-0.135
13.506,-0.875,-0.135
13.508,-0.860,-0.125
13.511,-0.855,-0.110
13.514,-0.840,-0.105
13.517,-0.815,-0.090
13.519,-0.810,-0.105
13.522,-0.790,-0.105
13.525,-0.780,-0.110
13.528,-0.785,-0.115
13.531,-0.780,-0.120
13.533,-0.770,-0.135
13.536,-0.760,-0.130
13.539,-0.745,-0.130
13.542,-0.735,-0.120
13.544,-0.715,-0.110
13.547,-0.690,-0.115
13.550,-0.655,-0.125
13.553,-0.645,-0.135
13.556,-0.625,-0.145
13.558,-0.615,-0.160
13.561,-0.620,-0.170
13.564,-0.630,-0.180
13.567,-0.615,-0.190
13.569,-0.615,-0.185
13.572,-0.605,-0.190
13.575,-0.590,-0.175
13.578,-0.580,-0.200
13.581,-0.575,-0.180
13.583,-0.560,-0.210
13.586,-0.560,-0.225
13.589,-0.545,-0.220
13.592,-0.565,-0.245
13.594,-0.565,-0.255
13.597,-0.585,-0.265
13.600,-0.580,-0.280
13.603,-0.575,-0.265
13.606,-0.585,-0.270
13.608,-0.590,-0.265
13.611,-0.575,-0.255
13.614,-0.560,-0.250
13.617,-0.555,-0.255
13.619,-0.560,-0.265
13.622,-0.570,-0.265
13.625,-0.575,-0.285
13.628,-0.580,-0.295
13.631,-0.590,-0.300
13.633,-0.590,-0.300
13.636,-0.605,-0.300
13.639,-0.605,-0.290
13.642,-0.595,-0.290
13.644,-0.580,-0.285
13.647,-0.585,-0.280
13.650,-0.585,-0.280
13.653,-0.585,-0.290
13.656,-0.580,-0.290
13.658,-0.590,-0.295
13.661,-0.600,-0.285
13.664,-0.615,-0.290
13.667,-0.625,-0.310
13.669,-0.610,-0.300
13.672,-0.615,-0.295
13.675,-0.610,-0.290
13.678,-0.605,-0.275
13.681,-0.600,-0.275
13.683,-0.590,-0.270
13.686,-0.590,-0.285
13.689,-0.590,-0.280
13.692,-0.600,-0.280
13.694,-0.615,-0.290
13.697,-0.615,-0.305
13.700,-0.630,-0.300
13.703,-0.630,-0.285
13.706,-0.625,-0.285
13.708,-0.610,-0.280
13.711,-0.610,-0.275
13.714,-0.600,-0.270
13.717,-0.600,-0.260
13.719,-0.605,-0.280
13.722,-0.600,-0.285
13.725,-0.600,-0.300
13.728,-0.605,-0.295
13.731,-0.610,-0.300
13.733,-0.610,-0.310
13.736,-0.620,-0.315
13.739,-0.620,-0.290
13.742,-0.605,-0.295
13.744,-0.605,-0.285
13.747,-0.585,-0.280
13.750,-0.585,-0.285
13.753,-0.590,-0.285
13.756,-0.585,-0.275
13.758,-0.585,-0.290
13.761,-0.590,-0.300
13.764,-0.595,-0.295
13.767,-0.580,-0.305
13.769,-0.575,-0.310
13.772,-0.585,-0.300
13.775,-0.570,-0.295
13.778,-0.555,-0.275
13.781,-0.550,-0.280
13.783,-0.540,-0.275
13.786,-0.545,-0.280
13.789,-0.520,-0.285
13.792,-0.520,-0.290
13.794,-0.520,-0.290
13.797,-0.520,-0.295
13.800,-0.515,-0.285
13.803,-0.520,-0.280
13.806,-0.505,-0.290
13.808,-0.505,-0.270
13.811,-0.490,-0.265
13.814,-0.470,-0.250
13.817,-0.460,-0.240
13.819,-0.435,-0.275
13.822,-0.425,-0.275
13.825,-0.420,-0.285
13.828,-0.410,-0.300
13.831,-0.410,-0.325
13.833,-0.410,-0.325
13.836,-0.415,-0.345
13.839,-0.425,-0.355
13.842,-0.420,-0.365
13.844,-0.435,-0.370
13.847,-0.445,-0.370
13.850,-0.455,-0.355
13.853,-0.450,-0.365
13.856,-0.465,-0.360
13.858,-0.485,-0.350
13.861,-0.500,-0.340
13.864,-0.525,-0.345
13.867,-0.525,-0.350
13.869,-0.535,-0.330
13.872,-0.550,-0.330
13.875,-0.550,-0.320
13.878,-0.580,-0.310
13.881,-0.580,-0.305
13.883,-0.585,-0.295
13.886,-0.590,-0.310
13.889,-0.595,-0.310
13.892,-0.595,-0.320
13.894,-0.610,-0.315
13.897,-0.605,-0.320
13.900,-0.610,-0.325
13.903,-0.595,-0.320
13.906,-0.600,-0.320
13.908,-0.595,-0.310
13.911,-0.575,-0.315
13.914,-0.580,-0.300
13.917,-0.570,-0.305
13.919,-0.570,-0.310
13.922,-0.565,-0.325
13.925,-0.580,-0.325
13.928,-0.580,-0.335
13.931,-0.575,-0.350
13.933,-0.590,-0.340
13.936,-0.570,-0.340
13.939,-0.555,-0.340
13.942,-0.545,-0.330
13.944,-0.520,-0.325
13.947,-0.505,-0.320
13.950,-0.475,-0.320
13.953,-0.445,-0.340
13.956,-0.385,-0.340
13.958,-0.335,-0.345
13.961,-0.255,-0.350
13.964,-0.155,-0.365
13.967,-0.045,-0.370
13.969,0.095,-0.370
13.972,0.260,-0.385
13.975,0.470,-0.425
13.978,0.700,-0.485
13.981,0.905,-0.545
13.983,1.075,-0.660
13.986,1.225,-0.785
13.989,1.330,-0.920
13.992,1.425,-1.050
13.994,1.465,-1.190
13.997,1.385,-1.320
14.000,1.145,-1.440
14.003,0.740,-1.525
14.006,0.250,-1.555
14.008,-0.205,-1.520
14.011,-0.585,-1.410
14.014,-0.785,-1.285
14.017,-0.865,-1.135
14.019,-0.850,-0.995
14.022,-0.800,-0.885
14.025,-0.735,-0.805
14.028,-0.695,-0.730
14.031,-0.655,-0.690
14.033,-0.660,-0.620
14.036,-0.660,-0.545
14.039,-0.670,-0.475
14.042,-0.685,-0.415
14.044,-0.695,-0.380
14.047,-0.690,-0.355
14.050,-0.695,-0.340
14.053,-0.690,-0.340
14.056,-0.695,-0.345
14.058,-0.695,-0.350
14.061,-0.705,-0.360
14.064,-0.725,-0.350
14.067,-0.730,-0.350
14.069,-0.735,-0.340
14.072,-0.730,-0.325
14.075,-0.720,-0.320
14.078,-0.720,-0.310
14.081,-0.710,-0.305
14.083,-0.715,-0.300
14.086,-0.725,-0.310
14.089,-0.730,-0.310
14.092,-0.725,-0.330
14.094,-0.735,-0.320
14.097,-0.745,-0.335
14.100,-0.765,-0.315
14.103,-0.770,-0.315
14.106,-0.750,-0.305
14.108,-0.745,-0.300
14.111,-0.740,-0.295
14.114,-0.735,-0.285
14.117,-0.740,-0.290
14.119,-0.745,-0.290
14.122,-0.745,-0.300
14.125,-0.770,-0.300
14.128,-0.780,-0.305
14.131,-0.790,-0.310
14.133,-0.785,-0.315
14.136,-0.790,-0.310
14.139,-0.785,-0.310
14.142,-0.790,-0.290
14.144,-0.780,-0.285
14.147,-0.770,-0.285
14.150,-0.765,-0.270
14.153,-0.775,-0.280
14.156,-0.785,-0.280
14.158,-0.800,-0.285
14.161,-0.815,-0.290
14.164,-0.820,-0.305
14.167,-0.825,-0.315
14.169,-0.830,-0.280
14.172,-0.830,-0.270
14.175,-0.830,-0.270
14.178,-0.825,-0.260
14.181,-0.835,-0.260
14.183,-0.820,-0.245
14.186,-0.830,-0.260
14.189,-0.825,-0.260
14.192,-0.845,-0.260
14.194,-0.855,-0.260
14.197,-0.875,-0.265
14.200,-0.880,-0.260
14.203,-0.895,-0.250
14.206,-0.890,-0.240
14.208,-0.895,-0.220
14.211,-0.905,-0.205
14.214,-0.885,-0.205
14.217,-0.875,-0.195
14.219,-0.860,-0.185
14.222,-0.870,-0.175
14.225,-0.885,-0.180
14.228,-0.900,-0.180
14.231,-0.885,-0.190
14.233,-0.880,-0.185
14.236,-0.880,-0.175
14.239,-0.870,-0.155
14.242,-0.845,-0.145
14.244,-0.850,-0.140
14.247,-0.825,-0.155
14.250,-0.805,-0.140
14.253,-0.790,-0.150
14.256,-0.785,-0.155
14.258,-0.775,-0.165
14.261,-0.765,-0.170
14.264,-0.760,-0.175
14.267,-0.735,-0.185
14.269,-0.730,-0.185
14.272,-0.715,-0.175
14.275,-0.690,-0.190
14.278,-0.665,-0.185
14.281,-0.640,-0.180
14.283,-0.640,-0.195
14.286,-0.635,-0.200
14.289,-0.615,-0.205
14.292,-0.610,-0.225
14.294,-0.615,-0.250
14.297,-0.610,-0.260
14.300,-0.610,-0.270
14.303,-0.605,-0.270
14.306,-0.600,-0.260
14.308,-0.605,-0.280
14.311,-0.585,-0.265
14.314,-0.575,-0.275
14.317,-0.565,-0.280
14.319,-0.570,-0.295
14.322,-0.570,-0.290
14.325,-0.570,-0.305
14.328,-0.590,-0.320
14.331,-0.580,-0.330
14.333,-0.600,-0.330
14.336,-0.600,-0.325
14.339,-0.605,-0.335
14.342,-0.605,-0.325
14.344,-0.595,-0.320
14.347,-0.590,-0.325
14.350,-0.580,-0.310
14.353,-0.575,-0.325
14.356,-0.585,-0.325
14.358,-0.580,-0.325
14.361,-0.590,-0.340
14.364,-0.600,-0.350
14.367,-0.605,-0.350
14.369,-0.615,-0.355
14.372,-0.610,-0.355
14.375,-0.610,-0.335
14.378,-0.610,-0.345
14.381,-0.605,-0.340
14.383,-0.600,-0.330
14.386,-0.590,-0.350
14.389,-0.600,-0.350
14.392,-0.610,-0.350
14.394,-0.620,-0.365
14.397,-0.620,-0.355
14.400,-0.630,-0.365
14.403,-0.635,-0.355
14.406,-0.640,-0.365
14.408,-0.635,-0.345
14.411,-0.640,-0.340
14.414,-0.630,-0.345
14.417,-0.625,-0.325
14.419,-0.625,-0.350
14.422,-0.630,-0.340
14.425,-0.635,-0.345
14.428,-0.635,-0.370
14.431,-0.640,-0.375
14.433,-0.645,-0.365
14.436,-0.650,-0.350
14.439,-0.655,-0.350
14.442,-0.660,-0.350
14.444,-0.635,-0.340
14.447,-0.640,-0.330
14.450,-0.635,-0.330
14.453,-0.630,-0.325
14.456,-0.640,-0.340
14.458,-0.645,-0.345
14.461,-0.640,-0.350
14.464,-0.640,-0.355
14.467,-0.655,-0.350
14.469,-0.655,-0.345
14.472,-0.640,-0.345
14.475,-0.640,-0.340
14.478,-0.625,-0.335
14.481,-0.620,-0.325
14.483,-0.625,-0.320
14.486,-0.605,-0.325
14.489,-0.605,-0.335
14.492,-0.605,-0.350
14.494,-0.605,-0.345
14.497,-0.610,-0.365
14.500,-0.605,-0.345
14.503,-0.600,-0.355
14.506,-0.590,-0.355
14.508,-0.570,-0.345
14.511,-0.560,-0.340
14.514,-0.550,-0.335
14.517,-0.545,-0.320
14.519,-0.535,-0.325
14.522,-0.540,-0.330
14.525,-0.540,-0.345
14.528,-0.545,-0.350
14.531,-0.540,-0.355
14.533,-0.560,-0.355
14.536,-0.540,-0.350
14.539,-0.550,-0.335
14.542,-0.530,-0.320
14.544,-0.510,-0.325
14.547,-0.500,-0.305
14.550,-0.490,-0.310
14.553,-0.480,-0.315
14.556,-0.465,-0.330
14.558,-0.460,-0.335
14.561,-0.450,-0.340
14.564,-0.445,-0.355
14.567,-0.450,-0.365
14.569,-0.445,-0.360
14.572,-0.445,-0.380
14.575,-0.455,-0.380
14.578,-0.455,-0.395
14.581,-0.450,-0.395
14.583,-0.440,-0.420
14.586,-0.450,-0.420
14.589,-0.465,-0.415
14.592,-0.475,-0.415
14.594,-0.505,-0.410
14.597,-0.520,-0.410
14.600,-0.540,-0.405
14.603,-0.555,-0.390
14.606,-0.560,-0.375
14.608,-0.565,-0.370
14.611,-0.580,-0.355
14.614,-0.585,-0.355
14.617,-0.580,-0.340
14.619,-0.590,-0.345
14.622,-0.610,-0.345
14.625,-0.625,-0.360
14.628,-0.630,-0.365
14.631,-0.625,-0.380
14.633,-0.630,-0.385
14.636,-0.635,-0.375
14.639,-0.625,-0.365
14.642,-0.620,-0.350
14.644,-0.610,-0.360
14.647,-0.605,-0.360
14.650,-0.595,-0.355
14.653,-0.595,-0.355
14.656,-0.600,-0.370
14.658,-0.595,-0.375
14.661,-0.610,-0.380
14.664,-0.600,-0.395
14.667,-0.605,-0.400
14.669,-0.600,-0.380
14.672,-0.595,-0.385
14.675,-0.570,-0.380
14.678,-0.550,-0.380
14.681,-0.530,-0.375
14.683,-0.490,-0.370
14.686,-0.450,-0.380
14.689,-0.405,-0.380
14.692,-0.330,-0.400
14.694,-0.255,-0.400
14.697,-0.130,-0.405
14.700,0.010,-0.420
14.703,0.165,-0.425
14.706,0.380,-0.455
14.708,0.625,-0.495
14.711,0.825,-0.570
14.714,1.010,-0.650
14.717,1.145,-0.760
14.719,1.250,-0.885
14.722,1.315,-0.990
14.725,1.385,-1.110
14.728,1.430,-1.230
14.731,1.380,-1.340
14.733,1.185,-1.460
14.736,0.865,-1.540
14.739,0.480,-1.595
14.742,0.075,-1.610
14.744,-0.295,-1.565
14.747,-0.560,-1.495
14.750,-0.710,-1.370
14.753,-0.775,-1.255
14.756,-0.770,-1.145
14.758,-0.750,-1.055
14.761,-0.750,-0.975
14.764,-0.730,-0.895
14.767,-0.725,-0.850
14.769,-0.715,-0.790
14.772,-0.725,-0.715
14.775,-0.705,-0.660
14.778,-0.700,-0.585
14.781,-0.685,-0.505
14.783,-0.690,-0.445
14.786,-0.675,-0.430
14.789,-0.690,-0.395
14.792,-0.700,-0.395
14.794,-0.710,-0.400
14.797,-0.725,-0.390
14.800,-0.730,-0.405
14.803,-0.735,-0.385
14.806,-0.730,-0.390
14.808,-0.740,-0.370
14.811,-0.735,-0.360
14.814,-0.730,-0.345
14.817,-0.725,-0.340
14.819,-0.720,-0.350
14.822,-0.730,-0.350
14.825,-0.740,-0.350
14.828,-0.745,-0.350
14.831,-0.755,-0.360
14.833,-0.760,-0.360
14.836,-0.780,-0.355
14.839,-0.770,-0.350
14.842,-0.775,-0.340
14.844,-0.765,-0.350
14.847,-0.765,-0.330
14.850,-0.755,-0.320
14.853,-0.760,-0.315
14.856,-0.760,-0.320
14.858,-0.760,-0.325
14.861,-0.775,-0.340
14.864,-0.785,-0.335
14.867,-0.795,-0.330
14.869,-0.800,-0.330
14.872,-0.805,-0.340
14.875,-0.800,-0.325
14.878,-0.805,-0.310
14.881,-0.800,-0.305
14.883,-0.795,-0.295
14.886,-0.785,-0.300
14.889,-0.795,-0.310
14.892,-0.810,-0.310
14.894,-0.815,-0.310
14.897,-0.835,-0.315
14.900,-0.855,-0.310
14.903,-0.850,-0.305
14.906,-0.860,-0.295
14.908,-0.855,-0.290
14.911,-0.855,-0.280
14.914,-0.855,-0.275
14.917,-0.850,-0.270
14.919,-0.850,-0.260
14.922,-0.860,-0.275
14.925,-0.875,-0.275
14.928,-0.880,-0.265
14.931,-0.880,-0.275
14.933,-0.895,-0.260
14.936,-0.905,-0.260
14.939,-0.905,-0.255
14.942,-0.900,-0.235
14.944,-0.890,-0.215
14.947,-0.890,-0.200
14.950,-0.880,-0.210
14.953,-0.880,-0.195
14.956,-0.880,-0.205
14.958,-0.885,-0.195
14.961,-0.885,-0.205
14.964,-0.885,-0.210
14.967,-0.885,-0.200
14.969,-0.880,-0.195
14.972,-0.885,-0.195
14.975,-0.865,-0.180
14.978,-0.855,-0.170
14.981,-0.845,-0.150
14.983,-0.835,-0.160
14.986,-0.815,-0.170
14.989,-0.815,-0.170
14.992,-0.795,-0.180
14.994,-0.785,-0.190
14.997,-0.770,-0.190
15.000,-0.775,-0.210
15.003,-0.755,-0.205
15.006,-0.730,-0.205
15.008,-0.715,-0.195
15.011,-0.685,-0.195
15.014,-0.670,-0.205
15.017,-0.645,-0.195
15.019,-0.630,-0.210
15.022,-0.640,-0.235
15.025,-0.625,-0.250
15.028,-0.625,-0.265
15.031,-0.615,-0.275
15.033,-0.625,-0.290
15.036,-0.625,-0.295
15.039,-0.615,-0.295
15.042,-0.605,-0.295
15.044,-0.600,-0.300
15.047,-0.595,-0.290
15.050,-0.590,-0.290
15.053,-0.580,-0.310
15.056,-0.570,-0.310
15.058,-0.580,-0.330
15.061,-0.595,-0.335
15.064,-0.585,-0.340
15.067,-0.595,-0.350
15.069,-0.600,-0.345
15.072,-0.605,-0.340
15.075,-0.590,-0.340
15.078,-0.585,-0.330
15.081,-0.585,-0.335
15.083,-0.575,-0.335
15.086,-0.575,-0.350
15.089,-0.590,-0.350
15.092,-0.600,-0.355
15.094,-0.615,-0.360
15.097,-0.620,-0.370
15.100,-0.640,-0.375
15.103,-0.630,-0.365
15.106,-0.630,-0.380
15.108,-0.640,-0.360
15.111,-0.625,-0.350
15.114,-0.605,-0.365
15.117,-0.600,-0.350
15.119,-0.610,-0.370
15.122,-0.610,-0.360
15.125,-0.610,-0.365
15.128,-0.620,-0.380
15.131,-0.640,-0.380
15.133,-0.635,-0.385
15.136,-0.655,-0.370
15.139,-0.655,-0.375
15.142,-0.655,-0.350
15.144,-0.640,-0.355
15.147,-0.635,-0.340
15.150,-0.635,-0.340
15.153,-0.640,-0.350
15.156,-0.630,-0.360
15.158,-0.640,-0.370
15.161,-0.645,-0.365
15.164,-0.660,-0.370
15.167,-0.650,-0.370
15.169,-0.660,-0.360
15.172,-0.675,-0.345
15.175,-0.645,-0.345
15.178,-0.650,-0.340
15.181,-0.650,-0.340
15.183,-0.640,-0.345
15.186,-0.635,-0.340
15.189,-0.650,-0.340
15.192,-0.635,-0.355
15.194,-0.635,-0.355
15.197,-0.650,-0.365
15.200,-0.645,-0.365
15.203,-0.640,-0.355
15.206,-0.645,-0.355
15.208,-0.635,-0.350
15.211,-0.620,-0.340
15.214,-0.625,-0.335
15.217,-0.605,-0.330
15.219,-0.605,-0.330
15.222,-0.605,-0.335
15.225,-0.605,-0.340
15.228,-0.610,-0.345
15.231,-0.630,-0.355
15.233,-0.625,-0.365
15.236,-0.620,-0.360
15.239,-0.605,-0.360
15.242,-0.595,-0.345
15.244,-0.585,-0.335
15.247,-0.575,-0.335
15.250,-0.565,-0.325
15.253,-0.555,-0.345
15.256,-0.540,-0.335
15.258,-0.545,-0.345
15.261,-0.560,-0.350
15.264,-0.565,-0.355
15.267,-0.560,-0.350
15.269,-0.550,-0.345
15.272,-0.550,-0.335
15.275,-0.550,-0.335
15.278,-0.535,-0.330
15.281,-0.515,-0.305
15.283,-0.500,-0.305
15.286,-0.480,-0.315
15.289,-0.470,-0.305
15.292,-0.455,-0.325
15.294,-0.465,-0.325
15.297,-0.450,-0.350
15.300,-0.460,-0.355
15.303,-0.460,-0.355
15.306,-0.445,-0.375
15.308,-0.445,-0.375
15.311,-0.435,-0.375
15.314,-0.445,-0.385
15.317,-0.440,-0.395
15.319,-0.445,-0.400
15.322,-0.460,-0.410
15.325,-0.475,-0.410
15.328,-0.485,-0.405
15.331,-0.500,-0.405
15.333,-0.530,-0.405
15.336,-0.540,-0.395
15.339,-0.550,-0.385
15.342,-0.550,-0.375
15.344,-0.555,-0.360
15.347,-0.565,-0.355
15.350,-0.565,-0.345
15.353,-0.580,-0.345
15.356,-0.590,-0.345
15.358,-0.620,-0.365
15.361,-0.625,-0.355
15.364,-0.635,-0.360
15.367,-0.650,-0.370
15.369,-0.660,-0.355
15.372,-0.655,-0.345
15.375,-0.640,-0.345
15.378,-0.635,-0.345
15.381,-0.635,-0.330
15.383,-0.620,-0.325
15.386,-0.610,-0.335
15.389,-0.610,-0.340
15.392,-0.625,-0.345
15.394,-0.625,-0.350
15.397,-0.630,-0.360
15.400,-0.625,-0.370
15.403,-0.630,-0.360
15.406,-0.640,-0.360
15.408,-0.630,-0.350
15.411,-0.605,-0.360
15.414,-0.605,-0.335
15.417,-0.590,-0.350
15.419,-0.575,-0.345
15.422,-0.565,-0.350
15.425,-0.555,-0.360
15.428,-0.535,-0.370
15.431,-0.515,-0.380
15.433,-0.475,-0.380
15.436,-0.395,-0.370
15.439,-0.280,-0.380
15.442,-0.135,-0.370
15.444,0.025,-0.365
15.447,0.220,-0.380
15.450,0.435,-0.420
15.453,0.645,-0.485
15.456,0.840,-0.560
15.458,1.005,-0.675
15.461,1.135,-0.805
15.464,1.220,-0.925
15.467,1.310,-1.035
15.469,1.360,-1.145
15.472,1.380,-1.245
15.475,1.295,-1.340
15.478,1.095,-1.440
15.481,0.780,-1.515
15.483,0.425,-1.565
15.486,0.050,-1.590
15.489,-0.280,-1.565
15.492,-0.525,-1.510
15.494,-0.670,-1.430
15.497,-0.745,-1.325
15.500,-0.755,-1.230
15.503,-0.760,-1.115
15.506,-0.745,-1.025
15.508,-0.740,-0.935
15.511,-0.750,-0.865
15.514,-0.735,-0.795
15.517,-0.725,-0.715
15.519,-0.720,-0.665
15.522,-0.705,-0.590
15.525,-0.700,-0.525
15.528,-0.695,-0.475
15.531,-0.710,-0.430
15.533,-0.715,-0.405
15.536,-0.735,-0.390
15.539,-0.730,-0.365
15.542,-0.730,-0.365
15.544,-0.725,-0.345
15.547,-0.730,-0.350
15.550,-0.720,-0.330
15.553,-0.725,-0.345
15.556,-0.730,-0.335
15.558,-0.725,-0.330
15.561,-0.740,-0.335
15.564,-0.740,-0.335
15.567,-0.750,-0.345
15.569,-0.765,-0.330
15.572,-0.770,-0.325
15.575,-0.775,-0.315
15.578,-0.760,-0.310
15.581,-0.765,-0.305
15.583,-0.750,-0.305
15.586,-0.760,-0.315
15.589,-0.755,-0.320
15.592,-0.765,-0.315
15.594,-0.780,-0.330
15.597,-0.775,-0.335
15.600,-0.795,-0.335
15.603,-0.790,-0.320
15.606,-0.785,-0.310
15.608,-0.790,-0.310
15.611,-0.790,-0.310
15.614,-0.780,-0.295
15.617,-0.795,-0.290
15.619,-0.790,-0.295
15.622,-0.780,-0.290
15.625,-0.790,-0.295
15.628,-0.805,-0.305
15.631,-0.815,-0.310
15.633,-0.825,-0.310
15.636,-0.830,-0.300
15.639,-0.825,-0.290
15.642,-0.835,-0.290
15.644,-0.825,-0.280
15.647,-0.830,-0.270
15.650,-0.820,-0.265
15.653,-0.815,-0.260
15.656,-0.830,-0.270
15.658,-0.830,-0.275
15.661,-0.850,-0.270
15.664,-0.870,-0.265
15.667,-0.875,-0.275
15.669,-0.880,-0.270
15.672,-0.885,-0.260
15.675,-0.880,-0.250
15.678,-0.890,-0.240
15.681,-0.885,-0.215
15.683,-0.880,-0.210
15.686,-0.880,-0.215
15.689,-0.885,-0.200
15.692,-0.890,-0.215
15.694,-0.910,-0.220
15.697,-0.900,-0.215
15.700,-0.905,-0.215
15.703,-0.915,-0.205
15.706,-0.900,-0.190
15.708,-0.900,-0.175
15.711,-0.895,-0.165
15.714,-0.890,-0.160
15.717,-0.875,-0.145
15.719,-0.875,-0.150
15.722,-0.865,-0.145
15.725,-0.865,-0.150
15.728,-0.865,-0.155
15.731,-0.855,-0.160
15.733,-0.860,-0.165
15.736,-0.850,-0.165
15.739,-0.835,-0.155
15.742,-0.820,-0.145
15.744,-0.795,-0.140
15.747,-0.775,-0.145
15.750,-0.750,-0.140
15.753,-0.740,-0.160
15.756,-0.725,-0.155
15.758,-0.720,-0.180
15.761,-0.710,-0.185
15.764,-0.695,-0.200
15.767,-0.700,-0.215
15.769,-0.690,-0.200
15.772,-0.680,-0.220
15.775,-0.670,-0.215
15.778,-0.650,-0.220
15.781,-0.645,-0.210
15.783,-0.640,-0.220
15.786,-0.625,-0.240
15.789,-0.625,-0.235
15.792,-0.615,-0.255
15.794,-0.625,-0.270
15.797,-0.640,-0.275
15.800,-0.635,-0.285
15.803,-0.620,-0.275
15.806,-0.625,-0.285
15.808,-0.630,-0.280
15.811,-0.610,-0.280
15.814,-0.610,-0.280
15.817,-0.600,-0.270
15.819,-0.595,-0.285
15.822,-0.600,-0.295
15.825,-0.610,-0.305
15.828,-0.615,-0.320
15.831,-0.625,-0.330
15.833,-0.630,-0.335
15.836,-0.625,-0.325
15.839,-0.620,-0.325
15.842,-0.610,-0.320
15.844,-0.615,-0.325
15.847,-0.615,-0.320
15.850,-0.620,-0.300
15.853,-0.635,-0.315
15.856,-0.625,-0.315
15.858,-0.620,-0.335
15.861,-0.625,-0.345
15.864,-0.640,-0.350
15.867,-0.640,-0.350
15.869,-0.650,-0.350
15.872,-0.650,-0.335
15.875,-0.665,-0.340
15.878,-0.655,-0.325
15.881,-0.655,-0.325
15.883,-0.660,-0.320
15.886,-0.650,-0.320
15.889,-0.650,-0.320
15.892,-0.655,-0.335
15.894,-0.655,-0.335
15.897,-0.675,-0.340
15.900,-0.690,-0.345
15.903,-0.695,-0.340
15.906,-0.700,-0.330
15.908,-0.680,-0.330
15.911,-0.680,-0.325
15.914,-0.660,-0.315
15.917,-0.675,-0.310
15.919,-0.655,-0.305
15.922,-0.660,-0.315
15.925,-0.665,-0.315
15.928,-0.675,-0.320
15.931,-0.685,-0.330
15.933,-0.680,-0.335
15.936,-0.675,-0.335
15.939,-0.675,-0.320
15.942,-0.675,-0.325
15.944,-0.660,-0.315
15.947,-0.660,-0.315
15.950,-0.645,-0.300
15.953,-0.650,-0.300
15.956,-0.655,-0.305
15.958,-0.655,-0.320
15.961,-0.655,-0.315
15.964,-0.665,-0.320
15.967,-0.665,-0.335
15.969,-0.675,-0.325
15.972,-0.670,-0.310
15.975,-0.660,-0.310
15.978,-0.640,-0.305
15.981,-0.640,-0.290
15.983,-0.620,-0.290
15.986,-0.625,-0.295
15.989,-0.630,-0.305
15.992,-0.620,-0.305
15.994,-0.635,-0.315
15.997,-0.630,-0.330
16.000,-0.630,-0.335
16.003,-0.620,-0.320
16.006,-0.615,-0.325
16.008,-0.610,-0.315
16.011,-0.595,-0.315
16.014,-0.590,-0.300
16.017,-0.565,-0.295
16.019,-0.560,-0.295
16.022,-0.565,-0.305
16.025,-0.565,-0.300
16.028,-0.560,-0.310
16.031,-0.565,-0.310
16.033,-0.570,-0.315
16.036,-0.570,-0.300
16.039,-0.560,-0.300
16.042,-0.555,-0.290
16.044,-0.540,-0.295
16.047,-0.515,-0.280
16.050,-0.505,-0.270
16.053,-0.490,-0.275
16.056,-0.470,-0.300
16.058,-0.460,-0.315
16.061,-0.460,-0.320
16.064,-0.465,-0.340
16.067,-0.465,-0.365
16.069,-0.480,-0.365
16.072,-0.485,-0.380
16.075,-0.485,-0.395
16.078,-0.485,-0.390
16.081,-0.470,-0.380
16.083,-0.475,-0.370
16.086,-0.485,-0.370
16.089,-0.510,-0.365
16.092,-0.535,-0.365
16.094,-0.545,-0.360
16.097,-0.560,-0.365
16.100,-0.580,-0.365
16.103,-0.590,-0.355
16.106,-0.600,-0.350
16.108,-0.605,-0.330
16.111,-0.620,-0.325
16.114,-0.620,-0.320
16.117,-0.625,-0.305
16.119,-0.635,-0.320
16.122,-0.635,-0.315
16.125,-0.630,-0.335
16.128,-0.645,-0.335
16.131,-0.650,-0.335
16.133,-0.655,-0.340
16.136,-0.655,-0.350
16.139,-0.655,-0.340
16.142,-0.650,-0.340
16.144,-0.635,-0.320
16.147,-0.635,-0.325
16.150,-0.620,-0.305
16.153,-0.630,-0.325
16.156,-0.620,-0.330
16.158,-0.620,-0.335
16.161,-0.615,-0.350
16.164,-0.625,-0.345
16.167,-0.620,-0.350
16.169,-0.615,-0.340
16.172,-0.600,-0.350
16.175,-0.600,-0.340
16.178,-0.575,-0.345
16.181,-0.555,-0.340
16.183,-0.515,-0.320
16.186,-0.475,-0.335
16.189,-0.410,-0.340
16.192,-0.350,-0.350
16.194,-0.275,-0.360
16.197,-0.165,-0.365
16.200,-0.055,-0.375
16.203,0.070,-0.360
16.206,0.225,-0.385
16.208,0.390,-0.405
16.211,0.580,-0.440
16.214,0.775,-0.495
16.217,0.945,-0.575
16.219,1.075,-0.680
16.222,1.180,-0.800
16.225,1.250,-0.920
16.228,1.315,-1.030
16.231,1.375,-1.150
16.233,1.355,-1.255
16.236,1.235,-1.375
16.239,0.980,-1.465
16.242,0.620,-1.550
16.244,0.200,-1.585
16.247,-0.195,-1.580
16.250,-0.515,-1.505
16.253,-0.710,-1.400
16.256,-0.810,-1.275
16.258,-0.825,-1.150
16.261,-0.800,-1.040
16.264,-0.780,-0.965
16.267,-0.745,-0.885
16.269,-0.735,-0.820
16.272,-0.725,-0.740
16.275,-0.710,-0.665
16.278,-0.715,-0.590
16.281,-0.705,-0.525
16.283,-0.695,-0.455
16.286,-0.705,-0.420
16.289,-0.710,-0.390
16.292,-0.720,-0.380
16.294,-0.735,-0.370
16.297,-0.740,-0.370
16.300,-0.740,-0.370
16.303,-0.750,-0.355
16.306,-0.755,-0.350
16.308,-0.765,-0.350
16.311,-0.750,-0.335
16.314,-0.740,-0.315
16.317,-0.735,-0.310
16.319,-0.745,-0.315
16.322,-0.745,-0.310
16.325,-0.755,-0.320
16.328,-0.755,-0.330
16.331,-0.760,-0.325
16.333,-0.765,-0.340
16.336,-0.775,-0.335
16.339,-0.775,-0.320
16.342,-0.780,-0.305
16.344,-0.770,-0.300
16.347,-0.780,-0.290
16.350,-0.775,-0.295
16.353,-0.775,-0.300
16.356,-0.775,-0.295
16.358,-0.795,-0.310
16.361,-0.800,-0.315
16.364,-0.800,-0.320
16.367,-0.810,-0.330
16.369,-0.820,-0.320
16.372,-0.810,-0.310
16.375,-0.805,-0.315
16.378,-0.805,-0.305
16.381,-0.805,-0.295
16.383,-0.800,-0.290
16.386,-0.810,-0.285
