'Elapsed time','MLII','V1'
'seconds','mV','mV'
0.000,-0.200,0.075
0.003,-0.200,0.075
0.006,-0.200,0.075
0.008,-0.200,0.075
0.011,-0.200,0.075
0.014,-0.200,0.075
0.017,-0.200,0.075
0.019,-0.200,0.075
0.022,-0.185,0.075
0.025,-0.185,0.080
0.028,-0.190,0.075
0.031,-0.195,0.060
0.033,-0.210,0.060
0.036,-0.210,0.060
0.039,-0.195,0.065
0.042,-0.190,0.065
0.044,-0.180,0.075
0.047,-0.180,0.080
0.050,-0.175,0.090
0.053,-0.165,0.085
0.056,-0.170,0.085
0.058,-0.175,0.065
0.061,-0.185,0.060
0.064,-0.195,0.065
0.067,-0.195,0.065
0.069,-0.225,0.055
0.072,-0.225,0.060
0.075,-0.225,0.075
0.078,-0.210,0.075
0.081,-0.215,0.085
0.083,-0.195,0.085
0.086,-0.205,0.085
0.089,-0.210,0.080
0.092,-0.215,0.070
0.094,-0.225,0.065
0.097,-0.230,0.065
0.100,-0.240,0.060
0.103,-0.245,0.060
0.106,-0.260,0.055
0.108,-0.250,0.065
0.111,-0.240,0.065
0.114,-0.235,0.085
0.117,-0.245,0.090
0.119,-0.245,0.080
0.122,-0.245,0.080
0.125,-0.260,0.070
0.128,-0.255,0.060
0.131,-0.260,0.060
0.133,-0.265,0.060
0.136,-0.260,0.065
0.139,-0.275,0.065
0.142,-0.265,0.060
0.144,-0.265,0.070
0.147,-0.270,0.080
0.150,-0.275,0.095
0.153,-0.265,0.080
0.156,-0.270,0.085
0.158,-0.275,0.070
0.161,-0.275,0.060
0.164,-0.285,0.060
0.167,-0.280,0.055
0.169,-0.285,0.055
0.172,-0.275,0.065
0.175,-0.275,0.075
0.178,-0.270,0.075
0.181,-0.265,0.095
0.183,-0.265,0.085
0.186,-0.265,0.080
0.189,-0.270,0.065
0.192,-0.290,0.075
0.194,-0.275,0.080
0.197,-0.280,0.070
0.200,-0.295,0.065
0.203,-0.285,0.065
0.206,-0.295,0.070
0.208,-0.295,0.075
0.211,-0.285,0.085
0.214,-0.290,0.085
0.217,-0.280,0.085
0.219,-0.270,0.085
0.222,-0.285,0.075
0.225,-0.275,0.075
0.228,-0.280,0.060
0.231,-0.285,0.055
0.233,-0.290,0.050
0.236,-0.295,0.045
0.239,-0.295,0.055
0.242,-0.300,0.065
0.244,-0.290,0.085
0.247,-0.290,0.075
0.250,-0.290,0.080
0.253,-0.275,0.085
0.256,-0.280,0.085
0.258,-0.280,0.070
0.261,-0.285,0.065
0.264,-0.300,0.070
0.267,-0.300,0.060
0.269,-0.305,0.075
0.272,-0.295,0.070
0.275,-0.295,0.080
0.278,-0.290,0.085
0.281,-0.280,0.090
0.283,-0.285,0.085
0.286,-0.280,0.100
0.289,-0.265,0.105
0.292,-0.285,0.110
0.294,-0.285,0.105
0.297,-0.275,0.105
0.300,-0.275,0.125
0.303,-0.270,0.140
0.306,-0.260,0.155
0.308,-0.260,0.160
0.311,-0.230,0.160
0.314,-0.210,0.170
0.317,-0.205,0.155
0.319,-0.200,0.140
0.322,-0.190,0.135
0.325,-0.180,0.120
0.328,-0.185,0.105
0.331,-0.160,0.095
0.333,-0.145,0.085
0.336,-0.135,0.075
0.339,-0.105,0.080
0.342,-0.095,0.090
0.344,-0.100,0.080
0.347,-0.100,0.080
0.350,-0.110,0.075
0.353,-0.125,0.080
0.356,-0.125,0.060
0.358,-0.140,0.050
0.361,-0.155,0.045
0.364,-0.170,0.045
0.367,-0.180,0.050
0.369,-0.200,0.050
0.372,-0.205,0.055
0.375,-0.215,0.060
0.378,-0.235,0.060
0.381,-0.250,0.065
0.383,-0.255,0.070
0.386,-0.275,0.060
0.389,-0.290,0.055
0.392,-0.285,0.050
0.394,-0.300,0.045
0.397,-0.305,0.030
0.400,-0.310,0.030
0.403,-0.315,0.035
0.406,-0.315,0.030
0.408,-0.320,0.050
0.411,-0.310,0.055
0.414,-0.300,0.065
0.417,-0.300,0.065
0.419,-0.300,0.060
0.422,-0.295,0.060
0.425,-0.295,0.045
0.428,-0.295,0.045
0.431,-0.300,0.040
0.433,-0.310,0.050
0.436,-0.320,0.035
0.439,-0.315,0.050
0.442,-0.310,0.065
0.444,-0.305,0.060
0.447,-0.285,0.065
0.450,-0.290,0.085
0.453,-0.285,0.075
0.456,-0.290,0.095
0.458,-0.300,0.110
0.461,-0.315,0.140
0.464,-0.340,0.175
0.467,-0.375,0.195
0.469,-0.430,0.200
0.472,-0.500,0.195
0.475,-0.550,0.175
0.478,-0.545,0.140
0.481,-0.480,0.090
0.483,-0.285,0.030
0.486,-0.005,-0.020
0.489,0.365,-0.055
0.492,0.760,-0.085
0.494,1.120,-0.105
0.497,1.395,-0.125
0.500,1.520,-0.115
0.503,1.430,-0.105
0.506,1.140,-0.105
0.508,0.675,-0.070
0.511,0.175,-0.010
0.514,-0.195,0.110
0.517,-0.420,0.265
0.519,-0.500,0.435
0.522,-0.485,0.590
0.525,-0.470,0.720
0.528,-0.480,0.805
0.531,-0.565,0.860
0.533,-0.665,0.895
0.536,-0.780,0.930
0.539,-0.915,0.960
0.542,-1.010,1.000
0.544,-1.060,1.005
0.547,-1.090,0.990
0.550,-1.075,0.930
0.553,-1.035,0.870
0.556,-0.995,0.795
0.558,-0.910,0.695
0.561,-0.830,0.600
0.564,-0.750,0.510
0.567,-0.670,0.405
0.569,-0.575,0.310
0.572,-0.505,0.245
0.575,-0.440,0.195
0.578,-0.380,0.175
0.581,-0.350,0.150
0.583,-0.325,0.140
0.586,-0.325,0.130
0.589,-0.310,0.125
0.592,-0.320,0.105
0.594,-0.300,0.105
0.597,-0.305,0.090
0.600,-0.295,0.070
0.603,-0.305,0.070
0.606,-0.300,0.065
0.608,-0.290,0.060
0.611,-0.270,0.070
0.614,-0.250,0.070
0.617,-0.240,0.060
0.619,-0.245,0.065
0.622,-0.250,0.065
0.625,-0.245,0.050
0.628,-0.250,0.040
0.631,-0.245,0.035
0.633,-0.255,0.040
0.636,-0.255,0.025
0.639,-0.255,0.045
0.642,-0.225,0.045
0.644,-0.230,0.050
0.647,-0.220,0.065
0.650,-0.205,0.050
0.653,-0.210,0.050
0.656,-0.210,0.050
0.658,-0.210,0.035
0.661,-0.205,0.030
0.664,-0.215,0.020
0.667,-0.215,0.035
0.669,-0.210,0.015
0.672,-0.205,0.025
0.675,-0.200,0.040
0.678,-0.190,0.030
0.681,-0.180,0.035
0.683,-0.175,0.050
0.686,-0.170,0.035
0.689,-0.175,0.035
0.692,-0.170,0.025
0.694,-0.175,0.030
0.697,-0.175,0.020
0.700,-0.155,0.010
0.703,-0.160,0.010
0.706,-0.155,0.000
0.708,-0.145,0.005
0.711,-0.130,0.010
0.714,-0.115,0.020
0.717,-0.105,0.020
0.719,-0.095,0.015
0.722,-0.080,0.010
0.725,-0.085,-0.010
0.728,-0.075,-0.015
0.731,-0.075,-0.010
0.733,-0.080,-0.025
0.736,-0.070,-0.025
0.739,-0.060,-0.025
0.742,-0.045,-0.015
0.744,-0.050,-0.010
0.747,-0.010,-0.010
0.750,-0.010,0.000
0.753,0.005,-0.010
0.756,0.010,-0.010
0.758,0.010,-0.020
0.761,0.015,-0.030
0.764,0.030,-0.050
0.767,0.040,-0.055
0.769,0.040,-0.060
0.772,0.060,-0.055
0.775,0.075,-0.045
0.778,0.095,-0.050
0.781,0.110,-0.050
0.783,0.125,-0.050
0.786,0.150,-0.070
0.789,0.155,-0.060
0.792,0.180,-0.075
0.794,0.170,-0.070
0.797,0.185,-0.090
0.800,0.190,-0.085
0.803,0.210,-0.100
0.806,0.210,-0.095
0.808,0.220,-0.090
0.811,0.235,-0.085
0.814,0.250,-0.085
0.817,0.270,-0.090
0.819,0.280,-0.080
0.822,0.285,-0.080
0.825,0.280,-0.090
0.828,0.295,-0.095
0.831,0.280,-0.115
0.833,0.295,-0.115
0.836,0.290,-0.110
0.839,0.300,-0.095
0.842,0.305,-0.085
0.844,0.320,-0.065
0.847,0.325,-0.065
0.850,0.325,-0.065
0.853,0.325,-0.060
0.856,0.315,-0.075
0.858,0.320,-0.070
0.861,0.305,-0.080
0.864,0.290,-0.070
0.867,0.280,-0.070
0.869,0.255,-0.055
0.872,0.240,-0.035
0.875,0.235,-0.015
0.878,0.210,-0.005
0.881,0.190,0.010
0.883,0.185,0.020
0.886,0.165,0.020
0.889,0.130,0.035
0.892,0.115,0.045
0.894,0.095,0.055
0.897,0.070,0.045
0.900,0.045,0.045
0.903,0.020,0.065
0.906,0.005,0.075
0.908,-0.020,0.095
0.911,-0.025,0.090
0.914,-0.030,0.105
0.917,-0.040,0.120
0.919,-0.055,0.115
0.922,-0.065,0.125
0.925,-0.075,0.115
0.928,-0.095,0.120
0.931,-0.125,0.115
0.933,-0.130,0.120
0.936,-0.145,0.115
0.939,-0.140,0.130
0.942,-0.150,0.140
0.944,-0.150,0.145
0.947,-0.145,0.145
0.950,-0.140,0.150
0.953,-0.145,0.145
0.956,-0.150,0.155
0.958,-0.160,0.150
0.961,-0.165,0.135
0.964,-0.180,0.135
0.967,-0.180,0.140
0.969,-0.180,0.135
0.972,-0.175,0.140
0.975,-0.165,0.140
0.978,-0.170,0.155
0.981,-0.170,0.155
0.983,-0.145,0.155
0.986,-0.155,0.155
0.989,-0.155,0.155
0.992,-0.155,0.140
0.994,-0.180,0.145
0.997,-0.165,0.130
1.000,-0.185,0.135
1.003,-0.190,0.135
1.006,-0.175,0.150
1.008,-0.175,0.145
1.011,-0.160,0.135
1.014,-0.160,0.150
1.017,-0.160,0.155
1.019,-0.160,0.155
1.022,-0.160,0.150
1.025,-0.170,0.140
1.028,-0.175,0.135
1.031,-0.185,0.115
1.033,-0.190,0.105
1.036,-0.190,0.110
1.039,-0.190,0.125
1.042,-0.175,0.140
1.044,-0.185,0.135
1.047,-0.170,0.135
1.050,-0.160,0.145
1.053,-0.160,0.135
1.056,-0.175,0.150
1.058,-0.175,0.130
1.061,-0.180,0.140
1.064,-0.195,0.130
1.067,-0.200,0.115
1.069,-0.210,0.125
1.072,-0.220,0.115
1.075,-0.215,0.125
1.078,-0.210,0.135
1.081,-0.210,0.135
1.083,-0.210,0.125
1.086,-0.215,0.130
1.089,-0.215,0.145
1.092,-0.210,0.130
1.094,-0.220,0.115
1.097,-0.225,0.110
1.100,-0.225,0.105
1.103,-0.230,0.110
1.106,-0.225,0.115
1.108,-0.230,0.120
1.111,-0.235,0.120
1.114,-0.220,0.135
1.117,-0.205,0.140
1.119,-0.220,0.135
1.122,-0.220,0.125
1.125,-0.215,0.120
1.128,-0.220,0.115
1.131,-0.230,0.090
1.133,-0.240,0.095
1.136,-0.245,0.100
1.139,-0.235,0.105
1.142,-0.225,0.110
1.144,-0.230,0.120
1.147,-0.220,0.110
1.150,-0.210,0.120
1.153,-0.210,0.115
1.156,-0.225,0.120
1.158,-0.235,0.110
1.161,-0.230,0.105
1.164,-0.225,0.090
1.167,-0.245,0.090
1.169,-0.250,0.095
1.172,-0.235,0.105
1.175,-0.230,0.105
1.178,-0.230,0.120
1.181,-0.225,0.110
1.183,-0.225,0.115
1.186,-0.220,0.115
1.189,-0.220,0.115
1.192,-0.220,0.120
1.194,-0.240,0.110
1.197,-0.230,0.100
1.200,-0.240,0.095
1.203,-0.240,0.095
1.206,-0.240,0.095
1.208,-0.235,0.115
1.211,-0.230,0.115
1.214,-0.215,0.115
1.217,-0.210,0.105
1.219,-0.205,0.115
1.222,-0.210,0.115
1.225,-0.210,0.110
1.228,-0.215,0.105
1.231,-0.215,0.105
1.233,-0.230,0.090
1.236,-0.230,0.110
1.239,-0.235,0.100
1.242,-0.230,0.125
1.244,-0.220,0.125
1.247,-0.220,0.155
1.250,-0.210,0.165
1.253,-0.205,0.160
1.256,-0.210,0.175
1.258,-0.200,0.170
1.261,-0.200,0.170
1.264,-0.190,0.175
1.267,-0.190,0.175
1.269,-0.190,0.175
1.272,-0.180,0.185
1.275,-0.180,0.185
1.278,-0.165,0.180
1.281,-0.150,0.175
1.283,-0.135,0.170
1.286,-0.140,0.170
1.289,-0.105,0.150
1.292,-0.100,0.135
1.294,-0.080,0.135
1.297,-0.070,0.125
1.300,-0.045,0.100
1.303,-0.050,0.110
1.306,-0.045,0.095
1.308,-0.055,0.095
1.311,-0.070,0.105
1.314,-0.070,0.105
1.317,-0.085,0.115
1.319,-0.095,0.095
1.322,-0.095,0.100
1.325,-0.105,0.105
1.328,-0.100,0.100
1.331,-0.100,0.105
1.333,-0.140,0.110
1.336,-0.150,0.095
1.339,-0.170,0.085
1.342,-0.190,0.090
1.344,-0.190,0.095
1.347,-0.215,0.100
1.350,-0.215,0.095
1.353,-0.220,0.090
1.356,-0.240,0.095
1.358,-0.240,0.090
1.361,-0.245,0.080
1.364,-0.255,0.070
1.367,-0.260,0.075
1.369,-0.270,0.075
1.372,-0.260,0.095
1.375,-0.265,0.085
1.378,-0.270,0.090
1.381,-0.275,0.120
1.383,-0.275,0.115
1.386,-0.270,0.105
1.389,-0.270,0.095
1.392,-0.280,0.095
1.394,-0.275,0.080
1.397,-0.280,0.075
1.400,-0.275,0.080
1.403,-0.270,0.095
1.406,-0.260,0.095
1.408,-0.255,0.110
1.411,-0.255,0.110
1.414,-0.245,0.120
1.417,-0.250,0.125
1.419,-0.245,0.125
1.422,-0.250,0.140
1.425,-0.255,0.145
1.428,-0.270,0.170
1.431,-0.305,0.205
1.433,-0.335,0.220
1.436,-0.385,0.235
1.439,-0.460,0.215
1.442,-0.500,0.205
1.444,-0.495,0.145
1.447,-0.380,0.075
1.450,-0.145,0.015
1.453,0.215,-0.040
1.456,0.630,-0.075
1.458,1.050,-0.105
1.461,1.395,-0.100
1.464,1.585,-0.075
1.467,1.540,-0.060
1.469,1.215,-0.050
1.472,0.685,-0.015
1.475,0.140,0.065
1.478,-0.295,0.190
1.481,-0.520,0.355
1.483,-0.590,0.535
1.486,-0.565,0.690
1.489,-0.530,0.815
1.492,-0.530,0.880
1.494,-0.585,0.920
1.497,-0.665,0.945
1.500,-0.795,0.960
1.503,-0.925,0.990
1.506,-1.025,1.000
1.508,-1.065,0.990
1.511,-1.060,0.970
1.514,-1.015,0.925
1.517,-0.930,0.860
1.519,-0.845,0.775
1.522,-0.760,0.675
1.525,-0.665,0.560
1.528,-0.590,0.425
1.531,-0.500,0.315
1.533,-0.435,0.240
1.536,-0.385,0.175
1.539,-0.345,0.140
1.542,-0.310,0.135
1.544,-0.285,0.130
1.547,-0.265,0.125
1.550,-0.240,0.120
1.553,-0.230,0.115
1.556,-0.235,0.100
1.558,-0.225,0.085
1.561,-0.215,0.075
1.564,-0.220,0.060
1.567,-0.225,0.045
1.569,-0.225,0.050
1.572,-0.210,0.040
1.575,-0.215,0.060
1.578,-0.190,0.050
1.581,-0.185,0.050
1.583,-0.175,0.060
1.586,-0.170,0.055
1.589,-0.175,0.055
1.592,-0.175,0.045
1.594,-0.170,0.030
1.597,-0.185,0.020
1.600,-0.185,0.025
1.603,-0.195,0.030
1.606,-0.190,0.025
1.608,-0.190,0.035
1.611,-0.170,0.030
1.614,-0.165,0.040
1.617,-0.150,0.040
1.619,-0.160,0.035
1.622,-0.150,0.040
1.625,-0.140,0.025
1.628,-0.160,0.025
1.631,-0.160,0.010
1.633,-0.155,0.000
1.636,-0.150,-0.015
1.639,-0.160,0.000
1.642,-0.150,-0.005
1.644,-0.125,0.005
1.647,-0.120,0.020
1.650,-0.105,0.025
1.653,-0.085,0.025
1.656,-0.085,0.005
1.658,-0.070,0.000
1.661,-0.080,-0.010
1.664,-0.085,-0.010
1.667,-0.085,-0.020
1.669,-0.105,-0.010
1.672,-0.085,-0.005
1.675,-0.080,-0.020
1.678,-0.060,-0.005
1.681,-0.045,-0.015
1.683,-0.030,0.000
1.686,-0.015,0.000
1.689,-0.020,-0.010
1.692,-0.010,-0.005
1.694,-0.025,-0.020
1.697,-0.020,-0.045
1.700,-0.025,-0.055
1.703,-0.005,-0.045
1.706,0.000,-0.055
1.708,0.020,-0.040
1.711,0.030,-0.045
1.714,0.045,-0.040
1.717,0.055,-0.025
1.719,0.070,-0.030
1.722,0.090,-0.040
1.725,0.095,-0.055
1.728,0.095,-0.075
1.731,0.110,-0.090
1.733,0.120,-0.070
1.736,0.130,-0.090
1.739,0.135,-0.080
1.742,0.150,-0.075
1.744,0.160,-0.080
1.747,0.175,-0.090
1.750,0.205,-0.090
1.753,0.220,-0.090
1.756,0.230,-0.100
1.758,0.240,-0.120
1.761,0.240,-0.120
1.764,0.240,-0.120
1.767,0.245,-0.120
1.769,0.245,-0.130
1.772,0.245,-0.115
1.775,0.270,-0.120
1.778,0.300,-0.110
1.781,0.300,-0.120
1.783,0.305,-0.115
1.786,0.315,-0.120
1.789,0.310,-0.120
1.792,0.320,-0.135
1.794,0.320,-0.140
1.797,0.330,-0.140
1.800,0.330,-0.150
1.803,0.335,-0.145
1.806,0.340,-0.130
1.808,0.335,-0.120
1.811,0.345,-0.115
1.814,0.355,-0.110
1.817,0.355,-0.105
1.819,0.345,-0.095
1.822,0.345,-0.095
1.825,0.340,-0.100
1.828,0.315,-0.090
1.831,0.300,-0.110
1.833,0.265,-0.105
1.836,0.245,-0.095
1.839,0.235,-0.080
1.842,0.215,-0.060
1.844,0.195,-0.040
1.847,0.200,-0.035
1.850,0.190,-0.020
1.853,0.170,-0.010
1.856,0.155,-0.005
1.858,0.120,0.005
1.861,0.100,0.005
1.864,0.065,0.010
1.867,0.040,0.010
1.869,0.010,0.020
1.872,-0.010,0.040
1.875,-0.015,0.055
1.878,-0.020,0.060
1.881,-0.035,0.070
1.883,-0.030,0.090
1.886,-0.040,0.090
1.889,-0.080,0.080
1.892,-0.080,0.090
1.894,-0.110,0.085
1.897,-0.130,0.080
1.900,-0.145,0.085
1.903,-0.165,0.100
1.906,-0.155,0.100
1.908,-0.155,0.120
1.911,-0.145,0.145
1.914,-0.165,0.120
1.917,-0.160,0.130
1.919,-0.160,0.125
1.922,-0.155,0.130
1.925,-0.155,0.120
1.928,-0.175,0.115
1.931,-0.175,0.120
1.933,-0.175,0.110
1.936,-0.180,0.110
1.939,-0.175,0.120
1.942,-0.180,0.140
1.944,-0.185,0.135
1.947,-0.180,0.150
1.950,-0.160,0.145
1.953,-0.160,0.140
1.956,-0.160,0.135
1.958,-0.165,0.125
1.961,-0.160,0.120
1.964,-0.190,0.115
1.967,-0.185,0.125
1.969,-0.185,0.110
1.972,-0.175,0.120
1.975,-0.165,0.125
1.978,-0.160,0.135
1.981,-0.150,0.135
1.983,-0.145,0.140
1.986,-0.160,0.130
1.989,-0.160,0.130
1.992,-0.160,0.130
1.994,-0.165,0.110
1.997,-0.180,0.100
2.000,-0.170,0.095
2.003,-0.175,0.115
2.006,-0.190,0.095
2.008,-0.185,0.110
2.011,-0.195,0.110
2.014,-0.195,0.110
2.017,-0.185,0.115
2.019,-0.185,0.115
2.022,-0.165,0.100
2.025,-0.160,0.105
2.028,-0.150,0.095
2.031,-0.165,0.100
2.033,-0.180,0.095
2.036,-0.205,0.085
2.039,-0.210,0.085
2.042,-0.200,0.095
2.044,-0.200,0.105
2.047,-0.190,0.115
2.050,-0.165,0.120
2.053,-0.170,0.120
2.056,-0.170,0.120
2.058,-0.180,0.115
2.061,-0.205,0.090
2.064,-0.220,0.090
2.067,-0.225,0.085
2.069,-0.240,0.090
2.072,-0.210,0.080
2.075,-0.205,0.100
2.078,-0.195,0.100
2.081,-0.200,0.105
2.083,-0.195,0.110
2.086,-0.205,0.115
2.089,-0.210,0.105
2.092,-0.225,0.085
2.094,-0.225,0.085
2.097,-0.220,0.070
2.100,-0.230,0.080
2.103,-0.220,0.080
2.106,-0.205,0.085
2.108,-0.200,0.085
2.111,-0.190,0.085
2.114,-0.205,0.100
2.117,-0.215,0.100
2.119,-0.210,0.095
2.122,-0.215,0.100
2.125,-0.230,0.095
2.128,-0.225,0.095
2.131,-0.225,0.085
2.133,-0.220,0.075
2.136,-0.215,0.085
2.139,-0.215,0.095
2.142,-0.225,0.100
2.144,-0.220,0.100
2.147,-0.210,0.115
2.150,-0.215,0.130
2.153,-0.215,0.135
2.156,-0.210,0.155
2.158,-0.210,0.145
2.161,-0.215,0.160
2.164,-0.215,0.150
2.167,-0.210,0.150
2.169,-0.195,0.140
2.172,-0.190,0.145
2.175,-0.155,0.145
2.178,-0.130,0.140
2.181,-0.125,0.145
2.183,-0.105,0.145
2.186,-0.105,0.145
2.189,-0.120,0.140
2.192,-0.105,0.125
2.194,-0.115,0.120
2.197,-0.085,0.110
2.200,-0.055,0.095
2.203,-0.035,0.095
2.206,-0.030,0.095
2.208,-0.035,0.100
2.211,-0.025,0.100
2.214,-0.040,0.095
2.217,-0.050,0.085
2.219,-0.055,0.090
2.222,-0.075,0.080
2.225,-0.090,0.075
2.228,-0.100,0.085
2.231,-0.135,0.075
2.233,-0.130,0.070
2.236,-0.165,0.070
2.239,-0.175,0.070
2.242,-0.190,0.075
2.244,-0.210,0.065
2.247,-0.235,0.070
2.250,-0.235,0.075
2.253,-0.255,0.080
2.256,-0.245,0.080
2.258,-0.245,0.055
2.261,-0.255,0.050
2.264,-0.255,0.055
2.267,-0.270,0.045
2.269,-0.275,0.060
2.272,-0.270,0.055
2.275,-0.270,0.060
2.278,-0.250,0.065
2.281,-0.255,0.070
2.283,-0.245,0.085
2.286,-0.240,0.070
2.289,-0.240,0.080
2.292,-0.250,0.070
2.294,-0.250,0.070
2.297,-0.245,0.060
2.300,-0.245,0.065
2.303,-0.260,0.070
2.306,-0.255,0.070
2.308,-0.260,0.085
2.311,-0.260,0.090
2.314,-0.260,0.105
2.317,-0.245,0.125
2.319,-0.240,0.150
2.322,-0.245,0.180
2.325,-0.280,0.195
2.328,-0.350,0.195
2.331,-0.435,0.175
2.333,-0.470,0.125
2.336,-0.435,0.070
2.339,-0.285,0.010
2.342,0.030,-0.060
2.344,0.435,-0.085
2.347,0.870,-0.075
2.350,1.270,-0.015
2.353,1.515,0.020
2.356,1.520,0.055
2.358,1.205,0.050
2.361,0.665,0.065
2.364,0.075,0.105
2.367,-0.380,0.195
2.369,-0.625,0.340
2.372,-0.695,0.490
2.375,-0.680,0.645
2.378,-0.615,0.760
2.381,-0.610,0.840
2.383,-0.635,0.910
2.386,-0.715,0.945
2.389,-0.820,0.975
2.392,-0.900,0.990
2.394,-0.960,1.000
2.397,-0.975,0.995
2.400,-0.970,0.955
2.403,-0.945,0.895
2.406,-0.900,0.845
2.408,-0.825,0.785
2.411,-0.745,0.700
2.414,-0.660,0.610
2.417,-0.555,0.495
2.419,-0.480,0.375
2.422,-0.400,0.270
2.425,-0.340,0.190
2.428,-0.305,0.135
2.431,-0.275,0.115
2.433,-0.265,0.100
2.436,-0.270,0.095
2.439,-0.240,0.100
2.442,-0.225,0.090
2.444,-0.215,0.090
2.447,-0.200,0.075
2.450,-0.190,0.080
2.453,-0.180,0.070
2.456,-0.185,0.055
2.458,-0.165,0.050
2.461,-0.175,0.045
2.464,-0.180,0.045
2.467,-0.185,0.035
2.469,-0.180,0.025
2.472,-0.180,0.035
2.475,-0.170,0.035
2.478,-0.165,0.035
2.481,-0.160,0.035
2.483,-0.145,0.040
2.486,-0.135,0.050
2.489,-0.140,0.045
2.492,-0.140,0.020
2.494,-0.140,0.015
2.497,-0.135,0.010
2.500,-0.145,0.010
2.503,-0.150,0.000
2.506,-0.140,-0.005
2.508,-0.130,0.005
2.511,-0.115,0.020
2.514,-0.110,0.010
2.517,-0.100,0.030
2.519,-0.095,0.020
2.522,-0.095,0.015
2.525,-0.100,0.005
2.528,-0.105,-0.005
2.531,-0.100,-0.005
2.533,-0.100,-0.020
2.536,-0.105,-0.020
2.539,-0.095,-0.010
2.542,-0.085,-0.010
2.544,-0.090,0.005
2.547,-0.080,0.010
2.550,-0.080,0.005
2.553,-0.055,-0.005
2.556,-0.050,0.000
2.558,-0.040,-0.010
2.561,-0.035,-0.010
2.564,-0.045,-0.015
2.567,-0.050,-0.030
2.569,-0.050,-0.035
2.572,-0.050,-0.035
2.575,-0.020,-0.040
2.578,-0.015,-0.020
2.581,-0.005,-0.015
2.583,0.000,-0.015
2.586,0.015,-0.020
2.589,0.000,-0.025
2.592,0.005,-0.045
2.594,0.010,-0.045
2.597,0.035,-0.055
2.600,0.035,-0.060
2.603,0.025,-0.060
2.606,0.035,-0.065
2.608,0.040,-0.070
2.611,0.065,-0.050
2.614,0.060,-0.060
2.617,0.075,-0.060
2.619,0.085,-0.070
2.622,0.085,-0.085
2.625,0.100,-0.100
2.628,0.105,-0.105
2.631,0.105,-0.110
2.633,0.105,-0.125
2.636,0.125,-0.120
2.639,0.115,-0.115
2.642,0.120,-0.125
2.644,0.150,-0.105
2.647,0.160,-0.110
2.650,0.175,-0.110
2.653,0.180,-0.120
2.656,0.200,-0.110
2.658,0.200,-0.120
2.661,0.195,-0.130
2.664,0.200,-0.145
2.667,0.200,-0.145
2.669,0.205,-0.155
2.672,0.210,-0.150
2.675,0.230,-0.155
2.678,0.240,-0.140
2.681,0.255,-0.145
2.683,0.260,-0.145
2.686,0.265,-0.125
2.689,0.275,-0.135
2.692,0.280,-0.135
2.694,0.285,-0.140
2.697,0.295,-0.145
2.700,0.295,-0.150
2.703,0.290,-0.145
2.706,0.285,-0.130
2.708,0.285,-0.125
2.711,0.280,-0.110
2.714,0.280,-0.100
2.717,0.280,-0.080
2.719,0.275,-0.080
2.722,0.255,-0.060
2.725,0.245,-0.060
2.728,0.225,-0.045
2.731,0.195,-0.055
2.733,0.175,-0.045
2.736,0.155,-0.030
2.739,0.145,-0.020
2.742,0.120,0.000
2.744,0.110,0.015
2.747,0.090,0.015
2.750,0.080,0.040
2.753,0.055,0.055
2.756,0.020,0.070
2.758,0.030,0.070
2.761,0.005,0.065
2.764,-0.015,0.070
2.767,-0.040,0.075
2.769,-0.055,0.070
2.772,-0.075,0.075
2.775,-0.100,0.095
2.778,-0.115,0.110
2.781,-0.105,0.105
2.783,-0.115,0.110
2.786,-0.120,0.120
2.789,-0.135,0.115
2.792,-0.140,0.105
2.794,-0.145,0.100
2.797,-0.150,0.095
2.800,-0.155,0.090
2.803,-0.150,0.100
2.806,-0.155,0.100
2.808,-0.150,0.105
2.811,-0.145,0.115
2.814,-0.140,0.105
2.817,-0.125,0.115
2.819,-0.135,0.120
2.822,-0.140,0.110
2.825,-0.130,0.110
2.828,-0.140,0.100
2.831,-0.140,0.090
2.833,-0.145,0.095
2.836,-0.145,0.095
2.839,-0.145,0.100
2.842,-0.130,0.100
2.844,-0.125,0.095
2.847,-0.110,0.095
2.850,-0.110,0.085
2.853,-0.110,0.090
2.856,-0.110,0.095
2.858,-0.115,0.100
2.861,-0.125,0.080
2.864,-0.125,0.070
2.867,-0.130,0.075
2.869,-0.140,0.070
2.872,-0.130,0.075
2.875,-0.125,0.085
2.878,-0.125,0.075
2.881,-0.115,0.095
2.883,-0.105,0.075
2.886,-0.105,0.075
2.889,-0.115,0.070
2.892,-0.125,0.075
2.894,-0.120,0.055
2.897,-0.150,0.050
2.900,-0.150,0.050
2.903,-0.165,0.065
2.906,-0.160,0.060
2.908,-0.145,0.065
2.911,-0.140,0.075
2.914,-0.140,0.075
2.917,-0.135,0.070
2.919,-0.140,0.075
2.922,-0.155,0.075
2.925,-0.165,0.060
2.928,-0.170,0.060
2.931,-0.190,0.050
2.933,-0.190,0.045
2.936,-0.195,0.060
2.939,-0.190,0.070
2.942,-0.185,0.065
2.944,-0.185,0.075
2.947,-0.185,0.080
2.950,-0.185,0.075
2.953,-0.180,0.085
2.956,-0.195,0.070
2.958,-0.190,0.060
2.961,-0.200,0.050
2.964,-0.205,0.050
2.967,-0.220,0.065
2.969,-0.215,0.055
2.972,-0.215,0.075
2.975,-0.215,0.075
2.978,-0.210,0.080
2.981,-0.210,0.070
2.983,-0.215,0.070
2.986,-0.200,0.065
2.989,-0.210,0.070
2.992,-0.215,0.055
2.994,-0.215,0.055
2.997,-0.225,0.060
3.000,-0.240,0.055
3.003,-0.235,0.065
3.006,-0.235,0.060
3.008,-0.240,0.065
3.011,-0.230,0.065
3.014,-0.220,0.075
3.017,-0.215,0.065
3.019,-0.230,0.055
3.022,-0.210,0.065
3.025,-0.210,0.060
3.028,-0.220,0.065
3.031,-0.240,0.065
3.033,-0.230,0.080
3.036,-0.225,0.080
3.039,-0.220,0.100
3.042,-0.210,0.125
3.044,-0.205,0.135
3.047,-0.180,0.155
3.050,-0.170,0.170
3.053,-0.170,0.165
3.056,-0.180,0.145
3.058,-0.180,0.155
3.061,-0.165,0.130
3.064,-0.160,0.125
3.067,-0.150,0.100
3.069,-0.140,0.095
3.072,-0.125,0.095
3.075,-0.100,0.090
3.078,-0.075,0.090
3.081,-0.050,0.085
3.083,-0.025,0.085
3.086,-0.030,0.080
3.089,-0.020,0.080
3.092,-0.050,0.070
3.094,-0.065,0.050
3.097,-0.085,0.035
3.100,-0.090,0.030
3.103,-0.115,0.050
3.106,-0.130,0.065
3.108,-0.145,0.075
3.111,-0.145,0.070
3.114,-0.155,0.065
3.117,-0.165,0.050
3.119,-0.190,0.050
3.122,-0.200,0.035
3.125,-0.220,0.025
3.128,-0.245,0.020
3.131,-0.260,0.020
3.133,-0.255,0.010
3.136,-0.260,0.030
3.139,-0.255,0.030
3.142,-0.255,0.025
3.144,-0.250,0.030
3.147,-0.250,0.040
3.150,-0.245,0.040
3.153,-0.255,0.045
3.156,-0.255,0.040
3.158,-0.260,0.040
3.161,-0.265,0.030
3.164,-0.275,0.020
3.167,-0.275,0.035
3.169,-0.270,0.035
3.172,-0.275,0.040
3.175,-0.270,0.065
3.178,-0.265,0.050
3.181,-0.255,0.075
3.183,-0.250,0.055
3.186,-0.265,0.060
3.189,-0.260,0.050
3.192,-0.270,0.060
3.194,-0.270,0.065
3.197,-0.285,0.075
3.200,-0.295,0.115
3.203,-0.310,0.145
3.206,-0.330,0.195
3.208,-0.365,0.220
3.211,-0.425,0.225
3.214,-0.495,0.205
3.217,-0.520,0.160
3.219,-0.490,0.105
3.222,-0.325,0.045
3.225,-0.060,-0.020
3.228,0.285,-0.080
3.231,0.680,-0.110
3.233,1.075,-0.125
3.236,1.395,-0.130
3.239,1.535,-0.105
3.242,1.450,-0.100
3.244,1.135,-0.090
3.247,0.650,-0.050
3.250,0.130,0.025
3.253,-0.240,0.165
3.256,-0.445,0.350
3.258,-0.525,0.515
3.261,-0.525,0.665
3.264,-0.530,0.790
3.267,-0.575,0.865
3.269,-0.655,0.915
3.272,-0.785,0.955
3.275,-0.890,0.980
3.278,-0.995,1.010
3.281,-1.045,0.990
3.283,-1.050,0.955
3.286,-1.040,0.890
3.289,-0.985,0.805
3.292,-0.910,0.710
3.294,-0.825,0.600
3.297,-0.735,0.490
3.300,-0.635,0.380
3.303,-0.550,0.285
3.306,-0.470,0.220
3.308,-0.410,0.170
3.311,-0.355,0.150
3.314,-0.325,0.140
3.317,-0.305,0.115
3.319,-0.300,0.115
3.322,-0.290,0.110
3.325,-0.280,0.085
3.328,-0.285,0.075
3.331,-0.285,0.055
3.333,-0.270,0.055
3.336,-0.270,0.040
3.339,-0.260,0.055
3.342,-0.260,0.050
3.344,-0.250,0.055
3.347,-0.230,0.055
3.350,-0.230,0.040
3.353,-0.220,0.045
3.356,-0.215,0.035
3.358,-0.220,0.025
3.361,-0.220,0.030
3.364,-0.220,0.030
3.367,-0.235,0.015
3.369,-0.235,0.020
3.372,-0.235,0.035
3.375,-0.220,0.035
3.378,-0.200,0.050
3.381,-0.195,0.045
3.383,-0.190,0.035
3.386,-0.185,0.035
3.389,-0.185,0.030
3.392,-0.180,0.025
3.394,-0.180,0.020
3.397,-0.200,0.015
3.400,-0.190,0.005
3.403,-0.190,0.010
3.406,-0.190,0.015
3.408,-0.165,0.020
3.411,-0.155,0.025
3.414,-0.150,0.030
3.417,-0.135,0.020
3.419,-0.145,0.020
3.422,-0.140,0.010
3.425,-0.140,0.005
3.428,-0.130,-0.005
3.431,-0.125,-0.005
3.433,-0.125,-0.010
3.436,-0.115,-0.010
3.439,-0.105,0.000
3.442,-0.105,0.000
3.444,-0.095,0.000
3.447,-0.070,0.005
3.450,-0.070,-0.005
3.453,-0.060,0.000
3.456,-0.055,-0.010
3.458,-0.045,-0.015
3.461,-0.045,-0.020
3.464,-0.040,-0.040
3.467,-0.040,-0.040
3.469,-0.030,-0.035
3.472,-0.015,-0.040
3.475,-0.005,-0.030
3.478,0.010,-0.025
3.481,0.015,-0.025
3.483,0.035,-0.035
3.486,0.035,-0.040
3.489,0.045,-0.035
3.492,0.065,-0.060
3.494,0.055,-0.070
3.497,0.070,-0.060
3.500,0.075,-0.080
3.503,0.095,-0.070
3.506,0.115,-0.080
3.508,0.125,-0.070
3.511,0.150,-0.085
3.514,0.160,-0.070
3.517,0.180,-0.080
3.519,0.190,-0.080
3.522,0.195,-0.090
3.525,0.215,-0.100
3.528,0.200,-0.110
3.531,0.215,-0.120
3.533,0.225,-0.115
3.536,0.240,-0.125
3.539,0.245,-0.115
3.542,0.260,-0.115
3.544,0.260,-0.105
3.547,0.285,-0.110
3.550,0.290,-0.110
3.553,0.300,-0.125
3.556,0.310,-0.125
3.558,0.315,-0.130
3.561,0.315,-0.125
3.564,0.310,-0.130
3.567,0.325,-0.130
3.569,0.315,-0.135
3.572,0.310,-0.115
3.575,0.330,-0.120
3.578,0.335,-0.115
3.581,0.350,-0.100
3.583,0.355,-0.100
3.586,0.355,-0.090
3.589,0.350,-0.090
3.592,0.340,-0.095
3.594,0.330,-0.090
3.597,0.310,-0.095
3.600,0.295,-0.080
3.603,0.280,-0.075
3.606,0.275,-0.060
3.608,0.255,-0.055
3.611,0.245,-0.025
3.614,0.245,-0.010
3.617,0.230,-0.010
3.619,0.210,-0.005
3.622,0.185,-0.005
3.625,0.160,0.000
3.628,0.130,0.010
3.631,0.110,0.015
3.633,0.085,0.025
3.636,0.060,0.025
3.639,0.045,0.040
3.642,0.040,0.060
3.644,0.025,0.080
3.647,0.010,0.080
3.650,0.005,0.095
3.653,-0.015,0.090
3.656,-0.030,0.095
3.658,-0.045,0.100
3.661,-0.070,0.095
3.664,-0.090,0.080
3.667,-0.105,0.100
3.669,-0.115,0.095
3.672,-0.130,0.095
3.675,-0.130,0.120
3.678,-0.140,0.120
3.681,-0.150,0.125
3.683,-0.150,0.125
3.686,-0.140,0.125
3.689,-0.135,0.120
3.692,-0.145,0.115
3.694,-0.155,0.125
3.697,-0.155,0.110
3.700,-0.170,0.115
3.703,-0.185,0.120
3.706,-0.175,0.120
3.708,-0.180,0.125
3.711,-0.185,0.125
3.714,-0.160,0.145
3.717,-0.150,0.145
3.719,-0.160,0.140
3.722,-0.155,0.145
3.725,-0.150,0.135
3.728,-0.165,0.130
3.731,-0.165,0.115
3.733,-0.165,0.125
3.736,-0.175,0.130
3.739,-0.175,0.140
3.742,-0.165,0.150
3.744,-0.170,0.145
3.747,-0.165,0.150
3.750,-0.155,0.145
3.753,-0.140,0.140
3.756,-0.140,0.145
3.758,-0.140,0.135
3.761,-0.155,0.135
3.764,-0.140,0.125
3.767,-0.150,0.130
3.769,-0.160,0.125
3.772,-0.165,0.140
3.775,-0.150,0.140
3.778,-0.150,0.150
3.781,-0.140,0.140
3.783,-0.140,0.140
3.786,-0.145,0.145
3.789,-0.160,0.135
3.792,-0.165,0.135
3.794,-0.165,0.120
3.797,-0.160,0.125
3.800,-0.170,0.115
3.803,-0.160,0.125
3.806,-0.170,0.130
3.808,-0.165,0.130
3.811,-0.175,0.135
3.814,-0.160,0.140
3.817,-0.160,0.135
3.819,-0.175,0.140
3.822,-0.165,0.135
3.825,-0.165,0.135
3.828,-0.170,0.115
3.831,-0.185,0.110
3.833,-0.195,0.100
3.836,-0.200,0.100
3.839,-0.195,0.125
3.842,-0.195,0.130
3.844,-0.195,0.130
3.847,-0.185,0.135
3.850,-0.185,0.125
3.853,-0.180,0.140
3.856,-0.180,0.130
3.858,-0.185,0.120
3.861,-0.195,0.105
3.864,-0.205,0.110
3.867,-0.205,0.100
3.869,-0.215,0.105
3.872,-0.215,0.105
3.875,-0.215,0.120
3.878,-0.220,0.125
3.881,-0.200,0.140
3.883,-0.195,0.125
3.886,-0.195,0.115
3.889,-0.195,0.125
3.892,-0.195,0.120
3.894,-0.205,0.115
3.897,-0.210,0.115
3.900,-0.220,0.115
3.903,-0.220,0.110
3.906,-0.225,0.120
3.908,-0.225,0.120
3.911,-0.230,0.120
3.914,-0.215,0.130
3.917,-0.210,0.135
3.919,-0.205,0.125
3.922,-0.215,0.130
3.925,-0.210,0.115
3.928,-0.215,0.110
3.931,-0.225,0.115
3.933,-0.235,0.110
3.936,-0.230,0.110
3.939,-0.230,0.105
3.942,-0.220,0.105
3.944,-0.220,0.120
3.947,-0.210,0.125
3.950,-0.200,0.110
3.953,-0.205,0.135
3.956,-0.190,0.120
3.958,-0.220,0.110
3.961,-0.210,0.110
3.964,-0.215,0.105
3.967,-0.215,0.120
3.969,-0.220,0.125
3.972,-0.220,0.140
3.975,-0.215,0.145
3.978,-0.200,0.170
3.981,-0.190,0.180
3.983,-0.180,0.195
3.986,-0.175,0.195
3.989,-0.175,0.205
3.992,-0.170,0.205
3.994,-0.160,0.210
3.997,-0.160,0.205
4.000,-0.160,0.200
4.003,-0.155,0.190
4.006,-0.150,0.190
4.008,-0.140,0.200
4.011,-0.125,0.180
4.014,-0.115,0.180
4.017,-0.095,0.175
4.019,-0.075,0.170
4.022,-0.055,0.145
4.025,-0.045,0.135
4.028,-0.030,0.115
4.031,-0.030,0.125
4.033,-0.035,0.115
4.036,-0.050,0.115
4.039,-0.050,0.125
4.042,-0.060,0.110
4.044,-0.065,0.105
4.047,-0.060,0.115
4.050,-0.070,0.105
4.053,-0.085,0.120
4.056,-0.085,0.125
4.058,-0.105,0.120
4.061,-0.120,0.115
4.064,-0.150,0.100
4.067,-0.175,0.090
4.069,-0.180,0.095
4.072,-0.210,0.090
4.075,-0.225,0.100
4.078,-0.230,0.105
4.081,-0.245,0.105
4.083,-0.225,0.105
4.086,-0.230,0.100
4.089,-0.230,0.095
4.092,-0.235,0.105
4.094,-0.240,0.090
4.097,-0.245,0.080
4.100,-0.250,0.090
4.103,-0.250,0.085
4.106,-0.250,0.100
4.108,-0.245,0.110
4.111,-0.255,0.110
4.114,-0.240,0.115
4.117,-0.235,0.120
4.119,-0.235,0.115
4.122,-0.230,0.105
4.125,-0.245,0.105
4.128,-0.250,0.100
4.131,-0.245,0.090
4.133,-0.255,0.095
4.136,-0.255,0.090
4.139,-0.260,0.105
4.142,-0.245,0.105
4.144,-0.240,0.120
4.147,-0.235,0.135
4.150,-0.235,0.140
4.153,-0.235,0.145
4.156,-0.235,0.165
4.158,-0.250,0.195
4.161,-0.280,0.230
4.164,-0.325,0.240
4.167,-0.375,0.250
4.169,-0.430,0.245
4.172,-0.495,0.235
4.175,-0.525,0.210
4.178,-0.490,0.165
4.181,-0.360,0.130
4.183,-0.135,0.060
4.186,0.160,0.010
4.189,0.515,-0.025
4.192,0.890,-0.060
4.194,1.220,-0.060
4.197,1.465,-0.075
4.200,1.545,-0.065
4.203,1.430,-0.070
4.206,1.090,-0.050
4.208,0.620,-0.005
4.211,0.160,0.060
4.214,-0.195,0.185
4.217,-0.380,0.345
4.219,-0.450,0.510
4.222,-0.445,0.660
4.225,-0.425,0.775
4.228,-0.440,0.855
4.231,-0.520,0.905
4.233,-0.630,0.945
4.236,-0.765,0.980
4.239,-0.885,1.010
4.242,-0.995,1.035
4.244,-1.035,1.050
4.247,-1.055,1.035
4.250,-1.035,0.990
4.253,-1.005,0.935
4.256,-0.940,0.840
4.258,-0.870,0.770
4.261,-0.790,0.665
4.264,-0.700,0.555
4.267,-0.620,0.455
4.269,-0.535,0.365
4.272,-0.455,0.295
4.275,-0.395,0.240
4.278,-0.340,0.200
4.281,-0.305,0.185
4.283,-0.270,0.180
4.286,-0.270,0.165
4.289,-0.255,0.165
4.292,-0.250,0.150
4.294,-0.240,0.135
4.297,-0.245,0.120
4.300,-0.245,0.110
4.303,-0.250,0.110
4.306,-0.240,0.110
4.308,-0.235,0.115
4.311,-0.225,0.110
4.314,-0.215,0.120
4.317,-0.205,0.115
4.319,-0.205,0.100
4.322,-0.185,0.100
4.325,-0.205,0.095
4.328,-0.205,0.085
4.331,-0.205,0.070
4.333,-0.215,0.055
4.336,-0.220,0.075
4.339,-0.210,0.075
4.342,-0.190,0.085
4.344,-0.170,0.085
4.347,-0.155,0.095
4.350,-0.135,0.085
4.353,-0.150,0.090
4.356,-0.145,0.075
4.358,-0.140,0.065
4.361,-0.135,0.065
4.364,-0.145,0.055
4.367,-0.145,0.060
4.369,-0.145,0.060
4.372,-0.135,0.055
4.375,-0.145,0.060
4.378,-0.135,0.060
4.381,-0.125,0.070
4.383,-0.120,0.060
4.386,-0.120,0.050
4.389,-0.115,0.050
4.392,-0.105,0.045
4.394,-0.100,0.035
4.397,-0.100,0.025
4.400,-0.090,0.030
4.403,-0.075,0.040
4.406,-0.070,0.035
4.408,-0.075,0.040
4.411,-0.065,0.045
4.414,-0.045,0.050
4.417,-0.040,0.040
4.419,-0.040,0.035
4.422,-0.035,0.030
4.425,-0.035,0.025
4.428,-0.030,0.015
4.431,-0.025,0.010
4.433,-0.015,0.010
4.436,-0.005,0.015
4.439,0.005,0.005
4.442,0.005,0.005
4.444,0.030,0.005
4.447,0.060,0.010
4.450,0.070,0.005
4.453,0.075,0.005
4.456,0.095,0.000
4.458,0.095,-0.015
4.461,0.100,-0.035
4.464,0.120,-0.040
4.467,0.110,-0.055
4.469,0.125,-0.055
4.472,0.140,-0.060
4.475,0.165,-0.040
4.478,0.175,-0.055
4.481,0.195,-0.065
4.483,0.210,-0.065
4.486,0.220,-0.065
4.489,0.230,-0.075
4.492,0.210,-0.075
4.494,0.225,-0.085
4.497,0.250,-0.100
4.500,0.260,-0.100
4.503,0.260,-0.100
4.506,0.275,-0.090
4.508,0.285,-0.095
4.511,0.300,-0.100
4.514,0.310,-0.090
4.517,0.320,-0.090
4.519,0.325,-0.085
4.522,0.330,-0.090
4.525,0.345,-0.105
4.528,0.355,-0.115
4.531,0.365,-0.120
4.533,0.365,-0.110
4.536,0.370,-0.110
4.539,0.390,-0.110
4.542,0.410,-0.105
4.544,0.405,-0.095
4.547,0.405,-0.090
4.550,0.425,-0.075
4.553,0.400,-0.070
4.556,0.395,-0.070
4.558,0.375,-0.075
4.561,0.355,-0.075
4.564,0.320,-0.060
4.567,0.285,-0.060
4.569,0.270,-0.045
4.572,0.255,-0.040
4.575,0.255,-0.010
4.578,0.240,-0.010
4.581,0.240,0.010
4.583,0.230,0.005
4.586,0.210,0.020
4.589,0.170,0.025
4.592,0.140,0.035
4.594,0.110,0.035
4.597,0.075,0.040
4.600,0.045,0.055
4.603,0.025,0.065
4.606,0.005,0.080
4.608,0.010,0.095
4.611,-0.005,0.100
4.614,0.000,0.120
4.617,0.005,0.110
4.619,-0.015,0.120
4.622,-0.040,0.120
4.625,-0.065,0.115
4.628,-0.080,0.110
4.631,-0.095,0.110
4.633,-0.095,0.120
4.636,-0.095,0.120
4.639,-0.095,0.130
4.642,-0.100,0.140
4.644,-0.100,0.160
4.647,-0.105,0.160
4.650,-0.110,0.160
4.653,-0.130,0.175
4.656,-0.150,0.175
4.658,-0.160,0.160
4.661,-0.155,0.155
4.664,-0.165,0.165
4.667,-0.180,0.160
4.669,-0.170,0.155
4.672,-0.170,0.155
4.675,-0.150,0.165
4.678,-0.155,0.175
4.681,-0.125,0.190
4.683,-0.115,0.190
4.686,-0.120,0.180
4.689,-0.110,0.175
4.692,-0.125,0.170
4.694,-0.130,0.155
4.697,-0.160,0.155
4.700,-0.155,0.155
4.703,-0.170,0.170
4.706,-0.155,0.165
4.708,-0.155,0.170
4.711,-0.145,0.170
4.714,-0.130,0.185
4.717,-0.125,0.185
4.719,-0.130,0.185
4.722,-0.120,0.190
4.725,-0.145,0.170
4.728,-0.160,0.170
4.731,-0.155,0.150
4.733,-0.160,0.150
4.736,-0.160,0.150
4.739,-0.160,0.150
4.742,-0.150,0.150
4.744,-0.145,0.160
4.747,-0.150,0.175
4.750,-0.150,0.170
4.753,-0.150,0.165
4.756,-0.150,0.160
4.758,-0.155,0.160
4.761,-0.165,0.140
4.764,-0.170,0.145
4.767,-0.175,0.135
4.769,-0.180,0.140
4.772,-0.185,0.140
4.775,-0.195,0.150
4.778,-0.185,0.145
4.781,-0.180,0.165
4.783,-0.180,0.165
4.786,-0.180,0.160
4.789,-0.175,0.155
4.792,-0.175,0.145
4.794,-0.180,0.130
4.797,-0.185,0.140
4.800,-0.195,0.130
4.803,-0.185,0.130
4.806,-0.185,0.150
4.808,-0.195,0.145
4.811,-0.175,0.150
4.814,-0.180,0.155
4.817,-0.170,0.155
4.819,-0.190,0.150
4.822,-0.190,0.155
4.825,-0.180,0.150
4.828,-0.195,0.145
4.831,-0.220,0.145
4.833,-0.220,0.145
4.836,-0.230,0.130
4.839,-0.235,0.140
4.842,-0.225,0.150
4.844,-0.220,0.145
4.847,-0.215,0.155
4.850,-0.215,0.155
4.853,-0.210,0.150
4.856,-0.200,0.140
4.858,-0.205,0.140
4.861,-0.195,0.125
4.864,-0.195,0.125
4.867,-0.185,0.125
4.869,-0.185,0.125
4.872,-0.200,0.140
4.875,-0.195,0.160
4.878,-0.205,0.175
4.881,-0.200,0.190
4.883,-0.190,0.195
4.886,-0.195,0.190
4.889,-0.200,0.210
4.892,-0.195,0.205
4.894,-0.185,0.200
4.897,-0.180,0.205
4.900,-0.160,0.205
4.903,-0.135,0.200
4.906,-0.135,0.195
4.908,-0.120,0.180
4.911,-0.115,0.195
4.914,-0.120,0.195
4.917,-0.115,0.205
4.919,-0.110,0.190
4.922,-0.110,0.195
4.925,-0.090,0.180
4.928,-0.075,0.155
4.931,-0.055,0.145
4.933,-0.055,0.140
4.936,-0.040,0.155
4.939,-0.040,0.150
4.942,-0.030,0.150
4.944,-0.020,0.155
4.947,-0.020,0.155
4.950,-0.035,0.145
4.953,-0.060,0.135
4.956,-0.075,0.135
4.958,-0.085,0.145
4.961,-0.105,0.135
4.964,-0.120,0.135
4.967,-0.150,0.125
4.969,-0.175,0.135
4.972,-0.185,0.130
4.975,-0.205,0.130
4.978,-0.225,0.130
4.981,-0.230,0.140
4.983,-0.230,0.140
4.986,-0.215,0.135
4.989,-0.215,0.135
4.992,-0.205,0.120
4.994,-0.210,0.120
4.997,-0.225,0.110
5.000,-0.240,0.115
5.003,-0.265,0.120
5.006,-0.265,0.115
5.008,-0.265,0.125
5.011,-0.260,0.140
5.014,-0.245,0.140
5.017,-0.220,0.140
5.019,-0.225,0.150
5.022,-0.225,0.150
5.025,-0.235,0.135
5.028,-0.255,0.130
5.031,-0.265,0.125
5.033,-0.270,0.130
5.036,-0.270,0.125
5.039,-0.255,0.135
5.042,-0.245,0.145
5.044,-0.235,0.145
5.047,-0.220,0.155
5.050,-0.215,0.170
5.053,-0.230,0.185
5.056,-0.220,0.210
5.058,-0.250,0.240
5.061,-0.290,0.245
5.064,-0.355,0.240
5.067,-0.435,0.235
5.069,-0.480,0.205
5.072,-0.470,0.155
5.075,-0.325,0.080
5.078,-0.080,0.030
5.081,0.285,-0.005
5.083,0.700,-0.030
5.086,1.095,-0.005
5.089,1.415,0.035
5.092,1.570,0.065
5.094,1.480,0.090
5.097,1.125,0.095
5.100,0.560,0.095
5.103,0.010,0.165
5.106,-0.415,0.270
5.108,-0.625,0.400
5.111,-0.660,0.565
5.114,-0.615,0.710
5.117,-0.565,0.820
5.119,-0.575,0.900
5.122,-0.605,0.955
5.125,-0.700,0.990
5.128,-0.820,1.015
5.131,-0.910,1.030
5.133,-0.970,1.035
5.136,-0.995,1.025
5.139,-0.995,0.990
5.142,-0.955,0.930
5.144,-0.880,0.880
5.147,-0.785,0.815
5.150,-0.685,0.715
5.153,-0.585,0.595
5.156,-0.500,0.490
5.158,-0.430,0.375
5.161,-0.375,0.270
5.164,-0.320,0.195
5.167,-0.295,0.160
5.169,-0.265,0.150
5.172,-0.245,0.165
5.175,-0.230,0.170
5.178,-0.210,0.175
5.181,-0.205,0.160
5.183,-0.190,0.150
5.186,-0.180,0.155
5.189,-0.185,0.140
5.192,-0.190,0.105
5.194,-0.195,0.090
5.197,-0.200,0.090
5.200,-0.195,0.090
5.203,-0.180,0.100
5.206,-0.165,0.105
5.208,-0.150,0.110
5.211,-0.120,0.105
5.214,-0.125,0.105
5.217,-0.110,0.110
5.219,-0.120,0.115
5.222,-0.135,0.110
5.225,-0.145,0.090
5.228,-0.155,0.080
5.231,-0.170,0.070
5.233,-0.165,0.055
5.236,-0.145,0.065
5.239,-0.120,0.065
5.242,-0.095,0.075
5.244,-0.080,0.085
5.247,-0.075,0.085
5.250,-0.065,0.105
5.253,-0.080,0.095
5.256,-0.090,0.090
5.258,-0.110,0.070
5.261,-0.115,0.070
5.264,-0.120,0.060
5.267,-0.120,0.055
5.269,-0.100,0.065
5.272,-0.085,0.075
5.275,-0.075,0.080
5.278,-0.050,0.075
5.281,-0.025,0.085
5.283,-0.010,0.085
5.286,-0.010,0.080
5.289,-0.015,0.070
5.292,-0.025,0.055
5.294,-0.020,0.050
5.297,-0.030,0.040
5.300,-0.025,0.035
5.303,-0.010,0.040
5.306,-0.005,0.035
5.308,-0.005,0.035
5.311,0.005,0.035
5.314,0.020,0.055
5.317,0.050,0.045
5.319,0.065,0.040
5.322,0.090,0.025
5.325,0.095,0.025
5.328,0.085,0.005
5.331,0.075,-0.005
5.333,0.065,-0.005
5.336,0.070,-0.015
5.339,0.075,-0.005
5.342,0.080,-0.005
5.344,0.100,-0.005
5.347,0.110,0.000
5.350,0.140,-0.005
5.353,0.150,-0.010
5.356,0.165,-0.025
5.358,0.175,-0.030
5.361,0.185,-0.045
5.364,0.190,-0.055
5.367,0.195,-0.060
5.369,0.200,-0.070
5.372,0.205,-0.075
5.375,0.215,-0.070
5.378,0.230,-0.060
5.381,0.245,-0.055
5.383,0.265,-0.045
5.386,0.280,-0.060
5.389,0.285,-0.055
5.392,0.285,-0.075
5.394,0.285,-0.085
5.397,0.295,-0.095
5.400,0.305,-0.110
5.403,0.305,-0.090
5.406,0.330,-0.090
5.408,0.335,-0.085
5.411,0.360,-0.085
5.414,0.355,-0.065
5.417,0.375,-0.060
5.419,0.380,-0.060
5.422,0.380,-0.065
5.425,0.370,-0.065
5.428,0.355,-0.060
5.431,0.340,-0.065
5.433,0.320,-0.055
5.436,0.320,-0.045
5.439,0.290,-0.040
5.442,0.300,-0.010
5.444,0.290,-0.005
5.447,0.275,0.005
5.450,0.265,0.025
5.453,0.250,0.035
5.456,0.235,0.030
5.458,0.200,0.045
5.461,0.175,0.045
5.464,0.165,0.055
5.467,0.135,0.065
5.469,0.115,0.075
5.472,0.095,0.095
5.475,0.065,0.105
5.478,0.050,0.110
5.481,0.030,0.125
5.483,0.030,0.135
5.486,0.010,0.135
5.489,-0.005,0.140
5.492,-0.005,0.145
5.494,-0.025,0.145
5.497,-0.050,0.150
5.500,-0.060,0.135
5.503,-0.065,0.155
5.506,-0.080,0.150
5.508,-0.085,0.175
5.511,-0.090,0.185
5.514,-0.090,0.185
5.517,-0.100,0.180
5.519,-0.095,0.180
5.522,-0.100,0.190
5.525,-0.105,0.180
5.528,-0.115,0.175
5.531,-0.115,0.165
5.533,-0.125,0.155
5.536,-0.125,0.160
5.539,-0.115,0.165
5.542,-0.130,0.180
5.544,-0.125,0.190
5.547,-0.110,0.190
5.550,-0.110,0.180
5.553,-0.105,0.180
5.556,-0.100,0.185
5.558,-0.105,0.180
5.561,-0.100,0.170
5.564,-0.100,0.165
5.567,-0.110,0.160
5.569,-0.105,0.155
5.572,-0.105,0.160
5.575,-0.095,0.160
5.578,-0.105,0.170
5.581,-0.100,0.170
5.583,-0.095,0.165
5.586,-0.090,0.170
5.589,-0.090,0.160
5.592,-0.075,0.160
5.594,-0.080,0.145
5.597,-0.080,0.145
5.600,-0.095,0.135
5.603,-0.100,0.130
5.606,-0.100,0.130
5.608,-0.105,0.145
5.611,-0.105,0.145
5.614,-0.095,0.165
5.617,-0.095,0.170
5.619,-0.095,0.155
5.622,-0.110,0.140
5.625,-0.110,0.145
5.628,-0.130,0.140
5.631,-0.140,0.140
5.633,-0.150,0.145
5.636,-0.150,0.155
5.639,-0.140,0.145
5.642,-0.145,0.140
5.644,-0.135,0.155
5.647,-0.140,0.160
5.650,-0.135,0.170
5.653,-0.135,0.155
5.656,-0.150,0.150
5.658,-0.155,0.140
5.661,-0.165,0.145
5.664,-0.155,0.125
5.667,-0.170,0.140
5.669,-0.170,0.140
5.672,-0.180,0.140
5.675,-0.175,0.140
5.678,-0.195,0.140
5.681,-0.175,0.140
5.683,-0.160,0.150
5.686,-0.155,0.145
5.689,-0.150,0.150
5.692,-0.155,0.150
5.694,-0.160,0.135
5.697,-0.170,0.120
5.700,-0.180,0.115
5.703,-0.175,0.125
5.706,-0.180,0.135
5.708,-0.180,0.135
5.711,-0.180,0.135
5.714,-0.175,0.150
5.717,-0.170,0.150
5.719,-0.170,0.150
5.722,-0.170,0.140
5.725,-0.170,0.140
5.728,-0.175,0.150
5.731,-0.180,0.165
5.733,-0.175,0.170
5.736,-0.185,0.170
5.739,-0.175,0.190
5.742,-0.160,0.215
5.744,-0.155,0.220
5.747,-0.135,0.235
5.750,-0.125,0.225
5.753,-0.120,0.220
5.756,-0.115,0.210
5.758,-0.115,0.195
5.761,-0.115,0.175
5.764,-0.115,0.155
5.767,-0.095,0.150
5.769,-0.080,0.140
5.772,-0.060,0.130
5.775,-0.045,0.140
5.778,-0.020,0.140
5.781,-0.010,0.140
5.783,0.000,0.150
5.786,-0.015,0.135
5.789,-0.020,0.120
5.792,-0.035,0.100
5.794,-0.055,0.100
5.797,-0.075,0.085
5.800,-0.090,0.090
5.803,-0.100,0.095
5.806,-0.105,0.105
5.808,-0.115,0.115
5.811,-0.120,0.115
5.814,-0.135,0.125
5.817,-0.145,0.115
5.819,-0.170,0.090
5.822,-0.185,0.095
5.825,-0.210,0.095
5.828,-0.225,0.085
5.831,-0.235,0.075
5.833,-0.240,0.075
5.836,-0.245,0.090
5.839,-0.240,0.085
5.842,-0.235,0.095
5.844,-0.240,0.100
5.847,-0.240,0.110
5.850,-0.235,0.095
5.853,-0.240,0.095
5.856,-0.250,0.085
5.858,-0.260,0.080
5.861,-0.260,0.080
5.864,-0.265,0.080
5.867,-0.270,0.075
5.869,-0.265,0.075
5.872,-0.270,0.070
5.875,-0.260,0.085
5.878,-0.265,0.105
5.881,-0.250,0.090
5.883,-0.240,0.095
5.886,-0.250,0.100
5.889,-0.250,0.090
5.892,-0.250,0.090
5.894,-0.260,0.085
5.897,-0.265,0.085
5.900,-0.270,0.080
5.903,-0.270,0.080
5.906,-0.275,0.085
5.908,-0.265,0.090
5.911,-0.255,0.105
5.914,-0.250,0.115
5.917,-0.250,0.115
5.919,-0.265,0.105
5.922,-0.245,0.105
5.925,-0.245,0.105
5.928,-0.250,0.095
5.931,-0.275,0.090
5.933,-0.265,0.090
5.936,-0.275,0.085
5.939,-0.270,0.100
5.942,-0.260,0.105
5.944,-0.255,0.100
5.947,-0.250,0.105
5.950,-0.260,0.105
5.953,-0.250,0.105
5.956,-0.250,0.110
5.958,-0.255,0.095
5.961,-0.260,0.095
5.964,-0.265,0.085
5.967,-0.265,0.080
5.969,-0.275,0.085
5.972,-0.275,0.095
5.975,-0.275,0.095
5.978,-0.270,0.095
5.981,-0.260,0.100
5.983,-0.255,0.110
5.986,-0.250,0.110
5.989,-0.250,0.120
5.992,-0.265,0.100
5.994,-0.260,0.100
5.997,-0.275,0.085
6.000,-0.270,0.085
6.003,-0.260,0.095
6.006,-0.270,0.095
6.008,-0.255,0.115
6.011,-0.260,0.110
6.014,-0.255,0.110
6.017,-0.240,0.100
6.019,-0.245,0.110
6.022,-0.240,0.110
6.025,-0.245,0.095
6.028,-0.250,0.110
6.031,-0.255,0.090
6.033,-0.255,0.090
6.036,-0.250,0.090
6.039,-0.260,0.100
6.042,-0.260,0.100
6.044,-0.260,0.100
6.047,-0.255,0.115
6.050,-0.245,0.125
6.053,-0.250,0.105
6.056,-0.245,0.105
6.058,-0.245,0.105
6.061,-0.245,0.110
6.064,-0.250,0.100
6.067,-0.255,0.090
6.069,-0.255,0.085
6.072,-0.260,0.095
6.075,-0.265,0.100
6.078,-0.260,0.110
6.081,-0.250,0.130
6.083,-0.230,0.115
6.086,-0.230,0.110
6.089,-0.225,0.095
6.092,-0.245,0.105
6.094,-0.240,0.090
6.097,-0.245,0.095
6.100,-0.240,0.100
6.103,-0.245,0.090
6.106,-0.240,0.080
6.108,-0.240,0.090
6.111,-0.230,0.100
6.114,-0.225,0.105
6.117,-0.225,0.105
6.119,-0.220,0.105
6.122,-0.215,0.095
6.125,-0.220,0.090
6.128,-0.210,0.090
6.131,-0.220,0.095
6.133,-0.225,0.085
6.136,-0.225,0.085
6.139,-0.210,0.080
6.142,-0.210,0.085
6.144,-0.215,0.095
6.147,-0.200,0.110
6.150,-0.195,0.120
6.153,-0.190,0.110
6.156,-0.190,0.115
6.158,-0.190,0.095
6.161,-0.195,0.095
6.164,-0.215,0.085
6.167,-0.205,0.090
6.169,-0.205,0.095
6.172,-0.205,0.090
6.175,-0.195,0.095
6.178,-0.200,0.110
6.181,-0.185,0.115
6.183,-0.190,0.115
6.186,-0.195,0.115
6.189,-0.180,0.120
6.192,-0.180,0.100
6.194,-0.175,0.090
6.197,-0.180,0.090
6.200,-0.200,0.090
6.203,-0.190,0.095
6.206,-0.195,0.085
6.208,-0.190,0.100
6.211,-0.175,0.115
6.214,-0.165,0.115
6.217,-0.165,0.110
6.219,-0.165,0.120
6.222,-0.170,0.110
6.225,-0.170,0.105
6.228,-0.175,0.105
6.231,-0.180,0.085
6.233,-0.180,0.090
6.236,-0.180,0.100
6.239,-0.190,0.095
6.242,-0.170,0.095
6.244,-0.185,0.105
6.247,-0.180,0.100
6.250,-0.180,0.110
6.253,-0.185,0.110
6.256,-0.180,0.125
6.258,-0.165,0.105
6.261,-0.180,0.105
6.264,-0.180,0.100
6.267,-0.175,0.085
6.269,-0.180,0.095
6.272,-0.185,0.090
6.275,-0.185,0.095
6.278,-0.170,0.095
6.281,-0.165,0.100
6.283,-0.160,0.095
6.286,-0.165,0.115
6.289,-0.150,0.095
6.292,-0.170,0.090
6.294,-0.185,0.095
6.297,-0.185,0.085
6.300,-0.180,0.080
6.303,-0.175,0.085
6.306,-0.175,0.100
6.308,-0.165,0.090
6.311,-0.165,0.100
6.314,-0.155,0.105
6.317,-0.140,0.105
6.319,-0.155,0.100
6.322,-0.155,0.100
6.325,-0.150,0.100
6.328,-0.155,0.100
6.331,-0.155,0.080
6.333,-0.160,0.080
6.336,-0.170,0.085
6.339,-0.170,0.085
6.342,-0.165,0.095
6.344,-0.160,0.105
6.347,-0.160,0.100
6.350,-0.145,0.120
6.353,-0.145,0.120
6.356,-0.145,0.120
6.358,-0.155,0.100
6.361,-0.155,0.090
6.364,-0.155,0.085
6.367,-0.170,0.080
6.369,-0.160,0.090
6.372,-0.170,0.100
6.375,-0.170,0.095
6.378,-0.150,0.100
6.381,-0.160,0.110
6.383,-0.155,0.115
6.386,-0.150,0.120
6.389,-0.140,0.110
6.392,-0.145,0.110
6.394,-0.140,0.100
6.397,-0.140,0.095
6.400,-0.155,0.095
6.403,-0.160,0.100
6.406,-0.155,0.090
6.408,-0.155,0.100
6.411,-0.150,0.105
6.414,-0.140,0.110
6.417,-0.135,0.110
6.419,-0.120,0.115
6.422,-0.130,0.110
6.425,-0.140,0.090
6.428,-0.135,0.085
6.431,-0.155,0.085
6.433,-0.150,0.085
6.436,-0.150,0.095
6.439,-0.140,0.085
6.442,-0.150,0.085
6.444,-0.135,0.100
6.447,-0.135,0.095
6.450,-0.115,0.105
6.453,-0.115,0.110
6.456,-0.120,0.105
6.458,-0.115,0.105
6.461,-0.115,0.095
6.464,-0.130,0.095
6.467,-0.125,0.085
6.469,-0.125,0.085
6.472,-0.125,0.085
6.475,-0.125,0.100
6.478,-0.130,0.115
6.481,-0.125,0.115
6.483,-0.105,0.125
6.486,-0.105,0.120
6.489,-0.120,0.125
6.492,-0.110,0.100
6.494,-0.115,0.100
6.497,-0.125,0.090
6.500,-0.135,0.090
6.503,-0.130,0.095
6.506,-0.125,0.090
6.508,-0.130,0.095
6.511,-0.125,0.100
6.514,-0.125,0.110
6.517,-0.100,0.110
6.519,-0.110,0.110
6.522,-0.110,0.110
6.525,-0.110,0.110
6.528,-0.110,0.100
6.531,-0.115,0.095
6.533,-0.120,0.090
6.536,-0.125,0.090
6.539,-0.140,0.095
6.542,-0.115,0.100
6.544,-0.115,0.100
6.547,-0.120,0.115
6.550,-0.110,0.100
6.553,-0.110,0.115
6.556,-0.100,0.095
6.558,-0.115,0.105
6.561,-0.120,0.100
6.564,-0.125,0.100
6.567,-0.120,0.095
6.569,-0.120,0.085
6.572,-0.120,0.085
6.575,-0.110,0.105
6.578,-0.105,0.105
6.581,-0.105,0.100
6.583,-0.100,0.110
6.586,-0.095,0.105
6.589,-0.095,0.100
6.592,-0.090,0.110
6.594,-0.095,0.095
6.597,-0.095,0.085
6.600,-0.105,0.075
6.603,-0.110,0.085
6.606,-0.100,0.080
6.608,-0.110,0.090
6.611,-0.100,0.095
6.614,-0.100,0.110
6.617,-0.085,0.125
6.619,-0.085,0.125
6.622,-0.085,0.130
6.625,-0.075,0.125
6.628,-0.080,0.140
6.631,-0.080,0.140
6.633,-0.075,0.160
6.636,-0.065,0.175
6.639,-0.060,0.195
6.642,-0.040,0.210
6.644,-0.040,0.200
6.647,-0.035,0.195
6.650,-0.010,0.200
6.653,-0.005,0.180
6.656,-0.005,0.170
6.658,0.005,0.135
6.661,0.015,0.130
6.664,0.035,0.120
6.667,0.045,0.110
6.669,0.050,0.115
6.672,0.090,0.115
6.675,0.100,0.110
6.678,0.100,0.110
6.681,0.105,0.115
6.683,0.105,0.120
6.686,0.100,0.095
6.689,0.085,0.110
6.692,0.065,0.080
6.694,0.040,0.090
6.697,0.030,0.090
6.700,0.025,0.080
6.703,-0.005,0.095
6.706,-0.020,0.090
6.708,-0.025,0.090
6.711,-0.030,0.090
6.714,-0.055,0.090
6.717,-0.060,0.085
6.719,-0.085,0.095
6.722,-0.085,0.085
6.725,-0.090,0.085
6.728,-0.095,0.085
6.731,-0.115,0.065
6.733,-0.115,0.075
6.736,-0.125,0.060
6.739,-0.120,0.075
6.742,-0.115,0.085
6.744,-0.110,0.085
6.747,-0.120,0.095
6.750,-0.110,0.095
6.753,-0.125,0.090
6.756,-0.125,0.085
6.758,-0.110,0.080
6.761,-0.110,0.085
6.764,-0.125,0.075
6.767,-0.125,0.085
6.769,-0.120,0.075
6.772,-0.125,0.080
6.775,-0.125,0.085
6.778,-0.115,0.085
6.781,-0.120,0.100
6.783,-0.100,0.120
6.786,-0.105,0.120
6.789,-0.110,0.145
6.792,-0.120,0.160
6.794,-0.145,0.180
6.797,-0.190,0.200
6.800,-0.230,0.205
6.803,-0.300,0.195
6.806,-0.365,0.185
6.808,-0.380,0.170
6.811,-0.315,0.150
6.814,-0.150,0.105
6.817,0.120,0.055
6.819,0.455,0.020
6.822,0.825,-0.020
6.825,1.200,-0.065
6.828,1.520,-0.105
6.831,1.755,-0.150
6.833,1.845,-0.195
6.836,1.755,-0.220
6.839,1.455,-0.260
6.842,1.030,-0.260
6.844,0.600,-0.250
6.847,0.270,-0.215
6.850,0.085,-0.180
6.853,0.020,-0.125
6.856,0.020,-0.075
6.858,0.075,-0.045
6.861,0.100,-0.015
6.864,0.110,-0.030
6.867,0.080,-0.015
6.869,0.030,0.015
6.872,-0.015,0.055
6.875,-0.070,0.085
6.878,-0.105,0.125
6.881,-0.115,0.145
6.883,-0.100,0.150
6.886,-0.110,0.155
6.889,-0.105,0.145
6.892,-0.110,0.135
6.894,-0.115,0.125
6.897,-0.130,0.120
6.900,-0.140,0.125
6.903,-0.150,0.120
6.906,-0.155,0.155
6.908,-0.160,0.150
6.911,-0.155,0.160
6.914,-0.155,0.170
6.917,-0.145,0.175
6.919,-0.145,0.160
6.922,-0.150,0.165
6.925,-0.160,0.155
6.928,-0.170,0.155
6.931,-0.165,0.155
6.933,-0.175,0.150
6.936,-0.180,0.155
6.939,-0.180,0.145
6.942,-0.180,0.165
6.944,-0.165,0.170
6.947,-0.155,0.170
6.950,-0.145,0.185
6.953,-0.145,0.175
6.956,-0.135,0.170
6.958,-0.135,0.175
6.961,-0.150,0.175
6.964,-0.155,0.160
6.967,-0.165,0.155
6.969,-0.160,0.150
6.972,-0.155,0.160
6.975,-0.150,0.165
6.978,-0.145,0.175
6.981,-0.135,0.185
6.983,-0.140,0.190
6.986,-0.135,0.185
6.989,-0.140,0.175
6.992,-0.130,0.185
6.994,-0.130,0.165
6.997,-0.135,0.160
7.000,-0.135,0.155
7.003,-0.135,0.155
7.006,-0.140,0.175
7.008,-0.145,0.180
7.011,-0.140,0.185
7.014,-0.125,0.195
7.017,-0.115,0.195
7.019,-0.110,0.195
7.022,-0.120,0.195
7.025,-0.125,0.185
7.028,-0.125,0.190
7.031,-0.130,0.175
7.033,-0.130,0.180
7.036,-0.115,0.180
7.039,-0.105,0.185
7.042,-0.100,0.190
7.044,-0.100,0.205
7.047,-0.095,0.205
7.050,-0.080,0.210
7.053,-0.070,0.195
7.056,-0.075,0.210
7.058,-0.070,0.205
7.061,-0.080,0.185
7.064,-0.070,0.185
7.067,-0.085,0.175
7.069,-0.075,0.190
7.072,-0.075,0.190
7.075,-0.075,0.200
7.078,-0.055,0.210
7.081,-0.060,0.210
7.083,-0.045,0.220
7.086,-0.035,0.220
7.089,-0.030,0.220
7.092,-0.035,0.215
7.094,-0.045,0.210
7.097,-0.040,0.200
7.100,-0.040,0.195
7.103,-0.055,0.195
7.106,-0.055,0.220
7.108,-0.055,0.215
7.111,-0.050,0.225
7.114,-0.040,0.235
7.117,-0.030,0.230
7.119,-0.010,0.225
7.122,-0.010,0.215
7.125,-0.010,0.205
7.128,-0.015,0.215
7.131,-0.010,0.205
7.133,-0.020,0.200
7.136,-0.015,0.205
7.139,-0.010,0.200
7.142,-0.005,0.210
7.144,0.015,0.210
7.147,0.035,0.215
7.150,0.045,0.220
7.153,0.065,0.205
7.156,0.070,0.205
7.158,0.085,0.200
7.161,0.090,0.195
7.164,0.110,0.175
7.167,0.115,0.180
7.169,0.105,0.170
7.172,0.120,0.165
7.175,0.130,0.170
7.178,0.140,0.165
7.181,0.165,0.175
7.183,0.185,0.170
7.186,0.200,0.165
7.189,0.210,0.155
7.192,0.220,0.150
7.194,0.230,0.135
7.197,0.255,0.125
7.200,0.255,0.120
7.203,0.275,0.120
7.206,0.285,0.120
7.208,0.295,0.125
7.211,0.300,0.135
7.214,0.325,0.125
7.217,0.330,0.135
7.219,0.345,0.120
7.222,0.340,0.120
7.225,0.335,0.105
7.228,0.330,0.095
7.231,0.310,0.090
7.233,0.295,0.090
7.236,0.285,0.095
7.239,0.280,0.100
7.242,0.280,0.100
7.244,0.285,0.095
7.247,0.290,0.115
7.250,0.290,0.120
7.253,0.270,0.115
7.256,0.255,0.130
7.258,0.240,0.115
7.261,0.220,0.120
7.264,0.195,0.100
7.267,0.180,0.100
7.269,0.145,0.110
7.272,0.145,0.110
7.275,0.130,0.110
7.278,0.140,0.125
7.281,0.145,0.130
7.283,0.125,0.145
7.286,0.125,0.140
7.289,0.115,0.150
7.292,0.120,0.140
7.294,0.110,0.150
7.297,0.085,0.125
7.300,0.080,0.115
7.303,0.055,0.140
7.306,0.045,0.140
7.308,0.045,0.145
7.311,0.040,0.170
7.314,0.050,0.175
7.317,0.055,0.185
7.319,0.040,0.175
7.322,0.035,0.170
7.325,0.035,0.165
7.328,0.020,0.160
7.331,0.010,0.150
7.333,-0.005,0.145
7.336,-0.015,0.150
7.339,-0.010,0.155
7.342,-0.005,0.165
7.344,0.005,0.165
7.347,0.010,0.165
7.350,0.035,0.175
7.353,0.035,0.165
7.356,0.015,0.175
7.358,0.000,0.160
7.361,0.010,0.170
7.364,0.000,0.150
7.367,-0.015,0.145
7.369,-0.020,0.140
7.372,-0.025,0.150
7.375,-0.020,0.155
7.378,-0.005,0.160
7.381,0.000,0.165
7.383,-0.005,0.170
7.386,-0.005,0.170
7.389,-0.010,0.165
7.392,-0.035,0.155
7.394,-0.020,0.145
7.397,-0.020,0.140
7.400,-0.025,0.135
7.403,-0.035,0.145
7.406,-0.035,0.140
7.408,-0.040,0.145
7.411,-0.030,0.140
7.414,-0.035,0.170
7.417,-0.015,0.155
7.419,-0.035,0.160
7.422,-0.040,0.160
7.425,-0.055,0.150
7.428,-0.085,0.150
7.431,-0.075,0.140
7.433,-0.065,0.125
7.436,-0.065,0.125
7.439,-0.055,0.125
7.442,-0.055,0.135
7.444,-0.065,0.145
7.447,-0.065,0.150
7.450,-0.065,0.160
7.453,-0.080,0.150
7.456,-0.100,0.155
7.458,-0.095,0.135
7.461,-0.100,0.120
7.464,-0.100,0.115
7.467,-0.090,0.100
7.469,-0.095,0.105
7.472,-0.085,0.115
7.475,-0.090,0.130
7.478,-0.100,0.120
7.481,-0.090,0.125
7.483,-0.095,0.140
7.486,-0.100,0.155
7.489,-0.085,0.140
7.492,-0.095,0.130
7.494,-0.090,0.135
7.497,-0.095,0.140
7.500,-0.095,0.135
7.503,-0.120,0.130
7.506,-0.100,0.145
7.508,-0.105,0.125
7.511,-0.105,0.145
7.514,-0.105,0.135
7.517,-0.110,0.150
7.519,-0.105,0.135
7.522,-0.120,0.150
7.525,-0.110,0.145
7.528,-0.110,0.160
7.531,-0.110,0.155
7.533,-0.105,0.175
7.536,-0.115,0.185
7.539,-0.125,0.195
7.542,-0.125,0.195
7.544,-0.100,0.210
7.547,-0.095,0.220
7.550,-0.070,0.225
7.553,-0.045,0.220
7.556,-0.030,0.220
7.558,-0.005,0.195
7.561,-0.015,0.185
7.564,-0.025,0.180
7.567,-0.030,0.175
7.569,-0.035,0.160
7.572,-0.020,0.155
7.575,0.005,0.160
7.578,0.025,0.165
7.581,0.060,0.165
7.583,0.075,0.165
7.586,0.090,0.155
7.589,0.085,0.165
7.592,0.060,0.145
7.594,0.035,0.125
7.597,0.010,0.110
7.600,-0.010,0.100
7.603,-0.025,0.105
7.606,-0.040,0.140
7.608,-0.045,0.145
7.611,-0.035,0.160
7.614,-0.045,0.155
7.617,-0.050,0.150
7.619,-0.060,0.140
7.622,-0.085,0.135
7.625,-0.100,0.115
7.628,-0.135,0.110
7.631,-0.145,0.115
7.633,-0.155,0.115
7.636,-0.170,0.110
7.639,-0.180,0.110
7.642,-0.180,0.130
7.644,-0.180,0.125
7.647,-0.170,0.125
7.650,-0.175,0.125
7.653,-0.165,0.135
7.656,-0.175,0.145
7.658,-0.165,0.135
7.661,-0.180,0.130
7.664,-0.185,0.120
7.667,-0.200,0.110
7.669,-0.205,0.110
7.672,-0.210,0.120
7.675,-0.215,0.130
7.678,-0.205,0.140
7.681,-0.185,0.135
7.683,-0.180,0.145
7.686,-0.165,0.155
7.689,-0.160,0.140
7.692,-0.160,0.130
7.694,-0.170,0.120
7.697,-0.190,0.125
7.700,-0.185,0.125
7.703,-0.205,0.135
7.706,-0.190,0.145
7.708,-0.195,0.185
7.711,-0.200,0.230
7.714,-0.220,0.255
7.717,-0.260,0.260
7.719,-0.335,0.255
7.722,-0.405,0.235
7.725,-0.450,0.200
7.728,-0.400,0.130
7.731,-0.260,0.070
7.733,-0.020,-0.015
7.736,0.320,-0.050
7.739,0.715,-0.055
7.742,1.130,-0.040
7.744,1.455,0.015
7.747,1.640,0.065
7.750,1.600,0.090
7.753,1.290,0.100
7.756,0.775,0.095
7.758,0.215,0.135
7.761,-0.235,0.225
7.764,-0.490,0.375
7.767,-0.575,0.525
7.769,-0.565,0.670
7.772,-0.525,0.770
7.775,-0.510,0.865
7.778,-0.535,0.945
7.781,-0.605,0.995
7.783,-0.685,1.030
7.786,-0.790,1.055
7.789,-0.865,1.080
7.792,-0.920,1.075
7.794,-0.935,1.055
7.797,-0.930,1.010
7.800,-0.900,0.945
7.803,-0.850,0.880
7.806,-0.770,0.805
7.808,-0.680,0.720
7.811,-0.575,0.620
7.814,-0.475,0.515
7.817,-0.400,0.415
7.819,-0.325,0.320
7.822,-0.290,0.265
7.825,-0.230,0.220
7.828,-0.205,0.190
7.831,-0.200,0.180
7.833,-0.190,0.175
7.836,-0.190,0.165
7.839,-0.200,0.165
7.842,-0.185,0.155
7.844,-0.180,0.150
7.847,-0.165,0.140
7.850,-0.145,0.150
7.853,-0.135,0.140
7.856,-0.130,0.145
7.858,-0.120,0.120
7.861,-0.130,0.120
7.864,-0.130,0.115
7.867,-0.125,0.095
7.869,-0.130,0.105
7.872,-0.125,0.105
7.875,-0.110,0.110
7.878,-0.095,0.120
7.881,-0.090,0.120
7.883,-0.090,0.125
7.886,-0.080,0.105
7.889,-0.085,0.095
7.892,-0.080,0.085
7.894,-0.080,0.085
7.897,-0.095,0.080
7.900,-0.085,0.070
7.903,-0.095,0.080
7.906,-0.085,0.075
7.908,-0.085,0.080
7.911,-0.075,0.090
7.914,-0.050,0.100
7.917,-0.040,0.100
7.919,-0.045,0.100
7.922,-0.030,0.090
7.925,-0.030,0.080
7.928,-0.035,0.080
7.931,-0.055,0.070
7.933,-0.080,0.050
7.936,-0.060,0.060
7.939,-0.045,0.065
7.942,-0.030,0.065
7.944,-0.020,0.055
7.947,-0.005,0.065
7.950,0.020,0.065
7.953,0.025,0.065
7.956,0.045,0.065
7.958,0.040,0.060
7.961,0.050,0.040
7.964,0.055,0.035
7.967,0.050,0.025
7.969,0.040,0.040
7.972,0.060,0.035
7.975,0.050,0.035
7.978,0.070,0.035
7.981,0.100,0.035
7.983,0.125,0.035
7.986,0.135,0.030
7.989,0.145,0.025
7.992,0.170,0.015
7.994,0.160,-0.005
7.997,0.160,-0.015
8.000,0.160,-0.010
8.003,0.150,-0.035
8.006,0.175,-0.035
8.008,0.185,-0.045
8.011,0.215,-0.040
8.014,0.220,-0.040
8.017,0.250,-0.040
8.019,0.270,-0.035
8.022,0.290,-0.040
8.025,0.300,-0.040
8.028,0.315,-0.065
8.031,0.325,-0.080
8.033,0.320,-0.080
8.036,0.300,-0.080
8.039,0.315,-0.085
8.042,0.320,-0.065
8.044,0.330,-0.075
8.047,0.350,-0.070
8.050,0.360,-0.050
8.053,0.365,-0.055
8.056,0.365,-0.075
8.058,0.375,-0.080
8.061,0.370,-0.085
8.064,0.385,-0.110
8.067,0.375,-0.110
8.069,0.380,-0.120
8.072,0.400,-0.105
8.075,0.390,-0.090
8.078,0.400,-0.065
8.081,0.400,-0.060
8.083,0.385,-0.035
8.086,0.385,-0.045
8.089,0.370,-0.045
8.092,0.360,-0.030
8.094,0.350,-0.045
8.097,0.335,-0.040
8.100,0.320,-0.030
8.103,0.300,-0.010
8.106,0.285,-0.005
8.108,0.270,0.015
8.111,0.245,0.015
8.114,0.235,0.045
8.117,0.210,0.045
8.119,0.200,0.075
8.122,0.175,0.085
8.125,0.155,0.095
8.128,0.115,0.090
8.131,0.095,0.100
8.133,0.070,0.085
8.136,0.055,0.110
8.139,0.050,0.135
8.142,0.040,0.125
8.144,0.030,0.150
8.147,0.010,0.160
8.150,0.000,0.170
8.153,-0.020,0.180
8.156,-0.040,0.185
8.158,-0.045,0.165
8.161,-0.050,0.165
8.164,-0.060,0.175
8.167,-0.075,0.170
8.169,-0.105,0.175
8.172,-0.120,0.185
8.175,-0.125,0.195
8.178,-0.105,0.205
8.181,-0.100,0.210
8.183,-0.080,0.230
8.186,-0.065,0.230
8.189,-0.075,0.225
8.192,-0.090,0.215
8.194,-0.110,0.210
8.197,-0.120,0.190
8.200,-0.130,0.180
8.203,-0.130,0.190
8.206,-0.130,0.190
8.208,-0.120,0.190
8.211,-0.115,0.205
8.214,-0.110,0.215
8.217,-0.105,0.215
8.219,-0.085,0.220
8.222,-0.080,0.215
8.225,-0.075,0.205
8.228,-0.080,0.195
8.231,-0.090,0.190
8.233,-0.090,0.180
8.236,-0.105,0.180
8.239,-0.095,0.195
8.242,-0.100,0.190
8.244,-0.095,0.180
8.247,-0.080,0.195
8.250,-0.080,0.200
8.253,-0.080,0.200
8.256,-0.080,0.200
8.258,-0.080,0.185
8.261,-0.085,0.185
8.264,-0.085,0.170
8.267,-0.095,0.165
8.269,-0.095,0.170
8.272,-0.105,0.175
8.275,-0.105,0.170
8.278,-0.100,0.185
8.281,-0.095,0.190
8.283,-0.090,0.195
8.286,-0.080,0.180
8.289,-0.095,0.170
8.292,-0.095,0.170
8.294,-0.100,0.180
8.297,-0.110,0.170
8.300,-0.110,0.155
8.303,-0.115,0.165
8.306,-0.130,0.165
8.308,-0.130,0.180
8.311,-0.115,0.180
8.314,-0.120,0.180
8.317,-0.120,0.200
8.319,-0.105,0.185
8.322,-0.115,0.185
8.325,-0.130,0.185
8.328,-0.130,0.185
8.331,-0.140,0.170
8.333,-0.130,0.165
8.336,-0.135,0.160
8.339,-0.140,0.150
8.342,-0.145,0.170
8.344,-0.135,0.165
8.347,-0.140,0.185
8.350,-0.130,0.185
8.353,-0.130,0.185
8.356,-0.140,0.175
8.358,-0.145,0.175
8.361,-0.150,0.160
8.364,-0.150,0.170
8.367,-0.145,0.160
8.369,-0.165,0.170
8.372,-0.155,0.180
8.375,-0.145,0.200
8.378,-0.145,0.205
8.381,-0.130,0.230
8.383,-0.115,0.240
8.386,-0.105,0.240
8.389,-0.095,0.250
8.392,-0.085,0.245
8.394,-0.080,0.235
8.397,-0.080,0.220
8.400,-0.085,0.195
8.403,-0.080,0.205
8.406,-0.070,0.205
8.408,-0.055,0.210
8.411,-0.035,0.200
8.414,-0.015,0.200
8.417,0.005,0.205
8.419,0.025,0.185
8.422,0.035,0.185
8.425,0.035,0.180
8.428,0.035,0.170
8.431,0.010,0.140
8.433,-0.005,0.130
8.436,-0.020,0.115
8.439,-0.025,0.130
8.442,-0.035,0.135
8.444,-0.040,0.150
8.447,-0.050,0.160
8.450,-0.060,0.165
8.453,-0.085,0.150
8.456,-0.105,0.150
8.458,-0.120,0.125
8.461,-0.140,0.130
8.464,-0.170,0.110
8.467,-0.180,0.115
8.469,-0.195,0.120
8.472,-0.200,0.115
8.475,-0.200,0.125
8.478,-0.200,0.135
8.481,-0.205,0.140
8.483,-0.190,0.140
8.486,-0.195,0.130
8.489,-0.200,0.130
8.492,-0.210,0.120
8.494,-0.215,0.120
8.497,-0.210,0.105
8.500,-0.225,0.110
8.503,-0.230,0.120
8.506,-0.225,0.120
8.508,-0.235,0.130
8.511,-0.220,0.115
8.514,-0.225,0.135
8.517,-0.210,0.140
8.519,-0.210,0.130
8.522,-0.200,0.130
8.525,-0.210,0.135
8.528,-0.220,0.140
8.531,-0.215,0.125
8.533,-0.220,0.145
8.536,-0.225,0.150
8.539,-0.225,0.175
8.542,-0.240,0.215
8.544,-0.265,0.240
8.547,-0.295,0.265
8.550,-0.360,0.260
8.553,-0.430,0.255
8.556,-0.460,0.210
8.558,-0.410,0.145
8.561,-0.230,0.060
8.564,0.040,-0.005
8.567,0.425,-0.050
8.569,0.835,-0.070
8.572,1.230,-0.050
8.575,1.495,-0.015
8.578,1.540,0.010
8.581,1.315,0.030
8.583,0.835,0.060
8.586,0.310,0.130
8.589,-0.130,0.255
8.592,-0.390,0.395
8.594,-0.500,0.565
8.597,-0.515,0.720
8.600,-0.510,0.835
8.603,-0.545,0.910
8.606,-0.610,0.970
8.608,-0.700,1.015
8.611,-0.810,1.065
8.614,-0.895,1.080
8.617,-0.945,1.080
8.619,-0.945,1.050
8.622,-0.930,0.980
8.625,-0.870,0.875
8.628,-0.825,0.785
8.631,-0.745,0.675
8.633,-0.655,0.575
8.636,-0.555,0.460
8.639,-0.465,0.370
8.642,-0.410,0.275
8.644,-0.335,0.240
8.647,-0.295,0.200
8.650,-0.260,0.195
8.653,-0.235,0.170
8.656,-0.230,0.160
8.658,-0.220,0.150
8.661,-0.225,0.130
8.664,-0.205,0.125
8.667,-0.210,0.125
8.669,-0.205,0.110
8.672,-0.190,0.105
8.675,-0.195,0.105
8.678,-0.180,0.105
8.681,-0.175,0.100
8.683,-0.165,0.095
8.686,-0.155,0.110
8.689,-0.155,0.100
8.692,-0.155,0.090
8.694,-0.165,0.090
8.697,-0.150,0.070
8.700,-0.155,0.065
8.703,-0.170,0.070
8.706,-0.160,0.055
8.708,-0.160,0.065
8.711,-0.140,0.065
8.714,-0.120,0.075
8.717,-0.125,0.080
8.719,-0.125,0.070
8.722,-0.130,0.065
8.725,-0.110,0.055
8.728,-0.115,0.055
8.731,-0.110,0.050
8.733,-0.110,0.040
8.736,-0.115,0.040
8.739,-0.130,0.035
8.742,-0.120,0.040
8.744,-0.105,0.050
8.747,-0.070,0.045
8.750,-0.065,0.055
8.753,-0.055,0.045
8.756,-0.065,0.045
8.758,-0.060,0.050
8.761,-0.050,0.030
8.764,-0.050,0.035
8.767,-0.045,0.025
8.769,-0.040,0.020
8.772,-0.045,0.015
8.775,-0.030,0.020
8.778,-0.020,0.025
8.781,-0.010,0.035
8.783,0.005,0.040
8.786,0.015,0.025
8.789,0.035,0.025
8.792,0.030,0.015
8.794,0.035,0.010
8.797,0.030,0.010
8.800,0.040,-0.005
8.803,0.050,-0.020
8.806,0.060,-0.025
8.808,0.055,-0.005
8.811,0.085,-0.010
8.814,0.095,-0.015
8.817,0.110,-0.010
8.819,0.125,-0.030
8.822,0.115,-0.025
8.825,0.135,-0.025
8.828,0.140,-0.035
8.831,0.140,-0.055
8.833,0.150,-0.065
8.836,0.160,-0.070
8.839,0.165,-0.070
8.842,0.185,-0.060
8.844,0.200,-0.065
8.847,0.215,-0.060
8.850,0.235,-0.060
8.853,0.250,-0.060
8.856,0.260,-0.075
8.858,0.265,-0.080
8.861,0.275,-0.075
8.864,0.275,-0.080
8.867,0.265,-0.085
8.869,0.255,-0.105
8.872,0.280,-0.095
8.875,0.290,-0.085
8.878,0.300,-0.090
8.881,0.310,-0.080
8.883,0.320,-0.080
8.886,0.345,-0.090
8.889,0.355,-0.070
8.892,0.355,-0.075
8.894,0.350,-0.070
8.897,0.370,-0.090
8.900,0.365,-0.085
8.903,0.355,-0.075
8.906,0.350,-0.075
8.908,0.365,-0.055
8.911,0.365,-0.050
8.914,0.370,-0.045
8.917,0.375,-0.025
8.919,0.360,-0.020
8.922,0.340,-0.020
8.925,0.325,-0.005
8.928,0.325,-0.015
8.931,0.295,0.005
8.933,0.275,0.010
8.936,0.245,0.005
8.939,0.225,0.025
8.942,0.220,0.045
8.944,0.190,0.065
8.947,0.175,0.080
8.950,0.155,0.085
8.953,0.140,0.085
8.956,0.110,0.100
8.958,0.090,0.105
8.961,0.070,0.095
8.964,0.055,0.090
8.967,0.025,0.090
8.969,0.000,0.100
8.972,-0.020,0.095
8.975,-0.025,0.110
8.978,-0.045,0.120
8.981,-0.050,0.125
8.983,-0.060,0.130
8.986,-0.065,0.130
8.989,-0.065,0.130
8.992,-0.065,0.140
8.994,-0.080,0.130
8.997,-0.090,0.125
9.000,-0.100,0.125
9.003,-0.110,0.120
9.006,-0.115,0.125
9.008,-0.105,0.135
9.011,-0.105,0.135
9.014,-0.105,0.140
9.017,-0.095,0.140
9.019,-0.090,0.150
9.022,-0.080,0.155
9.025,-0.090,0.155
9.028,-0.095,0.145
9.031,-0.105,0.135
9.033,-0.110,0.130
9.036,-0.120,0.125
9.039,-0.115,0.130
9.042,-0.105,0.130
9.044,-0.110,0.140
9.047,-0.090,0.150
9.050,-0.090,0.155
9.053,-0.080,0.155
9.056,-0.080,0.145
9.058,-0.065,0.140
9.061,-0.085,0.140
9.064,-0.075,0.130
9.067,-0.080,0.120
9.069,-0.080,0.115
9.072,-0.090,0.120
9.075,-0.085,0.115
9.078,-0.070,0.115
9.081,-0.080,0.125
9.083,-0.060,0.140
9.086,-0.060,0.140
9.089,-0.055,0.135
9.092,-0.070,0.145
9.094,-0.070,0.130
9.097,-0.075,0.125
9.100,-0.075,0.120
9.103,-0.090,0.100
9.106,-0.090,0.105
9.108,-0.100,0.115
9.111,-0.080,0.120
9.114,-0.095,0.130
9.117,-0.075,0.135
9.119,-0.085,0.140
9.122,-0.105,0.130
9.125,-0.100,0.125
9.128,-0.085,0.110
9.131,-0.105,0.110
9.133,-0.115,0.105
9.136,-0.115,0.100
9.139,-0.120,0.110
9.142,-0.120,0.120
9.144,-0.120,0.125
9.147,-0.115,0.140
9.150,-0.110,0.130
9.153,-0.120,0.130
9.156,-0.115,0.120
9.158,-0.120,0.110
9.161,-0.125,0.115
9.164,-0.135,0.105
9.167,-0.140,0.105
9.169,-0.155,0.095
9.172,-0.160,0.105
9.175,-0.150,0.110
9.178,-0.155,0.115
9.181,-0.145,0.120
9.183,-0.150,0.130
9.186,-0.140,0.120
9.189,-0.150,0.105
9.192,-0.145,0.120
9.194,-0.145,0.100
9.197,-0.160,0.110
9.200,-0.165,0.100
9.203,-0.165,0.105
9.206,-0.155,0.105
9.208,-0.165,0.120
9.211,-0.160,0.125
9.214,-0.145,0.130
9.217,-0.150,0.140
9.219,-0.140,0.130
9.222,-0.145,0.140
9.225,-0.160,0.135
9.228,-0.165,0.115
9.231,-0.160,0.105
9.233,-0.165,0.125
9.236,-0.175,0.115
9.239,-0.170,0.105
9.242,-0.160,0.115
9.244,-0.170,0.115
9.247,-0.155,0.135
9.250,-0.155,0.135
9.253,-0.140,0.130
9.256,-0.150,0.130
9.258,-0.145,0.115
9.261,-0.145,0.120
9.264,-0.145,0.115
9.267,-0.165,0.115
9.269,-0.160,0.120
9.272,-0.165,0.115
9.275,-0.155,0.130
9.278,-0.165,0.140
9.281,-0.155,0.155
9.283,-0.145,0.155
9.286,-0.135,0.180
9.289,-0.135,0.190
9.292,-0.130,0.195
9.294,-0.115,0.190
9.297,-0.115,0.205
9.300,-0.120,0.210
9.303,-0.115,0.210
9.306,-0.105,0.205
9.308,-0.100,0.205
9.311,-0.090,0.205
9.314,-0.080,0.200
9.317,-0.065,0.205
9.319,-0.055,0.205
9.322,-0.050,0.195
9.325,-0.040,0.170
9.328,-0.025,0.155
9.331,-0.015,0.150
9.333,0.005,0.140
9.336,0.020,0.140
9.339,0.020,0.145
9.342,0.035,0.140
9.344,0.025,0.140
9.347,0.015,0.135
9.350,0.010,0.140
9.353,0.010,0.135
9.356,-0.010,0.125
9.358,-0.020,0.130
9.361,-0.030,0.125
9.364,-0.050,0.125
9.367,-0.050,0.125
9.369,-0.065,0.115
9.372,-0.095,0.115
9.375,-0.115,0.115
9.378,-0.120,0.115
9.381,-0.135,0.125
9.383,-0.150,0.135
9.386,-0.150,0.115
9.389,-0.150,0.115
9.392,-0.165,0.115
9.394,-0.180,0.110
9.397,-0.205,0.095
9.400,-0.190,0.105
9.403,-0.205,0.095
9.406,-0.210,0.095
9.408,-0.215,0.110
9.411,-0.210,0.110
9.414,-0.195,0.115
9.417,-0.200,0.130
9.419,-0.190,0.120
9.422,-0.190,0.120
9.425,-0.185,0.120
9.428,-0.210,0.120
9.431,-0.200,0.100
9.433,-0.205,0.100
9.436,-0.205,0.100
9.439,-0.210,0.110
9.442,-0.210,0.120
9.444,-0.200,0.130
9.447,-0.200,0.135
9.450,-0.195,0.155
9.453,-0.180,0.165
9.456,-0.195,0.180
9.458,-0.195,0.210
9.461,-0.215,0.235
9.464,-0.240,0.265
9.467,-0.295,0.270
9.469,-0.355,0.260
9.472,-0.430,0.245
9.475,-0.460,0.220
9.478,-0.425,0.185
9.481,-0.295,0.125
9.483,-0.045,0.080
9.486,0.290,0.035
9.489,0.680,0.000
9.492,1.070,-0.015
9.494,1.390,-0.035
9.497,1.590,-0.045
9.500,1.605,-0.045
9.503,1.380,-0.040
9.506,0.960,-0.010
9.508,0.450,0.045
9.511,0.010,0.160
9.514,-0.280,0.330
9.517,-0.410,0.520
9.519,-0.440,0.685
9.522,-0.430,0.830
9.525,-0.440,0.905
9.528,-0.495,0.965
9.531,-0.595,1.015
9.533,-0.730,1.045
9.536,-0.855,1.060
9.539,-0.950,1.070
9.542,-1.000,1.070
9.544,-1.000,1.035
9.547,-0.965,0.975
9.550,-0.915,0.900
9.553,-0.820,0.815
9.556,-0.735,0.705
9.558,-0.640,0.600
9.561,-0.535,0.480
9.564,-0.470,0.375
9.567,-0.390,0.300
9.569,-0.350,0.245
9.572,-0.305,0.220
9.575,-0.270,0.205
9.578,-0.245,0.205
9.581,-0.225,0.205
9.583,-0.215,0.195
9.586,-0.210,0.195
9.589,-0.210,0.190
9.592,-0.195,0.170
9.594,-0.185,0.150
9.597,-0.195,0.140
9.600,-0.185,0.130
9.603,-0.195,0.125
9.606,-0.185,0.130
9.608,-0.175,0.140
9.611,-0.170,0.135
9.614,-0.160,0.140
9.617,-0.160,0.135
9.619,-0.140,0.145
9.622,-0.145,0.125
9.625,-0.140,0.130
9.628,-0.145,0.120
9.631,-0.155,0.095
9.633,-0.145,0.095
9.636,-0.160,0.110
9.639,-0.170,0.090
9.642,-0.155,0.095
9.644,-0.140,0.105
9.647,-0.135,0.110
9.650,-0.135,0.110
9.653,-0.120,0.115
9.656,-0.110,0.120
9.658,-0.115,0.115
9.661,-0.125,0.110
9.664,-0.110,0.105
9.667,-0.120,0.090
9.669,-0.120,0.080
9.672,-0.110,0.095
9.675,-0.110,0.090
9.678,-0.100,0.100
9.681,-0.090,0.110
9.683,-0.085,0.110
9.686,-0.065,0.095
9.689,-0.070,0.105
9.692,-0.070,0.090
9.694,-0.075,0.080
9.697,-0.080,0.075
9.700,-0.075,0.075
9.703,-0.060,0.075
9.706,-0.050,0.065
9.708,-0.040,0.080
9.711,-0.035,0.085
9.714,-0.020,0.080
9.717,-0.015,0.085
9.719,0.005,0.090
9.722,0.015,0.085
9.725,0.025,0.070
9.728,0.015,0.070
9.731,0.025,0.060
9.733,0.030,0.045
9.736,0.030,0.040
9.739,0.035,0.040
9.742,0.050,0.060
9.744,0.055,0.055
9.747,0.065,0.050
9.750,0.085,0.060
9.753,0.110,0.050
9.756,0.115,0.050
9.758,0.125,0.030
9.761,0.130,0.040
9.764,0.130,0.025
9.767,0.135,0.000
9.769,0.140,0.015
9.772,0.155,-0.005
9.775,0.170,0.000
9.778,0.185,0.005
9.781,0.200,0.010
9.783,0.225,0.000
9.786,0.235,-0.005
9.789,0.245,0.000
9.792,0.265,-0.015
9.794,0.265,-0.020
9.797,0.265,-0.040
9.800,0.280,-0.035
9.803,0.285,-0.045
9.806,0.300,-0.050
9.808,0.320,-0.045
9.811,0.335,-0.050
9.814,0.350,-0.035
9.817,0.350,-0.025
9.819,0.370,-0.025
9.822,0.380,-0.035
9.825,0.385,-0.040
9.828,0.385,-0.035
9.831,0.390,-0.050
9.833,0.380,-0.040
9.836,0.390,-0.050
9.839,0.395,-0.035
9.842,0.400,-0.030
9.844,0.405,-0.015
9.847,0.415,-0.030
9.850,0.430,-0.020
9.853,0.435,-0.030
9.856,0.430,-0.015
9.858,0.425,-0.020
9.861,0.425,-0.015
9.864,0.410,-0.020
9.867,0.395,-0.015
9.869,0.380,-0.010
9.872,0.370,0.005
9.875,0.360,0.010
9.878,0.340,0.025
9.881,0.340,0.025
9.883,0.325,0.055
9.886,0.305,0.065
9.889,0.290,0.070
9.892,0.265,0.065
9.894,0.250,0.065
9.897,0.225,0.070
9.900,0.185,0.075
9.903,0.170,0.085
9.906,0.140,0.090
9.908,0.110,0.110
9.911,0.105,0.125
9.914,0.085,0.130
9.917,0.090,0.165
9.919,0.090,0.160
9.922,0.075,0.160
9.925,0.060,0.165
9.928,0.035,0.155
9.931,0.025,0.170
9.933,0.005,0.160
9.936,-0.020,0.165
9.939,-0.025,0.175
9.942,-0.035,0.175
9.944,-0.040,0.185
9.947,-0.035,0.205
9.950,-0.030,0.210
9.953,-0.035,0.205
9.956,-0.035,0.205
9.958,-0.040,0.200
9.961,-0.055,0.195
9.964,-0.060,0.195
9.967,-0.075,0.190
9.969,-0.095,0.190
9.972,-0.095,0.195
9.975,-0.100,0.190
9.978,-0.095,0.200
9.981,-0.090,0.205
9.983,-0.070,0.225
9.986,-0.065,0.220
9.989,-0.070,0.210
9.992,-0.070,0.215
9.994,-0.075,0.205
9.997,-0.080,0.190
10.000,-0.095,0.185
10.003,-0.100,0.200
10.006,-0.095,0.180
10.008,-0.090,0.185
10.011,-0.095,0.190
10.014,-0.095,0.200
10.017,-0.075,0.220
10.019,-0.075,0.215
10.022,-0.080,0.205
10.025,-0.060,0.200
10.028,-0.065,0.205
10.031,-0.070,0.195
10.033,-0.075,0.190
10.036,-0.095,0.190
10.039,-0.085,0.185
10.042,-0.080,0.180
10.044,-0.085,0.190
10.047,-0.085,0.200
10.050,-0.085,0.200
10.053,-0.080,0.205
10.056,-0.085,0.200
10.058,-0.090,0.190
10.061,-0.100,0.190
10.064,-0.095,0.180
10.067,-0.115,0.170
10.069,-0.125,0.170
10.072,-0.120,0.170
10.075,-0.125,0.180
10.078,-0.120,0.185
10.081,-0.120,0.185
10.083,-0.125,0.195
10.086,-0.110,0.190
10.089,-0.110,0.190
10.092,-0.110,0.185
10.094,-0.120,0.185
10.097,-0.130,0.170
10.100,-0.140,0.165
10.103,-0.155,0.165
10.106,-0.165,0.160
10.108,-0.150,0.165
10.111,-0.135,0.165
10.114,-0.140,0.180
10.117,-0.125,0.175
10.119,-0.130,0.185
10.122,-0.140,0.180
10.125,-0.145,0.170
10.128,-0.160,0.180
10.131,-0.175,0.165
10.133,-0.175,0.160
10.136,-0.160,0.165
10.139,-0.150,0.160
10.142,-0.145,0.160
10.144,-0.140,0.170
10.147,-0.140,0.180
10.150,-0.135,0.195
10.153,-0.135,0.185
10.156,-0.125,0.175
10.158,-0.145,0.175
10.161,-0.165,0.165
10.164,-0.180,0.160
10.167,-0.195,0.155
10.169,-0.195,0.155
10.172,-0.180,0.135
10.175,-0.185,0.155
10.178,-0.175,0.165
10.181,-0.185,0.170
10.183,-0.170,0.170
10.186,-0.175,0.165
10.189,-0.180,0.170
10.192,-0.165,0.165
10.194,-0.165,0.170
10.197,-0.165,0.170
10.200,-0.165,0.170
10.203,-0.175,0.170
10.206,-0.175,0.160
10.208,-0.175,0.165
10.211,-0.165,0.175
10.214,-0.165,0.195
10.217,-0.175,0.210
10.219,-0.165,0.215
10.222,-0.160,0.235
10.225,-0.135,0.230
10.228,-0.145,0.245
10.231,-0.130,0.240
10.233,-0.130,0.235
10.236,-0.140,0.240
10.239,-0.130,0.225
10.242,-0.130,0.235
10.244,-0.130,0.235
10.247,-0.115,0.230
10.250,-0.075,0.230
10.253,-0.060,0.235
10.256,-0.040,0.220
10.258,-0.020,0.210
10.261,-0.010,0.185
10.264,-0.005,0.170
10.267,-0.005,0.175
10.269,-0.020,0.165
10.272,-0.015,0.165
10.275,-0.020,0.175
10.278,-0.015,0.175
10.281,-0.005,0.165
10.283,-0.010,0.180
10.286,-0.005,0.185
10.289,-0.025,0.205
10.292,-0.045,0.190
10.294,-0.075,0.200
10.297,-0.090,0.175
10.300,-0.120,0.165
10.303,-0.125,0.155
10.306,-0.140,0.150
10.308,-0.170,0.155
10.311,-0.175,0.160
10.314,-0.185,0.165
10.317,-0.180,0.165
10.319,-0.175,0.165
10.322,-0.175,0.160
10.325,-0.180,0.155
10.328,-0.190,0.140
10.331,-0.210,0.140
10.333,-0.215,0.130
10.336,-0.215,0.130
10.339,-0.225,0.135
10.342,-0.220,0.135
10.344,-0.215,0.155
10.347,-0.205,0.155
10.350,-0.200,0.160
10.353,-0.210,0.160
10.356,-0.210,0.155
10.358,-0.220,0.165
10.361,-0.240,0.160
10.364,-0.230,0.140
10.367,-0.235,0.140
10.369,-0.220,0.130
10.372,-0.225,0.140
10.375,-0.205,0.165
10.378,-0.195,0.165
10.381,-0.185,0.175
10.383,-0.190,0.205
10.386,-0.190,0.225
10.389,-0.200,0.260
10.392,-0.220,0.280
10.394,-0.255,0.300
10.397,-0.315,0.305
10.400,-0.370,0.290
10.403,-0.435,0.245
10.406,-0.455,0.215
10.408,-0.395,0.150
10.411,-0.215,0.095
10.414,0.055,0.030
10.417,0.415,0.000
10.419,0.820,-0.020
10.422,1.180,-0.010
10.425,1.460,0.030
10.428,1.575,0.045
10.431,1.465,0.075
10.433,1.105,0.075
10.436,0.580,0.090
10.439,0.075,0.155
10.442,-0.315,0.270
10.444,-0.510,0.435
10.447,-0.550,0.595
10.450,-0.515,0.750
10.453,-0.490,0.855
10.456,-0.500,0.945
10.458,-0.560,0.995
10.461,-0.655,1.015
10.464,-0.770,1.050
10.467,-0.870,1.060
10.469,-0.940,1.080
10.472,-0.970,1.075
10.475,-0.975,1.030
10.478,-0.930,0.995
10.481,-0.875,0.940
10.483,-0.810,0.890
10.486,-0.730,0.810
10.489,-0.650,0.715
10.492,-0.575,0.605
10.494,-0.495,0.490
10.497,-0.425,0.380
10.500,-0.360,0.300
10.503,-0.325,0.245
10.506,-0.280,0.210
10.508,-0.245,0.215
10.511,-0.230,0.210
10.514,-0.210,0.205
10.517,-0.205,0.215
10.519,-0.195,0.195
10.522,-0.190,0.190
10.525,-0.180,0.170
10.528,-0.180,0.160
10.531,-0.180,0.150
10.533,-0.175,0.140
10.536,-0.175,0.120
10.539,-0.180,0.130
10.542,-0.170,0.115
10.544,-0.165,0.125
10.547,-0.140,0.140
10.550,-0.125,0.155
10.553,-0.130,0.150
10.556,-0.125,0.135
10.558,-0.115,0.135
10.561,-0.120,0.120
10.564,-0.130,0.115
10.567,-0.125,0.095
10.569,-0.140,0.105
10.572,-0.140,0.105
10.575,-0.135,0.100
10.578,-0.135,0.115
10.581,-0.130,0.110
10.583,-0.110,0.115
10.586,-0.105,0.125
10.589,-0.095,0.115
10.592,-0.075,0.120
10.594,-0.070,0.110
10.597,-0.080,0.105
10.600,-0.075,0.090
10.603,-0.085,0.095
10.606,-0.070,0.085
10.608,-0.080,0.075
10.611,-0.070,0.095
10.614,-0.075,0.115
10.617,-0.075,0.100
10.619,-0.060,0.095
10.622,-0.050,0.090
10.625,-0.030,0.100
10.628,-0.030,0.075
10.631,-0.025,0.075
10.633,-0.015,0.070
10.636,-0.010,0.070
10.639,-0.005,0.070
10.642,-0.005,0.070
10.644,0.005,0.070
10.647,0.015,0.070
10.650,0.030,0.090
10.653,0.050,0.080
10.656,0.055,0.065
10.658,0.065,0.070
10.661,0.065,0.055
10.664,0.060,0.040
10.667,0.050,0.045
10.669,0.055,0.035
10.672,0.065,0.030
10.675,0.080,0.025
10.678,0.090,0.030
10.681,0.100,0.015
10.683,0.115,0.025
10.686,0.145,0.035
10.689,0.150,0.020
10.692,0.175,0.030
10.694,0.175,0.000
10.697,0.180,0.000
10.700,0.180,-0.005
10.703,0.185,-0.010
10.706,0.190,-0.020
10.708,0.195,-0.025
10.711,0.210,-0.020
10.714,0.215,-0.020
10.717,0.240,-0.020
10.719,0.255,-0.030
10.722,0.265,-0.025
10.725,0.290,-0.045
10.728,0.295,-0.050
10.731,0.295,-0.055
10.733,0.315,-0.070
10.736,0.325,-0.065
10.739,0.335,-0.070
10.742,0.330,-0.070
10.744,0.320,-0.060
10.747,0.320,-0.055
10.750,0.335,-0.060
10.753,0.350,-0.050
10.756,0.360,-0.050
10.758,0.385,-0.045
10.761,0.395,-0.070
10.764,0.420,-0.065
10.767,0.415,-0.075
10.769,0.410,-0.075
10.772,0.410,-0.070
10.775,0.395,-0.080
10.778,0.395,-0.055
10.781,0.385,-0.045
10.783,0.385,-0.035
10.786,0.400,-0.030
10.789,0.395,-0.020
10.792,0.375,-0.010
10.794,0.355,-0.005
10.797,0.330,-0.010
10.800,0.320,0.000
10.803,0.295,0.000
10.806,0.270,0.010
10.808,0.255,0.025
10.811,0.240,0.040
10.814,0.215,0.065
10.817,0.210,0.085
10.819,0.195,0.095
10.822,0.165,0.115
10.825,0.140,0.115
10.828,0.125,0.115
10.831,0.085,0.100
10.833,0.065,0.130
10.836,0.050,0.135
10.839,0.020,0.135
10.842,0.000,0.145
10.844,-0.010,0.155
10.847,-0.015,0.165
10.850,-0.025,0.175
10.853,-0.025,0.185
10.856,-0.035,0.180
10.858,-0.050,0.190
10.861,-0.060,0.190
10.864,-0.065,0.180
10.867,-0.080,0.170
10.869,-0.100,0.175
10.872,-0.090,0.185
10.875,-0.105,0.185
10.878,-0.105,0.185
10.881,-0.100,0.205
10.883,-0.090,0.210
10.886,-0.080,0.215
10.889,-0.090,0.220
10.892,-0.100,0.220
10.894,-0.095,0.215
10.897,-0.090,0.205
10.900,-0.090,0.185
10.903,-0.080,0.180
10.906,-0.095,0.185
10.908,-0.095,0.195
10.911,-0.090,0.195
10.914,-0.085,0.195
10.917,-0.085,0.210
10.919,-0.065,0.205
10.922,-0.060,0.200
10.925,-0.050,0.205
10.928,-0.055,0.195
10.931,-0.045,0.200
10.933,-0.055,0.180
10.936,-0.060,0.185
10.939,-0.070,0.170
10.942,-0.080,0.185
10.944,-0.070,0.180
10.947,-0.060,0.185
10.950,-0.060,0.190
10.953,-0.065,0.190
10.956,-0.060,0.200
10.958,-0.065,0.200
10.961,-0.070,0.185
10.964,-0.080,0.180
10.967,-0.075,0.155
10.969,-0.075,0.170
10.972,-0.105,0.170
10.975,-0.105,0.180
10.978,-0.090,0.185
10.981,-0.085,0.190
10.983,-0.090,0.190
10.986,-0.095,0.195
10.989,-0.090,0.195
10.992,-0.100,0.195
10.994,-0.110,0.185
10.997,-0.100,0.180
11.000,-0.115,0.175
11.003,-0.110,0.165
11.006,-0.115,0.165
11.008,-0.120,0.175
11.011,-0.120,0.170
11.014,-0.115,0.185
11.017,-0.105,0.185
11.019,-0.110,0.180
11.022,-0.105,0.180
11.025,-0.105,0.190
11.028,-0.110,0.185
11.031,-0.120,0.175
11.033,-0.130,0.175
11.036,-0.140,0.165
11.039,-0.135,0.175
11.042,-0.145,0.170
11.044,-0.140,0.165
11.047,-0.140,0.180
11.050,-0.130,0.185
11.053,-0.125,0.195
11.056,-0.120,0.190
11.058,-0.115,0.200
11.061,-0.110,0.205
11.064,-0.120,0.200
11.067,-0.110,0.220
11.069,-0.115,0.215
11.072,-0.120,0.230
11.075,-0.100,0.240
11.078,-0.095,0.245
11.081,-0.075,0.245
11.083,-0.065,0.240
11.086,-0.050,0.245
11.089,-0.045,0.245
11.092,-0.040,0.235
11.094,-0.040,0.235
11.097,-0.035,0.210
11.100,-0.025,0.210
11.103,-0.010,0.195
11.106,0.010,0.190
11.108,0.025,0.185
11.111,0.035,0.185
11.114,0.045,0.195
11.117,0.050,0.190
11.119,0.045,0.200
11.122,0.040,0.185
11.125,0.025,0.180
11.128,0.015,0.160
11.131,-0.005,0.170
11.133,-0.020,0.170
11.136,-0.050,0.165
11.139,-0.065,0.155
11.142,-0.095,0.170
11.144,-0.110,0.165
11.147,-0.120,0.155
11.150,-0.125,0.165
11.153,-0.135,0.180
11.156,-0.145,0.170
11.158,-0.160,0.160
11.161,-0.180,0.160
11.164,-0.185,0.160
11.167,-0.205,0.140
11.169,-0.205,0.140
11.172,-0.205,0.140
11.175,-0.205,0.135
11.178,-0.215,0.160
11.181,-0.210,0.160
11.183,-0.195,0.160
11.186,-0.190,0.160
11.189,-0.200,0.165
11.192,-0.195,0.155
11.194,-0.200,0.160
11.197,-0.210,0.150
11.200,-0.220,0.150
11.203,-0.230,0.155
11.206,-0.240,0.150
11.208,-0.230,0.165
11.211,-0.225,0.165
11.214,-0.210,0.185
11.217,-0.215,0.180
11.219,-0.210,0.185
11.222,-0.215,0.185
11.225,-0.210,0.195
11.228,-0.200,0.205
11.231,-0.210,0.210
11.233,-0.220,0.230
11.236,-0.240,0.255
11.239,-0.280,0.290
11.242,-0.325,0.300
11.244,-0.380,0.295
11.247,-0.450,0.265
11.250,-0.445,0.220
11.253,-0.375,0.155
11.256,-0.175,0.085
11.258,0.125,0.015
11.261,0.515,-0.020
11.264,0.925,-0.010
11.267,1.290,0.000
11.269,1.520,0.050
11.272,1.525,0.060
11.275,1.235,0.080
11.278,0.740,0.115
11.281,0.200,0.165
11.283,-0.230,0.290
11.286,-0.480,0.445
11.289,-0.555,0.615
11.292,-0.550,0.765
11.294,-0.520,0.860
11.297,-0.530,0.940
11.300,-0.585,0.975
11.303,-0.680,1.020
11.306,-0.800,1.050
11.308,-0.895,1.090
11.311,-0.960,1.100
11.314,-0.965,1.105
11.317,-0.960,1.050
11.319,-0.915,0.985
11.322,-0.855,0.895
11.325,-0.785,0.800
11.328,-0.690,0.695
11.331,-0.600,0.580
11.333,-0.520,0.470
11.336,-0.455,0.380
11.339,-0.385,0.310
11.342,-0.330,0.260
11.344,-0.290,0.230
11.347,-0.265,0.230
11.350,-0.245,0.205
11.353,-0.220,0.205
11.356,-0.210,0.205
11.358,-0.215,0.200
11.361,-0.215,0.185
11.364,-0.210,0.165
11.367,-0.195,0.155
11.369,-0.190,0.135
11.372,-0.190,0.140
11.375,-0.195,0.135
11.378,-0.190,0.130
11.381,-0.175,0.130
11.383,-0.155,0.140
11.386,-0.145,0.135
11.389,-0.145,0.140
11.392,-0.150,0.125
11.394,-0.140,0.130
11.397,-0.145,0.100
11.400,-0.155,0.095
11.403,-0.165,0.105
11.406,-0.165,0.115
11.408,-0.165,0.105
11.411,-0.150,0.115
11.414,-0.150,0.120
11.417,-0.140,0.125
11.419,-0.130,0.135
11.422,-0.120,0.125
11.425,-0.120,0.115
11.428,-0.120,0.105
11.431,-0.130,0.105
11.433,-0.120,0.090
11.436,-0.120,0.085
11.439,-0.120,0.090
11.442,-0.120,0.095
11.444,-0.105,0.090
11.447,-0.100,0.095
11.450,-0.095,0.100
11.453,-0.075,0.095
11.456,-0.065,0.095
11.458,-0.060,0.095
11.461,-0.055,0.075
11.464,-0.065,0.075
11.467,-0.060,0.065
11.469,-0.060,0.070
11.472,-0.070,0.065
11.475,-0.055,0.060
11.478,-0.040,0.065
11.481,-0.030,0.070
11.483,-0.035,0.075
11.486,0.005,0.070
11.489,0.000,0.065
11.492,-0.005,0.060
11.494,0.005,0.040
11.497,0.010,0.040
11.500,0.020,0.035
11.503,0.025,0.035
11.506,0.030,0.025
11.508,0.030,0.035
11.511,0.040,0.025
11.514,0.055,0.030
11.517,0.070,0.040
11.519,0.095,0.035
11.522,0.100,0.030
11.525,0.105,0.020
11.528,0.115,0.015
11.531,0.115,0.005
11.533,0.120,-0.015
11.536,0.130,-0.020
11.539,0.130,-0.025
11.542,0.140,-0.025
11.544,0.150,-0.020
11.547,0.175,-0.010
11.550,0.175,-0.015
11.553,0.190,-0.005
11.556,0.210,-0.020
11.558,0.235,-0.020
11.561,0.235,-0.035
11.564,0.245,-0.050
11.567,0.240,-0.065
11.569,0.235,-0.060
11.572,0.255,-0.055
11.575,0.260,-0.040
11.578,0.265,-0.030
11.581,0.280,-0.045
11.583,0.295,-0.035
11.586,0.305,-0.030
11.589,0.310,-0.035
11.592,0.320,-0.040
11.594,0.325,-0.045
11.597,0.320,-0.045
11.600,0.325,-0.050
11.603,0.330,-0.035
11.606,0.335,-0.035
11.608,0.345,-0.025
11.611,0.355,-0.020
11.614,0.360,0.000
11.617,0.350,0.005
11.619,0.355,0.010
11.622,0.340,0.025
11.625,0.335,0.030
11.628,0.320,0.025
11.631,0.300,0.030
11.633,0.280,0.030
11.636,0.255,0.055
11.639,0.245,0.050
11.642,0.230,0.070
11.644,0.215,0.090
11.647,0.195,0.095
11.650,0.170,0.115
11.653,0.165,0.110
11.656,0.135,0.130
11.658,0.115,0.130
11.661,0.095,0.140
11.664,0.080,0.140
11.667,0.045,0.145
11.669,0.005,0.150
11.672,0.005,0.150
11.675,-0.025,0.160
11.678,-0.030,0.150
11.681,-0.040,0.180
11.683,-0.050,0.195
11.686,-0.060,0.190
11.689,-0.060,0.205
11.692,-0.075,0.200
11.694,-0.075,0.210
11.697,-0.080,0.195
11.700,-0.105,0.185
11.703,-0.115,0.200
11.706,-0.125,0.185
11.708,-0.125,0.190
11.711,-0.130,0.200
11.714,-0.125,0.215
11.717,-0.120,0.215
11.719,-0.115,0.220
11.722,-0.125,0.210
11.725,-0.115,0.215
11.728,-0.100,0.195
11.731,-0.120,0.195
11.733,-0.120,0.190
11.736,-0.125,0.190
11.739,-0.125,0.190
11.742,-0.120,0.185
11.744,-0.125,0.205
11.747,-0.100,0.210
11.750,-0.095,0.205
11.753,-0.090,0.215
11.756,-0.085,0.215
11.758,-0.085,0.200
11.761,-0.090,0.215
11.764,-0.095,0.200
11.767,-0.100,0.185
11.769,-0.090,0.185
11.772,-0.090,0.185
11.775,-0.080,0.185
11.778,-0.080,0.205
11.781,-0.080,0.210
11.783,-0.085,0.210
11.786,-0.080,0.200
11.789,-0.085,0.190
11.792,-0.095,0.200
11.794,-0.085,0.205
11.797,-0.095,0.190
11.800,-0.090,0.180
11.803,-0.100,0.165
11.806,-0.105,0.180
11.808,-0.100,0.175
11.811,-0.105,0.180
11.814,-0.105,0.195
11.817,-0.105,0.200
11.819,-0.095,0.205
11.822,-0.095,0.210
11.825,-0.095,0.185
11.828,-0.100,0.195
11.831,-0.100,0.190
11.833,-0.115,0.185
11.836,-0.120,0.180
11.839,-0.130,0.175
11.842,-0.130,0.190
11.844,-0.130,0.195
11.847,-0.115,0.200
11.850,-0.125,0.205
11.853,-0.125,0.200
11.856,-0.120,0.195
11.858,-0.125,0.195
11.861,-0.125,0.195
11.864,-0.145,0.190
11.867,-0.135,0.180
11.869,-0.145,0.180
11.872,-0.150,0.175
11.875,-0.145,0.190
11.878,-0.150,0.195
11.881,-0.155,0.210
11.883,-0.135,0.215
11.886,-0.130,0.210
11.889,-0.135,0.210
11.892,-0.135,0.210
11.894,-0.135,0.185
11.897,-0.140,0.190
11.900,-0.140,0.190
11.903,-0.165,0.195
11.906,-0.170,0.185
11.908,-0.160,0.185
11.911,-0.160,0.185
11.914,-0.170,0.190
11.917,-0.165,0.205
11.919,-0.150,0.195
11.922,-0.155,0.205
11.925,-0.155,0.200
11.928,-0.150,0.185
11.931,-0.160,0.185
11.933,-0.165,0.180
11.936,-0.180,0.165
11.939,-0.170,0.165
11.942,-0.180,0.165
11.944,-0.170,0.175
11.947,-0.165,0.185
11.950,-0.165,0.190
11.953,-0.160,0.195
11.956,-0.170,0.200
11.958,-0.155,0.200
11.961,-0.150,0.200
11.964,-0.170,0.185
11.967,-0.160,0.185
11.969,-0.180,0.190
11.972,-0.180,0.185
11.975,-0.180,0.180
11.978,-0.180,0.190
11.981,-0.165,0.200
11.983,-0.160,0.215
11.986,-0.150,0.215
11.989,-0.150,0.225
11.992,-0.140,0.240
11.994,-0.140,0.250
11.997,-0.135,0.255
12.000,-0.130,0.265
12.003,-0.130,0.255
12.006,-0.130,0.270
12.008,-0.125,0.265
12.011,-0.115,0.265
12.014,-0.095,0.255
12.017,-0.080,0.250
12.019,-0.060,0.240
12.022,-0.060,0.215
12.025,-0.040,0.220
12.028,-0.010,0.200
12.031,0.005,0.190
12.033,0.020,0.175
12.036,0.025,0.170
12.039,0.015,0.160
12.042,0.010,0.165
12.044,-0.005,0.160
12.047,-0.020,0.165
12.050,-0.020,0.180
12.053,-0.040,0.175
12.056,-0.040,0.185
12.058,-0.050,0.190
12.061,-0.060,0.170
12.064,-0.085,0.170
12.067,-0.110,0.150
12.069,-0.145,0.140
12.072,-0.170,0.140
12.075,-0.185,0.155
12.078,-0.190,0.155
12.081,-0.195,0.160
12.083,-0.180,0.165
12.086,-0.180,0.170
12.089,-0.190,0.165
12.092,-0.185,0.170
12.094,-0.185,0.150
12.097,-0.200,0.150
12.100,-0.210,0.140
12.103,-0.225,0.145
12.106,-0.235,0.145
12.108,-0.225,0.155
12.111,-0.235,0.165
12.114,-0.220,0.165
12.117,-0.210,0.175
12.119,-0.205,0.180
12.122,-0.210,0.195
12.125,-0.200,0.170
12.128,-0.205,0.180
12.131,-0.210,0.165
12.133,-0.205,0.170
12.136,-0.210,0.175
12.139,-0.210,0.185
12.142,-0.220,0.225
12.144,-0.230,0.255
12.147,-0.250,0.310
12.150,-0.285,0.335
12.153,-0.345,0.330
12.156,-0.415,0.315
12.158,-0.460,0.280
12.161,-0.430,0.210
12.164,-0.325,0.145
12.167,-0.080,0.085
12.169,0.250,0.025
12.172,0.650,0.005
12.175,1.060,-0.005
12.178,1.395,0.000
12.181,1.580,0.015
12.183,1.560,0.025
12.186,1.295,0.035
12.189,0.825,0.065
12.192,0.300,0.145
12.194,-0.105,0.285
12.197,-0.355,0.455
12.200,-0.445,0.620
12.203,-0.450,0.780
12.206,-0.455,0.885
12.208,-0.470,0.965
12.211,-0.540,1.025
12.214,-0.625,1.065
12.217,-0.765,1.090
12.219,-0.870,1.120
12.222,-0.955,1.115
12.225,-0.990,1.100
12.228,-0.995,1.030
12.231,-0.965,0.960
12.233,-0.915,0.870
12.236,-0.845,0.795
12.239,-0.750,0.690
12.242,-0.655,0.590
12.244,-0.565,0.495
12.247,-0.470,0.420
12.250,-0.390,0.360
12.253,-0.325,0.310
12.256,-0.285,0.275
12.258,-0.260,0.260
12.261,-0.245,0.235
12.264,-0.245,0.220
12.267,-0.230,0.205
12.269,-0.235,0.190
12.272,-0.230,0.205
12.275,-0.225,0.200
12.278,-0.220,0.200
12.281,-0.200,0.190
12.283,-0.200,0.195
12.286,-0.185,0.195
12.289,-0.170,0.190
12.292,-0.175,0.180
12.294,-0.170,0.155
12.297,-0.175,0.165
12.300,-0.175,0.155
12.303,-0.185,0.150
12.306,-0.185,0.140
12.308,-0.190,0.145
12.311,-0.175,0.155
12.314,-0.170,0.160
12.317,-0.165,0.165
12.319,-0.150,0.170
12.322,-0.145,0.165
12.325,-0.145,0.160
12.328,-0.150,0.155
12.331,-0.145,0.150
12.333,-0.155,0.145
12.336,-0.145,0.140
12.339,-0.145,0.140
12.342,-0.160,0.145
12.344,-0.150,0.155
12.347,-0.145,0.155
12.350,-0.135,0.155
12.353,-0.120,0.155
12.356,-0.115,0.155
12.358,-0.120,0.160
12.361,-0.115,0.150
12.364,-0.100,0.150
12.367,-0.100,0.140
12.369,-0.105,0.140
12.372,-0.115,0.125
12.375,-0.110,0.135
12.378,-0.105,0.135
12.381,-0.075,0.140
12.383,-0.075,0.130
12.386,-0.055,0.135
12.389,-0.040,0.135
12.392,-0.045,0.130
12.394,-0.040,0.125
12.397,-0.035,0.120
12.400,-0.025,0.105
12.403,-0.035,0.105
12.406,-0.035,0.100
12.408,-0.020,0.115
12.411,-0.005,0.110
12.414,0.000,0.110
12.417,0.010,0.110
12.419,0.030,0.130
12.422,0.050,0.125
12.425,0.040,0.115
12.428,0.065,0.105
12.431,0.055,0.100
12.433,0.070,0.085
12.436,0.060,0.075
12.439,0.060,0.080
12.442,0.075,0.085
12.444,0.070,0.085
12.447,0.080,0.080
12.450,0.095,0.065
12.453,0.125,0.085
12.456,0.135,0.065
12.458,0.170,0.060
12.461,0.180,0.045
12.464,0.195,0.040
12.467,0.200,0.035
12.469,0.200,0.015
12.472,0.205,0.020
12.475,0.220,0.000
12.478,0.230,0.010
12.481,0.250,0.015
12.483,0.270,0.030
12.486,0.280,0.015
12.489,0.300,0.015
12.492,0.305,0.005
12.494,0.305,0.015
12.497,0.315,-0.010
12.500,0.320,-0.005
12.503,0.325,-0.025
12.506,0.345,-0.020
12.508,0.360,-0.030
12.511,0.370,-0.010
12.514,0.375,-0.005
12.517,0.385,0.010
12.519,0.385,0.010
12.522,0.390,0.010
12.525,0.390,-0.005
12.528,0.400,-0.020
12.531,0.410,-0.010
12.533,0.410,-0.010
12.536,0.420,-0.020
12.539,0.410,0.000
12.542,0.415,0.000
12.544,0.395,0.005
12.547,0.395,0.015
12.550,0.385,0.030
12.553,0.395,0.045
12.556,0.380,0.035
12.558,0.375,0.045
12.561,0.380,0.045
12.564,0.355,0.050
12.567,0.320,0.060
12.569,0.290,0.075
12.572,0.250,0.080
12.575,0.230,0.080
12.578,0.210,0.090
12.581,0.200,0.095
12.583,0.190,0.115
12.586,0.200,0.135
12.589,0.170,0.135
12.592,0.155,0.155
12.594,0.135,0.145
12.597,0.095,0.155
12.600,0.095,0.155
12.603,0.060,0.150
12.606,0.040,0.165
12.608,0.015,0.175
12.611,0.005,0.185
12.614,-0.015,0.205
12.617,-0.035,0.210
12.619,-0.045,0.220
12.622,-0.055,0.220
12.625,-0.070,0.235
12.628,-0.080,0.215
12.631,-0.095,0.225
12.633,-0.100,0.215
12.636,-0.105,0.225
12.639,-0.120,0.230
12.642,-0.110,0.225
12.644,-0.110,0.225
12.647,-0.110,0.245
12.650,-0.120,0.255
12.653,-0.120,0.245
12.656,-0.120,0.255
12.658,-0.120,0.250
12.661,-0.120,0.245
12.664,-0.130,0.240
12.667,-0.125,0.235
12.669,-0.125,0.235
12.672,-0.125,0.235
12.675,-0.130,0.235
12.678,-0.145,0.245
12.681,-0.150,0.255
12.683,-0.140,0.255
12.686,-0.125,0.250
12.689,-0.130,0.250
12.692,-0.125,0.255
12.694,-0.130,0.255
12.697,-0.125,0.240
12.700,-0.135,0.225
12.703,-0.130,0.225
12.706,-0.125,0.230
12.708,-0.120,0.230
12.711,-0.125,0.240
12.714,-0.125,0.240
12.717,-0.130,0.245
12.719,-0.130,0.245
12.722,-0.130,0.240
12.725,-0.135,0.235
12.728,-0.140,0.240
12.731,-0.145,0.225
12.733,-0.145,0.230
12.736,-0.150,0.225
12.739,-0.155,0.220
12.742,-0.165,0.225
12.744,-0.175,0.225
12.747,-0.165,0.215
12.750,-0.150,0.230
12.753,-0.125,0.235
12.756,-0.120,0.235
12.758,-0.120,0.240
12.761,-0.120,0.230
12.764,-0.135,0.225
12.767,-0.145,0.215
12.769,-0.180,0.215
12.772,-0.180,0.210
12.775,-0.195,0.205
12.778,-0.195,0.210
12.781,-0.190,0.220
12.783,-0.185,0.220
12.786,-0.185,0.225
12.789,-0.170,0.230
12.792,-0.170,0.225
12.794,-0.170,0.225
12.797,-0.185,0.230
12.800,-0.185,0.220
12.803,-0.180,0.200
12.806,-0.190,0.190
12.808,-0.185,0.200
12.811,-0.185,0.200
12.814,-0.175,0.205
12.817,-0.185,0.220
12.819,-0.190,0.215
12.822,-0.180,0.220
12.825,-0.195,0.220
12.828,-0.195,0.220
12.831,-0.200,0.210
12.833,-0.205,0.210
12.836,-0.210,0.185
12.839,-0.230,0.195
12.842,-0.230,0.195
12.844,-0.245,0.200
12.847,-0.235,0.195
12.850,-0.220,0.210
12.853,-0.205,0.200
12.856,-0.195,0.205
12.858,-0.185,0.205
12.861,-0.185,0.210
12.864,-0.195,0.205
12.867,-0.200,0.200
12.869,-0.215,0.185
12.872,-0.210,0.205
12.875,-0.215,0.195
12.878,-0.200,0.190
12.881,-0.205,0.210
12.883,-0.210,0.235
12.886,-0.210,0.235
12.889,-0.210,0.230
12.892,-0.240,0.235
12.894,-0.230,0.230
12.897,-0.215,0.225
12.900,-0.200,0.220
12.903,-0.180,0.240
12.906,-0.160,0.260
12.908,-0.145,0.260
12.911,-0.145,0.280
12.914,-0.155,0.285
12.917,-0.140,0.285
12.919,-0.130,0.305
12.922,-0.120,0.280
12.925,-0.120,0.270
12.928,-0.115,0.265
12.931,-0.120,0.245
12.933,-0.120,0.250
12.936,-0.125,0.230
12.939,-0.100,0.225
12.942,-0.075,0.225
12.944,-0.060,0.215
12.947,-0.035,0.210
12.950,-0.020,0.210
12.953,-0.005,0.225
12.956,0.005,0.215
12.958,-0.020,0.205
12.961,-0.035,0.200
12.964,-0.045,0.180
12.967,-0.065,0.185
12.969,-0.090,0.195
12.972,-0.120,0.185
12.975,-0.125,0.210
12.978,-0.160,0.195
12.981,-0.170,0.205
12.983,-0.180,0.190
12.986,-0.175,0.190
12.989,-0.185,0.180
12.992,-0.190,0.195
12.994,-0.200,0.180
12.997,-0.215,0.180
13.000,-0.235,0.175
13.003,-0.240,0.175
13.006,-0.235,0.170
13.008,-0.230,0.170
13.011,-0.230,0.175
13.014,-0.220,0.180
13.017,-0.230,0.190
13.019,-0.235,0.205
13.022,-0.235,0.200
13.025,-0.240,0.190
13.028,-0.260,0.185
13.031,-0.255,0.175
13.033,-0.250,0.170
13.036,-0.250,0.165
13.039,-0.255,0.175
13.042,-0.255,0.170
13.044,-0.255,0.180
13.047,-0.250,0.195
13.050,-0.255,0.200
13.053,-0.245,0.215
13.056,-0.250,0.220
13.058,-0.260,0.215
13.061,-0.260,0.225
13.064,-0.250,0.220
13.067,-0.255,0.225
13.069,-0.245,0.250
13.072,-0.270,0.270
13.075,-0.300,0.310
13.078,-0.340,0.320
13.081,-0.380,0.315
13.083,-0.435,0.295
13.086,-0.485,0.270
13.089,-0.470,0.225
13.092,-0.360,0.150
13.094,-0.135,0.090
13.097,0.165,0.030
13.100,0.535,0.010
13.103,0.910,0.010
13.106,1.245,0.030
13.108,1.480,0.085
13.111,1.545,0.135
13.114,1.380,0.140
13.117,0.995,0.170
13.119,0.470,0.185
13.122,-0.045,0.255
13.125,-0.395,0.370
13.128,-0.580,0.510
13.131,-0.595,0.640
13.133,-0.575,0.765
13.136,-0.540,0.850
13.139,-0.540,0.920
13.142,-0.580,0.965
13.144,-0.675,1.015
13.147,-0.765,1.060
13.150,-0.875,1.085
13.153,-0.950,1.120
13.156,-0.995,1.125
13.158,-1.000,1.105
13.161,-0.985,1.065
13.164,-0.970,1.000
13.167,-0.945,0.940
13.169,-0.900,0.875
13.172,-0.825,0.800
13.175,-0.750,0.730
13.178,-0.655,0.655
13.181,-0.560,0.550
13.183,-0.470,0.450
13.186,-0.405,0.380
13.189,-0.345,0.305
13.192,-0.330,0.270
13.194,-0.305,0.245
13.197,-0.295,0.230
13.200,-0.285,0.225
13.203,-0.285,0.215
13.206,-0.270,0.215
13.208,-0.260,0.185
13.211,-0.260,0.190
13.214,-0.240,0.190
13.217,-0.225,0.195
13.219,-0.205,0.200
13.222,-0.190,0.195
13.225,-0.180,0.175
13.228,-0.175,0.165
13.231,-0.185,0.155
13.233,-0.195,0.145
13.236,-0.200,0.145
13.239,-0.215,0.140
13.242,-0.215,0.140
13.244,-0.225,0.145
13.247,-0.205,0.140
13.250,-0.210,0.140
13.253,-0.180,0.160
13.256,-0.165,0.160
13.258,-0.155,0.165
13.261,-0.145,0.145
13.264,-0.150,0.135
13.267,-0.155,0.120
13.269,-0.150,0.120
13.272,-0.165,0.115
13.275,-0.155,0.115
13.278,-0.160,0.110
13.281,-0.150,0.105
13.283,-0.155,0.120
13.286,-0.170,0.125
13.289,-0.165,0.110
13.292,-0.160,0.125
13.294,-0.145,0.110
13.297,-0.125,0.100
13.300,-0.110,0.100
13.303,-0.090,0.085
13.306,-0.080,0.085
13.308,-0.085,0.085
13.311,-0.085,0.090
13.314,-0.090,0.095
13.317,-0.090,0.095
13.319,-0.095,0.100
13.322,-0.095,0.095
13.325,-0.090,0.100
13.328,-0.080,0.085
13.331,-0.085,0.075
13.333,-0.080,0.065
13.336,-0.070,0.060
13.339,-0.050,0.065
13.342,-0.030,0.075
13.344,-0.020,0.075
13.347,-0.005,0.080
13.350,0.000,0.085
13.353,0.000,0.090
13.356,0.020,0.075
13.358,0.010,0.075
13.361,0.030,0.050
13.364,0.030,0.040
13.367,0.035,0.025
13.369,0.030,0.035
13.372,0.050,0.030
13.375,0.050,0.025
13.378,0.070,0.025
13.381,0.090,0.030
13.383,0.105,0.035
13.386,0.115,0.030
13.389,0.130,0.010
13.392,0.125,0.005
13.394,0.140,0.005
13.397,0.135,-0.015
13.400,0.150,-0.005
13.403,0.155,-0.015
13.406,0.155,-0.020
13.408,0.175,-0.020
13.411,0.180,-0.020
13.414,0.195,-0.025
13.417,0.215,-0.035
13.419,0.245,-0.025
13.422,0.260,-0.030
13.425,0.270,-0.025
13.428,0.280,-0.045
13.431,0.290,-0.035
13.433,0.290,-0.045
13.436,0.280,-0.060
13.439,0.280,-0.060
13.442,0.275,-0.050
13.444,0.295,-0.070
13.447,0.295,-0.045
13.450,0.300,-0.055
13.453,0.325,-0.050
13.456,0.345,-0.050
13.458,0.355,-0.035
13.461,0.355,-0.045
13.464,0.370,-0.045
13.467,0.345,-0.045
13.469,0.350,-0.045
13.472,0.320,-0.050
13.475,0.335,-0.035
13.478,0.330,-0.030
13.481,0.325,0.010
13.483,0.310,0.005
13.486,0.300,0.035
13.489,0.275,0.030
13.492,0.255,0.035
13.494,0.230,0.055
13.497,0.205,0.065
13.500,0.185,0.065
13.503,0.170,0.075
13.506,0.135,0.085
13.508,0.105,0.095
13.511,0.090,0.125
13.514,0.075,0.135
13.517,0.050,0.150
13.519,0.035,0.175
13.522,0.030,0.180
13.525,0.000,0.185
13.528,-0.015,0.195
13.531,-0.030,0.190
13.533,-0.055,0.180
13.536,-0.070,0.195
13.539,-0.085,0.195
13.542,-0.090,0.205
13.544,-0.110,0.215
13.547,-0.115,0.220
13.550,-0.110,0.240
13.553,-0.115,0.235
13.556,-0.120,0.235
13.558,-0.130,0.230
13.561,-0.125,0.225
13.564,-0.130,0.235
13.567,-0.140,0.230
13.569,-0.145,0.215
13.572,-0.155,0.225
13.575,-0.165,0.200
13.578,-0.160,0.220
13.581,-0.150,0.215
13.583,-0.145,0.240
13.586,-0.145,0.255
13.589,-0.120,0.245
13.592,-0.125,0.235
13.594,-0.130,0.240
13.597,-0.135,0.220
13.600,-0.125,0.220
13.603,-0.130,0.205
13.606,-0.140,0.205
13.608,-0.145,0.210
13.611,-0.130,0.215
13.614,-0.140,0.210
13.617,-0.125,0.200
13.619,-0.110,0.230
13.622,-0.105,0.220
13.625,-0.105,0.215
13.628,-0.105,0.200
13.631,-0.110,0.195
13.633,-0.125,0.210
13.636,-0.130,0.190
13.639,-0.135,0.185
13.642,-0.135,0.190
13.644,-0.140,0.190
13.647,-0.135,0.195
13.650,-0.135,0.200
13.653,-0.135,0.205
13.656,-0.135,0.210
13.658,-0.145,0.210
13.661,-0.135,0.200
13.664,-0.140,0.195
13.667,-0.150,0.180
13.669,-0.160,0.185
13.672,-0.175,0.175
13.675,-0.170,0.170
13.678,-0.175,0.185
13.681,-0.170,0.195
13.683,-0.170,0.200
13.686,-0.165,0.200
13.689,-0.175,0.200
13.692,-0.185,0.190
13.694,-0.170,0.200
13.697,-0.190,0.185
13.700,-0.190,0.170
13.703,-0.195,0.175
13.706,-0.200,0.165
13.708,-0.205,0.165
13.711,-0.215,0.180
13.714,-0.215,0.185
13.717,-0.205,0.190
13.719,-0.205,0.195
13.722,-0.200,0.195
13.725,-0.200,0.190
13.728,-0.200,0.190
13.731,-0.210,0.180
13.733,-0.215,0.175
13.736,-0.215,0.170
13.739,-0.230,0.170
13.742,-0.215,0.180
13.744,-0.245,0.175
13.747,-0.230,0.180
13.750,-0.225,0.190
13.753,-0.210,0.200
13.756,-0.215,0.200
13.758,-0.220,0.195
13.761,-0.225,0.195
13.764,-0.230,0.205
13.767,-0.230,0.205
13.769,-0.240,0.205
13.772,-0.245,0.205
13.775,-0.225,0.220
13.778,-0.220,0.235
13.781,-0.215,0.260
13.783,-0.215,0.280
13.786,-0.195,0.280
13.789,-0.175,0.275
13.792,-0.165,0.265
13.794,-0.165,0.255
13.797,-0.160,0.245
13.800,-0.165,0.230
13.803,-0.155,0.220
13.806,-0.160,0.205
13.808,-0.150,0.205
13.811,-0.120,0.210
13.814,-0.095,0.210
13.817,-0.075,0.205
13.819,-0.045,0.210
13.822,-0.035,0.200
13.825,-0.030,0.200
13.828,-0.045,0.180
13.831,-0.055,0.170
13.833,-0.065,0.160
13.836,-0.085,0.150
13.839,-0.100,0.145
13.842,-0.105,0.145
13.844,-0.115,0.165
13.847,-0.125,0.165
13.850,-0.130,0.175
13.853,-0.135,0.175
13.856,-0.140,0.170
13.858,-0.175,0.155
13.861,-0.175,0.135
13.864,-0.215,0.125
13.867,-0.240,0.125
13.869,-0.260,0.120
13.872,-0.270,0.125
13.875,-0.275,0.130
13.878,-0.280,0.135
13.881,-0.285,0.135
13.883,-0.270,0.140
13.886,-0.265,0.150
13.889,-0.265,0.145
13.892,-0.265,0.145
13.894,-0.270,0.140
13.897,-0.275,0.130
13.900,-0.270,0.135
13.903,-0.280,0.125
13.906,-0.285,0.125
13.908,-0.290,0.125
13.911,-0.295,0.130
13.914,-0.295,0.140
13.917,-0.285,0.155
13.919,-0.270,0.160
13.922,-0.270,0.150
13.925,-0.255,0.140
13.928,-0.265,0.145
13.931,-0.285,0.140
13.933,-0.280,0.130
13.936,-0.285,0.130
13.939,-0.290,0.135
13.942,-0.295,0.170
13.944,-0.285,0.190
13.947,-0.290,0.220
13.950,-0.300,0.265
13.953,-0.315,0.320
13.956,-0.360,0.315
13.958,-0.440,0.310
13.961,-0.510,0.280
13.964,-0.540,0.220
13.967,-0.485,0.150
13.969,-0.345,0.075
13.972,-0.085,0.020
13.975,0.280,-0.020
13.978,0.685,-0.035
13.981,1.080,-0.030
13.983,1.370,-0.010
13.986,1.490,-0.005
13.989,1.415,0.000
13.992,1.065,0.015
13.994,0.575,0.055
13.997,0.085,0.140
14.000,-0.260,0.285
14.003,-0.455,0.465
14.006,-0.525,0.625
14.008,-0.535,0.770
14.011,-0.540,0.880
14.014,-0.565,0.955
14.017,-0.650,1.000
14.019,-0.755,1.050
14.022,-0.875,1.070
14.025,-0.960,1.090
14.028,-1.020,1.075
14.031,-1.045,1.025
14.033,-1.025,0.960
14.036,-0.990,0.865
14.039,-0.925,0.765
14.042,-0.855,0.670
14.044,-0.755,0.565
14.047,-0.660,0.465
14.050,-0.565,0.385
14.053,-0.485,0.305
14.056,-0.420,0.265
14.058,-0.375,0.210
14.061,-0.340,0.185
14.064,-0.330,0.180
14.067,-0.325,0.170
14.069,-0.325,0.150
14.072,-0.320,0.140
14.075,-0.315,0.150
14.078,-0.300,0.145
14.081,-0.280,0.130
14.083,-0.280,0.135
14.086,-0.270,0.140
14.089,-0.255,0.135
14.092,-0.250,0.125
14.094,-0.245,0.120
14.097,-0.250,0.115
14.100,-0.245,0.110
14.103,-0.250,0.105
14.106,-0.250,0.105
14.108,-0.245,0.100
14.111,-0.240,0.100
14.114,-0.250,0.105
14.117,-0.230,0.110
14.119,-0.220,0.115
14.122,-0.230,0.110
14.125,-0.220,0.110
14.128,-0.215,0.110
14.131,-0.215,0.105
14.133,-0.205,0.095
14.136,-0.215,0.095
14.139,-0.230,0.075
14.142,-0.225,0.090
14.144,-0.205,0.085
14.147,-0.200,0.100
14.150,-0.190,0.100
14.153,-0.175,0.090
14.156,-0.165,0.100
14.158,-0.160,0.100
14.161,-0.165,0.095
14.164,-0.160,0.075
14.167,-0.150,0.070
14.169,-0.155,0.075
14.172,-0.150,0.060
14.175,-0.150,0.065
14.178,-0.140,0.060
14.181,-0.130,0.060
14.183,-0.110,0.080
14.186,-0.100,0.080
14.189,-0.085,0.080
14.192,-0.070,0.065
14.194,-0.070,0.075
14.197,-0.070,0.055
14.200,-0.055,0.055
14.203,-0.060,0.045
14.206,-0.055,0.050
14.208,-0.045,0.040
14.211,-0.035,0.045
14.214,-0.015,0.045
14.217,-0.005,0.040
14.219,0.005,0.050
14.222,0.020,0.045
14.225,0.035,0.035
14.228,0.050,0.030
14.231,0.065,0.025
14.233,0.060,0.005
14.236,0.075,0.000
14.239,0.080,-0.010
14.242,0.095,0.000
14.244,0.110,-0.005
14.247,0.125,-0.005
14.250,0.145,0.010
14.253,0.160,0.005
14.256,0.175,0.000
14.258,0.185,0.000
14.261,0.200,-0.010
14.264,0.200,-0.035
14.267,0.215,-0.040
14.269,0.225,-0.050
14.272,0.230,-0.055
14.275,0.240,-0.055
14.278,0.255,-0.045
14.281,0.270,-0.030
14.283,0.275,-0.045
14.286,0.295,-0.030
14.289,0.295,-0.035
14.292,0.300,-0.035
14.294,0.300,-0.030
14.297,0.295,-0.035
14.300,0.305,-0.045
14.303,0.320,-0.030
14.306,0.315,-0.030
14.308,0.330,-0.045
14.311,0.320,-0.035
14.314,0.320,-0.025
14.317,0.330,-0.015
14.319,0.320,-0.005
14.322,0.320,0.005
14.325,0.310,0.020
14.328,0.285,0.015
14.331,0.270,0.015
14.333,0.255,0.025
14.336,0.225,0.015
14.339,0.210,0.025
14.342,0.190,0.040
14.344,0.170,0.055
14.347,0.140,0.080
14.350,0.120,0.080
14.353,0.110,0.100
14.356,0.080,0.110
14.358,0.075,0.120
14.361,0.045,0.125
14.364,0.015,0.130
14.367,-0.010,0.125
14.369,-0.030,0.120
14.372,-0.040,0.135
14.375,-0.070,0.130
14.378,-0.080,0.155
14.381,-0.090,0.160
14.383,-0.095,0.175
14.386,-0.115,0.180
14.389,-0.110,0.185
14.392,-0.130,0.190
14.394,-0.135,0.195
14.397,-0.150,0.185
14.400,-0.175,0.180
14.403,-0.165,0.175
14.406,-0.185,0.185
14.408,-0.200,0.190
14.411,-0.195,0.195
14.414,-0.200,0.195
14.417,-0.190,0.220
14.419,-0.190,0.220
14.422,-0.180,0.220
14.425,-0.200,0.225
14.428,-0.205,0.210
14.431,-0.200,0.205
14.433,-0.205,0.210
14.436,-0.210,0.185
14.439,-0.225,0.205
14.442,-0.210,0.195
14.444,-0.210,0.195
14.447,-0.200,0.215
14.450,-0.185,0.210
14.453,-0.185,0.220
14.456,-0.180,0.210
14.458,-0.190,0.215
14.461,-0.190,0.210
14.464,-0.190,0.195
14.467,-0.190,0.190
14.469,-0.185,0.195
14.472,-0.180,0.190
14.475,-0.185,0.195
14.478,-0.180,0.190
14.481,-0.185,0.200
14.483,-0.170,0.215
14.486,-0.175,0.210
14.489,-0.170,0.220
14.492,-0.160,0.215
14.494,-0.160,0.205
14.497,-0.180,0.195
14.500,-0.160,0.200
14.503,-0.190,0.185
14.506,-0.195,0.175
14.508,-0.195,0.190
14.511,-0.205,0.190
14.514,-0.205,0.205
14.517,-0.200,0.200
14.519,-0.200,0.210
14.522,-0.190,0.205
14.525,-0.190,0.200
14.528,-0.195,0.195
14.531,-0.200,0.190
14.533,-0.200,0.185
14.536,-0.215,0.175
14.539,-0.205,0.175
14.542,-0.215,0.170
14.544,-0.215,0.180
14.547,-0.220,0.180
14.550,-0.220,0.195
14.553,-0.225,0.195
14.556,-0.210,0.175
14.558,-0.215,0.190
14.561,-0.230,0.195
14.564,-0.220,0.170
14.567,-0.225,0.175
14.569,-0.230,0.165
14.572,-0.235,0.170
14.575,-0.240,0.165
14.578,-0.240,0.180
14.581,-0.235,0.190
14.583,-0.225,0.200
14.586,-0.230,0.200
14.589,-0.230,0.210
14.592,-0.235,0.195
14.594,-0.235,0.180
14.597,-0.240,0.185
14.600,-0.240,0.185
14.603,-0.250,0.175
14.606,-0.260,0.185
14.608,-0.270,0.180
14.611,-0.275,0.185
14.614,-0.250,0.200
14.617,-0.245,0.195
14.619,-0.230,0.205
14.622,-0.240,0.200
14.625,-0.240,0.200
14.628,-0.235,0.190
14.631,-0.240,0.180
14.633,-0.255,0.180
14.636,-0.255,0.175
14.639,-0.265,0.170
14.642,-0.270,0.170
14.644,-0.270,0.180
14.647,-0.265,0.185
14.650,-0.255,0.195
14.653,-0.260,0.185
14.656,-0.245,0.190
14.658,-0.245,0.195
14.661,-0.240,0.195
14.664,-0.255,0.185
14.667,-0.270,0.180
14.669,-0.275,0.160
14.672,-0.280,0.175
14.675,-0.275,0.175
14.678,-0.290,0.180
14.681,-0.280,0.185
14.683,-0.260,0.195
14.686,-0.265,0.185
14.689,-0.255,0.200
14.692,-0.245,0.190
14.694,-0.245,0.195
14.697,-0.250,0.185
14.700,-0.255,0.170
14.703,-0.275,0.165
14.706,-0.270,0.170
14.708,-0.275,0.180
14.711,-0.270,0.190
14.714,-0.265,0.195
14.717,-0.255,0.210
14.719,-0.265,0.230
14.722,-0.265,0.235
14.725,-0.245,0.255
14.728,-0.245,0.255
14.731,-0.240,0.255
14.733,-0.230,0.265
14.736,-0.235,0.265
14.739,-0.235,0.275
14.742,-0.230,0.280
14.744,-0.215,0.265
14.747,-0.225,0.265
14.750,-0.190,0.270
14.753,-0.190,0.260
14.756,-0.170,0.240
14.758,-0.150,0.240
14.761,-0.140,0.230
14.764,-0.130,0.215
14.767,-0.115,0.205
14.769,-0.100,0.185
14.772,-0.100,0.175
14.775,-0.095,0.180
14.778,-0.100,0.180
14.781,-0.100,0.185
14.783,-0.110,0.180
14.786,-0.115,0.175
14.789,-0.110,0.175
14.792,-0.125,0.175
14.794,-0.120,0.170
14.797,-0.140,0.175
14.800,-0.165,0.165
14.803,-0.175,0.160
14.806,-0.195,0.135
14.808,-0.210,0.145
14.811,-0.225,0.160
14.814,-0.245,0.150
14.817,-0.255,0.155
14.819,-0.270,0.160
14.822,-0.270,0.165
14.825,-0.290,0.160
14.828,-0.290,0.165
14.831,-0.300,0.150
14.833,-0.300,0.140
14.836,-0.305,0.145
14.839,-0.305,0.140
14.842,-0.310,0.140
14.844,-0.315,0.150
14.847,-0.310,0.160
14.850,-0.300,0.160
14.853,-0.310,0.165
14.856,-0.310,0.175
14.858,-0.305,0.170
14.861,-0.305,0.170
14.864,-0.300,0.170
14.867,-0.305,0.170
14.869,-0.315,0.145
14.872,-0.315,0.140
14.875,-0.315,0.155
14.878,-0.315,0.160
14.881,-0.310,0.170
14.883,-0.300,0.185
14.886,-0.290,0.190
14.889,-0.285,0.200
14.892,-0.290,0.215
14.894,-0.290,0.240
14.897,-0.305,0.280
14.900,-0.330,0.295
14.903,-0.380,0.310
14.906,-0.435,0.300
14.908,-0.505,0.275
14.911,-0.555,0.260
14.914,-0.575,0.230
14.917,-0.490,0.190
14.919,-0.340,0.130
14.922,-0.065,0.085
14.925,0.260,0.040
14.928,0.625,0.020
14.931,0.970,-0.005
14.933,1.275,-0.005
14.936,1.465,-0.010
14.939,1.460,-0.010
14.942,1.235,0.000
14.944,0.810,0.035
14.947,0.315,0.105
14.950,-0.105,0.245
14.953,-0.370,0.425
14.956,-0.490,0.600
14.958,-0.510,0.760
14.961,-0.505,0.880
14.964,-0.515,0.950
14.967,-0.575,0.995
14.969,-0.680,1.020
14.972,-0.805,1.055
14.975,-0.925,1.060
14.978,-1.015,1.090
14.981,-1.070,1.075
14.983,-1.080,1.040
14.986,-1.055,0.995
14.989,-1.015,0.920
14.992,-0.945,0.835
14.994,-0.855,0.735
14.997,-0.775,0.625
15.000,-0.700,0.520
15.003,-0.610,0.415
15.006,-0.545,0.355
15.008,-0.480,0.290
15.011,-0.430,0.255
15.014,-0.380,0.230
15.017,-0.360,0.250
15.019,-0.340,0.245
15.022,-0.315,0.225
15.025,-0.310,0.220
15.028,-0.305,0.200
15.031,-0.295,0.185
15.033,-0.310,0.175
15.036,-0.300,0.170
15.039,-0.305,0.150
15.042,-0.295,0.150
15.044,-0.290,0.155
15.047,-0.290,0.145
15.050,-0.270,0.145
15.053,-0.265,0.160
15.056,-0.260,0.155
15.058,-0.260,0.150
15.061,-0.250,0.140
15.064,-0.245,0.140
15.067,-0.260,0.125
15.069,-0.265,0.130
15.072,-0.270,0.130
15.075,-0.260,0.125
15.078,-0.255,0.125
15.081,-0.260,0.145
15.083,-0.250,0.145
15.086,-0.235,0.145
15.089,-0.225,0.140
15.092,-0.220,0.135
15.094,-0.215,0.130
15.097,-0.220,0.115
15.100,-0.220,0.120
15.103,-0.235,0.120
15.106,-0.230,0.110
15.108,-0.225,0.120
15.111,-0.225,0.125
15.114,-0.225,0.110
15.117,-0.220,0.115
15.119,-0.200,0.125
15.122,-0.190,0.120
15.125,-0.180,0.120
15.128,-0.180,0.115
15.131,-0.170,0.105
15.133,-0.175,0.090
15.136,-0.180,0.090
15.139,-0.175,0.080
15.142,-0.175,0.090
15.144,-0.160,0.100
15.147,-0.160,0.100
15.150,-0.150,0.095
15.153,-0.135,0.095
15.156,-0.125,0.110
15.158,-0.125,0.090
15.161,-0.125,0.080
15.164,-0.130,0.070
15.167,-0.115,0.065
15.169,-0.120,0.075
15.172,-0.115,0.080
15.175,-0.105,0.070
15.178,-0.100,0.075
15.181,-0.080,0.070
15.183,-0.060,0.065
15.186,-0.060,0.070
15.189,-0.045,0.075
15.192,-0.025,0.070
15.194,-0.020,0.055
15.197,-0.020,0.050
15.200,-0.025,0.045
15.203,-0.015,0.035
15.206,-0.005,0.040
15.208,-0.010,0.025
15.211,0.005,0.030
15.214,0.010,0.040
15.217,0.030,0.035
15.219,0.045,0.030
15.222,0.085,0.025
15.225,0.085,0.020
15.228,0.105,0.005
15.231,0.115,0.005
15.233,0.130,0.000
15.236,0.135,-0.015
15.239,0.140,-0.015
15.242,0.165,-0.020
15.244,0.165,-0.035
15.247,0.180,-0.020
15.250,0.190,0.005
15.253,0.190,0.000
15.256,0.225,-0.010
15.258,0.225,-0.015
15.261,0.230,-0.025
15.264,0.250,-0.030
15.267,0.250,-0.035
15.269,0.250,-0.045
15.272,0.250,-0.045
15.275,0.265,-0.050
15.278,0.270,-0.035
15.281,0.280,-0.030
15.283,0.300,-0.025
15.286,0.310,-0.020
15.289,0.320,-0.025
15.292,0.325,-0.020
15.294,0.330,-0.015
15.297,0.325,-0.025
15.300,0.325,-0.030
15.303,0.305,-0.025
15.306,0.295,-0.030
15.308,0.290,-0.020
15.311,0.275,-0.005
15.314,0.270,0.005
15.317,0.255,0.005
15.319,0.255,0.040
15.322,0.250,0.035
15.325,0.225,0.040
15.328,0.225,0.040
15.331,0.205,0.030
15.333,0.190,0.040
15.336,0.170,0.055
15.339,0.140,0.060
15.342,0.125,0.075
15.344,0.105,0.080
15.347,0.080,0.095
15.350,0.060,0.110
15.353,0.045,0.120
15.356,0.030,0.130
15.358,0.000,0.130
15.361,-0.015,0.135
15.364,-0.035,0.135
15.367,-0.035,0.140
15.369,-0.050,0.130
15.372,-0.070,0.150
15.375,-0.095,0.150
15.378,-0.105,0.160
15.381,-0.125,0.170
15.383,-0.135,0.170
15.386,-0.155,0.180
15.389,-0.140,0.190
15.392,-0.150,0.195
15.394,-0.150,0.185
15.397,-0.155,0.175
15.400,-0.165,0.190
15.403,-0.170,0.175
15.406,-0.190,0.185
15.408,-0.205,0.185
15.411,-0.220,0.205
15.414,-0.230,0.195
15.417,-0.230,0.210
15.419,-0.225,0.215
15.422,-0.215,0.235
15.425,-0.205,0.215
15.428,-0.200,0.220
15.431,-0.210,0.205
15.433,-0.215,0.200
15.436,-0.230,0.190
15.439,-0.235,0.195
15.442,-0.235,0.195
15.444,-0.245,0.190
15.447,-0.235,0.205
15.450,-0.215,0.205
15.453,-0.220,0.220
15.456,-0.220,0.225
15.458,-0.215,0.235
15.461,-0.220,0.215
15.464,-0.235,0.200
15.467,-0.240,0.195
15.469,-0.235,0.190
15.472,-0.235,0.195
15.475,-0.225,0.195
15.478,-0.225,0.195
15.481,-0.220,0.210
15.483,-0.205,0.205
15.486,-0.205,0.215
15.489,-0.210,0.215
15.492,-0.205,0.200
15.494,-0.225,0.210
15.497,-0.230,0.200
15.500,-0.255,0.185
15.503,-0.240,0.185
15.506,-0.245,0.175
15.508,-0.240,0.175
15.511,-0.230,0.170
15.514,-0.210,0.195
15.517,-0.205,0.195
15.519,-0.190,0.205
15.522,-0.190,0.200
15.525,-0.200,0.185
15.528,-0.210,0.200
15.531,-0.230,0.185
15.533,-0.240,0.195
15.536,-0.240,0.175
15.539,-0.255,0.170
15.542,-0.255,0.175
15.544,-0.260,0.180
15.547,-0.255,0.180
15.550,-0.260,0.180
15.553,-0.255,0.195
15.556,-0.245,0.195
15.558,-0.250,0.190
15.561,-0.240,0.195
15.564,-0.250,0.180
15.567,-0.250,0.185
15.569,-0.275,0.170
15.572,-0.270,0.165
15.575,-0.280,0.165
15.578,-0.290,0.165
15.581,-0.275,0.175
15.583,-0.275,0.180
15.586,-0.270,0.190
15.589,-0.265,0.195
15.592,-0.260,0.185
15.594,-0.245,0.180
15.597,-0.250,0.175
15.600,-0.260,0.170
15.603,-0.265,0.150
15.606,-0.285,0.150
15.608,-0.295,0.155
15.611,-0.295,0.170
15.614,-0.285,0.170
15.617,-0.285,0.170
15.619,-0.270,0.180
15.622,-0.265,0.180
15.625,-0.270,0.185
15.628,-0.265,0.180
15.631,-0.280,0.170
15.633,-0.280,0.180
15.636,-0.290,0.160
15.639,-0.290,0.160
15.642,-0.300,0.160
15.644,-0.300,0.165
15.647,-0.295,0.175
15.650,-0.300,0.195
15.653,-0.290,0.190
15.656,-0.280,0.195
15.658,-0.275,0.195
15.661,-0.275,0.190
15.664,-0.270,0.175
15.667,-0.270,0.180
15.669,-0.300,0.165
15.672,-0.315,0.155
15.675,-0.315,0.165
15.678,-0.320,0.165
15.681,-0.310,0.165
15.683,-0.305,0.175
15.686,-0.300,0.180
15.689,-0.275,0.175
15.692,-0.285,0.175
15.694,-0.285,0.170
15.697,-0.280,0.185
15.700,-0.300,0.180
15.703,-0.305,0.165
15.706,-0.305,0.155
15.708,-0.300,0.145
15.711,-0.300,0.160
15.714,-0.290,0.175
15.717,-0.290,0.180
15.719,-0.300,0.190
15.722,-0.280,0.200
15.725,-0.295,0.185
15.728,-0.290,0.195
15.731,-0.295,0.205
15.733,-0.305,0.200
15.736,-0.300,0.205
15.739,-0.300,0.210
15.742,-0.305,0.225
15.744,-0.290,0.230
15.747,-0.265,0.235
15.750,-0.255,0.235
15.753,-0.230,0.235
15.756,-0.220,0.230
15.758,-0.210,0.215
15.761,-0.220,0.200
15.764,-0.225,0.195
15.767,-0.215,0.190
15.769,-0.195,0.180
15.772,-0.190,0.165
15.775,-0.150,0.180
15.778,-0.125,0.175
15.781,-0.115,0.175
15.783,-0.110,0.185
15.786,-0.120,0.180
15.789,-0.125,0.170
15.792,-0.135,0.170
15.794,-0.150,0.160
15.797,-0.160,0.145
15.800,-0.165,0.145
15.803,-0.185,0.155
15.806,-0.195,0.155
15.808,-0.205,0.150
15.811,-0.220,0.150
15.814,-0.245,0.145
15.817,-0.260,0.155
15.819,-0.280,0.140
15.822,-0.285,0.145
15.825,-0.305,0.145
15.828,-0.305,0.150
15.831,-0.305,0.145
15.833,-0.290,0.125
15.836,-0.305,0.110
15.839,-0.325,0.135
15.842,-0.335,0.130
15.844,-0.330,0.140
15.847,-0.355,0.135
15.850,-0.355,0.140
15.853,-0.350,0.150
15.856,-0.340,0.160
15.858,-0.335,0.165
15.861,-0.335,0.165
15.864,-0.325,0.160
15.867,-0.330,0.150
15.869,-0.340,0.140
15.872,-0.330,0.145
15.875,-0.335,0.140
15.878,-0.340,0.140
15.881,-0.335,0.155
15.883,-0.330,0.155
15.886,-0.325,0.165
15.889,-0.330,0.160
15.892,-0.345,0.165
15.894,-0.355,0.175
15.897,-0.345,0.175
15.900,-0.355,0.175
15.903,-0.340,0.205
15.906,-0.340,0.240
15.908,-0.335,0.265
15.911,-0.365,0.280
15.914,-0.420,0.270
15.917,-0.485,0.265
15.919,-0.535,0.230
15.922,-0.545,0.185
15.925,-0.465,0.115
15.928,-0.285,0.045
15.931,0.000,-0.025
15.933,0.355,-0.045
15.936,0.765,-0.045
15.939,1.125,-0.015
15.942,1.370,0.030
15.944,1.450,0.070
15.947,1.290,0.090
15.950,0.890,0.110
15.953,0.370,0.130
15.956,-0.130,0.215
15.958,-0.485,0.345
15.961,-0.640,0.480
15.964,-0.665,0.630
15.967,-0.640,0.750
15.969,-0.610,0.840
15.972,-0.615,0.905
15.975,-0.680,0.945
15.978,-0.765,0.990
15.981,-0.890,1.020
15.983,-0.965,1.050
15.986,-1.020,1.080
15.989,-1.050,1.070
15.992,-1.045,1.045
15.994,-1.040,0.995
15.997,-1.000,0.935
16.000,-0.965,0.865
16.003,-0.900,0.785
16.006,-0.830,0.715
16.008,-0.765,0.625
16.011,-0.705,0.500
16.014,-0.635,0.405
16.017,-0.555,0.320
16.019,-0.490,0.260
16.022,-0.430,0.220
16.025,-0.390,0.190
16.028,-0.370,0.195
16.031,-0.350,0.190
16.033,-0.355,0.180
16.036,-0.340,0.165
16.039,-0.335,0.145
16.042,-0.315,0.125
16.044,-0.315,0.130
16.047,-0.300,0.145
16.050,-0.285,0.135
16.053,-0.285,0.145
16.056,-0.280,0.140
16.058,-0.280,0.130
16.061,-0.280,0.125
16.064,-0.270,0.115
16.067,-0.270,0.120
16.069,-0.265,0.120
16.072,-0.270,0.120
16.075,-0.260,0.115
16.078,-0.260,0.120
16.081,-0.275,0.130
16.083,-0.250,0.125
16.086,-0.250,0.125
16.089,-0.245,0.125
16.092,-0.235,0.115
16.094,-0.230,0.110
16.097,-0.230,0.105
16.100,-0.235,0.095
16.103,-0.240,0.090
16.106,-0.255,0.090
16.108,-0.235,0.080
16.111,-0.230,0.085
16.114,-0.230,0.090
16.117,-0.225,0.095
16.119,-0.215,0.105
16.122,-0.200,0.110
16.125,-0.180,0.110
16.128,-0.170,0.095
16.131,-0.175,0.090
16.133,-0.185,0.080
16.136,-0.200,0.080
16.139,-0.200,0.055
16.142,-0.210,0.065
16.144,-0.195,0.055
16.147,-0.180,0.065
16.150,-0.175,0.085
16.153,-0.175,0.085
16.156,-0.175,0.080
16.158,-0.155,0.075
16.161,-0.155,0.070
16.164,-0.145,0.055
16.167,-0.115,0.060
16.169,-0.110,0.050
16.172,-0.115,0.045
16.175,-0.110,0.040
16.178,-0.120,0.045
16.181,-0.115,0.045
16.183,-0.105,0.035
16.186,-0.095,0.040
16.189,-0.075,0.035
16.192,-0.060,0.035
16.194,-0.060,0.040
16.197,-0.045,0.020
16.200,-0.040,0.015
16.203,-0.055,0.005
16.206,-0.050,-0.005
16.208,-0.035,0.005
16.211,-0.020,0.000
16.214,-0.005,0.010
16.217,0.015,0.010
16.219,0.030,0.010
16.222,0.045,0.000
16.225,0.050,-0.015
16.228,0.045,-0.025
16.231,0.040,-0.045
16.233,0.050,-0.055
16.236,0.055,-0.060
16.239,0.065,-0.060
16.242,0.090,-0.070
16.244,0.080,-0.080
16.247,0.100,-0.075
16.250,0.105,-0.080
16.253,0.120,-0.070
16.256,0.125,-0.080
16.258,0.150,-0.080
16.261,0.165,-0.085
16.264,0.175,-0.090
16.267,0.195,-0.095
16.269,0.190,-0.100
16.272,0.175,-0.115
16.275,0.170,-0.110
16.278,0.185,-0.105
16.281,0.195,-0.115
16.283,0.210,-0.110
16.286,0.230,-0.090
16.289,0.255,-0.090
16.292,0.275,-0.090
16.294,0.275,-0.085
16.297,0.280,-0.100
16.300,0.270,-0.100
16.303,0.255,-0.085
16.306,0.235,-0.100
16.308,0.230,-0.085
16.311,0.225,-0.075
16.314,0.215,-0.050
16.317,0.225,-0.030
16.319,0.215,-0.010
16.322,0.215,0.010
16.325,0.195,0.025
16.328,0.170,0.025
16.331,0.135,0.040
16.333,0.110,0.030
16.336,0.090,0.055
16.339,0.065,0.040
16.342,0.045,0.060
16.344,0.020,0.085
16.347,0.000,0.105
16.350,-0.035,0.120
16.353,-0.065,0.125
16.356,-0.050,0.135
16.358,-0.060,0.150
16.361,-0.075,0.150
16.364,-0.095,0.160
16.367,-0.100,0.155
16.369,-0.135,0.160
16.372,-0.155,0.170
16.375,-0.170,0.165
16.378,-0.190,0.175
16.381,-0.200,0.185
16.383,-0.210,0.195
16.386,-0.205,0.210
16.389,-0.195,0.215
16.392,-0.200,0.205
16.394,-0.200,0.205
16.397,-0.210,0.195
16.400,-0.220,0.190
16.403,-0.230,0.190
16.406,-0.230,0.175
16.408,-0.240,0.190
16.411,-0.240,0.200
16.414,-0.230,0.200
16.417,-0.225,0.210
16.419,-0.215,0.195
16.422,-0.200,0.200
16.425,-0.215,0.200
16.428,-0.190,0.195
16.431,-0.200,0.200
16.433,-0.205,0.195
16.436,-0.210,0.185
16.439,-0.210,0.190
16.442,-0.215,0.180
16.444,-0.220,0.180
16.447,-0.210,0.185
16.450,-0.205,0.185
16.453,-0.200,0.190
16.456,-0.190,0.190
16.458,-0.190,0.185
16.461,-0.195,0.185
16.464,-0.195,0.185
16.467,-0.195,0.170
16.469,-0.210,0.160
16.472,-0.220,0.145
16.475,-0.225,0.155
16.478,-0.225,0.155
16.481,-0.225,0.150
16.483,-0.225,0.180
16.486,-0.225,0.180
16.489,-0.210,0.175
16.492,-0.220,0.185
16.494,-0.215,0.175
16.497,-0.235,0.170
16.500,-0.240,0.175
16.503,-0.250,0.165
16.506,-0.260,0.155
16.508,-0.265,0.145
16.511,-0.265,0.155
16.514,-0.265,0.145
16.517,-0.255,0.160
16.519,-0.255,0.160
16.522,-0.255,0.170
16.525,-0.250,0.160
16.528,-0.245,0.155
16.531,-0.255,0.145
16.533,-0.265,0.140
16.536,-0.270,0.120
16.539,-0.270,0.110
16.542,-0.285,0.135
16.544,-0.290,0.135
16.547,-0.305,0.130
16.550,-0.295,0.145
16.553,-0.295,0.145
16.556,-0.290,0.140
16.558,-0.295,0.130
16.561,-0.280,0.135
16.564,-0.285,0.130
16.567,-0.290,0.120
16.569,-0.290,0.110
16.572,-0.295,0.120
16.575,-0.305,0.125
16.578,-0.305,0.130
16.581,-0.300,0.135
16.583,-0.305,0.130
16.586,-0.305,0.130
16.589,-0.295,0.150
16.592,-0.290,0.145
16.594,-0.300,0.135
16.597,-0.290,0.135
16.600,-0.310,0.125
16.603,-0.310,0.120
16.606,-0.315,0.120
16.608,-0.330,0.120
16.611,-0.335,0.125
16.614,-0.315,0.140
16.617,-0.310,0.150
16.619,-0.305,0.165
16.622,-0.290,0.185
16.625,-0.285,0.185
16.628,-0.270,0.190
16.631,-0.270,0.195
16.633,-0.270,0.185
16.636,-0.260,0.190
16.639,-0.270,0.185
16.642,-0.270,0.170
16.644,-0.260,0.165
16.647,-0.230,0.185
16.650,-0.220,0.190
16.653,-0.220,0.195
16.656,-0.200,0.185
16.658,-0.190,0.175
16.661,-0.180,0.160
16.664,-0.160,0.150
16.667,-0.150,0.140
16.669,-0.130,0.125
16.672,-0.125,0.110
16.675,-0.140,0.125
16.678,-0.135,0.110
16.681,-0.135,0.125
16.683,-0.140,0.115
16.686,-0.155,0.115
16.689,-0.160,0.115
16.692,-0.150,0.120
16.694,-0.160,0.125
16.697,-0.180,0.120
16.700,-0.195,0.105
16.703,-0.230,0.090
16.706,-0.245,0.095
16.708,-0.255,0.080
16.711,-0.275,0.080
16.714,-0.290,0.080
16.717,-0.305,0.095
16.719,-0.300,0.100
16.722,-0.310,0.105
16.725,-0.305,0.085
16.728,-0.305,0.085
16.731,-0.315,0.075
16.733,-0.315,0.065
16.736,-0.330,0.070
16.739,-0.335,0.065
16.742,-0.345,0.065
16.744,-0.345,0.070
16.747,-0.345,0.080
16.750,-0.335,0.080
16.753,-0.330,0.090
16.756,-0.320,0.095
16.758,-0.330,0.100
16.761,-0.325,0.090
16.764,-0.335,0.090
16.767,-0.340,0.085
16.769,-0.350,0.080
16.772,-0.355,0.080
16.775,-0.360,0.080
16.778,-0.355,0.095
16.781,-0.345,0.100
16.783,-0.345,0.100
16.786,-0.345,0.115
16.789,-0.330,0.130
16.792,-0.340,0.150
16.794,-0.345,0.175
16.797,-0.360,0.210
16.800,-0.390,0.225
16.803,-0.440,0.225
16.806,-0.515,0.200
16.808,-0.575,0.175
16.811,-0.600,0.125
16.814,-0.550,0.050
16.817,-0.370,-0.010
16.819,-0.085,-0.045
16.822,0.285,-0.080
16.825,0.690,-0.095
16.828,1.065,-0.075
16.831,1.355,-0.070
16.833,1.445,-0.070
16.836,1.280,-0.060
16.839,0.885,-0.030
16.842,0.380,0.040
16.844,-0.085,0.175
16.847,-0.400,0.335
16.850,-0.555,0.520
16.853,-0.590,0.670
16.856,-0.595,0.795
16.858,-0.600,0.865
16.861,-0.655,0.920
16.864,-0.745,0.950
16.867,-0.860,0.990
16.869,-0.970,1.005
16.872,-1.050,1.000
16.875,-1.095,0.980
16.878,-1.095,0.920
16.881,-1.075,0.850
16.883,-1.030,0.760
16.886,-0.945,0.675
16.889,-0.865,0.580
16.892,-0.760,0.480
16.894,-0.670,0.375
16.897,-0.580,0.300
16.900,-0.520,0.215
16.903,-0.460,0.155
16.906,-0.440,0.125
16.908,-0.420,0.115
16.911,-0.400,0.100
16.914,-0.375,0.110
16.917,-0.360,0.100
16.919,-0.360,0.095
16.922,-0.335,0.095
16.925,-0.315,0.090
16.928,-0.315,0.075
16.931,-0.320,0.075
16.933,-0.320,0.050
16.936,-0.315,0.040
16.939,-0.325,0.035
16.942,-0.325,0.035
16.944,-0.325,0.040
16.947,-0.315,0.035
16.950,-0.305,0.050
16.953,-0.290,0.050
16.956,-0.280,0.060
16.958,-0.285,0.055
16.961,-0.290,0.050
16.964,-0.285,0.035
16.967,-0.275,0.025
16.969,-0.275,0.025
16.972,-0.285,0.015
16.975,-0.290,0.020
16.978,-0.275,0.030
16.981,-0.295,0.030
16.983,-0.275,0.040
16.986,-0.270,0.040
16.989,-0.255,0.030
16.992,-0.240,0.025
16.994,-0.240,0.025
16.997,-0.230,0.015
17.000,-0.240,0.010
17.003,-0.235,0.005
17.006,-0.245,0.000
17.008,-0.245,0.005
17.011,-0.245,0.010
17.014,-0.230,0.000
17.017,-0.220,0.010
17.019,-0.205,0.010
17.022,-0.190,0.020
17.025,-0.185,0.000
17.028,-0.185,0.010
17.031,-0.180,-0.010
17.033,-0.185,-0.005
17.036,-0.175,-0.020
17.039,-0.180,-0.015
17.042,-0.170,-0.025
17.044,-0.165,-0.020
17.047,-0.145,-0.010
17.050,-0.140,-0.010
17.053,-0.125,-0.015
17.056,-0.100,-0.005
17.058,-0.090,-0.030
17.061,-0.085,-0.015
17.064,-0.085,-0.030
17.067,-0.085,-0.040
17.069,-0.070,-0.035
17.072,-0.065,-0.050
17.075,-0.065,-0.055
17.078,-0.060,-0.065
17.081,-0.040,-0.055
17.083,-0.035,-0.050
17.086,-0.015,-0.050
17.089,0.020,-0.055
17.092,0.020,-0.065
17.094,0.040,-0.070
17.097,0.040,-0.080
17.100,0.050,-0.090
17.103,0.060,-0.110
17.106,0.065,-0.100
17.108,0.080,-0.105
17.111,0.085,-0.115
17.114,0.110,-0.110
17.117,0.115,-0.115
17.119,0.125,-0.095
17.122,0.145,-0.100
17.125,0.150,-0.100
17.128,0.170,-0.115
17.131,0.160,-0.125
17.133,0.180,-0.115
17.136,0.170,-0.120
17.139,0.175,-0.135
17.142,0.175,-0.130
17.144,0.190,-0.130
17.147,0.200,-0.105
17.150,0.215,-0.110
17.153,0.225,-0.105
17.156,0.235,-0.105
17.158,0.245,-0.095
17.161,0.260,-0.095
17.164,0.250,-0.095
17.167,0.240,-0.105
17.169,0.245,-0.100
17.172,0.235,-0.110
17.175,0.230,-0.095
17.178,0.225,-0.085
17.181,0.220,-0.075
17.183,0.210,-0.065
17.186,0.200,-0.045
17.189,0.200,-0.030
17.192,0.180,-0.030
17.194,0.160,-0.015
17.197,0.125,-0.015
17.200,0.115,-0.025
17.203,0.085,-0.005
17.206,0.065,-0.010
17.208,0.045,0.005
17.211,0.030,0.015
17.214,0.015,0.035
17.217,-0.005,0.035
17.219,-0.035,0.060
17.222,-0.055,0.075
17.225,-0.065,0.085
17.228,-0.085,0.080
17.231,-0.100,0.080
