'Elapsed time','MLII','V1'
'seconds','mV','mV'
0.000,-0.245,0.210
0.003,-0.245,0.210
0.006,-0.245,0.210
0.008,-0.245,0.210
0.011,-0.245,0.210
0.014,-0.245,0.210
0.017,-0.245,0.210
0.019,-0.245,0.210
0.022,-0.240,0.210
0.025,-0.235,0.215
0.028,-0.195,0.205
0.031,-0.180,0.215
0.033,-0.155,0.215
0.036,-0.135,0.210
0.039,-0.125,0.205
0.042,-0.140,0.215
0.044,-0.165,0.205
0.047,-0.170,0.200
0.050,-0.185,0.200
0.053,-0.195,0.185
0.056,-0.195,0.185
0.058,-0.190,0.190
0.061,-0.170,0.195
0.064,-0.165,0.200
0.067,-0.165,0.210
0.069,-0.170,0.220
0.072,-0.165,0.240
0.075,-0.175,0.230
0.078,-0.180,0.225
0.081,-0.195,0.220
0.083,-0.195,0.215
0.086,-0.195,0.215
0.089,-0.215,0.205
0.092,-0.215,0.210
0.094,-0.200,0.215
0.097,-0.185,0.220
0.100,-0.175,0.215
0.103,-0.175,0.230
0.106,-0.175,0.230
0.108,-0.190,0.235
0.111,-0.200,0.215
0.114,-0.205,0.220
0.117,-0.200,0.215
0.119,-0.200,0.205
0.122,-0.185,0.205
0.125,-0.200,0.195
0.128,-0.200,0.200
0.131,-0.200,0.220
0.133,-0.190,0.215
0.136,-0.160,0.225
0.139,-0.145,0.220
0.142,-0.140,0.215
0.144,-0.160,0.215
0.147,-0.175,0.205
0.150,-0.205,0.220
0.153,-0.225,0.230
0.156,-0.255,0.215
0.158,-0.260,0.220
0.161,-0.230,0.215
0.164,-0.185,0.215
0.167,-0.165,0.200
0.169,-0.160,0.235
0.172,-0.170,0.240
0.175,-0.200,0.240
0.178,-0.220,0.250
0.181,-0.215,0.235
0.183,-0.215,0.235
0.186,-0.215,0.210
0.189,-0.190,0.195
0.192,-0.190,0.200
0.194,-0.190,0.205
0.197,-0.195,0.210
0.200,-0.195,0.220
0.203,-0.195,0.230
0.206,-0.190,0.215
0.208,-0.190,0.240
0.211,-0.185,0.230
0.214,-0.185,0.210
0.217,-0.180,0.205
0.219,-0.170,0.210
0.222,-0.185,0.215
0.225,-0.200,0.230
0.228,-0.215,0.235
0.231,-0.210,0.235
0.233,-0.185,0.225
0.236,-0.150,0.220
0.239,-0.145,0.235
0.242,-0.170,0.240
0.244,-0.200,0.250
0.247,-0.225,0.240
0.250,-0.240,0.250
0.253,-0.225,0.215
0.256,-0.205,0.210
0.258,-0.200,0.200
0.261,-0.195,0.205
0.264,-0.195,0.225
0.267,-0.205,0.220
0.269,-0.205,0.250
0.272,-0.205,0.245
0.275,-0.210,0.235
0.278,-0.210,0.220
0.281,-0.190,0.200
0.283,-0.175,0.190
0.286,-0.175,0.190
0.289,-0.175,0.180
0.292,-0.175,0.185
0.294,-0.180,0.180
0.297,-0.180,0.195
0.300,-0.200,0.195
0.303,-0.235,0.230
0.306,-0.250,0.240
0.308,-0.255,0.230
0.311,-0.240,0.225
0.314,-0.215,0.200
0.317,-0.185,0.185
0.319,-0.170,0.160
0.322,-0.180,0.170
0.325,-0.175,0.180
0.328,-0.185,0.195
0.331,-0.185,0.210
0.333,-0.185,0.215
0.336,-0.190,0.230
0.339,-0.220,0.240
0.342,-0.220,0.230
0.344,-0.220,0.220
0.347,-0.205,0.210
0.350,-0.185,0.190
0.353,-0.195,0.190
0.356,-0.210,0.190
0.358,-0.215,0.185
0.361,-0.215,0.190
0.364,-0.195,0.200
0.367,-0.175,0.205
0.369,-0.180,0.215
0.372,-0.210,0.250
0.375,-0.245,0.255
0.378,-0.260,0.250
0.381,-0.265,0.235
0.383,-0.260,0.220
0.386,-0.255,0.205
0.389,-0.235,0.175
0.392,-0.210,0.180
0.394,-0.200,0.175
0.397,-0.175,0.195
0.400,-0.175,0.190
0.403,-0.170,0.205
0.406,-0.195,0.210
0.408,-0.215,0.210
0.411,-0.230,0.210
0.414,-0.235,0.215
0.417,-0.230,0.205
0.419,-0.220,0.200
0.422,-0.195,0.180
0.425,-0.175,0.180
0.428,-0.155,0.170
0.431,-0.150,0.175
0.433,-0.150,0.195
0.436,-0.170,0.210
0.439,-0.180,0.205
0.442,-0.210,0.225
0.444,-0.245,0.245
0.447,-0.250,0.245
0.450,-0.270,0.250
0.453,-0.275,0.240
0.456,-0.270,0.225
0.458,-0.255,0.210
0.461,-0.235,0.210
0.464,-0.200,0.205
0.467,-0.155,0.190
0.469,-0.120,0.175
0.472,-0.115,0.170
0.475,-0.125,0.175
0.478,-0.175,0.190
0.481,-0.225,0.215
0.483,-0.265,0.240
0.486,-0.290,0.240
0.489,-0.290,0.245
0.492,-0.300,0.235
0.494,-0.270,0.235
0.497,-0.235,0.215
0.500,-0.205,0.225
0.503,-0.190,0.215
0.506,-0.185,0.215
0.508,-0.180,0.200
0.511,-0.170,0.190
0.514,-0.145,0.180
0.517,-0.145,0.175
0.519,-0.145,0.160
0.522,-0.170,0.175
0.525,-0.210,0.195
0.528,-0.250,0.205
0.531,-0.280,0.230
0.533,-0.275,0.245
0.536,-0.275,0.245
0.539,-0.245,0.240
0.542,-0.225,0.225
0.544,-0.195,0.220
0.547,-0.175,0.200
0.550,-0.190,0.185
0.553,-0.195,0.170
0.556,-0.190,0.170
0.558,-0.195,0.180
0.561,-0.220,0.180
0.564,-0.220,0.205
0.567,-0.230,0.215
0.569,-0.220,0.240
0.572,-0.220,0.230
0.575,-0.220,0.225
0.578,-0.200,0.200
0.581,-0.205,0.195
0.583,-0.210,0.185
0.586,-0.220,0.200
0.589,-0.235,0.200
0.592,-0.250,0.210
0.594,-0.265,0.200
0.597,-0.250,0.205
0.600,-0.240,0.210
0.603,-0.225,0.210
0.606,-0.200,0.210
0.608,-0.200,0.185
0.611,-0.190,0.185
0.614,-0.185,0.190
0.617,-0.195,0.175
0.619,-0.195,0.180
0.622,-0.200,0.180
0.625,-0.205,0.195
0.628,-0.220,0.200
0.631,-0.215,0.205
0.633,-0.225,0.205
0.636,-0.230,0.215
0.639,-0.230,0.220
0.642,-0.230,0.220
0.644,-0.205,0.210
0.647,-0.210,0.200
0.650,-0.215,0.190
0.653,-0.220,0.185
0.656,-0.235,0.180
0.658,-0.245,0.180
0.661,-0.235,0.195
0.664,-0.230,0.200
0.667,-0.195,0.200
0.669,-0.180,0.205
0.672,-0.170,0.220
0.675,-0.170,0.205
0.678,-0.165,0.190
0.681,-0.170,0.195
0.683,-0.180,0.190
0.686,-0.210,0.180
0.689,-0.230,0.180
0.692,-0.230,0.195
0.694,-0.235,0.195
0.697,-0.240,0.205
0.700,-0.235,0.210
0.703,-0.245,0.215
0.706,-0.245,0.225
0.708,-0.240,0.220
0.711,-0.240,0.220
0.714,-0.220,0.190
0.717,-0.210,0.180
0.719,-0.195,0.190
0.722,-0.195,0.175
0.725,-0.210,0.190
0.728,-0.215,0.190
0.731,-0.215,0.200
0.733,-0.195,0.185
0.736,-0.170,0.200
0.739,-0.140,0.195
0.742,-0.145,0.185
0.744,-0.175,0.185
0.747,-0.215,0.215
0.750,-0.250,0.210
0.753,-0.280,0.210
0.756,-0.275,0.210
0.758,-0.265,0.200
0.761,-0.235,0.180
0.764,-0.205,0.190
0.767,-0.200,0.195
0.769,-0.195,0.200
0.772,-0.200,0.205
0.775,-0.205,0.205
0.778,-0.210,0.220
0.781,-0.220,0.220
0.783,-0.235,0.205
0.786,-0.255,0.210
0.789,-0.260,0.195
0.792,-0.245,0.190
0.794,-0.225,0.190
0.797,-0.210,0.200
0.800,-0.200,0.200
0.803,-0.190,0.210
0.806,-0.185,0.220
0.808,-0.200,0.215
0.811,-0.225,0.230
0.814,-0.225,0.215
0.817,-0.230,0.210
0.819,-0.225,0.200
0.822,-0.200,0.185
0.825,-0.190,0.170
0.828,-0.175,0.190
0.831,-0.165,0.200
0.833,-0.190,0.205
0.836,-0.205,0.205
0.839,-0.215,0.220
0.842,-0.230,0.220
0.844,-0.210,0.195
0.847,-0.180,0.190
0.850,-0.170,0.170
0.853,-0.180,0.170
0.856,-0.205,0.185
0.858,-0.235,0.200
0.861,-0.255,0.210
0.864,-0.250,0.210
0.867,-0.225,0.205
0.869,-0.195,0.215
0.872,-0.175,0.220
0.875,-0.165,0.215
0.878,-0.155,0.210
0.881,-0.175,0.190
0.883,-0.200,0.205
0.886,-0.215,0.195
0.889,-0.220,0.190
0.892,-0.205,0.180
0.894,-0.200,0.185
0.897,-0.190,0.185
0.900,-0.175,0.190
0.903,-0.175,0.205
0.906,-0.185,0.215
0.908,-0.195,0.215
0.911,-0.205,0.195
0.914,-0.210,0.215
0.917,-0.215,0.210
0.919,-0.215,0.195
0.922,-0.215,0.190
0.925,-0.195,0.185
0.928,-0.190,0.180
0.931,-0.195,0.190
0.933,-0.195,0.200
0.936,-0.215,0.205
0.939,-0.200,0.200
0.942,-0.195,0.200
0.944,-0.185,0.195
0.947,-0.175,0.175
0.950,-0.185,0.165
0.953,-0.190,0.165
0.956,-0.210,0.165
0.958,-0.210,0.180
0.961,-0.235,0.185
0.964,-0.240,0.205
0.967,-0.220,0.205
0.969,-0.205,0.210
0.972,-0.180,0.185
0.975,-0.155,0.175
0.978,-0.145,0.160
0.981,-0.155,0.165
0.983,-0.190,0.180
0.986,-0.230,0.195
0.989,-0.265,0.210
0.992,-0.275,0.200
0.994,-0.240,0.190
0.997,-0.220,0.195
1.000,-0.210,0.195
1.003,-0.190,0.190
1.006,-0.180,0.205
1.008,-0.205,0.210
1.011,-0.200,0.190
1.014,-0.210,0.185
1.017,-0.185,0.175
1.019,-0.190,0.160
1.022,-0.175,0.155
1.025,-0.175,0.165
1.028,-0.195,0.165
1.031,-0.190,0.180
1.033,-0.180,0.180
1.036,-0.145,0.185
1.039,-0.125,0.175
1.042,-0.125,0.175
1.044,-0.160,0.190
1.047,-0.200,0.205
1.050,-0.250,0.215
1.053,-0.305,0.220
1.056,-0.325,0.215
1.058,-0.330,0.215
1.061,-0.265,0.190
1.064,-0.235,0.180
1.067,-0.190,0.170
1.069,-0.170,0.185
1.072,-0.160,0.205
1.075,-0.170,0.195
1.078,-0.185,0.190
1.081,-0.195,0.195
1.083,-0.200,0.180
1.086,-0.205,0.175
1.089,-0.200,0.165
1.092,-0.200,0.150
1.094,-0.180,0.155
1.097,-0.175,0.165
1.100,-0.160,0.160
1.103,-0.150,0.180
1.106,-0.160,0.200
1.108,-0.200,0.210
1.111,-0.230,0.220
1.114,-0.230,0.195
1.117,-0.195,0.190
1.119,-0.175,0.180
1.122,-0.165,0.160
1.125,-0.180,0.185
1.128,-0.205,0.210
1.131,-0.225,0.230
1.133,-0.235,0.245
1.136,-0.220,0.255
1.139,-0.195,0.235
1.142,-0.145,0.220
1.144,-0.085,0.190
1.147,-0.045,0.170
1.150,-0.040,0.175
1.153,-0.095,0.200
1.156,-0.145,0.225
1.158,-0.190,0.235
1.161,-0.205,0.220
1.164,-0.190,0.205
1.167,-0.165,0.210
1.169,-0.135,0.200
1.172,-0.100,0.200
1.175,-0.095,0.175
1.178,-0.095,0.175
1.181,-0.095,0.150
1.183,-0.125,0.145
1.186,-0.145,0.140
1.189,-0.165,0.150
1.192,-0.185,0.165
1.194,-0.190,0.160
1.197,-0.175,0.160
1.200,-0.165,0.170
1.203,-0.150,0.170
1.206,-0.150,0.160
1.208,-0.150,0.165
1.211,-0.155,0.160
1.214,-0.155,0.145
1.217,-0.150,0.135
1.219,-0.145,0.135
1.222,-0.140,0.140
1.225,-0.135,0.150
1.228,-0.145,0.170
1.231,-0.145,0.185
1.233,-0.145,0.195
1.236,-0.145,0.210
1.239,-0.145,0.185
1.242,-0.155,0.190
1.244,-0.185,0.200
1.247,-0.210,0.195
1.250,-0.245,0.190
1.253,-0.270,0.205
1.256,-0.285,0.195
1.258,-0.275,0.200
1.261,-0.265,0.190
1.264,-0.245,0.190
1.267,-0.220,0.190
1.269,-0.205,0.200
1.272,-0.195,0.205
1.275,-0.225,0.225
1.278,-0.245,0.235
1.281,-0.240,0.230
1.283,-0.240,0.215
1.286,-0.245,0.195
1.289,-0.235,0.170
1.292,-0.205,0.155
1.294,-0.185,0.175
1.297,-0.190,0.180
1.300,-0.195,0.190
1.303,-0.205,0.215
1.306,-0.215,0.215
1.308,-0.225,0.215
1.311,-0.225,0.200
1.314,-0.220,0.190
1.317,-0.210,0.180
1.319,-0.195,0.180
1.322,-0.185,0.175
1.325,-0.175,0.180
1.328,-0.175,0.190
1.331,-0.190,0.205
1.333,-0.190,0.215
1.336,-0.190,0.245
1.339,-0.160,0.255
1.342,-0.130,0.260
1.344,-0.090,0.255
1.347,-0.045,0.215
1.350,-0.020,0.175
1.353,0.010,0.120
1.356,0.050,0.040
1.358,0.115,-0.075
1.361,0.210,-0.200
1.364,0.295,-0.320
1.367,0.340,-0.405
1.369,0.310,-0.455
1.372,0.190,-0.460
1.375,-0.010,-0.420
1.378,-0.220,-0.345
1.381,-0.390,-0.210
1.383,-0.480,-0.025
1.386,-0.520,0.160
1.389,-0.505,0.320
1.392,-0.480,0.425
1.394,-0.440,0.485
1.397,-0.420,0.515
1.400,-0.400,0.525
1.403,-0.405,0.545
1.406,-0.425,0.560
1.408,-0.450,0.560
1.411,-0.480,0.585
1.414,-0.500,0.605
1.417,-0.500,0.630
1.419,-0.485,0.640
1.422,-0.455,0.660
1.425,-0.405,0.685
1.428,-0.350,0.680
1.431,-0.335,0.705
1.433,-0.305,0.720
1.436,-0.325,0.740
1.439,-0.355,0.750
1.442,-0.395,0.750
1.444,-0.405,0.730
1.447,-0.410,0.680
1.450,-0.400,0.610
1.453,-0.375,0.545
1.456,-0.355,0.470
1.458,-0.355,0.400
1.461,-0.320,0.330
1.464,-0.295,0.290
1.467,-0.260,0.240
1.469,-0.220,0.210
1.472,-0.180,0.195
1.475,-0.180,0.170
1.478,-0.175,0.175
1.481,-0.185,0.165
1.483,-0.195,0.150
1.486,-0.220,0.145
1.489,-0.230,0.155
1.492,-0.225,0.140
1.494,-0.220,0.140
1.497,-0.210,0.155
1.500,-0.210,0.150
1.503,-0.205,0.150
1.506,-0.195,0.150
1.508,-0.190,0.145
1.511,-0.195,0.150
1.514,-0.180,0.140
1.517,-0.195,0.130
1.519,-0.205,0.130
1.522,-0.225,0.120
1.525,-0.220,0.120
1.528,-0.195,0.120
1.531,-0.185,0.110
1.533,-0.165,0.110
1.536,-0.170,0.120
1.539,-0.160,0.120
1.542,-0.180,0.125
1.544,-0.190,0.125
1.547,-0.195,0.115
1.550,-0.180,0.080
1.553,-0.150,0.055
1.556,-0.115,0.035
1.558,-0.100,0.040
1.561,-0.110,0.085
1.564,-0.155,0.110
1.567,-0.200,0.125
1.569,-0.215,0.145
1.572,-0.205,0.145
1.575,-0.190,0.125
1.578,-0.170,0.095
1.581,-0.140,0.085
1.583,-0.125,0.070
1.586,-0.135,0.055
1.589,-0.140,0.060
1.592,-0.145,0.055
1.594,-0.145,0.055
1.597,-0.130,0.055
1.600,-0.120,0.060
1.603,-0.125,0.050
1.606,-0.125,0.040
1.608,-0.110,0.025
1.611,-0.105,0.010
1.614,-0.095,-0.005
1.617,-0.095,-0.015
1.619,-0.090,-0.040
1.622,-0.080,-0.040
1.625,-0.085,-0.040
1.628,-0.080,-0.030
1.631,-0.095,-0.035
1.633,-0.075,-0.035
1.636,-0.050,-0.055
1.639,-0.030,-0.050
1.642,-0.010,-0.075
1.644,-0.005,-0.085
1.647,0.000,-0.090
1.650,-0.010,-0.095
1.653,-0.020,-0.085
1.656,-0.035,-0.105
1.658,-0.030,-0.095
1.661,-0.030,-0.105
1.664,0.005,-0.125
1.667,0.030,-0.120
1.669,0.050,-0.120
1.672,0.065,-0.125
1.675,0.060,-0.125
1.678,0.050,-0.110
1.681,0.020,-0.100
1.683,0.005,-0.090
1.686,-0.010,-0.100
1.689,-0.015,-0.090
1.692,-0.020,-0.090
1.694,0.000,-0.085
1.697,0.015,-0.050
1.700,0.035,-0.045
1.703,0.055,-0.040
1.706,0.065,-0.035
1.708,0.060,-0.025
1.711,0.040,0.000
1.714,0.010,0.005
1.717,-0.030,0.035
1.719,-0.040,0.030
1.722,-0.040,0.035
1.725,-0.035,0.050
1.728,-0.025,0.055
1.731,-0.020,0.085
1.733,-0.025,0.105
1.736,-0.055,0.125
1.739,-0.065,0.150
1.742,-0.095,0.145
1.744,-0.105,0.160
1.747,-0.115,0.155
1.750,-0.100,0.155
1.753,-0.105,0.140
1.756,-0.115,0.140
1.758,-0.135,0.150
1.761,-0.145,0.150
1.764,-0.160,0.165
1.767,-0.165,0.180
1.769,-0.180,0.180
1.772,-0.165,0.190
1.775,-0.150,0.190
1.778,-0.155,0.170
1.781,-0.150,0.155
1.783,-0.155,0.145
1.786,-0.175,0.140
1.789,-0.205,0.135
1.792,-0.215,0.135
1.794,-0.230,0.160
1.797,-0.225,0.155
1.800,-0.210,0.135
1.803,-0.190,0.135
1.806,-0.175,0.135
1.808,-0.170,0.110
1.811,-0.165,0.105
1.814,-0.170,0.110
1.817,-0.180,0.115
1.819,-0.180,0.105
1.822,-0.190,0.110
1.825,-0.205,0.105
1.828,-0.185,0.110
1.831,-0.170,0.115
1.833,-0.155,0.145
1.836,-0.155,0.145
1.839,-0.135,0.160
1.842,-0.135,0.150
1.844,-0.125,0.150
1.847,-0.105,0.130
1.850,-0.105,0.115
1.853,-0.110,0.105
1.856,-0.115,0.100
1.858,-0.125,0.100
1.861,-0.140,0.110
1.864,-0.145,0.120
1.867,-0.145,0.135
1.869,-0.145,0.135
1.872,-0.130,0.125
1.875,-0.120,0.130
1.878,-0.120,0.130
1.881,-0.120,0.115
1.883,-0.120,0.120
1.886,-0.130,0.110
1.889,-0.160,0.120
1.892,-0.175,0.140
1.894,-0.170,0.150
1.897,-0.155,0.175
1.900,-0.135,0.170
1.903,-0.090,0.165
1.906,-0.060,0.165
1.908,-0.060,0.175
1.911,-0.100,0.180
1.914,-0.120,0.180
1.917,-0.130,0.175
1.919,-0.150,0.175
1.922,-0.150,0.165
1.925,-0.150,0.170
1.928,-0.130,0.165
1.931,-0.125,0.170
1.933,-0.120,0.175
1.936,-0.115,0.185
1.939,-0.120,0.195
1.942,-0.130,0.195
1.944,-0.140,0.205
1.947,-0.155,0.190
1.950,-0.170,0.190
1.953,-0.155,0.180
1.956,-0.155,0.180
1.958,-0.145,0.175
1.961,-0.130,0.185
1.964,-0.125,0.185
1.967,-0.120,0.185
1.969,-0.130,0.185
1.972,-0.115,0.190
1.975,-0.110,0.185
1.978,-0.110,0.200
1.981,-0.100,0.175
1.983,-0.100,0.185
1.986,-0.110,0.180
1.989,-0.145,0.170
1.992,-0.170,0.175
1.994,-0.175,0.175
1.997,-0.165,0.190
2.000,-0.125,0.195
2.003,-0.115,0.185
2.006,-0.115,0.190
2.008,-0.135,0.195
2.011,-0.150,0.185
2.014,-0.150,0.185
2.017,-0.130,0.165
2.019,-0.115,0.160
2.022,-0.105,0.160
2.025,-0.100,0.190
2.028,-0.085,0.225
2.031,-0.075,0.240
2.033,-0.045,0.230
2.036,0.010,0.185
2.039,0.110,0.100
2.042,0.235,-0.020
2.044,0.365,-0.150
2.047,0.470,-0.255
2.050,0.495,-0.335
2.053,0.440,-0.375
2.056,0.260,-0.370
2.058,0.020,-0.320
2.061,-0.195,-0.205
2.064,-0.355,-0.070
2.067,-0.435,0.115
2.069,-0.440,0.265
2.072,-0.415,0.400
2.075,-0.390,0.470
2.078,-0.340,0.505
2.081,-0.305,0.485
2.083,-0.305,0.470
2.086,-0.320,0.455
2.089,-0.355,0.455
2.092,-0.395,0.480
2.094,-0.400,0.500
2.097,-0.380,0.515
2.100,-0.350,0.525
2.103,-0.300,0.540
2.106,-0.255,0.560
2.108,-0.255,0.595
2.111,-0.280,0.620
2.114,-0.325,0.635
2.117,-0.385,0.655
2.119,-0.410,0.655
2.122,-0.415,0.630
2.125,-0.395,0.610
2.128,-0.350,0.555
2.131,-0.300,0.500
2.133,-0.285,0.445
2.136,-0.265,0.400
2.139,-0.260,0.340
2.142,-0.255,0.290
2.144,-0.240,0.240
2.147,-0.215,0.170
2.150,-0.180,0.130
2.153,-0.150,0.090
2.156,-0.150,0.085
2.158,-0.155,0.075
2.161,-0.145,0.095
2.164,-0.165,0.120
2.167,-0.150,0.100
2.169,-0.135,0.115
2.172,-0.125,0.105
2.175,-0.105,0.095
2.178,-0.095,0.085
2.181,-0.100,0.070
2.183,-0.095,0.070
2.186,-0.105,0.055
2.189,-0.125,0.070
2.192,-0.145,0.085
2.194,-0.165,0.100
2.197,-0.155,0.095
2.200,-0.155,0.100
2.203,-0.140,0.085
2.206,-0.120,0.070
2.208,-0.125,0.075
2.211,-0.110,0.090
2.214,-0.135,0.080
2.217,-0.145,0.065
2.219,-0.150,0.075
2.222,-0.140,0.050
2.225,-0.125,0.045
2.228,-0.120,0.065
2.231,-0.130,0.070
2.233,-0.135,0.085
2.236,-0.140,0.090
2.239,-0.125,0.085
2.242,-0.125,0.080
2.244,-0.100,0.060
2.247,-0.085,0.055
2.250,-0.085,0.040
2.253,-0.110,0.030
2.256,-0.105,0.035
2.258,-0.115,0.015
2.261,-0.110,0.020
2.264,-0.085,0.030
2.267,-0.055,0.020
2.269,-0.045,0.030
2.272,-0.045,0.020
2.275,-0.030,0.005
2.278,-0.020,-0.010
2.281,-0.020,-0.015
2.283,-0.025,-0.020
2.286,-0.010,-0.040
2.289,-0.010,-0.040
2.292,-0.010,-0.055
2.294,0.005,-0.065
2.297,0.010,-0.060
2.300,0.030,-0.070
2.303,0.055,-0.060
2.306,0.080,-0.075
2.308,0.100,-0.090
2.311,0.105,-0.110
2.314,0.120,-0.120
2.317,0.125,-0.130
2.319,0.100,-0.130
2.322,0.075,-0.125
2.325,0.055,-0.110
2.328,0.060,-0.105
2.331,0.070,-0.105
2.333,0.095,-0.120
2.336,0.130,-0.125
2.339,0.135,-0.125
2.342,0.130,-0.120
2.344,0.125,-0.120
2.347,0.120,-0.115
2.350,0.130,-0.110
2.353,0.125,-0.115
2.356,0.125,-0.115
2.358,0.120,-0.095
2.361,0.100,-0.065
2.364,0.085,-0.050
2.367,0.060,-0.010
2.369,0.045,0.005
2.372,0.025,0.035
2.375,0.035,0.050
2.378,0.030,0.065
2.381,0.030,0.055
2.383,0.015,0.055
2.386,-0.005,0.060
2.389,-0.025,0.060
2.392,-0.030,0.075
2.394,-0.030,0.090
2.397,-0.060,0.130
2.400,-0.100,0.170
2.403,-0.125,0.180
2.406,-0.120,0.185
2.408,-0.105,0.180
2.411,-0.090,0.160
2.414,-0.090,0.160
2.417,-0.100,0.150
2.419,-0.130,0.150
2.422,-0.145,0.180
2.425,-0.155,0.170
2.428,-0.155,0.175
2.431,-0.160,0.180
2.433,-0.145,0.175
2.436,-0.135,0.180
2.439,-0.135,0.185
2.442,-0.130,0.185
2.444,-0.135,0.180
2.447,-0.145,0.185
2.450,-0.155,0.175
2.453,-0.170,0.165
2.456,-0.185,0.160
2.458,-0.195,0.170
2.461,-0.185,0.165
2.464,-0.185,0.170
2.467,-0.170,0.170
2.469,-0.165,0.185
2.472,-0.155,0.195
2.475,-0.145,0.180
2.478,-0.125,0.185
2.481,-0.130,0.165
2.483,-0.145,0.160
2.486,-0.160,0.150
2.489,-0.165,0.165
2.492,-0.170,0.165
2.494,-0.160,0.175
2.497,-0.160,0.180
2.500,-0.150,0.185
2.503,-0.135,0.175
2.506,-0.115,0.170
2.508,-0.130,0.160
2.511,-0.135,0.170
2.514,-0.180,0.175
2.517,-0.190,0.175
2.519,-0.200,0.175
2.522,-0.205,0.175
2.525,-0.195,0.165
2.528,-0.195,0.155
2.531,-0.170,0.150
2.533,-0.170,0.120
2.536,-0.165,0.115
2.539,-0.135,0.095
2.542,-0.135,0.095
2.544,-0.120,0.085
2.547,-0.115,0.100
2.550,-0.110,0.085
2.553,-0.120,0.080
2.556,-0.145,0.080
2.558,-0.165,0.095
2.561,-0.195,0.110
2.564,-0.210,0.135
2.567,-0.230,0.155
2.569,-0.215,0.170
2.572,-0.210,0.180
2.575,-0.180,0.170
2.578,-0.160,0.165
2.581,-0.130,0.135
2.583,-0.100,0.115
2.586,-0.090,0.110
2.589,-0.110,0.105
2.592,-0.110,0.115
2.594,-0.125,0.125
2.597,-0.130,0.120
2.600,-0.120,0.125
2.603,-0.115,0.125
2.606,-0.115,0.120
2.608,-0.115,0.130
2.611,-0.135,0.130
2.614,-0.150,0.140
2.617,-0.170,0.130
2.619,-0.205,0.140
2.622,-0.210,0.130
2.625,-0.215,0.125
2.628,-0.225,0.130
2.631,-0.225,0.150
2.633,-0.225,0.155
2.636,-0.210,0.170
2.639,-0.195,0.165
2.642,-0.180,0.170
2.644,-0.155,0.165
2.647,-0.160,0.165
2.650,-0.155,0.180
2.653,-0.160,0.175
2.656,-0.180,0.165
2.658,-0.180,0.180
2.661,-0.165,0.180
2.664,-0.155,0.185
2.667,-0.145,0.180
2.669,-0.135,0.185
2.672,-0.120,0.200
2.675,-0.120,0.195
2.678,-0.125,0.185
2.681,-0.130,0.180
2.683,-0.140,0.170
2.686,-0.130,0.155
2.689,-0.125,0.150
2.692,-0.120,0.145
2.694,-0.125,0.155
2.697,-0.140,0.170
2.700,-0.150,0.205
2.703,-0.160,0.205
2.706,-0.135,0.200
2.708,-0.125,0.185
2.711,-0.115,0.175
2.714,-0.145,0.180
2.717,-0.180,0.190
2.719,-0.185,0.190
2.722,-0.185,0.175
2.725,-0.170,0.180
2.728,-0.155,0.175
2.731,-0.155,0.190
2.733,-0.140,0.200
2.736,-0.125,0.205
2.739,-0.135,0.195
2.742,-0.130,0.190
2.744,-0.135,0.190
2.747,-0.150,0.200
2.750,-0.150,0.195
2.753,-0.145,0.205
2.756,-0.125,0.220
2.758,-0.095,0.220
2.761,-0.050,0.230
2.764,-0.015,0.240
2.767,0.030,0.230
2.769,0.115,0.205
2.772,0.195,0.130
2.775,0.395,-0.080
2.778,0.485,-0.180
2.781,0.550,-0.270
2.783,0.540,-0.340
2.786,0.440,-0.370
2.789,0.235,-0.360
2.792,-0.030,-0.315
2.794,-0.290,-0.190
2.797,-0.465,-0.045
2.800,-0.555,0.140
2.803,-0.580,0.280
2.806,-0.545,0.405
2.808,-0.495,0.480
2.811,-0.440,0.510
2.814,-0.390,0.495
2.817,-0.350,0.490
2.819,-0.330,0.460
2.822,-0.330,0.470
2.825,-0.360,0.485
2.828,-0.410,0.530
2.831,-0.455,0.575
2.833,-0.470,0.615
2.836,-0.465,0.645
2.839,-0.430,0.640
2.842,-0.390,0.650
2.844,-0.345,0.660
2.847,-0.320,0.665
2.850,-0.330,0.655
2.853,-0.340,0.665
2.856,-0.355,0.670
2.858,-0.370,0.650
2.861,-0.365,0.630
2.864,-0.335,0.595
2.867,-0.320,0.550
2.869,-0.285,0.490
2.872,-0.260,0.440
2.875,-0.260,0.385
2.878,-0.265,0.340
2.881,-0.270,0.295
2.883,-0.280,0.260
2.886,-0.280,0.215
2.889,-0.265,0.180
2.892,-0.230,0.155
2.894,-0.200,0.140
2.897,-0.170,0.120
2.900,-0.140,0.130
2.903,-0.125,0.135
2.906,-0.115,0.125
2.908,-0.095,0.105
2.911,-0.070,0.085
2.914,-0.050,0.060
2.917,-0.070,0.055
2.919,-0.105,0.080
2.922,-0.165,0.110
2.925,-0.240,0.155
2.928,-0.290,0.175
2.931,-0.290,0.175
2.933,-0.260,0.165
2.936,-0.210,0.145
2.939,-0.160,0.120
2.942,-0.130,0.105
2.944,-0.120,0.085
2.947,-0.125,0.090
2.950,-0.115,0.085
2.953,-0.125,0.080
2.956,-0.125,0.090
2.958,-0.120,0.065
2.961,-0.110,0.070
2.964,-0.120,0.070
2.967,-0.130,0.100
2.969,-0.135,0.110
2.972,-0.140,0.105
2.975,-0.165,0.085
2.978,-0.145,0.080
2.981,-0.145,0.055
2.983,-0.115,0.040
2.986,-0.115,0.040
2.989,-0.110,0.035
2.992,-0.105,0.050
2.994,-0.105,0.050
2.997,-0.100,0.065
3.000,-0.095,0.070
3.003,-0.110,0.065
3.006,-0.125,0.060
3.008,-0.135,0.050
3.011,-0.125,0.035
3.014,-0.110,0.010
3.017,-0.095,0.020
3.019,-0.090,-0.005
3.022,-0.065,-0.010
3.025,-0.050,-0.020
3.028,-0.040,-0.035
3.031,-0.025,-0.035
3.033,-0.010,-0.040
3.036,0.025,-0.035
3.039,0.030,-0.060
3.042,0.050,-0.065
3.044,0.070,-0.075
3.047,0.065,-0.080
3.050,0.050,-0.080
3.053,0.055,-0.095
3.056,0.055,-0.100
3.058,0.050,-0.100
3.061,0.045,-0.075
3.064,0.050,-0.080
3.067,0.060,-0.075
3.069,0.075,-0.070
3.072,0.085,-0.080
3.075,0.085,-0.095
3.078,0.110,-0.115
3.081,0.085,-0.100
3.083,0.080,-0.105
3.086,0.070,-0.105
3.089,0.070,-0.095
3.092,0.085,-0.090
3.094,0.085,-0.065
3.097,0.085,-0.035
3.100,0.070,-0.015
3.103,0.070,-0.005
3.106,0.045,0.000
3.108,0.020,0.020
3.111,0.010,0.015
3.114,0.000,0.010
3.117,-0.005,0.030
3.119,-0.005,0.045
3.122,-0.045,0.055
3.125,-0.080,0.075
3.128,-0.100,0.100
3.131,-0.110,0.120
3.133,-0.115,0.135
3.136,-0.080,0.140
3.139,-0.065,0.130
3.142,-0.050,0.130
3.144,-0.040,0.135
3.147,-0.060,0.140
3.150,-0.090,0.155
3.153,-0.150,0.175
3.156,-0.195,0.195
3.158,-0.215,0.210
3.161,-0.225,0.205
3.164,-0.215,0.205
3.167,-0.190,0.195
3.169,-0.150,0.170
3.172,-0.130,0.160
3.175,-0.120,0.155
3.178,-0.125,0.155
3.181,-0.140,0.160
3.183,-0.150,0.145
3.186,-0.170,0.165
3.189,-0.185,0.175
3.192,-0.190,0.160
3.194,-0.180,0.180
3.197,-0.190,0.185
3.200,-0.195,0.200
3.203,-0.195,0.215
3.206,-0.210,0.215
3.208,-0.205,0.200
3.211,-0.190,0.195
3.214,-0.170,0.160
3.217,-0.160,0.155
3.219,-0.155,0.145
3.222,-0.150,0.140
3.225,-0.170,0.155
3.228,-0.195,0.170
3.231,-0.200,0.200
3.233,-0.220,0.210
3.236,-0.205,0.215
3.239,-0.190,0.205
3.242,-0.160,0.175
3.244,-0.125,0.155
3.247,-0.100,0.145
3.250,-0.085,0.140
3.253,-0.095,0.150
3.256,-0.125,0.165
3.258,-0.155,0.185
3.261,-0.165,0.185
3.264,-0.165,0.180
3.267,-0.175,0.205
3.269,-0.150,0.185
3.272,-0.140,0.175
3.275,-0.130,0.165
3.278,-0.105,0.150
3.281,-0.120,0.150
3.283,-0.120,0.155
3.286,-0.145,0.160
3.289,-0.160,0.165
3.292,-0.185,0.180
3.294,-0.200,0.180
3.297,-0.185,0.195
3.300,-0.190,0.200
3.303,-0.190,0.200
3.306,-0.180,0.190
3.308,-0.160,0.180
3.311,-0.135,0.155
3.314,-0.140,0.155
3.317,-0.130,0.145
3.319,-0.145,0.155
3.322,-0.170,0.165
3.325,-0.210,0.170
3.328,-0.220,0.180
3.331,-0.190,0.195
3.333,-0.175,0.185
3.336,-0.155,0.175
3.339,-0.145,0.165
3.342,-0.155,0.180
3.344,-0.165,0.170
3.347,-0.160,0.175
3.350,-0.170,0.160
3.353,-0.175,0.165
3.356,-0.165,0.145
3.358,-0.150,0.145
3.361,-0.145,0.155
3.364,-0.155,0.160
3.367,-0.170,0.175
3.369,-0.200,0.200
3.372,-0.220,0.200
3.375,-0.250,0.205
3.378,-0.250,0.205
3.381,-0.260,0.180
3.383,-0.250,0.175
3.386,-0.230,0.165
3.389,-0.205,0.150
3.392,-0.180,0.150
3.394,-0.155,0.150
3.397,-0.125,0.130
3.400,-0.100,0.135
3.403,-0.095,0.140
3.406,-0.110,0.155
3.408,-0.165,0.175
3.411,-0.215,0.185
3.414,-0.250,0.195
3.417,-0.270,0.195
3.419,-0.275,0.180
3.422,-0.250,0.190
3.425,-0.235,0.170
3.428,-0.205,0.170
3.431,-0.190,0.160
3.433,-0.185,0.160
3.436,-0.185,0.175
3.439,-0.185,0.170
3.442,-0.195,0.170
3.444,-0.205,0.165
3.447,-0.200,0.150
3.450,-0.185,0.135
3.453,-0.180,0.125
3.456,-0.155,0.115
3.458,-0.105,0.095
3.461,-0.045,0.075
3.464,-0.005,0.090
3.467,-0.045,0.125
3.469,-0.150,0.185
3.472,-0.265,0.240
3.475,-0.375,0.275
3.478,-0.410,0.250
3.481,-0.375,0.210
3.483,-0.320,0.185
3.486,-0.250,0.150
3.489,-0.205,0.150
3.492,-0.170,0.145
3.494,-0.170,0.150
3.497,-0.165,0.155
3.500,-0.170,0.170
3.503,-0.160,0.165
3.506,-0.165,0.160
3.508,-0.140,0.140
3.511,-0.120,0.120
3.514,-0.090,0.105
3.517,-0.095,0.085
3.519,-0.095,0.095
3.522,-0.125,0.115
3.525,-0.170,0.150
3.528,-0.235,0.185
3.531,-0.310,0.225
3.533,-0.340,0.250
3.536,-0.340,0.250
3.539,-0.305,0.220
3.542,-0.255,0.205
3.544,-0.205,0.175
3.547,-0.165,0.155
3.550,-0.145,0.140
3.553,-0.140,0.145
3.556,-0.150,0.140
3.558,-0.165,0.140
3.561,-0.165,0.160
3.564,-0.160,0.155
3.567,-0.165,0.175
3.569,-0.165,0.185
3.572,-0.170,0.185
3.575,-0.195,0.185
3.578,-0.210,0.180
3.581,-0.220,0.165
3.583,-0.220,0.155
3.586,-0.210,0.155
3.589,-0.200,0.140
3.592,-0.195,0.145
3.594,-0.180,0.155
3.597,-0.175,0.155
3.600,-0.170,0.165
3.603,-0.160,0.165
3.606,-0.160,0.170
3.608,-0.170,0.170
3.611,-0.175,0.165
3.614,-0.190,0.165
3.617,-0.200,0.150
3.619,-0.210,0.145
3.622,-0.215,0.140
3.625,-0.215,0.145
3.628,-0.205,0.160
3.631,-0.200,0.180
3.633,-0.205,0.195
3.636,-0.205,0.205
3.639,-0.210,0.220
3.642,-0.215,0.205
3.644,-0.210,0.200
3.647,-0.200,0.200
3.650,-0.190,0.180
3.653,-0.180,0.165
3.656,-0.160,0.145
3.658,-0.150,0.150
3.661,-0.135,0.145
3.664,-0.140,0.165
3.667,-0.165,0.180
3.669,-0.200,0.200
3.672,-0.250,0.210
3.675,-0.265,0.215
3.678,-0.280,0.210
3.681,-0.265,0.195
3.683,-0.245,0.165
3.686,-0.230,0.165
3.689,-0.200,0.150
3.692,-0.195,0.150
3.694,-0.195,0.160
3.697,-0.195,0.170
3.700,-0.195,0.175
3.703,-0.185,0.185
3.706,-0.175,0.185
3.708,-0.170,0.185
3.711,-0.155,0.175
3.714,-0.155,0.155
3.717,-0.155,0.165
3.719,-0.185,0.160
3.722,-0.200,0.160
3.725,-0.200,0.160
3.728,-0.195,0.170
3.731,-0.170,0.175
3.733,-0.145,0.185
3.736,-0.115,0.155
3.739,-0.120,0.155
3.742,-0.130,0.165
3.744,-0.145,0.155
3.747,-0.160,0.160
3.750,-0.180,0.175
3.753,-0.225,0.185
3.756,-0.270,0.200
3.758,-0.295,0.220
3.761,-0.290,0.225
3.764,-0.285,0.220
3.767,-0.230,0.220
3.769,-0.195,0.210
3.772,-0.175,0.200
3.775,-0.170,0.210
3.778,-0.175,0.185
3.781,-0.200,0.195
3.783,-0.215,0.185
3.786,-0.245,0.190
3.789,-0.240,0.175
3.792,-0.210,0.175
3.794,-0.190,0.175
3.797,-0.155,0.170
3.800,-0.130,0.155
3.803,-0.120,0.175
3.806,-0.135,0.170
3.808,-0.160,0.175
3.811,-0.195,0.190
3.814,-0.215,0.180
3.817,-0.240,0.160
3.819,-0.240,0.140
3.822,-0.225,0.150
3.825,-0.205,0.140
3.828,-0.190,0.145
3.831,-0.200,0.180
3.833,-0.210,0.175
3.836,-0.200,0.180
3.839,-0.210,0.175
3.842,-0.220,0.170
3.844,-0.230,0.160
3.847,-0.235,0.155
3.850,-0.235,0.160
3.853,-0.245,0.145
3.856,-0.210,0.130
3.858,-0.190,0.120
3.861,-0.165,0.125
3.864,-0.150,0.125
3.867,-0.150,0.145
3.869,-0.160,0.150
3.872,-0.170,0.145
3.875,-0.175,0.160
3.878,-0.190,0.160
3.881,-0.215,0.170
3.883,-0.245,0.160
3.886,-0.255,0.150
3.889,-0.260,0.140
3.892,-0.255,0.140
3.894,-0.240,0.140
3.897,-0.215,0.150
3.900,-0.195,0.140
3.903,-0.185,0.135
3.906,-0.165,0.145
3.908,-0.175,0.130
3.911,-0.205,0.155
3.914,-0.260,0.160
3.917,-0.285,0.155
3.919,-0.300,0.165
3.922,-0.310,0.150
3.925,-0.305,0.150
3.928,-0.265,0.135
3.931,-0.235,0.130
3.933,-0.195,0.130
3.936,-0.180,0.120
3.939,-0.180,0.125
3.942,-0.210,0.125
3.944,-0.240,0.120
3.947,-0.265,0.115
3.950,-0.280,0.110
3.953,-0.265,0.100
3.956,-0.255,0.090
3.958,-0.225,0.095
3.961,-0.215,0.105
3.964,-0.195,0.105
3.967,-0.190,0.115
3.969,-0.175,0.110
3.972,-0.195,0.120
3.975,-0.210,0.130
3.978,-0.215,0.120
3.981,-0.235,0.120
3.983,-0.230,0.110
3.986,-0.235,0.105
3.989,-0.240,0.105
3.992,-0.250,0.115
3.994,-0.260,0.115
3.997,-0.255,0.135
4.000,-0.255,0.135
4.003,-0.245,0.145
4.006,-0.245,0.130
4.008,-0.250,0.130
4.011,-0.240,0.105
4.014,-0.225,0.100
4.017,-0.215,0.085
4.019,-0.215,0.090
4.022,-0.220,0.095
4.025,-0.225,0.110
4.028,-0.235,0.120
4.031,-0.240,0.120
4.033,-0.235,0.120
4.036,-0.220,0.115
4.039,-0.210,0.115
4.042,-0.220,0.110
4.044,-0.210,0.095
4.047,-0.225,0.090
4.050,-0.225,0.100
4.053,-0.255,0.100
4.056,-0.260,0.105
4.058,-0.250,0.110
4.061,-0.240,0.100
4.064,-0.200,0.100
4.067,-0.175,0.105
4.069,-0.160,0.115
4.072,-0.185,0.120
4.075,-0.220,0.130
4.078,-0.235,0.125
4.081,-0.255,0.135
4.083,-0.285,0.125
4.086,-0.305,0.130
4.089,-0.295,0.130
4.092,-0.270,0.110
4.094,-0.250,0.110
4.097,-0.220,0.120
4.100,-0.210,0.120
4.103,-0.200,0.130
4.106,-0.220,0.130
4.108,-0.225,0.130
4.111,-0.230,0.125
4.114,-0.220,0.110
4.117,-0.220,0.100
4.119,-0.230,0.100
4.122,-0.245,0.120
4.125,-0.240,0.105
4.128,-0.230,0.110
4.131,-0.225,0.120
4.133,-0.210,0.135
4.136,-0.215,0.135
4.139,-0.240,0.150
4.142,-0.255,0.155
4.144,-0.260,0.140
4.147,-0.260,0.125
4.150,-0.250,0.115
4.153,-0.245,0.115
4.156,-0.250,0.130
4.158,-0.265,0.150
4.161,-0.285,0.150
4.164,-0.270,0.145
4.167,-0.250,0.150
4.169,-0.220,0.140
4.172,-0.195,0.135
4.175,-0.185,0.120
4.178,-0.180,0.105
4.181,-0.205,0.115
4.183,-0.210,0.115
4.186,-0.225,0.115
4.189,-0.240,0.125
4.192,-0.250,0.130
4.194,-0.260,0.130
4.197,-0.250,0.125
4.200,-0.230,0.140
4.203,-0.205,0.140
4.206,-0.190,0.135
4.208,-0.200,0.150
4.211,-0.200,0.150
4.214,-0.210,0.150
4.217,-0.240,0.135
4.219,-0.255,0.135
4.222,-0.260,0.130
4.225,-0.245,0.130
4.228,-0.225,0.135
4.231,-0.220,0.135
4.233,-0.210,0.150
4.236,-0.205,0.150
4.239,-0.205,0.150
4.242,-0.210,0.125
4.244,-0.215,0.130
4.247,-0.245,0.135
4.250,-0.265,0.160
4.253,-0.280,0.140
4.256,-0.265,0.135
4.258,-0.245,0.140
4.261,-0.225,0.125
4.264,-0.205,0.135
4.267,-0.215,0.150
4.269,-0.230,0.170
4.272,-0.240,0.170
4.275,-0.235,0.165
4.278,-0.200,0.140
4.281,-0.185,0.115
4.283,-0.170,0.115
4.286,-0.175,0.110
4.289,-0.205,0.115
4.292,-0.235,0.120
4.294,-0.270,0.140
4.297,-0.270,0.160
4.300,-0.260,0.170
4.303,-0.255,0.170
4.306,-0.245,0.175
4.308,-0.225,0.155
4.311,-0.200,0.145
4.314,-0.190,0.140
4.317,-0.180,0.105
4.319,-0.190,0.105
4.322,-0.200,0.110
4.325,-0.205,0.120
4.328,-0.205,0.145
4.331,-0.205,0.140
4.333,-0.195,0.145
4.336,-0.190,0.140
4.339,-0.190,0.130
4.342,-0.205,0.130
4.344,-0.210,0.140
4.347,-0.225,0.135
4.350,-0.240,0.145
4.353,-0.245,0.135
4.356,-0.245,0.140
4.358,-0.225,0.140
4.361,-0.220,0.130
4.364,-0.190,0.145
4.367,-0.175,0.150
4.369,-0.170,0.160
4.372,-0.170,0.165
4.375,-0.190,0.165
4.378,-0.205,0.150
4.381,-0.235,0.145
4.383,-0.235,0.160
4.386,-0.235,0.155
4.389,-0.215,0.160
4.392,-0.195,0.165
4.394,-0.180,0.165
4.397,-0.155,0.175
4.400,-0.135,0.175
4.403,-0.135,0.170
4.406,-0.130,0.185
4.408,-0.140,0.195
4.411,-0.165,0.190
4.414,-0.170,0.175
4.417,-0.170,0.145
4.419,-0.165,0.125
4.422,-0.145,0.110
4.425,-0.135,0.090
4.428,-0.105,0.090
4.431,-0.100,0.085
4.433,-0.100,0.105
4.436,-0.130,0.105
4.439,-0.160,0.120
4.442,-0.200,0.125
4.444,-0.225,0.120
4.447,-0.245,0.120
4.450,-0.250,0.110
4.453,-0.240,0.110
4.456,-0.220,0.115
4.458,-0.185,0.120
4.461,-0.175,0.110
4.464,-0.145,0.105
4.467,-0.120,0.095
4.469,-0.105,0.110
4.472,-0.110,0.105
4.475,-0.135,0.125
4.478,-0.175,0.150
4.481,-0.230,0.170
4.483,-0.280,0.180
4.486,-0.325,0.180
4.489,-0.345,0.170
4.492,-0.345,0.175
4.494,-0.325,0.165
4.497,-0.300,0.150
4.500,-0.270,0.160
4.503,-0.240,0.155
4.506,-0.225,0.145
4.508,-0.205,0.135
4.511,-0.205,0.130
4.514,-0.200,0.130
4.517,-0.205,0.125
4.519,-0.220,0.130
4.522,-0.240,0.130
4.525,-0.265,0.155
4.528,-0.285,0.175
4.531,-0.285,0.185
4.533,-0.285,0.190
4.536,-0.280,0.190
4.539,-0.250,0.170
4.542,-0.235,0.165
4.544,-0.235,0.155
4.547,-0.220,0.130
4.550,-0.205,0.120
4.553,-0.160,0.085
4.556,-0.140,0.095
4.558,-0.130,0.110
4.561,-0.170,0.135
4.564,-0.225,0.175
4.567,-0.280,0.210
4.569,-0.320,0.220
4.572,-0.320,0.210
4.575,-0.320,0.205
4.578,-0.275,0.180
4.581,-0.240,0.175
4.583,-0.200,0.185
4.586,-0.160,0.185
4.589,-0.145,0.195
4.592,-0.095,0.185
4.594,-0.020,0.155
4.597,0.080,0.095
4.600,0.210,0.030
4.603,0.340,-0.050
4.606,0.440,-0.130
4.608,0.525,-0.220
4.611,0.555,-0.270
4.614,0.505,-0.330
4.617,0.355,-0.355
4.619,0.095,-0.345
4.622,-0.190,-0.275
4.625,-0.420,-0.175
4.628,-0.575,-0.030
4.631,-0.625,0.115
4.633,-0.620,0.245
4.636,-0.585,0.360
4.639,-0.540,0.420
4.642,-0.505,0.450
4.644,-0.485,0.455
4.647,-0.475,0.465
4.650,-0.505,0.480
4.653,-0.520,0.480
4.656,-0.545,0.485
4.658,-0.540,0.510
4.661,-0.525,0.540
4.664,-0.500,0.575
4.667,-0.460,0.590
4.669,-0.420,0.635
4.672,-0.395,0.640
4.675,-0.385,0.655
4.678,-0.365,0.660
4.681,-0.375,0.650
4.683,-0.395,0.645
4.686,-0.440,0.640
4.689,-0.480,0.630
4.692,-0.505,0.600
4.694,-0.510,0.575
4.697,-0.485,0.530
4.700,-0.445,0.475
4.703,-0.395,0.400
4.706,-0.340,0.330
4.708,-0.300,0.260
4.711,-0.250,0.190
4.714,-0.215,0.145
4.717,-0.195,0.105
4.719,-0.205,0.105
4.722,-0.215,0.115
4.725,-0.250,0.125
4.728,-0.280,0.150
4.731,-0.295,0.160
4.733,-0.290,0.160
4.736,-0.265,0.150
4.739,-0.230,0.130
4.742,-0.195,0.105
4.744,-0.185,0.105
4.747,-0.185,0.095
4.750,-0.210,0.095
4.753,-0.235,0.100
4.756,-0.260,0.110
4.758,-0.280,0.120
4.761,-0.300,0.150
4.764,-0.320,0.155
4.767,-0.315,0.165
4.769,-0.285,0.170
4.772,-0.260,0.140
4.775,-0.240,0.120
4.778,-0.225,0.090
4.781,-0.205,0.080
4.783,-0.190,0.065
4.786,-0.185,0.065
4.789,-0.195,0.070
4.792,-0.215,0.095
4.794,-0.245,0.115
4.797,-0.245,0.125
4.800,-0.255,0.125
4.803,-0.235,0.120
4.806,-0.195,0.115
4.808,-0.175,0.095
4.811,-0.150,0.080
4.814,-0.125,0.070
4.817,-0.135,0.045
4.819,-0.130,0.045
4.822,-0.145,0.060
4.825,-0.175,0.070
4.828,-0.190,0.085
4.831,-0.185,0.080
4.833,-0.185,0.100
4.836,-0.175,0.095
4.839,-0.160,0.080
4.842,-0.190,0.070
4.844,-0.195,0.055
4.847,-0.180,0.040
4.850,-0.165,0.010
4.853,-0.130,0.005
4.856,-0.105,-0.005
4.858,-0.095,0.000
4.861,-0.100,0.010
4.864,-0.100,0.000
4.867,-0.105,0.005
4.869,-0.090,0.005
4.872,-0.100,0.005
4.875,-0.105,0.005
4.878,-0.105,-0.010
4.881,-0.100,-0.025
4.883,-0.075,-0.040
4.886,-0.050,-0.060
4.889,-0.035,-0.065
4.892,-0.015,-0.070
4.894,0.005,-0.075
4.897,0.025,-0.095
4.900,0.020,-0.080
4.903,0.030,-0.080
4.906,0.030,-0.080
4.908,0.010,-0.075
4.911,-0.005,-0.070
4.914,-0.020,-0.080
4.917,-0.025,-0.085
4.919,-0.030,-0.070
4.922,-0.020,-0.085
4.925,0.000,-0.085
4.928,0.035,-0.095
4.931,0.070,-0.100
4.933,0.085,-0.075
4.936,0.075,-0.065
4.939,0.040,-0.035
4.942,-0.020,-0.010
4.944,-0.065,-0.005
4.947,-0.085,0.015
4.950,-0.085,0.005
4.953,-0.085,0.005
4.956,-0.070,0.005
4.958,-0.040,0.010
4.961,-0.030,0.045
4.964,-0.030,0.055
4.967,-0.040,0.065
4.969,-0.045,0.070
4.972,-0.030,0.075
4.975,-0.030,0.075
4.978,-0.045,0.080
4.981,-0.060,0.100
4.983,-0.090,0.100
4.986,-0.145,0.125
4.989,-0.165,0.145
4.992,-0.190,0.150
4.994,-0.185,0.160
4.997,-0.180,0.165
5.000,-0.175,0.180
5.003,-0.180,0.180
5.006,-0.185,0.175
5.008,-0.190,0.160
5.011,-0.180,0.150
5.014,-0.165,0.135
5.017,-0.160,0.135
5.019,-0.180,0.140
5.022,-0.210,0.155
5.025,-0.255,0.165
5.028,-0.260,0.170
5.031,-0.265,0.160
5.033,-0.255,0.140
5.036,-0.240,0.135
5.039,-0.245,0.125
5.042,-0.270,0.130
5.044,-0.275,0.125
5.047,-0.275,0.115
5.050,-0.250,0.125
5.053,-0.245,0.120
5.056,-0.250,0.125
5.058,-0.245,0.140
5.061,-0.245,0.150
5.064,-0.230,0.145
5.067,-0.220,0.145
5.069,-0.195,0.140
5.072,-0.170,0.135
5.075,-0.160,0.160
5.078,-0.150,0.150
5.081,-0.165,0.145
5.083,-0.175,0.130
5.086,-0.175,0.125
5.089,-0.175,0.135
5.092,-0.200,0.135
5.094,-0.215,0.145
5.097,-0.215,0.140
5.100,-0.205,0.160
5.103,-0.200,0.160
5.106,-0.200,0.150
5.108,-0.185,0.140
5.111,-0.175,0.125
5.114,-0.175,0.125
5.117,-0.160,0.110
5.119,-0.160,0.115
5.122,-0.155,0.125
5.125,-0.185,0.160
5.128,-0.215,0.175
5.131,-0.225,0.180
5.133,-0.215,0.180
5.136,-0.180,0.180
5.139,-0.155,0.165
5.142,-0.140,0.165
5.144,-0.135,0.175
5.147,-0.135,0.165
5.150,-0.145,0.170
5.153,-0.160,0.170
5.156,-0.180,0.180
5.158,-0.175,0.180
5.161,-0.180,0.195
5.164,-0.170,0.185
5.167,-0.170,0.195
5.169,-0.165,0.195
5.172,-0.145,0.205
5.175,-0.145,0.190
5.178,-0.170,0.195
5.181,-0.210,0.205
5.183,-0.220,0.175
5.186,-0.215,0.175
5.189,-0.205,0.185
5.192,-0.190,0.175
5.194,-0.175,0.190
5.197,-0.185,0.210
5.200,-0.195,0.215
5.203,-0.210,0.225
5.206,-0.215,0.215
5.208,-0.200,0.200
5.211,-0.185,0.200
5.214,-0.170,0.180
5.217,-0.165,0.160
5.219,-0.170,0.185
5.222,-0.190,0.190
5.225,-0.215,0.195
5.228,-0.235,0.210
5.231,-0.230,0.205
5.233,-0.210,0.205
5.236,-0.185,0.210
5.239,-0.165,0.200
5.242,-0.175,0.195
5.244,-0.180,0.190
5.247,-0.185,0.175
5.250,-0.200,0.165
5.253,-0.200,0.180
5.256,-0.200,0.195
5.258,-0.190,0.215
5.261,-0.185,0.240
5.264,-0.180,0.250
5.267,-0.160,0.275
5.269,-0.115,0.255
5.272,-0.040,0.215
5.275,0.060,0.135
5.278,0.180,0.030
5.281,0.315,-0.080
5.283,0.440,-0.180
5.286,0.530,-0.275
5.289,0.560,-0.340
5.292,0.515,-0.370
5.294,0.330,-0.355
5.297,0.065,-0.295
5.300,-0.205,-0.170
5.303,-0.405,-0.010
5.306,-0.525,0.145
5.308,-0.570,0.315
5.311,-0.555,0.440
5.314,-0.535,0.505
5.317,-0.505,0.530
5.319,-0.480,0.535
5.322,-0.450,0.540
5.325,-0.445,0.530
5.328,-0.435,0.535
5.331,-0.455,0.555
5.333,-0.490,0.600
5.336,-0.495,0.640
5.339,-0.490,0.655
5.342,-0.455,0.685
5.344,-0.420,0.685
5.347,-0.390,0.710
5.350,-0.375,0.710
5.353,-0.375,0.715
5.356,-0.405,0.710
5.358,-0.420,0.695
5.361,-0.420,0.665
5.364,-0.405,0.630
5.367,-0.405,0.570
5.369,-0.390,0.520
5.372,-0.380,0.435
5.375,-0.350,0.355
5.378,-0.325,0.295
5.381,-0.280,0.210
5.383,-0.230,0.155
5.386,-0.180,0.110
5.389,-0.135,0.090
5.392,-0.145,0.095
5.394,-0.165,0.110
5.397,-0.185,0.135
5.400,-0.200,0.145
5.403,-0.210,0.135
5.406,-0.195,0.140
5.408,-0.205,0.130
5.411,-0.205,0.115
5.414,-0.210,0.105
5.417,-0.220,0.120
5.419,-0.245,0.110
5.422,-0.235,0.115
5.425,-0.215,0.105
5.428,-0.190,0.095
5.431,-0.180,0.105
5.433,-0.175,0.105
5.436,-0.160,0.100
5.439,-0.175,0.125
5.442,-0.190,0.125
5.444,-0.200,0.120
5.447,-0.205,0.105
5.450,-0.205,0.100
5.453,-0.205,0.085
5.456,-0.200,0.075
5.458,-0.185,0.070
5.461,-0.160,0.075
5.464,-0.135,0.090
5.467,-0.120,0.090
5.469,-0.110,0.090
5.472,-0.140,0.095
5.475,-0.140,0.090
5.478,-0.155,0.090
5.481,-0.160,0.080
5.483,-0.175,0.070
5.486,-0.175,0.065
5.489,-0.185,0.075
5.492,-0.200,0.065
5.494,-0.185,0.070
5.497,-0.150,0.055
5.500,-0.125,0.045
5.503,-0.090,0.035
5.506,-0.085,0.020
5.508,-0.080,0.005
5.511,-0.095,0.010
5.514,-0.120,0.000
5.517,-0.125,0.000
5.519,-0.120,-0.025
5.522,-0.100,-0.030
5.525,-0.085,-0.040
5.528,-0.050,-0.035
5.531,-0.015,-0.065
5.533,0.020,-0.085
5.536,0.050,-0.070
5.539,0.065,-0.085
5.542,0.045,-0.085
5.544,0.015,-0.085
5.547,-0.020,-0.100
5.550,-0.050,-0.100
5.553,-0.045,-0.100
5.556,-0.040,-0.120
5.558,0.000,-0.120
5.561,0.015,-0.115
5.564,0.045,-0.105
5.567,0.045,-0.110
5.569,0.055,-0.095
5.572,0.055,-0.100
5.575,0.060,-0.115
5.578,0.055,-0.105
5.581,0.045,-0.115
5.583,0.040,-0.110
5.586,0.045,-0.100
5.589,0.050,-0.085
5.592,0.045,-0.075
5.594,0.020,-0.040
5.597,-0.005,-0.030
5.600,-0.020,0.005
5.603,-0.035,0.020
5.606,-0.045,0.030
5.608,-0.070,0.060
5.611,-0.065,0.060
5.614,-0.085,0.075
5.617,-0.105,0.095
5.619,-0.135,0.100
5.622,-0.150,0.120
5.625,-0.150,0.125
5.628,-0.145,0.145
5.631,-0.135,0.150
5.633,-0.135,0.155
5.636,-0.135,0.165
5.639,-0.130,0.160
5.642,-0.145,0.160
5.644,-0.175,0.170
5.647,-0.215,0.165
5.650,-0.255,0.175
5.653,-0.270,0.175
5.656,-0.300,0.165
5.658,-0.295,0.165
5.661,-0.280,0.175
5.664,-0.255,0.170
5.667,-0.240,0.190
5.669,-0.210,0.190
5.672,-0.185,0.180
5.675,-0.175,0.155
5.678,-0.140,0.130
5.681,-0.120,0.105
5.683,-0.085,0.090
5.686,-0.105,0.100
5.689,-0.150,0.160
5.692,-0.260,0.215
5.694,-0.365,0.255
5.697,-0.430,0.275
5.700,-0.420,0.265
5.703,-0.375,0.235
5.706,-0.305,0.200
5.708,-0.230,0.175
5.711,-0.190,0.155
5.714,-0.175,0.150
5.717,-0.180,0.145
5.719,-0.200,0.160
5.722,-0.235,0.180
5.725,-0.280,0.195
5.728,-0.275,0.200
5.731,-0.280,0.190
5.733,-0.260,0.175
5.736,-0.240,0.170
5.739,-0.235,0.160
5.742,-0.240,0.150
5.744,-0.250,0.155
5.747,-0.265,0.125
5.750,-0.280,0.105
5.753,-0.280,0.080
5.756,-0.265,0.090
5.758,-0.245,0.095
5.761,-0.240,0.120
5.764,-0.260,0.140
5.767,-0.270,0.165
5.769,-0.275,0.160
5.772,-0.265,0.135
5.775,-0.225,0.110
5.778,-0.195,0.115
5.781,-0.175,0.095
5.783,-0.195,0.115
5.786,-0.225,0.120
5.789,-0.265,0.160
5.792,-0.285,0.170
5.794,-0.285,0.170
5.797,-0.275,0.170
5.800,-0.235,0.180
5.803,-0.220,0.175
5.806,-0.210,0.155
5.808,-0.215,0.160
5.811,-0.210,0.140
5.814,-0.195,0.125
5.817,-0.190,0.110
5.819,-0.185,0.090
5.822,-0.170,0.090
5.825,-0.175,0.080
5.828,-0.195,0.100
5.831,-0.210,0.125
5.833,-0.220,0.140
5.836,-0.260,0.165
5.839,-0.285,0.175
5.842,-0.285,0.180
5.844,-0.270,0.165
5.847,-0.245,0.150
5.850,-0.225,0.150
5.853,-0.225,0.160
5.856,-0.230,0.165
5.858,-0.230,0.195
5.861,-0.215,0.200
5.864,-0.220,0.195
5.867,-0.215,0.205
5.869,-0.230,0.200
5.872,-0.245,0.210
5.875,-0.255,0.195
5.878,-0.255,0.195
5.881,-0.255,0.190
5.883,-0.240,0.175
5.886,-0.230,0.155
5.889,-0.235,0.165
5.892,-0.230,0.170
5.894,-0.220,0.190
5.897,-0.230,0.190
5.900,-0.245,0.215
5.903,-0.260,0.210
5.906,-0.270,0.215
5.908,-0.255,0.205
5.911,-0.255,0.195
5.914,-0.235,0.175
5.917,-0.220,0.170
5.919,-0.210,0.165
5.922,-0.210,0.170
5.925,-0.200,0.180
5.928,-0.220,0.180
5.931,-0.220,0.185
5.933,-0.225,0.200
5.936,-0.225,0.220
5.939,-0.250,0.230
5.942,-0.250,0.225
5.944,-0.265,0.200
5.947,-0.265,0.195
5.950,-0.255,0.180
5.953,-0.225,0.160
5.956,-0.205,0.160
5.958,-0.195,0.180
5.961,-0.190,0.200
5.964,-0.190,0.230
5.967,-0.190,0.255
5.969,-0.180,0.275
5.972,-0.165,0.280
5.975,-0.120,0.290
5.978,-0.080,0.240
5.981,-0.020,0.180
5.983,0.050,0.085
5.986,0.160,-0.035
5.989,0.250,-0.165
5.992,0.355,-0.260
5.994,0.380,-0.350
5.997,0.335,-0.390
6.000,0.195,-0.385
6.003,-0.040,-0.330
6.006,-0.290,-0.240
6.008,-0.485,-0.085
6.011,-0.590,0.080
6.014,-0.615,0.265
6.017,-0.590,0.410
6.019,-0.540,0.510
6.022,-0.500,0.560
6.025,-0.465,0.570
6.028,-0.435,0.545
6.031,-0.415,0.535
6.033,-0.400,0.525
6.036,-0.390,0.530
6.039,-0.395,0.535
6.042,-0.415,0.590
6.044,-0.440,0.625
6.047,-0.480,0.655
6.050,-0.500,0.675
6.053,-0.505,0.700
6.056,-0.515,0.710
6.058,-0.515,0.730
6.061,-0.510,0.730
6.064,-0.490,0.730
6.067,-0.465,0.710
6.069,-0.415,0.675
6.072,-0.390,0.615
6.075,-0.370,0.555
6.078,-0.350,0.495
6.081,-0.340,0.425
6.083,-0.315,0.365
6.086,-0.315,0.290
6.089,-0.310,0.235
6.092,-0.285,0.195
6.094,-0.280,0.165
6.097,-0.260,0.145
6.100,-0.265,0.135
6.103,-0.265,0.130
6.106,-0.260,0.130
6.108,-0.250,0.130
6.111,-0.240,0.115
6.114,-0.235,0.115
6.117,-0.240,0.090
6.119,-0.225,0.080
6.122,-0.210,0.070
6.125,-0.185,0.065
6.128,-0.160,0.070
6.131,-0.155,0.070
6.133,-0.160,0.085
6.136,-0.165,0.100
6.139,-0.185,0.125
6.142,-0.235,0.125
6.144,-0.285,0.145
6.147,-0.335,0.130
6.150,-0.330,0.130
6.153,-0.310,0.095
6.156,-0.285,0.090
6.158,-0.240,0.085
6.161,-0.210,0.080
6.164,-0.185,0.080
6.167,-0.170,0.085
6.169,-0.175,0.090
6.172,-0.175,0.085
6.175,-0.180,0.085
6.178,-0.185,0.070
6.181,-0.205,0.085
6.183,-0.220,0.085
6.186,-0.235,0.075
6.189,-0.250,0.085
6.192,-0.230,0.075
6.194,-0.225,0.090
6.197,-0.200,0.080
6.200,-0.185,0.070
6.203,-0.175,0.065
6.206,-0.150,0.045
6.208,-0.115,0.020
6.211,-0.090,-0.005
6.214,-0.055,-0.020
6.217,-0.065,-0.015
6.219,-0.125,0.015
6.222,-0.185,0.030
6.225,-0.230,0.035
6.228,-0.250,0.050
6.231,-0.235,0.050
6.233,-0.200,0.025
6.236,-0.145,-0.005
6.239,-0.105,-0.025
6.242,-0.065,-0.040
6.244,-0.045,-0.065
6.247,-0.055,-0.080
6.250,-0.060,-0.100
6.253,-0.030,-0.135
6.256,-0.010,-0.140
6.258,0.020,-0.140
6.261,0.025,-0.135
6.264,0.035,-0.110
6.267,0.020,-0.105
6.269,-0.020,-0.085
6.272,-0.050,-0.075
6.275,-0.075,-0.070
6.278,-0.080,-0.085
6.281,-0.070,-0.105
6.283,-0.040,-0.130
6.286,-0.020,-0.150
6.289,0.015,-0.165
6.292,0.050,-0.165
6.294,0.075,-0.150
6.297,0.075,-0.130
6.300,0.040,-0.110
6.303,0.025,-0.080
6.306,0.010,-0.080
6.308,-0.010,-0.070
6.311,-0.015,-0.045
6.314,-0.035,-0.030
6.317,-0.065,-0.025
6.319,-0.105,-0.005
6.322,-0.135,0.030
6.325,-0.130,0.025
6.328,-0.130,0.045
6.331,-0.125,0.055
6.333,-0.105,0.075
6.336,-0.095,0.095
6.339,-0.100,0.095
6.342,-0.120,0.110
6.344,-0.120,0.105
6.347,-0.125,0.110
6.350,-0.115,0.085
6.353,-0.100,0.075
6.356,-0.090,0.075
6.358,-0.095,0.110
6.361,-0.135,0.145
6.364,-0.205,0.200
6.367,-0.280,0.215
6.369,-0.325,0.225
6.372,-0.330,0.210
6.375,-0.310,0.210
6.378,-0.280,0.175
6.381,-0.250,0.160
6.383,-0.225,0.150
6.386,-0.215,0.140
6.389,-0.215,0.145
6.392,-0.200,0.150
6.394,-0.215,0.145
6.397,-0.190,0.140
6.400,-0.160,0.120
6.403,-0.110,0.130
6.406,-0.095,0.135
6.408,-0.145,0.175
6.411,-0.215,0.205
6.414,-0.325,0.240
6.417,-0.395,0.225
6.419,-0.405,0.205
6.422,-0.375,0.185
6.425,-0.310,0.180
6.428,-0.255,0.175
6.431,-0.210,0.165
6.433,-0.190,0.165
6.436,-0.180,0.165
6.439,-0.165,0.160
6.442,-0.190,0.160
6.444,-0.205,0.155
6.447,-0.210,0.145
6.450,-0.250,0.165
6.453,-0.260,0.160
6.456,-0.280,0.160
6.458,-0.275,0.155
6.461,-0.265,0.170
6.464,-0.255,0.160
6.467,-0.225,0.155
6.469,-0.195,0.160
6.472,-0.190,0.170
6.475,-0.200,0.155
6.478,-0.220,0.170
6.481,-0.215,0.155
6.483,-0.220,0.150
6.486,-0.235,0.150
6.489,-0.230,0.150
6.492,-0.210,0.155
6.494,-0.200,0.160
6.497,-0.205,0.175
6.500,-0.215,0.175
6.503,-0.215,0.185
6.506,-0.220,0.190
6.508,-0.220,0.175
6.511,-0.210,0.165
6.514,-0.215,0.145
6.517,-0.220,0.145
6.519,-0.240,0.155
6.522,-0.250,0.160
6.525,-0.250,0.165
6.528,-0.250,0.170
6.531,-0.245,0.180
6.533,-0.235,0.180
6.536,-0.225,0.170
6.539,-0.210,0.165
6.542,-0.195,0.160
6.544,-0.195,0.145
6.547,-0.195,0.150
6.550,-0.210,0.155
6.553,-0.230,0.160
6.556,-0.245,0.140
6.558,-0.255,0.150
6.561,-0.255,0.165
6.564,-0.265,0.170
6.567,-0.250,0.185
6.569,-0.245,0.185
6.572,-0.250,0.175
6.575,-0.240,0.165
6.578,-0.230,0.150
6.581,-0.215,0.145
6.583,-0.215,0.130
6.586,-0.225,0.135
6.589,-0.235,0.140
6.592,-0.240,0.145
6.594,-0.250,0.160
6.597,-0.230,0.175
6.600,-0.245,0.180
6.603,-0.235,0.170
6.606,-0.250,0.165
6.608,-0.260,0.160
6.611,-0.265,0.155
6.614,-0.245,0.145
6.617,-0.235,0.135
6.619,-0.240,0.135
6.622,-0.250,0.145
6.625,-0.245,0.145
6.628,-0.265,0.160
6.631,-0.275,0.165
6.633,-0.255,0.175
6.636,-0.235,0.160
6.639,-0.220,0.165
6.642,-0.225,0.160
6.644,-0.230,0.160
6.647,-0.245,0.165
6.650,-0.250,0.145
6.653,-0.250,0.145
6.656,-0.265,0.150
6.658,-0.285,0.150
6.661,-0.300,0.170
6.664,-0.290,0.165
6.667,-0.280,0.170
6.669,-0.245,0.170
6.672,-0.240,0.170
6.675,-0.245,0.160
6.678,-0.240,0.145
6.681,-0.245,0.145
6.683,-0.240,0.130
6.686,-0.250,0.135
6.689,-0.260,0.145
6.692,-0.260,0.145
6.694,-0.260,0.155
6.697,-0.245,0.160
6.700,-0.245,0.165
6.703,-0.250,0.160
6.706,-0.240,0.155
6.708,-0.265,0.155
6.711,-0.260,0.150
6.714,-0.255,0.130
6.717,-0.250,0.120
6.719,-0.235,0.115
6.722,-0.225,0.130
6.725,-0.235,0.130
6.728,-0.250,0.145
6.731,-0.270,0.160
6.733,-0.275,0.160
6.736,-0.265,0.155
6.739,-0.230,0.150
6.742,-0.215,0.135
6.744,-0.205,0.140
6.747,-0.220,0.140
6.750,-0.235,0.140
6.753,-0.270,0.140
6.756,-0.270,0.135
6.758,-0.260,0.130
6.761,-0.255,0.135
6.764,-0.240,0.140
6.767,-0.245,0.170
6.769,-0.250,0.185
6.772,-0.260,0.165
6.775,-0.250,0.155
6.778,-0.255,0.165
6.781,-0.250,0.165
6.783,-0.235,0.155
6.786,-0.230,0.140
6.789,-0.245,0.145
6.792,-0.240,0.160
6.794,-0.255,0.170
6.797,-0.250,0.180
6.800,-0.245,0.190
6.803,-0.240,0.180
6.806,-0.225,0.165
6.808,-0.225,0.145
6.811,-0.200,0.145
6.814,-0.210,0.145
6.817,-0.205,0.130
6.819,-0.245,0.145
6.822,-0.270,0.160
6.825,-0.295,0.165
6.828,-0.300,0.180
6.831,-0.290,0.155
6.833,-0.255,0.175
6.836,-0.235,0.170
6.839,-0.220,0.170
6.842,-0.225,0.165
6.844,-0.220,0.160
6.847,-0.240,0.150
6.850,-0.240,0.150
6.853,-0.225,0.140
6.856,-0.235,0.145
6.858,-0.240,0.145
6.861,-0.255,0.160
6.864,-0.240,0.160
6.867,-0.255,0.165
6.869,-0.250,0.170
6.872,-0.245,0.165
6.875,-0.255,0.175
6.878,-0.285,0.180
6.881,-0.300,0.170
6.883,-0.300,0.165
6.886,-0.285,0.160
6.889,-0.275,0.165
6.892,-0.255,0.145
6.894,-0.240,0.155
6.897,-0.230,0.155
6.900,-0.230,0.155
6.903,-0.240,0.170
6.906,-0.250,0.170
6.908,-0.260,0.180
6.911,-0.250,0.175
6.914,-0.250,0.160
6.917,-0.245,0.140
6.919,-0.250,0.125
6.922,-0.250,0.130
6.925,-0.240,0.130
6.928,-0.240,0.145
6.931,-0.235,0.150
6.933,-0.245,0.170
6.936,-0.250,0.180
6.939,-0.250,0.175
6.942,-0.255,0.170
6.944,-0.250,0.150
6.947,-0.230,0.150
6.950,-0.215,0.120
6.953,-0.210,0.135
6.956,-0.230,0.145
6.958,-0.260,0.165
6.961,-0.275,0.165
6.964,-0.295,0.165
6.967,-0.285,0.185
6.969,-0.265,0.170
6.972,-0.255,0.165
6.975,-0.240,0.160
6.978,-0.230,0.150
6.981,-0.240,0.160
6.983,-0.250,0.145
6.986,-0.270,0.155
6.989,-0.285,0.160
6.992,-0.285,0.145
6.994,-0.280,0.155
6.997,-0.260,0.150
7.000,-0.240,0.160
7.003,-0.200,0.160
7.006,-0.190,0.140
7.008,-0.200,0.155
7.011,-0.220,0.155
7.014,-0.245,0.150
7.017,-0.270,0.130
7.019,-0.270,0.140
7.022,-0.265,0.150
7.025,-0.255,0.150
7.028,-0.255,0.170
7.031,-0.285,0.180
7.033,-0.280,0.190
7.036,-0.270,0.170
7.039,-0.250,0.170
7.042,-0.225,0.150
7.044,-0.210,0.130
7.047,-0.190,0.125
7.050,-0.190,0.125
7.053,-0.215,0.140
7.056,-0.260,0.145
7.058,-0.280,0.140
7.061,-0.290,0.150
7.064,-0.295,0.155
7.067,-0.295,0.175
7.069,-0.270,0.160
7.072,-0.255,0.165
7.075,-0.265,0.175
7.078,-0.265,0.170
7.081,-0.270,0.160
7.083,-0.295,0.150
7.086,-0.290,0.140
7.089,-0.285,0.140
7.092,-0.275,0.125
7.094,-0.255,0.125
7.097,-0.215,0.130
7.100,-0.190,0.120
7.103,-0.160,0.120
7.106,-0.155,0.125
7.108,-0.175,0.125
7.111,-0.185,0.130
7.114,-0.220,0.135
7.117,-0.250,0.155
7.119,-0.285,0.165
7.122,-0.305,0.170
7.125,-0.310,0.175
7.128,-0.320,0.175
7.131,-0.305,0.170
7.133,-0.275,0.170
7.136,-0.260,0.165
7.139,-0.240,0.150
7.142,-0.240,0.145
7.144,-0.230,0.145
7.147,-0.245,0.135
7.150,-0.235,0.120
7.153,-0.220,0.110
7.156,-0.205,0.090
7.158,-0.180,0.105
7.161,-0.180,0.110
7.164,-0.165,0.145
7.167,-0.205,0.160
7.169,-0.235,0.180
7.172,-0.260,0.180
7.175,-0.280,0.175
7.178,-0.285,0.175
7.181,-0.295,0.150
7.183,-0.270,0.140
7.186,-0.270,0.130
7.189,-0.255,0.115
7.192,-0.240,0.105
7.194,-0.235,0.125
7.197,-0.205,0.140
7.200,-0.205,0.145
7.203,-0.205,0.160
7.206,-0.220,0.155
7.208,-0.225,0.155
7.211,-0.240,0.150
7.214,-0.250,0.140
7.217,-0.240,0.125
7.219,-0.245,0.110
7.222,-0.230,0.130
7.225,-0.225,0.125
7.228,-0.220,0.140
7.231,-0.230,0.145
7.233,-0.245,0.160
7.236,-0.255,0.155
7.239,-0.260,0.150
7.242,-0.245,0.160
7.244,-0.235,0.140
7.247,-0.225,0.130
7.250,-0.225,0.125
7.253,-0.225,0.130
7.256,-0.210,0.130
7.258,-0.225,0.130
7.261,-0.235,0.135
7.264,-0.235,0.155
7.267,-0.235,0.150
7.269,-0.240,0.170
7.272,-0.250,0.165
7.275,-0.240,0.150
7.278,-0.240,0.135
7.281,-0.220,0.130
7.283,-0.220,0.115
7.286,-0.260,0.125
7.289,-0.275,0.130
7.292,-0.295,0.140
7.294,-0.305,0.155
7.297,-0.310,0.160
7.300,-0.275,0.160
7.303,-0.245,0.145
7.306,-0.230,0.135
7.308,-0.200,0.125
7.311,-0.185,0.115
7.314,-0.190,0.120
7.317,-0.185,0.125
7.319,-0.185,0.115
7.322,-0.210,0.120
7.325,-0.200,0.115
7.328,-0.190,0.120
7.331,-0.195,0.135
7.333,-0.200,0.150
7.336,-0.215,0.175
7.339,-0.260,0.180
7.342,-0.285,0.195
7.344,-0.290,0.190
7.347,-0.290,0.165
7.350,-0.270,0.140
7.353,-0.255,0.140
7.356,-0.240,0.130
7.358,-0.235,0.140
7.361,-0.235,0.155
7.364,-0.245,0.160
7.367,-0.240,0.150
7.369,-0.225,0.155
7.372,-0.210,0.150
7.375,-0.220,0.150
7.378,-0.215,0.140
7.381,-0.215,0.125
7.383,-0.220,0.140
7.386,-0.220,0.140
7.389,-0.230,0.135
7.392,-0.235,0.135
7.394,-0.230,0.130
7.397,-0.215,0.140
7.400,-0.220,0.145
7.403,-0.200,0.155
7.406,-0.215,0.155
7.408,-0.220,0.155
7.411,-0.225,0.155
7.414,-0.245,0.135
7.417,-0.235,0.115
7.419,-0.215,0.105
7.422,-0.190,0.100
7.425,-0.185,0.100
7.428,-0.190,0.130
7.431,-0.220,0.155
7.433,-0.235,0.165
7.436,-0.255,0.170
7.439,-0.245,0.160
7.442,-0.235,0.155
7.444,-0.255,0.145
7.447,-0.255,0.140
7.450,-0.255,0.130
7.453,-0.250,0.120
7.456,-0.230,0.125
7.458,-0.220,0.115
7.461,-0.215,0.140
7.464,-0.205,0.145
7.467,-0.220,0.165
7.469,-0.240,0.175
7.472,-0.250,0.175
7.475,-0.265,0.165
7.478,-0.260,0.160
7.481,-0.225,0.130
7.483,-0.215,0.120
7.486,-0.210,0.105
7.489,-0.200,0.110
7.492,-0.210,0.130
7.494,-0.230,0.130
7.497,-0.240,0.160
7.500,-0.250,0.165
7.503,-0.255,0.170
7.506,-0.235,0.160
7.508,-0.225,0.140
7.511,-0.205,0.120
7.514,-0.205,0.130
7.517,-0.225,0.125
7.519,-0.220,0.120
7.522,-0.225,0.125
7.525,-0.215,0.120
7.528,-0.225,0.130
7.531,-0.220,0.125
7.533,-0.225,0.150
7.536,-0.230,0.155
7.539,-0.225,0.170
7.542,-0.245,0.160
7.544,-0.265,0.160
7.547,-0.270,0.130
7.550,-0.250,0.120
7.553,-0.235,0.135
7.556,-0.230,0.130
7.558,-0.225,0.125
7.561,-0.225,0.140
7.564,-0.235,0.150
7.567,-0.235,0.160
7.569,-0.245,0.160
7.572,-0.245,0.155
7.575,-0.250,0.145
7.578,-0.225,0.145
7.581,-0.215,0.120
7.583,-0.200,0.110
7.586,-0.200,0.115
7.589,-0.190,0.130
7.592,-0.220,0.120
7.594,-0.245,0.145
7.597,-0.255,0.140
7.600,-0.250,0.140
7.603,-0.230,0.145
7.606,-0.200,0.125
7.608,-0.175,0.115
7.611,-0.160,0.110
7.614,-0.170,0.120
7.617,-0.205,0.120
7.619,-0.240,0.140
7.622,-0.265,0.145
7.625,-0.270,0.165
7.628,-0.265,0.155
7.631,-0.240,0.155
7.633,-0.220,0.180
7.636,-0.200,0.170
7.639,-0.180,0.155
7.642,-0.160,0.160
7.644,-0.145,0.150
7.647,-0.155,0.140
7.650,-0.120,0.120
7.653,-0.105,0.110
7.656,-0.120,0.120
7.658,-0.145,0.150
7.661,-0.185,0.155
7.664,-0.205,0.170
7.667,-0.200,0.170
7.669,-0.200,0.160
7.672,-0.180,0.150
7.675,-0.165,0.135
7.678,-0.175,0.130
7.681,-0.170,0.115
7.683,-0.175,0.130
7.686,-0.170,0.105
7.689,-0.180,0.085
7.692,-0.195,0.100
7.694,-0.195,0.095
7.697,-0.190,0.110
7.700,-0.180,0.095
7.703,-0.180,0.110
7.706,-0.180,0.100
7.708,-0.175,0.105
7.711,-0.190,0.095
7.714,-0.200,0.085
7.717,-0.200,0.095
7.719,-0.205,0.105
7.722,-0.210,0.105
7.725,-0.210,0.105
7.728,-0.190,0.135
7.731,-0.200,0.140
7.733,-0.210,0.155
7.736,-0.205,0.160
7.739,-0.220,0.155
7.742,-0.240,0.155
7.744,-0.245,0.145
7.747,-0.260,0.140
7.750,-0.265,0.120
7.753,-0.280,0.130
7.756,-0.290,0.130
7.758,-0.270,0.130
7.761,-0.250,0.145
7.764,-0.240,0.155
7.767,-0.230,0.160
7.769,-0.230,0.165
7.772,-0.235,0.165
7.775,-0.245,0.160
7.778,-0.260,0.175
7.781,-0.260,0.165
7.783,-0.260,0.150
7.786,-0.245,0.135
7.789,-0.245,0.125
7.792,-0.215,0.135
7.794,-0.210,0.140
7.797,-0.210,0.155
7.800,-0.215,0.165
7.803,-0.230,0.170
7.806,-0.235,0.160
7.808,-0.230,0.160
7.811,-0.220,0.145
7.814,-0.210,0.135
7.817,-0.200,0.125
7.819,-0.220,0.135
7.822,-0.235,0.150
7.825,-0.255,0.160
7.828,-0.250,0.195
7.831,-0.240,0.210
7.833,-0.220,0.235
7.836,-0.195,0.255
7.839,-0.170,0.250
7.842,-0.160,0.240
7.844,-0.115,0.195
7.847,-0.075,0.085
7.850,-0.015,-0.015
7.853,0.075,-0.135
7.856,0.165,-0.265
7.858,0.260,-0.385
7.861,0.290,-0.465
7.864,0.240,-0.505
7.867,0.090,-0.475
7.869,-0.115,-0.390
7.872,-0.310,-0.240
7.875,-0.455,-0.040
7.878,-0.525,0.155
7.881,-0.545,0.310
7.883,-0.535,0.425
7.886,-0.520,0.490
7.889,-0.485,0.505
7.892,-0.460,0.505
7.894,-0.440,0.505
7.897,-0.430,0.515
7.900,-0.445,0.550
7.903,-0.460,0.565
7.906,-0.475,0.600
7.908,-0.470,0.615
7.911,-0.455,0.640
7.914,-0.435,0.650
7.917,-0.430,0.685
7.919,-0.430,0.710
7.922,-0.450,0.715
7.925,-0.440,0.730
7.928,-0.440,0.735
7.931,-0.435,0.730
7.933,-0.425,0.710
7.936,-0.410,0.685
7.939,-0.415,0.635
7.942,-0.425,0.575
7.944,-0.415,0.510
7.947,-0.395,0.430
7.950,-0.380,0.350
7.953,-0.360,0.305
7.956,-0.330,0.250
7.958,-0.305,0.195
7.961,-0.280,0.155
7.964,-0.245,0.140
7.967,-0.220,0.130
7.969,-0.200,0.125
7.972,-0.205,0.130
7.975,-0.225,0.140
7.978,-0.240,0.135
7.981,-0.255,0.115
7.983,-0.245,0.090
7.986,-0.240,0.080
7.989,-0.225,0.075
7.992,-0.215,0.090
7.994,-0.225,0.095
7.997,-0.240,0.120
8.000,-0.245,0.130
8.003,-0.260,0.140
8.006,-0.280,0.125
8.008,-0.275,0.120
8.011,-0.275,0.120
8.014,-0.260,0.090
8.017,-0.250,0.085
8.019,-0.235,0.080
8.022,-0.225,0.070
8.025,-0.205,0.080
8.028,-0.200,0.080
8.031,-0.195,0.095
8.033,-0.195,0.105
8.036,-0.195,0.095
8.039,-0.195,0.095
8.042,-0.205,0.100
8.044,-0.220,0.090
8.047,-0.225,0.075
8.050,-0.215,0.055
8.053,-0.205,0.035
8.056,-0.180,0.020
8.058,-0.165,0.030
8.061,-0.175,0.050
8.064,-0.200,0.085
8.067,-0.235,0.120
8.069,-0.265,0.110
8.072,-0.250,0.080
8.075,-0.230,0.060
8.078,-0.200,0.030
8.081,-0.175,0.030
8.083,-0.155,0.010
8.086,-0.150,-0.010
8.089,-0.155,-0.025
8.092,-0.135,-0.020
8.094,-0.120,-0.020
8.097,-0.100,-0.020
8.100,-0.100,-0.015
8.103,-0.105,0.000
8.106,-0.125,0.000
8.108,-0.150,-0.020
8.111,-0.135,-0.025
8.114,-0.120,-0.055
8.117,-0.085,-0.070
8.119,-0.070,-0.100
8.122,-0.055,-0.105
8.125,-0.040,-0.110
8.128,-0.050,-0.100
8.131,-0.040,-0.095
8.133,-0.045,-0.090
8.136,-0.035,-0.090
8.139,-0.025,-0.090
8.142,-0.025,-0.105
8.144,-0.030,-0.125
8.147,-0.035,-0.140
8.150,-0.045,-0.140
8.153,-0.045,-0.125
8.156,-0.065,-0.120
8.158,-0.060,-0.100
8.161,-0.060,-0.100
8.164,-0.065,-0.105
8.167,-0.040,-0.095
8.169,-0.010,-0.095
8.172,0.015,-0.105
8.175,0.030,-0.100
8.178,0.040,-0.090
8.181,0.010,-0.060
8.183,-0.015,-0.050
8.186,-0.050,-0.030
8.189,-0.080,-0.015
8.192,-0.085,-0.015
8.194,-0.090,-0.005
8.197,-0.070,0.000
8.200,-0.055,0.015
8.203,-0.050,0.040
8.206,-0.050,0.060
8.208,-0.080,0.075
8.211,-0.080,0.080
8.214,-0.080,0.060
8.217,-0.055,0.065
8.219,-0.060,0.090
8.222,-0.080,0.090
8.225,-0.110,0.115
8.228,-0.140,0.120
8.231,-0.145,0.150
8.233,-0.135,0.145
8.236,-0.125,0.155
8.239,-0.120,0.160
8.242,-0.135,0.160
8.244,-0.140,0.165
8.247,-0.185,0.165
8.250,-0.215,0.160
8.253,-0.235,0.145
8.256,-0.245,0.140
8.258,-0.245,0.140
8.261,-0.235,0.130
8.264,-0.240,0.130
8.267,-0.250,0.130
8.269,-0.260,0.125
8.272,-0.245,0.120
8.275,-0.230,0.110
8.278,-0.200,0.110
8.281,-0.200,0.115
8.283,-0.230,0.125
8.286,-0.265,0.120
8.289,-0.285,0.135
8.292,-0.290,0.125
8.294,-0.275,0.130
8.297,-0.255,0.130
8.300,-0.220,0.125
8.303,-0.190,0.140
8.306,-0.170,0.130
8.308,-0.160,0.140
8.311,-0.145,0.145
8.314,-0.150,0.135
8.317,-0.160,0.135
8.319,-0.165,0.125
8.322,-0.175,0.115
8.325,-0.155,0.120
8.328,-0.155,0.120
8.331,-0.145,0.125
8.333,-0.150,0.135
8.336,-0.145,0.135
8.339,-0.150,0.135
8.342,-0.150,0.135
8.344,-0.155,0.125
8.347,-0.170,0.115
8.350,-0.170,0.110
8.353,-0.190,0.110
8.356,-0.210,0.125
8.358,-0.220,0.135
8.361,-0.230,0.135
8.364,-0.200,0.140
8.367,-0.185,0.160
8.369,-0.160,0.170
8.372,-0.160,0.180
8.375,-0.175,0.190
8.378,-0.195,0.200
8.381,-0.195,0.205
8.383,-0.185,0.190
8.386,-0.190,0.185
8.389,-0.175,0.185
8.392,-0.175,0.185
8.394,-0.180,0.185
8.397,-0.185,0.185
8.400,-0.185,0.195
8.403,-0.175,0.200
8.406,-0.180,0.200
8.408,-0.170,0.170
8.411,-0.150,0.160
8.414,-0.145,0.150
8.417,-0.145,0.155
8.419,-0.155,0.155
8.422,-0.185,0.175
8.425,-0.210,0.190
8.428,-0.200,0.195
8.431,-0.190,0.200
8.433,-0.175,0.195
8.436,-0.155,0.195
8.439,-0.140,0.180
8.442,-0.140,0.170
8.444,-0.140,0.170
8.447,-0.160,0.170
8.450,-0.190,0.170
8.453,-0.225,0.185
8.456,-0.245,0.205
8.458,-0.250,0.205
8.461,-0.235,0.195
8.464,-0.220,0.200
8.467,-0.205,0.200
8.469,-0.180,0.200
8.472,-0.145,0.190
8.475,-0.155,0.190
8.478,-0.150,0.180
8.481,-0.165,0.180
8.483,-0.175,0.185
8.486,-0.190,0.215
8.489,-0.190,0.245
8.492,-0.215,0.270
8.494,-0.195,0.295
8.497,-0.170,0.300
8.500,-0.145,0.275
8.503,-0.105,0.220
8.506,-0.040,0.100
8.508,0.015,-0.030
8.511,0.095,-0.180
8.514,0.185,-0.310
8.517,0.245,-0.415
8.519,0.280,-0.500
8.522,0.225,-0.515
8.525,0.115,-0.510
8.528,-0.055,-0.445
8.531,-0.220,-0.335
8.533,-0.360,-0.175
8.536,-0.440,0.015
8.539,-0.465,0.220
8.542,-0.495,0.395
8.544,-0.480,0.525
8.547,-0.460,0.580
8.550,-0.420,0.590
8.553,-0.385,0.580
8.556,-0.365,0.545
8.558,-0.360,0.560
8.561,-0.375,0.565
8.564,-0.405,0.600
8.567,-0.440,0.640
8.569,-0.450,0.680
8.572,-0.425,0.715
8.575,-0.400,0.745
8.578,-0.365,0.755
8.581,-0.375,0.780
8.583,-0.390,0.795
8.586,-0.420,0.785
8.589,-0.435,0.775
8.592,-0.425,0.760
8.594,-0.420,0.720
8.597,-0.410,0.675
8.600,-0.370,0.600
8.603,-0.325,0.540
8.606,-0.305,0.470
8.608,-0.290,0.395
8.611,-0.280,0.340
8.614,-0.280,0.280
8.617,-0.295,0.235
8.619,-0.305,0.190
8.622,-0.310,0.150
8.625,-0.285,0.140
8.628,-0.250,0.130
8.631,-0.210,0.120
8.633,-0.190,0.110
8.636,-0.160,0.110
8.639,-0.160,0.105
8.642,-0.165,0.115
8.644,-0.185,0.120
8.647,-0.215,0.110
8.650,-0.225,0.105
8.653,-0.250,0.090
8.656,-0.250,0.095
8.658,-0.240,0.090
8.661,-0.235,0.095
8.664,-0.220,0.100
8.667,-0.215,0.120
8.669,-0.200,0.105
8.672,-0.200,0.105
8.675,-0.195,0.100
8.678,-0.185,0.095
8.681,-0.180,0.075
8.683,-0.180,0.060
8.686,-0.175,0.045
8.689,-0.190,0.040
8.692,-0.170,0.040
8.694,-0.160,0.060
8.697,-0.170,0.080
8.700,-0.190,0.095
8.703,-0.210,0.110
8.706,-0.215,0.095
8.708,-0.235,0.090
8.711,-0.220,0.060
8.714,-0.200,0.045
8.717,-0.185,0.030
8.719,-0.175,0.025
8.722,-0.175,0.025
8.725,-0.185,0.035
8.728,-0.190,0.035
8.731,-0.190,0.045
8.733,-0.185,0.050
8.736,-0.185,0.045
8.739,-0.160,0.010
8.742,-0.145,0.005
8.744,-0.130,-0.005
8.747,-0.135,-0.010
8.750,-0.135,-0.025
8.753,-0.130,-0.030
8.756,-0.130,-0.050
8.758,-0.125,-0.060
8.761,-0.115,-0.070
8.764,-0.100,-0.080
8.767,-0.080,-0.075
8.769,-0.080,-0.085
8.772,-0.070,-0.100
8.775,-0.070,-0.105
8.778,-0.055,-0.110
8.781,-0.065,-0.130
8.783,-0.060,-0.130
8.786,-0.060,-0.135
8.789,-0.060,-0.155
8.792,-0.055,-0.165
8.794,-0.030,-0.165
8.797,-0.015,-0.165
8.800,0.015,-0.170
8.803,0.020,-0.160
8.806,0.030,-0.160
8.808,0.010,-0.155
8.811,-0.025,-0.145
8.814,-0.040,-0.140
8.817,-0.055,-0.150
8.819,-0.060,-0.125
8.822,-0.065,-0.120
8.825,-0.055,-0.100
8.828,-0.060,-0.095
8.831,-0.035,-0.075
8.833,-0.035,-0.045
8.836,-0.030,-0.025
8.839,-0.040,-0.020
8.842,-0.040,0.000
8.844,-0.055,0.005
8.847,-0.095,0.020
8.850,-0.115,0.030
8.853,-0.130,0.035
8.856,-0.140,0.050
8.858,-0.140,0.065
8.861,-0.130,0.095
8.864,-0.135,0.120
8.867,-0.145,0.140
8.869,-0.135,0.145
8.872,-0.140,0.155
8.875,-0.170,0.155
8.878,-0.165,0.155
8.881,-0.175,0.160
8.883,-0.190,0.160
8.886,-0.200,0.165
8.889,-0.210,0.170
8.892,-0.220,0.170
8.894,-0.230,0.170
8.897,-0.230,0.170
8.900,-0.210,0.175
8.903,-0.190,0.185
8.906,-0.200,0.185
8.908,-0.225,0.205
8.911,-0.250,0.210
8.914,-0.270,0.225
8.917,-0.285,0.205
8.919,-0.265,0.185
8.922,-0.250,0.160
8.925,-0.215,0.150
8.928,-0.195,0.145
8.931,-0.180,0.150
8.933,-0.145,0.165
8.936,-0.145,0.165
8.939,-0.140,0.150
8.942,-0.140,0.170
8.944,-0.160,0.170
8.947,-0.210,0.175
8.950,-0.240,0.190
8.953,-0.285,0.190
8.956,-0.290,0.190
8.958,-0.275,0.180
8.961,-0.255,0.185
8.964,-0.235,0.185
8.967,-0.200,0.185
8.969,-0.185,0.175
8.972,-0.155,0.170
8.975,-0.150,0.160
8.978,-0.140,0.150
8.981,-0.145,0.135
8.983,-0.180,0.150
8.986,-0.225,0.170
8.989,-0.245,0.180
8.992,-0.275,0.185
8.994,-0.260,0.180
8.997,-0.240,0.160
9.000,-0.225,0.165
9.003,-0.205,0.180
9.006,-0.190,0.180
9.008,-0.185,0.165
9.011,-0.205,0.160
9.014,-0.180,0.150
9.017,-0.180,0.145
9.019,-0.190,0.145
9.022,-0.195,0.145
9.025,-0.205,0.155
9.028,-0.205,0.155
9.031,-0.210,0.160
9.033,-0.200,0.170
9.036,-0.185,0.180
9.039,-0.185,0.180
9.042,-0.215,0.180
9.044,-0.220,0.165
9.047,-0.225,0.170
9.050,-0.225,0.150
9.053,-0.230,0.150
9.056,-0.245,0.155
9.058,-0.240,0.160
9.061,-0.235,0.165
9.064,-0.220,0.170
9.067,-0.200,0.175
9.069,-0.195,0.185
9.072,-0.215,0.190
9.075,-0.235,0.195
9.078,-0.240,0.190
9.081,-0.250,0.170
9.083,-0.245,0.140
9.086,-0.230,0.145
9.089,-0.235,0.155
9.092,-0.225,0.155
9.094,-0.245,0.160
9.097,-0.230,0.180
9.100,-0.230,0.175
9.103,-0.230,0.180
9.106,-0.230,0.175
9.108,-0.235,0.175
9.111,-0.235,0.175
9.114,-0.245,0.170
9.117,-0.250,0.155
9.119,-0.260,0.160
9.122,-0.255,0.155
9.125,-0.260,0.165
9.128,-0.240,0.160
9.131,-0.225,0.160
9.133,-0.205,0.170
9.136,-0.205,0.170
9.139,-0.210,0.170
9.142,-0.230,0.175
9.144,-0.235,0.180
9.147,-0.260,0.175
9.150,-0.275,0.165
9.153,-0.280,0.160
9.156,-0.280,0.160
9.158,-0.265,0.155
9.161,-0.235,0.160
9.164,-0.225,0.175
9.167,-0.205,0.170
9.169,-0.210,0.170
9.172,-0.200,0.155
9.175,-0.210,0.155
9.178,-0.210,0.160
9.181,-0.225,0.155
9.183,-0.250,0.150
9.186,-0.260,0.150
9.189,-0.270,0.150
9.192,-0.260,0.145
9.194,-0.255,0.160
9.197,-0.240,0.165
9.200,-0.245,0.180
9.203,-0.250,0.180
9.206,-0.250,0.175
9.208,-0.255,0.170
9.211,-0.230,0.165
9.214,-0.230,0.160
9.217,-0.225,0.150
9.219,-0.240,0.150
9.222,-0.245,0.145
9.225,-0.245,0.135
9.228,-0.235,0.155
9.231,-0.220,0.160
9.233,-0.225,0.185
9.236,-0.245,0.180
9.239,-0.255,0.185
9.242,-0.255,0.180
9.244,-0.260,0.170
9.247,-0.255,0.155
9.250,-0.255,0.140
9.253,-0.265,0.135
9.256,-0.265,0.145
9.258,-0.255,0.135
9.261,-0.245,0.140
9.264,-0.220,0.140
9.267,-0.205,0.155
9.269,-0.205,0.145
9.272,-0.225,0.160
9.275,-0.250,0.170
9.278,-0.265,0.175
9.281,-0.275,0.170
9.283,-0.280,0.150
9.286,-0.270,0.130
9.289,-0.265,0.130
9.292,-0.255,0.150
9.294,-0.250,0.150
9.297,-0.260,0.155
9.300,-0.270,0.150
9.303,-0.255,0.160
9.306,-0.230,0.155
9.308,-0.220,0.145
9.311,-0.225,0.140
9.314,-0.225,0.135
9.317,-0.235,0.125
9.319,-0.255,0.115
9.322,-0.265,0.125
9.325,-0.255,0.140
9.328,-0.245,0.145
9.331,-0.230,0.150
9.333,-0.230,0.145
9.336,-0.225,0.155
9.339,-0.240,0.145
9.342,-0.250,0.155
9.344,-0.265,0.170
9.347,-0.285,0.165
9.350,-0.285,0.155
9.353,-0.295,0.150
9.356,-0.285,0.135
9.358,-0.275,0.130
9.361,-0.255,0.155
9.364,-0.240,0.150
9.367,-0.240,0.160
9.369,-0.240,0.165
9.372,-0.250,0.165
9.375,-0.260,0.150
9.378,-0.265,0.145
9.381,-0.275,0.140
9.383,-0.260,0.130
9.386,-0.260,0.115
9.389,-0.235,0.120
9.392,-0.235,0.120
9.394,-0.250,0.140
9.397,-0.265,0.150
9.400,-0.275,0.170
9.403,-0.285,0.170
9.406,-0.280,0.170
9.408,-0.275,0.165
9.411,-0.260,0.155
9.414,-0.255,0.120
9.417,-0.240,0.120
9.419,-0.225,0.100
9.422,-0.215,0.100
9.425,-0.225,0.125
9.428,-0.240,0.145
9.431,-0.240,0.175
9.433,-0.260,0.185
9.436,-0.290,0.190
9.439,-0.305,0.190
9.442,-0.300,0.165
9.444,-0.295,0.155
9.447,-0.265,0.135
9.450,-0.250,0.130
9.453,-0.255,0.125
9.456,-0.270,0.140
9.458,-0.270,0.145
9.461,-0.260,0.155
9.464,-0.260,0.150
9.467,-0.245,0.155
9.469,-0.210,0.155
9.472,-0.205,0.150
9.475,-0.220,0.160
9.478,-0.250,0.170
9.481,-0.280,0.145
9.483,-0.285,0.150
9.486,-0.285,0.135
9.489,-0.250,0.100
9.492,-0.220,0.110
9.494,-0.215,0.115
9.497,-0.215,0.155
9.500,-0.260,0.175
9.503,-0.295,0.180
9.506,-0.320,0.175
9.508,-0.320,0.180
9.511,-0.300,0.170
9.514,-0.265,0.160
9.517,-0.245,0.130
9.519,-0.230,0.125
9.522,-0.225,0.130
9.525,-0.225,0.130
9.528,-0.245,0.150
9.531,-0.260,0.155
9.533,-0.275,0.160
9.536,-0.260,0.175
9.539,-0.245,0.155
9.542,-0.245,0.150
9.544,-0.225,0.135
9.547,-0.230,0.130
9.550,-0.245,0.125
9.553,-0.245,0.120
9.556,-0.270,0.135
9.558,-0.285,0.160
9.561,-0.285,0.160
9.564,-0.285,0.155
9.567,-0.255,0.160
9.569,-0.235,0.155
9.572,-0.230,0.135
9.575,-0.220,0.135
9.578,-0.215,0.135
9.581,-0.230,0.120
9.583,-0.235,0.120
9.586,-0.235,0.130
9.589,-0.245,0.140
9.592,-0.265,0.145
9.594,-0.280,0.160
9.597,-0.275,0.165
9.600,-0.270,0.175
9.603,-0.270,0.165
9.606,-0.260,0.175
9.608,-0.270,0.155
9.611,-0.265,0.150
9.614,-0.255,0.135
9.617,-0.250,0.115
9.619,-0.250,0.125
9.622,-0.250,0.130
9.625,-0.250,0.135
9.628,-0.270,0.150
9.631,-0.265,0.160
9.633,-0.260,0.170
9.636,-0.250,0.180
9.639,-0.235,0.160
9.642,-0.230,0.145
9.644,-0.220,0.150
9.647,-0.230,0.135
9.650,-0.245,0.135
9.653,-0.280,0.135
9.656,-0.290,0.125
9.658,-0.285,0.120
9.661,-0.285,0.150
9.664,-0.285,0.160
9.667,-0.310,0.170
9.669,-0.285,0.175
9.672,-0.270,0.150
9.675,-0.260,0.145
9.678,-0.250,0.140
9.681,-0.245,0.135
9.683,-0.265,0.135
9.686,-0.255,0.135
9.689,-0.270,0.130
9.692,-0.280,0.130
9.694,-0.285,0.140
9.697,-0.295,0.155
9.700,-0.290,0.160
9.703,-0.285,0.160
9.706,-0.260,0.155
9.708,-0.270,0.140
9.711,-0.265,0.130
9.714,-0.265,0.130
9.717,-0.290,0.130
9.719,-0.275,0.120
9.722,-0.290,0.145
9.725,-0.295,0.150
9.728,-0.280,0.145
9.731,-0.280,0.155
9.733,-0.270,0.150
9.736,-0.265,0.140
9.739,-0.245,0.145
9.742,-0.230,0.125
9.744,-0.225,0.140
9.747,-0.235,0.135
9.750,-0.270,0.140
9.753,-0.300,0.135
9.756,-0.320,0.125
9.758,-0.315,0.130
9.761,-0.295,0.140
9.764,-0.285,0.130
9.767,-0.275,0.155
9.769,-0.270,0.160
9.772,-0.255,0.155
9.775,-0.250,0.165
9.778,-0.240,0.150
9.781,-0.260,0.145
9.783,-0.275,0.135
9.786,-0.275,0.130
9.789,-0.295,0.135
9.792,-0.295,0.140
9.794,-0.290,0.140
9.797,-0.290,0.145
9.800,-0.270,0.145
9.803,-0.255,0.140
9.806,-0.250,0.135
9.808,-0.240,0.140
9.811,-0.245,0.140
9.814,-0.250,0.140
9.817,-0.255,0.140
9.819,-0.275,0.140
9.822,-0.280,0.145
9.825,-0.295,0.155
9.828,-0.290,0.150
9.831,-0.295,0.160
9.833,-0.290,0.165
9.836,-0.285,0.170
9.839,-0.280,0.160
9.842,-0.265,0.160
9.844,-0.265,0.150
9.847,-0.265,0.140
9.850,-0.270,0.130
9.853,-0.280,0.140
9.856,-0.295,0.140
9.858,-0.295,0.145
9.861,-0.300,0.150
9.864,-0.295,0.150
9.867,-0.285,0.160
9.869,-0.270,0.155
9.872,-0.255,0.135
9.875,-0.235,0.120
9.878,-0.220,0.115
9.881,-0.205,0.095
9.883,-0.215,0.105
9.886,-0.230,0.110
9.889,-0.265,0.130
9.892,-0.300,0.145
9.894,-0.310,0.150
9.897,-0.315,0.155
9.900,-0.305,0.150
9.903,-0.280,0.155
9.906,-0.265,0.155
9.908,-0.275,0.150
9.911,-0.270,0.150
9.914,-0.300,0.140
9.917,-0.315,0.140
9.919,-0.325,0.140
9.922,-0.315,0.135
9.925,-0.280,0.125
9.928,-0.260,0.125
9.931,-0.230,0.125
9.933,-0.215,0.140
9.936,-0.205,0.145
9.939,-0.230,0.150
9.942,-0.255,0.160
9.944,-0.275,0.155
9.947,-0.295,0.150
9.950,-0.290,0.135
9.953,-0.260,0.120
9.956,-0.245,0.130
9.958,-0.220,0.140
9.961,-0.205,0.160
9.964,-0.225,0.180
9.967,-0.230,0.195
9.969,-0.240,0.195
9.972,-0.220,0.185
9.975,-0.200,0.170
9.978,-0.160,0.155
9.981,-0.155,0.145
9.983,-0.150,0.145
9.986,-0.170,0.130
9.989,-0.200,0.160
9.992,-0.230,0.160
9.994,-0.270,0.180
9.997,-0.270,0.195
10.000,-0.270,0.185
10.003,-0.250,0.170
10.006,-0.220,0.140
10.008,-0.200,0.135
10.011,-0.195,0.115
10.014,-0.190,0.105
10.017,-0.180,0.100
10.019,-0.185,0.115
10.022,-0.195,0.105
10.025,-0.225,0.110
10.028,-0.240,0.125
10.031,-0.240,0.130
10.033,-0.230,0.120
10.036,-0.225,0.125
10.039,-0.220,0.115
10.042,-0.235,0.120
10.044,-0.245,0.115
10.047,-0.250,0.110
10.050,-0.250,0.110
10.053,-0.245,0.125
10.056,-0.255,0.140
10.058,-0.265,0.140
10.061,-0.280,0.155
10.064,-0.300,0.170
10.067,-0.295,0.175
10.069,-0.290,0.175
10.072,-0.280,0.165
10.075,-0.290,0.165
10.078,-0.270,0.165
10.081,-0.280,0.145
10.083,-0.275,0.140
10.086,-0.300,0.150
10.089,-0.325,0.160
10.092,-0.325,0.160
10.094,-0.330,0.170
10.097,-0.310,0.180
10.100,-0.285,0.165
10.103,-0.260,0.160
10.106,-0.240,0.170
10.108,-0.245,0.170
10.111,-0.250,0.165
10.114,-0.285,0.165
10.117,-0.290,0.180
10.119,-0.305,0.170
10.122,-0.310,0.155
10.125,-0.305,0.150
10.128,-0.280,0.150
10.131,-0.255,0.145
10.133,-0.250,0.155
10.136,-0.235,0.155
10.139,-0.235,0.175
10.142,-0.260,0.180
10.144,-0.270,0.195
10.147,-0.295,0.175
10.150,-0.300,0.175
10.153,-0.300,0.160
10.156,-0.270,0.170
10.158,-0.270,0.180
10.161,-0.255,0.210
10.164,-0.240,0.240
10.167,-0.230,0.265
10.169,-0.195,0.275
10.172,-0.160,0.240
10.175,-0.125,0.175
10.178,-0.050,0.075
10.181,0.010,-0.060
10.183,0.080,-0.190
10.186,0.125,-0.295
10.189,0.150,-0.395
10.192,0.135,-0.450
10.194,0.070,-0.480
10.197,-0.025,-0.495
10.200,-0.160,-0.460
10.203,-0.305,-0.375
10.206,-0.445,-0.220
10.208,-0.525,-0.030
10.211,-0.560,0.180
10.214,-0.565,0.355
10.217,-0.565,0.490
10.219,-0.555,0.560
10.222,-0.570,0.585
10.225,-0.555,0.595
10.228,-0.540,0.575
10.231,-0.510,0.580
10.233,-0.510,0.580
10.236,-0.490,0.595
10.239,-0.495,0.615
10.242,-0.520,0.650
10.244,-0.515,0.670
10.247,-0.490,0.690
10.250,-0.455,0.705
10.253,-0.420,0.695
10.256,-0.425,0.730
10.258,-0.415,0.750
10.261,-0.420,0.760
10.264,-0.435,0.785
10.267,-0.470,0.785
10.269,-0.465,0.770
10.272,-0.465,0.705
10.275,-0.445,0.640
10.278,-0.420,0.560
10.281,-0.395,0.480
10.283,-0.390,0.400
10.286,-0.365,0.315
10.289,-0.340,0.265
10.292,-0.310,0.220
10.294,-0.290,0.195
10.297,-0.275,0.150
10.300,-0.275,0.145
10.303,-0.270,0.145
10.306,-0.260,0.135
10.308,-0.245,0.145
10.311,-0.235,0.130
10.314,-0.215,0.110
10.317,-0.215,0.100
10.319,-0.220,0.090
10.322,-0.225,0.095
10.325,-0.230,0.095
10.328,-0.250,0.105
10.331,-0.270,0.115
10.333,-0.285,0.130
10.336,-0.290,0.135
10.339,-0.275,0.105
10.342,-0.270,0.110
10.344,-0.265,0.100
10.347,-0.280,0.085
10.350,-0.285,0.095
10.353,-0.290,0.095
10.356,-0.295,0.095
10.358,-0.275,0.105
10.361,-0.275,0.115
10.364,-0.260,0.105
10.367,-0.245,0.120
10.369,-0.230,0.125
10.372,-0.230,0.115
10.375,-0.210,0.105
10.378,-0.195,0.090
10.381,-0.200,0.085
10.383,-0.205,0.090
10.386,-0.215,0.080
10.389,-0.225,0.090
10.392,-0.235,0.105
10.394,-0.255,0.115
10.397,-0.275,0.125
10.400,-0.265,0.115
10.403,-0.245,0.120
10.406,-0.225,0.100
10.408,-0.210,0.085
10.411,-0.190,0.085
10.414,-0.195,0.065
10.417,-0.195,0.040
10.419,-0.185,0.015
10.422,-0.175,0.000
10.425,-0.145,0.000
10.428,-0.115,0.005
10.431,-0.110,0.030
10.433,-0.140,0.060
10.436,-0.160,0.075
10.439,-0.195,0.065
10.442,-0.205,0.030
10.444,-0.180,0.000
10.447,-0.160,-0.015
10.450,-0.130,-0.040
10.453,-0.120,-0.035
10.456,-0.145,-0.040
10.458,-0.170,-0.035
10.461,-0.180,-0.040
10.464,-0.160,-0.045
10.467,-0.135,-0.040
10.469,-0.115,-0.050
10.472,-0.095,-0.050
10.475,-0.075,-0.070
10.478,-0.070,-0.080
10.481,-0.040,-0.105
10.483,-0.030,-0.130
10.486,-0.025,-0.145
10.489,-0.035,-0.140
10.492,-0.040,-0.130
10.494,-0.060,-0.110
10.497,-0.080,-0.090
10.500,-0.090,-0.085
10.503,-0.055,-0.065
10.506,-0.040,-0.105
10.508,-0.020,-0.130
10.511,0.005,-0.120
10.514,0.010,-0.110
10.517,-0.005,-0.090
10.519,-0.065,-0.050
10.522,-0.120,-0.010
10.525,-0.160,0.000
10.528,-0.160,-0.010
10.531,-0.135,0.000
10.533,-0.100,-0.005
10.536,-0.075,0.005
10.539,-0.055,0.010
10.542,-0.060,0.020
10.544,-0.070,0.035
10.547,-0.110,0.060
10.550,-0.155,0.075
10.553,-0.180,0.080
10.556,-0.195,0.070
10.558,-0.205,0.080
10.561,-0.205,0.090
10.564,-0.200,0.100
10.567,-0.205,0.110
10.569,-0.215,0.115
10.572,-0.195,0.115
10.575,-0.205,0.115
10.578,-0.205,0.100
10.581,-0.210,0.095
10.583,-0.220,0.090
10.586,-0.245,0.095
10.589,-0.255,0.090
10.592,-0.270,0.095
10.594,-0.275,0.095
10.597,-0.270,0.110
10.600,-0.280,0.120
10.603,-0.275,0.140
10.606,-0.280,0.120
10.608,-0.290,0.110
10.611,-0.315,0.090
10.614,-0.320,0.065
10.617,-0.340,0.060
10.619,-0.330,0.065
10.622,-0.325,0.060
10.625,-0.325,0.085
10.628,-0.325,0.105
10.631,-0.320,0.100
10.633,-0.310,0.125
10.636,-0.300,0.120
10.639,-0.290,0.125
10.642,-0.290,0.120
10.644,-0.295,0.115
10.647,-0.295,0.100
10.650,-0.285,0.100
10.653,-0.280,0.090
10.656,-0.275,0.095
10.658,-0.260,0.095
10.661,-0.245,0.095
10.664,-0.240,0.115
10.667,-0.245,0.125
10.669,-0.245,0.130
10.672,-0.240,0.105
10.675,-0.255,0.100
10.678,-0.235,0.090
10.681,-0.250,0.085
10.683,-0.260,0.095
10.686,-0.270,0.085
10.689,-0.295,0.080
10.692,-0.285,0.085
10.694,-0.270,0.090
10.697,-0.250,0.095
10.700,-0.235,0.105
10.703,-0.235,0.100
10.706,-0.220,0.105
10.708,-0.215,0.110
10.711,-0.215,0.125
10.714,-0.240,0.140
10.717,-0.275,0.140
10.719,-0.285,0.155
10.722,-0.285,0.155
10.725,-0.275,0.145
10.728,-0.265,0.160
10.731,-0.250,0.145
10.733,-0.225,0.150
10.736,-0.215,0.145
10.739,-0.195,0.155
10.742,-0.200,0.160
10.744,-0.220,0.145
10.747,-0.230,0.165
10.750,-0.250,0.165
10.753,-0.270,0.155
10.756,-0.295,0.155
10.758,-0.310,0.160
10.761,-0.305,0.160
10.764,-0.275,0.170
10.767,-0.260,0.165
10.769,-0.230,0.165
10.772,-0.215,0.170
10.775,-0.200,0.145
10.778,-0.200,0.155
10.781,-0.200,0.155
10.783,-0.235,0.155
10.786,-0.275,0.165
10.789,-0.300,0.160
10.792,-0.310,0.165
10.794,-0.295,0.165
10.797,-0.270,0.160
10.800,-0.270,0.170
10.803,-0.265,0.170
10.806,-0.280,0.190
10.808,-0.285,0.185
10.811,-0.290,0.180
10.814,-0.300,0.165
10.817,-0.295,0.150
10.819,-0.285,0.150
10.822,-0.275,0.145
10.825,-0.265,0.145
10.828,-0.235,0.150
10.831,-0.225,0.175
10.833,-0.215,0.195
10.836,-0.220,0.210
10.839,-0.225,0.220
10.842,-0.220,0.235
10.844,-0.225,0.210
10.847,-0.175,0.140
10.850,-0.105,0.045
10.853,-0.015,-0.070
10.856,0.090,-0.185
10.858,0.195,-0.275
10.861,0.255,-0.360
10.864,0.270,-0.410
10.867,0.180,-0.400
10.869,0.015,-0.345
10.872,-0.180,-0.230
10.875,-0.385,-0.080
10.878,-0.515,0.095
10.881,-0.585,0.265
10.883,-0.600,0.390
10.886,-0.565,0.465
10.889,-0.540,0.485
10.892,-0.500,0.485
10.894,-0.440,0.465
10.897,-0.425,0.445
10.900,-0.425,0.470
10.903,-0.465,0.490
10.906,-0.505,0.530
10.908,-0.550,0.560
10.911,-0.540,0.580
10.914,-0.515,0.590
10.917,-0.470,0.605
10.919,-0.425,0.610
10.922,-0.415,0.630
10.925,-0.410,0.625
10.928,-0.435,0.635
10.931,-0.460,0.630
10.933,-0.465,0.605
10.936,-0.470,0.580
10.939,-0.435,0.535
10.942,-0.420,0.470
10.944,-0.415,0.410
10.947,-0.395,0.335
10.950,-0.390,0.280
10.953,-0.395,0.220
10.956,-0.380,0.185
10.958,-0.370,0.160
10.961,-0.365,0.130
10.964,-0.345,0.125
10.967,-0.330,0.120
10.969,-0.280,0.105
10.972,-0.255,0.095
10.975,-0.225,0.085
10.978,-0.205,0.065
10.981,-0.190,0.040
10.983,-0.175,0.035
10.986,-0.200,0.060
10.989,-0.250,0.085
10.992,-0.290,0.115
10.994,-0.345,0.135
10.997,-0.385,0.145
11.000,-0.385,0.130
11.003,-0.360,0.115
11.006,-0.320,0.100
11.008,-0.305,0.090
11.011,-0.280,0.065
11.014,-0.270,0.060
11.017,-0.275,0.060
11.019,-0.260,0.040
11.022,-0.225,0.030
11.025,-0.185,0.010
11.028,-0.155,0.005
11.031,-0.140,0.045
11.033,-0.170,0.085
11.036,-0.240,0.115
11.039,-0.300,0.130
11.042,-0.350,0.125
11.044,-0.360,0.085
11.047,-0.340,0.065
11.050,-0.325,0.045
11.053,-0.285,0.035
11.056,-0.285,0.040
11.058,-0.250,0.040
11.061,-0.250,0.035
11.064,-0.240,0.035
11.067,-0.235,0.040
11.069,-0.215,0.035
11.072,-0.200,0.015
11.075,-0.205,0.020
11.078,-0.195,0.000
11.081,-0.195,-0.030
11.083,-0.180,-0.040
11.086,-0.170,-0.075
11.089,-0.135,-0.090
11.092,-0.110,-0.080
11.094,-0.120,-0.055
11.097,-0.170,-0.020
11.100,-0.220,0.015
11.103,-0.250,0.015
11.106,-0.260,-0.005
11.108,-0.235,-0.055
11.111,-0.190,-0.085
11.114,-0.155,-0.095
11.117,-0.130,-0.130
11.119,-0.120,-0.135
11.122,-0.115,-0.125
11.125,-0.120,-0.140
11.128,-0.110,-0.135
11.131,-0.085,-0.140
11.133,-0.065,-0.135
11.136,-0.050,-0.140
11.139,-0.030,-0.145
11.142,-0.025,-0.140
11.144,-0.040,-0.150
11.147,-0.015,-0.145
11.150,-0.025,-0.150
11.153,-0.050,-0.140
11.156,-0.080,-0.110
11.158,-0.105,-0.095
11.161,-0.130,-0.080
11.164,-0.145,-0.070
11.167,-0.140,-0.050
11.169,-0.125,-0.035
11.172,-0.110,-0.035
11.175,-0.100,-0.030
11.178,-0.085,-0.015
11.181,-0.090,-0.015
11.183,-0.115,0.000
11.186,-0.130,0.005
11.189,-0.135,0.005
11.192,-0.125,0.030
11.194,-0.125,0.050
11.197,-0.135,0.070
11.200,-0.180,0.105
11.203,-0.190,0.135
11.206,-0.225,0.140
11.208,-0.245,0.140
11.211,-0.245,0.140
11.214,-0.265,0.135
11.217,-0.270,0.150
11.219,-0.295,0.145
11.222,-0.310,0.155
11.225,-0.310,0.170
11.228,-0.295,0.160
11.231,-0.275,0.150
11.233,-0.250,0.155
11.236,-0.240,0.155
11.239,-0.225,0.165
11.242,-0.235,0.165
11.244,-0.235,0.160
11.247,-0.255,0.165
11.250,-0.290,0.175
11.253,-0.310,0.160
11.256,-0.335,0.165
11.258,-0.360,0.195
11.261,-0.360,0.205
11.264,-0.365,0.215
11.267,-0.355,0.210
11.269,-0.315,0.200
11.272,-0.290,0.195
11.275,-0.285,0.180
11.278,-0.275,0.170
11.281,-0.285,0.160
11.283,-0.280,0.150
11.286,-0.300,0.145
11.289,-0.310,0.135
11.292,-0.300,0.145
11.294,-0.295,0.140
11.297,-0.265,0.140
11.300,-0.260,0.155
11.303,-0.250,0.165
11.306,-0.250,0.170
11.308,-0.250,0.165
11.311,-0.265,0.165
11.314,-0.285,0.165
11.317,-0.295,0.155
11.319,-0.310,0.145
11.322,-0.315,0.150
11.325,-0.310,0.160
11.328,-0.300,0.155
11.331,-0.275,0.150
11.333,-0.260,0.155
11.336,-0.245,0.165
11.339,-0.240,0.165
11.342,-0.250,0.175
11.344,-0.270,0.170
11.347,-0.285,0.155
11.350,-0.305,0.145
11.353,-0.325,0.130
11.356,-0.340,0.130
11.358,-0.320,0.135
11.361,-0.325,0.145
11.364,-0.315,0.155
11.367,-0.305,0.160
11.369,-0.290,0.165
11.372,-0.270,0.155
11.375,-0.270,0.150
11.378,-0.255,0.145
11.381,-0.255,0.135
11.383,-0.265,0.135
11.386,-0.270,0.120
11.389,-0.270,0.110
11.392,-0.265,0.120
11.394,-0.270,0.130
11.397,-0.260,0.140
11.400,-0.270,0.165
11.403,-0.290,0.180
11.406,-0.300,0.180
11.408,-0.320,0.185
11.411,-0.310,0.165
11.414,-0.295,0.140
11.417,-0.275,0.115
11.419,-0.255,0.115
11.422,-0.265,0.115
11.425,-0.270,0.120
11.428,-0.285,0.150
11.431,-0.305,0.155
11.433,-0.315,0.175
11.436,-0.315,0.180
11.439,-0.320,0.190
11.442,-0.320,0.170
11.444,-0.315,0.170
11.447,-0.310,0.165
11.450,-0.310,0.155
11.453,-0.305,0.140
11.456,-0.300,0.130
11.458,-0.285,0.125
11.461,-0.270,0.120
11.464,-0.255,0.140
11.467,-0.260,0.165
11.469,-0.290,0.185
11.472,-0.315,0.190
11.475,-0.355,0.190
11.478,-0.355,0.185
11.481,-0.360,0.170
11.483,-0.360,0.155
11.486,-0.340,0.155
11.489,-0.340,0.155
11.492,-0.315,0.140
11.494,-0.290,0.135
11.497,-0.285,0.130
11.500,-0.265,0.120
11.503,-0.230,0.105
11.506,-0.170,0.085
11.508,-0.145,0.100
11.511,-0.165,0.135
11.514,-0.240,0.185
11.517,-0.355,0.220
11.519,-0.445,0.245
11.522,-0.500,0.220
11.525,-0.485,0.195
11.528,-0.445,0.190
11.531,-0.370,0.160
11.533,-0.315,0.155
11.536,-0.275,0.155
11.539,-0.255,0.165
11.542,-0.260,0.160
11.544,-0.275,0.150
11.547,-0.305,0.145
11.550,-0.315,0.130
11.553,-0.320,0.135
11.556,-0.330,0.135
11.558,-0.325,0.135
11.561,-0.310,0.150
11.564,-0.300,0.145
11.567,-0.275,0.155
11.569,-0.265,0.140
11.572,-0.230,0.125
11.575,-0.225,0.115
11.578,-0.210,0.120
11.581,-0.240,0.130
11.583,-0.275,0.140
11.586,-0.325,0.175
11.589,-0.345,0.190
11.592,-0.380,0.205
11.594,-0.400,0.200
11.597,-0.395,0.215
11.600,-0.385,0.190
11.603,-0.340,0.170
11.606,-0.310,0.155
11.608,-0.285,0.150
11.611,-0.275,0.125
11.614,-0.275,0.130
11.617,-0.275,0.125
11.619,-0.305,0.135
11.622,-0.320,0.135
11.625,-0.330,0.140
11.628,-0.340,0.155
11.631,-0.340,0.155
11.633,-0.330,0.175
11.636,-0.320,0.175
11.639,-0.315,0.175
11.642,-0.305,0.170
11.644,-0.305,0.155
11.647,-0.305,0.150
11.650,-0.310,0.140
11.653,-0.310,0.140
11.656,-0.320,0.145
11.658,-0.315,0.140
11.661,-0.295,0.140
11.664,-0.290,0.130
11.667,-0.270,0.130
11.669,-0.235,0.140
11.672,-0.225,0.160
11.675,-0.260,0.175
11.678,-0.285,0.185
11.681,-0.320,0.195
11.683,-0.345,0.195
11.686,-0.365,0.190
11.689,-0.380,0.190
11.692,-0.375,0.185
11.694,-0.365,0.180
11.697,-0.355,0.185
11.700,-0.330,0.170
11.703,-0.290,0.150
11.706,-0.245,0.160
11.708,-0.225,0.155
11.711,-0.235,0.150
11.714,-0.255,0.145
11.717,-0.285,0.155
11.719,-0.315,0.170
11.722,-0.345,0.155
11.725,-0.365,0.165
11.728,-0.375,0.180
11.731,-0.365,0.195
11.733,-0.370,0.205
11.736,-0.355,0.195
11.739,-0.335,0.190
11.742,-0.315,0.180
11.744,-0.305,0.160
11.747,-0.295,0.145
11.750,-0.285,0.145
11.753,-0.280,0.130
11.756,-0.275,0.140
11.758,-0.285,0.145
11.761,-0.285,0.155
11.764,-0.290,0.165
11.767,-0.290,0.175
11.769,-0.300,0.180
11.772,-0.300,0.185
11.775,-0.305,0.180
11.778,-0.300,0.175
11.781,-0.295,0.155
11.783,-0.295,0.140
11.786,-0.285,0.125
11.789,-0.280,0.115
11.792,-0.260,0.135
11.794,-0.245,0.145
11.797,-0.245,0.155
11.800,-0.260,0.185
11.803,-0.275,0.215
11.806,-0.310,0.215
11.808,-0.335,0.215
11.811,-0.325,0.205
11.814,-0.310,0.180
11.817,-0.315,0.160
11.819,-0.295,0.145
11.822,-0.290,0.140
11.825,-0.290,0.145
11.828,-0.275,0.145
11.831,-0.265,0.160
11.833,-0.270,0.185
11.836,-0.290,0.200
11.839,-0.300,0.220
11.842,-0.325,0.200
11.844,-0.315,0.175
11.847,-0.300,0.175
11.850,-0.285,0.155
11.853,-0.290,0.165
11.856,-0.305,0.155
11.858,-0.285,0.165
11.861,-0.285,0.160
11.864,-0.285,0.170
11.867,-0.270,0.180
11.869,-0.250,0.190
11.872,-0.270,0.190
11.875,-0.280,0.205
11.878,-0.305,0.200
11.881,-0.315,0.180
11.883,-0.340,0.180
11.886,-0.340,0.160
11.889,-0.310,0.155
11.892,-0.295,0.145
11.894,-0.280,0.150
11.897,-0.270,0.145
11.900,-0.245,0.150
11.903,-0.230,0.135
11.906,-0.235,0.130
11.908,-0.235,0.160
11.911,-0.275,0.180
11.914,-0.310,0.185
11.917,-0.345,0.180
11.919,-0.355,0.175
11.922,-0.330,0.150
11.925,-0.295,0.140
11.928,-0.270,0.125
11.931,-0.255,0.135
11.933,-0.255,0.140
11.936,-0.280,0.175
11.939,-0.290,0.190
11.942,-0.310,0.185
11.944,-0.320,0.185
11.947,-0.315,0.155
11.950,-0.295,0.150
11.953,-0.295,0.130
11.956,-0.285,0.135
11.958,-0.295,0.135
11.961,-0.285,0.145
11.964,-0.290,0.175
11.967,-0.300,0.180
11.969,-0.295,0.175
11.972,-0.300,0.175
11.975,-0.290,0.175
11.978,-0.290,0.155
11.981,-0.280,0.145
11.983,-0.280,0.135
11.986,-0.285,0.120
11.989,-0.290,0.120
11.992,-0.285,0.115
11.994,-0.260,0.140
11.997,-0.235,0.130
12.000,-0.225,0.135
12.003,-0.220,0.150
12.006,-0.210,0.160
12.008,-0.245,0.170
12.011,-0.290,0.180
12.014,-0.325,0.175
12.017,-0.345,0.160
12.019,-0.340,0.155
12.022,-0.345,0.140
12.025,-0.335,0.155
12.028,-0.305,0.150
12.031,-0.290,0.165
12.033,-0.265,0.170
12.036,-0.250,0.160
12.039,-0.260,0.160
12.042,-0.245,0.155
12.044,-0.240,0.140
12.047,-0.240,0.130
12.050,-0.240,0.125
12.053,-0.235,0.120
12.056,-0.250,0.125
12.058,-0.250,0.145
12.061,-0.260,0.155
12.064,-0.280,0.180
12.067,-0.295,0.185
12.069,-0.305,0.180
12.072,-0.290,0.170
12.075,-0.285,0.155
12.078,-0.265,0.150
12.081,-0.250,0.140
12.083,-0.245,0.130
12.086,-0.250,0.130
12.089,-0.240,0.120
12.092,-0.235,0.120
12.094,-0.230,0.130
12.097,-0.230,0.140
12.100,-0.245,0.150
12.103,-0.250,0.165
12.106,-0.250,0.165
12.108,-0.250,0.175
12.111,-0.250,0.155
12.114,-0.255,0.160
12.117,-0.265,0.155
12.119,-0.265,0.150
12.122,-0.285,0.145
12.125,-0.290,0.155
12.128,-0.285,0.155
12.131,-0.275,0.150
12.133,-0.280,0.150
12.136,-0.255,0.160
12.139,-0.255,0.155
12.142,-0.260,0.145
12.144,-0.260,0.155
12.147,-0.275,0.150
12.150,-0.285,0.140
12.153,-0.285,0.130
12.156,-0.290,0.140
12.158,-0.300,0.145
12.161,-0.275,0.145
12.164,-0.270,0.145
12.167,-0.265,0.150
12.169,-0.260,0.140
12.172,-0.245,0.140
12.175,-0.250,0.145
12.178,-0.250,0.140
12.181,-0.235,0.140
12.183,-0.255,0.130
12.186,-0.265,0.125
12.189,-0.280,0.145
12.192,-0.285,0.140
12.194,-0.285,0.150
12.197,-0.285,0.150
12.200,-0.265,0.145
12.203,-0.240,0.155
12.206,-0.230,0.145
12.208,-0.240,0.150
12.211,-0.245,0.155
12.214,-0.270,0.145
12.217,-0.275,0.125
12.219,-0.270,0.125
12.222,-0.270,0.115
12.225,-0.260,0.120
12.228,-0.260,0.150
12.231,-0.260,0.150
12.233,-0.255,0.155
12.236,-0.255,0.155
12.239,-0.230,0.135
12.242,-0.240,0.140
12.244,-0.245,0.145
12.247,-0.255,0.140
12.250,-0.285,0.130
12.253,-0.305,0.140
12.256,-0.315,0.140
12.258,-0.310,0.130
12.261,-0.290,0.130
12.264,-0.265,0.150
12.267,-0.245,0.130
12.269,-0.225,0.140
12.272,-0.215,0.135
12.275,-0.210,0.120
12.278,-0.200,0.125
12.281,-0.215,0.125
12.283,-0.220,0.130
12.286,-0.235,0.130
12.289,-0.250,0.135
12.292,-0.265,0.130
12.294,-0.265,0.145
12.297,-0.265,0.160
12.300,-0.260,0.160
12.303,-0.240,0.165
12.306,-0.220,0.165
12.308,-0.195,0.150
12.311,-0.190,0.160
12.314,-0.180,0.145
12.317,-0.175,0.155
12.319,-0.170,0.140
12.322,-0.180,0.135
12.325,-0.170,0.145
12.328,-0.180,0.155
12.331,-0.190,0.165
12.333,-0.205,0.165
12.336,-0.205,0.160
12.339,-0.190,0.140
12.342,-0.175,0.115
12.344,-0.170,0.105
12.347,-0.155,0.090
12.350,-0.145,0.070
12.353,-0.135,0.080
12.356,-0.155,0.090
12.358,-0.190,0.105
12.361,-0.220,0.115
12.364,-0.250,0.140
12.367,-0.265,0.155
12.369,-0.280,0.150
12.372,-0.265,0.135
12.375,-0.250,0.115
12.378,-0.215,0.090
12.381,-0.195,0.085
12.383,-0.180,0.070
12.386,-0.185,0.075
12.389,-0.200,0.095
12.392,-0.215,0.130
12.394,-0.225,0.150
12.397,-0.260,0.155
12.400,-0.265,0.165
12.403,-0.270,0.165
12.406,-0.260,0.140
12.408,-0.250,0.130
12.411,-0.265,0.120
12.414,-0.240,0.105
12.417,-0.235,0.105
12.419,-0.230,0.100
12.422,-0.220,0.110
12.425,-0.240,0.130
12.428,-0.265,0.140
12.431,-0.290,0.160
12.433,-0.300,0.155
12.436,-0.295,0.175
12.439,-0.280,0.170
12.442,-0.270,0.160
12.444,-0.265,0.155
12.447,-0.255,0.135
12.450,-0.265,0.130
12.453,-0.265,0.135
12.456,-0.280,0.140
12.458,-0.290,0.145
12.461,-0.300,0.130
12.464,-0.275,0.140
12.467,-0.255,0.150
12.469,-0.260,0.150
12.472,-0.255,0.170
12.475,-0.265,0.175
12.478,-0.275,0.185
12.481,-0.295,0.170
12.483,-0.300,0.155
12.486,-0.310,0.155
12.489,-0.300,0.135
12.492,-0.280,0.135
12.494,-0.250,0.135
12.497,-0.225,0.125
12.500,-0.210,0.155
12.503,-0.185,0.160
12.506,-0.175,0.185
12.508,-0.165,0.205
12.511,-0.155,0.205
12.514,-0.140,0.200
12.517,-0.120,0.165
12.519,-0.110,0.105
12.522,-0.070,0.010
12.525,0.015,-0.110
12.528,0.120,-0.220
12.531,0.225,-0.325
12.533,0.295,-0.415
12.536,0.300,-0.470
12.539,0.200,-0.480
12.542,0.000,-0.435
12.544,-0.225,-0.350
12.547,-0.425,-0.225
12.550,-0.540,-0.065
12.553,-0.595,0.110
12.556,-0.595,0.260
12.558,-0.550,0.360
12.561,-0.520,0.440
12.564,-0.505,0.470
12.567,-0.480,0.490
12.569,-0.475,0.490
12.572,-0.470,0.495
12.575,-0.475,0.495
12.578,-0.475,0.520
12.581,-0.495,0.530
12.583,-0.510,0.550
12.586,-0.500,0.555
12.589,-0.480,0.595
12.592,-0.440,0.615
12.594,-0.430,0.650
12.597,-0.415,0.660
12.600,-0.405,0.675
12.603,-0.410,0.690
12.606,-0.415,0.705
12.608,-0.435,0.700
12.611,-0.445,0.675
12.614,-0.460,0.660
12.617,-0.480,0.600
12.619,-0.485,0.560
12.622,-0.480,0.510
12.625,-0.455,0.430
12.628,-0.420,0.365
12.631,-0.385,0.300
12.633,-0.330,0.230
12.636,-0.300,0.200
12.639,-0.270,0.170
12.642,-0.270,0.150
12.644,-0.260,0.140
12.647,-0.265,0.140
12.650,-0.285,0.115
12.653,-0.290,0.100
12.656,-0.285,0.095
12.658,-0.285,0.100
12.661,-0.275,0.095
12.664,-0.260,0.100
12.667,-0.240,0.100
12.669,-0.220,0.105
12.672,-0.220,0.100
12.675,-0.220,0.110
12.678,-0.235,0.120
12.681,-0.250,0.105
12.683,-0.265,0.100
12.686,-0.275,0.090
12.689,-0.285,0.085
12.692,-0.280,0.085
12.694,-0.275,0.095
12.697,-0.275,0.095
12.700,-0.260,0.095
12.703,-0.240,0.090
12.706,-0.210,0.075
12.708,-0.200,0.080
12.711,-0.200,0.090
12.714,-0.225,0.085
12.717,-0.255,0.090
12.719,-0.275,0.095
12.722,-0.290,0.095
12.725,-0.280,0.075
12.728,-0.245,0.065
12.731,-0.200,0.060
12.733,-0.175,0.065
12.736,-0.170,0.085
12.739,-0.190,0.100
12.742,-0.235,0.105
12.744,-0.265,0.100
12.747,-0.275,0.080
12.750,-0.260,0.055
12.753,-0.235,0.040
12.756,-0.205,0.025
12.758,-0.185,0.025
12.761,-0.170,0.030
12.764,-0.195,0.045
12.767,-0.190,0.045
12.769,-0.195,0.045
12.772,-0.185,0.030
12.775,-0.190,0.005
12.778,-0.190,0.000
12.781,-0.175,-0.020
12.783,-0.160,-0.025
12.786,-0.150,-0.035
12.789,-0.150,-0.045
12.792,-0.120,-0.065
12.794,-0.105,-0.055
12.797,-0.120,-0.045
12.800,-0.105,-0.050
12.803,-0.110,-0.045
12.806,-0.085,-0.065
12.808,-0.075,-0.070
12.811,-0.075,-0.095
12.814,-0.065,-0.105
12.817,-0.065,-0.110
12.819,-0.080,-0.120
12.822,-0.095,-0.120
12.825,-0.100,-0.125
12.828,-0.105,-0.125
12.831,-0.090,-0.130
12.833,-0.090,-0.125
12.836,-0.070,-0.130
12.839,-0.045,-0.135
12.842,-0.025,-0.145
12.844,-0.020,-0.140
12.847,-0.030,-0.140
12.850,-0.045,-0.150
12.853,-0.050,-0.140
12.856,-0.065,-0.140
12.858,-0.060,-0.125
12.861,-0.065,-0.115
12.864,-0.060,-0.085
12.867,-0.065,-0.070
12.869,-0.060,-0.065
12.872,-0.055,-0.045
12.875,-0.055,-0.040
12.878,-0.060,-0.030
12.881,-0.050,-0.030
12.883,-0.060,-0.015
12.886,-0.055,-0.005
12.889,-0.060,-0.020
12.892,-0.060,0.015
12.894,-0.070,0.030
12.897,-0.085,0.050
12.900,-0.100,0.080
12.903,-0.115,0.115
12.906,-0.125,0.125
12.908,-0.145,0.135
12.911,-0.165,0.135
12.914,-0.175,0.130
12.917,-0.160,0.115
12.919,-0.170,0.100
12.922,-0.170,0.105
12.925,-0.180,0.115
12.928,-0.170,0.125
12.931,-0.185,0.150
12.933,-0.190,0.160
12.936,-0.225,0.175
12.939,-0.240,0.180
12.942,-0.270,0.160
12.944,-0.275,0.165
12.947,-0.265,0.125
12.950,-0.265,0.110
12.953,-0.260,0.090
12.956,-0.265,0.085
12.958,-0.270,0.080
12.961,-0.280,0.085
12.964,-0.280,0.095
12.967,-0.285,0.110
12.969,-0.280,0.135
12.972,-0.275,0.120
12.975,-0.280,0.115
12.978,-0.260,0.115
12.981,-0.255,0.110
12.983,-0.255,0.100
12.986,-0.260,0.090
12.989,-0.250,0.095
12.992,-0.240,0.110
12.994,-0.210,0.100
12.997,-0.185,0.110
13.000,-0.165,0.120
13.003,-0.160,0.130
13.006,-0.170,0.130
13.008,-0.180,0.115
13.011,-0.200,0.120
13.014,-0.210,0.115
13.017,-0.220,0.120
13.019,-0.235,0.115
13.022,-0.245,0.110
13.025,-0.245,0.110
13.028,-0.240,0.095
13.031,-0.220,0.110
13.033,-0.220,0.110
13.036,-0.200,0.115
13.039,-0.190,0.115
13.042,-0.185,0.105
13.044,-0.190,0.105
13.047,-0.190,0.115
13.050,-0.180,0.090
13.053,-0.170,0.090
13.056,-0.175,0.090
13.058,-0.175,0.115
13.061,-0.190,0.135
13.064,-0.220,0.180
13.067,-0.250,0.210
13.069,-0.255,0.220
13.072,-0.250,0.210
13.075,-0.235,0.175
13.078,-0.205,0.140
13.081,-0.175,0.130
13.083,-0.150,0.120
13.086,-0.165,0.125
13.089,-0.175,0.140
13.092,-0.215,0.165
13.094,-0.240,0.175
13.097,-0.250,0.190
13.100,-0.265,0.195
13.103,-0.245,0.185
13.106,-0.215,0.170
13.108,-0.200,0.165
13.111,-0.175,0.160
13.114,-0.165,0.150
13.117,-0.185,0.160
13.119,-0.205,0.165
13.122,-0.235,0.160
13.125,-0.265,0.160
13.128,-0.255,0.155
13.131,-0.245,0.170
13.133,-0.230,0.190
13.136,-0.220,0.170
13.139,-0.205,0.165
13.142,-0.200,0.175
13.144,-0.185,0.155
13.147,-0.190,0.150
13.150,-0.185,0.135
13.153,-0.185,0.130
13.156,-0.185,0.140
13.158,-0.190,0.135
13.161,-0.220,0.170
13.164,-0.240,0.185
13.167,-0.255,0.210
13.169,-0.240,0.235
13.172,-0.240,0.250
13.175,-0.230,0.265
13.178,-0.220,0.270
13.181,-0.225,0.265
13.183,-0.200,0.210
13.186,-0.140,0.115
13.189,-0.065,-0.025
13.192,0.050,-0.175
13.194,0.180,-0.315
13.197,0.260,-0.430
13.200,0.310,-0.490
13.203,0.255,-0.505
13.206,0.125,-0.480
13.208,-0.070,-0.405
13.211,-0.275,-0.290
13.214,-0.460,-0.145
13.217,-0.545,0.025
13.219,-0.555,0.210
13.222,-0.535,0.380
13.225,-0.490,0.485
13.228,-0.425,0.545
13.231,-0.395,0.550
13.233,-0.390,0.550
13.236,-0.375,0.535
13.239,-0.380,0.510
13.242,-0.400,0.520
13.244,-0.400,0.515
13.247,-0.390,0.525
13.250,-0.375,0.545
13.253,-0.365,0.585
13.256,-0.355,0.625
13.258,-0.370,0.680
13.261,-0.395,0.710
13.264,-0.425,0.730
13.267,-0.450,0.750
13.269,-0.460,0.745
13.272,-0.465,0.735
13.275,-0.455,0.700
13.278,-0.445,0.655
13.281,-0.440,0.590
13.283,-0.430,0.530
13.286,-0.410,0.445
13.289,-0.385,0.355
13.292,-0.355,0.275
13.294,-0.325,0.200
13.297,-0.260,0.135
13.300,-0.205,0.075
13.303,-0.145,0.055
13.306,-0.135,0.035
13.308,-0.160,0.055
13.311,-0.200,0.080
13.314,-0.245,0.100
13.317,-0.305,0.105
13.319,-0.330,0.090
13.322,-0.320,0.075
13.325,-0.310,0.075
13.328,-0.285,0.070
13.331,-0.250,0.065
13.333,-0.240,0.060
13.336,-0.215,0.060
13.339,-0.210,0.050
13.342,-0.220,0.055
13.344,-0.210,0.050
13.347,-0.205,0.035
13.350,-0.195,0.020
13.353,-0.200,0.030
13.356,-0.220,0.040
13.358,-0.250,0.055
13.361,-0.255,0.065
13.364,-0.260,0.065
13.367,-0.240,0.070
13.369,-0.215,0.055
13.372,-0.210,0.045
13.375,-0.200,0.040
13.378,-0.185,0.035
13.381,-0.200,0.035
13.383,-0.225,0.025
13.386,-0.245,0.030
13.389,-0.265,0.020
13.392,-0.270,0.015
13.394,-0.250,0.025
13.397,-0.230,0.015
13.400,-0.220,0.020
13.403,-0.185,0.020
13.406,-0.175,0.015
13.408,-0.150,-0.005
13.411,-0.155,-0.005
13.414,-0.155,-0.025
13.417,-0.170,-0.030
13.419,-0.190,-0.030
13.422,-0.200,-0.030
13.425,-0.210,-0.030
13.428,-0.200,-0.050
13.431,-0.175,-0.050
13.433,-0.135,-0.070
13.436,-0.110,-0.075
13.439,-0.105,-0.070
13.442,-0.110,-0.080
13.444,-0.115,-0.090
13.447,-0.130,-0.115
13.450,-0.120,-0.135
13.453,-0.095,-0.145
13.456,-0.085,-0.165
13.458,-0.060,-0.170
13.461,-0.055,-0.145
13.464,-0.045,-0.140
13.467,-0.065,-0.125
13.469,-0.075,-0.125
13.472,-0.080,-0.140
13.475,-0.075,-0.155
13.478,-0.065,-0.170
13.481,-0.060,-0.180
13.483,-0.045,-0.185
13.486,-0.035,-0.190
13.489,-0.040,-0.175
13.492,-0.055,-0.170
13.494,-0.075,-0.165
13.497,-0.085,-0.155
13.500,-0.075,-0.145
13.503,-0.060,-0.130
13.506,-0.040,-0.110
13.508,-0.030,-0.090
13.511,-0.040,-0.080
13.514,-0.050,-0.080
13.517,-0.060,-0.075
13.519,-0.075,-0.070
13.522,-0.095,-0.065
13.525,-0.085,-0.040
13.528,-0.085,-0.030
13.531,-0.095,-0.005
13.533,-0.110,0.040
13.536,-0.130,0.045
13.539,-0.155,0.060
13.542,-0.180,0.090
13.544,-0.200,0.095
13.547,-0.205,0.085
13.550,-0.200,0.090
13.553,-0.180,0.080
13.556,-0.165,0.095
13.558,-0.165,0.110
13.561,-0.195,0.120
13.564,-0.230,0.140
13.567,-0.225,0.135
13.569,-0.235,0.145
13.572,-0.245,0.150
13.575,-0.260,0.155
13.578,-0.275,0.165
13.581,-0.295,0.155
13.583,-0.290,0.135
13.586,-0.285,0.120
13.589,-0.270,0.110
13.592,-0.255,0.120
13.594,-0.250,0.135
13.597,-0.260,0.145
13.600,-0.285,0.155
13.603,-0.285,0.155
13.606,-0.275,0.155
13.608,-0.260,0.150
13.611,-0.255,0.135
13.614,-0.240,0.130
13.617,-0.250,0.135
13.619,-0.240,0.110
13.622,-0.240,0.115
13.625,-0.230,0.105
13.628,-0.225,0.120
13.631,-0.240,0.135
13.633,-0.245,0.145
13.636,-0.240,0.145
13.639,-0.255,0.145
13.642,-0.245,0.140
13.644,-0.240,0.135
13.647,-0.245,0.135
13.650,-0.245,0.135
13.653,-0.250,0.115
13.656,-0.260,0.120
13.658,-0.255,0.120
13.661,-0.250,0.125
13.664,-0.240,0.130
13.667,-0.225,0.130
13.669,-0.225,0.140
13.672,-0.235,0.145
13.675,-0.245,0.135
13.678,-0.240,0.140
13.681,-0.255,0.120
13.683,-0.250,0.105
13.686,-0.250,0.095
13.689,-0.245,0.120
13.692,-0.245,0.125
13.694,-0.240,0.135
13.697,-0.230,0.135
13.700,-0.230,0.145
13.703,-0.215,0.130
13.706,-0.200,0.135
13.708,-0.195,0.130
13.711,-0.200,0.135
13.714,-0.225,0.135
13.717,-0.255,0.120
13.719,-0.270,0.110
13.722,-0.275,0.115
13.725,-0.265,0.120
13.728,-0.240,0.125
13.731,-0.230,0.125
13.733,-0.220,0.125
13.736,-0.235,0.130
13.739,-0.245,0.150
13.742,-0.255,0.145
13.744,-0.260,0.150
13.747,-0.285,0.145
13.750,-0.275,0.120
13.753,-0.270,0.105
13.756,-0.265,0.100
13.758,-0.250,0.105
13.761,-0.240,0.120
13.764,-0.235,0.120
13.767,-0.245,0.135
13.769,-0.260,0.140
13.772,-0.240,0.135
13.775,-0.245,0.125
13.778,-0.240,0.120
13.781,-0.215,0.115
13.783,-0.235,0.120
13.786,-0.240,0.110
13.789,-0.250,0.100
13.792,-0.250,0.105
13.794,-0.245,0.120
13.797,-0.240,0.125
13.800,-0.260,0.140
13.803,-0.265,0.135
13.806,-0.260,0.135
13.808,-0.275,0.135
13.811,-0.260,0.145
13.814,-0.265,0.140
13.817,-0.255,0.120
13.819,-0.265,0.120
13.822,-0.265,0.120
13.825,-0.275,0.110
13.828,-0.285,0.120
13.831,-0.275,0.125
13.833,-0.265,0.130
13.836,-0.245,0.130
13.839,-0.225,0.125
13.842,-0.225,0.120
13.844,-0.235,0.130
13.847,-0.250,0.115
13.850,-0.265,0.115
13.853,-0.270,0.105
13.856,-0.270,0.105
13.858,-0.255,0.105
13.861,-0.260,0.115
13.864,-0.250,0.115
13.867,-0.245,0.140
13.869,-0.240,0.140
13.872,-0.230,0.135
13.875,-0.230,0.130
13.878,-0.230,0.135
13.881,-0.230,0.130
13.883,-0.245,0.120
13.886,-0.250,0.105
13.889,-0.255,0.105
13.892,-0.265,0.110
13.894,-0.255,0.105
13.897,-0.245,0.115
13.900,-0.240,0.110
13.903,-0.240,0.130
13.906,-0.250,0.125
13.908,-0.235,0.125
13.911,-0.235,0.140
13.914,-0.240,0.115
13.917,-0.255,0.100
13.919,-0.260,0.095
13.922,-0.265,0.100
13.925,-0.260,0.105
13.928,-0.255,0.135
13.931,-0.265,0.135
13.933,-0.255,0.135
13.936,-0.260,0.130
13.939,-0.240,0.105
13.942,-0.240,0.115
13.944,-0.240,0.110
13.947,-0.245,0.110
13.950,-0.275,0.125
13.953,-0.300,0.135
13.956,-0.320,0.135
13.958,-0.315,0.135
13.961,-0.290,0.115
13.964,-0.270,0.125
13.967,-0.250,0.125
13.969,-0.230,0.115
13.972,-0.205,0.110
13.975,-0.215,0.110
13.978,-0.210,0.110
13.981,-0.220,0.110
13.983,-0.235,0.100
13.986,-0.250,0.095
13.989,-0.255,0.115
13.992,-0.290,0.125
13.994,-0.320,0.140
13.997,-0.325,0.135
14.000,-0.320,0.140
14.003,-0.300,0.130
14.006,-0.265,0.120
14.008,-0.240,0.115
14.011,-0.215,0.115
14.014,-0.205,0.105
14.017,-0.225,0.135
14.019,-0.260,0.115
14.022,-0.305,0.130
14.025,-0.310,0.120
14.028,-0.295,0.120
14.031,-0.280,0.110
14.033,-0.260,0.115
14.036,-0.235,0.125
14.039,-0.215,0.125
14.042,-0.220,0.120
14.044,-0.240,0.130
14.047,-0.250,0.120
14.050,-0.265,0.120
14.053,-0.285,0.095
14.056,-0.275,0.100
14.058,-0.275,0.100
14.061,-0.275,0.105
14.064,-0.255,0.110
14.067,-0.250,0.125
14.069,-0.255,0.120
14.072,-0.245,0.105
14.075,-0.240,0.105
14.078,-0.215,0.095
14.081,-0.205,0.075
14.083,-0.195,0.070
14.086,-0.200,0.085
14.089,-0.225,0.080
14.092,-0.240,0.090
14.094,-0.285,0.110
14.097,-0.295,0.120
14.100,-0.315,0.135
14.103,-0.310,0.130
14.106,-0.280,0.110
14.108,-0.265,0.100
14.111,-0.230,0.100
14.114,-0.225,0.095
14.117,-0.230,0.085
14.119,-0.250,0.085
14.122,-0.270,0.080
14.125,-0.265,0.080
14.128,-0.250,0.075
14.131,-0.240,0.100
14.133,-0.245,0.100
14.136,-0.255,0.135
14.139,-0.260,0.130
14.142,-0.285,0.125
14.144,-0.275,0.120
14.147,-0.260,0.105
14.150,-0.270,0.105
14.153,-0.265,0.095
14.156,-0.270,0.085
14.158,-0.250,0.105
14.161,-0.240,0.100
14.164,-0.225,0.100
14.167,-0.215,0.110
14.169,-0.215,0.130
14.172,-0.225,0.135
14.175,-0.240,0.140
14.178,-0.255,0.135
14.181,-0.260,0.120
14.183,-0.265,0.110
14.186,-0.270,0.105
14.189,-0.265,0.095
14.192,-0.255,0.105
14.194,-0.260,0.115
14.197,-0.270,0.120
14.200,-0.265,0.135
14.203,-0.275,0.130
14.206,-0.265,0.145
14.208,-0.260,0.140
14.211,-0.265,0.130
14.214,-0.255,0.105
14.217,-0.250,0.110
14.219,-0.245,0.080
14.222,-0.230,0.080
14.225,-0.220,0.080
14.228,-0.220,0.095
14.231,-0.225,0.120
14.233,-0.250,0.130
14.236,-0.275,0.150
14.239,-0.285,0.130
14.242,-0.285,0.125
14.244,-0.260,0.110
14.247,-0.235,0.100
14.250,-0.225,0.085
14.253,-0.230,0.095
14.256,-0.245,0.090
14.258,-0.260,0.100
14.261,-0.265,0.100
14.264,-0.260,0.100
14.267,-0.230,0.090
14.269,-0.220,0.100
14.272,-0.205,0.105
14.275,-0.215,0.100
14.278,-0.215,0.110
14.281,-0.210,0.095
14.283,-0.225,0.115
14.286,-0.240,0.110
14.289,-0.260,0.115
14.292,-0.285,0.115
14.294,-0.285,0.120
14.297,-0.270,0.110
14.300,-0.245,0.110
14.303,-0.220,0.110
14.306,-0.215,0.115
14.308,-0.225,0.110
14.311,-0.240,0.125
14.314,-0.240,0.110
14.317,-0.260,0.110
14.319,-0.260,0.085
14.322,-0.265,0.095
14.325,-0.250,0.090
14.328,-0.240,0.095
14.331,-0.245,0.105
14.333,-0.235,0.130
14.336,-0.240,0.130
14.339,-0.240,0.135
14.342,-0.245,0.120
14.344,-0.240,0.115
14.347,-0.235,0.120
14.350,-0.255,0.105
14.353,-0.260,0.105
14.356,-0.245,0.090
14.358,-0.240,0.090
14.361,-0.220,0.095
14.364,-0.220,0.105
14.367,-0.215,0.130
14.369,-0.230,0.140
14.372,-0.230,0.135
14.375,-0.245,0.130
14.378,-0.240,0.125
14.381,-0.230,0.115
14.383,-0.255,0.110
14.386,-0.260,0.110
14.389,-0.270,0.105
14.392,-0.315,0.110
14.394,-0.290,0.105
14.397,-0.265,0.105
14.400,-0.240,0.095
14.403,-0.200,0.100
14.406,-0.180,0.105
14.408,-0.175,0.105
14.411,-0.225,0.120
14.414,-0.255,0.140
14.417,-0.300,0.135
14.419,-0.320,0.115
14.422,-0.315,0.110
14.425,-0.295,0.105
14.428,-0.275,0.105
14.431,-0.245,0.105
14.433,-0.230,0.095
14.436,-0.215,0.095
14.439,-0.190,0.090
14.442,-0.175,0.085
14.444,-0.185,0.095
14.447,-0.205,0.095
14.450,-0.235,0.105
14.453,-0.260,0.095
14.456,-0.270,0.105
14.458,-0.270,0.110
14.461,-0.290,0.125
14.464,-0.295,0.130
14.467,-0.305,0.135
14.469,-0.295,0.145
14.472,-0.270,0.125
14.475,-0.245,0.105
14.478,-0.235,0.085
14.481,-0.215,0.075
14.483,-0.210,0.065
14.486,-0.210,0.060
14.489,-0.220,0.060
14.492,-0.220,0.070
14.494,-0.210,0.080
14.497,-0.205,0.105
14.500,-0.230,0.110
14.503,-0.265,0.155
14.506,-0.280,0.150
14.508,-0.315,0.150
14.511,-0.310,0.135
14.514,-0.295,0.115
14.517,-0.280,0.085
14.519,-0.260,0.070
14.522,-0.245,0.065
14.525,-0.250,0.070
14.528,-0.245,0.085
14.531,-0.240,0.085
14.533,-0.235,0.085
14.536,-0.210,0.085
14.539,-0.190,0.075
14.542,-0.185,0.080
14.544,-0.185,0.090
14.547,-0.220,0.090
14.550,-0.265,0.095
14.553,-0.295,0.105
14.556,-0.295,0.095
14.558,-0.290,0.085
14.561,-0.280,0.095
14.564,-0.275,0.090
14.567,-0.275,0.105
14.569,-0.245,0.100
14.572,-0.230,0.085
14.575,-0.215,0.085
14.578,-0.195,0.070
14.581,-0.190,0.080
14.583,-0.205,0.090
14.586,-0.235,0.090
14.589,-0.265,0.100
14.592,-0.280,0.110
14.594,-0.265,0.115
14.597,-0.270,0.105
14.600,-0.255,0.100
14.603,-0.240,0.105
14.606,-0.215,0.105
14.608,-0.210,0.100
14.611,-0.220,0.100
14.614,-0.215,0.110
14.617,-0.205,0.105
14.619,-0.205,0.105
14.622,-0.190,0.095
14.625,-0.185,0.100
14.628,-0.170,0.115
14.631,-0.160,0.125
14.633,-0.160,0.130
14.636,-0.150,0.140
14.639,-0.150,0.155
14.642,-0.160,0.140
14.644,-0.170,0.125
14.647,-0.185,0.100
14.650,-0.170,0.090
14.653,-0.175,0.075
14.656,-0.165,0.070
14.658,-0.170,0.070
14.661,-0.185,0.065
14.664,-0.195,0.075
14.667,-0.195,0.075
14.669,-0.190,0.080
14.672,-0.170,0.075
14.675,-0.160,0.080
14.678,-0.165,0.070
14.681,-0.185,0.080
14.683,-0.220,0.070
14.686,-0.235,0.055
14.689,-0.240,0.060
14.692,-0.225,0.065
14.694,-0.235,0.060
14.697,-0.230,0.080
14.700,-0.240,0.100
14.703,-0.240,0.120
14.706,-0.235,0.135
14.708,-0.245,0.110
14.711,-0.240,0.110
14.714,-0.240,0.095
14.717,-0.245,0.100
14.719,-0.250,0.080
14.722,-0.255,0.085
14.725,-0.255,0.080
14.728,-0.275,0.080
14.731,-0.255,0.105
14.733,-0.240,0.100
14.736,-0.230,0.120
14.739,-0.220,0.105
14.742,-0.210,0.095
14.744,-0.210,0.110
14.747,-0.220,0.100
14.750,-0.220,0.090
14.753,-0.240,0.090
14.756,-0.250,0.095
14.758,-0.270,0.105
14.761,-0.285,0.100
14.764,-0.270,0.115
14.767,-0.275,0.110
14.769,-0.265,0.120
14.772,-0.245,0.105
14.775,-0.230,0.105
14.778,-0.225,0.110
14.781,-0.225,0.100
14.783,-0.250,0.105
14.786,-0.265,0.110
14.789,-0.270,0.105
14.792,-0.290,0.115
14.794,-0.275,0.105
14.797,-0.275,0.115
14.800,-0.255,0.120
14.803,-0.205,0.125
14.806,-0.185,0.130
14.808,-0.165,0.140
14.811,-0.145,0.150
14.814,-0.120,0.150
14.817,-0.105,0.150
14.819,-0.110,0.125
14.822,-0.125,0.090
14.825,-0.125,0.025
14.828,-0.095,-0.060
14.831,-0.060,-0.155
14.833,0.005,-0.265
14.836,0.080,-0.370
14.839,0.170,-0.470
14.842,0.220,-0.535
14.844,0.185,-0.575
14.847,0.075,-0.565
14.850,-0.115,-0.490
14.853,-0.305,-0.350
14.856,-0.450,-0.180
14.858,-0.525,0.030
14.861,-0.535,0.205
14.864,-0.530,0.350
14.867,-0.490,0.450
14.869,-0.470,0.495
14.872,-0.455,0.505
14.875,-0.445,0.505
14.878,-0.450,0.485
14.881,-0.465,0.495
14.883,-0.470,0.490
14.886,-0.485,0.520
14.889,-0.495,0.535
14.892,-0.470,0.570
14.894,-0.445,0.600
14.897,-0.405,0.625
14.900,-0.380,0.665
14.903,-0.375,0.685
14.906,-0.395,0.710
14.908,-0.420,0.710
14.911,-0.455,0.700
14.914,-0.460,0.675
14.917,-0.460,0.635
14.919,-0.450,0.590
14.922,-0.435,0.520
14.925,-0.405,0.445
14.928,-0.390,0.400
14.931,-0.365,0.330
14.933,-0.335,0.280
14.936,-0.320,0.220
14.939,-0.300,0.175
14.942,-0.290,0.130
14.944,-0.270,0.100
14.947,-0.245,0.075
14.950,-0.235,0.060
14.953,-0.225,0.065
14.956,-0.225,0.050
14.958,-0.240,0.060
14.961,-0.245,0.055
14.964,-0.230,0.055
14.967,-0.210,0.065
14.969,-0.200,0.080
14.972,-0.220,0.085
14.975,-0.255,0.085
14.978,-0.255,0.070
14.981,-0.250,0.065
14.983,-0.240,0.050
14.986,-0.245,0.035
14.989,-0.235,0.045
14.992,-0.235,0.040
14.994,-0.235,0.040
14.997,-0.210,0.040
15.000,-0.215,0.040
15.003,-0.195,0.040
15.006,-0.195,0.045
15.008,-0.195,0.055
15.011,-0.200,0.050
15.014,-0.225,0.050
15.017,-0.235,0.045
15.019,-0.245,0.050
15.022,-0.265,0.015
15.025,-0.250,0.010
15.028,-0.235,-0.005
15.031,-0.200,0.000
15.033,-0.175,0.005
15.036,-0.170,0.035
15.039,-0.185,0.040
15.042,-0.195,0.035
15.044,-0.210,0.025
15.047,-0.195,0.010
15.050,-0.185,-0.015
15.053,-0.170,-0.020
15.056,-0.175,-0.015
15.058,-0.185,0.005
15.061,-0.200,-0.005
15.064,-0.210,-0.015
15.067,-0.210,-0.020
15.069,-0.175,-0.025
15.072,-0.155,-0.030
15.075,-0.130,-0.035
15.078,-0.130,-0.050
15.081,-0.140,-0.070
15.083,-0.150,-0.085
15.086,-0.150,-0.095
15.089,-0.140,-0.095
15.092,-0.135,-0.110
15.094,-0.115,-0.110
15.097,-0.115,-0.115
15.100,-0.115,-0.110
15.103,-0.110,-0.120
15.106,-0.105,-0.125
15.108,-0.100,-0.130
15.111,-0.100,-0.150
15.114,-0.080,-0.160
15.117,-0.085,-0.165
15.119,-0.085,-0.160
15.122,-0.085,-0.175
15.125,-0.080,-0.185
15.128,-0.080,-0.190
15.131,-0.070,-0.185
15.133,-0.060,-0.185
15.136,-0.055,-0.180
15.139,-0.050,-0.165
15.142,-0.055,-0.170
15.144,-0.055,-0.170
15.147,-0.065,-0.165
15.150,-0.060,-0.180
15.153,-0.035,-0.170
15.156,-0.040,-0.185
15.158,-0.045,-0.165
15.161,-0.055,-0.160
15.164,-0.065,-0.130
15.167,-0.060,-0.125
15.169,-0.050,-0.100
15.172,-0.040,-0.095
15.175,-0.035,-0.100
15.178,-0.025,-0.075
15.181,-0.030,-0.065
15.183,-0.045,-0.045
15.186,-0.060,-0.030
15.189,-0.085,-0.015
15.192,-0.110,0.015
15.194,-0.135,0.025
15.197,-0.150,0.040
15.200,-0.155,0.065
15.203,-0.150,0.080
15.206,-0.130,0.085
15.208,-0.125,0.080
15.211,-0.115,0.085
15.214,-0.120,0.075
15.217,-0.130,0.070
15.219,-0.135,0.070
15.222,-0.155,0.080
15.225,-0.165,0.080
15.228,-0.180,0.080
15.231,-0.180,0.075
15.233,-0.185,0.110
15.236,-0.195,0.120
15.239,-0.210,0.125
15.242,-0.240,0.120
15.244,-0.240,0.110
15.247,-0.235,0.095
15.250,-0.240,0.075
15.253,-0.245,0.055
15.256,-0.250,0.055
15.258,-0.255,0.060
15.261,-0.250,0.060
15.264,-0.250,0.065
15.267,-0.220,0.065
15.269,-0.190,0.065
15.272,-0.175,0.065
15.275,-0.185,0.080
15.278,-0.200,0.065
15.281,-0.210,0.070
15.283,-0.230,0.055
15.286,-0.225,0.045
15.289,-0.210,0.040
15.292,-0.170,0.025
15.294,-0.130,0.035
15.297,-0.110,0.055
15.300,-0.105,0.090
15.303,-0.145,0.120
15.306,-0.180,0.140
15.308,-0.215,0.120
15.311,-0.245,0.115
15.314,-0.240,0.095
15.317,-0.210,0.070
15.319,-0.185,0.065
15.322,-0.160,0.050
15.325,-0.145,0.065
15.328,-0.135,0.085
15.331,-0.140,0.090
15.333,-0.150,0.095
15.336,-0.160,0.105
15.339,-0.160,0.115
15.342,-0.175,0.110
15.344,-0.175,0.100
15.347,-0.185,0.100
15.350,-0.175,0.105
15.353,-0.165,0.110
15.356,-0.150,0.105
15.358,-0.145,0.120
15.361,-0.145,0.130
15.364,-0.130,0.155
15.367,-0.130,0.160
15.369,-0.135,0.165
15.372,-0.120,0.175
15.375,-0.120,0.170
15.378,-0.135,0.155
15.381,-0.140,0.145
15.383,-0.140,0.120
15.386,-0.160,0.125
15.389,-0.150,0.115
15.392,-0.135,0.125
15.394,-0.130,0.120
15.397,-0.130,0.135
15.400,-0.130,0.135
15.403,-0.130,0.150
15.406,-0.130,0.145
15.408,-0.115,0.135
15.411,-0.085,0.135
15.414,-0.075,0.135
15.417,-0.090,0.115
15.419,-0.110,0.145
15.422,-0.130,0.140
15.425,-0.160,0.150
15.428,-0.180,0.155
15.431,-0.160,0.135
15.433,-0.135,0.135
15.436,-0.105,0.135
15.439,-0.095,0.130
15.442,-0.105,0.120
15.444,-0.120,0.125
15.447,-0.125,0.135
15.450,-0.130,0.130
15.453,-0.140,0.130
15.456,-0.160,0.125
15.458,-0.175,0.125
15.461,-0.145,0.120
15.464,-0.130,0.120
15.467,-0.105,0.130
15.469,-0.110,0.150
15.472,-0.125,0.150
15.475,-0.140,0.160
15.478,-0.135,0.170
15.481,-0.110,0.165
15.483,-0.085,0.165
15.486,-0.070,0.170
15.489,-0.080,0.180
15.492,-0.095,0.195
15.494,-0.095,0.180
15.497,-0.100,0.130
15.500,-0.065,0.050
15.503,0.005,-0.065
15.506,0.095,-0.185
15.508,0.180,-0.295
15.511,0.240,-0.375
15.514,0.315,-0.465
15.517,0.320,-0.500
15.519,0.260,-0.505
15.522,0.115,-0.470
15.525,-0.075,-0.375
15.528,-0.250,-0.240
15.531,-0.385,-0.075
15.533,-0.435,0.110
15.536,-0.415,0.260
15.539,-0.350,0.375
15.542,-0.290,0.445
15.544,-0.255,0.465
15.547,-0.245,0.480
15.550,-0.260,0.465
15.553,-0.295,0.450
15.556,-0.360,0.465
15.558,-0.400,0.480
15.561,-0.430,0.510
15.564,-0.400,0.535
15.567,-0.350,0.570
15.569,-0.275,0.585
15.572,-0.215,0.605
15.575,-0.205,0.625
15.578,-0.215,0.625
15.581,-0.250,0.635
15.583,-0.270,0.635
15.586,-0.325,0.615
15.589,-0.355,0.585
15.592,-0.385,0.560
15.594,-0.370,0.505
15.597,-0.350,0.460
15.600,-0.295,0.390
15.603,-0.255,0.320
15.606,-0.210,0.260
15.608,-0.180,0.205
15.611,-0.165,0.150
15.614,-0.160,0.110
15.617,-0.145,0.055
15.619,-0.130,0.050
15.622,-0.095,0.020
15.625,-0.085,0.030
15.628,-0.080,0.035
15.631,-0.075,0.060
15.633,-0.105,0.075
15.636,-0.135,0.095
15.639,-0.150,0.110
15.642,-0.170,0.090
15.644,-0.170,0.070
15.647,-0.155,0.050
15.650,-0.115,0.030
15.653,-0.085,0.020
15.656,-0.065,0.010
15.658,-0.080,0.030
15.661,-0.105,0.030
15.664,-0.130,0.050
15.667,-0.140,0.060
15.669,-0.150,0.045
15.672,-0.135,0.055
15.675,-0.125,0.040
15.678,-0.105,0.020
15.681,-0.080,-0.005
15.683,-0.080,-0.020
15.686,-0.075,-0.015
15.689,-0.085,-0.015
15.692,-0.100,-0.010
15.694,-0.100,-0.015
15.697,-0.105,-0.010
15.700,-0.085,-0.010
15.703,-0.080,-0.005
15.706,-0.060,-0.010
15.708,-0.055,-0.005
15.711,-0.060,-0.030
15.714,-0.055,-0.040
15.717,-0.085,-0.040
15.719,-0.080,-0.045
15.722,-0.075,-0.060
15.725,-0.085,-0.045
15.728,-0.065,-0.045
15.731,-0.070,-0.045
15.733,-0.070,-0.030
15.736,-0.075,-0.045
15.739,-0.060,-0.045
15.742,-0.045,-0.055
15.744,-0.040,-0.055
15.747,-0.020,-0.080
15.750,-0.025,-0.100
15.753,-0.020,-0.105
15.756,-0.020,-0.115
15.758,-0.025,-0.135
15.761,-0.005,-0.135
15.764,0.015,-0.130
15.767,0.020,-0.135
15.769,0.030,-0.145
15.772,0.045,-0.145
15.775,0.050,-0.155
15.778,0.055,-0.160
15.781,0.050,-0.180
15.783,0.055,-0.200
15.786,0.050,-0.215
15.789,0.060,-0.215
15.792,0.090,-0.225
15.794,0.100,-0.215
15.797,0.105,-0.200
15.800,0.080,-0.190
15.803,0.075,-0.185
15.806,0.065,-0.200
15.808,0.090,-0.205
15.811,0.110,-0.220
15.814,0.105,-0.235
15.817,0.115,-0.235
15.819,0.115,-0.230
15.822,0.105,-0.215
15.825,0.100,-0.205
15.828,0.085,-0.190
15.831,0.075,-0.170
15.833,0.075,-0.150
15.836,0.080,-0.130
15.839,0.080,-0.105
15.842,0.070,-0.095
15.844,0.055,-0.085
15.847,0.050,-0.080
15.850,0.045,-0.090
15.853,0.045,-0.085
15.856,0.020,-0.070
15.858,0.010,-0.035
15.861,0.005,-0.015
15.864,-0.015,0.005
15.867,-0.040,0.030
15.869,-0.050,0.050
15.872,-0.060,0.050
15.875,-0.065,0.050
15.878,-0.070,0.045
15.881,-0.070,0.045
15.883,-0.075,0.040
15.886,-0.085,0.045
15.889,-0.085,0.045
15.892,-0.090,0.045
15.894,-0.080,0.060
15.897,-0.080,0.090
15.900,-0.095,0.115
15.903,-0.110,0.120
15.906,-0.120,0.115
15.908,-0.130,0.105
15.911,-0.115,0.095
15.914,-0.105,0.095
15.917,-0.110,0.075
15.919,-0.130,0.080
15.922,-0.155,0.095
15.925,-0.190,0.110
15.928,-0.200,0.095
15.931,-0.205,0.120
15.933,-0.190,0.115
15.936,-0.180,0.110
15.939,-0.160,0.110
15.942,-0.150,0.110
15.944,-0.130,0.110
15.947,-0.125,0.095
15.950,-0.130,0.090
15.953,-0.140,0.070
15.956,-0.145,0.075
15.958,-0.150,0.070
15.961,-0.150,0.065
15.964,-0.145,0.095
15.967,-0.130,0.075
15.969,-0.105,0.080
15.972,-0.090,0.085
15.975,-0.095,0.080
15.978,-0.130,0.090
15.981,-0.140,0.085
15.983,-0.170,0.085
15.986,-0.195,0.080
15.989,-0.180,0.075
15.992,-0.160,0.050
15.994,-0.120,0.050
15.997,-0.105,0.080
16.000,-0.135,0.080
16.003,-0.140,0.090
16.006,-0.165,0.085
16.008,-0.185,0.085
16.011,-0.200,0.070
16.014,-0.200,0.050
16.017,-0.200,0.025
16.019,-0.215,0.020
16.022,-0.220,0.005
16.025,-0.215,0.020
16.028,-0.210,0.025
16.031,-0.215,0.040
16.033,-0.190,0.040
16.036,-0.175,0.055
16.039,-0.165,0.060
16.042,-0.180,0.055
16.044,-0.180,0.045
16.047,-0.195,0.040
16.050,-0.190,0.045
16.053,-0.185,0.030
16.056,-0.180,0.035
16.058,-0.150,0.045
16.061,-0.115,0.030
16.064,-0.095,0.040
16.067,-0.090,0.065
16.069,-0.100,0.070
16.072,-0.135,0.095
16.075,-0.165,0.095
16.078,-0.185,0.075
16.081,-0.190,0.055
16.083,-0.170,0.045
16.086,-0.160,0.015
16.089,-0.150,0.025
16.092,-0.140,0.025
16.094,-0.150,0.035
16.097,-0.170,0.040
16.100,-0.170,0.040
16.103,-0.170,0.055
16.106,-0.170,0.055
16.108,-0.175,0.070
16.111,-0.180,0.080
16.114,-0.215,0.095
16.117,-0.235,0.100
16.119,-0.245,0.090
16.122,-0.215,0.075
16.125,-0.190,0.080
16.128,-0.165,0.080
16.131,-0.150,0.090
16.133,-0.125,0.095
16.136,-0.120,0.100
16.139,-0.135,0.125
16.142,-0.170,0.140
16.144,-0.205,0.140
16.147,-0.230,0.130
16.150,-0.255,0.135
16.153,-0.245,0.110
16.156,-0.225,0.105
16.158,-0.200,0.100
16.161,-0.185,0.095
16.164,-0.160,0.090
16.167,-0.150,0.100
16.169,-0.130,0.100
16.172,-0.105,0.095
16.175,-0.090,0.100
16.178,-0.105,0.110
16.181,-0.145,0.105
16.183,-0.190,0.120
16.186,-0.255,0.140
16.189,-0.270,0.130
16.192,-0.280,0.125
16.194,-0.280,0.115
16.197,-0.250,0.125
16.200,-0.210,0.125
16.203,-0.180,0.115
16.206,-0.160,0.120
16.208,-0.135,0.090
16.211,-0.110,0.065
16.214,-0.070,0.050
16.217,-0.060,0.045
16.219,-0.080,0.065
16.222,-0.120,0.105
16.225,-0.180,0.140
16.228,-0.250,0.165
16.231,-0.275,0.195
16.233,-0.270,0.200
16.236,-0.235,0.195
16.239,-0.200,0.200
16.242,-0.145,0.180
16.244,-0.110,0.180
16.247,-0.075,0.165
16.250,-0.035,0.120
16.253,-0.005,0.055
16.256,0.060,-0.015
16.258,0.130,-0.135
16.261,0.210,-0.230
16.264,0.300,-0.330
16.267,0.380,-0.410
16.269,0.405,-0.470
16.272,0.345,-0.475
16.275,0.155,-0.450
16.278,-0.105,-0.380
16.281,-0.330,-0.260
16.283,-0.490,-0.125
16.286,-0.555,0.040
16.289,-0.565,0.220
16.292,-0.535,0.360
16.294,-0.485,0.435
16.297,-0.440,0.470
16.300,-0.400,0.470
16.303,-0.345,0.480
16.306,-0.320,0.460
16.308,-0.330,0.460
16.311,-0.360,0.480
16.314,-0.405,0.500
16.317,-0.455,0.545
16.319,-0.475,0.560
16.322,-0.460,0.575
16.325,-0.430,0.600
16.328,-0.390,0.615
16.331,-0.355,0.625
16.333,-0.340,0.635
16.336,-0.355,0.635
16.339,-0.370,0.650
16.342,-0.390,0.615
16.344,-0.395,0.595
16.347,-0.410,0.545
16.350,-0.400,0.495
16.353,-0.385,0.420
16.356,-0.375,0.350
16.358,-0.350,0.285
16.361,-0.310,0.225
16.364,-0.270,0.165
16.367,-0.230,0.115
16.369,-0.215,0.100
16.372,-0.185,0.065
16.375,-0.170,0.040
16.378,-0.145,0.030
16.381,-0.145,0.020
16.383,-0.160,0.030
16.386,-0.190,0.035
16.389,-0.240,0.050
16.392,-0.255,0.050
16.394,-0.260,0.055
16.397,-0.245,0.050
16.400,-0.215,0.050
16.403,-0.190,0.055
16.406,-0.155,0.035
16.408,-0.155,0.035
16.411,-0.145,0.025
16.414,-0.180,0.020
16.417,-0.190,0.030
16.419,-0.210,0.045
16.422,-0.225,0.045
16.425,-0.230,0.025
16.428,-0.220,0.040
16.431,-0.215,0.045
16.433,-0.200,0.040
16.436,-0.185,0.020
16.439,-0.165,0.025
16.442,-0.160,0.025
16.444,-0.155,0.020
16.447,-0.175,0.015
16.450,-0.185,0.005
16.453,-0.195,0.005
16.456,-0.210,0.000
16.458,-0.190,-0.005
16.461,-0.170,0.005
16.464,-0.175,0.010
16.467,-0.175,0.020
16.469,-0.180,0.025
16.472,-0.170,0.025
16.475,-0.145,0.010
16.478,-0.135,-0.015
16.481,-0.095,-0.050
16.483,-0.060,-0.075
16.486,-0.055,-0.075
16.489,-0.080,-0.045
16.492,-0.120,-0.030
16.494,-0.165,-0.020
16.497,-0.200,-0.015
16.500,-0.220,-0.030
16.503,-0.205,-0.025
16.506,-0.180,-0.055
16.508,-0.155,-0.065
16.511,-0.115,-0.095
16.514,-0.090,-0.130
16.517,-0.055,-0.130
16.519,-0.050,-0.170
16.522,-0.025,-0.190
16.525,-0.005,-0.190
16.528,0.010,-0.175
16.531,0.015,-0.165
16.533,-0.020,-0.140
16.536,-0.050,-0.130
16.539,-0.060,-0.140
16.542,-0.065,-0.155
16.544,-0.045,-0.175
16.547,-0.020,-0.205
16.550,0.000,-0.230
16.553,0.030,-0.235
16.556,0.030,-0.225
16.558,0.020,-0.215
16.561,0.005,-0.205
16.564,0.005,-0.195
16.567,0.005,-0.170
16.569,0.015,-0.170
16.572,0.030,-0.160
16.575,0.045,-0.150
16.578,0.045,-0.145
16.581,0.025,-0.145
16.583,-0.005,-0.125
16.586,-0.045,-0.115
16.589,-0.060,-0.090
16.592,-0.075,-0.060
16.594,-0.075,-0.040
16.597,-0.070,-0.020
16.600,-0.085,-0.005
16.603,-0.090,0.010
16.606,-0.080,0.015
16.608,-0.070,0.020
16.611,-0.065,0.050
16.614,-0.080,0.065
16.617,-0.105,0.065
16.619,-0.140,0.070
16.622,-0.160,0.075
16.625,-0.170,0.080
16.628,-0.185,0.095
16.631,-0.180,0.115
16.633,-0.170,0.115
16.636,-0.165,0.105
16.639,-0.165,0.110
16.642,-0.170,0.095
16.644,-0.190,0.115
16.647,-0.180,0.095
16.650,-0.195,0.110
16.653,-0.205,0.095
16.656,-0.205,0.090
16.658,-0.215,0.085
16.661,-0.205,0.085
16.664,-0.190,0.085
16.667,-0.165,0.100
16.669,-0.155,0.095
16.672,-0.145,0.115
16.675,-0.165,0.120
16.678,-0.185,0.120
16.681,-0.200,0.120
16.683,-0.215,0.115
16.686,-0.230,0.105
16.689,-0.220,0.105
16.692,-0.225,0.105
16.694,-0.215,0.095
16.697,-0.225,0.110
16.700,-0.215,0.115
16.703,-0.220,0.125
16.706,-0.215,0.135
16.708,-0.210,0.125
16.711,-0.200,0.120
16.714,-0.195,0.090
16.717,-0.190,0.095
16.719,-0.185,0.075
16.722,-0.175,0.075
16.725,-0.170,0.080
16.728,-0.160,0.085
16.731,-0.155,0.090
16.733,-0.160,0.100
16.736,-0.165,0.110
16.739,-0.175,0.120
16.742,-0.175,0.120
16.744,-0.175,0.095
16.747,-0.170,0.080
16.750,-0.165,0.070
16.753,-0.155,0.065
16.756,-0.155,0.070
16.758,-0.175,0.085
16.761,-0.180,0.090
16.764,-0.195,0.110
16.767,-0.205,0.100
16.769,-0.190,0.095
16.772,-0.170,0.110
16.775,-0.150,0.095
16.778,-0.150,0.095
16.781,-0.150,0.085
16.783,-0.150,0.075
16.786,-0.175,0.075
16.789,-0.200,0.100
16.792,-0.225,0.095
16.794,-0.240,0.095
16.797,-0.230,0.110
16.800,-0.220,0.105
16.803,-0.205,0.115
16.806,-0.205,0.110
16.808,-0.195,0.095
16.811,-0.175,0.080
16.814,-0.160,0.070
16.817,-0.160,0.055
16.819,-0.165,0.060
16.822,-0.175,0.075
16.825,-0.190,0.075
16.828,-0.205,0.080
16.831,-0.195,0.080
16.833,-0.200,0.095
16.836,-0.195,0.115
16.839,-0.190,0.110
16.842,-0.205,0.115
16.844,-0.205,0.110
16.847,-0.210,0.095
16.850,-0.225,0.085
16.853,-0.235,0.070
16.856,-0.230,0.070
16.858,-0.230,0.075
16.861,-0.220,0.085
16.864,-0.205,0.095
16.867,-0.200,0.095
16.869,-0.200,0.110
16.872,-0.205,0.120
16.875,-0.215,0.125
16.878,-0.225,0.120
16.881,-0.215,0.105
16.883,-0.225,0.085
16.886,-0.205,0.080
16.889,-0.175,0.055
16.892,-0.160,0.060
16.894,-0.150,0.065
16.897,-0.155,0.090
16.900,-0.190,0.110
16.903,-0.230,0.120
16.906,-0.240,0.130
16.908,-0.250,0.115
16.911,-0.235,0.100
16.914,-0.200,0.090
16.917,-0.170,0.090
16.919,-0.175,0.085
16.922,-0.195,0.090
16.925,-0.220,0.100
16.928,-0.235,0.115
16.931,-0.240,0.105
16.933,-0.220,0.105
16.936,-0.215,0.100
16.939,-0.185,0.100
16.942,-0.180,0.110
16.944,-0.180,0.095
16.947,-0.190,0.115
16.950,-0.210,0.095
16.953,-0.215,0.085
16.956,-0.220,0.080
16.958,-0.225,0.075
16.961,-0.225,0.095
16.964,-0.230,0.105
16.967,-0.220,0.100
16.969,-0.220,0.105
16.972,-0.195,0.105
16.975,-0.195,0.095
16.978,-0.185,0.090
16.981,-0.170,0.080
16.983,-0.160,0.065
16.986,-0.160,0.075
16.989,-0.190,0.085
16.992,-0.215,0.105
16.994,-0.225,0.100
16.997,-0.225,0.090
17.000,-0.210,0.105
17.003,-0.210,0.105
17.006,-0.200,0.115
17.008,-0.225,0.120
17.011,-0.230,0.110
17.014,-0.240,0.100
17.017,-0.240,0.095
17.019,-0.240,0.080
17.022,-0.225,0.050
17.025,-0.215,0.065
17.028,-0.195,0.050
17.031,-0.175,0.070
17.033,-0.160,0.075
17.036,-0.170,0.110
17.039,-0.180,0.125
17.042,-0.200,0.120
17.044,-0.220,0.105
17.047,-0.210,0.095
17.050,-0.220,0.075
17.053,-0.245,0.075
17.056,-0.240,0.075
17.058,-0.245,0.080
17.061,-0.235,0.090
17.064,-0.220,0.100
17.067,-0.225,0.115
17.069,-0.230,0.115
17.072,-0.225,0.105
17.075,-0.215,0.100
17.078,-0.200,0.105
17.081,-0.195,0.095
17.083,-0.195,0.090
17.086,-0.205,0.085
17.089,-0.215,0.080
17.092,-0.220,0.065
17.094,-0.210,0.075
17.097,-0.210,0.085
