'Elapsed time','MLII','V1'
'seconds','mV','mV'
0.000,-0.095,0.010
0.003,-0.095,0.010
0.006,-0.095,0.010
0.008,-0.095,0.010
0.011,-0.095,0.010
0.014,-0.095,0.010
0.017,-0.095,0.010
0.019,-0.095,0.010
0.022,-0.095,0.010
0.025,-0.090,0.020
0.028,-0.085,0.040
0.031,-0.070,0.030
0.033,-0.060,0.035
0.036,-0.040,0.020
0.039,-0.030,0.015
0.042,-0.015,0.000
0.044,0.010,0.000
0.047,0.055,0.005
0.050,0.095,0.005
0.053,0.150,0.000
0.056,0.215,0.010
0.058,0.290,0.010
0.061,0.365,0.005
0.064,0.445,-0.010
0.067,0.545,-0.005
0.069,0.640,-0.025
0.072,0.755,-0.035
0.075,0.850,-0.055
0.078,0.895,-0.100
0.081,0.875,-0.150
0.083,0.745,-0.205
0.086,0.490,-0.280
0.089,0.130,-0.340
0.092,-0.325,-0.390
0.094,-0.765,-0.400
0.097,-1.150,-0.410
0.100,-1.450,-0.400
0.103,-1.670,-0.400
0.106,-1.825,-0.435
0.108,-1.955,-0.455
0.111,-2.065,-0.470
0.114,-2.150,-0.460
0.117,-2.230,-0.415
0.119,-2.265,-0.320
0.122,-2.290,-0.210
0.125,-2.255,-0.045
0.128,-2.215,0.120
0.131,-2.140,0.300
0.133,-2.050,0.455
0.136,-1.930,0.595
0.139,-1.820,0.715
0.142,-1.715,0.805
0.144,-1.590,0.870
0.147,-1.505,0.915
0.150,-1.430,0.955
0.153,-1.360,0.995
0.156,-1.290,1.025
0.158,-1.210,1.035
0.161,-1.110,1.005
0.164,-0.995,0.955
0.167,-0.880,0.850
0.169,-0.780,0.680
0.172,-0.700,0.460
0.175,-0.630,0.225
0.178,-0.575,-0.010
0.181,-0.530,-0.205
0.183,-0.490,-0.350
0.186,-0.445,-0.425
0.189,-0.345,-0.440
0.192,-0.230,-0.420
0.194,-0.090,-0.360
0.197,0.035,-0.310
0.200,0.185,-0.260
0.203,0.270,-0.205
0.206,0.330,-0.170
0.208,0.350,-0.130
0.211,0.350,-0.115
0.214,0.325,-0.110
0.217,0.300,-0.110
0.219,0.310,-0.130
0.222,0.315,-0.115
0.225,0.330,-0.110
0.228,0.350,-0.105
0.231,0.375,-0.105
0.233,0.395,-0.090
0.236,0.390,-0.090
0.239,0.410,-0.095
0.242,0.435,-0.095
0.244,0.445,-0.110
0.247,0.450,-0.115
0.250,0.460,-0.130
0.253,0.465,-0.135
0.256,0.480,-0.140
0.258,0.480,-0.140
0.261,0.510,-0.130
0.264,0.535,-0.110
0.267,0.560,-0.100
0.269,0.575,-0.115
0.272,0.610,-0.105
0.275,0.630,-0.110
0.278,0.635,-0.130
0.281,0.640,-0.135
0.283,0.655,-0.145
0.286,0.670,-0.155
0.289,0.685,-0.150
0.292,0.705,-0.145
0.294,0.725,-0.140
0.297,0.750,-0.130
0.300,0.775,-0.130
0.303,0.805,-0.120
0.306,0.825,-0.140
0.308,0.850,-0.150
0.311,0.860,-0.170
0.314,0.865,-0.180
0.317,0.875,-0.170
0.319,0.895,-0.175
0.322,0.910,-0.185
0.325,0.925,-0.170
0.328,0.935,-0.185
0.331,0.945,-0.180
0.333,0.950,-0.195
0.336,0.950,-0.200
0.339,0.945,-0.210
0.342,0.940,-0.220
0.344,0.940,-0.225
0.347,0.925,-0.240
0.350,0.905,-0.250
0.353,0.880,-0.265
0.356,0.850,-0.260
0.358,0.820,-0.260
0.361,0.810,-0.260
0.364,0.780,-0.270
0.367,0.760,-0.260
0.369,0.735,-0.255
0.372,0.700,-0.255
0.375,0.665,-0.245
0.378,0.625,-0.245
0.381,0.585,-0.255
0.383,0.550,-0.265
0.386,0.505,-0.265
0.389,0.470,-0.255
0.392,0.430,-0.230
0.394,0.400,-0.220
0.397,0.390,-0.195
0.400,0.360,-0.170
0.403,0.340,-0.160
0.406,0.310,-0.140
0.408,0.280,-0.120
0.411,0.240,-0.120
0.414,0.210,-0.100
0.417,0.180,-0.095
0.419,0.155,-0.080
0.422,0.130,-0.070
0.425,0.105,-0.055
0.428,0.090,-0.035
0.431,0.085,-0.015
0.433,0.065,0.005
0.436,0.060,0.020
0.439,0.040,0.030
0.442,0.025,0.015
0.444,0.015,0.020
0.447,-0.005,0.010
0.450,-0.020,0.005
0.453,-0.010,0.010
0.456,-0.020,0.020
0.458,-0.020,0.020
0.461,-0.020,0.035
0.464,-0.010,0.035
0.467,0.000,0.045
0.469,0.010,0.025
0.472,0.000,0.025
0.475,-0.005,0.035
0.478,-0.005,0.030
0.481,-0.010,0.035
0.483,-0.010,0.025
0.486,-0.020,0.020
0.489,-0.010,0.025
0.492,-0.010,0.030
0.494,-0.015,0.030
0.497,-0.005,0.025
0.500,-0.005,0.030
0.503,0.005,0.050
0.506,-0.005,0.040
0.508,-0.010,0.035
0.511,-0.015,0.020
0.514,-0.025,0.025
0.517,-0.040,0.025
0.519,-0.040,0.010
0.522,-0.040,0.020
0.525,-0.050,0.020
0.528,-0.045,0.025
0.531,-0.050,0.040
0.533,-0.030,0.050
0.536,-0.030,0.055
0.539,-0.025,0.045
0.542,-0.035,0.045
0.544,-0.050,0.035
0.547,-0.055,0.020
0.550,-0.060,0.005
0.553,-0.070,-0.005
0.556,-0.070,-0.005
0.558,-0.065,0.015
0.561,-0.055,0.025
0.564,-0.045,0.040
0.567,-0.040,0.045
0.569,-0.040,0.050
0.572,-0.050,0.035
0.575,-0.055,0.030
0.578,-0.060,0.010
0.581,-0.065,0.005
0.583,-0.080,0.000
0.586,-0.080,-0.005
0.589,-0.075,0.015
0.592,-0.095,0.015
0.594,-0.085,0.015
0.597,-0.070,0.025
0.600,-0.065,0.030
0.603,-0.055,0.025
0.606,-0.060,0.005
0.608,-0.075,0.005
0.611,-0.075,0.010
0.614,-0.095,0.000
0.617,-0.085,0.015
0.619,-0.100,0.005
0.622,-0.100,0.000
0.625,-0.090,0.005
0.628,-0.090,0.005
0.631,-0.085,0.010
0.633,-0.085,0.000
0.636,-0.070,0.005
0.639,-0.100,0.015
0.642,-0.085,0.010
0.644,-0.075,-0.005
0.647,-0.085,-0.010
0.650,-0.085,0.000
0.653,-0.100,-0.020
0.656,-0.100,-0.015
0.658,-0.100,-0.010
0.661,-0.090,-0.020
0.664,-0.100,-0.010
0.667,-0.085,0.005
0.669,-0.080,0.015
0.672,-0.090,0.010
0.675,-0.095,0.020
0.678,-0.085,0.005
0.681,-0.085,-0.015
0.683,-0.085,-0.015
0.686,-0.095,-0.020
0.689,-0.095,-0.015
0.692,-0.090,-0.005
0.694,-0.090,0.000
0.697,-0.090,0.015
0.700,-0.080,0.000
0.703,-0.075,0.010
0.706,-0.080,0.010
0.708,-0.060,0.005
0.711,-0.040,0.005
0.714,-0.035,0.025
0.717,-0.030,0.055
0.719,-0.010,0.070
0.722,0.010,0.115
0.725,0.025,0.145
0.728,0.045,0.185
0.731,0.065,0.185
0.733,0.080,0.175
0.736,0.100,0.190
0.739,0.120,0.165
0.742,0.145,0.155
0.744,0.180,0.125
0.747,0.200,0.085
0.750,0.215,0.065
0.753,0.215,0.040
0.756,0.215,0.010
0.758,0.180,0.000
0.761,0.155,-0.015
0.764,0.145,0.005
0.767,0.155,0.000
0.769,0.165,0.010
0.772,0.170,0.010
0.775,0.170,-0.015
0.778,0.150,-0.050
0.781,0.125,-0.080
0.783,0.095,-0.110
0.786,0.055,-0.115
0.789,0.030,-0.115
0.792,0.000,-0.080
0.794,-0.025,-0.045
0.797,-0.035,-0.030
0.800,-0.045,-0.020
0.803,-0.045,-0.005
0.806,-0.065,-0.020
0.808,-0.085,-0.015
0.811,-0.115,-0.040
0.814,-0.140,-0.040
0.817,-0.145,-0.050
0.819,-0.145,-0.045
0.822,-0.155,-0.040
0.825,-0.135,-0.035
0.828,-0.135,-0.040
0.831,-0.135,-0.045
0.833,-0.130,-0.045
0.836,-0.105,-0.045
0.839,-0.105,-0.055
0.842,-0.095,-0.045
0.844,-0.105,-0.040
0.847,-0.110,-0.020
0.850,-0.115,0.000
0.853,-0.100,0.020
0.856,-0.050,0.080
0.858,0.030,0.105
0.861,0.170,0.130
0.864,0.360,0.075
0.867,0.545,0.005
0.869,0.755,-0.125
0.872,0.955,-0.325
0.875,1.135,-0.560
0.878,1.300,-0.855
0.881,1.460,-1.215
0.883,1.580,-1.570
0.886,1.655,-1.890
0.889,1.680,-2.120
0.892,1.650,-2.220
0.894,1.570,-2.205
0.897,1.420,-2.110
0.900,1.195,-1.960
0.903,0.910,-1.765
0.906,0.610,-1.550
0.908,0.340,-1.305
0.911,0.130,-1.060
0.914,-0.015,-0.855
0.917,-0.090,-0.680
0.919,-0.135,-0.575
0.922,-0.150,-0.475
0.925,-0.170,-0.410
0.928,-0.180,-0.325
0.931,-0.200,-0.265
0.933,-0.235,-0.185
0.936,-0.280,-0.120
0.939,-0.300,-0.085
0.942,-0.310,-0.040
0.944,-0.320,-0.025
0.947,-0.330,-0.005
0.950,-0.330,0.005
0.953,-0.340,0.000
0.956,-0.345,0.005
0.958,-0.350,0.030
0.961,-0.345,0.040
0.964,-0.345,0.055
0.967,-0.350,0.060
0.969,-0.355,0.085
0.972,-0.350,0.070
0.975,-0.355,0.085
0.978,-0.355,0.075
0.981,-0.355,0.090
0.983,-0.365,0.085
0.986,-0.380,0.095
0.989,-0.380,0.100
0.992,-0.385,0.095
0.994,-0.380,0.110
0.997,-0.370,0.115
1.000,-0.370,0.140
1.003,-0.360,0.165
1.006,-0.370,0.175
1.008,-0.375,0.190
1.011,-0.385,0.175
1.014,-0.385,0.175
1.017,-0.385,0.175
1.019,-0.405,0.165
1.022,-0.400,0.170
1.025,-0.405,0.190
1.028,-0.410,0.215
1.031,-0.410,0.230
1.033,-0.420,0.245
1.036,-0.425,0.275
1.039,-0.420,0.260
1.042,-0.425,0.240
1.044,-0.445,0.250
1.047,-0.455,0.255
1.050,-0.475,0.250
1.053,-0.490,0.270
1.056,-0.495,0.265
1.058,-0.510,0.295
1.061,-0.525,0.325
1.064,-0.525,0.325
1.067,-0.535,0.330
1.069,-0.555,0.345
1.072,-0.560,0.340
1.075,-0.575,0.345
1.078,-0.600,0.345
1.081,-0.630,0.350
1.083,-0.655,0.360
1.086,-0.665,0.360
1.089,-0.665,0.375
1.092,-0.680,0.390
1.094,-0.695,0.405
1.097,-0.695,0.405
1.100,-0.700,0.410
1.103,-0.700,0.415
1.106,-0.700,0.420
1.108,-0.705,0.420
1.111,-0.720,0.420
1.114,-0.720,0.420
1.117,-0.715,0.425
1.119,-0.715,0.415
1.122,-0.705,0.415
1.125,-0.685,0.405
1.128,-0.670,0.405
1.131,-0.650,0.400
1.133,-0.635,0.405
1.136,-0.605,0.400
1.139,-0.590,0.385
1.142,-0.555,0.365
1.144,-0.545,0.345
1.147,-0.520,0.320
1.150,-0.500,0.290
1.153,-0.475,0.255
1.156,-0.435,0.235
1.158,-0.410,0.230
1.161,-0.370,0.225
1.164,-0.345,0.210
1.167,-0.325,0.205
1.169,-0.295,0.195
1.172,-0.275,0.155
1.175,-0.255,0.150
1.178,-0.245,0.120
1.181,-0.230,0.090
1.183,-0.220,0.070
1.186,-0.220,0.060
1.189,-0.200,0.050
1.192,-0.190,0.060
1.194,-0.185,0.065
1.197,-0.180,0.070
1.200,-0.170,0.065
1.203,-0.170,0.055
1.206,-0.165,0.045
1.208,-0.150,0.035
1.211,-0.160,0.030
1.214,-0.165,0.020
1.217,-0.180,0.025
1.219,-0.175,0.020
1.222,-0.170,0.025
1.225,-0.175,0.035
1.228,-0.160,0.040
1.231,-0.155,0.035
1.233,-0.165,0.035
1.236,-0.150,0.035
1.239,-0.150,0.035
1.242,-0.165,0.040
1.244,-0.165,0.025
1.247,-0.185,0.035
1.250,-0.175,0.030
1.253,-0.190,0.035
1.256,-0.195,0.035
1.258,-0.190,0.035
1.261,-0.195,0.040
1.264,-0.170,0.040
1.267,-0.160,0.035
1.269,-0.160,0.045
1.272,-0.165,0.055
1.275,-0.165,0.050
1.278,-0.160,0.055
1.281,-0.185,0.045
1.283,-0.190,0.050
1.286,-0.195,0.050
1.289,-0.185,0.035
1.292,-0.190,0.035
1.294,-0.150,0.045
1.297,-0.135,0.055
1.300,-0.105,0.070
1.303,-0.075,0.080
1.306,-0.050,0.085
1.308,-0.025,0.100
1.311,-0.005,0.125
1.314,0.000,0.145
1.317,0.025,0.175
1.319,0.035,0.195
1.322,0.065,0.235
1.325,0.085,0.275
1.328,0.125,0.305
1.331,0.175,0.320
1.333,0.225,0.355
1.336,0.300,0.370
1.339,0.380,0.375
1.342,0.495,0.380
1.344,0.600,0.335
1.347,0.715,0.280
1.350,0.800,0.220
1.353,0.870,0.155
1.356,0.930,0.105
1.358,0.980,0.065
1.361,1.020,0.025
1.364,1.105,0.000
1.367,1.195,-0.025
1.369,1.285,-0.075
1.372,1.390,-0.135
1.375,1.465,-0.220
1.378,1.515,-0.335
1.381,1.550,-0.460
1.383,1.545,-0.605
1.386,1.500,-0.730
1.389,1.385,-0.855
1.392,1.195,-0.950
1.394,0.885,-1.030
1.397,0.495,-1.105
1.400,0.040,-1.195
1.403,-0.460,-1.310
1.406,-0.905,-1.420
1.408,-1.265,-1.565
1.411,-1.545,-1.660
1.414,-1.680,-1.705
1.417,-1.700,-1.710
1.419,-1.655,-1.650
1.422,-1.565,-1.575
1.425,-1.440,-1.475
1.428,-1.300,-1.340
1.431,-1.200,-1.235
1.433,-1.100,-1.080
1.436,-1.010,-0.925
1.439,-0.920,-0.765
1.442,-0.805,-0.595
1.444,-0.700,-0.445
1.447,-0.585,-0.330
1.450,-0.500,-0.250
1.453,-0.455,-0.175
1.456,-0.430,-0.130
1.458,-0.420,-0.100
1.461,-0.420,-0.065
1.464,-0.425,-0.040
1.467,-0.430,-0.020
1.469,-0.420,-0.005
1.472,-0.410,0.010
1.475,-0.410,0.005
1.478,-0.405,0.015
1.481,-0.405,0.015
1.483,-0.415,0.000
1.486,-0.410,0.010
1.489,-0.420,0.015
1.492,-0.430,0.045
1.494,-0.430,0.055
1.497,-0.415,0.060
1.500,-0.415,0.075
1.503,-0.390,0.075
1.506,-0.400,0.070
1.508,-0.400,0.080
1.511,-0.405,0.085
1.514,-0.420,0.085
1.517,-0.415,0.095
1.519,-0.415,0.080
1.522,-0.425,0.100
1.525,-0.425,0.110
1.528,-0.425,0.120
1.531,-0.430,0.120
1.533,-0.430,0.125
1.536,-0.420,0.135
1.539,-0.415,0.145
1.542,-0.415,0.150
1.544,-0.420,0.170
1.547,-0.420,0.175
1.550,-0.430,0.160
1.553,-0.435,0.170
1.556,-0.435,0.175
1.558,-0.430,0.195
1.561,-0.430,0.220
1.564,-0.415,0.245
1.567,-0.410,0.265
1.569,-0.405,0.275
1.572,-0.405,0.285
1.575,-0.375,0.295
1.578,-0.370,0.300
1.581,-0.375,0.310
1.583,-0.360,0.325
1.586,-0.350,0.330
1.589,-0.330,0.340
1.592,-0.325,0.370
1.594,-0.305,0.385
1.597,-0.285,0.410
1.600,-0.270,0.425
1.603,-0.245,0.440
1.606,-0.235,0.435
1.608,-0.225,0.440
1.611,-0.205,0.430
1.614,-0.200,0.420
1.617,-0.200,0.425
1.619,-0.190,0.435
1.622,-0.185,0.435
1.625,-0.175,0.445
1.628,-0.170,0.435
1.631,-0.170,0.445
1.633,-0.160,0.445
1.636,-0.145,0.430
1.639,-0.155,0.425
1.642,-0.150,0.415
1.644,-0.160,0.395
1.647,-0.175,0.380
1.650,-0.190,0.350
1.653,-0.200,0.345
1.656,-0.230,0.325
1.658,-0.245,0.315
1.661,-0.240,0.295
1.664,-0.245,0.285
1.667,-0.250,0.260
1.669,-0.275,0.255
1.672,-0.285,0.240
1.675,-0.305,0.220
1.678,-0.315,0.205
1.681,-0.335,0.175
1.683,-0.350,0.145
1.686,-0.350,0.140
1.689,-0.365,0.120
1.692,-0.360,0.110
1.694,-0.370,0.110
1.697,-0.365,0.120
1.700,-0.365,0.130
1.703,-0.365,0.130
1.706,-0.355,0.115
1.708,-0.375,0.110
1.711,-0.380,0.090
1.714,-0.380,0.085
1.717,-0.380,0.080
1.719,-0.390,0.075
1.722,-0.395,0.075
1.725,-0.410,0.080
1.728,-0.400,0.090
1.731,-0.400,0.100
1.733,-0.395,0.090
1.736,-0.390,0.110
1.739,-0.380,0.105
1.742,-0.380,0.105
1.744,-0.375,0.085
1.747,-0.395,0.075
1.750,-0.400,0.065
1.753,-0.415,0.065
1.756,-0.420,0.065
1.758,-0.415,0.080
1.761,-0.400,0.095
1.764,-0.400,0.110
1.767,-0.385,0.115
1.769,-0.375,0.105
1.772,-0.370,0.105
1.775,-0.380,0.105
1.778,-0.380,0.085
1.781,-0.385,0.085
1.783,-0.395,0.090
1.786,-0.410,0.085
1.789,-0.415,0.090
1.792,-0.400,0.085
1.794,-0.400,0.085
1.797,-0.390,0.095
1.800,-0.395,0.100
1.803,-0.375,0.100
1.806,-0.385,0.095
1.808,-0.385,0.090
1.811,-0.390,0.085
1.814,-0.395,0.090
1.817,-0.405,0.070
1.819,-0.410,0.055
1.822,-0.410,0.060
1.825,-0.420,0.065
1.828,-0.430,0.085
1.831,-0.425,0.080
1.833,-0.415,0.085
1.836,-0.405,0.095
1.839,-0.400,0.095
1.842,-0.405,0.095
1.844,-0.410,0.065
1.847,-0.415,0.060
1.850,-0.425,0.055
1.853,-0.415,0.060
1.856,-0.435,0.055
1.858,-0.425,0.050
1.861,-0.425,0.060
1.864,-0.415,0.085
1.867,-0.415,0.085
1.869,-0.410,0.080
1.872,-0.410,0.095
1.875,-0.420,0.070
1.878,-0.410,0.065
1.881,-0.420,0.055
1.883,-0.430,0.040
1.886,-0.435,0.055
1.889,-0.420,0.055
1.892,-0.405,0.070
1.894,-0.390,0.095
1.897,-0.370,0.115
1.900,-0.355,0.145
1.903,-0.330,0.170
1.906,-0.320,0.195
1.908,-0.310,0.225
1.911,-0.300,0.240
1.914,-0.280,0.240
1.917,-0.280,0.235
1.919,-0.275,0.235
1.922,-0.265,0.240
1.925,-0.235,0.220
1.928,-0.195,0.205
1.931,-0.175,0.200
1.933,-0.145,0.185
1.936,-0.115,0.155
1.939,-0.110,0.125
1.942,-0.135,0.105
1.944,-0.155,0.075
1.947,-0.185,0.065
1.950,-0.205,0.070
1.953,-0.205,0.060
1.956,-0.220,0.045
1.958,-0.200,0.045
1.961,-0.195,0.030
1.964,-0.195,0.005
1.967,-0.200,-0.005
1.969,-0.225,-0.015
1.972,-0.270,-0.035
1.975,-0.300,-0.035
1.978,-0.335,-0.040
1.981,-0.375,-0.015
1.983,-0.400,-0.010
1.986,-0.415,0.000
1.989,-0.435,0.010
1.992,-0.445,0.005
1.994,-0.450,0.015
1.997,-0.465,0.025
2.000,-0.475,0.035
2.003,-0.465,0.045
2.006,-0.490,0.040
2.008,-0.495,0.040
2.011,-0.495,0.025
2.014,-0.510,0.005
2.017,-0.500,0.005
2.019,-0.510,0.000
2.022,-0.515,0.000
2.025,-0.505,0.000
2.028,-0.500,0.015
2.031,-0.495,0.015
2.033,-0.485,0.035
2.036,-0.480,0.020
2.039,-0.490,0.045
2.042,-0.470,0.070
2.044,-0.460,0.090
2.047,-0.430,0.130
2.050,-0.360,0.160
2.053,-0.245,0.195
2.056,-0.090,0.170
2.058,0.110,0.080
2.061,0.315,-0.030
2.064,0.515,-0.195
2.067,0.695,-0.395
2.069,0.865,-0.650
2.072,1.035,-0.980
2.075,1.165,-1.350
2.078,1.285,-1.715
2.081,1.340,-2.015
2.083,1.345,-2.210
2.086,1.290,-2.265
2.089,1.165,-2.220
2.092,1.000,-2.110
2.094,0.760,-1.940
2.097,0.470,-1.760
2.100,0.190,-1.530
2.103,-0.055,-1.270
2.106,-0.235,-1.020
2.108,-0.360,-0.770
2.111,-0.440,-0.615
2.114,-0.480,-0.475
2.117,-0.510,-0.405
2.119,-0.530,-0.345
2.122,-0.550,-0.275
2.125,-0.580,-0.210
2.128,-0.620,-0.120
2.131,-0.630,-0.050
2.133,-0.650,0.025
2.136,-0.660,0.065
2.139,-0.660,0.075
2.142,-0.665,0.090
2.144,-0.670,0.080
2.147,-0.680,0.070
2.150,-0.695,0.085
2.153,-0.690,0.090
2.156,-0.710,0.110
2.158,-0.715,0.120
2.161,-0.705,0.140
2.164,-0.705,0.155
2.167,-0.700,0.180
2.169,-0.705,0.175
2.172,-0.700,0.180
2.175,-0.705,0.175
2.178,-0.700,0.180
2.181,-0.720,0.190
2.183,-0.735,0.175
2.186,-0.735,0.200
2.189,-0.745,0.200
2.192,-0.740,0.225
2.194,-0.725,0.235
2.197,-0.725,0.240
2.200,-0.715,0.245
2.203,-0.725,0.260
2.206,-0.715,0.245
2.208,-0.720,0.265
2.211,-0.720,0.255
2.214,-0.740,0.260
2.217,-0.745,0.280
2.219,-0.745,0.275
2.222,-0.755,0.280
2.225,-0.755,0.295
2.228,-0.755,0.295
2.231,-0.760,0.315
2.233,-0.755,0.330
2.236,-0.750,0.345
2.239,-0.760,0.345
2.242,-0.770,0.355
2.244,-0.790,0.365
2.247,-0.800,0.375
2.250,-0.810,0.375
2.253,-0.830,0.380
2.256,-0.840,0.380
2.258,-0.845,0.390
2.261,-0.865,0.410
2.264,-0.870,0.410
2.267,-0.875,0.435
2.269,-0.870,0.445
2.272,-0.900,0.455
2.275,-0.905,0.465
2.278,-0.925,0.480
2.281,-0.940,0.465
2.283,-0.950,0.465
2.286,-0.970,0.465
2.289,-0.985,0.470
2.292,-1.005,0.480
2.294,-1.000,0.495
2.297,-1.000,0.520
2.300,-1.000,0.530
2.303,-1.010,0.540
2.306,-1.010,0.530
2.308,-1.005,0.525
2.311,-1.000,0.505
2.314,-0.995,0.505
2.317,-0.985,0.490
2.319,-0.985,0.490
2.322,-0.985,0.485
2.325,-0.955,0.490
2.328,-0.935,0.485
2.331,-0.915,0.480
2.333,-0.875,0.475
2.336,-0.850,0.445
2.339,-0.825,0.430
2.342,-0.805,0.405
2.344,-0.780,0.370
2.347,-0.760,0.355
2.350,-0.735,0.330
2.353,-0.715,0.315
2.356,-0.705,0.290
2.358,-0.685,0.290
2.361,-0.660,0.265
2.364,-0.625,0.245
2.367,-0.605,0.220
2.369,-0.575,0.215
2.372,-0.565,0.195
2.375,-0.560,0.175
2.378,-0.560,0.170
2.381,-0.555,0.155
2.383,-0.555,0.125
2.386,-0.550,0.120
2.389,-0.545,0.120
2.392,-0.545,0.115
2.394,-0.535,0.125
2.397,-0.530,0.120
2.400,-0.525,0.115
2.403,-0.510,0.125
2.406,-0.510,0.130
2.408,-0.515,0.120
2.411,-0.510,0.100
2.414,-0.510,0.095
2.417,-0.525,0.080
2.419,-0.530,0.090
2.422,-0.530,0.095
2.425,-0.530,0.085
2.428,-0.520,0.100
2.431,-0.530,0.115
2.433,-0.520,0.130
2.436,-0.505,0.130
2.439,-0.500,0.130
2.442,-0.500,0.115
2.444,-0.520,0.115
2.447,-0.515,0.105
2.450,-0.525,0.100
2.453,-0.530,0.100
2.456,-0.530,0.100
2.458,-0.530,0.115
2.461,-0.525,0.125
2.464,-0.520,0.120
2.467,-0.510,0.135
2.469,-0.505,0.140
2.472,-0.500,0.135
2.475,-0.500,0.140
2.478,-0.520,0.125
2.481,-0.520,0.125
2.483,-0.535,0.120
2.486,-0.540,0.130
2.489,-0.520,0.135
2.492,-0.510,0.150
2.494,-0.500,0.155
2.497,-0.485,0.175
2.500,-0.465,0.200
2.503,-0.440,0.230
2.506,-0.415,0.260
2.508,-0.400,0.295
2.511,-0.380,0.300
2.514,-0.380,0.295
2.517,-0.360,0.305
2.519,-0.360,0.300
2.522,-0.335,0.290
2.525,-0.315,0.300
2.528,-0.275,0.285
2.531,-0.230,0.280
2.533,-0.185,0.265
2.536,-0.160,0.230
2.539,-0.170,0.185
2.542,-0.180,0.160
2.544,-0.205,0.120
2.547,-0.225,0.100
2.550,-0.245,0.095
2.553,-0.245,0.095
2.556,-0.240,0.085
2.558,-0.235,0.070
2.561,-0.235,0.070
2.564,-0.250,0.050
2.567,-0.275,0.025
2.569,-0.295,0.010
2.572,-0.335,0.005
2.575,-0.375,0.025
2.578,-0.410,0.045
2.581,-0.440,0.055
2.583,-0.465,0.065
2.586,-0.470,0.065
2.589,-0.500,0.070
2.592,-0.500,0.070
2.594,-0.525,0.075
2.597,-0.535,0.085
2.600,-0.530,0.080
2.603,-0.525,0.075
2.606,-0.525,0.060
2.608,-0.530,0.060
2.611,-0.510,0.065
2.614,-0.525,0.045
2.617,-0.525,0.055
2.619,-0.535,0.030
2.622,-0.535,0.040
2.625,-0.525,0.035
2.628,-0.505,0.045
2.631,-0.515,0.045
2.633,-0.505,0.065
2.636,-0.485,0.095
2.639,-0.480,0.135
2.642,-0.460,0.175
2.644,-0.415,0.220
2.647,-0.325,0.235
2.650,-0.185,0.235
2.653,0.000,0.175
2.656,0.195,0.060
2.658,0.400,-0.090
2.661,0.610,-0.255
2.664,0.790,-0.510
2.667,0.945,-0.795
2.669,1.105,-1.150
2.672,1.225,-1.540
2.675,1.315,-1.885
2.678,1.335,-2.130
2.681,1.305,-2.280
2.683,1.225,-2.305
2.686,1.095,-2.220
2.689,0.900,-2.085
2.692,0.655,-1.910
2.694,0.370,-1.700
2.697,0.095,-1.460
2.700,-0.120,-1.200
2.703,-0.275,-0.935
2.706,-0.380,-0.735
2.708,-0.445,-0.560
2.711,-0.475,-0.450
2.714,-0.500,-0.365
2.717,-0.525,-0.295
2.719,-0.540,-0.215
2.722,-0.570,-0.145
2.725,-0.600,-0.065
2.728,-0.625,-0.010
2.731,-0.630,0.040
2.733,-0.625,0.085
2.736,-0.630,0.105
2.739,-0.620,0.110
2.742,-0.630,0.120
2.744,-0.625,0.125
2.747,-0.650,0.135
2.750,-0.645,0.135
2.753,-0.650,0.125
2.756,-0.655,0.140
2.758,-0.655,0.150
2.761,-0.655,0.170
2.764,-0.650,0.175
2.767,-0.645,0.195
2.769,-0.630,0.215
2.772,-0.630,0.210
2.775,-0.650,0.230
2.778,-0.660,0.220
2.781,-0.665,0.215
2.783,-0.670,0.220
2.786,-0.675,0.230
2.789,-0.680,0.220
2.792,-0.670,0.245
2.794,-0.650,0.270
2.797,-0.650,0.280
2.800,-0.635,0.285
2.803,-0.645,0.295
2.806,-0.645,0.300
2.808,-0.645,0.300
2.811,-0.665,0.300
2.814,-0.665,0.310
2.817,-0.685,0.315
2.819,-0.690,0.330
2.822,-0.695,0.340
2.825,-0.685,0.365
2.828,-0.695,0.370
2.831,-0.700,0.395
2.833,-0.685,0.405
2.836,-0.695,0.405
2.839,-0.715,0.425
2.842,-0.720,0.415
2.844,-0.735,0.430
2.847,-0.750,0.440
2.850,-0.765,0.450
2.853,-0.770,0.475
2.856,-0.775,0.475
2.858,-0.785,0.505
2.861,-0.790,0.515
2.864,-0.795,0.525
2.867,-0.805,0.535
2.869,-0.795,0.545
2.872,-0.820,0.550
2.875,-0.810,0.560
2.878,-0.805,0.565
2.881,-0.820,0.570
2.883,-0.835,0.570
2.886,-0.835,0.565
2.889,-0.845,0.565
2.892,-0.840,0.580
2.894,-0.830,0.580
2.897,-0.815,0.595
2.900,-0.800,0.595
2.903,-0.780,0.590
2.906,-0.770,0.575
2.908,-0.750,0.570
2.911,-0.740,0.545
2.914,-0.720,0.520
2.917,-0.715,0.500
2.919,-0.695,0.480
2.922,-0.680,0.440
2.925,-0.645,0.435
2.928,-0.625,0.420
2.931,-0.605,0.405
2.933,-0.575,0.385
2.936,-0.550,0.360
2.939,-0.540,0.330
2.942,-0.520,0.295
2.944,-0.515,0.270
2.947,-0.505,0.240
2.950,-0.490,0.215
2.953,-0.485,0.225
2.956,-0.480,0.190
2.958,-0.465,0.185
2.961,-0.465,0.175
2.964,-0.445,0.175
2.967,-0.435,0.175
2.969,-0.420,0.155
2.972,-0.430,0.145
2.975,-0.420,0.130
2.978,-0.425,0.110
2.981,-0.415,0.105
2.983,-0.410,0.110
2.986,-0.415,0.105
2.989,-0.395,0.105
2.992,-0.375,0.115
2.994,-0.360,0.120
2.997,-0.340,0.110
3.000,-0.295,0.120
3.003,-0.270,0.105
3.006,-0.230,0.115
3.008,-0.190,0.110
3.011,-0.145,0.105
3.014,-0.105,0.100
3.017,-0.045,0.085
3.019,0.020,0.080
3.022,0.100,0.070
3.025,0.190,0.065
3.028,0.280,0.045
3.031,0.400,0.050
3.033,0.500,0.035
3.036,0.555,-0.005
3.039,0.530,-0.040
3.042,0.420,-0.110
3.044,0.180,-0.180
3.047,-0.185,-0.260
3.050,-0.625,-0.320
3.053,-1.085,-0.345
3.056,-1.480,-0.360
3.058,-1.780,-0.345
3.061,-2.005,-0.355
3.064,-2.140,-0.355
3.067,-2.230,-0.385
3.069,-2.320,-0.410
3.072,-2.380,-0.405
3.075,-2.435,-0.355
3.078,-2.470,-0.265
3.081,-2.470,-0.135
3.083,-2.455,0.035
3.086,-2.420,0.230
3.089,-2.335,0.420
3.092,-2.240,0.605
3.094,-2.130,0.750
3.097,-2.015,0.895
3.100,-1.895,0.995
3.103,-1.790,1.090
3.106,-1.680,1.170
3.108,-1.600,1.205
3.111,-1.550,1.240
3.114,-1.490,1.240
3.117,-1.405,1.220
3.119,-1.290,1.140
3.122,-1.160,0.965
3.125,-1.020,0.725
3.128,-0.925,0.435
3.131,-0.860,0.110
3.133,-0.820,-0.160
3.136,-0.790,-0.355
3.139,-0.740,-0.440
3.142,-0.650,-0.430
3.144,-0.520,-0.380
3.147,-0.365,-0.300
3.150,-0.180,-0.245
3.153,-0.025,-0.190
3.156,0.080,-0.160
3.158,0.150,-0.135
3.161,0.170,-0.120
3.164,0.150,-0.095
3.167,0.135,-0.080
3.169,0.115,-0.070
3.172,0.105,-0.050
3.175,0.115,-0.050
3.178,0.135,-0.050
3.181,0.155,-0.055
3.183,0.165,-0.050
3.186,0.185,-0.055
3.189,0.200,-0.040
3.192,0.205,-0.035
3.194,0.220,-0.020
3.197,0.245,-0.020
3.200,0.275,-0.015
3.203,0.290,-0.015
3.206,0.310,-0.035
3.208,0.315,-0.040
3.211,0.335,-0.060
3.214,0.340,-0.060
3.217,0.355,-0.060
3.219,0.370,-0.060
3.222,0.380,-0.050
3.225,0.405,-0.050
3.228,0.435,-0.040
3.231,0.455,-0.040
3.233,0.490,-0.035
3.236,0.500,-0.055
3.239,0.530,-0.050
3.242,0.555,-0.065
3.244,0.555,-0.075
3.247,0.570,-0.070
3.250,0.585,-0.065
3.253,0.610,-0.075
3.256,0.645,-0.080
3.258,0.665,-0.085
3.261,0.690,-0.085
3.264,0.710,-0.090
3.267,0.735,-0.075
3.269,0.755,-0.085
3.272,0.770,-0.090
3.275,0.775,-0.100
3.278,0.775,-0.115
3.281,0.780,-0.125
3.283,0.770,-0.135
3.286,0.760,-0.150
3.289,0.760,-0.155
3.292,0.745,-0.160
3.294,0.755,-0.155
3.297,0.745,-0.165
3.300,0.730,-0.175
3.303,0.710,-0.180
3.306,0.685,-0.175
3.308,0.650,-0.190
3.311,0.605,-0.215
3.314,0.560,-0.220
3.317,0.515,-0.210
3.319,0.475,-0.210
3.322,0.445,-0.205
3.325,0.415,-0.185
3.328,0.375,-0.165
3.331,0.345,-0.150
3.333,0.305,-0.145
3.336,0.260,-0.135
3.339,0.230,-0.110
3.342,0.185,-0.110
3.344,0.140,-0.090
3.347,0.100,-0.075
3.350,0.065,-0.065
3.353,0.030,-0.035
3.356,0.005,-0.005
3.358,-0.020,0.015
3.361,-0.050,0.020
3.364,-0.060,0.040
3.367,-0.060,0.055
3.369,-0.080,0.070
3.372,-0.110,0.075
3.375,-0.125,0.085
3.378,-0.145,0.085
3.381,-0.160,0.080
3.383,-0.180,0.080
3.386,-0.190,0.090
3.389,-0.185,0.085
3.392,-0.190,0.095
3.394,-0.200,0.110
3.397,-0.190,0.115
3.400,-0.180,0.120
3.403,-0.195,0.105
3.406,-0.190,0.115
3.408,-0.205,0.100
3.411,-0.215,0.105
3.414,-0.215,0.090
3.417,-0.225,0.080
3.419,-0.240,0.085
3.422,-0.230,0.090
3.425,-0.220,0.115
3.428,-0.215,0.115
3.431,-0.210,0.120
3.433,-0.200,0.120
3.436,-0.195,0.125
3.439,-0.195,0.115
3.442,-0.190,0.100
3.444,-0.210,0.090
3.447,-0.210,0.095
3.450,-0.215,0.075
3.453,-0.225,0.095
3.456,-0.220,0.100
3.458,-0.220,0.110
3.461,-0.225,0.105
3.464,-0.225,0.115
3.467,-0.210,0.120
3.469,-0.210,0.100
3.472,-0.205,0.100
3.475,-0.210,0.100
3.478,-0.220,0.090
3.481,-0.235,0.085
3.483,-0.235,0.095
3.486,-0.245,0.090
3.489,-0.250,0.095
3.492,-0.240,0.085
3.494,-0.240,0.095
3.497,-0.235,0.095
3.500,-0.220,0.100
3.503,-0.225,0.110
3.506,-0.230,0.100
3.508,-0.240,0.095
3.511,-0.240,0.080
3.514,-0.255,0.075
3.517,-0.260,0.075
3.519,-0.260,0.065
3.522,-0.270,0.070
3.525,-0.270,0.080
3.528,-0.255,0.075
3.531,-0.260,0.090
3.533,-0.245,0.095
3.536,-0.250,0.085
3.539,-0.235,0.095
3.542,-0.235,0.085
3.544,-0.240,0.070
3.547,-0.240,0.070
3.550,-0.255,0.060
3.553,-0.260,0.065
3.556,-0.265,0.070
3.558,-0.245,0.065
3.561,-0.245,0.070
3.564,-0.235,0.065
3.567,-0.230,0.075
3.569,-0.230,0.060
3.572,-0.240,0.065
3.575,-0.245,0.055
3.578,-0.245,0.045
3.581,-0.255,0.050
3.583,-0.255,0.050
3.586,-0.245,0.050
3.589,-0.240,0.055
3.592,-0.245,0.060
3.594,-0.250,0.060
3.597,-0.240,0.060
3.600,-0.230,0.075
3.603,-0.220,0.070
3.606,-0.230,0.080
3.608,-0.220,0.075
3.611,-0.225,0.055
3.614,-0.235,0.040
3.617,-0.245,0.030
3.619,-0.230,0.040
3.622,-0.230,0.035
3.625,-0.240,0.055
3.628,-0.235,0.065
3.631,-0.225,0.065
3.633,-0.200,0.065
3.636,-0.200,0.060
3.639,-0.200,0.065
3.642,-0.200,0.050
3.644,-0.210,0.035
3.647,-0.220,0.040
3.650,-0.210,0.035
3.653,-0.210,0.045
3.656,-0.190,0.055
3.658,-0.175,0.075
3.661,-0.155,0.090
3.664,-0.120,0.125
3.667,-0.105,0.165
3.669,-0.080,0.190
3.672,-0.070,0.220
3.675,-0.045,0.235
3.678,-0.040,0.240
3.681,-0.045,0.235
3.683,-0.050,0.230
3.686,-0.030,0.220
3.689,-0.005,0.215
3.692,0.035,0.205
3.694,0.070,0.180
3.697,0.125,0.155
3.700,0.160,0.130
3.703,0.165,0.110
3.706,0.150,0.100
3.708,0.110,0.070
3.711,0.080,0.045
3.714,0.075,0.020
3.717,0.065,0.030
3.719,0.060,0.005
3.722,0.080,0.015
3.725,0.090,-0.005
3.728,0.085,-0.030
3.731,0.065,-0.055
3.733,0.055,-0.055
3.736,0.015,-0.070
3.739,-0.025,-0.065
3.742,-0.045,-0.065
3.744,-0.070,-0.055
3.747,-0.115,-0.030
3.750,-0.135,-0.035
3.753,-0.155,-0.035
3.756,-0.170,-0.025
3.758,-0.190,0.005
3.761,-0.195,-0.005
3.764,-0.190,0.015
3.767,-0.190,0.025
3.769,-0.205,0.010
3.772,-0.200,0.000
3.775,-0.200,-0.005
3.778,-0.205,-0.020
3.781,-0.205,-0.030
3.783,-0.200,-0.040
3.786,-0.210,-0.030
3.789,-0.210,-0.030
3.792,-0.205,-0.025
3.794,-0.200,-0.015
3.797,-0.190,-0.010
3.800,-0.185,0.015
3.803,-0.170,0.035
3.806,-0.150,0.070
3.808,-0.110,0.105
3.811,-0.050,0.145
3.814,0.055,0.150
3.817,0.205,0.135
3.819,0.380,0.040
3.822,0.585,-0.095
3.825,0.790,-0.265
3.828,0.980,-0.475
3.831,1.140,-0.735
3.833,1.315,-1.055
3.836,1.445,-1.410
3.839,1.570,-1.770
3.842,1.640,-2.065
3.844,1.635,-2.270
3.847,1.580,-2.345
3.850,1.480,-2.305
3.853,1.325,-2.215
3.856,1.095,-2.060
3.858,0.830,-1.880
3.861,0.545,-1.655
3.864,0.305,-1.405
3.867,0.120,-1.135
3.869,-0.015,-0.885
3.872,-0.085,-0.705
3.875,-0.140,-0.565
3.878,-0.175,-0.485
3.881,-0.190,-0.405
3.883,-0.230,-0.345
3.886,-0.270,-0.280
3.889,-0.300,-0.205
3.892,-0.325,-0.125
3.894,-0.335,-0.060
3.897,-0.345,-0.005
3.900,-0.345,0.030
3.903,-0.340,0.040
3.906,-0.345,0.035
3.908,-0.340,0.030
3.911,-0.355,0.045
3.914,-0.365,0.040
3.917,-0.370,0.045
3.919,-0.390,0.050
3.922,-0.380,0.080
3.925,-0.370,0.085
3.928,-0.380,0.100
3.931,-0.370,0.110
3.933,-0.375,0.130
3.936,-0.365,0.125
3.939,-0.375,0.130
3.942,-0.370,0.130
3.944,-0.370,0.140
3.947,-0.390,0.140
3.950,-0.390,0.130
3.953,-0.405,0.145
3.956,-0.400,0.155
3.958,-0.405,0.175
3.961,-0.395,0.185
3.964,-0.390,0.185
3.967,-0.390,0.185
3.969,-0.395,0.210
3.972,-0.405,0.205
3.975,-0.400,0.220
3.978,-0.405,0.210
3.981,-0.430,0.225
3.983,-0.430,0.215
3.986,-0.440,0.220
3.989,-0.435,0.240
3.992,-0.450,0.240
3.994,-0.445,0.250
3.997,-0.445,0.280
4.000,-0.445,0.285
4.003,-0.460,0.295
4.006,-0.475,0.310
4.008,-0.495,0.300
4.011,-0.510,0.300
4.014,-0.525,0.305
4.017,-0.545,0.305
4.019,-0.560,0.320
4.022,-0.570,0.330
4.025,-0.590,0.345
4.028,-0.600,0.375
4.031,-0.605,0.370
4.033,-0.610,0.390
4.036,-0.630,0.400
4.039,-0.640,0.400
4.042,-0.660,0.395
4.044,-0.680,0.385
4.047,-0.705,0.395
4.050,-0.715,0.380
4.053,-0.735,0.385
4.056,-0.745,0.405
4.058,-0.740,0.420
4.061,-0.745,0.430
4.064,-0.740,0.435
4.067,-0.740,0.440
4.069,-0.725,0.435
4.072,-0.730,0.440
4.075,-0.725,0.425
4.078,-0.725,0.405
4.081,-0.725,0.410
4.083,-0.705,0.395
4.086,-0.700,0.390
4.089,-0.680,0.385
4.092,-0.655,0.380
4.094,-0.625,0.365
4.097,-0.600,0.360
4.100,-0.565,0.360
4.103,-0.545,0.340
4.106,-0.515,0.305
4.108,-0.485,0.295
4.111,-0.465,0.275
4.114,-0.440,0.240
4.117,-0.415,0.220
4.119,-0.390,0.195
4.122,-0.370,0.180
4.125,-0.340,0.165
4.128,-0.300,0.145
4.131,-0.275,0.130
4.133,-0.255,0.115
4.136,-0.240,0.105
4.139,-0.225,0.085
4.142,-0.195,0.070
4.144,-0.200,0.060
4.147,-0.195,0.040
4.150,-0.190,0.025
4.153,-0.195,0.015
4.156,-0.185,0.015
4.158,-0.175,0.025
4.161,-0.175,0.025
4.164,-0.155,0.045
4.167,-0.155,0.035
4.169,-0.145,0.025
4.172,-0.150,0.025
4.175,-0.150,0.005
4.178,-0.155,0.000
4.181,-0.150,0.005
4.183,-0.160,-0.005
4.186,-0.150,0.005
4.189,-0.155,0.020
4.192,-0.145,0.020
4.194,-0.140,0.005
4.197,-0.135,0.030
4.200,-0.120,0.020
4.203,-0.120,0.020
4.206,-0.130,0.015
4.208,-0.130,0.015
4.211,-0.135,0.010
4.214,-0.135,0.010
4.217,-0.145,0.010
4.219,-0.155,0.010
4.222,-0.150,0.010
4.225,-0.145,0.015
4.228,-0.145,0.030
4.231,-0.135,0.030
4.233,-0.115,0.045
4.236,-0.120,0.040
4.239,-0.120,0.050
4.242,-0.115,0.050
4.244,-0.110,0.045
4.247,-0.110,0.045
4.250,-0.105,0.030
4.253,-0.100,0.035
4.256,-0.080,0.020
4.258,-0.060,0.040
4.261,-0.030,0.055
4.264,0.000,0.070
4.267,0.035,0.115
4.269,0.060,0.125
4.272,0.070,0.155
4.275,0.095,0.205
4.278,0.125,0.230
4.281,0.145,0.255
4.283,0.180,0.275
4.286,0.225,0.290
4.289,0.285,0.300
4.292,0.350,0.335
4.294,0.440,0.360
4.297,0.555,0.365
4.300,0.670,0.325
4.303,0.790,0.285
4.306,0.875,0.210
4.308,0.965,0.135
4.311,1.015,0.060
4.314,1.060,0.005
4.317,1.105,-0.050
4.319,1.175,-0.080
4.322,1.265,-0.100
4.325,1.350,-0.150
4.328,1.450,-0.215
4.331,1.525,-0.315
4.333,1.575,-0.430
4.336,1.595,-0.570
4.339,1.565,-0.720
4.342,1.475,-0.855
4.344,1.315,-0.980
4.347,1.075,-1.080
4.350,0.725,-1.150
4.353,0.300,-1.230
4.356,-0.180,-1.315
4.358,-0.645,-1.415
4.361,-1.045,-1.525
4.364,-1.360,-1.660
4.367,-1.555,-1.710
4.369,-1.640,-1.725
4.372,-1.640,-1.710
4.375,-1.570,-1.660
4.378,-1.480,-1.615
4.381,-1.355,-1.520
4.383,-1.240,-1.410
4.386,-1.150,-1.295
4.389,-1.075,-1.160
4.392,-0.990,-1.020
4.394,-0.895,-0.840
4.397,-0.770,-0.675
4.400,-0.665,-0.530
4.403,-0.550,-0.410
4.406,-0.445,-0.290
4.408,-0.350,-0.225
4.411,-0.320,-0.170
4.414,-0.280,-0.130
4.417,-0.295,-0.115
4.419,-0.305,-0.090
4.422,-0.305,-0.075
4.425,-0.295,-0.050
4.428,-0.285,-0.020
4.431,-0.285,-0.010
4.433,-0.275,0.005
4.436,-0.265,0.010
4.439,-0.255,0.005
4.442,-0.245,0.005
4.444,-0.260,0.015
4.447,-0.260,0.000
4.450,-0.270,-0.010
4.453,-0.260,0.005
4.456,-0.270,0.025
4.458,-0.255,0.045
4.461,-0.245,0.060
4.464,-0.255,0.060
4.467,-0.245,0.060
4.469,-0.240,0.070
4.472,-0.230,0.075
4.475,-0.240,0.060
4.478,-0.245,0.065
4.481,-0.250,0.060
4.483,-0.250,0.070
4.486,-0.260,0.080
4.489,-0.255,0.090
4.492,-0.255,0.100
4.494,-0.240,0.110
4.497,-0.235,0.125
4.500,-0.230,0.135
4.503,-0.230,0.145
4.506,-0.230,0.140
4.508,-0.235,0.155
4.511,-0.245,0.150
4.514,-0.240,0.165
4.517,-0.245,0.180
4.519,-0.240,0.185
4.522,-0.230,0.200
4.525,-0.225,0.205
4.528,-0.225,0.225
4.531,-0.195,0.245
4.533,-0.180,0.260
4.536,-0.170,0.280
4.539,-0.165,0.300
4.542,-0.145,0.300
4.544,-0.135,0.310
4.547,-0.140,0.325
4.550,-0.125,0.325
4.553,-0.125,0.340
4.556,-0.110,0.350
4.558,-0.085,0.365
4.561,-0.065,0.390
4.564,-0.050,0.410
4.567,-0.025,0.425
4.569,-0.005,0.430
4.572,0.010,0.440
4.575,0.025,0.435
4.578,0.035,0.435
4.581,0.020,0.425
4.583,0.020,0.415
4.586,0.025,0.420
4.589,0.040,0.425
4.592,0.045,0.440
4.594,0.045,0.440
4.597,0.070,0.420
4.600,0.065,0.415
4.603,0.070,0.400
4.606,0.060,0.390
4.608,0.045,0.365
4.611,0.030,0.350
4.614,0.015,0.325
4.617,-0.005,0.310
4.619,-0.020,0.295
4.622,-0.020,0.295
4.625,-0.035,0.260
4.628,-0.040,0.260
4.631,-0.050,0.225
4.633,-0.055,0.225
4.636,-0.060,0.195
4.639,-0.070,0.185
4.642,-0.080,0.150
4.644,-0.110,0.140
4.647,-0.115,0.115
4.650,-0.120,0.110
4.653,-0.135,0.105
4.656,-0.130,0.100
4.658,-0.135,0.080
4.661,-0.125,0.090
4.664,-0.140,0.080
4.667,-0.120,0.085
4.669,-0.130,0.075
4.672,-0.130,0.080
4.675,-0.135,0.060
4.678,-0.145,0.060
4.681,-0.160,0.040
4.683,-0.155,0.045
4.686,-0.160,0.040
4.689,-0.170,0.030
4.692,-0.160,0.045
4.694,-0.160,0.040
4.697,-0.140,0.050
4.700,-0.135,0.065
4.703,-0.130,0.065
4.706,-0.135,0.050
4.708,-0.140,0.055
4.711,-0.135,0.040
4.714,-0.140,0.030
4.717,-0.140,0.015
4.719,-0.145,0.025
4.722,-0.145,0.030
4.725,-0.130,0.055
4.728,-0.120,0.060
4.731,-0.115,0.075
4.733,-0.095,0.060
4.736,-0.105,0.055
4.739,-0.110,0.055
4.742,-0.120,0.035
4.744,-0.120,0.035
4.747,-0.120,0.030
4.750,-0.115,0.020
4.753,-0.125,0.020
4.756,-0.130,0.045
4.758,-0.125,0.050
4.761,-0.110,0.045
4.764,-0.110,0.055
4.767,-0.105,0.060
4.769,-0.105,0.055
4.772,-0.105,0.050
4.775,-0.110,0.040
4.778,-0.120,0.035
4.781,-0.120,0.030
4.783,-0.125,0.025
4.786,-0.135,0.025
4.789,-0.140,0.020
4.792,-0.125,0.020
4.794,-0.115,0.025
4.797,-0.115,0.040
4.800,-0.110,0.040
4.803,-0.105,0.035
4.806,-0.120,0.030
4.808,-0.110,0.040
4.811,-0.120,0.030
4.814,-0.125,0.025
4.817,-0.120,0.015
4.819,-0.115,0.015
4.822,-0.115,0.010
4.825,-0.115,0.010
4.828,-0.110,0.020
4.831,-0.110,0.035
4.833,-0.105,0.035
4.836,-0.095,0.025
4.839,-0.115,0.025
4.842,-0.110,0.020
4.844,-0.115,0.005
4.847,-0.105,-0.005
4.850,-0.125,-0.020
4.853,-0.115,-0.015
4.856,-0.110,-0.010
4.858,-0.090,0.005
4.861,-0.080,0.025
4.864,-0.065,0.030
4.867,-0.050,0.055
4.869,-0.030,0.070
4.872,-0.015,0.095
4.875,-0.005,0.110
4.878,0.005,0.130
4.881,0.010,0.150
4.883,0.010,0.170
4.886,0.035,0.190
4.889,0.045,0.185
4.892,0.040,0.210
4.894,0.065,0.205
4.897,0.090,0.195
4.900,0.135,0.195
4.903,0.160,0.170
4.906,0.190,0.145
4.908,0.230,0.115
4.911,0.235,0.080
4.914,0.220,0.045
4.917,0.210,0.030
4.919,0.185,0.015
4.922,0.165,0.015
4.925,0.155,0.010
4.928,0.160,0.005
4.931,0.165,0.005
4.933,0.180,-0.005
4.936,0.190,-0.030
4.939,0.170,-0.050
4.942,0.160,-0.080
4.944,0.130,-0.110
4.947,0.090,-0.115
4.950,0.060,-0.120
4.953,0.025,-0.110
4.956,-0.005,-0.095
4.958,-0.040,-0.070
4.961,-0.055,-0.045
4.964,-0.060,-0.025
4.967,-0.065,-0.020
4.969,-0.095,-0.035
4.972,-0.095,-0.020
4.975,-0.105,-0.035
4.978,-0.130,-0.030
4.981,-0.145,-0.050
4.983,-0.155,-0.045
4.986,-0.150,-0.060
4.989,-0.155,-0.060
4.992,-0.145,-0.055
4.994,-0.120,-0.055
4.997,-0.125,-0.050
5.000,-0.120,-0.045
5.003,-0.110,-0.040
5.006,-0.105,-0.035
5.008,-0.100,-0.050
5.011,-0.100,-0.050
5.014,-0.110,-0.040
5.017,-0.090,-0.005
5.019,-0.065,0.050
5.022,-0.020,0.110
5.025,0.085,0.140
5.028,0.240,0.130
5.031,0.430,0.055
5.033,0.625,-0.070
5.036,0.835,-0.245
5.039,1.010,-0.460
5.042,1.175,-0.735
5.044,1.330,-1.060
5.047,1.465,-1.420
5.050,1.570,-1.795
5.053,1.625,-2.115
5.056,1.635,-2.320
5.058,1.575,-2.390
5.061,1.470,-2.350
5.064,1.320,-2.240
5.067,1.095,-2.085
5.069,0.835,-1.895
5.072,0.555,-1.655
5.075,0.335,-1.400
5.078,0.140,-1.125
5.081,0.040,-0.885
5.083,-0.050,-0.705
5.086,-0.085,-0.575
5.089,-0.105,-0.480
5.092,-0.130,-0.390
5.094,-0.155,-0.310
5.097,-0.190,-0.220
5.100,-0.220,-0.140
5.103,-0.245,-0.075
5.106,-0.255,-0.035
5.108,-0.270,-0.010
5.111,-0.280,-0.005
5.114,-0.285,0.000
5.117,-0.295,0.010
5.119,-0.295,0.020
5.122,-0.295,0.025
5.125,-0.295,0.050
5.128,-0.295,0.075
5.131,-0.285,0.095
5.133,-0.290,0.100
5.136,-0.285,0.105
5.139,-0.290,0.110
5.142,-0.290,0.115
5.144,-0.300,0.105
5.147,-0.305,0.125
5.150,-0.320,0.120
5.153,-0.315,0.125
5.156,-0.320,0.140
5.158,-0.305,0.155
5.161,-0.315,0.170
5.164,-0.305,0.180
5.167,-0.310,0.185
5.169,-0.315,0.180
5.172,-0.315,0.190
5.175,-0.310,0.195
5.178,-0.330,0.195
5.181,-0.335,0.195
5.183,-0.340,0.205
5.186,-0.350,0.220
5.189,-0.355,0.230
5.192,-0.360,0.240
5.194,-0.365,0.250
5.197,-0.370,0.270
5.200,-0.365,0.270
5.203,-0.355,0.290
5.206,-0.360,0.295
5.208,-0.380,0.295
5.211,-0.400,0.295
5.214,-0.410,0.300
5.217,-0.435,0.290
5.219,-0.465,0.305
5.222,-0.470,0.315
5.225,-0.475,0.330
5.228,-0.490,0.345
5.231,-0.495,0.365
5.233,-0.500,0.390
5.236,-0.510,0.390
5.239,-0.520,0.385
5.242,-0.535,0.390
5.244,-0.550,0.395
5.247,-0.560,0.390
5.250,-0.575,0.390
5.253,-0.590,0.405
5.256,-0.605,0.420
5.258,-0.605,0.425
5.261,-0.620,0.450
5.264,-0.625,0.440
5.267,-0.610,0.450
5.269,-0.585,0.440
5.272,-0.580,0.435
5.275,-0.580,0.425
5.278,-0.570,0.425
5.281,-0.565,0.410
5.283,-0.560,0.405
5.286,-0.550,0.390
5.289,-0.530,0.395
5.292,-0.510,0.375
5.294,-0.490,0.370
5.297,-0.470,0.365
5.300,-0.430,0.355
5.303,-0.395,0.320
5.306,-0.385,0.305
5.308,-0.350,0.290
5.311,-0.335,0.265
5.314,-0.315,0.245
5.317,-0.305,0.205
5.319,-0.285,0.200
5.322,-0.255,0.170
5.325,-0.230,0.150
5.328,-0.200,0.140
5.331,-0.175,0.135
5.333,-0.150,0.125
5.336,-0.130,0.105
5.339,-0.125,0.080
5.342,-0.100,0.065
5.344,-0.110,0.055
5.347,-0.110,0.035
5.350,-0.115,0.020
5.353,-0.125,0.025
5.356,-0.115,0.020
5.358,-0.110,0.010
5.361,-0.095,0.015
5.364,-0.100,0.030
5.367,-0.090,0.030
5.369,-0.090,0.020
5.372,-0.080,0.015
5.375,-0.080,0.015
5.378,-0.085,-0.005
5.381,-0.085,-0.020
5.383,-0.090,-0.025
5.386,-0.100,-0.010
5.389,-0.095,-0.015
5.392,-0.090,0.005
5.394,-0.085,0.020
5.397,-0.090,0.020
5.400,-0.080,0.025
5.403,-0.090,0.010
5.406,-0.085,0.015
5.408,-0.095,-0.005
5.411,-0.100,0.000
5.414,-0.095,0.000
5.417,-0.095,0.000
5.419,-0.100,0.000
5.422,-0.100,0.005
5.425,-0.095,0.010
5.428,-0.095,0.010
5.431,-0.095,0.020
5.433,-0.100,0.015
5.436,-0.080,0.020
5.439,-0.085,0.030
5.442,-0.080,0.020
5.444,-0.085,0.015
5.447,-0.090,0.015
5.450,-0.095,0.020
5.453,-0.100,0.025
5.456,-0.090,0.025
5.458,-0.075,0.035
5.461,-0.060,0.030
5.464,-0.050,0.055
5.467,-0.045,0.075
5.469,-0.015,0.085
5.472,-0.005,0.110
5.475,0.020,0.135
5.478,0.040,0.145
5.481,0.050,0.170
5.483,0.070,0.170
5.486,0.075,0.180
5.489,0.090,0.190
5.492,0.110,0.190
5.494,0.120,0.200
5.497,0.155,0.195
5.500,0.185,0.185
5.503,0.235,0.155
5.506,0.240,0.120
5.508,0.255,0.060
5.511,0.245,0.030
5.514,0.225,0.005
5.517,0.195,-0.025
5.519,0.185,-0.030
5.522,0.165,-0.020
5.525,0.155,-0.020
5.528,0.190,-0.020
5.531,0.190,-0.040
5.533,0.195,-0.060
5.536,0.180,-0.090
5.539,0.155,-0.100
5.542,0.125,-0.115
5.544,0.085,-0.115
5.547,0.050,-0.110
5.550,0.015,-0.085
5.553,0.005,-0.060
5.556,-0.025,-0.050
5.558,-0.020,-0.040
5.561,-0.035,-0.040
5.564,-0.045,-0.035
5.567,-0.060,-0.045
5.569,-0.070,-0.040
5.572,-0.080,-0.035
5.575,-0.090,-0.035
5.578,-0.100,-0.050
5.581,-0.105,-0.050
5.583,-0.105,-0.055
5.586,-0.110,-0.055
5.589,-0.100,-0.065
5.592,-0.100,-0.065
5.594,-0.085,-0.065
5.597,-0.075,-0.055
5.600,-0.065,-0.045
5.603,-0.065,-0.040
5.606,-0.075,-0.035
5.608,-0.075,-0.045
5.611,-0.095,-0.040
5.614,-0.085,-0.020
5.617,-0.070,0.010
5.619,-0.040,0.060
5.622,0.025,0.100
5.625,0.155,0.125
5.628,0.295,0.120
5.631,0.490,0.050
5.633,0.695,-0.085
5.636,0.900,-0.265
5.639,1.080,-0.490
5.642,1.255,-0.795
5.644,1.410,-1.155
5.647,1.515,-1.550
5.650,1.600,-1.925
5.653,1.635,-2.210
5.656,1.610,-2.370
5.658,1.540,-2.400
5.661,1.415,-2.330
5.664,1.225,-2.210
5.667,1.015,-2.020
5.669,0.740,-1.815
5.672,0.485,-1.555
5.675,0.280,-1.290
5.678,0.115,-1.050
5.681,0.025,-0.810
5.683,-0.030,-0.650
5.686,-0.080,-0.545
5.689,-0.085,-0.465
5.692,-0.095,-0.400
5.694,-0.125,-0.325
5.697,-0.150,-0.245
5.700,-0.185,-0.180
5.703,-0.205,-0.120
5.706,-0.230,-0.065
5.708,-0.225,-0.035
5.711,-0.230,-0.020
5.714,-0.230,-0.015
5.717,-0.240,-0.020
5.719,-0.255,-0.010
5.722,-0.255,0.005
5.725,-0.260,0.010
5.728,-0.260,0.025
5.731,-0.260,0.050
5.733,-0.255,0.065
5.736,-0.255,0.075
5.739,-0.250,0.080
5.742,-0.260,0.080
5.744,-0.265,0.090
5.747,-0.265,0.085
5.750,-0.260,0.075
5.753,-0.280,0.090
5.756,-0.280,0.110
5.758,-0.285,0.120
5.761,-0.270,0.130
5.764,-0.260,0.145
5.767,-0.265,0.160
5.769,-0.260,0.155
5.772,-0.270,0.165
5.775,-0.280,0.165
5.778,-0.290,0.170
5.781,-0.300,0.175
5.783,-0.305,0.170
5.786,-0.310,0.185
5.789,-0.325,0.195
5.792,-0.340,0.215
5.794,-0.340,0.240
5.797,-0.320,0.250
5.800,-0.325,0.255
5.803,-0.325,0.260
5.806,-0.345,0.265
5.808,-0.345,0.270
5.811,-0.365,0.290
5.814,-0.375,0.300
5.817,-0.400,0.300
5.819,-0.410,0.315
5.822,-0.420,0.325
5.825,-0.435,0.345
5.828,-0.445,0.355
5.831,-0.455,0.385
5.833,-0.460,0.405
5.836,-0.470,0.415
5.839,-0.475,0.410
5.842,-0.495,0.425
5.844,-0.500,0.410
5.847,-0.520,0.410
5.850,-0.525,0.410
5.853,-0.540,0.420
5.856,-0.540,0.425
5.858,-0.560,0.435
5.861,-0.540,0.455
5.864,-0.525,0.460
5.867,-0.525,0.465
5.869,-0.515,0.470
5.872,-0.500,0.460
5.875,-0.490,0.440
5.878,-0.490,0.435
5.881,-0.475,0.405
5.883,-0.465,0.385
5.886,-0.450,0.355
5.889,-0.440,0.350
5.892,-0.400,0.335
5.894,-0.375,0.325
5.897,-0.350,0.295
5.900,-0.320,0.280
5.903,-0.300,0.230
5.906,-0.285,0.215
5.908,-0.270,0.185
5.911,-0.260,0.155
5.914,-0.260,0.120
5.917,-0.245,0.095
5.919,-0.245,0.075
5.922,-0.235,0.060
5.925,-0.215,0.060
5.928,-0.205,0.050
5.931,-0.200,0.035
5.933,-0.190,0.025
5.936,-0.190,0.015
5.939,-0.180,0.010
5.942,-0.190,0.000
5.944,-0.185,-0.010
5.947,-0.190,-0.020
5.950,-0.205,-0.025
5.953,-0.200,-0.045
5.956,-0.195,-0.030
5.958,-0.205,-0.030
5.961,-0.160,-0.030
5.964,-0.150,-0.015
5.967,-0.125,-0.010
5.969,-0.085,0.000
5.972,-0.065,-0.015
5.975,-0.020,-0.020
5.978,0.030,-0.030
5.981,0.080,-0.050
5.983,0.140,-0.060
5.986,0.195,-0.065
5.989,0.280,-0.065
5.992,0.360,-0.055
5.994,0.480,-0.070
5.997,0.590,-0.080
6.000,0.680,-0.115
6.003,0.700,-0.160
6.006,0.620,-0.245
6.008,0.390,-0.325
6.011,0.000,-0.415
6.014,-0.490,-0.485
6.017,-1.015,-0.515
6.019,-1.475,-0.515
6.022,-1.835,-0.515
6.025,-2.090,-0.520
6.028,-2.240,-0.530
6.031,-2.345,-0.535
6.033,-2.400,-0.520
6.036,-2.445,-0.455
6.039,-2.455,-0.345
6.042,-2.445,-0.205
6.044,-2.430,-0.045
6.047,-2.390,0.135
6.050,-2.330,0.320
6.053,-2.250,0.475
6.056,-2.130,0.630
6.058,-2.015,0.770
6.061,-1.890,0.885
6.064,-1.770,0.995
6.067,-1.670,1.055
6.069,-1.600,1.100
6.072,-1.545,1.135
6.075,-1.480,1.150
6.078,-1.400,1.115
6.081,-1.280,1.025
6.083,-1.160,0.850
6.086,-1.040,0.605
6.089,-0.955,0.320
6.092,-0.890,0.030
6.094,-0.850,-0.230
6.097,-0.820,-0.425
6.100,-0.775,-0.550
6.103,-0.715,-0.580
6.106,-0.615,-0.550
6.108,-0.470,-0.495
6.111,-0.305,-0.440
6.114,-0.155,-0.395
6.117,-0.015,-0.345
6.119,0.065,-0.305
6.122,0.105,-0.285
6.125,0.125,-0.240
6.128,0.115,-0.220
6.131,0.095,-0.205
6.133,0.095,-0.195
6.136,0.110,-0.185
6.139,0.120,-0.180
6.142,0.145,-0.175
6.144,0.145,-0.175
6.147,0.160,-0.180
6.150,0.170,-0.175
6.153,0.170,-0.185
6.156,0.185,-0.190
6.158,0.210,-0.185
6.161,0.215,-0.185
6.164,0.235,-0.165
6.167,0.255,-0.175
6.169,0.285,-0.175
6.172,0.295,-0.175
6.175,0.305,-0.195
6.178,0.310,-0.205
6.181,0.315,-0.220
6.183,0.330,-0.215
6.186,0.345,-0.220
6.189,0.360,-0.205
6.192,0.385,-0.200
6.194,0.410,-0.200
6.197,0.430,-0.185
6.200,0.470,-0.195
6.203,0.505,-0.200
6.206,0.500,-0.195
6.208,0.520,-0.210
6.211,0.550,-0.225
6.214,0.565,-0.220
6.217,0.570,-0.225
6.219,0.575,-0.230
6.222,0.600,-0.240
6.225,0.610,-0.250
6.228,0.615,-0.245
6.231,0.635,-0.245
6.233,0.650,-0.255
6.236,0.650,-0.260
6.239,0.655,-0.260
6.242,0.645,-0.265
6.244,0.625,-0.280
6.247,0.600,-0.300
6.250,0.575,-0.305
6.253,0.555,-0.315
6.256,0.535,-0.325
6.258,0.520,-0.330
6.261,0.505,-0.330
6.264,0.465,-0.325
6.267,0.435,-0.315
6.269,0.405,-0.320
6.272,0.360,-0.335
6.275,0.300,-0.330
6.278,0.240,-0.345
6.281,0.200,-0.345
6.283,0.155,-0.335
6.286,0.120,-0.310
6.289,0.070,-0.305
6.292,0.040,-0.275
6.294,0.015,-0.260
6.297,-0.020,-0.235
6.300,-0.050,-0.230
6.303,-0.085,-0.205
6.306,-0.120,-0.195
6.308,-0.160,-0.175
6.311,-0.190,-0.160
6.314,-0.220,-0.155
6.317,-0.260,-0.130
6.319,-0.305,-0.115
6.322,-0.335,-0.090
6.325,-0.360,-0.080
6.328,-0.370,-0.065
6.331,-0.380,-0.050
6.333,-0.390,-0.035
6.336,-0.395,-0.020
6.339,-0.410,-0.030
6.342,-0.430,-0.035
6.344,-0.450,-0.035
6.347,-0.470,-0.025
6.350,-0.490,-0.010
6.353,-0.510,-0.015
6.356,-0.515,-0.015
6.358,-0.515,-0.010
6.361,-0.505,-0.015
6.364,-0.515,-0.020
6.367,-0.520,-0.005
6.369,-0.510,-0.010
6.372,-0.525,-0.005
6.375,-0.525,0.000
6.378,-0.540,0.000
6.381,-0.550,0.000
6.383,-0.565,-0.010
6.386,-0.570,-0.015
6.389,-0.570,-0.020
6.392,-0.585,-0.020
6.394,-0.575,-0.015
6.397,-0.560,0.000
6.400,-0.565,0.015
6.403,-0.560,0.010
6.406,-0.565,0.015
6.408,-0.560,0.005
6.411,-0.570,0.005
6.414,-0.565,-0.020
6.417,-0.570,-0.035
6.419,-0.580,-0.035
6.422,-0.580,-0.035
6.425,-0.600,-0.025
6.428,-0.600,0.010
6.431,-0.625,0.015
6.433,-0.625,0.030
6.436,-0.620,0.025
6.439,-0.625,-0.005
6.442,-0.610,-0.005
6.444,-0.620,-0.025
6.447,-0.630,-0.030
6.450,-0.635,-0.035
6.453,-0.665,-0.020
6.456,-0.675,0.005
6.458,-0.675,0.010
6.461,-0.670,0.035
6.464,-0.670,0.045
6.467,-0.670,0.035
6.469,-0.655,0.015
6.472,-0.660,0.010
6.475,-0.675,0.000
6.478,-0.690,0.005
6.481,-0.685,-0.010
6.483,-0.695,0.000
6.486,-0.690,-0.005
6.489,-0.695,0.005
6.492,-0.695,0.000
6.494,-0.685,0.005
6.497,-0.695,-0.015
6.500,-0.685,-0.015
6.503,-0.690,-0.015
6.506,-0.705,-0.025
6.508,-0.705,-0.025
6.511,-0.720,-0.020
6.514,-0.725,-0.010
6.517,-0.735,-0.020
6.519,-0.750,-0.015
6.522,-0.740,0.000
6.525,-0.735,-0.015
6.528,-0.720,0.015
6.531,-0.705,0.000
6.533,-0.690,-0.010
6.536,-0.685,-0.010
6.539,-0.710,-0.010
6.542,-0.725,-0.005
6.544,-0.740,-0.010
6.547,-0.755,-0.015
6.550,-0.765,-0.045
6.553,-0.765,-0.080
6.556,-0.765,-0.080
6.558,-0.770,-0.065
6.561,-0.765,-0.020
6.564,-0.770,0.020
6.567,-0.770,0.045
6.569,-0.780,0.030
6.572,-0.785,0.005
6.575,-0.800,-0.020
6.578,-0.800,-0.030
6.581,-0.795,-0.040
6.583,-0.805,-0.055
6.586,-0.800,-0.050
6.589,-0.785,-0.030
6.592,-0.795,-0.015
6.594,-0.790,0.005
6.597,-0.785,0.015
6.600,-0.790,0.030
6.603,-0.795,0.030
6.606,-0.795,0.035
6.608,-0.780,0.005
6.611,-0.780,0.000
6.614,-0.785,0.005
6.617,-0.790,0.015
6.619,-0.810,0.015
6.622,-0.825,0.015
6.625,-0.830,0.000
6.628,-0.825,0.010
6.631,-0.800,0.025
6.633,-0.780,0.065
6.636,-0.735,0.105
6.639,-0.715,0.160
6.642,-0.715,0.205
6.644,-0.725,0.220
6.647,-0.730,0.235
6.650,-0.730,0.215
6.653,-0.725,0.215
6.656,-0.705,0.200
6.658,-0.665,0.205
6.661,-0.645,0.210
6.664,-0.610,0.195
6.667,-0.580,0.170
6.669,-0.575,0.150
6.672,-0.555,0.130
6.675,-0.565,0.120
6.678,-0.585,0.090
6.681,-0.585,0.070
6.683,-0.585,0.060
6.686,-0.590,0.035
6.689,-0.580,0.030
6.692,-0.590,0.015
6.694,-0.605,0.010
6.697,-0.655,0.005
6.700,-0.675,-0.005
6.703,-0.720,-0.015
6.706,-0.760,-0.015
6.708,-0.800,-0.015
6.711,-0.840,0.015
6.714,-0.855,0.040
6.717,-0.865,0.065
6.719,-0.890,0.055
6.722,-0.900,0.040
6.725,-0.905,0.025
6.728,-0.905,0.010
6.731,-0.905,0.020
6.733,-0.905,0.010
6.736,-0.900,0.010
6.739,-0.910,0.020
6.742,-0.920,0.005
6.744,-0.935,0.005
6.747,-0.945,0.005
6.750,-0.960,0.005
6.753,-0.940,0.005
6.756,-0.940,0.020
6.758,-0.940,0.020
6.761,-0.930,0.020
6.764,-0.930,0.050
6.767,-0.910,0.090
6.769,-0.870,0.130
6.772,-0.840,0.160
6.775,-0.720,0.180
6.778,-0.565,0.170
6.781,-0.360,0.110
6.783,-0.125,0.040
6.786,0.095,-0.095
6.789,0.320,-0.280
6.792,0.520,-0.495
6.794,0.705,-0.760
6.797,0.870,-1.060
6.800,1.005,-1.385
6.803,1.080,-1.670
6.806,1.090,-1.855
6.808,1.025,-1.955
6.811,0.850,-1.960
6.814,0.595,-1.860
6.817,0.260,-1.725
6.819,-0.115,-1.505
6.822,-0.465,-1.280
6.825,-0.720,-1.045
6.828,-0.870,-0.820
6.831,-0.920,-0.625
6.833,-0.910,-0.485
6.836,-0.890,-0.385
6.839,-0.885,-0.315
6.842,-0.890,-0.250
6.844,-0.930,-0.190
6.847,-0.975,-0.125
6.850,-1.030,-0.070
6.853,-1.065,-0.015
6.856,-1.075,0.010
6.858,-1.080,0.050
6.861,-1.080,0.075
6.864,-1.080,0.100
6.867,-1.065,0.105
6.869,-1.055,0.125
6.872,-1.070,0.135
6.875,-1.070,0.145
6.878,-1.090,0.150
6.881,-1.120,0.135
6.883,-1.125,0.130
6.886,-1.135,0.135
6.889,-1.125,0.155
6.892,-1.120,0.165
6.894,-1.110,0.185
6.897,-1.105,0.200
6.900,-1.110,0.215
6.903,-1.100,0.205
6.906,-1.100,0.215
6.908,-1.105,0.210
6.911,-1.115,0.195
6.914,-1.125,0.205
6.917,-1.135,0.205
6.919,-1.145,0.220
6.922,-1.145,0.230
6.925,-1.125,0.245
6.928,-1.130,0.240
6.931,-1.105,0.260
6.933,-1.105,0.255
6.936,-1.120,0.255
6.939,-1.125,0.255
6.942,-1.130,0.260
6.944,-1.140,0.260
6.947,-1.160,0.270
6.950,-1.160,0.285
6.953,-1.195,0.310
6.956,-1.180,0.295
6.958,-1.190,0.310
6.961,-1.190,0.325
6.964,-1.195,0.325
6.967,-1.195,0.345
6.969,-1.195,0.355
6.972,-1.205,0.355
6.975,-1.225,0.360
6.978,-1.245,0.355
6.981,-1.255,0.360
6.983,-1.270,0.365
6.986,-1.305,0.365
6.989,-1.300,0.380
6.992,-1.320,0.395
6.994,-1.325,0.405
6.997,-1.320,0.425
7.000,-1.325,0.435
7.003,-1.340,0.450
7.006,-1.350,0.450
7.008,-1.380,0.450
7.011,-1.380,0.440
7.014,-1.390,0.445
7.017,-1.410,0.430
7.019,-1.420,0.440
7.022,-1.425,0.435
7.025,-1.435,0.460
7.028,-1.435,0.470
7.031,-1.430,0.490
7.033,-1.425,0.500
7.036,-1.425,0.495
7.039,-1.425,0.500
7.042,-1.420,0.485
7.044,-1.415,0.460
7.047,-1.395,0.450
7.050,-1.385,0.440
7.053,-1.370,0.435
7.056,-1.345,0.435
7.058,-1.340,0.440
7.061,-1.310,0.440
7.064,-1.280,0.430
7.067,-1.250,0.420
7.069,-1.220,0.395
7.072,-1.190,0.375
7.075,-1.155,0.355
7.078,-1.130,0.325
7.081,-1.100,0.310
7.083,-1.080,0.290
7.086,-1.060,0.275
7.089,-1.030,0.255
7.092,-1.010,0.250
7.094,-0.980,0.235
7.097,-0.950,0.220
7.100,-0.940,0.205
7.103,-0.900,0.205
7.106,-0.905,0.195
7.108,-0.880,0.175
7.111,-0.855,0.175
7.114,-0.865,0.165
7.117,-0.870,0.150
7.119,-0.880,0.140
7.122,-0.870,0.140
7.125,-0.860,0.145
7.128,-0.865,0.150
7.131,-0.855,0.155
7.133,-0.855,0.165
7.136,-0.845,0.160
7.139,-0.860,0.155
7.142,-0.860,0.140
7.144,-0.860,0.140
7.147,-0.845,0.145
7.150,-0.855,0.125
7.153,-0.855,0.135
7.156,-0.855,0.130
7.158,-0.855,0.140
7.161,-0.845,0.155
7.164,-0.840,0.165
7.167,-0.830,0.175
7.169,-0.815,0.165
7.172,-0.805,0.160
7.175,-0.800,0.140
7.178,-0.800,0.140
7.181,-0.820,0.120
7.183,-0.830,0.135
7.186,-0.845,0.155
7.189,-0.840,0.165
7.192,-0.835,0.175
7.194,-0.830,0.195
7.197,-0.825,0.190
7.200,-0.815,0.180
7.203,-0.825,0.175
7.206,-0.805,0.165
7.208,-0.795,0.170
7.211,-0.805,0.175
7.214,-0.800,0.170
7.217,-0.805,0.175
7.219,-0.800,0.175
7.222,-0.795,0.185
7.225,-0.790,0.190
7.228,-0.780,0.185
7.231,-0.760,0.190
7.233,-0.750,0.200
7.236,-0.745,0.225
7.239,-0.730,0.230
7.242,-0.715,0.270
7.244,-0.695,0.285
7.247,-0.685,0.285
7.250,-0.675,0.300
7.253,-0.665,0.300
7.256,-0.645,0.295
7.258,-0.650,0.300
7.261,-0.635,0.305
7.264,-0.610,0.315
7.267,-0.585,0.330
7.269,-0.545,0.325
7.272,-0.510,0.285
7.275,-0.485,0.260
7.278,-0.470,0.230
7.281,-0.475,0.185
7.283,-0.480,0.155
7.286,-0.505,0.125
7.289,-0.520,0.130
7.292,-0.525,0.150
7.294,-0.515,0.155
7.297,-0.510,0.165
7.300,-0.500,0.155
7.303,-0.490,0.140
7.306,-0.495,0.120
7.308,-0.505,0.095
7.311,-0.545,0.070
7.314,-0.580,0.045
7.317,-0.605,0.040
7.319,-0.640,0.050
7.322,-0.655,0.070
7.325,-0.665,0.085
7.328,-0.685,0.125
7.331,-0.695,0.135
7.333,-0.700,0.140
7.336,-0.720,0.130
7.339,-0.730,0.130
7.342,-0.745,0.120
7.344,-0.750,0.105
7.347,-0.765,0.100
7.350,-0.770,0.100
7.353,-0.770,0.100
7.356,-0.765,0.105
7.358,-0.765,0.110
7.361,-0.760,0.110
7.364,-0.755,0.105
7.367,-0.750,0.105
7.369,-0.740,0.100
7.372,-0.735,0.110
7.375,-0.720,0.110
7.378,-0.720,0.110
7.381,-0.720,0.120
7.383,-0.730,0.140
7.386,-0.705,0.185
7.389,-0.645,0.215
7.392,-0.560,0.260
7.394,-0.410,0.270
7.397,-0.215,0.235
7.400,0.010,0.155
7.403,0.265,0.035
7.406,0.480,-0.155
7.408,0.695,-0.400
7.411,0.885,-0.720
7.414,1.050,-1.065
7.417,1.180,-1.440
7.419,1.265,-1.760
7.422,1.280,-1.960
7.425,1.210,-2.055
7.428,1.070,-2.025
7.431,0.850,-1.910
7.433,0.535,-1.730
7.436,0.175,-1.515
7.439,-0.190,-1.270
7.442,-0.440,-1.015
7.444,-0.620,-0.795
7.447,-0.710,-0.600
7.450,-0.745,-0.470
7.453,-0.725,-0.360
7.456,-0.720,-0.280
7.458,-0.725,-0.200
7.461,-0.740,-0.120
7.464,-0.770,-0.035
7.467,-0.785,0.035
7.469,-0.815,0.090
7.472,-0.820,0.135
7.475,-0.815,0.135
7.478,-0.820,0.140
7.481,-0.830,0.145
7.483,-0.835,0.165
7.486,-0.850,0.165
7.489,-0.845,0.165
7.492,-0.850,0.185
7.494,-0.840,0.200
7.497,-0.835,0.210
7.500,-0.820,0.215
7.503,-0.815,0.230
7.506,-0.825,0.240
7.508,-0.835,0.230
7.511,-0.835,0.235
7.514,-0.840,0.235
7.517,-0.845,0.230
7.519,-0.855,0.235
7.522,-0.845,0.245
7.525,-0.840,0.250
7.528,-0.855,0.270
7.531,-0.850,0.290
7.533,-0.845,0.295
7.536,-0.845,0.315
7.539,-0.835,0.295
7.542,-0.850,0.295
7.544,-0.865,0.290
7.547,-0.850,0.300
7.550,-0.860,0.315
7.553,-0.865,0.325
7.556,-0.875,0.340
7.558,-0.865,0.345
7.561,-0.855,0.365
7.564,-0.855,0.375
7.567,-0.855,0.385
7.569,-0.875,0.390
7.572,-0.875,0.400
7.575,-0.900,0.415
7.578,-0.905,0.415
7.581,-0.915,0.430
7.583,-0.930,0.435
7.586,-0.955,0.435
7.589,-0.945,0.435
7.592,-0.960,0.450
7.594,-0.960,0.465
7.597,-0.970,0.475
7.600,-0.965,0.495
7.603,-0.975,0.515
7.606,-0.965,0.505
7.608,-0.980,0.515
7.611,-0.990,0.520
7.614,-1.010,0.520
7.617,-1.025,0.535
7.619,-1.025,0.525
7.622,-1.015,0.515
7.625,-1.005,0.540
7.628,-1.000,0.550
7.631,-1.000,0.565
7.633,-0.990,0.565
7.636,-0.980,0.575
7.639,-0.970,0.560
7.642,-0.955,0.540
7.644,-0.945,0.515
7.647,-0.940,0.505
7.650,-0.915,0.490
7.653,-0.905,0.480
7.656,-0.870,0.450
7.658,-0.845,0.455
7.661,-0.810,0.440
7.664,-0.785,0.415
7.667,-0.750,0.395
7.669,-0.720,0.370
7.672,-0.700,0.345
7.675,-0.690,0.315
7.678,-0.680,0.300
7.681,-0.665,0.270
7.683,-0.665,0.255
7.686,-0.650,0.240
7.689,-0.640,0.230
7.692,-0.630,0.220
7.694,-0.620,0.220
7.697,-0.605,0.210
7.700,-0.600,0.200
7.703,-0.585,0.180
7.706,-0.590,0.180
7.708,-0.595,0.160
7.711,-0.585,0.170
7.714,-0.600,0.160
7.717,-0.605,0.155
7.719,-0.600,0.155
7.722,-0.600,0.145
7.725,-0.580,0.150
7.728,-0.575,0.130
7.731,-0.585,0.145
7.733,-0.565,0.155
7.736,-0.580,0.155
7.739,-0.575,0.165
7.742,-0.560,0.160
7.744,-0.570,0.150
7.747,-0.575,0.140
7.750,-0.580,0.130
7.753,-0.575,0.110
7.756,-0.580,0.125
7.758,-0.575,0.135
7.761,-0.580,0.145
7.764,-0.575,0.160
7.767,-0.555,0.170
7.769,-0.550,0.165
7.772,-0.545,0.155
7.775,-0.535,0.150
7.778,-0.545,0.135
7.781,-0.545,0.120
7.783,-0.550,0.120
7.786,-0.555,0.125
7.789,-0.555,0.130
7.792,-0.545,0.130
7.794,-0.555,0.140
7.797,-0.545,0.150
7.800,-0.535,0.160
7.803,-0.530,0.165
7.806,-0.510,0.150
7.808,-0.515,0.150
7.811,-0.520,0.140
7.814,-0.515,0.140
7.817,-0.510,0.145
7.819,-0.510,0.155
7.822,-0.500,0.180
7.825,-0.495,0.185
7.828,-0.465,0.205
7.831,-0.440,0.235
7.833,-0.415,0.265
7.836,-0.390,0.290
7.839,-0.380,0.310
7.842,-0.370,0.305
7.844,-0.365,0.305
7.847,-0.355,0.300
7.850,-0.340,0.290
7.853,-0.310,0.280
7.856,-0.285,0.260
7.858,-0.240,0.230
7.861,-0.215,0.230
7.864,-0.200,0.195
7.867,-0.190,0.190
7.869,-0.200,0.150
7.872,-0.215,0.130
7.875,-0.225,0.135
7.878,-0.235,0.110
7.881,-0.250,0.120
7.883,-0.240,0.105
7.886,-0.230,0.115
7.889,-0.220,0.090
7.892,-0.220,0.075
7.894,-0.230,0.055
7.897,-0.250,0.060
7.900,-0.285,0.055
7.903,-0.315,0.055
7.906,-0.350,0.060
7.908,-0.380,0.080
7.911,-0.395,0.090
7.914,-0.410,0.095
7.917,-0.425,0.085
7.919,-0.430,0.080
7.922,-0.440,0.070
7.925,-0.435,0.085
7.928,-0.445,0.095
7.931,-0.450,0.105
7.933,-0.450,0.110
7.936,-0.455,0.110
7.939,-0.455,0.100
7.942,-0.445,0.085
7.944,-0.455,0.075
7.947,-0.455,0.075
7.950,-0.465,0.065
7.953,-0.465,0.070
7.956,-0.455,0.065
7.958,-0.445,0.070
7.961,-0.445,0.075
7.964,-0.435,0.065
7.967,-0.435,0.090
7.969,-0.420,0.095
7.972,-0.410,0.115
7.975,-0.390,0.150
7.978,-0.350,0.200
7.981,-0.290,0.220
7.983,-0.170,0.250
7.986,-0.020,0.230
7.989,0.190,0.160
7.992,0.400,0.035
7.994,0.630,-0.085
7.997,0.820,-0.295
8.000,1.020,-0.545
8.003,1.200,-0.840
8.006,1.355,-1.185
8.008,1.485,-1.535
8.011,1.560,-1.820
8.014,1.575,-2.020
8.017,1.515,-2.090
8.019,1.400,-2.070
8.022,1.225,-1.975
8.025,0.975,-1.830
8.028,0.660,-1.640
8.031,0.325,-1.430
8.033,0.055,-1.190
8.036,-0.165,-0.950
8.039,-0.300,-0.745
8.042,-0.350,-0.605
8.044,-0.370,-0.475
8.047,-0.380,-0.390
8.050,-0.385,-0.310
8.053,-0.390,-0.240
8.056,-0.425,-0.175
8.058,-0.460,-0.100
8.061,-0.520,-0.025
8.064,-0.525,0.035
8.067,-0.515,0.075
8.069,-0.515,0.100
8.072,-0.520,0.105
8.075,-0.520,0.120
8.078,-0.515,0.110
8.081,-0.530,0.095
8.083,-0.545,0.125
8.086,-0.555,0.125
8.089,-0.555,0.135
8.092,-0.555,0.150
8.094,-0.535,0.170
8.097,-0.525,0.185
8.100,-0.510,0.195
8.103,-0.515,0.195
8.106,-0.535,0.195
8.108,-0.525,0.195
8.111,-0.530,0.195
8.114,-0.535,0.195
8.117,-0.535,0.195
8.119,-0.540,0.205
8.122,-0.535,0.205
8.125,-0.525,0.215
8.128,-0.520,0.235
8.131,-0.530,0.240
8.133,-0.535,0.250
8.136,-0.530,0.250
8.139,-0.535,0.250
8.142,-0.550,0.260
8.144,-0.545,0.265
8.147,-0.555,0.250
8.150,-0.565,0.255
8.153,-0.565,0.270
8.156,-0.565,0.285
8.158,-0.565,0.290
8.161,-0.560,0.300
8.164,-0.565,0.315
8.167,-0.560,0.335
8.169,-0.570,0.330
8.172,-0.570,0.350
8.175,-0.575,0.365
8.178,-0.590,0.360
8.181,-0.600,0.355
8.183,-0.625,0.355
8.186,-0.640,0.365
8.189,-0.645,0.375
8.192,-0.655,0.395
8.194,-0.665,0.405
8.197,-0.670,0.440
8.200,-0.670,0.455
8.203,-0.665,0.470
8.206,-0.680,0.460
8.208,-0.690,0.465
8.211,-0.700,0.465
8.214,-0.715,0.455
8.217,-0.730,0.470
8.219,-0.745,0.465
8.222,-0.755,0.480
8.225,-0.760,0.505
8.228,-0.760,0.510
8.231,-0.745,0.510
8.233,-0.735,0.520
8.236,-0.730,0.515
8.239,-0.720,0.505
8.242,-0.705,0.495
8.244,-0.690,0.480
8.247,-0.680,0.470
8.250,-0.680,0.450
8.253,-0.660,0.435
8.256,-0.635,0.435
8.258,-0.605,0.415
8.261,-0.575,0.395
8.264,-0.545,0.380
8.267,-0.520,0.365
8.269,-0.495,0.345
8.272,-0.470,0.310
8.275,-0.450,0.290
8.278,-0.425,0.255
8.281,-0.410,0.230
8.283,-0.400,0.225
8.286,-0.390,0.200
8.289,-0.365,0.175
8.292,-0.345,0.165
8.294,-0.320,0.150
8.297,-0.310,0.130
8.300,-0.285,0.135
8.303,-0.265,0.115
8.306,-0.280,0.110
8.308,-0.270,0.100
8.311,-0.265,0.090
8.314,-0.280,0.080
8.317,-0.290,0.055
8.319,-0.275,0.045
8.322,-0.265,0.050
8.325,-0.250,0.050
8.328,-0.230,0.065
8.331,-0.205,0.075
8.333,-0.180,0.085
8.336,-0.135,0.065
8.339,-0.100,0.065
8.342,-0.060,0.070
8.344,-0.020,0.040
8.347,0.025,0.025
8.350,0.075,0.030
8.353,0.140,0.005
8.356,0.215,0.015
8.358,0.300,0.005
8.361,0.405,0.000
8.364,0.520,0.000
8.367,0.615,0.000
8.369,0.695,-0.020
8.372,0.705,-0.070
8.375,0.625,-0.115
8.378,0.445,-0.185
8.381,0.145,-0.260
8.383,-0.230,-0.310
8.386,-0.630,-0.350
8.389,-0.985,-0.355
8.392,-1.300,-0.360
8.394,-1.525,-0.330
8.397,-1.675,-0.360
8.400,-1.795,-0.370
8.403,-1.885,-0.390
8.406,-1.970,-0.395
8.408,-2.050,-0.380
8.411,-2.125,-0.310
8.414,-2.175,-0.210
8.417,-2.190,-0.075
8.419,-2.175,0.090
8.422,-2.125,0.230
8.425,-2.035,0.385
8.428,-1.960,0.520
8.431,-1.870,0.635
8.433,-1.765,0.745
8.436,-1.650,0.835
8.439,-1.555,0.890
8.442,-1.460,0.960
8.444,-1.400,0.990
8.447,-1.340,1.010
8.450,-1.270,1.025
8.453,-1.195,1.015
8.456,-1.085,0.940
8.458,-0.940,0.800
8.461,-0.805,0.590
8.464,-0.695,0.325
8.467,-0.605,0.055
8.469,-0.555,-0.175
8.472,-0.525,-0.340
8.475,-0.500,-0.410
8.478,-0.445,-0.435
8.481,-0.360,-0.380
8.483,-0.250,-0.330
8.486,-0.090,-0.280
8.489,0.085,-0.215
8.492,0.210,-0.175
8.494,0.295,-0.145
8.497,0.325,-0.140
8.500,0.320,-0.125
8.503,0.300,-0.120
8.506,0.270,-0.125
8.508,0.245,-0.115
8.511,0.250,-0.105
8.514,0.255,-0.095
8.517,0.260,-0.100
8.519,0.280,-0.100
8.522,0.290,-0.100
8.525,0.310,-0.085
8.528,0.325,-0.090
8.531,0.340,-0.080
8.533,0.360,-0.090
8.536,0.370,-0.090
8.539,0.385,-0.080
8.542,0.395,-0.100
8.544,0.415,-0.110
8.547,0.405,-0.110
8.550,0.420,-0.110
8.553,0.425,-0.115
8.556,0.445,-0.120
8.558,0.455,-0.110
8.561,0.495,-0.120
8.564,0.515,-0.120
8.567,0.545,-0.110
8.569,0.560,-0.100
8.572,0.580,-0.110
8.575,0.600,-0.115
8.578,0.605,-0.120
8.581,0.635,-0.130
8.583,0.645,-0.135
8.586,0.665,-0.145
8.589,0.685,-0.155
8.592,0.705,-0.150
8.594,0.730,-0.140
8.597,0.760,-0.130
8.600,0.805,-0.135
8.603,0.820,-0.130
8.606,0.840,-0.140
8.608,0.855,-0.150
8.611,0.855,-0.175
8.614,0.860,-0.180
8.617,0.860,-0.195
8.619,0.865,-0.200
8.622,0.865,-0.195
8.625,0.875,-0.190
8.628,0.875,-0.185
8.631,0.870,-0.205
8.633,0.840,-0.195
8.636,0.830,-0.205
8.639,0.820,-0.215
8.642,0.795,-0.225
8.644,0.765,-0.245
8.647,0.730,-0.235
8.650,0.710,-0.260
8.653,0.675,-0.250
8.656,0.635,-0.260
8.658,0.615,-0.250
8.661,0.585,-0.255
8.664,0.545,-0.240
8.667,0.500,-0.225
8.669,0.475,-0.220
8.672,0.430,-0.215
8.675,0.400,-0.210
8.678,0.360,-0.200
8.681,0.310,-0.170
8.683,0.280,-0.180
8.686,0.230,-0.165
8.689,0.215,-0.155
8.692,0.180,-0.140
8.694,0.160,-0.130
8.697,0.145,-0.095
8.700,0.125,-0.075
8.703,0.105,-0.055
8.706,0.075,-0.055
8.708,0.065,-0.040
8.711,0.060,-0.030
8.714,0.035,-0.035
8.717,0.020,-0.030
8.719,0.005,-0.040
8.722,-0.010,-0.035
8.725,-0.020,-0.015
8.728,-0.025,-0.005
8.731,-0.025,0.000
8.733,-0.040,0.005
8.736,-0.035,-0.005
8.739,-0.030,-0.005
8.742,-0.035,-0.015
8.744,-0.035,-0.020
8.747,-0.045,-0.030
8.750,-0.045,-0.030
8.753,-0.060,-0.015
8.756,-0.055,-0.015
8.758,-0.050,-0.015
8.761,-0.045,-0.020
8.764,-0.035,-0.010
8.767,-0.035,-0.010
8.769,-0.025,-0.005
8.772,-0.040,-0.015
8.775,-0.035,-0.030
8.778,-0.045,-0.025
8.781,-0.045,-0.020
8.783,-0.040,-0.035
8.786,-0.055,-0.040
8.789,-0.045,-0.035
8.792,-0.055,-0.025
8.794,-0.040,-0.035
8.797,-0.050,-0.025
8.800,-0.035,-0.025
8.803,-0.030,-0.025
8.806,-0.035,-0.020
8.808,-0.030,-0.025
8.811,-0.035,-0.030
8.814,-0.055,-0.035
8.817,-0.060,-0.050
8.819,-0.070,-0.055
8.822,-0.075,-0.065
8.825,-0.065,-0.060
8.828,-0.085,-0.040
8.831,-0.070,-0.030
8.833,-0.060,-0.020
8.836,-0.050,-0.030
8.839,-0.055,-0.020
8.842,-0.040,-0.035
8.844,-0.060,-0.050
8.847,-0.070,-0.045
8.850,-0.085,-0.060
8.853,-0.085,-0.060
8.856,-0.075,-0.070
8.858,-0.075,-0.065
8.861,-0.070,-0.065
8.864,-0.070,-0.060
8.867,-0.060,-0.040
8.869,-0.060,-0.050
8.872,-0.060,-0.045
8.875,-0.065,-0.055
8.878,-0.080,-0.060
8.881,-0.100,-0.075
8.883,-0.095,-0.085
8.886,-0.100,-0.090
8.889,-0.105,-0.085
8.892,-0.090,-0.070
8.894,-0.075,-0.065
8.897,-0.075,-0.065
8.900,-0.070,-0.060
8.903,-0.060,-0.070
8.906,-0.070,-0.070
8.908,-0.075,-0.075
8.911,-0.080,-0.080
8.914,-0.090,-0.085
8.917,-0.080,-0.080
8.919,-0.085,-0.085
8.922,-0.080,-0.085
8.925,-0.100,-0.090
8.928,-0.085,-0.080
8.931,-0.080,-0.080
8.933,-0.070,-0.070
8.936,-0.050,-0.075
8.939,-0.055,-0.090
8.942,-0.055,-0.095
8.944,-0.065,-0.100
8.947,-0.065,-0.110
8.950,-0.080,-0.105
8.953,-0.070,-0.115
8.956,-0.080,-0.090
8.958,-0.070,-0.100
8.961,-0.060,-0.100
8.964,-0.065,-0.085
8.967,-0.060,-0.095
8.969,-0.050,-0.090
8.972,-0.060,-0.090
8.975,-0.050,-0.095
8.978,-0.055,-0.100
8.981,-0.060,-0.115
8.983,-0.055,-0.125
8.986,-0.060,-0.115
8.989,-0.070,-0.115
8.992,-0.055,-0.115
8.994,-0.045,-0.110
8.997,-0.050,-0.110
9.000,-0.035,-0.100
9.003,-0.025,-0.085
9.006,-0.010,-0.090
9.008,-0.010,-0.075
9.011,0.000,-0.065
9.014,0.005,-0.055
9.017,0.025,-0.040
9.019,0.040,0.000
9.022,0.065,0.030
9.025,0.090,0.045
9.028,0.095,0.045
9.031,0.110,0.070
9.033,0.130,0.060
9.036,0.145,0.060
9.039,0.165,0.030
9.042,0.195,0.010
9.044,0.220,-0.035
9.047,0.250,-0.065
9.050,0.265,-0.095
9.053,0.270,-0.105
9.056,0.260,-0.120
9.058,0.240,-0.110
9.061,0.220,-0.125
9.064,0.215,-0.115
9.067,0.220,-0.110
9.069,0.235,-0.130
9.072,0.220,-0.155
9.075,0.235,-0.190
9.078,0.230,-0.200
9.081,0.200,-0.230
9.083,0.170,-0.235
9.086,0.125,-0.225
9.089,0.100,-0.225
9.092,0.075,-0.200
9.094,0.055,-0.175
9.097,0.050,-0.165
9.100,0.045,-0.165
9.103,0.020,-0.160
9.106,0.015,-0.155
9.108,-0.005,-0.165
9.111,-0.020,-0.155
9.114,-0.030,-0.165
9.117,-0.040,-0.180
9.119,-0.050,-0.190
9.122,-0.050,-0.190
9.125,-0.040,-0.200
9.128,-0.030,-0.190
9.131,-0.025,-0.195
9.133,0.000,-0.180
9.136,0.000,-0.180
9.139,-0.005,-0.180
9.142,0.000,-0.175
9.144,-0.010,-0.175
9.147,-0.010,-0.160
9.150,-0.005,-0.145
9.153,0.000,-0.095
9.156,0.060,-0.070
9.158,0.145,-0.025
9.161,0.295,-0.025
9.164,0.485,-0.070
9.167,0.695,-0.170
9.169,0.915,-0.335
9.172,1.110,-0.550
9.175,1.290,-0.820
9.178,1.470,-1.155
9.181,1.640,-1.530
9.183,1.785,-1.915
9.186,1.875,-2.215
9.189,1.905,-2.390
9.192,1.870,-2.430
9.194,1.760,-2.365
9.197,1.585,-2.225
9.200,1.330,-2.050
9.203,1.010,-1.840
9.206,0.690,-1.610
9.208,0.425,-1.350
9.211,0.225,-1.125
9.214,0.085,-0.920
9.217,0.025,-0.785
9.219,0.000,-0.690
9.222,0.000,-0.610
9.225,-0.015,-0.540
9.228,-0.030,-0.465
9.231,-0.055,-0.385
9.233,-0.095,-0.320
9.236,-0.120,-0.240
9.239,-0.135,-0.210
9.242,-0.145,-0.165
9.244,-0.145,-0.155
9.247,-0.155,-0.170
9.250,-0.165,-0.175
9.253,-0.160,-0.170
9.256,-0.175,-0.160
9.258,-0.160,-0.155
9.261,-0.160,-0.130
9.264,-0.160,-0.110
9.267,-0.155,-0.095
9.269,-0.160,-0.090
9.272,-0.165,-0.080
9.275,-0.170,-0.080
9.278,-0.190,-0.075
9.281,-0.175,-0.080
9.283,-0.180,-0.085
9.286,-0.180,-0.090
9.289,-0.190,-0.075
9.292,-0.185,-0.060
9.294,-0.190,-0.040
9.297,-0.185,-0.030
9.300,-0.180,-0.020
9.303,-0.170,-0.015
9.306,-0.190,-0.020
9.308,-0.185,-0.025
9.311,-0.190,-0.020
9.314,-0.190,-0.015
9.317,-0.200,0.000
9.319,-0.200,0.005
9.322,-0.215,0.015
9.325,-0.215,0.020
9.328,-0.220,0.030
9.331,-0.215,0.040
9.333,-0.225,0.045
9.336,-0.230,0.065
9.339,-0.230,0.080
9.342,-0.240,0.075
9.344,-0.255,0.085
9.347,-0.270,0.075
9.350,-0.275,0.090
9.353,-0.295,0.085
9.356,-0.300,0.090
9.358,-0.320,0.100
9.361,-0.325,0.110
9.364,-0.330,0.125
9.367,-0.340,0.150
9.369,-0.350,0.165
9.372,-0.355,0.175
9.375,-0.370,0.170
9.378,-0.395,0.185
9.381,-0.430,0.175
9.383,-0.440,0.180
9.386,-0.470,0.160
9.389,-0.480,0.180
9.392,-0.490,0.195
9.394,-0.495,0.215
9.397,-0.510,0.220
9.400,-0.500,0.240
9.403,-0.500,0.240
9.406,-0.505,0.230
9.408,-0.500,0.225
9.411,-0.500,0.215
9.414,-0.495,0.195
9.417,-0.500,0.200
9.419,-0.495,0.190
9.422,-0.490,0.200
9.425,-0.470,0.195
9.428,-0.460,0.185
9.431,-0.430,0.170
9.433,-0.400,0.175
9.436,-0.360,0.160
9.439,-0.335,0.130
9.442,-0.310,0.120
9.444,-0.285,0.090
9.447,-0.255,0.065
9.450,-0.220,0.045
9.453,-0.200,0.020
9.456,-0.160,-0.015
9.458,-0.125,-0.025
9.461,-0.090,-0.045
9.464,-0.065,-0.055
9.467,-0.030,-0.080
9.469,-0.005,-0.095
9.472,0.015,-0.110
9.475,0.015,-0.125
9.478,0.045,-0.145
9.481,0.065,-0.155
9.483,0.065,-0.175
9.486,0.065,-0.195
9.489,0.065,-0.205
9.492,0.075,-0.205
9.494,0.085,-0.200
9.497,0.080,-0.190
9.500,0.105,-0.180
9.503,0.115,-0.190
9.506,0.115,-0.195
9.508,0.125,-0.200
9.511,0.120,-0.210
9.514,0.115,-0.215
9.517,0.100,-0.220
9.519,0.095,-0.230
9.522,0.105,-0.225
9.525,0.115,-0.215
9.528,0.125,-0.200
9.531,0.125,-0.195
9.533,0.125,-0.190
9.536,0.140,-0.190
9.539,0.145,-0.195
9.542,0.145,-0.205
9.544,0.130,-0.215
9.547,0.125,-0.215
9.550,0.120,-0.225
9.553,0.130,-0.210
9.556,0.120,-0.200
9.558,0.115,-0.205
9.561,0.115,-0.195
9.564,0.140,-0.200
9.567,0.140,-0.200
9.569,0.135,-0.190
9.572,0.140,-0.190
9.575,0.140,-0.180
9.578,0.145,-0.185
9.581,0.135,-0.185
9.583,0.140,-0.195
9.586,0.135,-0.180
9.589,0.155,-0.175
9.592,0.165,-0.165
9.594,0.190,-0.140
9.597,0.210,-0.120
9.600,0.230,-0.080
9.603,0.265,-0.060
9.606,0.265,-0.035
9.608,0.280,-0.010
9.611,0.300,-0.010
9.614,0.300,-0.015
9.617,0.305,-0.025
9.619,0.320,-0.050
9.622,0.340,-0.050
9.625,0.370,-0.060
9.628,0.405,-0.080
9.631,0.445,-0.095
9.633,0.485,-0.115
9.636,0.505,-0.150
9.639,0.490,-0.175
9.642,0.460,-0.210
9.644,0.440,-0.220
9.647,0.425,-0.235
9.650,0.410,-0.230
9.653,0.415,-0.235
9.656,0.420,-0.250
9.658,0.435,-0.250
9.661,0.440,-0.265
9.664,0.420,-0.280
9.667,0.410,-0.300
9.669,0.390,-0.310
9.672,0.360,-0.330
9.675,0.330,-0.320
9.678,0.305,-0.305
9.681,0.275,-0.300
9.683,0.250,-0.270
9.686,0.240,-0.270
9.689,0.220,-0.250
9.692,0.190,-0.260
9.694,0.190,-0.260
9.697,0.190,-0.260
9.700,0.180,-0.245
9.703,0.180,-0.250
9.706,0.175,-0.260
9.708,0.180,-0.270
9.711,0.175,-0.275
9.714,0.170,-0.270
9.717,0.165,-0.280
9.719,0.170,-0.280
9.722,0.185,-0.285
9.725,0.185,-0.285
9.728,0.195,-0.290
9.731,0.200,-0.290
9.733,0.200,-0.280
9.736,0.220,-0.280
9.739,0.235,-0.250
9.742,0.255,-0.215
9.744,0.275,-0.180
9.747,0.325,-0.140
9.750,0.410,-0.100
9.753,0.535,-0.100
9.756,0.720,-0.145
9.758,0.920,-0.245
9.761,1.120,-0.385
9.764,1.305,-0.565
9.767,1.470,-0.800
9.769,1.610,-1.115
9.772,1.765,-1.495
9.775,1.900,-1.885
9.778,1.980,-2.245
9.781,2.030,-2.495
9.783,2.020,-2.620
9.786,1.960,-2.610
9.789,1.860,-2.520
9.792,1.685,-2.375
9.794,1.450,-2.175
9.797,1.155,-1.965
9.800,0.860,-1.710
9.803,0.610,-1.445
9.806,0.405,-1.205
9.808,0.265,-0.995
9.811,0.185,-0.840
9.814,0.150,-0.725
9.817,0.135,-0.655
9.819,0.125,-0.580
9.822,0.130,-0.505
9.825,0.115,-0.445
9.828,0.105,-0.360
9.831,0.095,-0.300
9.833,0.095,-0.265
9.836,0.095,-0.250
9.839,0.075,-0.235
9.842,0.085,-0.225
9.844,0.085,-0.225
9.847,0.080,-0.225
9.850,0.075,-0.205
9.853,0.055,-0.195
9.856,0.050,-0.195
9.858,0.060,-0.190
9.861,0.060,-0.175
9.864,0.050,-0.155
9.867,0.070,-0.150
9.869,0.075,-0.140
9.872,0.075,-0.125
9.875,0.075,-0.120
9.878,0.070,-0.120
9.881,0.055,-0.125
9.883,0.055,-0.125
9.886,0.050,-0.120
9.889,0.050,-0.120
9.892,0.050,-0.105
9.894,0.040,-0.095
9.897,0.060,-0.070
9.900,0.070,-0.050
9.903,0.065,-0.045
9.906,0.070,-0.040
9.908,0.055,-0.030
9.911,0.050,-0.035
9.914,0.035,-0.035
9.917,0.025,-0.035
9.919,0.020,-0.035
9.922,0.005,-0.020
9.925,0.015,0.000
9.928,0.015,0.020
9.931,0.015,0.050
9.933,0.010,0.050
9.936,0.015,0.065
9.939,0.000,0.065
9.942,-0.005,0.065
9.944,-0.015,0.080
9.947,-0.035,0.065
9.950,-0.055,0.090
9.953,-0.070,0.095
9.956,-0.090,0.110
9.958,-0.095,0.135
9.961,-0.100,0.145
9.964,-0.100,0.165
9.967,-0.100,0.175
9.969,-0.100,0.175
9.972,-0.110,0.195
9.975,-0.115,0.190
9.978,-0.140,0.200
9.981,-0.150,0.205
9.983,-0.160,0.210
9.986,-0.170,0.210
9.989,-0.170,0.215
9.992,-0.160,0.220
9.994,-0.155,0.225
9.997,-0.140,0.240
10.000,-0.115,0.240
10.003,-0.095,0.245
10.006,-0.100,0.225
10.008,-0.075,0.230
10.011,-0.065,0.205
10.014,-0.050,0.165
10.017,-0.035,0.155
10.019,-0.010,0.125
10.022,0.015,0.100
10.025,0.050,0.090
10.028,0.075,0.065
10.031,0.100,0.035
10.033,0.130,0.025
10.036,0.165,0.000
10.039,0.190,-0.025
10.042,0.210,-0.075
10.044,0.215,-0.105
10.047,0.225,-0.135
10.050,0.230,-0.165
10.053,0.240,-0.170
10.056,0.265,-0.185
10.058,0.275,-0.185
10.061,0.290,-0.190
10.064,0.285,-0.195
10.067,0.295,-0.210
10.069,0.305,-0.225
10.072,0.310,-0.240
10.075,0.320,-0.250
10.078,0.310,-0.250
10.081,0.305,-0.270
10.083,0.290,-0.260
10.086,0.275,-0.265
10.089,0.285,-0.255
10.092,0.285,-0.265
10.094,0.295,-0.270
10.097,0.305,-0.265
10.100,0.310,-0.260
10.103,0.320,-0.270
10.106,0.320,-0.265
10.108,0.315,-0.270
10.111,0.315,-0.265
10.114,0.315,-0.265
10.117,0.305,-0.285
10.119,0.295,-0.270
10.122,0.290,-0.290
10.125,0.290,-0.280
10.128,0.300,-0.275
10.131,0.295,-0.265
10.133,0.305,-0.260
10.136,0.320,-0.255
10.139,0.320,-0.260
10.142,0.315,-0.250
10.144,0.310,-0.270
10.147,0.305,-0.285
10.150,0.295,-0.290
10.153,0.290,-0.285
10.156,0.295,-0.285
10.158,0.295,-0.285
10.161,0.300,-0.280
10.164,0.310,-0.270
10.167,0.325,-0.255
10.169,0.330,-0.250
10.172,0.330,-0.260
10.175,0.345,-0.250
10.178,0.365,-0.260
10.181,0.375,-0.250
10.183,0.380,-0.225
10.186,0.390,-0.195
10.189,0.410,-0.155
10.192,0.435,-0.125
10.194,0.445,-0.105
10.197,0.470,-0.095
10.200,0.485,-0.090
10.203,0.510,-0.095
10.206,0.545,-0.105
10.208,0.575,-0.120
10.211,0.600,-0.165
10.214,0.640,-0.190
10.217,0.650,-0.225
10.219,0.640,-0.260
10.222,0.635,-0.270
10.225,0.620,-0.295
10.228,0.605,-0.305
10.231,0.590,-0.290
10.233,0.600,-0.300
10.236,0.610,-0.295
10.239,0.615,-0.310
10.242,0.620,-0.330
10.244,0.605,-0.375
10.247,0.575,-0.400
10.250,0.535,-0.425
10.253,0.485,-0.440
10.256,0.455,-0.420
10.258,0.435,-0.380
10.261,0.410,-0.360
10.264,0.405,-0.330
10.267,0.385,-0.305
10.269,0.385,-0.320
10.272,0.370,-0.310
10.275,0.350,-0.320
10.278,0.325,-0.330
10.281,0.325,-0.350
10.283,0.295,-0.360
10.286,0.290,-0.360
10.289,0.290,-0.360
10.292,0.300,-0.340
10.294,0.325,-0.350
10.297,0.325,-0.345
10.300,0.325,-0.340
10.303,0.340,-0.350
10.306,0.350,-0.350
10.308,0.350,-0.350
10.311,0.355,-0.340
10.314,0.340,-0.345
10.317,0.330,-0.330
10.319,0.320,-0.305
10.322,0.335,-0.270
10.325,0.390,-0.220
10.328,0.480,-0.165
10.331,0.595,-0.160
10.333,0.760,-0.190
10.336,0.955,-0.270
10.339,1.155,-0.420
10.342,1.335,-0.620
10.344,1.510,-0.870
10.347,1.660,-1.180
10.350,1.815,-1.550
10.353,1.935,-1.935
10.356,2.030,-2.295
10.358,2.065,-2.530
10.361,2.075,-2.650
10.364,2.020,-2.620
10.367,1.915,-2.510
10.369,1.750,-2.355
10.372,1.500,-2.165
10.375,1.220,-1.950
10.378,0.935,-1.700
10.381,0.710,-1.445
10.383,0.535,-1.225
10.386,0.420,-1.035
10.389,0.350,-0.895
10.392,0.330,-0.795
10.394,0.335,-0.715
10.397,0.330,-0.645
10.400,0.320,-0.565
10.403,0.295,-0.510
10.406,0.260,-0.455
10.408,0.225,-0.390
10.411,0.205,-0.350
10.414,0.185,-0.330
10.417,0.185,-0.320
10.419,0.175,-0.310
10.422,0.175,-0.300
10.425,0.180,-0.285
10.428,0.175,-0.260
10.431,0.185,-0.260
10.433,0.190,-0.245
10.436,0.195,-0.245
10.439,0.190,-0.225
10.442,0.190,-0.235
10.444,0.175,-0.225
10.447,0.175,-0.225
10.450,0.155,-0.220
10.453,0.160,-0.215
10.456,0.165,-0.215
10.458,0.165,-0.205
10.461,0.175,-0.185
10.464,0.175,-0.175
10.467,0.180,-0.155
10.469,0.180,-0.150
10.472,0.180,-0.145
10.475,0.175,-0.135
10.478,0.165,-0.125
10.481,0.165,-0.135
10.483,0.160,-0.135
10.486,0.150,-0.135
10.489,0.155,-0.125
10.492,0.145,-0.115
10.494,0.135,-0.105
10.497,0.135,-0.080
10.500,0.155,-0.065
10.503,0.160,-0.055
10.506,0.145,-0.050
10.508,0.140,-0.040
10.511,0.135,-0.040
10.514,0.115,-0.040
10.517,0.100,-0.025
10.519,0.100,-0.035
10.522,0.085,-0.020
10.525,0.070,-0.005
10.528,0.060,0.020
10.531,0.045,0.055
10.533,0.045,0.070
10.536,0.030,0.085
10.539,0.025,0.085
10.542,0.010,0.095
10.544,-0.005,0.100
10.547,-0.020,0.100
10.550,-0.040,0.105
10.553,-0.050,0.110
10.556,-0.070,0.135
10.558,-0.080,0.150
10.561,-0.090,0.155
10.564,-0.090,0.170
10.567,-0.080,0.175
10.569,-0.070,0.180
10.572,-0.080,0.175
10.575,-0.080,0.180
10.578,-0.090,0.180
10.581,-0.100,0.195
10.583,-0.085,0.180
10.586,-0.080,0.170
10.589,-0.070,0.150
10.592,-0.050,0.150
10.594,-0.025,0.140
10.597,0.005,0.125
10.600,0.030,0.110
10.603,0.055,0.095
10.606,0.080,0.075
10.608,0.095,0.055
10.611,0.120,0.035
10.614,0.135,-0.015
10.617,0.155,-0.040
10.619,0.180,-0.070
10.622,0.195,-0.100
10.625,0.225,-0.115
10.628,0.255,-0.130
10.631,0.275,-0.150
10.633,0.290,-0.170
10.636,0.315,-0.180
10.639,0.325,-0.195
10.642,0.325,-0.225
10.644,0.310,-0.240
10.647,0.335,-0.260
10.650,0.330,-0.275
10.653,0.320,-0.280
10.656,0.325,-0.285
10.658,0.330,-0.275
10.661,0.345,-0.280
10.664,0.360,-0.270
10.667,0.370,-0.265
10.669,0.375,-0.265
10.672,0.375,-0.280
10.675,0.370,-0.280
10.678,0.360,-0.305
10.681,0.360,-0.305
10.683,0.355,-0.310
10.686,0.350,-0.315
10.689,0.360,-0.310
10.692,0.350,-0.295
10.694,0.360,-0.295
10.697,0.345,-0.295
10.700,0.365,-0.280
10.703,0.365,-0.295
10.706,0.355,-0.305
10.708,0.360,-0.295
10.711,0.370,-0.295
10.714,0.365,-0.310
10.717,0.355,-0.300
10.719,0.345,-0.315
10.722,0.330,-0.315
10.725,0.335,-0.315
10.728,0.345,-0.310
10.731,0.350,-0.305
10.733,0.365,-0.295
10.736,0.370,-0.300
10.739,0.370,-0.290
10.742,0.380,-0.290
10.744,0.365,-0.300
10.747,0.360,-0.305
10.750,0.350,-0.310
10.753,0.350,-0.310
10.756,0.360,-0.315
10.758,0.355,-0.295
10.761,0.370,-0.305
10.764,0.365,-0.275
10.767,0.385,-0.265
10.769,0.415,-0.230
10.772,0.445,-0.205
10.775,0.450,-0.185
10.778,0.460,-0.165
10.781,0.475,-0.145
10.783,0.485,-0.155
10.786,0.490,-0.140
10.789,0.500,-0.130
10.792,0.515,-0.130
10.794,0.545,-0.135
10.797,0.590,-0.130
10.800,0.625,-0.160
10.803,0.670,-0.190
10.806,0.690,-0.225
10.808,0.695,-0.255
10.811,0.680,-0.290
10.814,0.660,-0.300
10.817,0.615,-0.310
10.819,0.600,-0.310
10.822,0.590,-0.315
10.825,0.595,-0.305
10.828,0.605,-0.315
10.831,0.605,-0.335
10.833,0.610,-0.355
10.836,0.600,-0.385
10.839,0.580,-0.400
10.842,0.550,-0.430
10.844,0.525,-0.415
10.847,0.480,-0.420
10.850,0.445,-0.400
10.853,0.405,-0.370
10.856,0.385,-0.365
10.858,0.365,-0.360
10.861,0.375,-0.345
10.864,0.365,-0.350
10.867,0.350,-0.345
10.869,0.345,-0.325
10.872,0.330,-0.325
10.875,0.330,-0.330
10.878,0.315,-0.350
10.881,0.315,-0.365
10.883,0.300,-0.370
10.886,0.295,-0.380
10.889,0.305,-0.390
10.892,0.310,-0.385
10.894,0.315,-0.385
10.897,0.325,-0.370
10.900,0.325,-0.355
10.903,0.325,-0.360
10.906,0.340,-0.355
10.908,0.345,-0.355
10.911,0.335,-0.350
10.914,0.340,-0.325
10.917,0.345,-0.295
10.919,0.385,-0.250
10.922,0.455,-0.190
10.925,0.565,-0.175
10.928,0.730,-0.195
10.931,0.895,-0.280
10.933,1.090,-0.420
10.936,1.275,-0.605
10.939,1.440,-0.840
10.942,1.595,-1.120
10.944,1.735,-1.460
10.947,1.860,-1.815
10.950,1.950,-2.165
10.953,1.995,-2.430
10.956,2.010,-2.585
10.958,1.980,-2.620
10.961,1.930,-2.585
10.964,1.835,-2.475
10.967,1.665,-2.335
10.969,1.450,-2.170
10.972,1.180,-1.985
10.975,0.930,-1.775
10.978,0.710,-1.540
10.981,0.545,-1.310
10.983,0.420,-1.115
10.986,0.365,-0.970
10.989,0.335,-0.855
10.992,0.320,-0.785
10.994,0.325,-0.705
10.997,0.310,-0.645
11.000,0.275,-0.575
11.003,0.255,-0.500
11.006,0.210,-0.425
11.008,0.185,-0.390
11.011,0.175,-0.345
11.014,0.165,-0.325
11.017,0.160,-0.330
11.019,0.150,-0.315
11.022,0.145,-0.320
11.025,0.160,-0.305
11.028,0.155,-0.295
11.031,0.165,-0.280
11.033,0.160,-0.250
11.036,0.150,-0.240
11.039,0.155,-0.225
11.042,0.145,-0.225
11.044,0.135,-0.225
11.047,0.125,-0.215
11.050,0.105,-0.230
11.053,0.120,-0.230
11.056,0.110,-0.215
11.058,0.115,-0.200
11.061,0.125,-0.195
11.064,0.130,-0.170
11.067,0.135,-0.160
11.069,0.140,-0.160
11.072,0.140,-0.160
11.075,0.130,-0.150
11.078,0.125,-0.155
11.081,0.100,-0.150
11.083,0.105,-0.140
11.086,0.095,-0.130
11.089,0.095,-0.120
11.092,0.085,-0.090
11.094,0.090,-0.090
11.097,0.090,-0.065
11.100,0.090,-0.065
11.103,0.100,-0.050
11.106,0.085,-0.045
11.108,0.080,-0.040
11.111,0.065,-0.020
11.114,0.045,-0.025
11.117,0.020,-0.010
11.119,0.020,-0.005
11.122,0.015,0.005
11.125,0.000,0.020
11.128,0.000,0.030
11.131,-0.015,0.045
11.133,-0.015,0.075
11.136,-0.020,0.080
11.139,-0.030,0.100
11.142,-0.045,0.120
11.144,-0.075,0.120
11.147,-0.075,0.115
11.150,-0.105,0.125
11.153,-0.120,0.125
11.156,-0.115,0.130
11.158,-0.125,0.160
11.161,-0.125,0.155
11.164,-0.125,0.170
11.167,-0.115,0.190
11.169,-0.100,0.185
11.172,-0.100,0.195
11.175,-0.105,0.205
11.178,-0.090,0.175
11.181,-0.085,0.170
11.183,-0.080,0.145
11.186,-0.085,0.130
11.189,-0.065,0.130
11.192,-0.045,0.120
11.194,-0.010,0.120
11.197,0.015,0.115
11.200,0.040,0.100
11.203,0.070,0.070
11.206,0.085,0.030
11.208,0.115,0.005
11.211,0.120,-0.025
11.214,0.140,-0.060
11.217,0.155,-0.085
11.219,0.155,-0.100
11.222,0.180,-0.140
11.225,0.195,-0.150
11.228,0.215,-0.150
11.231,0.240,-0.170
11.233,0.260,-0.175
11.236,0.275,-0.200
11.239,0.280,-0.205
11.242,0.285,-0.240
11.244,0.285,-0.250
11.247,0.280,-0.265
11.250,0.280,-0.270
11.253,0.280,-0.275
11.256,0.280,-0.285
11.258,0.285,-0.285
11.261,0.290,-0.280
11.264,0.295,-0.290
11.267,0.300,-0.285
11.269,0.310,-0.290
11.272,0.300,-0.285
11.275,0.300,-0.285
11.278,0.310,-0.290
11.281,0.290,-0.295
11.283,0.285,-0.305
11.286,0.280,-0.295
11.289,0.270,-0.310
11.292,0.280,-0.305
11.294,0.290,-0.310
11.297,0.300,-0.315
11.300,0.300,-0.315
11.303,0.315,-0.295
11.306,0.310,-0.295
11.308,0.310,-0.285
11.311,0.310,-0.295
11.314,0.290,-0.305
11.317,0.295,-0.305
11.319,0.280,-0.310
11.322,0.285,-0.315
11.325,0.275,-0.305
11.328,0.285,-0.300
11.331,0.285,-0.285
11.333,0.290,-0.280
11.336,0.290,-0.275
11.339,0.290,-0.285
11.342,0.285,-0.275
11.344,0.290,-0.295
11.347,0.280,-0.310
11.350,0.275,-0.315
11.353,0.265,-0.310
11.356,0.270,-0.305
11.358,0.270,-0.300
11.361,0.275,-0.280
11.364,0.285,-0.250
11.367,0.320,-0.245
11.369,0.335,-0.235
11.372,0.360,-0.200
11.375,0.375,-0.190
11.378,0.390,-0.155
11.381,0.405,-0.140
11.383,0.405,-0.125
11.386,0.420,-0.120
11.389,0.415,-0.130
11.392,0.430,-0.115
11.394,0.460,-0.110
11.397,0.495,-0.120
11.400,0.520,-0.125
11.403,0.575,-0.145
11.406,0.600,-0.180
11.408,0.620,-0.215
11.411,0.615,-0.245
11.414,0.600,-0.275
11.417,0.550,-0.285
11.419,0.545,-0.305
11.422,0.520,-0.310
11.425,0.520,-0.310
11.428,0.535,-0.310
11.431,0.545,-0.305
11.433,0.540,-0.315
11.436,0.550,-0.350
11.439,0.520,-0.370
11.442,0.495,-0.385
11.444,0.460,-0.405
11.447,0.415,-0.405
11.450,0.395,-0.405
11.453,0.350,-0.385
11.456,0.335,-0.370
11.458,0.320,-0.350
11.461,0.315,-0.335
11.464,0.305,-0.335
11.467,0.295,-0.335
11.469,0.285,-0.320
11.472,0.265,-0.325
11.475,0.255,-0.320
11.478,0.235,-0.335
11.481,0.225,-0.350
11.483,0.210,-0.350
11.486,0.225,-0.375
11.489,0.220,-0.360
11.492,0.235,-0.355
11.494,0.245,-0.345
11.497,0.245,-0.340
11.500,0.255,-0.345
11.503,0.250,-0.340
11.506,0.245,-0.335
11.508,0.235,-0.340
11.511,0.230,-0.320
11.514,0.240,-0.295
11.517,0.240,-0.260
11.519,0.275,-0.210
11.522,0.340,-0.165
11.525,0.445,-0.130
11.528,0.605,-0.160
11.531,0.785,-0.235
11.533,0.965,-0.365
11.536,1.155,-0.525
11.539,1.310,-0.745
11.542,1.460,-1.020
11.544,1.610,-1.340
11.547,1.740,-1.695
11.550,1.850,-2.055
11.553,1.925,-2.355
11.556,1.960,-2.545
11.558,1.940,-2.625
11.561,1.875,-2.595
11.564,1.800,-2.500
11.567,1.645,-2.370
11.569,1.445,-2.220
11.572,1.180,-2.050
11.575,0.920,-1.845
11.578,0.675,-1.595
11.581,0.500,-1.345
11.583,0.355,-1.130
11.586,0.270,-0.975
11.589,0.225,-0.850
11.592,0.220,-0.760
11.594,0.215,-0.695
11.597,0.195,-0.610
11.600,0.180,-0.545
11.603,0.150,-0.470
11.606,0.105,-0.400
11.608,0.065,-0.335
11.611,0.050,-0.315
11.614,0.045,-0.295
11.617,0.040,-0.310
11.619,0.040,-0.305
11.622,0.040,-0.290
11.625,0.030,-0.280
11.628,0.030,-0.260
11.631,0.040,-0.240
11.633,0.030,-0.215
11.636,0.035,-0.210
11.639,0.020,-0.200
11.642,0.025,-0.205
11.644,0.015,-0.195
11.647,0.015,-0.200
11.650,0.010,-0.205
11.653,0.000,-0.200
11.656,0.000,-0.175
11.658,-0.005,-0.180
11.661,0.000,-0.155
11.664,-0.005,-0.140
11.667,-0.005,-0.120
11.669,0.000,-0.125
11.672,0.005,-0.120
11.675,-0.005,-0.115
11.678,-0.010,-0.115
11.681,-0.010,-0.115
11.683,-0.015,-0.105
11.686,-0.025,-0.095
11.689,-0.035,-0.095
11.692,-0.040,-0.065
11.694,-0.045,-0.060
11.697,-0.040,-0.045
11.700,-0.040,-0.035
11.703,-0.040,-0.025
11.706,-0.050,-0.010
11.708,-0.055,-0.010
11.711,-0.060,-0.005
11.714,-0.075,-0.010
11.717,-0.085,0.000
11.719,-0.105,0.010
11.722,-0.120,0.025
11.725,-0.120,0.050
11.728,-0.130,0.065
11.731,-0.150,0.070
11.733,-0.145,0.095
11.736,-0.160,0.115
11.739,-0.165,0.125
11.742,-0.180,0.150
11.744,-0.185,0.140
11.747,-0.205,0.150
11.750,-0.215,0.150
11.753,-0.230,0.145
11.756,-0.245,0.170
11.758,-0.250,0.160
11.761,-0.250,0.190
11.764,-0.260,0.195
11.767,-0.270,0.225
11.769,-0.255,0.245
11.772,-0.260,0.225
11.775,-0.270,0.230
11.778,-0.265,0.215
11.781,-0.265,0.210
11.783,-0.265,0.195
11.786,-0.265,0.190
11.789,-0.260,0.190
11.792,-0.235,0.195
11.794,-0.210,0.180
11.797,-0.190,0.175
11.800,-0.165,0.165
11.803,-0.135,0.160
11.806,-0.130,0.105
11.808,-0.095,0.095
11.811,-0.090,0.060
11.814,-0.065,0.030
11.817,-0.050,-0.005
11.819,-0.030,-0.015
11.822,-0.015,-0.035
11.825,0.005,-0.060
11.828,0.030,-0.085
11.831,0.050,-0.105
11.833,0.060,-0.125
11.836,0.095,-0.140
11.839,0.100,-0.160
11.842,0.110,-0.185
11.844,0.110,-0.190
11.847,0.110,-0.205
11.850,0.100,-0.225
11.853,0.090,-0.230
11.856,0.100,-0.225
11.858,0.085,-0.240
11.861,0.095,-0.240
11.864,0.110,-0.240
11.867,0.105,-0.235
11.869,0.120,-0.235
11.872,0.105,-0.240
11.875,0.090,-0.245
11.878,0.100,-0.250
11.881,0.090,-0.265
11.883,0.095,-0.270
11.886,0.090,-0.270
11.889,0.090,-0.265
11.892,0.090,-0.260
11.894,0.090,-0.255
11.897,0.100,-0.255
11.900,0.100,-0.230
11.903,0.100,-0.235
11.906,0.100,-0.245
11.908,0.100,-0.240
11.911,0.095,-0.255
11.914,0.075,-0.260
11.917,0.075,-0.270
11.919,0.070,-0.265
11.922,0.060,-0.260
11.925,0.075,-0.255
11.928,0.070,-0.240
11.931,0.080,-0.240
11.933,0.080,-0.220
11.936,0.080,-0.230
11.939,0.075,-0.235
11.942,0.075,-0.235
11.944,0.065,-0.245
11.947,0.060,-0.255
11.950,0.050,-0.260
11.953,0.045,-0.245
11.956,0.060,-0.230
11.958,0.060,-0.235
11.961,0.080,-0.220
11.964,0.080,-0.215
11.967,0.105,-0.190
11.969,0.115,-0.180
11.972,0.130,-0.145
11.975,0.155,-0.115
11.978,0.155,-0.095
11.981,0.160,-0.080
11.983,0.180,-0.060
11.986,0.180,-0.075
11.989,0.180,-0.070
11.992,0.205,-0.075
11.994,0.225,-0.065
11.997,0.260,-0.080
12.000,0.300,-0.085
12.003,0.330,-0.105
12.006,0.360,-0.130
12.008,0.375,-0.165
12.011,0.355,-0.205
12.014,0.330,-0.220
12.017,0.290,-0.250
12.019,0.265,-0.260
12.022,0.265,-0.270
12.025,0.260,-0.255
12.028,0.270,-0.250
12.031,0.275,-0.275
12.033,0.280,-0.275
12.036,0.280,-0.290
12.039,0.250,-0.330
12.042,0.225,-0.345
12.044,0.180,-0.370
12.047,0.130,-0.355
12.050,0.100,-0.345
12.053,0.070,-0.320
12.056,0.045,-0.290
12.058,0.030,-0.265
12.061,0.015,-0.255
12.064,0.020,-0.260
12.067,0.005,-0.270
12.069,0.000,-0.270
12.072,-0.015,-0.270
12.075,-0.020,-0.280
12.078,-0.030,-0.295
12.081,-0.045,-0.295
12.083,-0.055,-0.300
12.086,-0.055,-0.300
12.089,-0.055,-0.290
12.092,-0.080,-0.300
12.094,-0.060,-0.295
12.097,-0.055,-0.285
12.100,-0.050,-0.285
12.103,-0.035,-0.280
12.106,-0.035,-0.280
12.108,-0.035,-0.260
12.111,-0.050,-0.260
12.114,-0.045,-0.225
12.117,-0.030,-0.185
12.119,0.020,-0.140
12.122,0.095,-0.110
12.125,0.220,-0.105
12.128,0.395,-0.160
12.131,0.585,-0.270
12.133,0.795,-0.425
12.136,0.985,-0.635
12.139,1.155,-0.915
12.142,1.320,-1.260
12.144,1.465,-1.640
12.147,1.570,-2.025
12.150,1.655,-2.360
12.153,1.665,-2.550
12.156,1.620,-2.610
12.158,1.535,-2.560
12.161,1.395,-2.430
12.164,1.190,-2.240
12.167,0.920,-2.025
12.169,0.635,-1.785
12.172,0.375,-1.525
12.175,0.170,-1.275
12.178,0.025,-1.060
12.181,-0.065,-0.915
12.183,-0.110,-0.805
12.186,-0.115,-0.715
12.189,-0.115,-0.660
12.192,-0.125,-0.580
12.194,-0.160,-0.500
12.197,-0.180,-0.430
12.200,-0.210,-0.360
12.203,-0.230,-0.305
12.206,-0.250,-0.280
12.208,-0.250,-0.250
12.211,-0.250,-0.240
12.214,-0.255,-0.245
12.217,-0.270,-0.235
12.219,-0.275,-0.220
12.222,-0.285,-0.205
12.225,-0.295,-0.200
12.228,-0.300,-0.190
12.231,-0.300,-0.180
12.233,-0.295,-0.175
12.236,-0.290,-0.150
12.239,-0.300,-0.160
12.242,-0.305,-0.145
12.244,-0.305,-0.130
12.247,-0.325,-0.125
12.250,-0.325,-0.130
12.253,-0.320,-0.130
12.256,-0.330,-0.115
12.258,-0.335,-0.110
12.261,-0.340,-0.095
12.264,-0.320,-0.080
12.267,-0.325,-0.065
12.269,-0.330,-0.055
12.272,-0.330,-0.035
12.275,-0.335,-0.040
12.278,-0.340,-0.045
12.281,-0.345,-0.035
12.283,-0.365,-0.035
12.286,-0.375,-0.025
12.289,-0.390,-0.025
12.292,-0.375,0.010
12.294,-0.390,0.020
12.297,-0.380,0.035
12.300,-0.390,0.060
12.303,-0.395,0.055
12.306,-0.410,0.080
12.308,-0.420,0.080
12.311,-0.425,0.065
12.314,-0.435,0.080
12.317,-0.460,0.090
12.319,-0.475,0.085
12.322,-0.480,0.095
12.325,-0.490,0.140
12.328,-0.500,0.155
12.331,-0.510,0.165
12.333,-0.515,0.180
12.336,-0.505,0.195
12.339,-0.520,0.190
12.342,-0.530,0.195
12.344,-0.540,0.200
12.347,-0.560,0.215
12.350,-0.575,0.225
12.353,-0.585,0.225
12.356,-0.590,0.230
12.358,-0.600,0.240
12.361,-0.595,0.260
12.364,-0.595,0.260
12.367,-0.595,0.285
12.369,-0.585,0.265
12.372,-0.580,0.275
12.375,-0.575,0.270
12.378,-0.570,0.255
12.381,-0.570,0.255
12.383,-0.565,0.240
12.386,-0.550,0.215
12.389,-0.540,0.205
12.392,-0.510,0.180
12.394,-0.485,0.170
12.397,-0.460,0.165
12.400,-0.445,0.140
12.403,-0.420,0.115
12.406,-0.400,0.095
12.408,-0.380,0.070
12.411,-0.365,0.045
12.414,-0.345,0.015
12.417,-0.325,0.000
12.419,-0.315,-0.045
12.422,-0.315,-0.080
12.425,-0.295,-0.085
12.428,-0.275,-0.095
12.431,-0.260,-0.110
12.433,-0.255,-0.110
12.436,-0.230,-0.130
12.439,-0.235,-0.140
12.442,-0.220,-0.160
12.444,-0.225,-0.185
12.447,-0.235,-0.190
12.450,-0.230,-0.200
12.453,-0.235,-0.205
12.456,-0.230,-0.200
12.458,-0.225,-0.190
12.461,-0.220,-0.190
12.464,-0.210,-0.185
12.467,-0.200,-0.185
12.469,-0.200,-0.195
12.472,-0.190,-0.200
12.475,-0.175,-0.200
12.478,-0.170,-0.215
12.481,-0.150,-0.205
12.483,-0.125,-0.210
12.486,-0.105,-0.220
12.489,-0.075,-0.215
12.492,-0.030,-0.220
12.494,0.020,-0.215
12.497,0.080,-0.210
12.500,0.150,-0.215
12.503,0.220,-0.220
12.506,0.285,-0.225
12.508,0.365,-0.230
12.511,0.455,-0.255
12.514,0.550,-0.260
12.517,0.640,-0.300
12.519,0.700,-0.330
12.522,0.685,-0.385
12.525,0.565,-0.450
12.528,0.325,-0.510
12.531,-0.055,-0.575
12.533,-0.510,-0.610
12.536,-0.965,-0.620
12.539,-1.380,-0.625
12.542,-1.680,-0.620
12.544,-1.910,-0.615
12.547,-2.050,-0.630
12.550,-2.180,-0.665
12.553,-2.275,-0.680
12.556,-2.360,-0.660
12.558,-2.405,-0.580
12.561,-2.420,-0.445
12.564,-2.400,-0.315
12.567,-2.370,-0.120
12.569,-2.320,0.090
12.572,-2.255,0.265
12.575,-2.160,0.445
12.578,-2.070,0.595
12.581,-1.965,0.700
12.583,-1.850,0.775
12.586,-1.750,0.840
12.589,-1.670,0.920
12.592,-1.590,0.970
12.594,-1.505,1.020
12.597,-1.445,1.055
12.600,-1.350,1.055
12.603,-1.250,0.995
12.606,-1.170,0.900
12.608,-1.070,0.755
12.611,-0.980,0.515
12.614,-0.905,0.275
12.617,-0.845,-0.015
12.619,-0.805,-0.285
12.622,-0.755,-0.505
12.625,-0.715,-0.665
12.628,-0.655,-0.720
12.631,-0.575,-0.720
12.633,-0.450,-0.685
12.636,-0.320,-0.610
12.639,-0.170,-0.555
12.642,-0.040,-0.515
12.644,0.065,-0.455
12.647,0.140,-0.420
12.650,0.170,-0.380
12.653,0.165,-0.360
12.656,0.150,-0.340
12.658,0.140,-0.325
12.661,0.140,-0.320
12.664,0.140,-0.325
12.667,0.160,-0.320
12.669,0.170,-0.310
12.672,0.195,-0.315
12.675,0.210,-0.310
12.678,0.225,-0.325
12.681,0.235,-0.320
12.683,0.235,-0.335
12.686,0.250,-0.345
12.689,0.250,-0.335
12.692,0.280,-0.345
12.694,0.300,-0.330
12.697,0.320,-0.330
12.700,0.340,-0.330
12.703,0.370,-0.325
12.706,0.380,-0.325
12.708,0.400,-0.335
12.711,0.410,-0.340
12.714,0.425,-0.355
12.717,0.420,-0.350
12.719,0.440,-0.350
12.722,0.455,-0.350
12.725,0.480,-0.360
12.728,0.500,-0.355
12.731,0.530,-0.345
12.733,0.545,-0.350
12.736,0.575,-0.355
12.739,0.605,-0.365
12.742,0.630,-0.365
12.744,0.645,-0.375
12.747,0.655,-0.390
12.750,0.665,-0.405
12.753,0.685,-0.400
12.756,0.680,-0.410
12.758,0.690,-0.410
12.761,0.700,-0.415
12.764,0.725,-0.425
12.767,0.725,-0.420
12.769,0.750,-0.420
12.772,0.735,-0.425
12.775,0.735,-0.430
12.778,0.705,-0.450
12.781,0.690,-0.465
12.783,0.670,-0.475
12.786,0.630,-0.490
12.789,0.610,-0.510
12.792,0.580,-0.500
12.794,0.545,-0.490
12.797,0.525,-0.495
12.800,0.500,-0.465
12.803,0.470,-0.460
12.806,0.440,-0.460
12.808,0.385,-0.460
12.811,0.340,-0.460
12.814,0.295,-0.465
12.817,0.265,-0.460
12.819,0.225,-0.455
12.822,0.185,-0.425
12.825,0.145,-0.390
12.828,0.110,-0.370
12.831,0.085,-0.345
12.833,0.055,-0.320
12.836,0.035,-0.310
12.839,0.025,-0.295
12.842,-0.010,-0.260
12.844,-0.040,-0.250
12.847,-0.065,-0.235
12.850,-0.100,-0.225
12.853,-0.115,-0.215
12.856,-0.140,-0.205
12.858,-0.160,-0.190
12.861,-0.170,-0.165
12.864,-0.185,-0.160
12.867,-0.200,-0.155
12.869,-0.205,-0.150
12.872,-0.200,-0.140
12.875,-0.215,-0.145
12.878,-0.230,-0.145
12.881,-0.240,-0.145
12.883,-0.250,-0.150
12.886,-0.265,-0.155
12.889,-0.265,-0.150
12.892,-0.265,-0.155
12.894,-0.265,-0.150
12.897,-0.255,-0.145
12.900,-0.275,-0.130
12.903,-0.265,-0.130
12.906,-0.255,-0.135
12.908,-0.260,-0.135
12.911,-0.255,-0.145
12.914,-0.270,-0.150
12.917,-0.280,-0.155
12.919,-0.275,-0.155
12.922,-0.285,-0.165
12.925,-0.280,-0.150
12.928,-0.280,-0.145
12.931,-0.275,-0.125
12.933,-0.270,-0.125
12.936,-0.260,-0.130
12.939,-0.270,-0.140
12.942,-0.255,-0.145
12.944,-0.260,-0.155
12.947,-0.270,-0.160
12.950,-0.300,-0.155
12.953,-0.285,-0.155
12.956,-0.290,-0.155
12.958,-0.295,-0.145
12.961,-0.300,-0.145
12.964,-0.295,-0.140
12.967,-0.285,-0.125
12.969,-0.300,-0.130
12.972,-0.305,-0.135
12.975,-0.310,-0.140
12.978,-0.320,-0.150
12.981,-0.325,-0.145
12.983,-0.320,-0.160
12.986,-0.330,-0.155
12.989,-0.330,-0.155
12.992,-0.345,-0.140
12.994,-0.345,-0.150
12.997,-0.350,-0.145
13.000,-0.345,-0.140
13.003,-0.325,-0.125
13.006,-0.340,-0.140
13.008,-0.325,-0.135
13.011,-0.335,-0.150
13.014,-0.330,-0.150
13.017,-0.335,-0.160
13.019,-0.345,-0.165
13.022,-0.345,-0.165
13.025,-0.340,-0.170
13.028,-0.340,-0.160
13.031,-0.345,-0.155
13.033,-0.340,-0.145
13.036,-0.330,-0.150
13.039,-0.330,-0.150
13.042,-0.350,-0.150
13.044,-0.360,-0.170
13.047,-0.355,-0.165
13.050,-0.345,-0.200
13.053,-0.355,-0.180
13.056,-0.360,-0.195
13.058,-0.360,-0.190
13.061,-0.360,-0.180
13.064,-0.345,-0.170
13.067,-0.355,-0.170
13.069,-0.340,-0.165
13.072,-0.355,-0.165
13.075,-0.350,-0.170
13.078,-0.355,-0.175
13.081,-0.360,-0.175
13.083,-0.375,-0.180
13.086,-0.370,-0.195
13.089,-0.375,-0.185
13.092,-0.380,-0.180
13.094,-0.370,-0.170
13.097,-0.380,-0.165
13.100,-0.365,-0.165
13.103,-0.360,-0.150
13.106,-0.360,-0.150
13.108,-0.365,-0.150
13.111,-0.365,-0.160
13.114,-0.380,-0.170
13.117,-0.385,-0.190
13.119,-0.380,-0.185
13.122,-0.385,-0.185
13.125,-0.375,-0.200
13.128,-0.380,-0.165
13.131,-0.355,-0.160
13.133,-0.345,-0.130
13.136,-0.320,-0.115
13.139,-0.315,-0.095
13.142,-0.290,-0.085
13.144,-0.275,-0.070
13.147,-0.265,-0.050
13.150,-0.245,-0.025
13.153,-0.240,-0.005
13.156,-0.225,0.000
13.158,-0.225,0.005
13.161,-0.210,0.010
13.164,-0.185,0.010
13.167,-0.165,0.015
13.169,-0.130,-0.005
13.172,-0.100,-0.030
13.175,-0.080,-0.065
13.178,-0.065,-0.090
13.181,-0.060,-0.120
13.183,-0.075,-0.145
13.186,-0.095,-0.155
13.189,-0.120,-0.170
13.192,-0.140,-0.180
13.194,-0.135,-0.165
13.197,-0.125,-0.160
13.200,-0.100,-0.175
13.203,-0.090,-0.200
13.206,-0.100,-0.225
13.208,-0.130,-0.250
13.211,-0.160,-0.280
13.214,-0.195,-0.290
13.217,-0.235,-0.295
13.219,-0.270,-0.280
13.222,-0.290,-0.255
13.225,-0.320,-0.225
13.228,-0.330,-0.210
13.231,-0.365,-0.205
13.233,-0.355,-0.190
13.236,-0.375,-0.195
13.239,-0.380,-0.185
13.242,-0.390,-0.185
13.244,-0.410,-0.190
13.247,-0.420,-0.200
13.250,-0.435,-0.205
13.253,-0.440,-0.220
13.256,-0.435,-0.220
13.258,-0.435,-0.220
13.261,-0.430,-0.225
13.264,-0.425,-0.225
13.267,-0.410,-0.210
13.269,-0.420,-0.210
13.272,-0.415,-0.220
13.275,-0.410,-0.205
13.278,-0.410,-0.210
13.281,-0.405,-0.190
13.283,-0.395,-0.160
13.286,-0.385,-0.110
13.289,-0.335,-0.060
13.292,-0.250,-0.035
13.294,-0.115,-0.035
13.297,0.060,-0.075
13.300,0.260,-0.175
13.303,0.470,-0.325
13.306,0.665,-0.535
13.308,0.840,-0.775
13.311,1.005,-1.065
13.314,1.145,-1.430
13.317,1.280,-1.795
13.319,1.365,-2.120
13.322,1.390,-2.360
13.325,1.365,-2.480
13.328,1.285,-2.475
13.331,1.150,-2.390
13.333,0.945,-2.250
13.336,0.685,-2.080
13.339,0.400,-1.860
13.342,0.120,-1.605
13.344,-0.090,-1.345
13.347,-0.225,-1.100
13.350,-0.325,-0.925
13.353,-0.395,-0.785
13.356,-0.420,-0.680
13.358,-0.425,-0.595
13.361,-0.445,-0.535
13.364,-0.480,-0.460
13.367,-0.515,-0.385
13.369,-0.530,-0.310
13.372,-0.555,-0.260
13.375,-0.570,-0.220
13.378,-0.580,-0.190
13.381,-0.595,-0.190
13.383,-0.600,-0.185
13.386,-0.605,-0.170
13.389,-0.615,-0.180
13.392,-0.630,-0.155
13.394,-0.630,-0.145
13.397,-0.625,-0.120
13.400,-0.620,-0.095
13.403,-0.615,-0.080
13.406,-0.615,-0.070
13.408,-0.635,-0.055
13.411,-0.640,-0.070
13.414,-0.645,-0.075
13.417,-0.660,-0.080
13.419,-0.665,-0.065
13.422,-0.650,-0.055
13.425,-0.660,-0.045
13.428,-0.655,-0.035
13.431,-0.645,-0.015
13.433,-0.650,-0.005
13.436,-0.650,0.005
13.439,-0.670,0.010
13.442,-0.660,0.010
13.444,-0.645,0.000
13.447,-0.660,0.005
13.450,-0.665,0.015
13.453,-0.675,0.015
13.456,-0.680,0.020
13.458,-0.700,0.045
13.461,-0.695,0.055
13.464,-0.690,0.065
13.467,-0.700,0.070
13.469,-0.680,0.085
13.472,-0.700,0.085
13.475,-0.710,0.100
13.478,-0.725,0.085
13.481,-0.750,0.105
13.483,-0.765,0.100
13.486,-0.775,0.110
13.489,-0.800,0.115
13.492,-0.820,0.125
13.494,-0.825,0.135
13.497,-0.845,0.150
13.500,-0.860,0.165
13.503,-0.860,0.185
13.506,-0.885,0.195
13.508,-0.900,0.195
13.511,-0.920,0.200
13.514,-0.935,0.195
13.517,-0.960,0.185
13.519,-0.975,0.210
13.522,-0.980,0.205
13.525,-1.000,0.210
13.528,-1.010,0.220
13.531,-1.000,0.240
13.533,-1.005,0.250
13.536,-1.000,0.245
13.539,-1.005,0.250
13.542,-1.000,0.240
13.544,-1.015,0.235
13.547,-1.015,0.225
13.550,-1.020,0.215
13.553,-1.015,0.220
13.556,-0.995,0.220
13.558,-0.975,0.215
13.561,-0.950,0.215
13.564,-0.910,0.200
13.567,-0.895,0.195
13.569,-0.860,0.185
13.572,-0.825,0.160
13.575,-0.795,0.145
13.578,-0.765,0.130
13.581,-0.745,0.110
13.583,-0.725,0.085
13.586,-0.705,0.065
13.589,-0.670,0.045
13.592,-0.640,0.020
13.594,-0.630,0.005
13.597,-0.575,-0.005
13.600,-0.540,-0.020
13.603,-0.505,-0.040
13.606,-0.485,-0.055
13.608,-0.475,-0.065
13.611,-0.470,-0.070
13.614,-0.470,-0.105
13.617,-0.470,-0.120
13.619,-0.455,-0.125
13.622,-0.460,-0.135
13.625,-0.455,-0.145
13.628,-0.435,-0.145
13.631,-0.430,-0.140
13.633,-0.435,-0.130
13.636,-0.415,-0.130
13.639,-0.415,-0.140
13.642,-0.405,-0.135
13.644,-0.405,-0.145
13.647,-0.420,-0.155
13.650,-0.430,-0.165
13.653,-0.430,-0.160
13.656,-0.435,-0.170
13.658,-0.430,-0.150
13.661,-0.420,-0.150
13.664,-0.400,-0.130
13.667,-0.395,-0.125
13.669,-0.395,-0.130
13.672,-0.385,-0.135
13.675,-0.390,-0.135
13.678,-0.380,-0.135
13.681,-0.390,-0.150
13.683,-0.380,-0.150
13.686,-0.360,-0.145
13.689,-0.350,-0.140
13.692,-0.340,-0.145
13.694,-0.325,-0.135
13.697,-0.300,-0.135
13.700,-0.300,-0.120
13.703,-0.270,-0.100
13.706,-0.285,-0.090
13.708,-0.245,-0.075
13.711,-0.225,-0.060
13.714,-0.210,-0.045
13.717,-0.170,-0.055
13.719,-0.110,-0.025
13.722,-0.050,-0.005
13.725,0.025,-0.005
13.728,0.160,-0.005
13.731,0.295,-0.010
13.733,0.420,-0.015
13.736,0.540,-0.030
13.739,0.645,-0.055
13.742,0.760,-0.065
13.744,0.870,-0.100
13.747,0.970,-0.140
13.750,1.065,-0.195
13.753,1.145,-0.260
13.756,1.240,-0.335
13.758,1.325,-0.420
13.761,1.410,-0.525
13.764,1.450,-0.675
13.767,1.415,-0.835
13.769,1.305,-0.985
13.772,1.065,-1.135
13.775,0.690,-1.225
13.778,0.180,-1.355
13.781,-0.350,-1.455
13.783,-0.835,-1.560
13.786,-1.225,-1.660
13.789,-1.505,-1.730
13.792,-1.630,-1.755
13.794,-1.640,-1.740
13.797,-1.585,-1.705
13.800,-1.480,-1.645
13.803,-1.365,-1.540
13.806,-1.265,-1.440
13.808,-1.185,-1.335
13.811,-1.110,-1.195
13.814,-1.035,-1.045
13.817,-0.960,-0.880
13.819,-0.875,-0.715
13.822,-0.780,-0.560
13.825,-0.685,-0.440
13.828,-0.595,-0.335
13.831,-0.545,-0.260
13.833,-0.530,-0.210
13.836,-0.530,-0.175
13.839,-0.540,-0.160
13.842,-0.550,-0.145
13.844,-0.545,-0.130
13.847,-0.540,-0.120
13.850,-0.540,-0.125
13.853,-0.525,-0.120
13.856,-0.525,-0.095
13.858,-0.515,-0.105
13.861,-0.520,-0.075
13.864,-0.520,-0.080
13.867,-0.515,-0.065
13.869,-0.510,-0.050
13.872,-0.505,-0.040
13.875,-0.495,-0.035
13.878,-0.510,-0.050
13.881,-0.515,-0.050
13.883,-0.515,-0.060
13.886,-0.515,-0.055
13.889,-0.510,-0.050
13.892,-0.510,-0.020
13.894,-0.505,-0.010
13.897,-0.505,0.000
13.900,-0.515,0.005
13.903,-0.505,0.020
13.906,-0.510,0.015
13.908,-0.505,0.010
13.911,-0.505,0.010
13.914,-0.510,0.000
13.917,-0.520,0.020
13.919,-0.515,0.015
13.922,-0.510,0.030
13.925,-0.505,0.045
13.928,-0.500,0.050
13.931,-0.495,0.065
13.933,-0.485,0.080
13.936,-0.485,0.075
13.939,-0.490,0.080
13.942,-0.490,0.085
13.944,-0.490,0.100
13.947,-0.500,0.095
13.950,-0.500,0.095
13.953,-0.500,0.120
13.956,-0.495,0.135
13.958,-0.480,0.140
13.961,-0.465,0.150
13.964,-0.450,0.155
13.967,-0.430,0.170
13.969,-0.410,0.180
13.972,-0.395,0.195
13.975,-0.385,0.210
13.978,-0.385,0.215
13.981,-0.370,0.230
13.983,-0.365,0.225
13.986,-0.350,0.245
13.989,-0.335,0.235
13.992,-0.325,0.250
13.994,-0.285,0.240
13.997,-0.265,0.265
14.000,-0.230,0.260
14.003,-0.220,0.290
14.006,-0.200,0.280
14.008,-0.190,0.285
14.011,-0.195,0.255
14.014,-0.190,0.250
14.017,-0.195,0.230
14.019,-0.200,0.230
14.022,-0.205,0.210
14.025,-0.210,0.205
14.028,-0.215,0.205
14.031,-0.210,0.210
14.033,-0.200,0.195
14.036,-0.210,0.190
14.039,-0.205,0.180
14.042,-0.220,0.155
14.044,-0.235,0.140
14.047,-0.240,0.105
14.050,-0.265,0.080
14.053,-0.285,0.060
14.056,-0.310,0.055
14.058,-0.315,0.050
14.061,-0.325,0.045
14.064,-0.330,0.030
14.067,-0.335,0.025
14.069,-0.335,0.010
14.072,-0.335,-0.015
14.075,-0.345,-0.020
14.078,-0.345,-0.030
14.081,-0.355,-0.050
14.083,-0.360,-0.055
14.086,-0.370,-0.065
14.089,-0.365,-0.060
14.092,-0.360,-0.060
14.094,-0.350,-0.055
14.097,-0.355,-0.065
14.100,-0.345,-0.070
14.103,-0.345,-0.065
14.106,-0.350,-0.065
14.108,-0.345,-0.060
14.111,-0.355,-0.065
14.114,-0.360,-0.060
14.117,-0.365,-0.075
14.119,-0.360,-0.080
14.122,-0.380,-0.065
14.125,-0.370,-0.080
14.128,-0.375,-0.070
14.131,-0.370,-0.065
14.133,-0.365,-0.065
14.136,-0.355,-0.045
14.139,-0.355,-0.050
14.142,-0.340,-0.050
14.144,-0.325,-0.055
14.147,-0.335,-0.060
14.150,-0.320,-0.070
14.153,-0.325,-0.080
14.156,-0.335,-0.090
14.158,-0.335,-0.085
14.161,-0.330,-0.080
14.164,-0.325,-0.065
14.167,-0.330,-0.050
14.169,-0.315,-0.055
14.172,-0.325,-0.050
14.175,-0.315,-0.060
14.178,-0.310,-0.065
14.181,-0.310,-0.080
14.183,-0.315,-0.090
14.186,-0.325,-0.095
14.189,-0.335,-0.090
14.192,-0.345,-0.085
14.194,-0.340,-0.075
14.197,-0.335,-0.080
14.200,-0.345,-0.065
14.203,-0.330,-0.075
14.206,-0.310,-0.080
14.208,-0.325,-0.090
14.211,-0.310,-0.105
14.214,-0.315,-0.095
14.217,-0.330,-0.100
14.219,-0.340,-0.090
14.222,-0.350,-0.095
14.225,-0.345,-0.090
14.228,-0.340,-0.095
14.231,-0.325,-0.085
14.233,-0.320,-0.080
14.236,-0.305,-0.090
14.239,-0.305,-0.100
14.242,-0.310,-0.105
14.244,-0.315,-0.110
14.247,-0.320,-0.115
14.250,-0.330,-0.115
14.253,-0.330,-0.120
14.256,-0.330,-0.125
14.258,-0.330,-0.120
14.261,-0.320,-0.130
14.264,-0.315,-0.120
14.267,-0.315,-0.115
14.269,-0.310,-0.105
14.272,-0.300,-0.095
14.275,-0.300,-0.110
14.278,-0.305,-0.120
14.281,-0.320,-0.125
14.283,-0.325,-0.130
14.286,-0.335,-0.130
14.289,-0.335,-0.125
14.292,-0.325,-0.130
14.294,-0.325,-0.120
14.297,-0.310,-0.110
14.300,-0.290,-0.085
14.303,-0.280,-0.090
14.306,-0.285,-0.095
14.308,-0.275,-0.105
14.311,-0.265,-0.100
14.314,-0.260,-0.110
14.317,-0.255,-0.105
14.319,-0.245,-0.080
14.322,-0.225,-0.050
14.325,-0.210,-0.005
14.328,-0.200,0.035
14.331,-0.185,0.045
14.333,-0.175,0.055
14.336,-0.150,0.065
14.339,-0.150,0.050
14.342,-0.130,0.040
14.344,-0.095,0.030
14.347,-0.065,0.000
14.350,-0.045,-0.020
14.353,-0.005,-0.040
14.356,0.020,-0.065
14.358,0.025,-0.090
14.361,0.000,-0.105
14.364,-0.015,-0.115
14.367,-0.020,-0.110
14.369,-0.010,-0.110
14.372,0.000,-0.100
14.375,-0.005,-0.105
14.378,0.005,-0.140
14.381,-0.005,-0.155
14.383,-0.025,-0.205
14.386,-0.060,-0.220
14.389,-0.100,-0.235
14.392,-0.145,-0.220
14.394,-0.185,-0.190
14.397,-0.215,-0.150
14.400,-0.235,-0.145
14.403,-0.225,-0.135
14.406,-0.250,-0.145
14.408,-0.260,-0.145
14.411,-0.280,-0.165
14.414,-0.300,-0.175
14.417,-0.320,-0.180
14.419,-0.330,-0.170
14.422,-0.340,-0.185
14.425,-0.330,-0.170
14.428,-0.320,-0.170
14.431,-0.310,-0.165
14.433,-0.305,-0.155
14.436,-0.285,-0.150
14.439,-0.290,-0.150
14.442,-0.285,-0.150
14.444,-0.290,-0.170
14.447,-0.295,-0.155
14.450,-0.300,-0.155
14.453,-0.305,-0.140
14.456,-0.315,-0.105
14.458,-0.285,-0.065
14.461,-0.255,-0.010
14.464,-0.170,0.010
14.467,-0.055,0.030
14.469,0.125,0.000
14.472,0.325,-0.085
14.475,0.530,-0.210
14.478,0.740,-0.375
14.481,0.925,-0.580
14.483,1.090,-0.825
14.486,1.240,-1.120
14.489,1.385,-1.440
14.492,1.495,-1.765
14.494,1.560,-2.035
14.497,1.570,-2.205
14.500,1.520,-2.250
14.503,1.415,-2.215
14.506,1.215,-2.105
14.508,0.940,-1.940
14.511,0.610,-1.745
14.514,0.285,-1.490
14.517,0.020,-1.245
14.519,-0.150,-1.020
14.522,-0.235,-0.830
14.525,-0.290,-0.675
14.528,-0.290,-0.570
14.531,-0.290,-0.490
14.533,-0.300,-0.410
14.536,-0.320,-0.340
14.539,-0.370,-0.285
14.542,-0.400,-0.235
14.544,-0.440,-0.170
14.547,-0.475,-0.155
14.550,-0.490,-0.145
14.553,-0.495,-0.135
14.556,-0.480,-0.135
14.558,-0.480,-0.110
14.561,-0.485,-0.085
14.564,-0.490,-0.070
14.567,-0.505,-0.065
14.569,-0.505,-0.040
14.572,-0.500,-0.050
14.575,-0.505,-0.040
14.578,-0.505,-0.035
14.581,-0.515,-0.040
14.583,-0.525,-0.025
14.586,-0.515,-0.025
14.589,-0.505,-0.020
14.592,-0.500,-0.010
14.594,-0.495,0.005
14.597,-0.485,0.010
14.600,-0.495,-0.005
14.603,-0.495,0.005
14.606,-0.505,0.010
14.608,-0.525,0.020
14.611,-0.530,0.020
14.614,-0.540,0.020
14.617,-0.550,0.025
14.619,-0.550,0.035
14.622,-0.555,0.040
14.625,-0.555,0.045
14.628,-0.545,0.055
14.631,-0.540,0.070
14.633,-0.545,0.075
14.636,-0.545,0.085
14.639,-0.530,0.095
14.642,-0.535,0.090
14.644,-0.550,0.075
14.647,-0.570,0.085
14.650,-0.585,0.090
14.653,-0.625,0.095
14.656,-0.640,0.100
14.658,-0.660,0.115
14.661,-0.655,0.135
14.664,-0.665,0.145
14.667,-0.660,0.165
14.669,-0.650,0.175
14.672,-0.655,0.170
14.675,-0.690,0.160
14.678,-0.695,0.165
14.681,-0.720,0.170
14.683,-0.750,0.170
14.686,-0.765,0.180
14.689,-0.785,0.190
14.692,-0.800,0.205
14.694,-0.800,0.220
14.697,-0.815,0.215
14.700,-0.825,0.225
14.703,-0.815,0.230
14.706,-0.820,0.230
14.708,-0.820,0.235
14.711,-0.840,0.245
14.714,-0.855,0.225
14.717,-0.855,0.220
14.719,-0.860,0.230
14.722,-0.865,0.220
14.725,-0.865,0.225
14.728,-0.835,0.225
14.731,-0.830,0.220
14.733,-0.820,0.240
14.736,-0.800,0.235
14.739,-0.790,0.215
14.742,-0.770,0.220
14.744,-0.745,0.205
14.747,-0.735,0.200
14.750,-0.710,0.170
14.753,-0.680,0.155
14.756,-0.675,0.145
14.758,-0.635,0.125
14.761,-0.605,0.120
14.764,-0.570,0.110
14.767,-0.530,0.100
14.769,-0.495,0.090
14.772,-0.475,0.080
14.775,-0.460,0.060
14.778,-0.430,0.040
14.781,-0.425,0.020
14.783,-0.405,0.005
14.786,-0.390,-0.025
14.789,-0.370,-0.050
14.792,-0.355,-0.055
14.794,-0.340,-0.050
14.797,-0.325,-0.045
14.800,-0.320,-0.045
14.803,-0.300,-0.045
14.806,-0.310,-0.060
14.808,-0.315,-0.055
14.811,-0.310,-0.070
14.814,-0.315,-0.085
14.817,-0.320,-0.095
14.819,-0.320,-0.095
14.822,-0.325,-0.080
14.825,-0.330,-0.080
14.828,-0.330,-0.080
14.831,-0.320,-0.070
14.833,-0.340,-0.070
14.836,-0.330,-0.065
14.839,-0.325,-0.080
14.842,-0.325,-0.075
14.844,-0.325,-0.090
14.847,-0.330,-0.080
14.850,-0.315,-0.075
14.853,-0.325,-0.085
14.856,-0.305,-0.070
14.858,-0.305,-0.075
14.861,-0.310,-0.070
14.864,-0.300,-0.065
14.867,-0.300,-0.070
14.869,-0.285,-0.055
14.872,-0.290,-0.060
14.875,-0.310,-0.060
14.878,-0.300,-0.060
14.881,-0.320,-0.070
14.883,-0.315,-0.075
14.886,-0.330,-0.080
14.889,-0.325,-0.085
14.892,-0.320,-0.075
14.894,-0.330,-0.085
14.897,-0.325,-0.070
14.900,-0.315,-0.060
14.903,-0.315,-0.055
14.906,-0.300,-0.045
14.908,-0.290,-0.035
14.911,-0.290,-0.040
14.914,-0.305,-0.055
14.917,-0.300,-0.040
14.919,-0.300,-0.045
14.922,-0.290,-0.030
14.925,-0.275,-0.020
14.928,-0.260,0.015
14.931,-0.235,0.040
14.933,-0.220,0.065
14.936,-0.195,0.090
14.939,-0.185,0.100
14.942,-0.185,0.105
14.944,-0.180,0.100
14.947,-0.165,0.090
14.950,-0.175,0.080
14.953,-0.135,0.085
14.956,-0.120,0.080
14.958,-0.075,0.075
14.961,-0.035,0.065
14.964,-0.005,0.055
14.967,0.015,0.010
14.969,0.025,-0.005
14.972,0.000,-0.035
14.975,-0.025,-0.045
14.978,-0.035,-0.065
14.981,-0.055,-0.060
14.983,-0.060,-0.070
14.986,-0.055,-0.070
14.989,-0.055,-0.080
14.992,-0.055,-0.085
14.994,-0.065,-0.110
14.997,-0.080,-0.125
15.000,-0.095,-0.140
15.003,-0.120,-0.135
15.006,-0.150,-0.150
15.008,-0.180,-0.135
15.011,-0.200,-0.110
15.014,-0.235,-0.115
15.017,-0.265,-0.100
15.019,-0.285,-0.090
15.022,-0.295,-0.085
15.025,-0.305,-0.090
15.028,-0.320,-0.090
15.031,-0.320,-0.075
15.033,-0.345,-0.085
15.036,-0.340,-0.085
15.039,-0.335,-0.105
15.042,-0.330,-0.100
15.044,-0.335,-0.110
15.047,-0.345,-0.105
15.050,-0.350,-0.110
15.053,-0.350,-0.110
15.056,-0.355,-0.125
15.058,-0.345,-0.125
15.061,-0.335,-0.115
15.064,-0.325,-0.115
15.067,-0.315,-0.100
15.069,-0.290,-0.080
15.072,-0.290,-0.020
15.075,-0.265,0.005
15.078,-0.210,0.050
15.081,-0.125,0.065
15.083,0.025,0.050
15.086,0.230,-0.020
15.089,0.435,-0.125
15.092,0.665,-0.275
15.094,0.875,-0.465
15.097,1.045,-0.710
15.100,1.225,-0.990
15.103,1.360,-1.325
15.106,1.470,-1.645
15.108,1.520,-1.920
15.111,1.515,-2.100
15.114,1.445,-2.155
15.117,1.290,-2.110
15.119,1.040,-1.985
15.122,0.715,-1.780
15.125,0.375,-1.550
15.128,0.045,-1.290
15.131,-0.155,-1.045
15.133,-0.295,-0.820
15.136,-0.340,-0.670
15.139,-0.345,-0.565
15.142,-0.330,-0.485
15.144,-0.330,-0.410
15.147,-0.345,-0.360
15.150,-0.385,-0.300
15.153,-0.435,-0.230
15.156,-0.470,-0.180
15.158,-0.490,-0.120
15.161,-0.495,-0.100
15.164,-0.490,-0.075
15.167,-0.480,-0.075
15.169,-0.485,-0.065
15.172,-0.485,-0.055
15.175,-0.490,-0.045
15.178,-0.495,-0.045
15.181,-0.500,-0.030
15.183,-0.495,-0.035
15.186,-0.500,-0.040
15.189,-0.505,-0.025
15.192,-0.495,-0.035
15.194,-0.500,-0.005
15.197,-0.495,0.025
15.200,-0.495,0.040
15.203,-0.495,0.045
15.206,-0.500,0.055
15.208,-0.505,0.050
15.211,-0.510,0.040
15.214,-0.525,0.040
15.217,-0.535,0.030
15.219,-0.540,0.035
15.222,-0.540,0.035
15.225,-0.540,0.050
15.228,-0.540,0.065
15.231,-0.535,0.090
15.233,-0.525,0.090
15.236,-0.520,0.100
15.239,-0.515,0.100
15.242,-0.530,0.100
15.244,-0.530,0.105
15.247,-0.550,0.105
15.250,-0.555,0.095
15.253,-0.565,0.115
15.256,-0.570,0.135
15.258,-0.570,0.145
15.261,-0.580,0.160
15.264,-0.585,0.175
15.267,-0.585,0.180
15.269,-0.595,0.205
15.272,-0.600,0.200
15.275,-0.625,0.210
15.278,-0.635,0.210
15.281,-0.660,0.210
15.283,-0.680,0.220
15.286,-0.700,0.230
15.289,-0.710,0.245
15.292,-0.715,0.245
15.294,-0.720,0.260
15.297,-0.725,0.270
15.300,-0.730,0.275
15.303,-0.725,0.295
15.306,-0.730,0.305
15.308,-0.735,0.325
15.311,-0.740,0.325
15.314,-0.750,0.330
15.317,-0.755,0.335
15.319,-0.750,0.340
15.322,-0.720,0.350
15.325,-0.690,0.350
15.328,-0.645,0.360
15.331,-0.595,0.390
15.333,-0.540,0.405
15.336,-0.495,0.405
15.339,-0.460,0.415
15.342,-0.425,0.405
15.344,-0.395,0.415
15.347,-0.365,0.410
15.350,-0.315,0.390
15.353,-0.295,0.385
15.356,-0.270,0.395
15.358,-0.235,0.410
15.361,-0.210,0.405
15.364,-0.195,0.405
15.367,-0.185,0.395
15.369,-0.175,0.365
15.372,-0.185,0.295
15.375,-0.220,0.250
15.378,-0.245,0.185
15.381,-0.285,0.125
15.383,-0.305,0.085
15.386,-0.320,0.060
15.389,-0.335,0.035
15.392,-0.345,0.015
15.394,-0.355,-0.010
15.397,-0.360,-0.025
15.400,-0.375,-0.040
15.403,-0.385,-0.040
15.406,-0.390,-0.055
15.408,-0.400,-0.055
15.411,-0.415,-0.060
15.414,-0.425,-0.055
15.417,-0.430,-0.070
15.419,-0.415,-0.065
15.422,-0.420,-0.080
15.425,-0.420,-0.090
15.428,-0.425,-0.095
15.431,-0.415,-0.090
15.433,-0.410,-0.090
15.436,-0.410,-0.085
15.439,-0.420,-0.090
15.442,-0.405,-0.090
15.444,-0.405,-0.105
15.447,-0.405,-0.115
15.450,-0.405,-0.120
15.453,-0.410,-0.125
15.456,-0.415,-0.140
15.458,-0.410,-0.120
15.461,-0.415,-0.105
15.464,-0.405,-0.090
15.467,-0.390,-0.080
15.469,-0.360,-0.050
15.472,-0.325,-0.010
15.475,-0.265,0.025
15.478,-0.160,0.050
15.481,-0.020,0.025
15.483,0.160,-0.035
15.486,0.355,-0.140
15.489,0.525,-0.295
15.492,0.680,-0.490
15.494,0.810,-0.730
15.497,0.925,-1.020
15.500,1.045,-1.320
15.503,1.150,-1.615
15.506,1.225,-1.835
15.508,1.280,-1.955
15.511,1.310,-1.980
15.514,1.295,-1.925
15.517,1.190,-1.820
15.519,1.000,-1.665
15.522,0.675,-1.495
15.525,0.320,-1.305
15.528,-0.025,-1.090
15.531,-0.285,-0.890
15.533,-0.435,-0.735
15.536,-0.460,-0.620
15.539,-0.455,-0.530
15.542,-0.415,-0.465
15.544,-0.390,-0.410
15.547,-0.380,-0.345
15.550,-0.395,-0.290
15.553,-0.440,-0.230
15.556,-0.490,-0.175
15.558,-0.520,-0.125
15.561,-0.530,-0.090
15.564,-0.525,-0.075
15.567,-0.525,-0.060
15.569,-0.515,-0.060
15.572,-0.505,-0.060
15.575,-0.515,-0.050
15.578,-0.515,-0.050
15.581,-0.525,-0.030
15.583,-0.525,-0.035
15.586,-0.535,-0.025
15.589,-0.525,-0.015
15.592,-0.535,-0.005
15.594,-0.530,0.000
15.597,-0.540,0.010
15.600,-0.535,0.035
15.603,-0.530,0.055
15.606,-0.530,0.050
15.608,-0.525,0.055
15.611,-0.540,0.050
15.614,-0.555,0.055
15.617,-0.550,0.050
15.619,-0.565,0.050
15.622,-0.580,0.065
15.625,-0.565,0.075
15.628,-0.575,0.105
15.631,-0.575,0.115
15.633,-0.565,0.120
15.636,-0.570,0.120
15.639,-0.565,0.110
15.642,-0.575,0.120
15.644,-0.575,0.130
15.647,-0.580,0.120
15.650,-0.595,0.125
15.653,-0.610,0.135
15.656,-0.640,0.140
15.658,-0.630,0.165
15.661,-0.635,0.165
15.664,-0.640,0.185
15.667,-0.640,0.205
15.669,-0.630,0.200
15.672,-0.640,0.205
15.675,-0.645,0.200
15.678,-0.665,0.205
15.681,-0.680,0.205
15.683,-0.690,0.210
15.686,-0.710,0.230
15.689,-0.730,0.230
15.692,-0.735,0.240
15.694,-0.745,0.260
15.697,-0.755,0.265
15.700,-0.750,0.265
15.703,-0.745,0.285
15.706,-0.745,0.285
15.708,-0.760,0.275
15.711,-0.750,0.295
15.714,-0.760,0.285
15.717,-0.770,0.300
15.719,-0.775,0.310
15.722,-0.775,0.295
15.725,-0.765,0.300
15.728,-0.760,0.310
15.731,-0.740,0.310
15.733,-0.720,0.310
15.736,-0.695,0.310
15.739,-0.680,0.300
15.742,-0.660,0.290
15.744,-0.625,0.275
15.747,-0.620,0.255
15.750,-0.605,0.235
15.753,-0.585,0.215
15.756,-0.565,0.190
15.758,-0.540,0.175
15.761,-0.525,0.175
15.764,-0.505,0.155
15.767,-0.470,0.145
15.769,-0.440,0.130
15.772,-0.430,0.100
15.775,-0.415,0.090
15.778,-0.400,0.055
15.781,-0.390,0.045
15.783,-0.390,0.015
15.786,-0.385,0.020
15.789,-0.385,0.000
15.792,-0.380,0.005
15.794,-0.385,0.000
15.797,-0.365,0.015
15.800,-0.360,0.020
15.803,-0.370,0.025
15.806,-0.360,0.010
15.808,-0.360,0.000
15.811,-0.365,-0.015
15.814,-0.370,-0.020
15.817,-0.370,-0.030
15.819,-0.390,-0.030
15.822,-0.400,-0.025
15.825,-0.390,-0.020
15.828,-0.375,-0.010
15.831,-0.370,-0.015
15.833,-0.375,-0.015
15.836,-0.350,-0.015
15.839,-0.350,-0.025
15.842,-0.370,-0.025
15.844,-0.365,-0.035
15.847,-0.375,-0.040
15.850,-0.375,-0.025
15.853,-0.380,-0.035
15.856,-0.375,-0.030
15.858,-0.385,-0.035
15.861,-0.390,-0.025
15.864,-0.385,-0.010
15.867,-0.380,-0.015
15.869,-0.365,0.000
15.872,-0.360,-0.010
15.875,-0.360,0.000
15.878,-0.365,0.000
15.881,-0.365,-0.020
15.883,-0.365,-0.035
15.886,-0.370,-0.035
15.889,-0.380,-0.050
15.892,-0.370,-0.050
15.894,-0.375,-0.030
15.897,-0.375,-0.025
15.900,-0.370,-0.010
15.903,-0.360,-0.010
15.906,-0.360,-0.015
15.908,-0.370,-0.010
15.911,-0.360,-0.025
15.914,-0.360,-0.045
15.917,-0.370,-0.045
15.919,-0.365,-0.050
15.922,-0.360,-0.055
15.925,-0.360,-0.030
15.928,-0.340,-0.030
15.931,-0.325,-0.020
15.933,-0.310,-0.025
15.936,-0.300,-0.035
15.939,-0.280,-0.030
15.942,-0.240,-0.040
15.944,-0.205,-0.045
15.947,-0.160,-0.065
15.950,-0.130,-0.050
15.953,-0.065,-0.065
15.956,0.000,-0.055
15.958,0.065,-0.045
15.961,0.145,-0.045
15.964,0.245,-0.040
15.967,0.350,-0.050
15.969,0.455,-0.045
15.972,0.560,-0.060
15.975,0.615,-0.085
15.978,0.610,-0.120
15.981,0.520,-0.170
15.983,0.320,-0.230
15.986,0.005,-0.310
15.989,-0.400,-0.370
15.992,-0.855,-0.425
15.994,-1.290,-0.465
15.997,-1.625,-0.495
16.000,-1.890,-0.525
16.003,-2.100,-0.550
16.006,-2.265,-0.580
16.008,-2.430,-0.575
16.011,-2.550,-0.520
16.014,-2.620,-0.420
16.017,-2.650,-0.285
16.019,-2.645,-0.120
16.022,-2.610,0.050
16.025,-2.540,0.240
16.028,-2.450,0.430
16.031,-2.330,0.600
16.033,-2.220,0.735
16.036,-2.070,0.840
16.039,-1.925,0.905
16.042,-1.800,0.950
16.044,-1.685,0.975
16.047,-1.620,0.990
16.050,-1.580,1.015
16.053,-1.510,1.005
16.056,-1.440,0.990
16.058,-1.335,0.930
16.061,-1.235,0.835
16.064,-1.145,0.685
16.067,-1.085,0.490
16.069,-1.020,0.255
16.072,-0.990,0.020
16.075,-0.950,-0.180
16.078,-0.890,-0.340
16.081,-0.815,-0.410
16.083,-0.715,-0.435
16.086,-0.595,-0.415
16.089,-0.445,-0.370
16.092,-0.295,-0.320
16.094,-0.180,-0.280
16.097,-0.075,-0.260
16.100,-0.010,-0.240
16.103,0.020,-0.210
16.106,0.010,-0.195
16.108,0.010,-0.160
16.111,0.005,-0.140
16.114,-0.005,-0.150
16.117,0.000,-0.145
16.119,0.010,-0.135
16.122,0.020,-0.150
16.125,0.045,-0.150
16.128,0.060,-0.145
16.131,0.075,-0.125
16.133,0.100,-0.135
16.136,0.120,-0.115
16.139,0.140,-0.120
16.142,0.150,-0.115
16.144,0.170,-0.130
16.147,0.175,-0.150
16.150,0.180,-0.150
16.153,0.180,-0.155
16.156,0.200,-0.160
16.158,0.215,-0.150
16.161,0.230,-0.150
16.164,0.240,-0.140
16.167,0.280,-0.135
16.169,0.315,-0.140
16.172,0.335,-0.155
16.175,0.350,-0.155
16.178,0.365,-0.165
16.181,0.385,-0.165
16.183,0.410,-0.175
16.186,0.430,-0.185
16.189,0.450,-0.165
16.192,0.480,-0.170
16.194,0.500,-0.170
16.197,0.550,-0.160
16.200,0.570,-0.165
16.203,0.610,-0.170
16.206,0.635,-0.170
16.208,0.660,-0.180
16.211,0.675,-0.190
16.214,0.690,-0.190
16.217,0.695,-0.220
16.219,0.695,-0.230
16.222,0.700,-0.235
16.225,0.700,-0.245
16.228,0.700,-0.250
16.231,0.710,-0.255
16.233,0.710,-0.240
16.236,0.725,-0.245
16.239,0.700,-0.255
16.242,0.675,-0.270
16.244,0.655,-0.285
16.247,0.630,-0.305
16.250,0.600,-0.310
16.253,0.570,-0.315
16.256,0.535,-0.325
16.258,0.495,-0.305
16.261,0.470,-0.300
16.264,0.445,-0.285
16.267,0.410,-0.265
16.269,0.395,-0.270
16.272,0.360,-0.270
16.275,0.310,-0.270
16.278,0.280,-0.255
16.281,0.220,-0.260
16.283,0.195,-0.255
16.286,0.160,-0.230
16.289,0.130,-0.210
16.292,0.095,-0.190
16.294,0.070,-0.175
16.297,0.040,-0.145
16.300,0.015,-0.120
16.303,-0.010,-0.110
16.306,-0.035,-0.105
16.308,-0.055,-0.085
16.311,-0.080,-0.075
16.314,-0.105,-0.050
16.317,-0.130,-0.050
16.319,-0.150,-0.050
16.322,-0.170,-0.040
16.325,-0.190,-0.025
16.328,-0.185,-0.010
16.331,-0.190,0.000
16.333,-0.195,0.000
16.336,-0.200,0.025
16.339,-0.195,0.010
16.342,-0.200,0.025
16.344,-0.205,0.030
16.347,-0.230,0.015
16.350,-0.220,0.005
16.353,-0.230,-0.005
16.356,-0.230,0.005
16.358,-0.240,0.005
16.361,-0.230,0.020
16.364,-0.225,0.035
16.367,-0.225,0.035
16.369,-0.220,0.025
16.372,-0.220,0.035
16.375,-0.225,0.015
16.378,-0.225,0.000
16.381,-0.230,-0.005
16.383,-0.225,-0.005
16.386,-0.235,-0.005
16.389,-0.245,0.020
16.392,-0.245,0.020
16.394,-0.250,0.025
16.397,-0.240,0.040
16.400,-0.240,0.040
16.403,-0.235,0.020
16.406,-0.230,0.020
16.408,-0.230,0.005
16.411,-0.235,-0.005
16.414,-0.240,0.005
16.417,-0.260,0.010
16.419,-0.255,-0.005
16.422,-0.265,0.000
16.425,-0.270,0.000
16.428,-0.270,-0.005
16.431,-0.270,0.005
16.433,-0.270,0.015
16.436,-0.245,0.000
16.439,-0.260,0.010
16.442,-0.265,0.000
16.444,-0.260,0.005
16.447,-0.285,0.005
16.450,-0.290,0.000
16.453,-0.295,-0.020
16.456,-0.295,-0.025
16.458,-0.305,-0.020
16.461,-0.305,-0.005
16.464,-0.305,-0.015
16.467,-0.305,0.005
16.469,-0.295,0.020
16.472,-0.295,0.015
16.475,-0.300,0.000
16.478,-0.300,-0.010
16.481,-0.310,-0.015
16.483,-0.310,-0.035
16.486,-0.315,-0.045
16.489,-0.315,-0.025
16.492,-0.320,-0.030
16.494,-0.330,-0.020
16.497,-0.315,-0.010
16.500,-0.320,0.000
16.503,-0.325,-0.010
16.506,-0.310,-0.015
16.508,-0.310,-0.015
16.511,-0.295,-0.030
16.514,-0.295,-0.030
16.517,-0.320,-0.050
16.519,-0.320,-0.035
16.522,-0.320,-0.035
16.525,-0.325,-0.035
16.528,-0.325,-0.030
16.531,-0.320,-0.035
16.533,-0.315,-0.025
16.536,-0.320,-0.025
16.539,-0.310,-0.030
16.542,-0.315,-0.030
16.544,-0.310,-0.035
16.547,-0.315,-0.040
16.550,-0.315,-0.030
16.553,-0.325,-0.035
16.556,-0.340,-0.040
16.558,-0.320,-0.040
16.561,-0.340,-0.040
16.564,-0.340,-0.040
16.567,-0.315,-0.040
16.569,-0.305,-0.030
16.572,-0.315,-0.030
16.575,-0.320,-0.025
16.578,-0.315,-0.030
16.581,-0.320,-0.030
16.583,-0.325,-0.035
16.586,-0.325,-0.055
16.589,-0.325,-0.045
16.592,-0.310,-0.060
16.594,-0.320,-0.045
16.597,-0.305,-0.030
16.600,-0.295,-0.020
16.603,-0.275,-0.005
16.606,-0.275,-0.020
16.608,-0.250,0.000
16.611,-0.245,0.015
16.614,-0.225,0.025
16.617,-0.225,0.045
16.619,-0.205,0.080
16.622,-0.205,0.100
16.625,-0.180,0.115
16.628,-0.165,0.135
16.631,-0.155,0.135
16.633,-0.145,0.135
16.636,-0.120,0.135
16.639,-0.090,0.105
16.642,-0.080,0.085
16.644,-0.030,0.075
16.647,-0.015,0.030
16.650,0.015,0.000
16.653,0.015,-0.010
16.656,0.005,-0.025
16.658,-0.010,-0.025
16.661,-0.040,-0.040
16.664,-0.060,-0.025
16.667,-0.060,-0.025
16.669,-0.040,-0.040
16.672,-0.035,-0.035
16.675,-0.035,-0.070
16.678,-0.025,-0.100
16.681,-0.050,-0.125
16.683,-0.070,-0.150
16.686,-0.115,-0.160
16.689,-0.150,-0.150
16.692,-0.180,-0.135
16.694,-0.205,-0.105
16.697,-0.215,-0.080
16.700,-0.235,-0.070
16.703,-0.240,-0.060
16.706,-0.250,-0.080
16.708,-0.265,-0.085
16.711,-0.280,-0.080
16.714,-0.300,-0.085
16.717,-0.325,-0.080
16.719,-0.340,-0.090
16.722,-0.345,-0.095
16.725,-0.355,-0.100
16.728,-0.355,-0.095
16.731,-0.345,-0.085
16.733,-0.330,-0.085
16.736,-0.320,-0.075
16.739,-0.315,-0.070
16.742,-0.310,-0.080
16.744,-0.310,-0.080
16.747,-0.315,-0.075
16.750,-0.315,-0.050
16.753,-0.305,-0.030
16.756,-0.290,0.025
16.758,-0.215,0.075
16.761,-0.100,0.100
16.764,0.060,0.070
16.767,0.270,-0.010
16.769,0.485,-0.145
16.772,0.690,-0.360
16.775,0.880,-0.615
16.778,1.055,-0.950
16.781,1.210,-1.320
16.783,1.340,-1.715
16.786,1.435,-2.025
16.789,1.475,-2.250
16.792,1.470,-2.340
16.794,1.395,-2.310
16.797,1.260,-2.195
16.800,1.025,-2.025
16.803,0.730,-1.805
16.806,0.395,-1.550
16.808,0.110,-1.280
16.811,-0.090,-1.020
16.814,-0.235,-0.830
16.817,-0.300,-0.670
16.819,-0.325,-0.585
16.822,-0.340,-0.505
16.825,-0.345,-0.425
16.828,-0.375,-0.350
16.831,-0.410,-0.265
16.833,-0.430,-0.185
16.836,-0.460,-0.125
16.839,-0.485,-0.085
16.842,-0.495,-0.065
16.844,-0.490,-0.055
16.847,-0.500,-0.060
16.850,-0.500,-0.060
16.853,-0.515,-0.050
16.856,-0.520,-0.030
16.858,-0.525,-0.015
16.861,-0.530,0.000
16.864,-0.515,0.010
16.867,-0.530,0.035
16.869,-0.520,0.040
16.872,-0.525,0.035
16.875,-0.520,0.040
16.878,-0.535,0.045
16.881,-0.535,0.040
16.883,-0.540,0.030
16.886,-0.555,0.040
16.889,-0.570,0.045
16.892,-0.565,0.065
16.894,-0.560,0.080
16.897,-0.550,0.100
16.900,-0.545,0.110
16.903,-0.545,0.115
16.906,-0.540,0.120
16.908,-0.550,0.125
16.911,-0.560,0.130
16.914,-0.565,0.125
16.917,-0.580,0.130
16.919,-0.580,0.130
16.922,-0.585,0.145
16.925,-0.580,0.165
16.928,-0.585,0.170
16.931,-0.590,0.180
16.933,-0.605,0.190
16.936,-0.610,0.210
16.939,-0.610,0.215
16.942,-0.620,0.240
16.944,-0.630,0.245
16.947,-0.660,0.235
16.950,-0.680,0.245
16.953,-0.705,0.240
16.956,-0.725,0.245
16.958,-0.735,0.255
16.961,-0.745,0.285
16.964,-0.755,0.300
16.967,-0.770,0.335
16.969,-0.780,0.325
16.972,-0.790,0.340
16.975,-0.825,0.345
