'Elapsed time','MLII','V1'
'seconds','mV','mV'
0.000,-0.080,0.135
0.003,-0.080,0.135
0.006,-0.080,0.135
0.008,-0.080,0.135
0.011,-0.080,0.135
0.014,-0.080,0.135
0.017,-0.080,0.135
0.019,-0.080,0.135
0.022,-0.075,0.135
0.025,-0.075,0.145
0.028,-0.090,0.155
0.031,-0.065,0.175
0.033,-0.055,0.180
0.036,-0.050,0.175
0.039,-0.050,0.165
0.042,-0.065,0.145
0.044,-0.070,0.145
0.047,-0.075,0.150
0.050,-0.080,0.150
0.053,-0.080,0.150
0.056,-0.085,0.150
0.058,-0.085,0.155
0.061,-0.095,0.155
0.064,-0.075,0.170
0.067,-0.070,0.175
0.069,-0.065,0.170
0.072,-0.060,0.145
0.075,-0.070,0.140
0.078,-0.075,0.135
0.081,-0.075,0.150
0.083,-0.080,0.155
0.086,-0.075,0.145
0.089,-0.070,0.140
0.092,-0.060,0.145
0.094,-0.065,0.170
0.097,-0.055,0.185
0.100,-0.055,0.170
0.103,-0.050,0.170
0.106,-0.050,0.150
0.108,-0.050,0.140
0.111,-0.060,0.135
0.114,-0.065,0.145
0.117,-0.065,0.145
0.119,-0.080,0.145
0.122,-0.065,0.150
0.125,-0.065,0.140
0.128,-0.060,0.160
0.131,-0.055,0.170
0.133,-0.055,0.170
0.136,-0.050,0.170
0.139,-0.050,0.140
0.142,-0.065,0.140
0.144,-0.065,0.130
0.147,-0.060,0.150
0.150,-0.050,0.155
0.153,-0.050,0.145
0.156,-0.045,0.150
0.158,-0.045,0.140
0.161,-0.050,0.150
0.164,-0.050,0.170
0.167,-0.050,0.175
0.169,-0.045,0.165
0.172,-0.055,0.155
0.175,-0.050,0.140
0.178,-0.065,0.140
0.181,-0.080,0.140
0.183,-0.080,0.150
0.186,-0.065,0.150
0.189,-0.060,0.155
0.192,-0.055,0.160
0.194,-0.050,0.175
0.197,-0.050,0.195
0.200,-0.035,0.190
0.203,-0.020,0.185
0.206,-0.015,0.175
0.208,-0.020,0.175
0.211,-0.015,0.180
0.214,-0.010,0.215
0.217,0.005,0.195
0.219,0.015,0.195
0.222,0.025,0.190
0.225,0.035,0.195
0.228,0.060,0.205
0.231,0.075,0.230
0.233,0.090,0.220
0.236,0.115,0.200
0.239,0.135,0.180
0.242,0.130,0.170
0.244,0.125,0.155
0.247,0.105,0.165
0.250,0.095,0.165
0.253,0.105,0.160
0.256,0.095,0.155
0.258,0.100,0.155
0.261,0.105,0.175
0.264,0.105,0.165
0.267,0.085,0.165
0.269,0.070,0.135
0.272,0.045,0.100
0.275,0.010,0.105
0.278,-0.020,0.125
0.281,-0.050,0.125
0.283,-0.070,0.135
0.286,-0.090,0.135
0.289,-0.095,0.135
0.292,-0.080,0.120
0.294,-0.080,0.135
0.297,-0.075,0.145
0.300,-0.085,0.145
0.303,-0.090,0.135
0.306,-0.095,0.115
0.308,-0.110,0.115
0.311,-0.120,0.115
0.314,-0.125,0.130
0.317,-0.135,0.135
0.319,-0.135,0.120
0.322,-0.140,0.120
0.325,-0.125,0.110
0.328,-0.125,0.130
0.331,-0.115,0.135
0.333,-0.130,0.140
0.336,-0.120,0.105
0.339,-0.125,0.090
0.342,-0.140,0.085
0.344,-0.155,0.095
0.347,-0.135,0.110
0.350,-0.070,0.100
0.353,0.025,0.085
0.356,0.190,0.080
0.358,0.395,0.075
0.361,0.635,0.085
0.364,0.900,0.120
0.367,1.180,0.185
0.369,1.415,0.260
0.372,1.595,0.390
0.375,1.660,0.525
0.378,1.575,0.645
0.381,1.370,0.730
0.383,1.065,0.735
0.386,0.720,0.645
0.389,0.380,0.495
0.392,0.110,0.335
0.394,-0.090,0.165
0.397,-0.185,0.055
0.400,-0.230,-0.020
0.403,-0.205,-0.020
0.406,-0.165,0.020
0.408,-0.120,0.075
0.411,-0.110,0.125
0.414,-0.125,0.130
0.417,-0.140,0.130
0.419,-0.155,0.110
0.422,-0.170,0.110
0.425,-0.185,0.120
0.428,-0.190,0.125
0.431,-0.180,0.125
0.433,-0.175,0.115
0.436,-0.155,0.100
0.439,-0.180,0.105
0.442,-0.180,0.105
0.444,-0.180,0.100
0.447,-0.190,0.085
0.450,-0.205,0.070
0.453,-0.220,0.080
0.456,-0.215,0.105
0.458,-0.190,0.115
0.461,-0.170,0.115
0.464,-0.155,0.095
0.467,-0.150,0.090
0.469,-0.150,0.105
0.472,-0.170,0.095
0.475,-0.175,0.075
0.478,-0.165,0.070
0.481,-0.175,0.080
0.483,-0.190,0.085
0.486,-0.190,0.100
0.489,-0.185,0.090
0.492,-0.155,0.080
0.494,-0.140,0.090
0.497,-0.130,0.080
0.500,-0.130,0.090
0.503,-0.135,0.085
0.506,-0.135,0.060
0.508,-0.140,0.040
0.511,-0.140,0.030
0.514,-0.150,0.030
0.517,-0.155,0.045
0.519,-0.145,0.040
0.522,-0.150,0.040
0.525,-0.145,0.030
0.528,-0.120,0.030
0.531,-0.105,0.045
0.533,-0.095,0.040
0.536,-0.085,0.025
0.539,-0.080,0.020
0.542,-0.080,0.000
0.544,-0.080,0.000
0.547,-0.085,0.000
0.550,-0.080,0.000
0.553,-0.095,0.000
0.556,-0.075,-0.010
0.558,-0.070,-0.025
0.561,-0.065,-0.005
0.564,-0.045,0.000
0.567,-0.025,-0.010
0.569,-0.025,-0.010
0.572,-0.020,-0.025
0.575,-0.020,-0.035
0.578,-0.030,-0.030
0.581,-0.035,-0.040
0.583,-0.030,-0.035
0.586,-0.035,-0.045
0.589,-0.035,-0.045
0.592,-0.035,-0.040
0.594,-0.035,-0.020
0.597,-0.030,-0.010
0.600,-0.025,-0.025
0.603,-0.010,-0.030
0.606,-0.010,-0.030
0.608,-0.020,-0.020
0.611,-0.035,-0.010
0.614,-0.030,0.000
0.617,-0.025,-0.005
0.619,-0.010,0.000
0.622,0.000,0.005
0.625,0.020,0.040
0.628,0.040,0.070
0.631,0.065,0.085
0.633,0.065,0.095
0.636,0.060,0.095
0.639,0.055,0.110
0.642,0.075,0.120
0.644,0.070,0.135
0.647,0.060,0.130
0.650,0.055,0.125
0.653,0.045,0.110
0.656,0.035,0.115
0.658,0.045,0.135
0.661,0.040,0.155
0.664,0.045,0.150
0.667,0.040,0.145
0.669,0.045,0.125
0.672,0.045,0.135
0.675,0.030,0.150
0.678,0.020,0.155
0.681,0.030,0.160
0.683,0.020,0.160
0.686,0.025,0.140
0.689,0.030,0.155
0.692,0.030,0.155
0.694,0.035,0.175
0.697,0.035,0.180
0.700,0.030,0.160
0.703,0.030,0.145
0.706,0.035,0.135
0.708,0.035,0.140
0.711,0.030,0.150
0.714,0.030,0.140
0.717,0.030,0.140
0.719,0.025,0.130
0.722,0.030,0.135
0.725,0.030,0.165
0.728,0.035,0.165
0.731,0.040,0.175
0.733,0.040,0.165
0.736,0.045,0.160
0.739,0.045,0.130
0.742,0.030,0.125
0.744,0.030,0.140
0.747,0.015,0.130
0.750,0.045,0.130
0.753,0.045,0.135
0.756,0.055,0.135
0.758,0.045,0.145
0.761,0.055,0.170
0.764,0.060,0.175
0.767,0.055,0.165
0.769,0.055,0.150
0.772,0.060,0.130
0.775,0.045,0.110
0.778,0.050,0.135
0.781,0.035,0.140
0.783,0.040,0.140
0.786,0.050,0.130
0.789,0.055,0.120
0.792,0.060,0.135
0.794,0.070,0.150
0.797,0.080,0.175
0.800,0.070,0.180
0.803,0.070,0.165
0.806,0.045,0.135
0.808,0.045,0.125
0.811,0.035,0.135
0.814,0.035,0.130
0.817,0.035,0.145
0.819,0.045,0.130
0.822,0.050,0.130
0.825,0.045,0.130
0.828,0.055,0.150
0.831,0.060,0.165
0.833,0.065,0.165
0.836,0.055,0.155
0.839,0.070,0.135
0.842,0.065,0.135
0.844,0.055,0.155
0.847,0.055,0.170
0.850,0.060,0.190
0.853,0.080,0.175
0.856,0.100,0.190
0.858,0.110,0.195
0.861,0.130,0.210
0.864,0.130,0.230
0.867,0.140,0.220
0.869,0.170,0.205
0.872,0.180,0.185
0.875,0.195,0.175
0.878,0.195,0.170
0.881,0.205,0.185
0.883,0.215,0.165
0.886,0.210,0.165
0.889,0.210,0.150
0.892,0.210,0.155
0.894,0.215,0.175
0.897,0.215,0.175
0.900,0.220,0.180
0.903,0.220,0.155
0.906,0.205,0.120
0.908,0.180,0.095
0.911,0.150,0.085
0.914,0.125,0.100
0.917,0.090,0.115
0.919,0.070,0.115
0.922,0.065,0.115
0.925,0.045,0.140
0.928,0.040,0.155
0.931,0.040,0.155
0.933,0.040,0.155
0.936,0.020,0.130
0.939,0.015,0.110
0.942,0.010,0.090
0.944,0.010,0.080
0.947,-0.010,0.100
0.950,-0.005,0.115
0.953,-0.010,0.105
0.956,-0.020,0.100
0.958,-0.020,0.110
0.961,-0.020,0.110
0.964,-0.010,0.120
0.967,-0.015,0.125
0.969,-0.010,0.115
0.972,-0.010,0.105
0.975,-0.020,0.080
0.978,-0.040,0.075
0.981,-0.035,0.070
0.983,-0.060,0.085
0.986,-0.065,0.075
0.989,-0.040,0.085
0.992,0.020,0.095
0.994,0.115,0.110
0.997,0.240,0.105
1.000,0.395,0.095
1.003,0.600,0.075
1.006,0.855,0.055
1.008,1.110,0.060
1.011,1.370,0.125
1.014,1.590,0.215
1.017,1.735,0.350
1.019,1.770,0.475
1.022,1.640,0.585
1.025,1.410,0.630
1.028,1.090,0.610
1.031,0.740,0.535
1.033,0.425,0.380
1.036,0.175,0.215
1.039,-0.010,0.060
1.042,-0.095,-0.045
1.044,-0.110,-0.055
1.047,-0.100,-0.035
1.050,-0.060,0.035
1.053,-0.025,0.080
1.056,-0.010,0.105
1.058,-0.035,0.105
1.061,-0.055,0.110
1.064,-0.075,0.115
1.067,-0.110,0.100
1.069,-0.120,0.090
1.072,-0.125,0.075
1.075,-0.120,0.060
1.078,-0.120,0.070
1.081,-0.120,0.085
1.083,-0.140,0.100
1.086,-0.125,0.090
1.089,-0.125,0.075
1.092,-0.125,0.075
1.094,-0.120,0.090
1.097,-0.120,0.105
1.100,-0.115,0.115
1.103,-0.115,0.100
1.106,-0.110,0.075
1.108,-0.135,0.070
1.111,-0.135,0.060
1.114,-0.145,0.070
1.117,-0.140,0.065
1.119,-0.130,0.055
1.122,-0.120,0.070
1.125,-0.120,0.070
1.128,-0.120,0.085
1.131,-0.110,0.080
1.133,-0.105,0.075
1.136,-0.105,0.055
1.139,-0.115,0.045
1.142,-0.115,0.045
1.144,-0.125,0.050
1.147,-0.125,0.065
1.150,-0.115,0.060
1.153,-0.110,0.060
1.156,-0.100,0.050
1.158,-0.095,0.060
1.161,-0.085,0.080
1.164,-0.075,0.070
1.167,-0.070,0.055
1.169,-0.065,0.035
1.172,-0.080,0.030
1.175,-0.095,0.015
1.178,-0.095,0.035
1.181,-0.095,0.035
1.183,-0.090,0.015
1.186,-0.080,0.000
1.189,-0.080,0.010
1.192,-0.060,0.015
1.194,-0.060,0.015
1.197,-0.030,0.010
1.200,-0.030,0.000
1.203,-0.025,-0.020
1.206,-0.035,-0.015
1.208,-0.035,-0.005
1.211,-0.055,-0.010
1.214,-0.045,-0.030
1.217,-0.050,-0.060
1.219,-0.040,-0.060
1.222,-0.030,-0.040
1.225,-0.020,-0.025
1.228,0.000,-0.020
1.231,0.010,-0.025
1.233,0.005,-0.050
1.236,0.005,-0.055
1.239,-0.015,-0.050
1.242,-0.025,-0.050
1.244,-0.025,-0.060
1.247,-0.035,-0.070
1.250,-0.025,-0.075
1.253,-0.020,-0.065
1.256,-0.030,-0.050
1.258,-0.020,-0.020
1.261,0.000,-0.015
1.264,0.010,-0.010
1.267,0.005,-0.015
1.269,0.000,-0.010
1.272,0.005,0.005
1.275,-0.005,0.020
1.278,0.000,0.020
1.281,0.000,0.020
1.283,0.015,0.020
1.286,0.015,0.050
1.289,0.020,0.080
1.292,0.040,0.110
1.294,0.060,0.130
1.297,0.070,0.120
1.300,0.070,0.115
1.303,0.070,0.110
1.306,0.050,0.110
1.308,0.035,0.120
1.311,0.025,0.115
1.314,0.020,0.100
1.317,0.030,0.110
1.319,0.015,0.105
1.322,0.015,0.115
1.325,0.020,0.140
1.328,0.030,0.160
1.331,0.035,0.160
1.333,0.035,0.150
1.336,0.040,0.140
1.339,0.045,0.125
1.342,0.025,0.135
1.344,0.025,0.140
1.347,0.015,0.135
1.350,0.010,0.115
1.353,0.000,0.095
1.356,-0.005,0.105
1.358,-0.005,0.130
1.361,-0.005,0.145
1.364,0.005,0.155
1.367,0.020,0.135
1.369,0.030,0.120
1.372,0.045,0.120
1.375,0.030,0.130
1.378,0.030,0.120
1.381,0.010,0.120
1.383,-0.005,0.110
1.386,-0.005,0.105
1.389,0.005,0.115
1.392,0.005,0.130
1.394,0.010,0.150
1.397,0.020,0.155
1.400,0.030,0.135
1.403,0.025,0.130
1.406,0.025,0.115
1.408,0.025,0.120
1.411,0.025,0.135
1.414,0.005,0.125
1.417,0.025,0.115
1.419,0.020,0.100
1.422,0.025,0.105
1.425,0.025,0.105
1.428,0.030,0.140
1.431,0.040,0.155
1.433,0.020,0.145
1.436,0.030,0.135
1.439,0.030,0.120
1.442,0.035,0.115
1.444,0.035,0.125
1.447,0.035,0.145
1.450,0.040,0.130
1.453,0.040,0.125
1.456,0.035,0.125
1.458,0.040,0.140
1.461,0.035,0.155
1.464,0.035,0.150
1.467,0.030,0.150
1.469,0.030,0.120
1.472,0.035,0.110
1.475,0.025,0.090
1.478,0.020,0.105
1.481,0.010,0.115
1.483,0.025,0.125
1.486,0.015,0.125
1.489,0.035,0.125
1.492,0.040,0.120
1.494,0.025,0.150
1.497,0.030,0.160
1.500,0.045,0.160
1.503,0.055,0.155
1.506,0.060,0.150
1.508,0.055,0.160
1.511,0.050,0.170
1.514,0.060,0.170
1.517,0.070,0.175
1.519,0.085,0.175
1.522,0.110,0.175
1.525,0.120,0.175
1.528,0.140,0.185
1.531,0.160,0.195
1.533,0.165,0.195
1.536,0.190,0.185
1.539,0.205,0.165
1.542,0.205,0.135
1.544,0.200,0.120
1.547,0.175,0.125
1.550,0.155,0.140
1.553,0.155,0.150
1.556,0.165,0.140
1.558,0.180,0.125
1.561,0.195,0.130
1.564,0.210,0.130
1.567,0.190,0.140
1.569,0.170,0.140
1.572,0.155,0.110
1.575,0.115,0.080
1.578,0.095,0.075
1.581,0.055,0.080
1.583,0.035,0.110
1.586,0.015,0.135
1.589,0.015,0.130
1.592,0.005,0.115
1.594,-0.005,0.105
1.597,0.000,0.090
1.600,-0.025,0.090
1.603,-0.035,0.105
1.606,-0.040,0.105
1.608,-0.040,0.100
1.611,-0.050,0.070
1.614,-0.065,0.055
1.617,-0.080,0.085
1.619,-0.090,0.100
1.622,-0.080,0.105
1.625,-0.075,0.115
1.628,-0.080,0.095
1.631,-0.065,0.105
1.633,-0.060,0.100
1.636,-0.070,0.120
1.639,-0.070,0.105
1.642,-0.070,0.080
1.644,-0.075,0.065
1.647,-0.105,0.040
1.650,-0.110,0.040
1.653,-0.110,0.060
1.656,-0.075,0.095
1.658,0.005,0.100
1.661,0.115,0.090
1.664,0.255,0.050
1.667,0.435,0.035
1.669,0.655,0.035
1.672,0.905,0.045
1.675,1.175,0.090
1.678,1.440,0.135
1.681,1.645,0.230
1.683,1.745,0.335
1.686,1.690,0.465
1.689,1.520,0.570
1.692,1.245,0.600
1.694,0.915,0.565
1.697,0.575,0.430
1.700,0.270,0.265
1.703,0.045,0.130
1.706,-0.090,0.005
1.708,-0.150,-0.060
1.711,-0.155,-0.075
1.714,-0.120,-0.045
1.717,-0.095,0.015
1.719,-0.080,0.065
1.722,-0.085,0.125
1.725,-0.100,0.105
1.728,-0.120,0.105
1.731,-0.140,0.085
1.733,-0.160,0.085
1.736,-0.170,0.090
1.739,-0.180,0.110
1.742,-0.175,0.080
1.744,-0.165,0.060
1.747,-0.165,0.055
1.750,-0.185,0.070
1.753,-0.180,0.080
1.756,-0.175,0.105
1.758,-0.175,0.095
1.761,-0.170,0.085
1.764,-0.165,0.080
1.767,-0.175,0.075
1.769,-0.175,0.095
1.772,-0.185,0.090
1.775,-0.185,0.070
1.778,-0.185,0.045
1.781,-0.180,0.055
1.783,-0.180,0.065
1.786,-0.175,0.055
1.789,-0.160,0.075
1.792,-0.155,0.075
1.794,-0.160,0.075
1.797,-0.145,0.065
1.800,-0.150,0.085
1.803,-0.165,0.095
1.806,-0.160,0.085
1.808,-0.155,0.060
1.811,-0.175,0.040
1.814,-0.175,0.025
1.817,-0.165,0.035
1.819,-0.165,0.055
1.822,-0.160,0.060
1.825,-0.145,0.060
1.828,-0.125,0.050
1.831,-0.125,0.055
1.833,-0.125,0.045
1.836,-0.140,0.055
1.839,-0.135,0.035
1.842,-0.135,0.005
1.844,-0.135,-0.005
1.847,-0.140,-0.005
1.850,-0.140,0.005
1.853,-0.125,0.015
1.856,-0.110,0.010
1.858,-0.115,0.005
1.861,-0.100,0.000
1.864,-0.095,0.000
1.867,-0.095,0.015
1.869,-0.100,0.015
1.872,-0.090,-0.020
1.875,-0.095,-0.040
1.878,-0.090,-0.065
1.881,-0.095,-0.065
1.883,-0.100,-0.055
1.886,-0.095,-0.040
1.889,-0.080,-0.035
1.892,-0.055,-0.040
1.894,-0.040,-0.050
1.897,-0.030,-0.025
1.900,-0.025,-0.020
1.903,-0.025,-0.015
1.906,-0.035,-0.035
1.908,-0.040,-0.050
1.911,-0.050,-0.080
1.914,-0.055,-0.060
1.917,-0.070,-0.050
1.919,-0.065,-0.025
1.922,-0.050,-0.040
1.925,-0.040,-0.045
1.928,-0.025,-0.045
1.931,-0.025,-0.025
1.933,-0.005,-0.020
1.936,-0.020,-0.010
1.939,-0.010,-0.010
1.942,-0.015,-0.010
1.944,-0.015,0.015
1.947,-0.020,0.030
1.950,-0.015,0.050
1.953,-0.015,0.060
1.956,0.000,0.065
1.958,0.015,0.070
1.961,0.015,0.110
1.964,0.030,0.130
1.967,0.030,0.140
1.969,0.025,0.135
1.972,0.015,0.120
1.975,0.005,0.090
1.978,-0.005,0.115
1.981,-0.020,0.125
1.983,-0.030,0.130
1.986,-0.030,0.135
1.989,-0.020,0.120
1.992,-0.025,0.115
1.994,-0.015,0.135
1.997,-0.020,0.145
2.000,-0.015,0.140
2.003,-0.015,0.125
2.006,-0.020,0.115
2.008,-0.035,0.110
2.011,-0.045,0.110
2.014,-0.045,0.120
2.017,-0.060,0.125
2.019,-0.065,0.120
2.022,-0.060,0.115
2.025,-0.060,0.135
2.028,-0.045,0.155
2.031,-0.030,0.165
2.033,-0.020,0.150
2.036,-0.010,0.135
2.039,-0.015,0.115
2.042,-0.030,0.115
2.044,-0.035,0.120
2.047,-0.050,0.105
2.050,-0.050,0.100
2.053,-0.055,0.105
2.056,-0.045,0.120
2.058,-0.040,0.135
2.061,-0.030,0.145
2.064,-0.020,0.145
2.067,-0.015,0.120
2.069,-0.015,0.120
2.072,-0.015,0.130
2.075,-0.020,0.135
2.078,-0.035,0.120
2.081,-0.040,0.105
2.083,-0.045,0.090
2.086,-0.045,0.110
2.089,-0.035,0.120
2.092,-0.030,0.145
2.094,-0.020,0.155
2.097,-0.005,0.145
2.100,0.005,0.145
2.103,-0.005,0.135
2.106,0.000,0.130
2.108,-0.015,0.125
2.111,-0.030,0.120
2.114,-0.035,0.100
2.117,-0.035,0.095
2.119,-0.030,0.100
2.122,-0.050,0.110
2.125,-0.045,0.145
2.128,-0.055,0.160
2.131,-0.040,0.155
2.133,-0.035,0.140
2.136,-0.030,0.130
2.139,-0.030,0.130
2.142,-0.025,0.140
2.144,-0.030,0.150
2.147,-0.035,0.125
2.150,-0.035,0.110
2.153,-0.030,0.105
2.156,-0.015,0.120
2.158,-0.015,0.140
2.161,-0.005,0.165
2.164,0.020,0.185
2.167,0.040,0.160
2.169,0.045,0.175
2.172,0.050,0.170
2.175,0.045,0.180
2.178,0.045,0.185
2.181,0.050,0.180
2.183,0.065,0.175
2.186,0.085,0.165
2.189,0.095,0.175
2.192,0.105,0.175
2.194,0.125,0.185
2.197,0.130,0.185
2.200,0.145,0.160
2.203,0.125,0.135
2.206,0.110,0.140
2.208,0.120,0.130
2.211,0.115,0.135
2.214,0.120,0.135
2.217,0.120,0.120
2.219,0.105,0.105
2.222,0.090,0.090
2.225,0.070,0.110
2.228,0.035,0.110
2.231,0.025,0.120
2.233,0.000,0.115
2.236,-0.010,0.120
2.239,-0.020,0.105
2.242,-0.040,0.125
2.244,-0.060,0.130
2.247,-0.075,0.125
2.250,-0.090,0.115
2.253,-0.090,0.100
2.256,-0.095,0.095
2.258,-0.100,0.100
2.261,-0.105,0.100
2.264,-0.100,0.130
2.267,-0.100,0.115
2.269,-0.100,0.105
2.272,-0.100,0.085
2.275,-0.115,0.070
2.278,-0.120,0.070
2.281,-0.130,0.095
2.283,-0.130,0.100
2.286,-0.125,0.090
2.289,-0.115,0.090
2.292,-0.105,0.095
2.294,-0.110,0.105
2.297,-0.110,0.120
2.300,-0.130,0.115
2.303,-0.145,0.090
2.306,-0.130,0.075
2.308,-0.100,0.070
2.311,-0.040,0.085
2.314,0.055,0.090
2.317,0.180,0.080
2.319,0.360,0.055
2.322,0.575,0.020
2.325,0.835,0.030
2.328,1.115,0.080
2.331,1.375,0.170
2.333,1.585,0.285
2.336,1.690,0.395
2.339,1.680,0.490
2.342,1.525,0.565
2.344,1.255,0.600
2.347,0.950,0.570
2.350,0.630,0.490
2.353,0.320,0.350
2.356,0.085,0.190
2.358,-0.060,0.050
2.361,-0.135,-0.040
2.364,-0.155,-0.040
2.367,-0.145,-0.010
2.369,-0.110,0.035
2.372,-0.085,0.065
2.375,-0.065,0.070
2.378,-0.085,0.065
2.381,-0.125,0.075
2.383,-0.165,0.085
2.386,-0.175,0.095
2.389,-0.195,0.100
2.392,-0.205,0.100
2.394,-0.195,0.075
2.397,-0.185,0.075
2.400,-0.180,0.090
2.403,-0.195,0.095
2.406,-0.180,0.095
2.408,-0.175,0.075
2.411,-0.185,0.050
2.414,-0.195,0.040
2.417,-0.200,0.035
2.419,-0.205,0.070
2.422,-0.205,0.090
2.425,-0.200,0.090
2.428,-0.195,0.080
2.431,-0.180,0.085
2.433,-0.190,0.080
2.436,-0.185,0.085
2.439,-0.180,0.090
2.442,-0.180,0.075
2.444,-0.180,0.045
2.447,-0.180,0.020
2.450,-0.185,0.025
2.453,-0.185,0.040
2.456,-0.190,0.060
2.458,-0.200,0.070
2.461,-0.180,0.070
2.464,-0.180,0.060
2.467,-0.180,0.050
2.469,-0.175,0.060
2.472,-0.170,0.060
2.475,-0.180,0.050
2.478,-0.175,0.040
2.481,-0.170,0.010
2.483,-0.170,0.015
2.486,-0.170,0.030
2.489,-0.175,0.045
2.492,-0.170,0.035
2.494,-0.145,0.035
2.497,-0.145,0.025
2.500,-0.150,0.005
2.503,-0.150,0.020
2.506,-0.145,0.010
2.508,-0.140,0.015
2.511,-0.135,0.000
2.514,-0.135,-0.030
2.517,-0.125,-0.020
2.519,-0.140,-0.025
2.522,-0.120,-0.005
2.525,-0.115,-0.005
2.528,-0.110,-0.025
2.531,-0.090,-0.025
2.533,-0.085,-0.045
2.536,-0.095,-0.035
2.539,-0.095,-0.030
2.542,-0.100,-0.035
2.544,-0.090,-0.055
2.547,-0.110,-0.080
2.550,-0.090,-0.085
2.553,-0.085,-0.075
2.556,-0.080,-0.065
2.558,-0.070,-0.050
2.561,-0.075,-0.060
2.564,-0.050,-0.080
2.567,-0.055,-0.080
2.569,-0.045,-0.080
2.572,-0.050,-0.080
2.575,-0.070,-0.070
2.578,-0.075,-0.075
2.581,-0.070,-0.105
2.583,-0.080,-0.100
2.586,-0.065,-0.090
2.589,-0.070,-0.065
2.592,-0.065,-0.050
2.594,-0.045,-0.050
2.597,-0.035,-0.050
2.600,-0.040,-0.060
2.603,-0.025,-0.045
2.606,-0.025,-0.010
2.608,-0.020,0.005
2.611,-0.025,0.000
2.614,-0.040,0.000
2.617,-0.045,-0.010
2.619,-0.035,0.005
2.622,-0.030,0.045
2.625,-0.005,0.080
2.628,-0.010,0.085
2.631,0.010,0.095
2.633,0.010,0.090
2.636,0.015,0.095
2.639,0.020,0.090
2.642,0.000,0.105
2.644,-0.010,0.100
2.647,-0.010,0.075
2.650,-0.020,0.070
2.653,-0.025,0.085
2.656,-0.030,0.095
2.658,-0.035,0.125
2.661,-0.030,0.135
2.664,-0.010,0.120
2.667,0.000,0.105
2.669,-0.010,0.100
2.672,-0.010,0.105
2.675,-0.020,0.110
2.678,-0.030,0.120
2.681,-0.030,0.120
2.683,-0.040,0.095
2.686,-0.045,0.095
2.689,-0.035,0.100
2.692,-0.040,0.110
2.694,-0.035,0.125
2.697,-0.030,0.110
2.700,-0.015,0.095
2.703,-0.010,0.090
2.706,-0.010,0.105
2.708,-0.015,0.105
2.711,-0.010,0.110
2.714,-0.025,0.090
2.717,-0.035,0.075
2.719,-0.040,0.075
2.722,-0.045,0.095
2.725,-0.040,0.125
2.728,-0.040,0.120
2.731,-0.030,0.120
2.733,-0.015,0.105
2.736,-0.015,0.095
2.739,-0.025,0.095
2.742,-0.010,0.110
2.744,-0.020,0.110
2.747,-0.030,0.090
2.750,-0.020,0.080
2.753,-0.025,0.085
2.756,-0.025,0.100
2.758,-0.035,0.120
2.761,-0.035,0.115
2.764,-0.035,0.115
2.767,-0.010,0.100
2.769,-0.010,0.095
2.772,-0.010,0.120
2.775,-0.025,0.120
2.778,-0.030,0.100
2.781,-0.025,0.090
2.783,-0.030,0.085
2.786,-0.045,0.115
2.789,-0.025,0.125
2.792,-0.030,0.135
2.794,-0.030,0.135
2.797,-0.020,0.110
2.800,-0.030,0.105
2.803,-0.035,0.090
2.806,-0.045,0.095
2.808,-0.045,0.095
2.811,-0.050,0.090
2.814,-0.065,0.090
2.817,-0.050,0.090
2.819,-0.055,0.120
2.822,-0.025,0.125
2.825,-0.030,0.145
2.828,-0.015,0.130
2.831,0.005,0.130
2.833,0.005,0.150
2.836,0.010,0.165
2.839,0.015,0.170
2.842,0.015,0.175
2.844,0.020,0.155
2.847,0.030,0.145
2.850,0.040,0.165
2.853,0.060,0.175
2.856,0.075,0.180
2.858,0.110,0.175
2.861,0.145,0.150
2.864,0.145,0.130
2.867,0.150,0.125
2.869,0.145,0.125
2.872,0.120,0.125
2.875,0.105,0.105
2.878,0.100,0.090
2.881,0.095,0.095
2.883,0.095,0.100
2.886,0.095,0.105
2.889,0.075,0.125
2.892,0.085,0.110
2.894,0.075,0.100
2.897,0.050,0.085
2.900,0.015,0.085
2.903,0.000,0.100
2.906,-0.025,0.110
2.908,-0.050,0.110
2.911,-0.060,0.090
2.914,-0.070,0.070
2.917,-0.095,0.075
2.919,-0.100,0.070
2.922,-0.105,0.095
2.925,-0.100,0.100
2.928,-0.090,0.085
2.931,-0.085,0.065
2.933,-0.090,0.075
2.936,-0.095,0.080
2.939,-0.105,0.090
2.942,-0.120,0.090
2.944,-0.115,0.075
2.947,-0.125,0.060
2.950,-0.130,0.060
2.953,-0.140,0.085
2.956,-0.135,0.095
2.958,-0.125,0.115
2.961,-0.125,0.100
2.964,-0.125,0.070
2.967,-0.140,0.050
2.969,-0.145,0.025
2.972,-0.160,0.040
2.975,-0.170,0.055
2.978,-0.120,0.070
2.981,-0.060,0.070
2.983,0.030,0.045
2.986,0.145,0.025
2.989,0.310,0.000
2.992,0.520,0.010
2.994,0.775,0.035
2.997,1.050,0.065
3.000,1.315,0.130
3.003,1.525,0.235
3.006,1.645,0.330
3.008,1.650,0.445
3.011,1.505,0.560
3.014,1.260,0.595
3.017,0.955,0.590
3.019,0.630,0.505
3.022,0.335,0.365
3.025,0.100,0.220
3.028,-0.055,0.090
3.031,-0.140,-0.020
3.033,-0.165,-0.070
3.036,-0.150,-0.085
3.039,-0.120,-0.040
3.042,-0.090,0.010
3.044,-0.085,0.070
3.047,-0.090,0.090
3.050,-0.110,0.095
3.053,-0.155,0.085
3.056,-0.165,0.075
3.058,-0.185,0.075
3.061,-0.195,0.085
3.064,-0.200,0.080
3.067,-0.195,0.065
3.069,-0.190,0.060
3.072,-0.185,0.055
3.075,-0.195,0.075
3.078,-0.200,0.085
3.081,-0.200,0.080
3.083,-0.200,0.075
3.086,-0.195,0.050
3.089,-0.185,0.040
3.092,-0.185,0.055
3.094,-0.185,0.070
3.097,-0.190,0.075
3.100,-0.180,0.070
3.103,-0.175,0.050
3.106,-0.190,0.045
3.108,-0.205,0.035
3.111,-0.205,0.045
3.114,-0.200,0.050
3.117,-0.190,0.050
3.119,-0.185,0.035
3.122,-0.180,0.020
3.125,-0.165,0.035
3.128,-0.155,0.055
3.131,-0.155,0.075
3.133,-0.155,0.060
3.136,-0.145,0.035
3.139,-0.165,0.025
3.142,-0.165,0.015
3.144,-0.170,0.025
3.147,-0.180,0.035
3.150,-0.175,0.045
3.153,-0.170,0.020
3.156,-0.165,0.020
3.158,-0.165,0.015
3.161,-0.150,0.020
3.164,-0.145,0.025
3.167,-0.140,0.025
3.169,-0.125,0.005
3.172,-0.135,-0.015
3.175,-0.130,-0.030
3.178,-0.145,-0.025
3.181,-0.150,-0.005
3.183,-0.145,0.015
3.186,-0.160,0.010
3.189,-0.155,-0.010
3.192,-0.140,-0.030
3.194,-0.130,-0.025
3.197,-0.110,-0.020
3.200,-0.105,-0.005
3.203,-0.105,-0.015
3.206,-0.100,-0.030
3.208,-0.090,-0.050
3.211,-0.095,-0.075
3.214,-0.100,-0.070
3.217,-0.110,-0.055
3.219,-0.110,-0.035
3.222,-0.110,-0.045
3.225,-0.090,-0.040
3.228,-0.075,-0.050
3.231,-0.070,-0.050
3.233,-0.075,-0.040
3.236,-0.070,-0.040
3.239,-0.070,-0.050
3.242,-0.065,-0.065
3.244,-0.070,-0.075
3.247,-0.070,-0.075
3.250,-0.065,-0.060
3.253,-0.070,-0.035
3.256,-0.065,-0.020
3.258,-0.065,-0.015
3.261,-0.060,-0.030
3.264,-0.045,-0.050
3.267,-0.055,-0.045
3.269,-0.060,-0.035
3.272,-0.065,-0.020
3.275,-0.065,-0.035
3.278,-0.070,-0.040
3.281,-0.055,-0.040
3.283,-0.030,-0.030
3.286,-0.015,0.020
3.289,-0.005,0.060
3.292,0.005,0.055
3.294,0.010,0.060
3.297,0.020,0.050
3.300,0.010,0.055
3.303,0.015,0.070
3.306,0.010,0.095
3.308,-0.010,0.105
3.311,-0.020,0.100
3.314,-0.035,0.090
3.317,-0.005,0.095
3.319,-0.005,0.100
3.322,0.000,0.130
3.325,0.005,0.155
3.328,0.010,0.140
3.331,0.010,0.120
3.333,0.000,0.110
3.336,0.000,0.110
3.339,-0.015,0.115
3.342,-0.025,0.120
3.344,-0.025,0.110
3.347,-0.030,0.105
3.350,-0.030,0.090
3.353,-0.030,0.100
3.356,-0.025,0.115
3.358,-0.025,0.145
3.361,-0.010,0.155
3.364,0.005,0.140
3.367,-0.005,0.120
3.369,0.000,0.105
3.372,-0.020,0.090
3.375,-0.030,0.105
3.378,-0.045,0.110
3.381,-0.045,0.100
3.383,-0.055,0.100
3.386,-0.040,0.105
3.389,-0.040,0.110
3.392,-0.025,0.140
3.394,-0.020,0.130
3.397,-0.010,0.135
3.400,0.000,0.110
3.403,0.010,0.095
3.406,-0.005,0.095
3.408,-0.015,0.105
3.411,-0.025,0.115
3.414,-0.020,0.105
3.417,-0.025,0.105
3.419,-0.030,0.080
3.422,-0.025,0.095
3.425,-0.020,0.120
3.428,-0.015,0.145
3.431,0.000,0.150
3.433,0.000,0.135
3.436,0.000,0.125
3.439,-0.005,0.115
3.442,0.000,0.110
3.444,-0.015,0.120
3.447,-0.015,0.130
3.450,-0.025,0.105
3.453,-0.020,0.100
3.456,-0.035,0.085
3.458,-0.030,0.105
3.461,-0.020,0.130
3.464,-0.015,0.135
3.467,-0.005,0.145
3.469,0.000,0.125
3.472,-0.010,0.105
3.475,-0.015,0.095
3.478,-0.020,0.100
3.481,-0.020,0.115
3.483,-0.020,0.120
3.486,-0.030,0.105
3.489,-0.030,0.105
3.492,-0.025,0.115
3.494,-0.020,0.135
3.497,-0.015,0.140
3.500,-0.020,0.145
3.503,-0.020,0.145
3.506,-0.015,0.115
3.508,-0.010,0.105
3.511,-0.020,0.125
3.514,-0.020,0.135
3.517,0.000,0.145
3.519,0.005,0.145
3.522,0.010,0.155
3.525,0.025,0.175
3.528,0.030,0.200
3.531,0.040,0.205
3.533,0.065,0.195
3.536,0.075,0.180
3.539,0.075,0.160
3.542,0.090,0.170
3.544,0.105,0.170
3.547,0.110,0.175
3.550,0.145,0.170
3.553,0.160,0.155
3.556,0.155,0.140
3.558,0.160,0.145
3.561,0.150,0.165
3.564,0.140,0.180
3.567,0.130,0.170
3.569,0.135,0.135
3.572,0.120,0.095
3.575,0.095,0.085
3.578,0.075,0.090
3.581,0.055,0.095
3.583,0.040,0.095
3.586,0.015,0.095
3.589,0.015,0.095
3.592,0.000,0.125
3.594,-0.015,0.145
3.597,-0.020,0.160
3.600,-0.045,0.145
3.603,-0.055,0.120
3.606,-0.075,0.100
3.608,-0.100,0.095
3.611,-0.115,0.105
3.614,-0.120,0.115
3.617,-0.115,0.110
3.619,-0.110,0.100
3.622,-0.090,0.095
3.625,-0.105,0.105
3.628,-0.095,0.120
3.631,-0.095,0.130
3.633,-0.105,0.130
3.636,-0.105,0.120
3.639,-0.110,0.095
3.642,-0.125,0.090
3.644,-0.125,0.095
3.647,-0.155,0.085
3.650,-0.160,0.080
3.653,-0.170,0.055
3.656,-0.155,0.045
3.658,-0.135,0.075
3.661,-0.080,0.105
3.664,0.015,0.110
3.667,0.155,0.090
3.669,0.345,0.065
3.672,0.585,0.030
3.675,0.850,0.050
3.678,1.105,0.120
3.681,1.355,0.220
3.683,1.550,0.325
3.686,1.620,0.460
3.689,1.550,0.575
3.692,1.330,0.660
3.694,1.005,0.655
3.697,0.640,0.550
3.700,0.305,0.375
3.703,0.030,0.200
3.706,-0.135,0.055
3.708,-0.215,-0.025
3.711,-0.215,-0.040
3.714,-0.195,-0.020
3.717,-0.160,0.020
3.719,-0.120,0.080
3.722,-0.105,0.130
3.725,-0.110,0.145
3.728,-0.135,0.150
3.731,-0.135,0.115
3.733,-0.165,0.110
3.736,-0.175,0.105
3.739,-0.185,0.100
3.742,-0.200,0.105
3.744,-0.210,0.090
3.747,-0.230,0.075
3.750,-0.225,0.065
3.753,-0.225,0.070
3.756,-0.215,0.090
3.758,-0.205,0.105
3.761,-0.195,0.105
3.764,-0.180,0.095
3.767,-0.180,0.085
3.769,-0.185,0.105
3.772,-0.190,0.110
3.775,-0.200,0.110
3.778,-0.200,0.100
3.781,-0.210,0.070
3.783,-0.210,0.075
3.786,-0.220,0.070
3.789,-0.210,0.100
3.792,-0.210,0.120
3.794,-0.185,0.115
3.797,-0.170,0.090
3.800,-0.170,0.075
3.803,-0.175,0.080
3.806,-0.190,0.085
3.808,-0.185,0.075
3.811,-0.200,0.060
3.814,-0.205,0.045
3.817,-0.200,0.055
3.819,-0.190,0.075
3.822,-0.200,0.075
3.825,-0.185,0.090
3.828,-0.175,0.070
3.831,-0.155,0.055
3.833,-0.165,0.045
3.836,-0.150,0.050
3.839,-0.150,0.055
3.842,-0.145,0.040
3.844,-0.160,0.030
3.847,-0.155,0.020
3.850,-0.175,0.025
3.853,-0.180,0.030
3.856,-0.165,0.030
3.858,-0.145,0.025
3.861,-0.145,0.025
3.864,-0.130,-0.005
3.867,-0.115,-0.010
3.869,-0.120,0.000
3.872,-0.110,0.000
3.875,-0.115,-0.005
3.878,-0.120,-0.025
3.881,-0.110,-0.040
3.883,-0.120,-0.035
3.886,-0.120,-0.015
3.889,-0.115,0.000
3.892,-0.115,0.010
3.894,-0.110,0.015
3.897,-0.105,0.000
3.900,-0.095,-0.005
3.903,-0.100,-0.005
3.906,-0.085,-0.020
3.908,-0.085,-0.025
3.911,-0.085,-0.050
3.914,-0.100,-0.055
3.917,-0.115,-0.050
3.919,-0.115,-0.015
3.922,-0.110,0.005
3.925,-0.105,0.010
3.928,-0.095,0.010
3.931,-0.080,0.005
3.933,-0.085,0.005
3.936,-0.080,0.015
3.939,-0.075,0.030
3.942,-0.070,0.025
3.944,-0.060,0.025
3.947,-0.060,0.030
3.950,-0.045,0.050
3.953,-0.040,0.085
3.956,-0.025,0.110
3.958,-0.020,0.125
3.961,-0.030,0.130
3.964,-0.025,0.120
3.967,-0.025,0.130
3.969,-0.025,0.130
3.972,-0.040,0.155
3.975,-0.045,0.140
3.978,-0.040,0.135
3.981,-0.045,0.135
3.983,-0.045,0.120
3.986,-0.050,0.150
3.989,-0.050,0.170
3.992,-0.055,0.175
3.994,-0.040,0.165
3.997,-0.040,0.165
4.000,-0.045,0.155
4.003,-0.050,0.165
4.006,-0.065,0.170
4.008,-0.085,0.185
4.011,-0.090,0.170
4.014,-0.090,0.150
4.017,-0.090,0.130
4.019,-0.085,0.135
4.022,-0.080,0.155
4.025,-0.075,0.165
4.028,-0.065,0.170
4.031,-0.050,0.150
4.033,-0.040,0.150
4.036,-0.045,0.150
4.039,-0.055,0.155
4.042,-0.060,0.175
4.044,-0.085,0.155
4.047,-0.080,0.145
4.050,-0.085,0.130
4.053,-0.080,0.140
4.056,-0.090,0.160
4.058,-0.065,0.160
4.061,-0.075,0.170
4.064,-0.045,0.155
4.067,-0.035,0.145
4.069,-0.050,0.150
4.072,-0.065,0.155
4.075,-0.070,0.165
4.078,-0.075,0.145
4.081,-0.090,0.140
4.083,-0.085,0.130
4.086,-0.095,0.145
4.089,-0.085,0.160
4.092,-0.070,0.190
4.094,-0.065,0.180
4.097,-0.045,0.160
4.100,-0.050,0.145
4.103,-0.045,0.160
4.106,-0.045,0.155
4.108,-0.065,0.145
4.111,-0.075,0.145
4.114,-0.070,0.150
4.117,-0.065,0.145
4.119,-0.075,0.170
4.122,-0.075,0.185
4.125,-0.080,0.180
4.128,-0.060,0.155
4.131,-0.060,0.155
4.133,-0.065,0.160
4.136,-0.060,0.170
4.139,-0.070,0.180
4.142,-0.065,0.170
4.144,-0.075,0.155
4.147,-0.080,0.150
4.150,-0.080,0.150
4.153,-0.085,0.170
4.156,-0.080,0.180
4.158,-0.070,0.175
4.161,-0.070,0.165
4.164,-0.060,0.170
4.167,-0.040,0.185
4.169,-0.025,0.200
4.172,-0.020,0.200
4.175,-0.020,0.205
4.178,0.000,0.210
4.181,0.000,0.200
4.183,0.010,0.220
4.186,0.020,0.235
4.189,0.035,0.250
4.192,0.045,0.240
4.194,0.060,0.235
4.197,0.080,0.215
4.200,0.105,0.210
4.203,0.115,0.205
4.206,0.105,0.195
4.208,0.100,0.170
4.211,0.090,0.160
4.214,0.075,0.160
4.217,0.055,0.170
4.219,0.055,0.185
4.222,0.050,0.165
4.225,0.050,0.155
4.228,0.045,0.155
4.231,0.035,0.145
4.233,0.005,0.160
4.236,-0.015,0.170
4.239,-0.040,0.155
4.242,-0.055,0.145
4.244,-0.070,0.140
4.247,-0.090,0.140
4.250,-0.100,0.150
4.253,-0.110,0.155
4.256,-0.115,0.150
4.258,-0.120,0.145
4.261,-0.130,0.130
4.264,-0.130,0.125
4.267,-0.130,0.145
4.269,-0.140,0.160
4.272,-0.145,0.160
4.275,-0.155,0.145
4.278,-0.150,0.135
4.281,-0.155,0.120
4.283,-0.160,0.135
4.286,-0.160,0.155
4.289,-0.165,0.180
4.292,-0.165,0.175
4.294,-0.160,0.150
4.297,-0.175,0.140
4.300,-0.180,0.135
4.303,-0.195,0.135
4.306,-0.210,0.130
4.308,-0.215,0.110
4.311,-0.200,0.105
4.314,-0.140,0.105
4.317,-0.055,0.110
4.319,0.070,0.110
4.322,0.250,0.100
4.325,0.475,0.075
4.328,0.715,0.080
4.331,0.965,0.095
4.333,1.190,0.190
4.336,1.415,0.310
4.339,1.525,0.445
4.342,1.530,0.570
4.344,1.390,0.675
4.347,1.140,0.715
4.350,0.825,0.680
4.353,0.490,0.580
4.356,0.210,0.430
4.358,-0.010,0.240
4.361,-0.150,0.085
4.364,-0.225,0.005
4.367,-0.245,-0.020
4.369,-0.215,0.010
4.372,-0.185,0.075
4.375,-0.155,0.115
4.378,-0.150,0.125
4.381,-0.160,0.140
4.383,-0.190,0.135
4.386,-0.200,0.150
4.389,-0.210,0.135
4.392,-0.205,0.135
4.394,-0.215,0.140
4.397,-0.205,0.145
4.400,-0.220,0.135
4.403,-0.225,0.140
4.406,-0.225,0.135
4.408,-0.225,0.105
4.411,-0.240,0.100
4.414,-0.250,0.120
4.417,-0.260,0.125
4.419,-0.240,0.125
4.422,-0.225,0.135
4.425,-0.220,0.110
4.428,-0.195,0.130
4.431,-0.195,0.115
4.433,-0.200,0.130
4.436,-0.210,0.130
4.439,-0.210,0.120
4.442,-0.220,0.100
4.444,-0.240,0.090
4.447,-0.250,0.085
4.450,-0.245,0.100
4.453,-0.230,0.120
4.456,-0.235,0.125
4.458,-0.235,0.120
4.461,-0.220,0.130
4.464,-0.200,0.130
4.467,-0.190,0.135
4.469,-0.190,0.135
4.472,-0.200,0.095
4.475,-0.195,0.085
4.478,-0.210,0.085
4.481,-0.215,0.085
4.483,-0.215,0.090
4.486,-0.220,0.080
4.489,-0.195,0.065
4.492,-0.185,0.060
4.494,-0.170,0.085
4.497,-0.155,0.080
4.500,-0.155,0.075
4.503,-0.145,0.060
4.506,-0.150,0.050
4.508,-0.150,0.045
4.511,-0.160,0.055
4.514,-0.165,0.050
4.517,-0.160,0.050
4.519,-0.160,0.035
4.522,-0.130,0.035
4.525,-0.125,0.055
4.528,-0.120,0.070
4.531,-0.110,0.055
4.533,-0.110,0.045
4.536,-0.100,0.025
4.539,-0.110,0.005
4.542,-0.125,-0.010
4.544,-0.125,0.005
4.547,-0.135,0.010
4.550,-0.120,-0.010
4.553,-0.110,0.000
4.556,-0.110,0.010
4.558,-0.110,0.040
4.561,-0.105,0.035
4.564,-0.105,0.045
4.567,-0.100,0.025
4.569,-0.105,0.005
4.572,-0.115,0.010
4.575,-0.115,0.020
4.578,-0.125,0.030
4.581,-0.110,0.020
4.583,-0.100,0.015
4.586,-0.090,0.025
4.589,-0.095,0.025
4.592,-0.070,0.055
4.594,-0.065,0.100
4.597,-0.045,0.095
4.600,-0.025,0.100
4.603,-0.025,0.095
4.606,-0.015,0.105
4.608,-0.025,0.125
4.611,-0.030,0.135
4.614,-0.045,0.135
4.617,-0.040,0.130
4.619,-0.040,0.145
4.622,-0.050,0.160
4.625,-0.040,0.185
4.628,-0.035,0.215
4.631,-0.020,0.205
4.633,-0.020,0.180
4.636,-0.030,0.170
4.639,-0.040,0.175
4.642,-0.070,0.175
4.644,-0.065,0.180
4.647,-0.075,0.170
4.650,-0.070,0.160
4.653,-0.070,0.160
4.656,-0.075,0.180
4.658,-0.080,0.200
4.661,-0.070,0.210
4.664,-0.055,0.200
4.667,-0.045,0.180
4.669,-0.040,0.180
4.672,-0.050,0.185
4.675,-0.050,0.185
4.678,-0.050,0.175
4.681,-0.050,0.165
4.683,-0.050,0.170
4.686,-0.055,0.170
4.689,-0.055,0.185
4.692,-0.050,0.200
4.694,-0.040,0.200
4.697,-0.035,0.180
4.700,-0.035,0.165
4.703,-0.035,0.160
4.706,-0.040,0.160
4.708,-0.055,0.160
4.711,-0.045,0.160
4.714,-0.040,0.155
4.717,-0.040,0.155
4.719,-0.045,0.165
4.722,-0.045,0.185
4.725,-0.035,0.190
4.728,-0.025,0.180
4.731,-0.020,0.175
4.733,-0.025,0.150
4.736,-0.030,0.180
4.739,-0.035,0.185
4.742,-0.035,0.175
4.744,-0.040,0.155
4.747,-0.045,0.155
4.750,-0.035,0.150
4.753,-0.040,0.170
4.756,-0.030,0.190
4.758,-0.020,0.195
4.761,-0.025,0.195
4.764,-0.025,0.175
4.767,-0.020,0.165
4.769,-0.025,0.175
4.772,-0.025,0.165
4.775,-0.030,0.145
4.778,-0.035,0.130
4.781,-0.035,0.125
4.783,-0.040,0.155
4.786,-0.045,0.165
4.789,-0.050,0.185
4.792,-0.050,0.200
4.794,-0.050,0.195
4.797,-0.040,0.180
4.800,-0.045,0.185
4.803,-0.040,0.190
4.806,-0.050,0.180
4.808,-0.035,0.190
4.811,-0.040,0.165
4.814,-0.030,0.165
4.817,-0.015,0.170
4.819,-0.005,0.195
4.822,0.010,0.205
4.825,0.020,0.225
4.828,0.025,0.230
4.831,0.045,0.225
4.833,0.040,0.230
4.836,0.045,0.235
4.839,0.055,0.245
4.842,0.075,0.225
4.844,0.070,0.200
4.847,0.110,0.190
4.850,0.120,0.185
4.853,0.130,0.200
4.856,0.130,0.205
4.858,0.135,0.200
4.861,0.140,0.200
4.864,0.130,0.190
4.867,0.115,0.205
4.869,0.115,0.190
4.872,0.105,0.175
4.875,0.090,0.160
4.878,0.065,0.130
4.881,0.035,0.115
4.883,0.020,0.145
4.886,-0.005,0.150
4.889,-0.005,0.160
4.892,-0.020,0.160
4.894,-0.020,0.155
4.897,-0.045,0.150
4.900,-0.055,0.160
4.903,-0.075,0.165
4.906,-0.090,0.145
4.908,-0.095,0.130
4.911,-0.110,0.120
4.914,-0.120,0.140
4.917,-0.130,0.140
4.919,-0.110,0.155
4.922,-0.100,0.155
4.925,-0.095,0.135
4.928,-0.095,0.130
4.931,-0.095,0.135
4.933,-0.100,0.150
4.936,-0.110,0.160
4.939,-0.135,0.125
4.942,-0.130,0.105
4.944,-0.140,0.090
4.947,-0.160,0.095
4.950,-0.175,0.105
4.953,-0.160,0.125
4.956,-0.125,0.120
4.958,-0.060,0.120
4.961,0.045,0.120
4.964,0.160,0.115
4.967,0.325,0.110
4.969,0.520,0.100
4.972,0.760,0.095
4.975,1.015,0.110
4.978,1.255,0.150
4.981,1.470,0.255
4.983,1.610,0.365
4.986,1.645,0.480
4.989,1.540,0.585
4.992,1.340,0.620
4.994,1.035,0.605
4.997,0.710,0.515
5.000,0.385,0.385
5.003,0.125,0.220
5.006,-0.065,0.080
5.008,-0.175,-0.035
5.011,-0.215,-0.075
5.014,-0.220,-0.050
5.017,-0.175,0.030
5.019,-0.135,0.085
5.022,-0.115,0.125
5.025,-0.110,0.130
5.028,-0.110,0.135
5.031,-0.140,0.115
5.033,-0.165,0.125
5.036,-0.175,0.120
5.039,-0.190,0.100
5.042,-0.195,0.080
5.044,-0.205,0.065
5.047,-0.215,0.065
5.050,-0.225,0.080
5.053,-0.230,0.100
5.056,-0.215,0.115
5.058,-0.220,0.095
5.061,-0.210,0.100
5.064,-0.195,0.080
5.067,-0.200,0.080
5.069,-0.200,0.110
5.072,-0.195,0.100
5.075,-0.195,0.095
5.078,-0.205,0.075
5.081,-0.205,0.060
5.083,-0.215,0.055
5.086,-0.220,0.080
5.089,-0.205,0.095
5.092,-0.205,0.100
5.094,-0.215,0.095
5.097,-0.195,0.075
5.100,-0.205,0.060
5.103,-0.195,0.060
5.106,-0.200,0.070
5.108,-0.195,0.065
5.111,-0.200,0.035
5.114,-0.205,0.030
5.117,-0.200,0.050
5.119,-0.210,0.055
5.122,-0.205,0.070
5.125,-0.195,0.070
5.128,-0.185,0.065
5.131,-0.185,0.055
5.133,-0.195,0.040
5.136,-0.185,0.055
5.139,-0.185,0.055
5.142,-0.185,0.030
5.144,-0.190,0.000
5.147,-0.190,0.000
5.150,-0.200,0.005
5.153,-0.200,0.015
5.156,-0.170,0.040
5.158,-0.155,0.040
5.161,-0.160,0.025
5.164,-0.145,0.000
5.167,-0.140,0.000
5.169,-0.140,0.010
5.172,-0.135,0.000
5.175,-0.155,-0.015
5.178,-0.165,-0.035
5.181,-0.150,-0.050
5.183,-0.150,-0.045
5.186,-0.150,-0.020
5.189,-0.140,-0.010
5.192,-0.130,-0.010
5.194,-0.120,-0.015
5.197,-0.110,-0.040
5.200,-0.110,-0.055
5.203,-0.110,-0.055
5.206,-0.120,-0.045
5.208,-0.125,-0.045
5.211,-0.125,-0.045
5.214,-0.125,-0.065
5.217,-0.125,-0.080
5.219,-0.120,-0.065
5.222,-0.115,-0.040
5.225,-0.115,-0.040
5.228,-0.105,-0.040
5.231,-0.090,-0.055
5.233,-0.095,-0.060
5.236,-0.100,-0.065
5.239,-0.120,-0.040
5.242,-0.120,-0.040
5.244,-0.130,-0.045
5.247,-0.120,-0.055
5.250,-0.120,-0.055
5.253,-0.100,-0.020
5.256,-0.095,0.010
5.258,-0.070,0.035
5.261,-0.055,0.050
5.264,-0.040,0.040
5.267,-0.050,0.045
5.269,-0.045,0.070
5.272,-0.050,0.070
5.275,-0.065,0.090
5.278,-0.070,0.080
5.281,-0.070,0.065
5.283,-0.080,0.060
5.286,-0.095,0.075
5.289,-0.090,0.085
5.292,-0.095,0.110
5.294,-0.080,0.110
5.297,-0.060,0.110
5.300,-0.060,0.090
5.303,-0.065,0.095
5.306,-0.075,0.105
5.308,-0.090,0.115
5.311,-0.095,0.110
5.314,-0.110,0.095
5.317,-0.110,0.075
5.319,-0.120,0.085
5.322,-0.120,0.110
5.325,-0.115,0.125
5.328,-0.115,0.150
5.331,-0.105,0.130
5.333,-0.105,0.110
5.336,-0.105,0.090
5.339,-0.105,0.095
5.342,-0.105,0.095
5.344,-0.120,0.110
5.347,-0.130,0.095
5.350,-0.120,0.080
5.353,-0.115,0.075
5.356,-0.120,0.075
5.358,-0.115,0.100
5.361,-0.125,0.115
5.364,-0.120,0.120
5.367,-0.100,0.095
5.369,-0.095,0.095
5.372,-0.095,0.090
5.375,-0.105,0.100
5.378,-0.095,0.110
5.381,-0.110,0.100
5.383,-0.120,0.085
5.386,-0.115,0.080
5.389,-0.115,0.060
5.392,-0.100,0.090
5.394,-0.110,0.095
5.397,-0.105,0.110
5.400,-0.100,0.095
5.403,-0.090,0.090
5.406,-0.095,0.080
5.408,-0.100,0.095
5.411,-0.115,0.100
5.414,-0.110,0.090
5.417,-0.115,0.080
5.419,-0.125,0.075
5.422,-0.125,0.060
5.425,-0.115,0.080
5.428,-0.125,0.110
5.431,-0.105,0.115
5.433,-0.110,0.115
5.436,-0.105,0.095
5.439,-0.110,0.075
5.442,-0.105,0.075
5.444,-0.110,0.085
5.447,-0.115,0.100
5.450,-0.105,0.095
5.453,-0.110,0.085
5.456,-0.105,0.085
5.458,-0.095,0.100
5.461,-0.105,0.115
5.464,-0.105,0.130
5.467,-0.115,0.110
5.469,-0.105,0.085
5.472,-0.120,0.075
5.475,-0.140,0.070
5.478,-0.135,0.090
5.481,-0.155,0.100
5.483,-0.135,0.105
5.486,-0.125,0.110
5.489,-0.085,0.110
5.492,-0.085,0.125
5.494,-0.065,0.155
5.497,-0.070,0.165
5.500,-0.070,0.160
5.503,-0.060,0.150
5.506,-0.060,0.120
5.508,-0.070,0.130
5.511,-0.060,0.140
5.514,-0.050,0.150
5.517,-0.045,0.165
5.519,-0.020,0.160
5.522,0.010,0.130
5.525,0.040,0.105
5.528,0.055,0.120
5.531,0.060,0.135
5.533,0.055,0.120
5.536,0.045,0.115
5.539,0.020,0.095
5.542,0.010,0.080
5.544,0.005,0.065
5.547,-0.010,0.095
5.550,-0.020,0.085
5.553,-0.025,0.085
5.556,-0.040,0.080
5.558,-0.050,0.055
5.561,-0.070,0.070
5.564,-0.075,0.070
5.567,-0.100,0.090
5.569,-0.105,0.105
5.572,-0.125,0.090
5.575,-0.140,0.060
5.578,-0.165,0.055
5.581,-0.195,0.050
5.583,-0.205,0.060
5.586,-0.230,0.075
5.589,-0.220,0.075
5.592,-0.225,0.050
5.594,-0.220,0.050
5.597,-0.210,0.060
5.600,-0.205,0.080
5.603,-0.215,0.085
5.606,-0.215,0.075
5.608,-0.215,0.055
5.611,-0.225,0.025
5.614,-0.240,0.015
5.617,-0.255,0.040
5.619,-0.255,0.045
5.622,-0.245,0.075
5.625,-0.255,0.060
5.628,-0.230,0.060
5.631,-0.240,0.045
5.633,-0.255,0.030
5.636,-0.265,0.030
5.639,-0.270,0.045
5.642,-0.275,0.065
5.644,-0.225,0.060
5.647,-0.160,0.050
5.650,-0.070,0.035
5.653,0.045,0.025
5.656,0.215,0.005
5.658,0.420,-0.005
5.661,0.665,0.010
5.664,0.940,0.030
5.667,1.200,0.075
5.669,1.415,0.170
5.672,1.550,0.270
5.675,1.560,0.385
5.678,1.410,0.470
5.681,1.160,0.500
5.683,0.830,0.460
5.686,0.480,0.345
5.689,0.165,0.230
5.692,-0.060,0.085
5.694,-0.190,-0.020
5.697,-0.250,-0.090
5.700,-0.265,-0.090
5.703,-0.245,-0.070
5.706,-0.225,0.005
5.708,-0.220,0.045
5.711,-0.225,0.065
5.714,-0.240,0.055
5.717,-0.255,0.050
5.719,-0.285,0.030
5.722,-0.305,0.040
5.725,-0.320,0.055
5.728,-0.325,0.060
5.731,-0.315,0.050
5.733,-0.310,0.040
5.736,-0.310,0.030
5.739,-0.325,0.050
5.742,-0.335,0.070
5.744,-0.340,0.055
5.747,-0.350,0.030
5.750,-0.345,0.030
5.753,-0.350,0.010
5.756,-0.335,0.040
5.758,-0.330,0.050
5.761,-0.320,0.060
5.764,-0.310,0.060
5.767,-0.300,0.035
5.769,-0.310,0.035
5.772,-0.315,0.030
5.775,-0.330,0.020
5.778,-0.340,0.025
5.781,-0.330,0.015
5.783,-0.340,0.000
5.786,-0.340,0.005
5.789,-0.325,0.020
5.792,-0.320,0.040
5.794,-0.305,0.055
5.797,-0.300,0.060
5.800,-0.305,0.030
5.803,-0.305,0.020
5.806,-0.305,0.000
5.808,-0.315,0.015
5.811,-0.320,0.010
5.814,-0.330,0.010
5.817,-0.335,-0.015
5.819,-0.320,-0.020
5.822,-0.315,-0.015
5.825,-0.305,-0.005
5.828,-0.290,0.025
5.831,-0.275,0.025
5.833,-0.270,0.000
5.836,-0.265,-0.020
5.839,-0.265,-0.040
5.842,-0.275,-0.040
5.844,-0.285,-0.020
5.847,-0.300,-0.020
5.850,-0.305,-0.025
5.853,-0.290,-0.045
5.856,-0.285,-0.045
5.858,-0.265,-0.045
5.861,-0.265,-0.030
5.864,-0.250,-0.030
5.867,-0.250,-0.035
5.869,-0.250,-0.055
5.872,-0.235,-0.075
5.875,-0.250,-0.100
5.878,-0.235,-0.110
5.881,-0.250,-0.090
5.883,-0.240,-0.075
5.886,-0.245,-0.075
5.889,-0.245,-0.085
5.892,-0.220,-0.100
5.894,-0.210,-0.085
5.897,-0.210,-0.075
5.900,-0.205,-0.070
5.903,-0.210,-0.075
5.906,-0.215,-0.095
5.908,-0.215,-0.110
5.911,-0.215,-0.120
5.914,-0.210,-0.105
5.917,-0.210,-0.095
5.919,-0.225,-0.080
5.922,-0.215,-0.080
5.925,-0.220,-0.085
5.928,-0.215,-0.080
5.931,-0.200,-0.075
5.933,-0.195,-0.045
5.936,-0.190,-0.045
5.939,-0.190,-0.050
5.942,-0.195,-0.060
5.944,-0.205,-0.065
5.947,-0.175,-0.080
5.950,-0.185,-0.055
5.953,-0.175,-0.020
5.956,-0.165,-0.005
5.958,-0.165,0.000
5.961,-0.170,0.000
5.964,-0.150,0.015
5.967,-0.160,0.015
5.969,-0.150,0.055
5.972,-0.155,0.065
5.975,-0.165,0.060
5.978,-0.165,0.045
5.981,-0.170,0.035
5.983,-0.185,0.045
5.986,-0.180,0.070
5.989,-0.160,0.085
5.992,-0.150,0.100
5.994,-0.150,0.100
5.997,-0.155,0.085
6.000,-0.155,0.075
6.003,-0.170,0.070
6.006,-0.165,0.060
6.008,-0.175,0.080
6.011,-0.185,0.060
6.014,-0.190,0.050
6.017,-0.205,0.045
6.019,-0.195,0.035
6.022,-0.200,0.055
6.025,-0.190,0.075
6.028,-0.180,0.085
6.031,-0.160,0.080
6.033,-0.165,0.070
6.036,-0.165,0.055
6.039,-0.180,0.055
6.042,-0.190,0.060
6.044,-0.190,0.075
6.047,-0.190,0.075
6.050,-0.180,0.075
6.053,-0.185,0.060
6.056,-0.205,0.055
6.058,-0.185,0.075
6.061,-0.190,0.080
6.064,-0.175,0.090
6.067,-0.185,0.060
6.069,-0.180,0.060
6.072,-0.180,0.050
6.075,-0.180,0.055
6.078,-0.175,0.055
6.081,-0.190,0.065
6.083,-0.190,0.055
6.086,-0.200,0.045
6.089,-0.195,0.030
6.092,-0.185,0.045
6.094,-0.170,0.070
6.097,-0.175,0.105
6.100,-0.170,0.100
6.103,-0.165,0.075
6.106,-0.165,0.055
6.108,-0.175,0.050
6.111,-0.170,0.040
6.114,-0.180,0.050
6.117,-0.190,0.060
6.119,-0.180,0.055
6.122,-0.175,0.055
6.125,-0.190,0.055
6.128,-0.180,0.065
6.131,-0.180,0.075
6.133,-0.175,0.075
6.136,-0.175,0.060
6.139,-0.175,0.050
6.142,-0.180,0.035
6.144,-0.180,0.045
6.147,-0.175,0.065
6.150,-0.170,0.065
6.153,-0.175,0.055
6.156,-0.185,0.045
6.158,-0.185,0.050
6.161,-0.205,0.065
6.164,-0.185,0.085
6.167,-0.205,0.085
6.169,-0.200,0.065
6.172,-0.190,0.050
6.175,-0.180,0.035
6.178,-0.190,0.045
6.181,-0.180,0.065
6.183,-0.165,0.070
6.186,-0.160,0.075
6.189,-0.135,0.075
6.192,-0.130,0.090
6.194,-0.110,0.095
6.197,-0.105,0.135
6.200,-0.105,0.135
6.203,-0.085,0.125
6.206,-0.090,0.110
6.208,-0.090,0.090
6.211,-0.085,0.095
6.214,-0.080,0.105
6.217,-0.055,0.105
6.219,-0.025,0.095
6.222,-0.005,0.075
6.225,0.010,0.080
6.228,0.000,0.075
6.231,-0.010,0.085
6.233,-0.030,0.060
6.236,-0.040,0.055
6.239,-0.035,0.035
6.242,-0.045,0.025
6.244,-0.055,0.010
6.247,-0.075,0.020
6.250,-0.085,0.020
6.253,-0.105,0.015
6.256,-0.110,0.005
6.258,-0.130,0.020
6.261,-0.155,0.040
6.264,-0.165,0.055
6.267,-0.180,0.055
6.269,-0.195,0.040
6.272,-0.220,0.025
6.275,-0.230,0.025
6.278,-0.255,0.010
6.281,-0.270,0.025
6.283,-0.280,0.035
6.286,-0.275,0.025
6.289,-0.270,0.010
6.292,-0.260,0.020
6.294,-0.250,0.020
6.297,-0.250,0.040
6.300,-0.260,0.035
6.303,-0.260,0.035
6.306,-0.265,0.015
6.308,-0.285,0.015
6.311,-0.290,0.005
6.314,-0.290,0.010
6.317,-0.300,0.035
6.319,-0.305,-0.010
6.322,-0.315,-0.015
6.325,-0.330,-0.040
6.328,-0.305,-0.045
6.331,-0.285,-0.010
6.333,-0.235,0.020
6.336,-0.150,0.015
6.339,-0.040,-0.005
6.342,0.115,-0.050
6.344,0.305,-0.070
6.347,0.530,-0.075
6.350,0.790,-0.030
6.353,1.045,0.045
6.356,1.275,0.135
6.358,1.430,0.255
6.361,1.460,0.385
6.364,1.340,0.490
6.367,1.080,0.535
6.369,0.760,0.495
6.372,0.415,0.375
6.375,0.120,0.205
6.378,-0.120,0.055
6.381,-0.270,-0.070
6.383,-0.335,-0.125
6.386,-0.345,-0.135
6.389,-0.320,-0.115
6.392,-0.280,-0.055
6.394,-0.255,0.000
6.397,-0.250,0.055
6.400,-0.265,0.065
6.403,-0.275,0.045
6.406,-0.305,0.015
6.408,-0.320,0.000
6.411,-0.355,-0.015
6.414,-0.355,-0.010
6.417,-0.370,-0.030
6.419,-0.360,-0.030
6.422,-0.345,-0.025
6.425,-0.345,-0.025
6.428,-0.360,0.000
6.431,-0.360,0.015
6.433,-0.350,0.015
6.436,-0.345,-0.010
6.439,-0.360,-0.025
6.442,-0.355,-0.050
6.444,-0.365,-0.025
6.447,-0.370,-0.015
6.450,-0.370,0.005
6.453,-0.370,-0.005
6.456,-0.365,-0.020
6.458,-0.360,-0.015
6.461,-0.355,-0.010
6.464,-0.350,0.010
6.467,-0.345,0.005
6.469,-0.340,-0.005
6.472,-0.330,-0.040
6.475,-0.335,-0.040
6.478,-0.340,-0.040
6.481,-0.340,-0.025
6.483,-0.355,-0.040
6.486,-0.345,-0.045
6.489,-0.335,-0.050
6.492,-0.335,-0.035
6.494,-0.350,-0.025
6.497,-0.330,-0.010
6.500,-0.330,-0.020
6.503,-0.330,-0.030
6.506,-0.320,-0.045
6.508,-0.320,-0.055
6.511,-0.335,-0.065
6.514,-0.335,-0.055
6.517,-0.325,-0.060
6.519,-0.320,-0.080
6.522,-0.315,-0.080
6.525,-0.310,-0.085
6.528,-0.300,-0.075
6.531,-0.290,-0.065
6.533,-0.295,-0.080
6.536,-0.295,-0.095
6.539,-0.290,-0.120
6.542,-0.285,-0.105
6.544,-0.285,-0.110
6.547,-0.285,-0.105
6.550,-0.290,-0.105
6.553,-0.285,-0.120
6.556,-0.265,-0.115
6.558,-0.255,-0.115
6.561,-0.245,-0.085
6.564,-0.235,-0.090
6.567,-0.235,-0.105
6.569,-0.235,-0.125
6.572,-0.240,-0.140
6.575,-0.245,-0.140
6.578,-0.240,-0.120
6.581,-0.240,-0.120
6.583,-0.235,-0.130
6.586,-0.230,-0.140
6.589,-0.225,-0.140
6.592,-0.235,-0.125
6.594,-0.220,-0.105
6.597,-0.225,-0.095
6.600,-0.230,-0.105
6.603,-0.230,-0.115
6.606,-0.220,-0.130
6.608,-0.245,-0.115
6.611,-0.235,-0.120
6.614,-0.240,-0.105
6.617,-0.225,-0.105
6.619,-0.210,-0.115
6.622,-0.200,-0.095
6.625,-0.180,-0.065
6.628,-0.170,-0.030
6.631,-0.155,0.000
6.633,-0.140,0.000
6.636,-0.135,-0.005
6.639,-0.150,-0.025
6.642,-0.155,-0.025
6.644,-0.165,0.000
6.647,-0.175,0.005
6.650,-0.180,0.005
6.653,-0.170,0.010
6.656,-0.170,0.005
6.658,-0.170,0.030
6.661,-0.160,0.035
6.664,-0.155,0.040
6.667,-0.160,0.040
6.669,-0.160,0.030
6.672,-0.165,0.020
6.675,-0.180,0.020
6.678,-0.195,0.010
6.681,-0.200,0.035
6.683,-0.210,0.050
6.686,-0.205,0.025
6.689,-0.210,0.030
6.692,-0.205,0.015
6.694,-0.200,0.030
6.697,-0.185,0.035
6.700,-0.185,0.055
6.703,-0.175,0.035
6.706,-0.180,0.020
6.708,-0.190,0.000
6.711,-0.200,-0.010
6.714,-0.205,0.020
6.717,-0.230,0.020
6.719,-0.210,0.010
6.722,-0.210,0.010
6.725,-0.200,0.015
6.728,-0.200,0.020
6.731,-0.185,0.040
6.733,-0.180,0.040
6.736,-0.190,0.030
6.739,-0.170,0.020
6.742,-0.180,0.005
6.744,-0.185,0.000
6.747,-0.200,0.015
6.750,-0.205,0.045
6.753,-0.205,0.040
6.756,-0.195,0.030
6.758,-0.195,0.020
6.761,-0.190,0.020
6.764,-0.185,0.045
6.767,-0.185,0.055
6.769,-0.175,0.060
6.772,-0.165,0.040
6.775,-0.170,0.015
6.778,-0.170,0.010
6.781,-0.190,0.020
6.783,-0.195,0.035
6.786,-0.210,0.030
6.789,-0.200,0.035
6.792,-0.190,0.020
6.794,-0.190,0.035
6.797,-0.190,0.065
6.800,-0.180,0.065
6.803,-0.180,0.065
6.806,-0.190,0.050
6.808,-0.195,0.035
6.811,-0.190,0.020
6.814,-0.200,0.025
6.817,-0.205,0.030
6.819,-0.200,0.040
6.822,-0.200,0.045
6.825,-0.190,0.030
6.828,-0.180,0.025
6.831,-0.165,0.035
6.833,-0.185,0.050
6.836,-0.195,0.045
6.839,-0.185,0.035
6.842,-0.180,0.015
6.844,-0.175,0.010
6.847,-0.170,0.025
6.850,-0.165,0.055
6.853,-0.170,0.085
6.856,-0.165,0.095
6.858,-0.145,0.100
6.861,-0.120,0.090
6.864,-0.110,0.110
6.867,-0.110,0.110
6.869,-0.120,0.120
6.872,-0.110,0.100
6.875,-0.110,0.080
6.878,-0.095,0.055
6.881,-0.070,0.045
6.883,-0.045,0.050
6.886,-0.030,0.060
6.889,-0.015,0.060
6.892,-0.005,0.055
6.894,0.000,0.045
6.897,-0.010,0.045
6.900,-0.010,0.050
6.903,-0.010,0.055
6.906,-0.030,0.050
6.908,-0.040,0.020
6.911,-0.055,-0.005
6.914,-0.080,-0.015
6.917,-0.110,0.010
6.919,-0.125,0.020
6.922,-0.150,0.025
6.925,-0.160,0.025
6.928,-0.160,0.020
6.931,-0.160,0.025
6.933,-0.185,0.025
6.936,-0.190,0.035
6.939,-0.215,0.015
6.942,-0.235,-0.005
6.944,-0.225,-0.020
6.947,-0.240,-0.020
6.950,-0.265,-0.010
6.953,-0.265,0.015
6.956,-0.260,0.015
6.958,-0.260,0.010
6.961,-0.250,-0.005
6.964,-0.245,-0.010
6.967,-0.245,0.010
6.969,-0.240,0.025
6.972,-0.245,0.020
6.975,-0.255,-0.020
6.978,-0.260,-0.030
6.981,-0.270,-0.025
6.983,-0.285,-0.025
6.986,-0.300,-0.030
6.989,-0.310,-0.020
6.992,-0.305,-0.025
6.994,-0.260,-0.015
6.997,-0.185,-0.010
7.000,-0.090,-0.005
7.003,0.065,-0.030
7.006,0.270,-0.055
7.008,0.480,-0.090
7.011,0.725,-0.065
7.014,0.975,-0.005
7.017,1.210,0.105
7.019,1.395,0.250
7.022,1.450,0.395
7.025,1.395,0.500
7.028,1.195,0.585
7.031,0.910,0.580
7.033,0.555,0.495
7.036,0.250,0.335
7.039,-0.020,0.150
7.042,-0.210,-0.035
7.044,-0.320,-0.145
7.047,-0.370,-0.160
7.050,-0.345,-0.145
7.053,-0.310,-0.085
7.056,-0.265,-0.045
7.058,-0.240,-0.015
7.061,-0.240,0.010
7.064,-0.240,0.025
7.067,-0.275,0.030
7.069,-0.300,0.010
7.072,-0.320,-0.020
7.075,-0.320,-0.035
7.078,-0.320,-0.045
7.081,-0.320,-0.040
7.083,-0.315,-0.020
7.086,-0.315,-0.010
7.089,-0.315,-0.010
7.092,-0.325,-0.015
7.094,-0.335,-0.010
7.097,-0.325,0.000
7.100,-0.325,0.000
7.103,-0.325,-0.010
7.106,-0.320,-0.025
7.108,-0.310,-0.040
7.111,-0.315,-0.035
7.114,-0.315,-0.015
7.117,-0.310,-0.020
7.119,-0.320,-0.035
7.122,-0.320,-0.045
7.125,-0.310,-0.035
7.128,-0.315,-0.015
7.131,-0.305,-0.010
7.133,-0.305,-0.015
7.136,-0.295,-0.015
7.139,-0.305,-0.030
7.142,-0.295,-0.035
7.144,-0.300,-0.040
7.147,-0.295,-0.045
7.150,-0.295,-0.050
7.153,-0.290,-0.065
7.156,-0.295,-0.055
7.158,-0.285,-0.040
7.161,-0.290,-0.035
7.164,-0.290,-0.035
7.167,-0.270,-0.055
7.169,-0.270,-0.065
7.172,-0.260,-0.070
7.175,-0.260,-0.080
7.178,-0.250,-0.080
7.181,-0.250,-0.105
7.183,-0.255,-0.120
7.186,-0.265,-0.105
7.189,-0.250,-0.085
7.192,-0.250,-0.075
7.194,-0.240,-0.065
7.197,-0.235,-0.060
7.200,-0.220,-0.095
7.203,-0.230,-0.095
7.206,-0.215,-0.090
7.208,-0.215,-0.100
7.211,-0.215,-0.110
7.214,-0.215,-0.140
7.217,-0.210,-0.160
7.219,-0.205,-0.155
7.222,-0.200,-0.140
7.225,-0.200,-0.120
7.228,-0.205,-0.130
7.231,-0.190,-0.125
7.233,-0.190,-0.130
7.236,-0.185,-0.135
7.239,-0.185,-0.130
7.242,-0.190,-0.120
7.244,-0.190,-0.145
7.247,-0.190,-0.145
7.250,-0.195,-0.130
7.253,-0.195,-0.120
7.256,-0.185,-0.105
7.258,-0.185,-0.105
7.261,-0.180,-0.110
7.264,-0.165,-0.115
7.267,-0.155,-0.105
7.269,-0.150,-0.075
7.272,-0.140,-0.080
7.275,-0.140,-0.060
7.278,-0.130,-0.070
7.281,-0.120,-0.065
7.283,-0.115,-0.050
7.286,-0.110,-0.030
7.289,-0.095,-0.005
7.292,-0.090,-0.005
7.294,-0.080,0.015
7.297,-0.075,0.010
7.300,-0.080,0.020
7.303,-0.085,0.055
7.306,-0.095,0.060
7.308,-0.105,0.035
7.311,-0.110,0.030
7.314,-0.120,0.020
7.317,-0.125,0.025
7.319,-0.120,0.045
7.322,-0.115,0.045
7.325,-0.120,0.030
7.328,-0.110,0.025
7.331,-0.090,0.030
7.333,-0.100,0.050
7.336,-0.110,0.050
7.339,-0.115,0.060
7.342,-0.120,0.045
7.344,-0.130,0.025
7.347,-0.135,0.030
7.350,-0.145,0.040
7.353,-0.140,0.030
7.356,-0.130,0.035
7.358,-0.120,0.035
7.361,-0.100,0.045
7.364,-0.100,0.055
7.367,-0.100,0.050
7.369,-0.105,0.050
7.372,-0.100,0.030
7.375,-0.105,0.030
7.378,-0.110,0.020
7.381,-0.120,0.030
7.383,-0.125,0.035
7.386,-0.130,0.020
7.389,-0.125,0.020
7.392,-0.120,0.030
7.394,-0.100,0.050
7.397,-0.085,0.065
7.400,-0.085,0.050
7.403,-0.085,0.035
7.406,-0.070,0.020
7.408,-0.110,0.020
7.411,-0.105,0.035
7.414,-0.115,0.040
7.417,-0.115,0.030
7.419,-0.105,0.025
7.422,-0.105,0.025
7.425,-0.090,0.030
7.428,-0.080,0.050
7.431,-0.075,0.050
7.433,-0.065,0.055
7.436,-0.070,0.040
7.439,-0.070,0.020
7.442,-0.080,0.030
7.444,-0.095,0.035
7.447,-0.105,0.030
7.450,-0.100,0.025
7.453,-0.125,0.005
7.456,-0.120,0.015
7.458,-0.120,0.030
7.461,-0.110,0.065
7.464,-0.085,0.055
7.467,-0.085,0.055
7.469,-0.100,0.045
7.472,-0.100,0.040
7.475,-0.100,0.055
7.478,-0.110,0.045
7.481,-0.110,0.045
7.483,-0.095,0.035
7.486,-0.090,0.020
7.489,-0.080,0.040
7.492,-0.050,0.070
7.494,-0.050,0.110
7.497,-0.025,0.125
7.500,-0.025,0.120
7.503,-0.015,0.105
7.506,-0.015,0.085
7.508,-0.010,0.075
7.511,-0.020,0.100
7.514,-0.010,0.095
7.517,-0.005,0.075
7.519,0.030,0.055
7.522,0.045,0.025
7.525,0.045,0.050
7.528,0.050,0.070
7.531,0.045,0.085
7.533,0.050,0.090
7.536,0.050,0.070
7.539,0.065,0.035
7.542,0.060,0.030
7.544,0.050,0.030
7.547,0.040,0.040
7.550,0.015,0.030
7.553,0.000,0.010
7.556,-0.030,0.010
7.558,-0.045,0.015
7.561,-0.065,0.035
7.564,-0.090,0.060
7.567,-0.100,0.055
7.569,-0.125,0.030
7.572,-0.135,0.000
7.575,-0.165,-0.015
7.578,-0.160,0.000
7.581,-0.180,0.000
7.583,-0.185,0.005
7.586,-0.190,0.000
7.589,-0.175,0.005
7.592,-0.170,-0.005
7.594,-0.175,0.005
7.597,-0.185,0.030
7.600,-0.180,0.035
7.603,-0.180,0.040
7.606,-0.170,0.005
7.608,-0.185,-0.010
7.611,-0.190,-0.015
7.614,-0.205,-0.015
7.617,-0.205,-0.005
7.619,-0.210,0.005
7.622,-0.195,0.005
7.625,-0.195,-0.010
7.628,-0.195,-0.030
7.631,-0.195,-0.010
7.633,-0.195,0.010
7.636,-0.155,0.030
7.639,-0.085,0.030
7.642,0.020,0.000
7.644,0.155,-0.030
7.647,0.330,-0.040
7.650,0.535,-0.050
7.653,0.770,-0.020
7.656,1.040,0.035
7.658,1.285,0.095
7.661,1.480,0.200
7.664,1.585,0.305
7.667,1.545,0.415
7.669,1.395,0.485
7.672,1.135,0.515
7.675,0.820,0.445
7.678,0.510,0.315
7.681,0.215,0.175
7.683,-0.020,0.050
7.686,-0.160,-0.060
7.689,-0.250,-0.120
7.692,-0.255,-0.135
7.694,-0.255,-0.115
7.697,-0.210,-0.075
7.700,-0.165,-0.005
7.703,-0.165,0.040
7.706,-0.180,0.055
7.708,-0.210,0.020
7.711,-0.240,-0.020
7.714,-0.290,-0.035
7.717,-0.310,-0.020
7.719,-0.325,-0.005
7.722,-0.310,0.005
7.725,-0.315,0.010
7.728,-0.295,0.010
7.731,-0.275,0.000
7.733,-0.270,-0.010
7.736,-0.270,-0.010
7.739,-0.280,-0.010
7.742,-0.290,-0.020
7.744,-0.305,-0.035
7.747,-0.305,-0.045
7.750,-0.310,-0.030
7.753,-0.310,-0.015
7.756,-0.320,-0.005
7.758,-0.310,-0.015
7.761,-0.305,-0.020
7.764,-0.300,-0.020
7.767,-0.305,-0.005
7.769,-0.300,0.000
7.772,-0.305,-0.010
7.775,-0.285,-0.030
7.778,-0.285,-0.045
7.781,-0.300,-0.045
7.783,-0.305,-0.030
7.786,-0.310,-0.030
7.789,-0.310,-0.030
7.792,-0.315,-0.040
7.794,-0.310,-0.035
7.797,-0.300,-0.045
7.800,-0.300,-0.035
7.803,-0.295,-0.040
7.806,-0.290,-0.060
7.808,-0.295,-0.065
7.811,-0.290,-0.085
7.814,-0.295,-0.075
7.817,-0.295,-0.065
7.819,-0.300,-0.070
7.822,-0.295,-0.060
7.825,-0.285,-0.070
7.828,-0.285,-0.065
7.831,-0.285,-0.050
7.833,-0.265,-0.055
7.836,-0.260,-0.060
7.839,-0.250,-0.100
7.842,-0.250,-0.110
7.844,-0.260,-0.135
7.847,-0.255,-0.120
7.850,-0.265,-0.130
7.853,-0.265,-0.145
7.856,-0.255,-0.150
7.858,-0.240,-0.145
7.861,-0.235,-0.115
7.864,-0.230,-0.100
7.867,-0.220,-0.105
7.869,-0.225,-0.120
7.872,-0.230,-0.145
7.875,-0.235,-0.150
7.878,-0.250,-0.145
7.881,-0.225,-0.140
7.883,-0.225,-0.140
7.886,-0.215,-0.145
7.889,-0.225,-0.150
7.892,-0.205,-0.135
7.894,-0.225,-0.125
7.897,-0.220,-0.120
7.900,-0.210,-0.125
7.903,-0.215,-0.150
7.906,-0.205,-0.155
7.908,-0.220,-0.130
7.911,-0.225,-0.135
7.914,-0.220,-0.120
7.917,-0.205,-0.135
7.919,-0.195,-0.130
7.922,-0.185,-0.125
7.925,-0.175,-0.100
7.928,-0.165,-0.060
7.931,-0.165,-0.040
7.933,-0.160,-0.030
7.936,-0.160,-0.020
7.939,-0.175,-0.025
7.942,-0.170,-0.005
7.944,-0.180,-0.005
7.947,-0.185,0.005
7.950,-0.190,-0.010
7.953,-0.170,-0.015
7.956,-0.165,-0.005
7.958,-0.160,0.015
7.961,-0.160,0.040
7.964,-0.180,0.040
7.967,-0.185,0.025
7.969,-0.195,0.000
7.972,-0.190,0.000
7.975,-0.200,0.005
7.978,-0.210,0.010
7.981,-0.210,0.010
7.983,-0.215,-0.005
7.986,-0.205,-0.005
7.989,-0.210,0.000
7.992,-0.185,0.020
7.994,-0.190,0.040
7.997,-0.175,0.035
8.000,-0.185,0.015
8.003,-0.185,0.000
8.006,-0.200,0.015
8.008,-0.210,0.010
8.011,-0.220,0.015
8.014,-0.230,0.015
8.017,-0.220,0.000
8.019,-0.230,-0.010
8.022,-0.230,0.000
8.025,-0.210,0.020
8.028,-0.200,0.035
8.031,-0.190,0.030
8.033,-0.180,0.020
8.036,-0.185,0.005
8.039,-0.190,0.005
8.042,-0.210,-0.005
8.044,-0.205,0.005
8.047,-0.235,-0.005
8.050,-0.220,-0.015
8.053,-0.215,-0.005
8.056,-0.210,0.010
8.058,-0.210,0.035
8.061,-0.190,0.055
8.064,-0.180,0.035
8.067,-0.175,0.020
8.069,-0.175,-0.005
8.072,-0.190,-0.005
8.075,-0.195,-0.005
8.078,-0.205,0.000
8.081,-0.220,-0.015
8.083,-0.225,-0.025
8.086,-0.215,-0.025
8.089,-0.220,-0.005
8.092,-0.215,0.015
8.094,-0.215,0.030
8.097,-0.200,0.015
8.100,-0.200,0.010
8.103,-0.185,0.015
8.106,-0.200,0.010
8.108,-0.215,0.035
8.111,-0.215,0.020
8.114,-0.225,0.005
8.117,-0.225,-0.025
8.119,-0.230,-0.025
8.122,-0.240,-0.025
8.125,-0.225,0.000
8.128,-0.210,0.030
8.131,-0.200,0.020
8.133,-0.185,0.020
8.136,-0.180,0.010
8.139,-0.180,0.030
8.142,-0.180,0.035
8.144,-0.180,0.040
8.147,-0.175,0.035
8.150,-0.175,0.040
8.153,-0.165,0.045
8.156,-0.165,0.065
8.158,-0.160,0.090
8.161,-0.150,0.095
8.164,-0.135,0.075
8.167,-0.115,0.060
8.169,-0.095,0.055
8.172,-0.065,0.045
8.175,-0.050,0.045
8.178,-0.050,0.035
8.181,-0.060,0.015
8.183,-0.065,-0.020
8.186,-0.075,-0.020
8.189,-0.090,0.000
8.192,-0.090,0.010
8.194,-0.100,0.020
8.197,-0.080,0.010
8.200,-0.075,-0.010
8.203,-0.095,-0.005
8.206,-0.110,-0.020
8.208,-0.135,-0.005
8.211,-0.160,-0.025
8.214,-0.190,-0.020
8.217,-0.215,-0.025
8.219,-0.240,0.000
8.222,-0.245,0.015
8.225,-0.260,0.015
8.228,-0.270,0.005
8.231,-0.275,-0.015
8.233,-0.275,-0.040
8.236,-0.280,-0.045
8.239,-0.285,-0.025
8.242,-0.300,-0.030
8.244,-0.300,-0.015
8.247,-0.305,-0.035
8.250,-0.300,-0.045
8.253,-0.320,-0.055
8.256,-0.320,-0.025
8.258,-0.320,-0.005
8.261,-0.315,0.005
8.264,-0.315,0.000
8.267,-0.310,-0.015
8.269,-0.315,-0.035
8.272,-0.315,-0.020
8.275,-0.330,-0.030
8.278,-0.355,-0.030
8.281,-0.360,-0.050
8.283,-0.365,-0.050
8.286,-0.340,-0.040
8.289,-0.280,-0.025
8.292,-0.190,-0.020
8.294,-0.075,-0.020
8.297,0.075,-0.050
8.300,0.270,-0.090
8.303,0.490,-0.100
8.306,0.730,-0.075
8.308,0.980,-0.025
8.311,1.195,0.050
8.314,1.375,0.135
8.317,1.445,0.230
8.319,1.365,0.325
8.322,1.200,0.400
8.325,0.920,0.435
8.328,0.625,0.395
8.331,0.330,0.285
8.333,0.055,0.135
8.336,-0.145,-0.025
8.339,-0.290,-0.135
8.342,-0.355,-0.175
8.344,-0.385,-0.175
8.347,-0.370,-0.125
8.350,-0.350,-0.080
8.353,-0.325,-0.055
8.356,-0.330,-0.040
8.358,-0.335,-0.035
8.361,-0.350,-0.015
8.364,-0.370,-0.010
8.367,-0.380,-0.010
8.369,-0.390,-0.035
8.372,-0.395,-0.055
8.375,-0.410,-0.045
8.378,-0.420,-0.045
8.381,-0.430,-0.040
8.383,-0.430,-0.035
8.386,-0.430,-0.065
8.389,-0.420,-0.060
8.392,-0.415,-0.070
8.394,-0.415,-0.030
8.397,-0.410,-0.015
8.400,-0.400,-0.005
8.403,-0.405,-0.010
8.406,-0.410,-0.040
8.408,-0.415,-0.045
8.411,-0.415,-0.055
8.414,-0.430,-0.055
8.417,-0.440,-0.050
8.419,-0.435,-0.055
8.422,-0.430,-0.080
8.425,-0.420,-0.075
8.428,-0.420,-0.055
8.431,-0.410,-0.035
8.433,-0.405,-0.030
8.436,-0.390,-0.050
8.439,-0.385,-0.075
8.442,-0.395,-0.080
8.444,-0.400,-0.070
8.447,-0.415,-0.085
8.450,-0.420,-0.070
8.453,-0.425,-0.065
8.456,-0.420,-0.080
8.458,-0.400,-0.070
8.461,-0.410,-0.065
8.464,-0.395,-0.050
8.467,-0.390,-0.040
8.469,-0.390,-0.055
8.472,-0.380,-0.095
8.475,-0.390,-0.115
8.478,-0.385,-0.125
8.481,-0.385,-0.105
8.483,-0.385,-0.110
8.486,-0.385,-0.100
8.489,-0.385,-0.110
8.492,-0.385,-0.125
8.494,-0.385,-0.115
8.497,-0.375,-0.115
8.500,-0.375,-0.105
8.503,-0.365,-0.115
8.506,-0.355,-0.140
8.508,-0.365,-0.160
8.511,-0.355,-0.170
8.514,-0.355,-0.170
8.517,-0.355,-0.155
8.519,-0.350,-0.160
8.522,-0.345,-0.165
8.525,-0.335,-0.180
8.528,-0.335,-0.165
8.531,-0.335,-0.150
8.533,-0.330,-0.155
8.536,-0.320,-0.170
8.539,-0.325,-0.185
8.542,-0.320,-0.200
8.544,-0.330,-0.205
8.547,-0.325,-0.190
8.550,-0.330,-0.185
8.553,-0.335,-0.180
8.556,-0.325,-0.185
8.558,-0.315,-0.185
8.561,-0.310,-0.160
8.564,-0.305,-0.145
8.567,-0.305,-0.145
8.569,-0.305,-0.145
8.572,-0.300,-0.150
8.575,-0.305,-0.155
8.578,-0.310,-0.145
8.581,-0.300,-0.140
8.583,-0.300,-0.125
8.586,-0.290,-0.130
8.589,-0.275,-0.130
8.592,-0.265,-0.115
8.594,-0.255,-0.075
8.597,-0.265,-0.050
8.600,-0.245,-0.030
8.603,-0.255,-0.025
8.606,-0.260,-0.040
8.608,-0.265,-0.055
8.611,-0.275,-0.040
8.614,-0.290,-0.030
8.617,-0.285,-0.010
8.619,-0.285,-0.020
8.622,-0.275,-0.030
8.625,-0.280,-0.015
8.628,-0.275,0.000
8.631,-0.280,0.010
8.633,-0.285,0.015
8.636,-0.290,-0.005
8.639,-0.285,-0.030
8.642,-0.305,-0.030
8.644,-0.310,-0.015
8.647,-0.315,-0.015
8.650,-0.305,-0.025
8.653,-0.295,-0.035
8.656,-0.295,-0.035
8.658,-0.295,-0.030
8.661,-0.295,-0.010
8.664,-0.295,0.010
8.667,-0.305,0.005
8.669,-0.300,-0.010
8.672,-0.295,-0.015
8.675,-0.305,-0.020
8.678,-0.305,-0.015
8.681,-0.320,-0.025
8.683,-0.325,-0.040
8.686,-0.325,-0.050
8.689,-0.310,-0.040
8.692,-0.295,-0.010
8.694,-0.295,0.005
8.697,-0.290,-0.005
8.700,-0.290,-0.010
8.703,-0.285,-0.020
8.706,-0.290,-0.030
8.708,-0.295,-0.015
8.711,-0.310,-0.020
8.714,-0.320,-0.025
8.717,-0.315,-0.030
8.719,-0.320,-0.035
8.722,-0.325,-0.020
8.725,-0.295,-0.010
8.728,-0.295,0.000
8.731,-0.300,-0.020
8.733,-0.280,-0.020
8.736,-0.290,-0.020
8.739,-0.290,-0.015
8.742,-0.295,0.000
8.744,-0.320,-0.010
8.747,-0.315,-0.030
8.750,-0.310,-0.035
8.753,-0.310,-0.030
8.756,-0.305,-0.025
8.758,-0.300,-0.020
8.761,-0.290,-0.010
8.764,-0.280,-0.005
8.767,-0.275,-0.020
8.769,-0.285,-0.010
8.772,-0.285,-0.010
8.775,-0.310,-0.005
8.778,-0.310,-0.025
8.781,-0.315,-0.030
8.783,-0.320,-0.050
8.786,-0.320,-0.030
8.789,-0.310,0.000
8.792,-0.290,0.015
8.794,-0.275,0.020
8.797,-0.250,0.015
8.800,-0.240,0.035
8.803,-0.235,0.050
8.806,-0.225,0.060
8.808,-0.230,0.050
8.811,-0.230,0.030
8.814,-0.240,0.025
8.817,-0.235,0.015
8.819,-0.225,0.020
8.822,-0.190,0.010
8.825,-0.160,0.005
8.828,-0.140,0.005
8.831,-0.115,-0.005
8.833,-0.115,-0.010
8.836,-0.125,0.005
8.839,-0.140,-0.005
8.842,-0.150,-0.015
8.844,-0.170,-0.035
8.847,-0.175,-0.030
8.850,-0.205,-0.045
8.853,-0.220,-0.040
8.856,-0.230,-0.025
8.858,-0.240,-0.030
8.861,-0.245,-0.045
8.864,-0.260,-0.030
8.867,-0.270,-0.030
8.869,-0.285,-0.015
8.872,-0.310,-0.005
8.875,-0.325,-0.035
8.878,-0.345,-0.060
8.881,-0.375,-0.070
8.883,-0.390,-0.055
8.886,-0.400,-0.040
8.889,-0.405,-0.045
8.892,-0.390,-0.030
8.894,-0.395,-0.040
8.897,-0.375,-0.040
8.900,-0.370,-0.030
8.903,-0.375,-0.020
8.906,-0.370,-0.025
8.908,-0.380,-0.050
8.911,-0.390,-0.075
8.914,-0.400,-0.080
8.917,-0.400,-0.065
8.919,-0.410,-0.055
8.922,-0.420,-0.070
8.925,-0.420,-0.075
8.928,-0.425,-0.090
8.931,-0.440,-0.095
8.933,-0.420,-0.085
8.936,-0.385,-0.055
8.939,-0.310,-0.055
8.942,-0.210,-0.075
8.944,-0.060,-0.110
8.947,0.115,-0.135
8.950,0.335,-0.130
8.953,0.590,-0.085
8.956,0.855,-0.020
8.958,1.105,0.065
8.961,1.275,0.180
8.964,1.350,0.305
8.967,1.270,0.425
8.969,1.070,0.505
8.972,0.775,0.485
8.975,0.440,0.375
8.978,0.130,0.215
8.981,-0.135,0.040
8.983,-0.320,-0.100
8.986,-0.425,-0.170
8.989,-0.445,-0.185
8.992,-0.435,-0.180
8.994,-0.400,-0.125
8.997,-0.365,-0.075
9.000,-0.350,-0.020
9.003,-0.360,-0.010
9.006,-0.395,-0.015
9.008,-0.430,-0.035
9.011,-0.450,-0.080
9.014,-0.475,-0.080
9.017,-0.480,-0.060
9.019,-0.480,-0.045
9.022,-0.470,-0.045
9.025,-0.455,-0.055
9.028,-0.440,-0.065
9.031,-0.445,-0.085
9.033,-0.450,-0.070
9.036,-0.465,-0.050
9.039,-0.465,-0.040
9.042,-0.460,-0.050
9.044,-0.470,-0.080
9.047,-0.475,-0.080
9.050,-0.480,-0.080
9.053,-0.485,-0.070
9.056,-0.485,-0.060
9.058,-0.480,-0.080
9.061,-0.480,-0.065
9.064,-0.460,-0.075
9.067,-0.445,-0.065
9.069,-0.455,-0.060
9.072,-0.450,-0.055
9.075,-0.445,-0.075
9.078,-0.445,-0.095
9.081,-0.455,-0.105
9.083,-0.480,-0.105
9.086,-0.475,-0.090
9.089,-0.470,-0.075
9.092,-0.460,-0.070
9.094,-0.460,-0.095
9.097,-0.450,-0.090
9.100,-0.450,-0.090
9.103,-0.445,-0.080
9.106,-0.435,-0.080
9.108,-0.435,-0.100
9.111,-0.435,-0.115
9.114,-0.425,-0.135
9.117,-0.430,-0.135
9.119,-0.440,-0.110
9.122,-0.435,-0.100
9.125,-0.435,-0.090
9.128,-0.435,-0.105
9.131,-0.420,-0.115
9.133,-0.420,-0.135
9.136,-0.415,-0.120
9.139,-0.415,-0.120
9.142,-0.405,-0.135
9.144,-0.405,-0.145
9.147,-0.400,-0.175
9.150,-0.400,-0.170
9.153,-0.395,-0.160
9.156,-0.385,-0.140
9.158,-0.385,-0.150
9.161,-0.370,-0.150
9.164,-0.370,-0.175
9.167,-0.360,-0.200
9.169,-0.365,-0.190
9.172,-0.370,-0.180
9.175,-0.375,-0.180
9.178,-0.375,-0.185
9.181,-0.370,-0.200
9.183,-0.355,-0.210
9.186,-0.355,-0.200
9.189,-0.340,-0.175
9.192,-0.340,-0.165
9.194,-0.340,-0.145
9.197,-0.330,-0.150
9.200,-0.340,-0.180
9.203,-0.340,-0.190
9.206,-0.355,-0.180
9.208,-0.360,-0.180
9.211,-0.360,-0.185
9.214,-0.365,-0.190
9.217,-0.360,-0.205
9.219,-0.360,-0.210
9.222,-0.360,-0.190
9.225,-0.335,-0.150
9.228,-0.330,-0.145
9.231,-0.310,-0.135
9.233,-0.295,-0.130
9.236,-0.295,-0.135
9.239,-0.285,-0.125
9.242,-0.280,-0.100
9.244,-0.290,-0.090
9.247,-0.295,-0.080
9.250,-0.295,-0.075
9.253,-0.290,-0.080
9.256,-0.280,-0.050
9.258,-0.290,-0.035
9.261,-0.290,-0.005
9.264,-0.275,0.015
9.267,-0.250,0.000
9.269,-0.270,-0.015
9.272,-0.260,-0.020
9.275,-0.270,-0.025
9.278,-0.280,-0.020
9.281,-0.300,-0.025
9.283,-0.315,-0.030
9.286,-0.310,-0.035
9.289,-0.305,-0.040
9.292,-0.300,-0.015
9.294,-0.295,-0.005
9.297,-0.295,-0.005
9.300,-0.285,0.010
9.303,-0.295,-0.010
9.306,-0.295,-0.020
9.308,-0.300,-0.025
9.311,-0.305,-0.010
9.314,-0.310,0.005
9.317,-0.330,-0.005
9.319,-0.330,-0.010
9.322,-0.325,-0.025
9.325,-0.325,-0.035
9.328,-0.325,-0.015
9.331,-0.325,0.000
9.333,-0.305,0.000
9.336,-0.300,-0.005
9.339,-0.290,-0.020
9.342,-0.285,-0.045
9.344,-0.295,-0.035
9.347,-0.310,-0.025
9.350,-0.310,-0.020
9.353,-0.305,-0.020
9.356,-0.300,-0.025
9.358,-0.295,-0.015
9.361,-0.295,-0.015
9.364,-0.290,0.015
9.367,-0.295,0.025
9.369,-0.300,0.010
9.372,-0.285,-0.025
9.375,-0.290,-0.040
9.378,-0.285,-0.035
9.381,-0.300,-0.020
9.383,-0.305,-0.015
9.386,-0.290,-0.005
9.389,-0.290,-0.010
9.392,-0.285,-0.010
9.394,-0.290,0.000
9.397,-0.285,0.020
9.400,-0.290,0.010
9.403,-0.285,-0.005
9.406,-0.285,-0.035
9.408,-0.290,-0.040
9.411,-0.300,-0.035
9.414,-0.300,-0.015
9.417,-0.295,-0.025
9.419,-0.300,-0.020
9.422,-0.305,-0.020
9.425,-0.285,-0.005
9.428,-0.295,0.000
9.431,-0.270,0.025
9.433,-0.270,0.015
9.436,-0.285,0.005
9.439,-0.275,-0.020
9.442,-0.275,-0.020
9.444,-0.295,-0.015
9.447,-0.295,-0.005
9.450,-0.270,-0.005
9.453,-0.265,-0.015
9.456,-0.255,-0.010
9.458,-0.240,0.010
9.461,-0.235,0.050
9.464,-0.215,0.055
9.467,-0.210,0.055
9.469,-0.205,0.050
9.472,-0.190,0.045
9.475,-0.190,0.050
9.478,-0.200,0.050
9.481,-0.170,0.045
9.483,-0.170,0.030
9.486,-0.130,0.015
9.489,-0.110,0.010
9.492,-0.105,0.015
9.494,-0.100,0.055
9.497,-0.110,0.050
9.500,-0.115,0.030
9.503,-0.115,0.005
9.506,-0.125,-0.005
9.508,-0.135,-0.005
9.511,-0.160,-0.015
9.514,-0.180,-0.040
9.517,-0.200,-0.035
9.519,-0.215,-0.035
9.522,-0.240,-0.015
9.525,-0.245,0.015
9.528,-0.245,0.030
9.531,-0.260,0.010
9.533,-0.270,-0.020
9.536,-0.290,-0.025
9.539,-0.310,-0.020
9.542,-0.325,-0.020
9.544,-0.335,-0.035
9.547,-0.345,-0.035
9.550,-0.360,-0.050
9.553,-0.355,-0.045
9.556,-0.355,-0.035
9.558,-0.350,-0.005
9.561,-0.350,-0.005
9.564,-0.330,-0.005
9.567,-0.320,-0.030
9.569,-0.335,-0.040
9.572,-0.330,-0.035
9.575,-0.355,-0.025
9.578,-0.365,-0.035
9.581,-0.380,-0.060
9.583,-0.385,-0.070
9.586,-0.400,-0.085
9.589,-0.390,-0.065
9.592,-0.380,-0.035
9.594,-0.320,-0.015
9.597,-0.235,-0.010
9.600,-0.130,-0.035
9.603,0.040,-0.065
9.606,0.245,-0.080
9.608,0.485,-0.080
9.611,0.745,-0.055
9.614,0.990,0.010
9.617,1.235,0.120
9.619,1.385,0.250
9.622,1.395,0.400
9.625,1.280,0.505
9.628,1.065,0.550
9.631,0.755,0.505
9.633,0.430,0.385
9.636,0.105,0.230
9.639,-0.120,0.075
9.642,-0.295,-0.045
9.644,-0.395,-0.145
9.647,-0.425,-0.200
9.650,-0.415,-0.195
9.653,-0.390,-0.140
9.656,-0.365,-0.075
9.658,-0.330,-0.025
9.661,-0.320,0.000
9.664,-0.340,-0.005
9.667,-0.355,-0.030
9.669,-0.365,-0.035
9.672,-0.395,-0.045
9.675,-0.405,-0.030
9.678,-0.415,-0.025
9.681,-0.415,-0.035
9.683,-0.435,-0.050
9.686,-0.415,-0.075
9.689,-0.410,-0.060
9.692,-0.415,-0.050
9.694,-0.410,-0.030
9.697,-0.405,-0.025
9.700,-0.400,-0.045
9.703,-0.390,-0.050
9.706,-0.400,-0.055
9.708,-0.400,-0.035
9.711,-0.395,-0.030
9.714,-0.405,-0.050
9.717,-0.415,-0.060
9.719,-0.410,-0.070
9.722,-0.405,-0.060
9.725,-0.415,-0.035
9.728,-0.425,-0.020
9.731,-0.400,-0.015
9.733,-0.395,-0.035
9.736,-0.380,-0.065
9.739,-0.380,-0.070
9.742,-0.390,-0.080
9.744,-0.390,-0.075
9.747,-0.385,-0.070
9.750,-0.385,-0.085
9.753,-0.390,-0.095
9.756,-0.395,-0.080
9.758,-0.400,-0.070
9.761,-0.385,-0.045
9.764,-0.385,-0.050
9.767,-0.370,-0.060
9.769,-0.370,-0.060
9.772,-0.365,-0.065
9.775,-0.385,-0.075
9.778,-0.385,-0.090
9.781,-0.385,-0.095
9.783,-0.375,-0.120
9.786,-0.360,-0.135
9.789,-0.365,-0.115
9.792,-0.350,-0.090
9.794,-0.335,-0.085
9.797,-0.320,-0.080
9.800,-0.315,-0.100
9.803,-0.315,-0.110
9.806,-0.320,-0.115
9.808,-0.325,-0.125
9.811,-0.340,-0.140
9.814,-0.335,-0.145
9.817,-0.330,-0.165
9.819,-0.320,-0.175
9.822,-0.315,-0.160
9.825,-0.305,-0.135
9.828,-0.300,-0.125
9.831,-0.290,-0.115
9.833,-0.280,-0.135
9.836,-0.280,-0.140
9.839,-0.290,-0.145
9.842,-0.300,-0.145
9.844,-0.300,-0.130
9.847,-0.300,-0.150
9.850,-0.300,-0.155
9.853,-0.295,-0.165
9.856,-0.275,-0.160
9.858,-0.285,-0.135
9.861,-0.285,-0.120
9.864,-0.265,-0.120
9.867,-0.270,-0.115
9.869,-0.275,-0.135
9.872,-0.270,-0.135
9.875,-0.270,-0.135
9.878,-0.280,-0.120
9.881,-0.275,-0.135
9.883,-0.270,-0.125
9.886,-0.255,-0.120
9.889,-0.235,-0.090
9.892,-0.220,-0.065
9.894,-0.200,-0.020
9.897,-0.195,-0.005
9.900,-0.170,-0.015
9.903,-0.170,-0.035
9.906,-0.175,-0.035
9.908,-0.190,-0.015
9.911,-0.210,0.000
9.914,-0.205,0.010
9.917,-0.220,-0.005
9.919,-0.195,-0.010
9.922,-0.195,-0.010
9.925,-0.185,0.010
9.928,-0.195,0.035
9.931,-0.190,0.045
9.933,-0.185,0.030
9.936,-0.190,0.025
9.939,-0.190,0.015
9.942,-0.210,0.020
9.944,-0.210,0.040
9.947,-0.235,0.050
9.950,-0.230,0.040
9.953,-0.240,0.035
9.956,-0.235,0.025
9.958,-0.230,0.025
9.961,-0.225,0.040
9.964,-0.225,0.055
9.967,-0.210,0.055
9.969,-0.210,0.045
9.972,-0.205,0.020
9.975,-0.205,-0.005
9.978,-0.210,0.000
9.981,-0.215,0.010
9.983,-0.225,0.025
9.986,-0.220,0.020
9.989,-0.235,0.015
9.992,-0.210,0.010
9.994,-0.205,0.030
9.997,-0.205,0.050
10.000,-0.200,0.060
10.003,-0.200,0.070
10.006,-0.205,0.035
10.008,-0.215,0.025
10.011,-0.205,0.015
10.014,-0.220,0.015
10.017,-0.215,0.025
10.019,-0.210,0.035
10.022,-0.195,0.030
10.025,-0.215,0.025
10.028,-0.195,0.020
10.031,-0.215,0.020
10.033,-0.215,0.035
10.036,-0.210,0.045
10.039,-0.210,0.035
10.042,-0.205,0.015
10.044,-0.215,0.005
10.047,-0.210,0.000
10.050,-0.210,0.020
10.053,-0.205,0.025
10.056,-0.200,0.020
10.058,-0.195,0.040
10.061,-0.195,0.030
10.064,-0.200,0.045
10.067,-0.190,0.045
10.069,-0.200,0.045
10.072,-0.200,0.055
10.075,-0.210,0.030
10.078,-0.220,0.010
10.081,-0.215,-0.005
10.083,-0.225,0.010
10.086,-0.225,0.030
10.089,-0.220,0.035
10.092,-0.205,0.035
10.094,-0.190,0.020
10.097,-0.195,0.020
10.100,-0.185,0.030
10.103,-0.200,0.040
10.106,-0.205,0.050
10.108,-0.215,0.040
10.111,-0.210,0.025
10.114,-0.215,0.010
10.117,-0.225,0.025
10.119,-0.210,0.050
10.122,-0.195,0.075
10.125,-0.180,0.105
10.128,-0.170,0.100
10.131,-0.150,0.095
10.133,-0.140,0.080
10.136,-0.135,0.090
10.139,-0.130,0.095
10.142,-0.135,0.095
10.144,-0.110,0.080
10.147,-0.100,0.050
10.150,-0.080,0.040
10.153,-0.085,0.035
10.156,-0.070,0.045
10.158,-0.080,0.050
10.161,-0.070,0.055
10.164,-0.070,0.040
10.167,-0.065,0.040
10.169,-0.065,0.030
10.172,-0.065,0.030
10.175,-0.085,0.040
10.178,-0.090,0.015
10.181,-0.105,0.000
10.183,-0.140,-0.010
10.186,-0.165,0.000
10.189,-0.185,0.030
10.192,-0.205,0.050
10.194,-0.225,0.045
10.197,-0.230,0.035
10.200,-0.245,0.015
10.203,-0.245,0.020
10.206,-0.270,0.020
10.208,-0.280,0.020
10.211,-0.290,-0.010
10.214,-0.295,-0.025
10.217,-0.315,-0.025
10.219,-0.320,-0.020
10.222,-0.320,-0.010
10.225,-0.310,0.015
10.228,-0.310,0.015
10.231,-0.305,0.005
10.233,-0.305,0.010
10.236,-0.310,0.000
10.239,-0.320,0.005
10.242,-0.305,0.000
10.244,-0.330,-0.025
10.247,-0.340,-0.050
10.250,-0.350,-0.050
10.253,-0.370,-0.050
10.256,-0.375,-0.030
10.258,-0.360,0.005
10.261,-0.315,0.030
10.264,-0.225,0.020
10.267,-0.120,0.010
10.269,0.025,-0.015
10.272,0.220,-0.040
10.275,0.430,-0.055
10.278,0.685,-0.050
10.281,0.940,-0.030
10.283,1.170,0.030
10.286,1.355,0.125
10.289,1.450,0.255
10.292,1.430,0.365
10.294,1.280,0.450
10.297,1.015,0.460
10.300,0.680,0.395
10.303,0.340,0.290
10.306,0.035,0.150
10.308,-0.180,0.010
10.311,-0.315,-0.090
10.314,-0.385,-0.150
10.317,-0.400,-0.165
10.319,-0.375,-0.130
10.322,-0.340,-0.065
10.325,-0.325,-0.010
10.328,-0.305,0.010
10.331,-0.325,0.010
10.333,-0.345,-0.005
10.336,-0.375,-0.015
10.339,-0.415,-0.015
10.342,-0.440,-0.025
10.344,-0.435,-0.040
10.347,-0.440,-0.040
10.350,-0.440,-0.050
10.353,-0.435,-0.030
10.356,-0.435,-0.005
10.358,-0.435,0.000
10.361,-0.445,0.000
10.364,-0.425,-0.010
10.367,-0.420,-0.015
10.369,-0.420,-0.030
10.372,-0.430,0.000
10.375,-0.435,0.005
10.378,-0.440,-0.020
10.381,-0.445,-0.030
10.383,-0.455,-0.045
10.386,-0.465,-0.040
10.389,-0.465,-0.025
10.392,-0.460,-0.010
10.394,-0.455,-0.020
10.397,-0.435,-0.040
10.400,-0.425,-0.050
10.403,-0.420,-0.035
10.406,-0.425,-0.035
10.408,-0.435,-0.035
10.411,-0.455,-0.050
10.414,-0.460,-0.050
10.417,-0.455,-0.045
10.419,-0.465,-0.040
10.422,-0.465,-0.030
10.425,-0.455,-0.030
10.428,-0.440,-0.045
10.431,-0.430,-0.065
10.433,-0.420,-0.050
10.436,-0.420,-0.045
10.439,-0.410,-0.045
10.442,-0.415,-0.065
10.444,-0.420,-0.090
10.447,-0.410,-0.100
10.450,-0.425,-0.110
10.453,-0.435,-0.090
10.456,-0.430,-0.070
10.458,-0.430,-0.070
10.461,-0.415,-0.085
10.464,-0.415,-0.080
10.467,-0.390,-0.070
10.469,-0.390,-0.090
10.472,-0.395,-0.080
10.475,-0.395,-0.115
10.478,-0.380,-0.140
10.481,-0.390,-0.155
10.483,-0.390,-0.145
10.486,-0.390,-0.135
10.489,-0.385,-0.120
10.492,-0.385,-0.125
10.494,-0.375,-0.130
10.497,-0.370,-0.140
10.500,-0.365,-0.125
10.503,-0.355,-0.125
10.506,-0.355,-0.130
10.508,-0.365,-0.140
10.511,-0.355,-0.150
10.514,-0.350,-0.170
10.517,-0.355,-0.170
10.519,-0.375,-0.155
10.522,-0.370,-0.135
10.525,-0.365,-0.130
10.528,-0.370,-0.145
10.531,-0.360,-0.135
10.533,-0.355,-0.115
10.536,-0.355,-0.105
10.539,-0.360,-0.100
10.542,-0.360,-0.110
10.544,-0.360,-0.125
10.547,-0.370,-0.130
10.550,-0.365,-0.110
10.553,-0.345,-0.080
10.556,-0.340,-0.060
10.558,-0.325,-0.045
10.561,-0.305,-0.050
10.564,-0.285,-0.030
10.567,-0.290,-0.015
10.569,-0.295,0.010
10.572,-0.300,0.015
10.575,-0.305,0.005
10.578,-0.310,-0.005
10.581,-0.320,-0.010
10.583,-0.320,-0.005
10.586,-0.325,0.010
10.589,-0.330,0.030
10.592,-0.320,0.030
10.594,-0.320,0.030
10.597,-0.320,0.050
10.600,-0.315,0.060
10.603,-0.325,0.065
10.606,-0.335,0.055
10.608,-0.345,0.015
10.611,-0.345,0.010
10.614,-0.365,0.005
10.617,-0.365,0.010
10.619,-0.370,0.020
10.622,-0.360,0.025
10.625,-0.345,0.020
10.628,-0.345,0.035
10.631,-0.330,0.050
10.633,-0.335,0.060
10.636,-0.340,0.075
10.639,-0.340,0.050
10.642,-0.350,0.015
10.644,-0.355,0.010
10.647,-0.360,-0.005
10.650,-0.375,0.025
10.653,-0.385,0.030
10.656,-0.370,0.035
10.658,-0.365,0.020
10.661,-0.360,0.020
10.664,-0.350,0.045
10.667,-0.335,0.060
10.669,-0.340,0.055
10.672,-0.340,0.035
10.675,-0.335,0.010
10.678,-0.340,-0.015
10.681,-0.350,-0.005
10.683,-0.370,0.010
10.686,-0.365,0.020
10.689,-0.360,0.020
10.692,-0.365,0.015
10.694,-0.355,0.015
10.697,-0.345,0.035
10.700,-0.345,0.060
10.703,-0.350,0.060
10.706,-0.335,0.040
10.708,-0.335,0.020
10.711,-0.350,0.000
10.714,-0.355,0.005
10.717,-0.365,0.020
10.719,-0.365,0.025
10.722,-0.370,0.035
10.725,-0.355,0.005
10.728,-0.355,0.015
10.731,-0.350,0.030
10.733,-0.345,0.040
10.736,-0.335,0.060
10.739,-0.340,0.035
10.742,-0.340,0.025
10.744,-0.345,0.010
10.747,-0.355,0.020
10.750,-0.365,0.015
10.753,-0.370,0.035
10.756,-0.380,0.020
10.758,-0.365,0.025
10.761,-0.355,0.030
10.764,-0.355,0.050
10.767,-0.325,0.075
10.769,-0.315,0.100
10.772,-0.300,0.095
10.775,-0.295,0.085
10.778,-0.290,0.085
10.781,-0.290,0.070
10.783,-0.295,0.075
10.786,-0.285,0.090
10.789,-0.275,0.090
10.792,-0.255,0.075
10.794,-0.235,0.075
10.797,-0.220,0.085
10.800,-0.195,0.080
10.803,-0.190,0.080
10.806,-0.185,0.055
10.808,-0.195,0.025
10.811,-0.200,0.000
10.814,-0.210,0.005
10.817,-0.220,0.025
10.819,-0.215,0.050
10.822,-0.215,0.040
10.825,-0.220,0.035
10.828,-0.230,0.015
10.831,-0.250,0.015
10.833,-0.275,0.020
10.836,-0.305,0.025
10.839,-0.330,0.035
10.842,-0.340,0.010
10.844,-0.360,0.010
10.847,-0.375,0.010
10.850,-0.395,0.015
10.853,-0.415,0.025
10.856,-0.415,0.025
10.858,-0.415,0.015
10.861,-0.430,0.000
10.864,-0.430,0.010
10.867,-0.430,0.020
10.869,-0.445,0.025
10.872,-0.445,0.015
10.875,-0.450,0.005
10.878,-0.460,-0.005
10.881,-0.470,-0.005
10.883,-0.475,0.005
10.886,-0.480,0.015
10.889,-0.465,0.020
10.892,-0.455,0.015
10.894,-0.475,-0.010
10.897,-0.470,-0.005
10.900,-0.475,0.000
10.903,-0.490,-0.005
10.906,-0.510,-0.005
10.908,-0.480,-0.015
10.911,-0.445,-0.025
10.914,-0.385,-0.015
10.917,-0.310,-0.005
10.919,-0.175,-0.020
10.922,0.010,-0.040
10.925,0.260,-0.060
10.928,0.525,-0.055
10.931,0.790,0.000
10.933,1.040,0.080
10.936,1.235,0.190
10.939,1.335,0.280
10.942,1.300,0.355
10.944,1.130,0.400
10.947,0.850,0.425
10.950,0.505,0.365
10.953,0.160,0.250
10.956,-0.125,0.120
10.958,-0.325,-0.030
10.961,-0.450,-0.120
10.964,-0.490,-0.155
10.967,-0.485,-0.115
10.969,-0.470,-0.060
10.972,-0.445,-0.010
10.975,-0.440,0.005
10.978,-0.455,0.000
10.981,-0.490,0.000
10.983,-0.520,0.005
10.986,-0.545,0.010
10.989,-0.560,0.015
10.992,-0.570,-0.005
10.994,-0.565,-0.010
10.997,-0.555,0.000
11.000,-0.545,0.015
11.003,-0.530,0.020
11.006,-0.545,0.010
11.008,-0.545,-0.005
11.011,-0.540,-0.025
11.014,-0.550,-0.030
11.017,-0.575,-0.030
11.019,-0.580,-0.005
11.022,-0.580,0.005
11.025,-0.570,0.000
11.028,-0.575,0.000
11.031,-0.555,0.000
11.033,-0.545,-0.005
11.036,-0.540,0.000
11.039,-0.545,-0.015
11.042,-0.535,-0.015
11.044,-0.550,-0.030
11.047,-0.545,-0.035
11.050,-0.555,-0.025
11.053,-0.565,-0.010
11.056,-0.570,0.010
11.058,-0.565,0.000
11.061,-0.550,-0.015
11.064,-0.540,-0.015
11.067,-0.530,-0.010
11.069,-0.540,-0.015
11.072,-0.540,-0.010
11.075,-0.530,-0.025
11.078,-0.525,-0.050
11.081,-0.530,-0.060
11.083,-0.530,-0.060
11.086,-0.545,-0.050
11.089,-0.540,-0.045
11.092,-0.540,-0.070
11.094,-0.530,-0.055
11.097,-0.520,-0.045
11.100,-0.510,-0.035
11.103,-0.515,-0.025
11.106,-0.500,-0.035
11.108,-0.505,-0.060
11.111,-0.495,-0.075
11.114,-0.490,-0.095
11.117,-0.495,-0.080
11.119,-0.495,-0.085
11.122,-0.495,-0.090
11.125,-0.490,-0.095
11.128,-0.495,-0.115
11.131,-0.485,-0.100
11.133,-0.480,-0.085
11.136,-0.465,-0.105
11.139,-0.460,-0.100
11.142,-0.465,-0.130
11.144,-0.460,-0.140
11.147,-0.460,-0.140
11.150,-0.465,-0.130
11.153,-0.455,-0.135
11.156,-0.455,-0.135
11.158,-0.450,-0.140
11.161,-0.445,-0.130
11.164,-0.445,-0.100
11.167,-0.435,-0.085
11.169,-0.440,-0.085
11.172,-0.430,-0.110
11.175,-0.435,-0.125
11.178,-0.450,-0.140
11.181,-0.450,-0.140
11.183,-0.455,-0.120
11.186,-0.470,-0.115
11.189,-0.465,-0.105
11.192,-0.450,-0.100
11.194,-0.425,-0.090
11.197,-0.415,-0.060
11.200,-0.410,-0.040
11.203,-0.400,-0.025
11.206,-0.395,-0.020
11.208,-0.395,-0.035
11.211,-0.400,-0.025
11.214,-0.400,-0.010
11.217,-0.410,0.015
11.219,-0.405,0.030
11.222,-0.415,0.015
11.225,-0.395,0.025
11.228,-0.395,0.045
11.231,-0.395,0.065
11.233,-0.395,0.075
11.236,-0.390,0.055
11.239,-0.390,0.045
11.242,-0.400,0.045
11.244,-0.410,0.040
11.247,-0.415,0.065
11.250,-0.435,0.050
11.253,-0.445,0.040
11.256,-0.410,0.040
11.258,-0.410,0.045
11.261,-0.415,0.060
11.264,-0.425,0.070
11.267,-0.405,0.075
11.269,-0.415,0.060
11.272,-0.415,0.050
11.275,-0.430,0.050
11.278,-0.435,0.050
11.281,-0.445,0.050
11.283,-0.445,0.030
11.286,-0.435,0.015
11.289,-0.430,0.025
11.292,-0.430,0.050
11.294,-0.415,0.065
11.297,-0.410,0.065
11.300,-0.395,0.060
11.303,-0.400,0.050
11.306,-0.400,0.050
11.308,-0.420,0.055
11.311,-0.430,0.060
11.314,-0.445,0.050
11.317,-0.435,0.035
11.319,-0.450,0.015
11.322,-0.435,0.025
11.325,-0.420,0.050
11.328,-0.420,0.055
11.331,-0.420,0.070
11.333,-0.410,0.065
11.336,-0.410,0.045
11.339,-0.415,0.065
11.342,-0.415,0.070
11.344,-0.420,0.075
11.347,-0.425,0.050
11.350,-0.420,0.050
11.353,-0.430,0.030
11.356,-0.425,0.040
11.358,-0.430,0.070
11.361,-0.420,0.075
11.364,-0.400,0.075
11.367,-0.395,0.060
11.369,-0.390,0.040
11.372,-0.390,0.055
11.375,-0.400,0.065
11.378,-0.405,0.040
11.381,-0.425,0.025
11.383,-0.430,0.030
11.386,-0.435,0.040
11.389,-0.440,0.060
11.392,-0.440,0.080
11.394,-0.425,0.085
11.397,-0.410,0.080
11.400,-0.395,0.070
11.403,-0.380,0.080
11.406,-0.370,0.095
11.408,-0.370,0.095
11.411,-0.370,0.100
11.414,-0.365,0.080
11.417,-0.355,0.075
11.419,-0.355,0.100
11.422,-0.350,0.105
11.425,-0.330,0.120
11.428,-0.330,0.115
11.431,-0.305,0.125
11.433,-0.280,0.110
11.436,-0.255,0.115
11.439,-0.235,0.105
11.442,-0.230,0.095
11.444,-0.225,0.060
11.447,-0.235,0.035
11.450,-0.265,0.035
11.453,-0.280,0.040
11.456,-0.265,0.065
11.458,-0.275,0.060
11.461,-0.270,0.040
11.464,-0.270,0.025
11.467,-0.285,0.035
11.469,-0.295,0.050
11.472,-0.330,0.035
11.475,-0.355,0.040
11.478,-0.380,0.030
11.481,-0.400,0.025
11.483,-0.425,0.035
11.486,-0.445,0.045
11.489,-0.460,0.060
11.492,-0.470,0.050
11.494,-0.470,0.045
11.497,-0.470,0.045
11.500,-0.470,0.040
11.503,-0.470,0.065
11.506,-0.465,0.055
11.508,-0.465,0.035
11.511,-0.480,0.020
11.514,-0.485,0.010
11.517,-0.490,0.010
11.519,-0.505,0.035
11.522,-0.510,0.020
11.525,-0.500,0.025
11.528,-0.495,0.005
11.531,-0.495,0.010
11.533,-0.495,0.030
11.536,-0.505,0.030
11.539,-0.510,0.030
11.542,-0.505,0.015
11.544,-0.485,0.000
11.547,-0.440,0.000
11.550,-0.350,-0.005
11.553,-0.240,-0.010
11.556,-0.060,-0.025
11.558,0.150,-0.030
11.561,0.425,-0.020
11.564,0.720,0.045
11.567,1.000,0.170
11.569,1.215,0.290
11.572,1.325,0.430
11.575,1.285,0.515
11.578,1.125,0.570
11.581,0.830,0.570
11.583,0.475,0.485
11.586,0.120,0.330
11.589,-0.185,0.155
11.592,-0.395,0.000
11.594,-0.520,-0.115
11.597,-0.565,-0.135
11.600,-0.565,-0.080
11.603,-0.525,-0.030
11.606,-0.500,0.025
11.608,-0.470,0.050
11.611,-0.480,0.050
11.614,-0.495,0.040
11.617,-0.525,0.035
11.619,-0.555,0.015
11.622,-0.565,0.025
11.625,-0.570,-0.005
11.628,-0.555,-0.015
11.631,-0.555,-0.005
11.633,-0.545,0.025
11.636,-0.555,0.050
11.639,-0.550,0.040
11.642,-0.560,0.020
11.644,-0.565,0.005
11.647,-0.565,-0.010
11.650,-0.590,0.000
11.653,-0.590,0.020
11.656,-0.570,0.020
11.658,-0.565,0.025
11.661,-0.560,0.010
11.664,-0.550,0.005
11.667,-0.550,0.025
11.669,-0.560,0.030
11.672,-0.560,0.020
11.675,-0.555,0.010
11.678,-0.575,-0.010
11.681,-0.575,-0.015
11.683,-0.570,-0.010
11.686,-0.560,0.010
11.689,-0.545,0.015
11.692,-0.540,0.005
11.694,-0.545,-0.015
11.697,-0.520,-0.020
11.700,-0.520,-0.005
11.703,-0.520,0.000
11.706,-0.525,-0.005
11.708,-0.525,-0.025
11.711,-0.525,-0.045
11.714,-0.525,-0.040
11.717,-0.535,-0.025
11.719,-0.545,-0.015
11.722,-0.540,-0.010
11.725,-0.525,-0.015
11.728,-0.505,-0.015
11.731,-0.495,-0.030
11.733,-0.490,-0.025
11.736,-0.490,-0.035
11.739,-0.490,-0.045
11.742,-0.480,-0.070
11.744,-0.485,-0.080
11.747,-0.485,-0.085
11.750,-0.490,-0.075
11.753,-0.500,-0.060
11.756,-0.485,-0.075
11.758,-0.475,-0.095
11.761,-0.460,-0.095
11.764,-0.455,-0.080
11.767,-0.435,-0.090
11.769,-0.445,-0.070
11.772,-0.435,-0.080
11.775,-0.430,-0.110
11.778,-0.430,-0.125
11.781,-0.435,-0.125
11.783,-0.445,-0.105
11.786,-0.450,-0.110
11.789,-0.460,-0.105
11.792,-0.450,-0.110
11.794,-0.430,-0.105
11.797,-0.415,-0.090
11.800,-0.410,-0.080
11.803,-0.410,-0.085
11.806,-0.405,-0.090
11.808,-0.405,-0.110
11.811,-0.420,-0.120
11.814,-0.425,-0.125
11.817,-0.435,-0.125
11.819,-0.460,-0.110
11.822,-0.450,-0.110
11.825,-0.425,-0.100
11.828,-0.415,-0.100
11.831,-0.385,-0.065
11.833,-0.370,-0.040
11.836,-0.355,-0.020
11.839,-0.360,-0.030
11.842,-0.350,-0.030
11.844,-0.345,-0.025
11.847,-0.355,-0.005
11.850,-0.360,0.010
11.853,-0.370,0.040
11.856,-0.365,0.025
11.858,-0.350,0.030
11.861,-0.345,0.035
11.864,-0.335,0.060
11.867,-0.335,0.075
11.869,-0.330,0.085
11.872,-0.325,0.070
11.875,-0.330,0.050
11.878,-0.340,0.045
11.881,-0.345,0.035
11.883,-0.350,0.050
11.886,-0.375,0.060
11.889,-0.375,0.065
11.892,-0.370,0.065
11.894,-0.370,0.065
11.897,-0.365,0.075
11.900,-0.370,0.095
11.903,-0.365,0.095
11.906,-0.375,0.090
11.908,-0.380,0.060
11.911,-0.375,0.050
11.914,-0.380,0.035
11.917,-0.370,0.055
11.919,-0.380,0.060
11.922,-0.380,0.060
11.925,-0.365,0.060
11.928,-0.355,0.050
11.931,-0.355,0.065
11.933,-0.355,0.070
11.936,-0.365,0.085
11.939,-0.365,0.080
11.942,-0.355,0.055
11.944,-0.360,0.030
11.947,-0.355,0.040
11.950,-0.360,0.060
11.953,-0.360,0.075
11.956,-0.360,0.075
11.958,-0.355,0.075
11.961,-0.355,0.075
11.964,-0.340,0.080
11.967,-0.340,0.090
11.969,-0.345,0.095
11.972,-0.350,0.090
11.975,-0.350,0.075
11.978,-0.355,0.045
11.981,-0.360,0.035
11.983,-0.355,0.050
11.986,-0.355,0.045
11.989,-0.350,0.070
11.992,-0.345,0.060
11.994,-0.340,0.055
11.997,-0.325,0.055
12.000,-0.330,0.075
12.003,-0.335,0.075
12.006,-0.335,0.065
12.008,-0.345,0.055
12.011,-0.340,0.050
12.014,-0.335,0.050
12.017,-0.345,0.050
12.019,-0.345,0.070
12.022,-0.350,0.080
12.025,-0.340,0.070
12.028,-0.330,0.055
12.031,-0.325,0.060
12.033,-0.315,0.075
12.036,-0.325,0.080
12.039,-0.345,0.085
12.042,-0.340,0.070
12.044,-0.335,0.065
12.047,-0.340,0.055
12.050,-0.325,0.085
12.053,-0.315,0.100
12.056,-0.305,0.120
12.058,-0.305,0.120
12.061,-0.275,0.120
12.064,-0.260,0.125
12.067,-0.250,0.140
12.069,-0.240,0.155
12.072,-0.245,0.160
12.075,-0.220,0.150
12.078,-0.205,0.120
12.081,-0.190,0.085
12.083,-0.185,0.075
12.086,-0.170,0.080
12.089,-0.180,0.085
12.092,-0.165,0.085
12.094,-0.165,0.085
12.097,-0.175,0.085
12.100,-0.165,0.085
12.103,-0.160,0.085
12.106,-0.155,0.095
12.108,-0.160,0.080
12.111,-0.180,0.060
12.114,-0.200,0.030
12.117,-0.230,0.035
12.119,-0.250,0.055
12.122,-0.280,0.075
12.125,-0.295,0.070
12.128,-0.310,0.085
12.131,-0.320,0.080
12.133,-0.325,0.075
12.136,-0.345,0.075
12.139,-0.350,0.085
12.142,-0.350,0.065
12.144,-0.360,0.035
12.147,-0.385,0.020
12.150,-0.385,0.010
12.153,-0.390,0.030
12.156,-0.400,0.055
12.158,-0.410,0.050
12.161,-0.405,0.050
12.164,-0.380,0.035
12.167,-0.385,0.040
12.169,-0.375,0.045
12.172,-0.395,0.075
12.175,-0.375,0.060
12.178,-0.380,0.050
12.181,-0.375,0.020
12.183,-0.385,-0.005
12.186,-0.405,-0.005
12.189,-0.430,0.005
12.192,-0.425,0.025
12.194,-0.405,0.030
12.197,-0.350,0.045
12.200,-0.250,0.050
12.203,-0.115,0.035
12.206,0.060,0.045
12.208,0.280,0.035
12.211,0.520,0.020
12.214,0.775,0.045
12.217,1.030,0.105
12.219,1.245,0.220
12.222,1.380,0.355
12.225,1.415,0.485
12.228,1.315,0.570
12.231,1.120,0.595
12.233,0.820,0.545
12.236,0.480,0.430
12.239,0.145,0.285
12.242,-0.110,0.120
12.244,-0.295,-0.015
12.247,-0.415,-0.105
12.250,-0.470,-0.130
12.253,-0.460,-0.095
12.256,-0.425,-0.025
12.258,-0.385,0.030
12.261,-0.355,0.065
12.264,-0.340,0.065
12.267,-0.345,0.055
12.269,-0.380,0.050
12.272,-0.415,0.050
12.275,-0.440,0.045
12.278,-0.475,0.030
12.281,-0.485,0.025
12.283,-0.480,0.010
12.286,-0.480,0.020
12.289,-0.490,0.035
12.292,-0.470,0.045
12.294,-0.455,0.035
12.297,-0.445,0.035
12.300,-0.440,0.025
12.303,-0.440,0.015
12.306,-0.450,0.035
12.308,-0.450,0.035
12.311,-0.460,0.035
12.314,-0.470,0.020
12.317,-0.470,0.000
12.319,-0.475,0.000
12.322,-0.470,0.010
12.325,-0.460,0.035
12.328,-0.455,0.050
12.331,-0.445,0.055
12.333,-0.435,0.040
12.336,-0.435,0.020
12.339,-0.435,0.015
12.342,-0.455,0.025
12.344,-0.455,0.015
12.347,-0.450,0.000
12.350,-0.475,-0.010
12.353,-0.465,-0.025
12.356,-0.450,-0.015
12.358,-0.450,0.000
12.361,-0.460,0.025
12.364,-0.440,0.020
12.367,-0.425,0.025
12.369,-0.410,0.005
12.372,-0.410,0.005
12.375,-0.415,0.000
12.378,-0.430,0.010
12.381,-0.420,-0.015
12.383,-0.430,-0.030
12.386,-0.425,-0.040
12.389,-0.425,-0.045
12.392,-0.420,-0.045
12.394,-0.415,-0.020
12.397,-0.410,-0.015
12.400,-0.390,-0.010
12.403,-0.390,-0.045
12.406,-0.385,-0.055
12.408,-0.375,-0.055
12.411,-0.380,-0.060
12.414,-0.390,-0.075
12.417,-0.395,-0.080
12.419,-0.400,-0.095
12.422,-0.410,-0.105
12.425,-0.390,-0.095
12.428,-0.380,-0.065
12.431,-0.380,-0.055
12.433,-0.360,-0.055
12.436,-0.360,-0.090
12.439,-0.340,-0.090
12.442,-0.335,-0.100
12.444,-0.340,-0.095
12.447,-0.340,-0.090
12.450,-0.345,-0.080
12.453,-0.350,-0.115
12.456,-0.350,-0.110
12.458,-0.355,-0.105
12.461,-0.345,-0.100
12.464,-0.360,-0.070
12.467,-0.355,-0.080
12.469,-0.360,-0.100
12.472,-0.350,-0.120
12.475,-0.345,-0.110
12.478,-0.345,-0.105
12.481,-0.340,-0.090
12.483,-0.335,-0.085
12.486,-0.335,-0.090
12.489,-0.320,-0.085
12.492,-0.310,-0.070
12.494,-0.315,-0.045
12.497,-0.305,-0.015
12.500,-0.295,0.000
12.503,-0.280,0.020
12.506,-0.270,0.010
12.508,-0.270,0.005
12.511,-0.280,0.005
12.514,-0.275,0.020
12.517,-0.285,0.035
12.519,-0.295,0.030
12.522,-0.275,0.020
12.525,-0.275,0.035
12.528,-0.270,0.040
12.531,-0.250,0.080
12.533,-0.250,0.090
12.536,-0.265,0.110
12.539,-0.255,0.095
12.542,-0.275,0.090
12.544,-0.275,0.060
12.547,-0.290,0.070
12.550,-0.290,0.070
12.553,-0.295,0.080
12.556,-0.300,0.080
12.558,-0.305,0.075
12.561,-0.295,0.075
12.564,-0.280,0.075
12.567,-0.280,0.090
12.569,-0.280,0.090
12.572,-0.275,0.110
12.575,-0.280,0.085
12.578,-0.290,0.065
12.581,-0.300,0.055
12.583,-0.310,0.050
12.586,-0.315,0.075
12.589,-0.310,0.075
12.592,-0.305,0.085
12.594,-0.295,0.060
12.597,-0.285,0.055
12.600,-0.270,0.060
12.603,-0.270,0.065
12.606,-0.270,0.100
12.608,-0.270,0.085
12.611,-0.270,0.075
12.614,-0.280,0.055
12.617,-0.285,0.050
12.619,-0.300,0.055
12.622,-0.305,0.070
12.625,-0.310,0.100
12.628,-0.305,0.090
12.631,-0.285,0.075
12.633,-0.275,0.070
12.636,-0.265,0.060
12.639,-0.260,0.080
12.642,-0.265,0.090
12.644,-0.260,0.085
12.647,-0.265,0.065
12.650,-0.265,0.050
12.653,-0.275,0.050
12.656,-0.290,0.060
12.658,-0.295,0.085
12.661,-0.280,0.090
12.664,-0.275,0.095
12.667,-0.265,0.080
12.669,-0.265,0.080
12.672,-0.265,0.075
12.675,-0.250,0.085
12.678,-0.270,0.065
12.681,-0.270,0.060
12.683,-0.265,0.055
12.686,-0.260,0.040
12.689,-0.270,0.060
12.692,-0.270,0.060
12.694,-0.280,0.075
12.697,-0.275,0.095
12.700,-0.275,0.090
12.703,-0.270,0.065
12.706,-0.270,0.065
12.708,-0.275,0.065
12.711,-0.275,0.075
12.714,-0.290,0.090
12.717,-0.285,0.075
12.719,-0.275,0.070
12.722,-0.270,0.055
12.725,-0.260,0.085
12.728,-0.245,0.110
12.731,-0.230,0.130
12.733,-0.230,0.140
12.736,-0.230,0.140
12.739,-0.225,0.125
12.742,-0.215,0.120
12.744,-0.205,0.125
12.747,-0.210,0.140
12.750,-0.215,0.140
12.753,-0.190,0.125
12.756,-0.170,0.090
12.758,-0.150,0.080
12.761,-0.115,0.075
12.764,-0.110,0.090
12.767,-0.105,0.095
12.769,-0.110,0.090
12.772,-0.110,0.075
12.775,-0.120,0.055
12.778,-0.130,0.050
12.781,-0.130,0.055
12.783,-0.145,0.060
12.786,-0.155,0.065
12.789,-0.150,0.050
12.792,-0.160,0.045
12.794,-0.185,0.035
12.797,-0.200,0.050
12.800,-0.205,0.070
12.803,-0.230,0.080
12.806,-0.245,0.085
12.808,-0.265,0.055
12.811,-0.285,0.050
12.814,-0.315,0.040
12.817,-0.345,0.045
12.819,-0.355,0.050
12.822,-0.370,0.065
12.825,-0.365,0.050
12.828,-0.355,0.040
12.831,-0.350,0.045
12.833,-0.335,0.060
12.836,-0.340,0.060
12.839,-0.360,0.055
12.842,-0.365,0.030
12.844,-0.370,0.005
12.847,-0.380,0.005
12.850,-0.390,0.020
12.853,-0.410,0.035
12.856,-0.405,0.045
12.858,-0.405,0.045
12.861,-0.415,0.035
12.864,-0.420,0.035
12.867,-0.415,0.030
12.869,-0.420,0.030
12.872,-0.405,0.045
12.875,-0.375,0.035
12.878,-0.310,0.030
12.881,-0.220,0.000
12.883,-0.105,-0.015
12.886,0.055,-0.035
12.889,0.275,-0.025
12.892,0.515,-0.015
12.894,0.795,0.015
12.897,1.060,0.100
12.900,1.285,0.185
12.903,1.450,0.280
12.906,1.490,0.390
12.908,1.395,0.460
12.911,1.190,0.480
12.914,0.890,0.450
12.917,0.550,0.355
12.919,0.210,0.235
12.922,-0.050,0.110
12.925,-0.240,0.005
12.928,-0.350,-0.075
12.931,-0.400,-0.110
12.933,-0.395,-0.100
12.936,-0.390,-0.050
12.939,-0.380,0.010
12.942,-0.370,0.040
12.944,-0.370,0.035
12.947,-0.385,0.020
12.950,-0.415,0.010
12.953,-0.430,-0.005
12.956,-0.460,0.020
12.958,-0.475,0.010
12.961,-0.470,0.015
12.964,-0.465,0.025
12.967,-0.460,0.025
12.969,-0.460,0.045
12.972,-0.460,0.050
12.975,-0.470,0.060
12.978,-0.475,0.045
12.981,-0.480,0.010
12.983,-0.485,-0.005
12.986,-0.480,0.000
12.989,-0.475,0.010
12.992,-0.470,0.030
12.994,-0.460,0.035
12.997,-0.480,0.025
13.000,-0.440,0.010
13.003,-0.445,0.005
13.006,-0.465,0.015
13.008,-0.480,0.020
13.011,-0.475,0.010
13.014,-0.470,-0.005
13.017,-0.470,-0.015
13.019,-0.475,-0.015
13.022,-0.475,-0.020
13.025,-0.460,0.010
13.028,-0.465,0.000
13.031,-0.455,0.000
13.033,-0.450,0.000
13.036,-0.445,0.000
13.039,-0.465,0.020
13.042,-0.465,0.015
13.044,-0.475,-0.020
13.047,-0.480,-0.040
13.050,-0.475,-0.050
13.053,-0.475,-0.060
13.056,-0.460,-0.040
13.058,-0.450,-0.020
13.061,-0.435,-0.045
13.064,-0.430,-0.040
13.067,-0.415,-0.040
13.069,-0.410,-0.035
13.072,-0.420,-0.030
13.075,-0.420,-0.040
13.078,-0.445,-0.060
13.081,-0.440,-0.095
13.083,-0.435,-0.105
13.086,-0.445,-0.100
13.089,-0.430,-0.085
13.092,-0.425,-0.070
13.094,-0.400,-0.090
13.097,-0.390,-0.090
13.100,-0.380,-0.070
13.103,-0.375,-0.075
13.106,-0.380,-0.080
13.108,-0.385,-0.100
13.111,-0.380,-0.120
13.114,-0.380,-0.135
13.117,-0.380,-0.135
13.119,-0.395,-0.120
13.122,-0.395,-0.115
13.125,-0.385,-0.120
13.128,-0.365,-0.125
13.131,-0.355,-0.130
13.133,-0.355,-0.140
13.136,-0.355,-0.120
13.139,-0.360,-0.105
13.142,-0.360,-0.095
13.144,-0.370,-0.125
13.147,-0.370,-0.130
13.150,-0.385,-0.120
13.153,-0.380,-0.090
13.156,-0.375,-0.090
13.158,-0.365,-0.095
13.161,-0.340,-0.095
13.164,-0.335,-0.075
13.167,-0.330,-0.050
13.169,-0.320,-0.035
13.172,-0.305,-0.015
13.175,-0.295,-0.015
13.178,-0.295,-0.025
13.181,-0.310,-0.015
13.183,-0.305,0.005
13.186,-0.315,0.030
13.189,-0.310,0.040
13.192,-0.310,0.040
13.194,-0.315,0.045
13.197,-0.315,0.050
13.200,-0.305,0.075
13.203,-0.315,0.080
13.206,-0.300,0.075
13.208,-0.320,0.055
13.211,-0.320,0.030
13.214,-0.315,0.035
13.217,-0.325,0.030
13.219,-0.335,0.050
13.222,-0.335,0.050
13.225,-0.320,0.060
13.228,-0.310,0.060
13.231,-0.325,0.055
13.233,-0.320,0.060
13.236,-0.315,0.075
13.239,-0.320,0.065
13.242,-0.330,0.035
13.244,-0.335,0.030
13.247,-0.335,0.035
13.250,-0.350,0.045
13.253,-0.360,0.055
13.256,-0.345,0.070
13.258,-0.340,0.065
13.261,-0.330,0.050
13.264,-0.320,0.060
13.267,-0.310,0.075
13.269,-0.315,0.080
13.272,-0.310,0.070
13.275,-0.325,0.055
13.278,-0.325,0.035
13.281,-0.350,0.025
13.283,-0.350,0.035
13.286,-0.350,0.025
13.289,-0.330,0.030
13.292,-0.320,0.035
13.294,-0.310,0.025
13.297,-0.310,0.040
13.300,-0.300,0.060
13.303,-0.310,0.075
13.306,-0.305,0.080
13.308,-0.315,0.055
13.311,-0.310,0.035
13.314,-0.320,0.020
13.317,-0.340,0.010
13.319,-0.340,0.040
13.322,-0.355,0.050
13.325,-0.345,0.050
13.328,-0.330,0.045
13.331,-0.315,0.045
13.333,-0.300,0.045
13.336,-0.295,0.050
13.339,-0.305,0.075
13.342,-0.305,0.060
13.344,-0.315,0.050
13.347,-0.320,0.030
13.350,-0.325,0.030
13.353,-0.335,0.035
13.356,-0.335,0.040
13.358,-0.330,0.050
13.361,-0.320,0.030
13.364,-0.315,0.045
13.367,-0.305,0.050
13.369,-0.300,0.070
13.372,-0.300,0.080
13.375,-0.300,0.080
13.378,-0.310,0.065
13.381,-0.300,0.050
13.383,-0.305,0.055
13.386,-0.295,0.065
13.389,-0.290,0.100
13.392,-0.285,0.130
13.394,-0.275,0.125
13.397,-0.260,0.120
13.400,-0.235,0.105
13.403,-0.225,0.100
13.406,-0.210,0.115
13.408,-0.210,0.105
13.411,-0.195,0.090
13.414,-0.175,0.080
13.417,-0.155,0.050
13.419,-0.150,0.055
13.422,-0.160,0.055
13.425,-0.165,0.055
13.428,-0.170,0.060
13.431,-0.165,0.050
13.433,-0.160,0.060
13.436,-0.160,0.045
13.439,-0.165,0.065
13.442,-0.180,0.070
13.444,-0.180,0.040
13.447,-0.200,0.025
13.450,-0.230,-0.015
13.453,-0.250,0.000
13.456,-0.280,0.010
13.458,-0.300,0.040
13.461,-0.305,0.050
13.464,-0.310,0.045
13.467,-0.325,0.050
13.469,-0.360,0.030
13.472,-0.380,0.040
13.475,-0.380,0.030
13.478,-0.395,0.010
13.481,-0.390,-0.010
13.483,-0.390,-0.015
13.486,-0.400,0.005
13.489,-0.395,0.030
13.492,-0.405,0.025
13.494,-0.405,0.015
13.497,-0.405,0.010
13.500,-0.410,0.020
13.503,-0.410,0.020
13.506,-0.415,0.050
13.508,-0.415,0.050
13.511,-0.425,0.030
13.514,-0.425,-0.015
13.517,-0.445,-0.040
13.519,-0.455,-0.065
13.522,-0.450,-0.040
13.525,-0.440,0.000
13.528,-0.410,0.020
13.531,-0.335,0.020
13.533,-0.245,0.005
13.536,-0.130,-0.025
13.539,0.020,-0.050
13.542,0.215,-0.065
13.544,0.435,-0.050
13.547,0.715,-0.020
13.550,0.990,0.045
13.553,1.240,0.130
13.556,1.375,0.270
13.558,1.405,0.390
13.561,1.295,0.485
13.564,1.060,0.520
13.567,0.765,0.475
13.569,0.440,0.355
13.572,0.115,0.185
13.575,-0.145,0.050
13.578,-0.335,-0.065
13.581,-0.435,-0.130
13.583,-0.470,-0.155
13.586,-0.465,-0.120
13.589,-0.435,-0.075
13.592,-0.410,-0.015
13.594,-0.385,0.005
13.597,-0.395,0.030
13.600,-0.405,0.010
13.603,-0.430,0.005
13.606,-0.450,-0.010
13.608,-0.480,-0.005
13.611,-0.505,0.010
13.614,-0.505,0.010
13.617,-0.515,0.005
13.619,-0.520,-0.005
13.622,-0.520,-0.010
13.625,-0.520,0.010
13.628,-0.515,0.025
13.631,-0.510,0.025
13.633,-0.505,0.030
13.636,-0.500,-0.010
13.639,-0.490,-0.025
13.642,-0.495,-0.030
13.644,-0.500,-0.020
13.647,-0.505,-0.020
13.650,-0.510,-0.020
13.653,-0.520,-0.020
13.656,-0.515,-0.025
13.658,-0.500,-0.025
13.661,-0.515,-0.010
13.664,-0.515,0.010
13.667,-0.515,0.010
13.669,-0.510,0.010
13.672,-0.475,-0.015
13.675,-0.475,-0.015
13.678,-0.485,-0.015
13.681,-0.490,-0.005
13.683,-0.500,-0.020
13.686,-0.505,-0.030
13.689,-0.500,-0.045
13.692,-0.495,-0.045
13.694,-0.490,-0.030
13.697,-0.475,-0.010
13.700,-0.475,-0.005
13.703,-0.465,-0.025
13.706,-0.460,-0.040
13.708,-0.445,-0.045
13.711,-0.450,-0.055
13.714,-0.450,-0.050
13.717,-0.465,-0.055
13.719,-0.460,-0.070
13.722,-0.455,-0.085
13.725,-0.460,-0.085
13.728,-0.450,-0.060
13.731,-0.440,-0.040
13.733,-0.430,-0.040
13.736,-0.445,-0.050
13.739,-0.425,-0.080
13.742,-0.420,-0.085
13.744,-0.425,-0.115
13.747,-0.420,-0.105
13.750,-0.425,-0.125
13.753,-0.420,-0.125
13.756,-0.425,-0.160
13.758,-0.405,-0.125
13.761,-0.405,-0.120
13.764,-0.400,-0.115
13.767,-0.385,-0.100
13.769,-0.380,-0.110
13.772,-0.380,-0.125
13.775,-0.380,-0.125
13.778,-0.385,-0.130
13.781,-0.385,-0.135
13.783,-0.395,-0.155
13.786,-0.400,-0.160
13.789,-0.385,-0.160
13.792,-0.390,-0.135
13.794,-0.385,-0.115
13.797,-0.375,-0.090
13.800,-0.375,-0.110
13.803,-0.375,-0.125
13.806,-0.375,-0.125
13.808,-0.380,-0.120
13.811,-0.380,-0.105
13.814,-0.380,-0.100
13.817,-0.370,-0.115
13.819,-0.360,-0.105
13.822,-0.360,-0.090
13.825,-0.340,-0.060
13.828,-0.330,-0.040
13.831,-0.320,-0.015
13.833,-0.305,-0.015
13.836,-0.300,-0.010
13.839,-0.310,0.005
13.842,-0.295,0.020
13.844,-0.310,0.025
13.847,-0.325,0.020
13.850,-0.320,0.010
13.853,-0.310,0.005
13.856,-0.300,0.025
13.858,-0.315,0.035
13.861,-0.310,0.050
13.864,-0.305,0.070
13.867,-0.310,0.055
13.869,-0.305,0.045
13.872,-0.315,0.050
13.875,-0.330,0.055
13.878,-0.345,0.060
13.881,-0.345,0.040
13.883,-0.345,0.030
13.886,-0.355,0.020
13.889,-0.340,0.045
13.892,-0.345,0.060
13.894,-0.330,0.065
13.897,-0.330,0.035
13.900,-0.330,0.045
13.903,-0.320,0.035
13.906,-0.330,0.040
13.908,-0.335,0.040
13.911,-0.350,0.035
13.914,-0.350,0.025
13.917,-0.345,0.025
13.919,-0.350,0.030
13.922,-0.345,0.040
13.925,-0.345,0.055
13.928,-0.340,0.045
13.931,-0.320,0.030
13.933,-0.320,0.040
13.936,-0.320,0.035
13.939,-0.330,0.040
13.942,-0.340,0.040
13.944,-0.335,0.025
13.947,-0.330,0.015
13.950,-0.340,0.010
13.953,-0.345,0.025
13.956,-0.355,0.050
13.958,-0.340,0.050
13.961,-0.330,0.040
13.964,-0.325,0.045
13.967,-0.320,0.040
13.969,-0.325,0.060
13.972,-0.320,0.050
13.975,-0.320,0.040
13.978,-0.330,0.020
13.981,-0.320,0.010
13.983,-0.335,0.015
13.986,-0.340,0.025
13.989,-0.350,0.020
13.992,-0.345,0.030
13.994,-0.330,0.020
13.997,-0.310,0.030
14.000,-0.320,0.065
14.003,-0.315,0.070
14.006,-0.320,0.060
14.008,-0.335,0.045
14.011,-0.340,0.040
14.014,-0.330,0.040
14.017,-0.335,0.055
14.019,-0.340,0.065
14.022,-0.320,0.070
14.025,-0.305,0.065
14.028,-0.285,0.075
14.031,-0.265,0.095
14.033,-0.240,0.105
14.036,-0.230,0.110
14.039,-0.240,0.085
14.042,-0.225,0.085
14.044,-0.230,0.075
14.047,-0.230,0.070
14.050,-0.210,0.080
14.053,-0.195,0.060
14.056,-0.165,0.035
14.058,-0.170,0.025
14.061,-0.165,0.050
14.064,-0.160,0.070
14.067,-0.155,0.065
14.069,-0.165,0.055
14.072,-0.170,0.050
14.075,-0.180,0.030
14.078,-0.195,0.015
14.081,-0.230,0.005
14.083,-0.235,0.010
14.086,-0.260,-0.005
14.089,-0.290,-0.005
14.092,-0.305,0.000
14.094,-0.310,0.015
14.097,-0.315,0.040
14.100,-0.320,0.055
14.103,-0.325,0.035
14.106,-0.345,0.015
14.108,-0.350,0.010
14.111,-0.380,0.020
14.114,-0.380,0.025
14.117,-0.400,0.020
14.119,-0.405,0.000
14.122,-0.410,-0.005
14.125,-0.410,0.000
14.128,-0.415,0.020
14.131,-0.410,0.030
14.133,-0.395,0.035
14.136,-0.385,0.015
14.139,-0.380,0.010
14.142,-0.380,0.010
14.144,-0.390,0.015
14.147,-0.405,0.005
14.150,-0.420,-0.025
14.153,-0.445,-0.045
14.156,-0.455,-0.065
14.158,-0.445,-0.035
14.161,-0.410,0.000
14.164,-0.340,0.015
14.167,-0.245,0.020
14.169,-0.080,-0.030
14.172,0.105,-0.070
14.175,0.325,-0.090
14.178,0.585,-0.030
14.181,0.820,0.045
14.183,1.060,0.145
14.186,1.245,0.260
14.189,1.315,0.375
14.192,1.285,0.495
14.194,1.105,0.580
14.197,0.830,0.585
14.200,0.500,0.500
14.203,0.195,0.325
14.206,-0.070,0.150
14.208,-0.270,-0.015
14.211,-0.400,-0.115
14.214,-0.450,-0.140
14.217,-0.455,-0.125
14.219,-0.420,-0.080
14.222,-0.385,-0.030
14.225,-0.375,0.020
14.228,-0.375,0.045
14.231,-0.405,0.065
14.233,-0.430,0.050
14.236,-0.450,0.025
14.239,-0.450,0.005
14.242,-0.460,-0.005
14.244,-0.480,-0.005
14.247,-0.480,0.005
14.250,-0.480,-0.005
14.253,-0.470,-0.030
14.256,-0.470,-0.020
14.258,-0.460,-0.015
14.261,-0.475,0.000
14.264,-0.470,0.015
14.267,-0.455,0.015
14.269,-0.445,-0.010
14.272,-0.450,-0.010
14.275,-0.450,-0.015
14.278,-0.460,-0.005
14.281,-0.455,-0.010
14.283,-0.460,-0.020
14.286,-0.475,-0.035
14.289,-0.465,-0.035
14.292,-0.465,-0.015
14.294,-0.450,0.000
14.297,-0.445,0.015
14.300,-0.450,0.005
14.303,-0.435,0.005
14.306,-0.435,-0.010
14.308,-0.435,-0.015
14.311,-0.435,-0.010
14.314,-0.445,-0.025
14.317,-0.440,-0.025
14.319,-0.435,-0.050
14.322,-0.420,-0.070
14.325,-0.430,-0.070
14.328,-0.435,-0.045
14.331,-0.420,-0.025
14.333,-0.425,-0.020
14.336,-0.420,-0.050
14.339,-0.425,-0.055
14.342,-0.425,-0.055
14.344,-0.430,-0.045
14.347,-0.440,-0.040
14.350,-0.430,-0.045
14.353,-0.425,-0.075
14.356,-0.410,-0.085
14.358,-0.420,-0.090
14.361,-0.410,-0.080
14.364,-0.405,-0.065
14.367,-0.395,-0.070
14.369,-0.380,-0.080
14.372,-0.385,-0.090
14.375,-0.380,-0.110
14.378,-0.385,-0.110
14.381,-0.380,-0.115
14.383,-0.400,-0.110
14.386,-0.400,-0.130
14.389,-0.380,-0.150
14.392,-0.370,-0.150
14.394,-0.375,-0.130
14.397,-0.350,-0.105
14.400,-0.355,-0.090
14.403,-0.345,-0.100
14.406,-0.345,-0.125
14.408,-0.350,-0.150
14.411,-0.360,-0.135
14.414,-0.380,-0.145
14.417,-0.385,-0.140
14.419,-0.375,-0.145
14.422,-0.370,-0.145
14.425,-0.355,-0.150
14.428,-0.350,-0.140
14.431,-0.340,-0.115
14.433,-0.325,-0.100
14.436,-0.335,-0.080
14.439,-0.320,-0.105
14.442,-0.320,-0.120
14.444,-0.345,-0.130
14.447,-0.345,-0.120
14.450,-0.350,-0.095
14.453,-0.345,-0.080
14.456,-0.330,-0.070
14.458,-0.325,-0.085
14.461,-0.310,-0.055
14.464,-0.295,-0.040
14.467,-0.300,-0.020
14.469,-0.270,0.000
14.472,-0.265,-0.010
14.475,-0.255,0.000
14.478,-0.260,-0.005
14.481,-0.265,0.030
14.483,-0.275,0.035
14.486,-0.285,0.040
14.489,-0.290,0.025
14.492,-0.295,0.025
14.494,-0.300,0.015
14.497,-0.305,0.035
14.500,-0.305,0.050
14.503,-0.280,0.070
14.506,-0.290,0.070
14.508,-0.280,0.045
14.511,-0.280,0.030
14.514,-0.295,0.025
14.517,-0.300,0.040
14.519,-0.305,0.055
14.522,-0.315,0.055
14.525,-0.310,0.050
14.528,-0.305,0.050
14.531,-0.310,0.070
14.533,-0.300,0.075
14.536,-0.295,0.070
14.539,-0.295,0.055
14.542,-0.290,0.040
14.544,-0.290,0.030
14.547,-0.295,0.035
14.550,-0.295,0.035
14.553,-0.300,0.055
14.556,-0.310,0.045
14.558,-0.295,0.040
14.561,-0.310,0.030
14.564,-0.295,0.040
14.567,-0.290,0.065
14.569,-0.270,0.065
14.572,-0.285,0.050
14.575,-0.295,0.055
14.578,-0.310,0.055
14.581,-0.305,0.055
14.583,-0.295,0.070
14.586,-0.305,0.055
14.589,-0.300,0.030
14.592,-0.295,0.020
14.594,-0.290,0.025
14.597,-0.295,0.045
14.600,-0.290,0.070
14.603,-0.290,0.065
14.606,-0.290,0.060
14.608,-0.295,0.060
14.611,-0.295,0.045
14.614,-0.295,0.040
14.617,-0.300,0.050
14.619,-0.295,0.030
14.622,-0.290,0.030
14.625,-0.290,0.025
14.628,-0.285,0.040
14.631,-0.290,0.050
14.633,-0.300,0.065
14.636,-0.295,0.065
14.639,-0.305,0.045
14.642,-0.295,0.050
14.644,-0.295,0.055
14.647,-0.305,0.050
14.650,-0.295,0.060
14.653,-0.300,0.040
14.656,-0.285,0.040
14.658,-0.280,0.040
14.661,-0.270,0.060
14.664,-0.270,0.095
14.667,-0.260,0.105
14.669,-0.250,0.105
14.672,-0.245,0.095
14.675,-0.225,0.090
14.678,-0.225,0.090
14.681,-0.210,0.105
14.683,-0.205,0.105
14.686,-0.200,0.080
14.689,-0.175,0.060
14.692,-0.160,0.060
14.694,-0.145,0.080
14.697,-0.130,0.080
14.700,-0.115,0.085
14.703,-0.110,0.065
14.706,-0.110,0.060
14.708,-0.125,0.045
14.711,-0.135,0.050
14.714,-0.135,0.050
14.717,-0.150,0.035
14.719,-0.145,0.020
14.722,-0.160,-0.005
14.725,-0.180,-0.005
14.728,-0.195,0.015
14.731,-0.225,0.030
14.733,-0.240,0.050
14.736,-0.255,0.030
14.739,-0.275,0.030
14.742,-0.295,0.030
14.744,-0.315,0.040
14.747,-0.330,0.050
14.750,-0.350,0.025
14.753,-0.360,0.015
14.756,-0.365,0.005
14.758,-0.360,0.010
14.761,-0.345,0.030
14.764,-0.350,0.050
14.767,-0.335,0.055
14.769,-0.345,0.030
14.772,-0.350,0.030
14.775,-0.355,0.025
14.778,-0.375,0.015
14.781,-0.385,0.020
14.783,-0.380,0.005
14.786,-0.385,-0.005
14.789,-0.395,-0.005
14.792,-0.395,-0.010
14.794,-0.400,0.000
14.797,-0.400,0.005
14.800,-0.375,0.015
14.803,-0.345,0.015
14.806,-0.280,0.015
14.808,-0.195,-0.005
14.811,-0.065,-0.020
14.814,0.120,-0.050
14.817,0.330,-0.070
14.819,0.585,-0.035
14.822,0.860,0.035
14.825,1.120,0.180
14.828,1.310,0.320
14.831,1.400,0.465
14.833,1.350,0.575
14.836,1.180,0.615
14.839,0.885,0.610
14.842,0.550,0.505
14.844,0.205,0.360
14.847,-0.095,0.155
14.850,-0.300,-0.015
14.853,-0.415,-0.140
14.856,-0.460,-0.160
14.858,-0.455,-0.130
14.861,-0.415,-0.045
14.864,-0.355,0.025
14.867,-0.325,0.045
14.869,-0.310,0.060
14.872,-0.355,0.050
14.875,-0.385,0.035
14.878,-0.410,0.025
14.881,-0.435,0.015
14.883,-0.445,0.000
14.886,-0.455,-0.030
14.889,-0.465,-0.020
14.892,-0.455,0.000
14.894,-0.445,0.015
14.897,-0.435,0.030
14.900,-0.440,0.025
14.903,-0.420,0.020
14.906,-0.415,0.015
14.908,-0.425,0.010
14.911,-0.425,0.010
14.914,-0.435,0.005
14.917,-0.440,-0.010
14.919,-0.445,-0.025
14.922,-0.450,-0.015
14.925,-0.470,0.000
14.928,-0.455,0.005
14.931,-0.445,0.015
14.933,-0.455,0.025
14.936,-0.435,0.005
14.939,-0.430,-0.010
14.942,-0.425,-0.010
14.944,-0.430,-0.005
14.947,-0.425,0.000
14.950,-0.430,-0.015
14.953,-0.435,-0.030
14.956,-0.440,-0.040
14.958,-0.430,-0.025
14.961,-0.430,0.000
14.964,-0.440,0.000
14.967,-0.430,0.010
14.969,-0.415,-0.005
14.972,-0.410,-0.040
14.975,-0.405,-0.055
14.978,-0.415,-0.055
14.981,-0.420,-0.045
14.983,-0.430,-0.040
14.986,-0.425,-0.045
14.989,-0.400,-0.065
14.992,-0.405,-0.055
14.994,-0.400,-0.060
14.997,-0.405,-0.035
15.000,-0.400,-0.020
15.003,-0.385,-0.040
15.006,-0.375,-0.045
15.008,-0.390,-0.075
15.011,-0.375,-0.095
15.014,-0.380,-0.090
15.017,-0.385,-0.095
15.019,-0.380,-0.110
15.022,-0.370,-0.120
15.025,-0.365,-0.115
15.028,-0.350,-0.105
15.031,-0.355,-0.080
15.033,-0.350,-0.075
15.036,-0.350,-0.085
15.039,-0.355,-0.125
15.042,-0.345,-0.140
15.044,-0.345,-0.130
15.047,-0.370,-0.135
15.050,-0.355,-0.110
15.053,-0.360,-0.125
15.056,-0.355,-0.130
15.058,-0.345,-0.135
15.061,-0.325,-0.125
15.064,-0.325,-0.105
15.067,-0.330,-0.095
15.069,-0.320,-0.100
15.072,-0.320,-0.110
15.075,-0.330,-0.135
15.078,-0.335,-0.140
15.081,-0.335,-0.125
15.083,-0.355,-0.115
15.086,-0.350,-0.110
15.089,-0.340,-0.115
15.092,-0.325,-0.105
15.094,-0.305,-0.095
15.097,-0.295,-0.065
15.100,-0.275,-0.030
15.103,-0.260,-0.020
15.106,-0.250,-0.030
15.108,-0.265,-0.025
15.111,-0.265,-0.030
15.114,-0.255,-0.005
15.117,-0.265,0.025
15.119,-0.280,0.025
15.122,-0.275,0.015
15.125,-0.285,0.020
15.128,-0.285,0.030
15.131,-0.280,0.040
15.133,-0.270,0.065
15.136,-0.260,0.065
15.139,-0.270,0.070
15.142,-0.260,0.055
15.144,-0.265,0.050
15.147,-0.275,0.055
15.150,-0.285,0.065
15.153,-0.290,0.065
15.156,-0.300,0.070
15.158,-0.295,0.055
15.161,-0.285,0.050
15.164,-0.275,0.060
15.167,-0.270,0.090
15.169,-0.265,0.095
15.172,-0.265,0.085
15.175,-0.270,0.065
15.178,-0.285,0.040
15.181,-0.310,0.035
15.183,-0.315,0.035
15.186,-0.325,0.050
15.189,-0.315,0.050
15.192,-0.310,0.050
15.194,-0.295,0.045
15.197,-0.285,0.075
15.200,-0.280,0.075
15.203,-0.275,0.090
15.206,-0.290,0.090
15.208,-0.280,0.065
15.211,-0.280,0.035
15.214,-0.285,0.025
15.217,-0.285,0.025
15.219,-0.290,0.055
15.222,-0.310,0.065
15.225,-0.310,0.065
15.228,-0.305,0.055
15.231,-0.280,0.045
15.233,-0.285,0.040
15.236,-0.285,0.060
15.239,-0.280,0.060
15.242,-0.280,0.070
15.244,-0.280,0.050
15.247,-0.270,0.040
15.250,-0.275,0.030
15.253,-0.285,0.030
15.256,-0.290,0.055
15.258,-0.290,0.055
15.261,-0.295,0.050
15.264,-0.295,0.045
15.267,-0.280,0.040
15.269,-0.280,0.055
15.272,-0.305,0.070
15.275,-0.290,0.085
15.278,-0.295,0.070
15.281,-0.290,0.050
15.283,-0.290,0.030
15.286,-0.290,0.040
15.289,-0.290,0.050
15.292,-0.285,0.075
15.294,-0.290,0.080
15.297,-0.290,0.070
15.300,-0.280,0.070
15.303,-0.270,0.060
15.306,-0.275,0.065
15.308,-0.280,0.080
15.311,-0.280,0.075
15.314,-0.275,0.080
15.317,-0.270,0.060
15.319,-0.255,0.065
15.322,-0.250,0.090
15.325,-0.240,0.105
15.328,-0.225,0.135
15.331,-0.205,0.135
15.333,-0.195,0.120
15.336,-0.185,0.120
15.339,-0.185,0.115
15.342,-0.180,0.115
15.344,-0.170,0.120
15.347,-0.150,0.100
15.350,-0.140,0.080
15.353,-0.135,0.060
15.356,-0.140,0.060
15.358,-0.150,0.070
15.361,-0.140,0.080
15.364,-0.145,0.080
15.367,-0.145,0.065
15.369,-0.130,0.055
15.372,-0.140,0.055
15.375,-0.160,0.050
15.378,-0.190,0.040
15.381,-0.220,0.040
15.383,-0.250,0.020
15.386,-0.270,0.015
15.389,-0.280,0.040
15.392,-0.300,0.070
15.394,-0.310,0.080
15.397,-0.305,0.075
15.400,-0.310,0.070
15.403,-0.310,0.065
15.406,-0.325,0.075
15.408,-0.340,0.065
15.411,-0.360,0.060
15.414,-0.370,0.040
15.417,-0.370,0.030
15.419,-0.375,0.015
15.422,-0.380,0.020
15.425,-0.400,0.050
15.428,-0.390,0.045
15.431,-0.390,0.035
15.433,-0.375,0.045
15.436,-0.350,0.045
15.439,-0.360,0.060
15.442,-0.365,0.055
15.444,-0.385,0.025
15.447,-0.420,0.000
15.450,-0.435,-0.010
15.453,-0.420,0.005
15.456,-0.380,0.020
15.458,-0.285,0.015
15.461,-0.145,0.000
15.464,0.060,-0.020
15.467,0.310,-0.015
15.469,0.605,0.035
15.472,0.915,0.125
15.475,1.180,0.230
15.478,1.350,0.365
15.481,1.385,0.495
15.483,1.230,0.590
15.486,0.965,0.615
15.489,0.600,0.530
15.492,0.220,0.370
15.494,-0.090,0.185
15.497,-0.320,0.050
15.500,-0.425,-0.055
15.503,-0.460,-0.090
15.506,-0.445,-0.075
15.508,-0.405,-0.040
15.511,-0.370,0.005
15.514,-0.370,0.065
15.517,-0.375,0.080
15.519,-0.415,0.080
15.522,-0.445,0.060
15.525,-0.460,0.025
15.528,-0.465,0.015
15.531,-0.470,0.035
15.533,-0.475,0.045
15.536,-0.460,0.045
15.539,-0.440,0.030
15.542,-0.435,0.020
15.544,-0.450,0.010
15.547,-0.470,0.035
15.550,-0.470,0.040
15.553,-0.475,0.030
15.556,-0.485,0.010
15.558,-0.475,0.015
15.561,-0.470,0.025
15.564,-0.460,0.040
15.567,-0.455,0.055
15.569,-0.445,0.035
15.572,-0.435,0.025
15.575,-0.440,0.025
15.578,-0.440,0.035
15.581,-0.455,0.045
15.583,-0.455,0.020
15.586,-0.460,0.000
15.589,-0.455,-0.020
15.592,-0.460,-0.020
15.594,-0.470,0.005
15.597,-0.460,0.010
15.600,-0.435,0.025
15.603,-0.425,0.010
15.606,-0.430,0.000
15.608,-0.420,0.015
15.611,-0.420,0.000
15.614,-0.425,-0.005
15.617,-0.430,-0.015
15.619,-0.450,-0.040
15.622,-0.445,-0.050
15.625,-0.450,-0.045
15.628,-0.435,-0.015
15.631,-0.420,-0.005
15.633,-0.405,-0.005
15.636,-0.390,-0.025
15.639,-0.400,-0.040
15.642,-0.400,-0.040
15.644,-0.395,-0.045
15.647,-0.395,-0.040
15.650,-0.390,-0.065
15.653,-0.385,-0.070
15.656,-0.390,-0.085
15.658,-0.385,-0.100
15.661,-0.370,-0.080
15.664,-0.365,-0.075
15.667,-0.365,-0.065
15.669,-0.360,-0.090
15.672,-0.370,-0.075
15.675,-0.365,-0.085
15.678,-0.365,-0.070
15.681,-0.370,-0.080
15.683,-0.365,-0.090
15.686,-0.360,-0.125
15.689,-0.355,-0.130
15.692,-0.355,-0.110
15.694,-0.345,-0.090
15.697,-0.335,-0.070
15.700,-0.325,-0.070
15.703,-0.325,-0.085
15.706,-0.325,-0.095
15.708,-0.345,-0.100
15.711,-0.345,-0.095
15.714,-0.360,-0.090
15.717,-0.350,-0.095
15.719,-0.355,-0.105
15.722,-0.360,-0.105
15.725,-0.330,-0.090
15.728,-0.320,-0.075
15.731,-0.315,-0.040
15.733,-0.300,-0.025
15.736,-0.290,-0.035
15.739,-0.290,-0.035
15.742,-0.285,-0.020
15.744,-0.280,0.010
15.747,-0.285,0.025
15.750,-0.285,0.035
15.753,-0.285,0.025
15.756,-0.285,0.025
15.758,-0.280,0.020
15.761,-0.270,0.025
15.764,-0.260,0.050
15.767,-0.265,0.060
15.769,-0.245,0.070
15.772,-0.250,0.080
15.775,-0.265,0.070
15.778,-0.270,0.070
15.781,-0.285,0.085
15.783,-0.295,0.085
15.786,-0.300,0.065
15.789,-0.305,0.060
15.792,-0.310,0.055
15.794,-0.300,0.080
15.797,-0.290,0.110
15.800,-0.285,0.130
15.803,-0.275,0.115
15.806,-0.275,0.100
15.808,-0.275,0.090
15.811,-0.280,0.080
15.814,-0.290,0.080
15.817,-0.310,0.095
15.819,-0.310,0.070
15.822,-0.315,0.075
15.825,-0.320,0.060
15.828,-0.325,0.060
15.831,-0.320,0.075
15.833,-0.295,0.080
15.836,-0.280,0.090
15.839,-0.270,0.075
15.842,-0.270,0.070
15.844,-0.290,0.075
15.847,-0.290,0.080
15.850,-0.290,0.090
15.853,-0.310,0.090
15.856,-0.305,0.075
15.858,-0.310,0.070
15.861,-0.305,0.065
15.864,-0.300,0.085
15.867,-0.300,0.110
15.869,-0.290,0.110
15.872,-0.280,0.095
15.875,-0.265,0.090
15.878,-0.260,0.075
15.881,-0.270,0.075
15.883,-0.285,0.080
15.886,-0.295,0.070
15.889,-0.290,0.070
15.892,-0.285,0.065
15.894,-0.290,0.075
15.897,-0.285,0.085
15.900,-0.285,0.115
15.903,-0.285,0.125
15.906,-0.285,0.095
15.908,-0.290,0.075
15.911,-0.280,0.075
15.914,-0.280,0.065
15.917,-0.285,0.085
15.919,-0.300,0.090
15.922,-0.285,0.075
15.925,-0.295,0.080
15.928,-0.295,0.070
15.931,-0.285,0.085
15.933,-0.295,0.110
15.936,-0.290,0.110
15.939,-0.280,0.110
15.942,-0.265,0.100
15.944,-0.255,0.080
15.947,-0.255,0.090
15.950,-0.250,0.115
15.953,-0.245,0.130
15.956,-0.235,0.140
15.958,-0.215,0.130
15.961,-0.195,0.115
15.964,-0.190,0.120
15.967,-0.190,0.145
15.969,-0.180,0.160
15.972,-0.170,0.175
15.975,-0.170,0.155
15.978,-0.150,0.125
15.981,-0.140,0.110
15.983,-0.140,0.105
15.986,-0.125,0.095
15.989,-0.120,0.110
15.992,-0.110,0.105
15.994,-0.105,0.100
15.997,-0.115,0.085
16.000,-0.115,0.100
16.003,-0.115,0.105
16.006,-0.130,0.100
16.008,-0.140,0.075
16.011,-0.150,0.055
16.014,-0.175,0.035
16.017,-0.190,0.030
16.019,-0.215,0.055
16.022,-0.220,0.080
16.025,-0.245,0.090
16.028,-0.240,0.090
16.031,-0.260,0.080
16.033,-0.265,0.085
16.036,-0.275,0.105
16.039,-0.295,0.105
16.042,-0.310,0.095
16.044,-0.340,0.080
16.047,-0.340,0.055
16.050,-0.330,0.055
16.053,-0.340,0.060
16.056,-0.365,0.065
16.058,-0.365,0.080
16.061,-0.350,0.075
16.064,-0.335,0.065
16.067,-0.320,0.060
16.069,-0.315,0.070
16.072,-0.305,0.080
16.075,-0.310,0.075
16.078,-0.320,0.075
16.081,-0.330,0.050
16.083,-0.345,0.030
16.086,-0.370,0.025
16.089,-0.385,0.020
16.092,-0.400,0.035
16.094,-0.380,0.045
16.097,-0.350,0.040
16.100,-0.260,0.040
16.103,-0.145,0.045
16.106,0.005,0.030
16.108,0.205,0.020
16.111,0.435,0.000
16.114,0.695,0.015
16.117,0.950,0.095
16.119,1.170,0.195
16.122,1.325,0.350
16.125,1.375,0.510
16.128,1.290,0.640
16.131,1.095,0.690
16.133,0.805,0.665
16.136,0.490,0.560
16.139,0.160,0.400
16.142,-0.095,0.230
16.144,-0.270,0.070
16.147,-0.375,-0.045
16.150,-0.430,-0.090
16.153,-0.420,-0.080
16.156,-0.380,-0.025
16.158,-0.335,0.030
16.161,-0.310,0.060
16.164,-0.305,0.065
16.167,-0.310,0.060
16.169,-0.320,0.060
16.172,-0.350,0.065
16.175,-0.370,0.065
16.178,-0.380,0.060
16.181,-0.385,0.040
16.183,-0.385,0.030
16.186,-0.380,0.020
16.189,-0.390,0.030
16.192,-0.400,0.070
16.194,-0.410,0.060
16.197,-0.405,0.055
16.200,-0.405,0.050
16.203,-0.385,0.065
16.206,-0.390,0.070
16.208,-0.370,0.070
16.211,-0.385,0.055
16.214,-0.375,0.025
16.217,-0.390,0.010
16.219,-0.375,0.000
16.222,-0.385,0.030
16.225,-0.380,0.035
16.228,-0.375,0.035
16.231,-0.365,0.025
16.233,-0.355,0.035
16.236,-0.350,0.050
16.239,-0.355,0.050
16.242,-0.355,0.055
16.244,-0.355,0.035
16.247,-0.360,0.025
16.250,-0.355,0.020
16.253,-0.365,0.035
16.256,-0.365,0.030
16.258,-0.360,0.040
16.261,-0.360,0.025
16.264,-0.345,0.020
16.267,-0.350,0.015
16.269,-0.340,0.015
16.272,-0.340,0.010
16.275,-0.355,0.025
16.278,-0.340,0.000
16.281,-0.335,-0.025
16.283,-0.335,-0.025
16.286,-0.340,-0.025
16.289,-0.330,-0.015
16.292,-0.320,-0.010
16.294,-0.310,-0.025
16.297,-0.305,-0.030
16.300,-0.300,-0.030
16.303,-0.295,-0.015
16.306,-0.300,-0.010
16.308,-0.290,-0.015
16.311,-0.295,-0.040
16.314,-0.285,-0.065
16.317,-0.280,-0.070
16.319,-0.290,-0.075
16.322,-0.285,-0.065
16.325,-0.270,-0.050
16.328,-0.265,-0.070
16.331,-0.265,-0.075
16.333,-0.260,-0.075
16.336,-0.265,-0.070
16.339,-0.265,-0.045
16.342,-0.255,-0.045
16.344,-0.260,-0.065
16.347,-0.260,-0.090
16.350,-0.255,-0.110
16.353,-0.260,-0.090
16.356,-0.265,-0.080
16.358,-0.275,-0.060
16.361,-0.260,-0.080
16.364,-0.255,-0.090
16.367,-0.245,-0.080
16.369,-0.240,-0.065
16.372,-0.225,-0.055
16.375,-0.235,-0.035
16.378,-0.235,-0.050
16.381,-0.225,-0.055
16.383,-0.215,-0.055
16.386,-0.210,-0.035
16.389,-0.210,-0.010
16.392,-0.195,0.005
16.394,-0.175,0.015
16.397,-0.155,0.025
16.400,-0.140,0.040
16.403,-0.130,0.070
16.406,-0.135,0.095
16.408,-0.135,0.100
16.411,-0.135,0.075
16.414,-0.130,0.065
16.417,-0.145,0.055
16.419,-0.150,0.065
16.422,-0.170,0.080
16.425,-0.170,0.095
16.428,-0.170,0.105
16.431,-0.165,0.105
16.433,-0.155,0.115
16.436,-0.160,0.130
16.439,-0.155,0.145
16.442,-0.165,0.145
16.444,-0.165,0.110
16.447,-0.165,0.085
16.450,-0.175,0.085
16.453,-0.190,0.090
16.456,-0.180,0.095
16.458,-0.185,0.105
16.461,-0.190,0.105
16.464,-0.165,0.090
16.467,-0.145,0.090
16.469,-0.125,0.100
16.472,-0.135,0.125
16.475,-0.125,0.110
16.478,-0.135,0.095
16.481,-0.145,0.080
16.483,-0.145,0.060
16.486,-0.160,0.070
16.489,-0.165,0.085
16.492,-0.180,0.125
16.494,-0.165,0.140
16.497,-0.165,0.130
16.500,-0.155,0.120
16.503,-0.150,0.115
16.506,-0.145,0.110
16.508,-0.150,0.105
16.511,-0.140,0.105
16.514,-0.125,0.100
16.517,-0.135,0.070
16.519,-0.140,0.075
16.522,-0.155,0.095
16.525,-0.160,0.110
16.528,-0.155,0.105
16.531,-0.155,0.105
16.533,-0.145,0.085
16.536,-0.125,0.090
16.539,-0.145,0.105
16.542,-0.135,0.115
16.544,-0.125,0.125
16.547,-0.120,0.110
16.550,-0.120,0.090
16.553,-0.125,0.080
16.556,-0.140,0.095
16.558,-0.145,0.110
16.561,-0.150,0.135
16.564,-0.130,0.135
16.567,-0.120,0.125
16.569,-0.120,0.100
16.572,-0.130,0.095
16.575,-0.135,0.115
16.578,-0.155,0.100
16.581,-0.140,0.100
16.583,-0.145,0.080
16.586,-0.160,0.065
16.589,-0.145,0.085
16.592,-0.145,0.110
16.594,-0.130,0.130
16.597,-0.115,0.150
16.600,-0.100,0.150
16.603,-0.080,0.155
16.606,-0.070,0.155
16.608,-0.070,0.155
16.611,-0.075,0.175
16.614,-0.070,0.190
16.617,-0.070,0.165
16.619,-0.060,0.145
16.622,-0.045,0.135
16.625,-0.025,0.145
16.628,-0.005,0.150
16.631,0.020,0.165
16.633,0.040,0.155
16.636,0.065,0.130
16.639,0.060,0.115
16.642,0.050,0.115
16.644,0.035,0.120
16.647,0.025,0.110
16.650,0.015,0.100
16.653,0.015,0.085
16.656,0.025,0.080
16.658,0.010,0.085
16.661,0.005,0.095
16.664,-0.015,0.105
16.667,-0.030,0.100
16.669,-0.050,0.105
16.672,-0.075,0.110
16.675,-0.100,0.125
16.678,-0.130,0.130
16.681,-0.155,0.110
16.683,-0.160,0.080
16.686,-0.175,0.070
16.689,-0.180,0.050
16.692,-0.180,0.065
16.694,-0.170,0.090
16.697,-0.170,0.095
16.700,-0.175,0.075
16.703,-0.170,0.075
16.706,-0.170,0.075
16.708,-0.160,0.090
16.711,-0.185,0.095
16.714,-0.195,0.070
16.717,-0.195,0.055
16.719,-0.195,0.050
16.722,-0.185,0.045
16.725,-0.195,0.065
16.728,-0.210,0.085
16.731,-0.215,0.085
16.733,-0.225,0.055
16.736,-0.205,0.055
16.739,-0.175,0.060
16.742,-0.120,0.080
16.744,-0.035,0.095
16.747,0.085,0.085
16.750,0.240,0.040
16.753,0.445,0.020
16.756,0.680,0.000
16.758,0.935,0.035
16.761,1.185,0.120
16.764,1.430,0.220
16.767,1.590,0.320
16.769,1.645,0.430
16.772,1.565,0.515
16.775,1.365,0.570
16.778,1.075,0.570
16.781,0.740,0.475
16.783,0.410,0.330
16.786,0.130,0.155
16.789,-0.075,0.010
16.792,-0.200,-0.075
16.794,-0.260,-0.080
16.797,-0.265,-0.060
16.800,-0.225,-0.015
16.803,-0.170,0.010
16.806,-0.140,0.040
16.808,-0.125,0.060
16.811,-0.150,0.060
16.814,-0.190,0.070
16.817,-0.205,0.040
16.819,-0.225,0.025
16.822,-0.245,0.015
16.825,-0.260,0.010
16.828,-0.250,0.035
16.831,-0.255,0.055
16.833,-0.250,0.080
16.836,-0.235,0.065
16.839,-0.220,0.050
16.842,-0.215,0.045
16.844,-0.220,0.045
16.847,-0.225,0.050
16.850,-0.240,0.055
16.853,-0.250,0.045
16.856,-0.250,0.030
16.858,-0.245,0.025
16.861,-0.235,0.040
16.864,-0.255,0.050
16.867,-0.230,0.060
16.869,-0.215,0.070
16.872,-0.215,0.050
16.875,-0.210,0.025
16.878,-0.225,0.020
16.881,-0.225,0.020
16.883,-0.220,0.025
16.886,-0.270,0.025
16.889,-0.265,0.030
16.892,-0.255,0.000
16.894,-0.230,0.015
16.897,-0.220,0.025
16.900,-0.215,0.040
16.903,-0.205,0.055
16.906,-0.200,0.050
16.908,-0.210,0.030
16.911,-0.220,0.005
16.914,-0.230,0.005
16.917,-0.230,0.020
16.919,-0.245,0.025
16.922,-0.220,0.015
16.925,-0.210,-0.010
16.928,-0.200,-0.015
16.931,-0.205,-0.020
16.933,-0.190,-0.005
16.936,-0.180,0.000
16.939,-0.185,0.000
16.942,-0.175,-0.020
16.944,-0.170,-0.030
16.947,-0.175,-0.040
16.950,-0.200,-0.025
16.953,-0.195,-0.030
16.956,-0.195,-0.025
16.958,-0.195,-0.035
16.961,-0.185,-0.050
16.964,-0.175,-0.060
16.967,-0.155,-0.055
16.969,-0.140,-0.035
16.972,-0.150,-0.015
16.975,-0.155,-0.030
16.978,-0.155,-0.060
16.981,-0.155,-0.080
16.983,-0.160,-0.100
16.986,-0.160,-0.090
16.989,-0.160,-0.075
16.992,-0.155,-0.060
16.994,-0.155,-0.060
16.997,-0.140,-0.080
17.000,-0.135,-0.075
17.003,-0.140,-0.080
17.006,-0.135,-0.090
