311
605
885
1168
1456
1747
1983
2339
2643
2938
3223
3499
3796
4107
4403
4701
4999
5285
5578
5856
6147
6462
6759
7041
7331
7608
7889
8182
8481
8772
9077
9374
9655
9936
10223
10524
10828
11128
11419
11722
12002
12290
12579
12884
13204
13501
13786
14068
14362
14652
14943
15248
15548
15838
16123
16407
16694
16992
17301
17594
17883
18164
18450
18731
19020
19319
19627
19928
20210
20492
20775
21070
21362
21665
21962
22262
22543
22825
23101
23387
23691
23990
24283
24565
24851
25134
25421
25715
26021
26321
26615
26893
27177
27475
27769
28069
28365
28663
28952
29233
29522
29812
30118
30425
30717
31004
31286
31572
31862
32159
32462
32777
33067
33344
33629
33915
34209
34510
34810
35107
35395
35677
35954
36248
36541
36850
37150
37439
37722
38013
38297
38588
38886
39185
39481
39763
40037
40320
40617
40906
41208
41503
41785
42063
42354
42635
42931
43242
43541
43831
44112
44393
44681
44967
45261
45562
45864
46144
46421
46701
46975
47273
47571
47858
48139
48428
48702
48979
49261
49554
49855
50156
50434
50714
50992
51275
51561
51858
52150
52442
52723
53003
53281
53566
53858
54153
54443
54725
55005
55284
55562
55845
56139
56440
56725
56994
57274
57552
57839
58128
58425
58722
59016
59299
59571
59861
60155
60452
60752
61046
61329
61621
61903
62189
62489
62788
63088
63376
63654
63936
64232
64515
64812
65111
65401
65690
65966
66246
66539
67068
67369
67663
67944
68237
68530
68822
69126
69441
69735
70012
70295
70579
70883
71174
71476
71780
72082
72360
72648
72937
73235
73544
73847
74139
74422
74709
74920
75271
75569
75871
76171
76454
76729
77009
77307
77599
77891
78190
78477
78763
79037
79323
79623
79932
80228
80525
80811
81088
81381
81668
81966
82271
82574
82867
83151
83434
83730
84038
84343
84644
84945
85238
85525
85811
86105
86415
86719
87017
87303
87587
87876
88170
88465
88770
89071
89363
89645
89930
90222
90521
90823
91124
91418
91700
91986
92277
92567
92877
93182
93472
93761
94041
94333
94628
94932
95232
95554
95834
96108
96389
96680
96982
97285
97586
97874
98175
98450
98729
99017
1.1355e+05
1.9873e+05
1.9901e+05
1.993e+05
1.9956e+05
1.9983e+05
2.001e+05
2.0037e+05
2.0065e+05
2.0093e+05
2.0122e+05
2.0149e+05
2.0175e+05
2.0201e+05
2.0228e+05
2.0256e+05
2.0284e+05
2.0312e+05
2.0341e+05
2.0368e+05
2.0396e+05
2.0424e+05
2.0452e+05
2.048e+05
2.051e+05
2.054e+05
2.0568e+05
2.0596e+05
2.0623e+05
2.0652e+05
2.0679e+05
2.0707e+05
2.0736e+05
2.0766e+05
2.0795e+05
2.0822e+05
2.0849e+05
2.0877e+05
2.0904e+05
2.0933e+05
2.0962e+05
2.0992e+05
2.102e+05
2.1048e+05
2.1075e+05
2.1103e+05
2.113e+05
2.116e+05
2.1245e+05
2.1272e+05
2.1327e+05
2.1384e+05
2.1441e+05
2.1468e+05
2.1579e+05
2.1608e+05
2.1665e+05
2.1694e+05
2.1721e+05
2.175e+05
2.1892e+05
2.1948e+05
2.1976e+05
2.2004e+05
2.2063e+05
2.2092e+05
2.2147e+05
2.2202e+05
2.2261e+05
2.229e+05
2.2317e+05
2.2373e+05
2.2399e+05
2.2427e+05
2.2486e+05
2.2514e+05
2.2542e+05
2.2597e+05
2.2652e+05
2.2709e+05
2.2737e+05
2.2818e+05
2.2846e+05
2.2904e+05
2.296e+05
2.307e+05
2.313e+05
2.3158e+05
2.3186e+05
2.3213e+05
2.3325e+05
2.341e+05
2.3436e+05
2.3463e+05
2.3605e+05
2.3661e+05
2.3687e+05
2.3714e+05
2.3801e+05
2.3856e+05
2.3883e+05
2.391e+05
2.3938e+05
2.3966e+05
2.402e+05
2.4049e+05
2.4075e+05
2.4101e+05
2.4126e+05
2.4153e+05
2.418e+05
2.4206e+05
2.4232e+05
2.4258e+05
2.4283e+05
2.4308e+05
2.4333e+05
2.4359e+05
2.4385e+05
2.4412e+05
2.444e+05
2.4468e+05
2.4493e+05
2.4519e+05
2.4546e+05
2.4573e+05
2.4601e+05
2.4629e+05
2.4658e+05
2.4688e+05
2.4714e+05
2.4741e+05
2.4796e+05
2.4824e+05
2.491e+05
2.4938e+05
2.4993e+05
2.5022e+05
2.505e+05
2.5139e+05
2.5165e+05
2.5223e+05
2.5253e+05
2.5281e+05
2.531e+05
2.534e+05
2.5369e+05
2.5395e+05
2.5423e+05
2.5483e+05
2.5511e+05
2.554e+05
2.5569e+05
2.5624e+05
2.5651e+05
2.568e+05
2.5709e+05
2.5792e+05
2.5817e+05
2.5895e+05
2.5922e+05
2.5948e+05
2.6002e+05
2.6028e+05
2.608e+05
2.6107e+05
2.6136e+05
2.6163e+05
2.6191e+05
2.6219e+05
2.6246e+05
2.63e+05
2.6329e+05
2.6358e+05
2.6444e+05
2.6471e+05
2.6559e+05
2.6589e+05
2.6618e+05
2.6676e+05
2.6704e+05
2.6762e+05
2.6792e+05
2.682e+05
2.6849e+05
2.6877e+05
2.6905e+05
2.6933e+05
2.699e+05
2.7077e+05
2.7131e+05
2.716e+05
2.7189e+05
2.7218e+05
2.7307e+05
2.7334e+05
2.7421e+05
2.745e+05
2.7498e+05
2.7534e+05
2.7562e+05
2.7618e+05
2.7646e+05
2.7674e+05
2.77e+05
2.7733e+05
2.776e+05
2.7787e+05
2.7816e+05
2.7876e+05
2.7904e+05
2.7932e+05
2.7986e+05
2.8015e+05
2.8044e+05
2.8105e+05
2.8134e+05
2.8217e+05
2.8245e+05
2.8303e+05
2.8361e+05
2.8388e+05
2.8471e+05
2.8501e+05
2.853e+05
2.8615e+05
2.8671e+05
2.8729e+05
2.876e+05
2.8873e+05
2.8987e+05
2.9105e+05
2.9134e+05
2.9218e+05
2.9325e+05
2.9471e+05
4.7691e+05
4.9644e+05
4.9701e+05
4.9731e+05
4.976e+05
4.9788e+05
4.9817e+05
4.9846e+05
4.9875e+05
4.9905e+05
4.9935e+05
4.9964e+05
4.9993e+05
5.0021e+05
5.0049e+05
5.0055e+05
5.0078e+05
5.0108e+05
5.0138e+05
5.0168e+05
5.0198e+05
5.0225e+05
5.0254e+05
5.0282e+05
5.0312e+05
5.0343e+05
5.0373e+05
5.0402e+05
5.0431e+05
5.046e+05
5.0488e+05
5.0516e+05
5.0546e+05
5.0576e+05
5.0606e+05
5.0634e+05
5.0656e+05
5.0691e+05
5.0719e+05
5.0749e+05
5.0779e+05
5.081e+05
5.0839e+05
5.0868e+05
5.0896e+05
5.0926e+05
5.0956e+05
5.0986e+05
5.1016e+05
5.1046e+05
5.1074e+05
5.1103e+05
5.1131e+05
5.116e+05
5.119e+05
5.1222e+05
5.125e+05
5.1279e+05
5.1308e+05
5.1336e+05
5.1366e+05
5.1395e+05
5.1426e+05
5.1456e+05
5.1542e+05
5.157e+05
5.1631e+05
5.1667e+05
5.169e+05
5.1777e+05
5.1954e+05
5.204e+05
5.2071e+05
5.2092e+05
5.2157e+05
5.2185e+05
5.2394e+05
5.2483e+05
5.2658e+05
5.2834e+05
5.363e+05
5.3659e+05
5.3687e+05
5.3715e+05
5.3744e+05
5.3774e+05
5.3805e+05
5.3836e+05
5.3865e+05
5.3893e+05
5.3922e+05
5.3951e+05
5.3981e+05
5.4011e+05
5.4041e+05
5.4071e+05
5.4099e+05
5.4128e+05
5.4156e+05
5.4185e+05
5.4216e+05
5.4247e+05
5.4277e+05
5.4306e+05
5.4334e+05
5.4363e+05
5.4392e+05
5.4422e+05
5.4452e+05
5.4483e+05
5.4512e+05
5.4568e+05
5.4597e+05
5.4625e+05
5.467e+05
5.4714e+05
5.4743e+05
5.4797e+05
5.4827e+05
5.4857e+05
5.4944e+05
5.4972e+05
5.5057e+05
5.5088e+05
5.5175e+05
5.5203e+05
5.5232e+05
5.5261e+05
5.5322e+05
5.5352e+05
5.5438e+05
5.5466e+05
5.5496e+05
5.5555e+05
5.5585e+05
5.5614e+05
5.5699e+05
5.5729e+05
5.576e+05
5.5846e+05
5.5876e+05
5.5993e+05
5.6024e+05
5.6079e+05
5.6108e+05
5.6138e+05
5.6167e+05
5.6226e+05
5.6254e+05
5.6275e+05
5.6308e+05
5.6336e+05
5.6367e+05
5.6397e+05
5.6454e+05
5.6483e+05
5.651e+05
5.6568e+05
5.6597e+05
5.662e+05
5.6712e+05
5.6766e+05
5.6826e+05
5.6856e+05
5.6885e+05
5.6999e+05
5.703e+05
5.7119e+05
5.7148e+05
5.7236e+05
5.7267e+05
5.7355e+05
5.7383e+05
5.7413e+05
5.7503e+05
5.7533e+05
5.7619e+05
5.7648e+05
5.7768e+05
5.7884e+05
5.7914e+05
5.8001e+05
5.8088e+05
5.8148e+05
5.8177e+05
5.8286e+05
5.8806e+05
5.8859e+05
5.9136e+05
5.9194e+05
5.9422e+05
5.948e+05
5.9594e+05
5.9622e+05
5.9652e+05
5.9682e+05
5.9708e+05
5.9735e+05
5.9761e+05
5.9787e+05
5.9813e+05
5.984e+05
5.9866e+05
5.9891e+05
5.9917e+05
5.9941e+05
5.9965e+05
6.0016e+05
6.0043e+05
6.0068e+05
6.0095e+05
6.0148e+05
6.0201e+05
6.0227e+05
6.0254e+05
6.0284e+05
6.0312e+05
6.034e+05
6.0366e+05
6.0422e+05
6.0451e+05
6.0568e+05
6.0653e+05
6.0682e+05
6.0712e+05
6.0741e+05
6.0907e+05
6.0936e+05
6.102e+05
6.1049e+05
6.1105e+05
6.1163e+05
6.1192e+05
6.1334e+05
6.142e+05
6.1476e+05
6.2132e+05
6.2385e+05
6.3563e+05
6.3591e+05
6.3618e+05
6.3647e+05
6.3676e+05
6.3705e+05
6.3734e+05
6.3764e+05
6.3794e+05
6.3822e+05
6.385e+05
6.3878e+05
6.3908e+05
6.3938e+05
6.3968e+05
6.3998e+05
6.4027e+05
6.4055e+05
6.4085e+05
6.4112e+05
6.4141e+05
6.4171e+05
6.42e+05
6.4228e+05
6.4256e+05
6.4282e+05
6.431e+05
6.4337e+05
6.4366e+05
6.4394e+05
6.4449e+05
6.4475e+05
6.4553e+05
6.458e+05
6.4607e+05
6.4633e+05
6.466e+05
6.4687e+05
6.4788e+05
6.4842e+05
-1
469
517
783
1064
1322
1366
1612
1650
1902
2141
2185
2507
2540
2802
2835
3120
3405
3654
3692
3958
3991
4304
4610
4862
4939
5151
5190
5476
5728
5768
6011
6049
6311
6348
6664
6917
6964
7197
7234
7514
7765
7804
8048
8085
8340
8377
8636
8678
8939
8974
9234
9267
9554
9799
9839
10092
10124
10382
10414
10690
10733
11026
11287
11329
11575
11640
12188
12442
12480
12741
12777
13051
13118
13408
13655
13693
13937
13970
14549
14806
14840
15103
15158
15441
15705
15739
15991
16026
16277
16316
16857
16901
17154
17243
17497
18040
18067
18317
18348
18606
18636
18888
18920
19179
19215
19488
19520
19820
20084
20123
20360
20676
20931
20963
21231
21264
21525
21558
21859
22130
22157
22413
22454
22691
22722
23003
23257
23291
23557
23854
23891
24153
24185
24439
24473
24720
24760
25003
25036
25291
25319
25583
25616
25880
25920
26218
26516
26768
26798
27045
27075
27332
27363
27630
27663
27931
27965
28225
28262
28524
28561
28824
28860
29107
29140
29384
29421
29672
29704
29976
30009
30278
30313
30580
30615
30900
31156
31438
31472
32026
32063
32320
32361
32631
32667
33217
33260
33494
33528
33778
33810
34374
34672
34710
34969
35004
35267
35301
35546
35583
35824
35855
36110
36137
36405
36440
36703
36741
37041
37343
37589
37626
37876
37913
38157
38199
38797
39044
39078
39916
39947
40184
40224
40479
40515
41069
41104
41364
41398
41684
41943
41972
42213
42240
42538
42799
42830
43101
43138
43403
43435
43696
43732
43986
44023
44259
44290
44545
44581
44873
45129
45162
45421
45455
45724
45764
46017
46053
46293
46326
46572
46602
46847
46878
47138
47169
47432
47470
47759
48000
48299
48338
48571
48606
48880
49418
49467
49718
49749
50058
50312
50344
50585
50622
50898
51143
51178
51437
51479
51722
51765
52019
52052
52599
52636
52874
52908
53142
53183
53728
53784
54021
54055
54283
54351
54639
54879
54917
55157
55191
55399
55466
55674
55751
56006
56041
56301
56341
56563
56629
56876
56906
57148
57183
57419
57459
57674
57737
57996
58033
58289
58324
58618
58890
58914
59171
59222
59444
59478
59753
60049
60313
60344
60611
60644
60944
61204
61240
61492
61522
61769
61802
62052
62081
62348
62378
62646
62698
62949
62979
63271
63530
63558
63801
63837
64088
64130
64388
64435
64676
64708
64973
65005
65262
65301
65560
65597
65841
65876
66118
66152
66399
66436
66699
67224
67261
67526
67564
67818
67848
68103
68149
68428
68690
68719
68984
69025
69293
69324
69597
69624
69883
69913
70164
70203
70444
70474
70735
70767
71075
71339
71373
71638
71668
71940
71977
72230
72281
72508
72544
72796
72826
73122
73401
73445
73707
73738
74032
74295
74331
74582
74615
74861
75074
75109
75432
75729
75764
76032
76068
76322
76362
76569
76636
76883
76919
77170
77202
77462
77501
77761
77797
78054
78091
78344
78384
78663
78917
78951
79190
79223
79512
79828
80095
80137
80386
80420
80667
80707
80963
80990
81247
81300
81533
81576
81825
81864
82131
82167
82438
82480
82685
82768
83020
83045
83306
83337
83586
83638
83891
83922
84194
84260
84508
84549
84804
84833
85103
85134
85395
85427
85676
85705
85971
86008
86274
86325
86582
86618
86877
86926
87161
87199
87489
87745
87800
88036
88067
88361
88637
88680
88933
88978
89262
89517
89561
89796
89826
90048
90114
90418
90686
90724
90983
91024
91248
91319
91575
91609
91857
91888
92137
92177
92430
92459
92737
92819
93042
93081
93336
93375
93627
93663
93916
93957
94197
94240
94489
94524
94790
94827
95097
95138
95397
95435
95700
95733
95982
96021
96262
96547
96585
96881
97184
97448
97491
97737
97776
97999
98064
98319
98599
98881
98914
99179
99217
99578
1.0003e+05
1.0006e+05
1.0034e+05
1.0063e+05
1.0088e+05
1.0092e+05
1.0175e+05
1.0179e+05
1.0261e+05
1.0264e+05
1.0288e+05
1.0292e+05
1.032e+05
1.0493e+05
1.0496e+05
1.0611e+05
1.0618e+05
1.0644e+05
1.0814e+05
1.0818e+05
1.0844e+05
1.0848e+05
1.0929e+05
1.0933e+05
1.1018e+05
1.1024e+05
1.1109e+05
1.1134e+05
1.1137e+05
1.125e+05
1.1255e+05
1.1385e+05
1.1478e+05
1.1486e+05
1.1537e+05
1.154e+05
1.159e+05
1.1594e+05
1.1786e+05
1.179e+05
1.1814e+05
1.1817e+05
1.1842e+05
1.1845e+05
1.1871e+05
1.1875e+05
1.1932e+05
1.1936e+05
1.1988e+05
1.1991e+05
1.2081e+05
1.214e+05
1.2143e+05
1.2171e+05
1.2173e+05
1.2198e+05
1.2201e+05
1.2256e+05
1.2311e+05
1.2318e+05
1.2376e+05
1.2381e+05
1.2403e+05
1.2407e+05
1.2432e+05
1.2435e+05
1.246e+05
1.2464e+05
1.2487e+05
1.2491e+05
1.2545e+05
1.255e+05
1.2605e+05
1.2773e+05
1.2852e+05
1.2855e+05
1.2878e+05
1.2905e+05
1.2908e+05
1.2931e+05
1.2937e+05
1.2962e+05
1.2966e+05
1.3041e+05
1.3046e+05
1.3065e+05
1.307e+05
1.3091e+05
1.3094e+05
1.3116e+05
1.312e+05
1.3168e+05
1.3172e+05
1.3272e+05
1.3276e+05
1.3352e+05
1.3399e+05
1.3406e+05
1.3452e+05
1.3459e+05
1.3511e+05
1.3531e+05
1.3536e+05
1.3613e+05
1.362e+05
1.3703e+05
1.3754e+05
1.3757e+05
1.381e+05
1.3815e+05
1.3902e+05
1.3953e+05
1.3956e+05
1.3981e+05
1.3985e+05
1.401e+05
1.4013e+05
1.404e+05
1.4043e+05
1.4069e+05
1.4073e+05
1.4101e+05
1.4125e+05
1.4127e+05
1.4151e+05
1.4155e+05
1.4203e+05
1.4229e+05
1.4235e+05
1.4257e+05
1.4262e+05
1.4284e+05
1.4289e+05
1.431e+05
1.4314e+05
1.4335e+05
1.4339e+05
1.436e+05
1.4364e+05
1.4386e+05
1.4389e+05
1.4412e+05
1.4414e+05
1.4438e+05
1.4442e+05
1.4465e+05
1.4468e+05
1.4493e+05
1.4521e+05
1.4524e+05
1.4548e+05
1.4552e+05
1.4574e+05
1.4578e+05
1.4599e+05
1.4603e+05
1.4626e+05
1.4631e+05
1.4654e+05
1.4657e+05
1.4683e+05
1.4686e+05
1.4711e+05
1.4715e+05
1.4738e+05
1.4742e+05
1.4766e+05
1.477e+05
1.4796e+05
1.4822e+05
1.4846e+05
1.4848e+05
1.4873e+05
1.4877e+05
1.4901e+05
1.4905e+05
1.493e+05
1.4935e+05
1.4958e+05
1.4962e+05
1.4985e+05
1.4989e+05
1.5012e+05
1.5016e+05
1.5039e+05
1.5042e+05
1.5067e+05
1.507e+05
1.5094e+05
1.5098e+05
1.5122e+05
1.5125e+05
1.5151e+05
1.5154e+05
1.5179e+05
1.5184e+05
1.5206e+05
1.5209e+05
1.5233e+05
1.5236e+05
1.526e+05
1.5263e+05
1.5288e+05
1.5291e+05
1.5346e+05
1.5373e+05
1.5377e+05
1.5429e+05
1.5432e+05
1.5457e+05
1.5569e+05
1.5573e+05
1.5596e+05
1.5599e+05
1.5623e+05
1.5626e+05
1.5648e+05
1.5652e+05
1.5674e+05
1.5677e+05
1.57e+05
1.5703e+05
1.5726e+05
1.5731e+05
1.5753e+05
1.5756e+05
1.5778e+05
1.5783e+05
1.5805e+05
1.5809e+05
1.5832e+05
1.5836e+05
1.5857e+05
1.5861e+05
1.5906e+05
1.591e+05
1.5931e+05
1.5935e+05
1.5957e+05
1.5961e+05
1.5981e+05
1.5988e+05
1.601e+05
1.6013e+05
1.6035e+05
1.6039e+05
1.6085e+05
1.6088e+05
1.6109e+05
1.6113e+05
1.6133e+05
1.6138e+05
1.6156e+05
1.6163e+05
1.6213e+05
1.6244e+05
1.627e+05
1.6318e+05
1.6321e+05
1.6345e+05
1.635e+05
1.6376e+05
1.6399e+05
1.6404e+05
1.6428e+05
1.6433e+05
1.6455e+05
1.6459e+05
1.6485e+05
1.6537e+05
1.6612e+05
1.6617e+05
1.6639e+05
1.6643e+05
1.6862e+05
1.6892e+05
1.7e+05
1.7004e+05
1.7145e+05
1.7149e+05
1.7201e+05
1.7204e+05
1.7261e+05
1.7344e+05
1.7349e+05
1.7372e+05
1.7375e+05
1.7454e+05
1.7457e+05
1.7624e+05
1.7628e+05
1.7652e+05
1.7655e+05
1.768e+05
1.7684e+05
1.7707e+05
1.771e+05
1.7734e+05
1.7738e+05
1.7761e+05
1.7765e+05
1.7794e+05
1.7815e+05
1.7819e+05
1.7841e+05
1.7845e+05
1.7866e+05
1.7871e+05
1.7893e+05
1.7897e+05
1.7948e+05
1.7952e+05
1.7975e+05
1.7979e+05
1.8053e+05
1.8057e+05
1.8079e+05
1.8083e+05
1.8162e+05
1.8167e+05
1.819e+05
1.8196e+05
1.8244e+05
1.8248e+05
1.8271e+05
1.8276e+05
1.8295e+05
1.8302e+05
1.8387e+05
1.8392e+05
1.8412e+05
1.842e+05
1.8445e+05
1.8449e+05
1.8623e+05
1.8627e+05
1.8767e+05
1.8771e+05
1.8828e+05
1.8832e+05
1.8909e+05
1.8916e+05
1.8972e+05
1.8978e+05
1.9091e+05
1.9095e+05
1.9149e+05
1.9152e+05
1.9177e+05
1.9208e+05
1.9211e+05
1.938e+05
1.9385e+05
1.9405e+05
1.9413e+05
1.9468e+05
1.9472e+05
1.9496e+05
1.9502e+05
1.9524e+05
1.9527e+05
1.9551e+05
1.9555e+05
1.9607e+05
1.961e+05
1.964e+05
1.9694e+05
1.9698e+05
1.9722e+05
1.9726e+05
1.975e+05
1.9753e+05
1.9804e+05
1.9809e+05
1.9832e+05
1.9835e+05
1.9889e+05
1.9893e+05
1.9917e+05
1.994e+05
1.9947e+05
1.997e+05
1.9975e+05
1.9999e+05
2.0003e+05
2.0025e+05
2.0029e+05
2.0057e+05
2.0081e+05
2.0085e+05
2.0109e+05
2.0114e+05
2.0137e+05
2.0142e+05
2.0163e+05
2.0167e+05
2.0189e+05
2.0193e+05
2.0216e+05
2.022e+05
2.0243e+05
2.0246e+05
2.027e+05
2.0274e+05
2.0298e+05
2.0302e+05
2.0327e+05
2.0331e+05
2.0359e+05
2.0387e+05
2.0407e+05
2.0414e+05
2.0439e+05
2.0442e+05
2.0465e+05
2.047e+05
2.0498e+05
2.0522e+05
2.053e+05
2.0555e+05
2.0559e+05
2.0586e+05
2.061e+05
2.0616e+05
2.0638e+05
2.0644e+05
2.0666e+05
2.067e+05
2.0692e+05
2.0697e+05
2.0719e+05
2.0726e+05
2.0751e+05
2.0757e+05
2.0782e+05
2.0786e+05
2.0809e+05
2.0814e+05
2.084e+05
2.0864e+05
2.0869e+05
2.0891e+05
2.0919e+05
2.0922e+05
2.0948e+05
2.0953e+05
2.0978e+05
2.0981e+05
2.1006e+05
2.1011e+05
2.1031e+05
2.1039e+05
2.1062e+05
2.1067e+05
2.109e+05
2.1093e+05
2.1117e+05
2.1121e+05
2.1149e+05
2.1175e+05
2.1179e+05
2.1259e+05
2.1262e+05
2.1287e+05
2.1291e+05
2.1341e+05
2.1345e+05
2.1399e+05
2.1402e+05
2.1459e+05
2.1482e+05
2.1486e+05
2.1593e+05
2.16e+05
2.1624e+05
2.1627e+05
2.168e+05
2.1684e+05
2.1708e+05
2.1712e+05
2.1736e+05
2.174e+05
2.1764e+05
2.1768e+05
2.191e+05
2.1962e+05
2.1966e+05
2.1993e+05
2.2023e+05
2.2079e+05
2.2084e+05
2.211e+05
2.2162e+05
2.2166e+05
2.2214e+05
2.2221e+05
2.2276e+05
2.2281e+05
2.2304e+05
2.2308e+05
2.2332e+05
2.2336e+05
2.2387e+05
2.239e+05
2.2413e+05
2.2417e+05
2.2501e+05
2.2505e+05
2.2532e+05
2.2556e+05
2.2559e+05
2.2611e+05
2.2615e+05
2.2667e+05
2.2671e+05
2.2727e+05
2.2752e+05
2.2755e+05
2.2836e+05
2.2864e+05
2.2919e+05
2.2975e+05
2.2978e+05
2.3081e+05
2.3089e+05
2.3149e+05
2.3172e+05
2.3176e+05
2.32e+05
2.3204e+05
2.3228e+05
2.3231e+05
2.334e+05
2.3424e+05
2.3428e+05
2.345e+05
2.3454e+05
2.3481e+05
2.362e+05
2.3625e+05
2.3675e+05
2.3679e+05
2.3702e+05
2.3705e+05
2.373e+05
2.3816e+05
2.3819e+05
2.387e+05
2.3875e+05
2.3902e+05
2.3922e+05
2.3928e+05
2.3948e+05
2.3958e+05
2.3981e+05
2.3985e+05
2.4039e+05
2.4064e+05
2.4069e+05
2.409e+05
2.4093e+05
2.4115e+05
2.4119e+05
2.4141e+05
2.4145e+05
2.4168e+05
2.4172e+05
2.4194e+05
2.4198e+05
2.4224e+05
2.4246e+05
2.4251e+05
2.4272e+05
2.4275e+05
2.43e+05
2.4326e+05
2.4348e+05
2.4353e+05
2.4373e+05
2.4377e+05
2.44e+05
2.4404e+05
2.4428e+05
2.4432e+05
2.4456e+05
2.4459e+05
2.4481e+05
2.4485e+05
2.4506e+05
2.451e+05
2.4533e+05
2.4537e+05
2.4561e+05
2.4564e+05
2.4586e+05
2.4592e+05
2.4613e+05
2.462e+05
2.4644e+05
2.4648e+05
2.4674e+05
2.4678e+05
2.4702e+05
2.4706e+05
2.4727e+05
2.4732e+05
2.4755e+05
2.4759e+05
2.4811e+05
2.4815e+05
2.4839e+05
2.4843e+05
2.4925e+05
2.4928e+05
2.4952e+05
2.4956e+05
2.5008e+05
2.5013e+05
2.5033e+05
2.5041e+05
2.5069e+05
2.5153e+05
2.5156e+05
2.5179e+05
2.5185e+05
2.5238e+05
2.5243e+05
2.5267e+05
2.5272e+05
2.5296e+05
2.53e+05
2.5326e+05
2.533e+05
2.5355e+05
2.5383e+05
2.5386e+05
2.5409e+05
2.5415e+05
2.5437e+05
2.5442e+05
2.5499e+05
2.5503e+05
2.5526e+05
2.553e+05
2.5554e+05
2.5558e+05
2.5583e+05
2.5587e+05
2.5638e+05
2.5642e+05
2.5666e+05
2.567e+05
2.5696e+05
2.5701e+05
2.5726e+05
2.5806e+05
2.5811e+05
2.5834e+05
2.591e+05
2.5915e+05
2.5937e+05
2.5941e+05
2.5967e+05
2.6017e+05
2.602e+05
2.6042e+05
2.6046e+05
2.6094e+05
2.6098e+05
2.6123e+05
2.6127e+05
2.6151e+05
2.6155e+05
2.6173e+05
2.6182e+05
2.6206e+05
2.6209e+05
2.6233e+05
2.6237e+05
2.6264e+05
2.6315e+05
2.6318e+05
2.6345e+05
2.6348e+05
2.6377e+05
2.6459e+05
2.6462e+05
2.6486e+05
2.649e+05
2.6575e+05
2.66e+05
2.6607e+05
2.6637e+05
2.6691e+05
2.6719e+05
2.6722e+05
2.6778e+05
2.6783e+05
2.6807e+05
2.6811e+05
2.6832e+05
2.6839e+05
2.6864e+05
2.6867e+05
2.6892e+05
2.6895e+05
2.692e+05
2.6923e+05
2.6944e+05
2.6951e+05
2.7006e+05
2.7009e+05
2.7091e+05
2.7095e+05
2.7146e+05
2.715e+05
2.7175e+05
2.7181e+05
2.7204e+05
2.7209e+05
2.7233e+05
2.7237e+05
2.7293e+05
2.7297e+05
2.7321e+05
2.7324e+05
2.7348e+05
2.7352e+05
2.744e+05
2.7465e+05
2.7469e+05
2.7522e+05
2.7526e+05
2.7549e+05
2.7553e+05
2.7579e+05
2.7633e+05
2.7637e+05
2.766e+05
2.7664e+05
2.7693e+05
2.7719e+05
2.7723e+05
2.7747e+05
2.7751e+05
2.7777e+05
2.7801e+05
2.7805e+05
2.7831e+05
2.7834e+05
2.789e+05
2.7895e+05
2.7917e+05
2.7923e+05
2.795e+05
2.8001e+05
2.8006e+05
2.8029e+05
2.8035e+05
2.8061e+05
2.8065e+05
2.812e+05
2.8125e+05
2.8148e+05
2.8152e+05
2.8232e+05
2.8236e+05
2.8256e+05
2.8264e+05
2.8293e+05
2.8319e+05
2.8323e+05
2.8376e+05
2.8379e+05
2.84e+05
2.8407e+05
2.8435e+05
2.8487e+05
2.8491e+05
2.8521e+05
2.8543e+05
2.8549e+05
2.863e+05
2.8634e+05
2.8655e+05
2.8661e+05
2.8689e+05
2.8745e+05
2.8749e+05
2.8773e+05
2.878e+05
2.8803e+05
2.8808e+05
2.8888e+05
2.8892e+05
2.8911e+05
2.8921e+05
2.9006e+05
2.901e+05
2.9117e+05
2.9124e+05
2.915e+05
2.9155e+05
2.918e+05
2.9184e+05
2.9233e+05
2.9241e+05
2.9347e+05
2.9354e+05
2.9495e+05
2.9498e+05
2.9813e+05
2.9818e+05
2.9842e+05
2.9846e+05
2.9901e+05
2.9904e+05
2.993e+05
2.9985e+05
2.9989e+05
3.0019e+05
3.0046e+05
3.0049e+05
3.0076e+05
3.0079e+05
3.0106e+05
3.0133e+05
3.0159e+05
3.0162e+05
3.0206e+05
3.0244e+05
3.0248e+05
3.0278e+05
3.0305e+05
3.0333e+05
3.0336e+05
3.0362e+05
3.0389e+05
3.0416e+05
3.042e+05
3.0446e+05
3.045e+05
3.0477e+05
3.0505e+05
3.053e+05
3.0534e+05
3.0565e+05
3.0612e+05
3.0616e+05
3.0694e+05
3.0736e+05
3.0764e+05
3.0815e+05
3.0819e+05
3.0848e+05
3.0875e+05
3.0904e+05
3.0932e+05
3.0936e+05
3.099e+05
3.1017e+05
3.1042e+05
3.1045e+05
3.1072e+05
3.1076e+05
3.1133e+05
3.1218e+05
3.1245e+05
3.1269e+05
3.1276e+05
3.1329e+05
3.1333e+05
3.1364e+05
3.1534e+05
3.1537e+05
3.1593e+05
3.1598e+05
3.1626e+05
3.1711e+05
3.174e+05
3.1818e+05
3.1844e+05
3.1882e+05
3.1885e+05
3.1915e+05
3.1973e+05
3.2003e+05
3.2025e+05
3.2035e+05
3.2146e+05
3.2151e+05
3.2206e+05
3.221e+05
3.2314e+05
3.2343e+05
3.2382e+05
3.2387e+05
3.2414e+05
3.2419e+05
3.2464e+05
3.2506e+05
3.2535e+05
3.2559e+05
3.2563e+05
3.2583e+05
3.2618e+05
3.2623e+05
3.2649e+05
3.2654e+05
3.2674e+05
3.2699e+05
3.2741e+05
3.2769e+05
3.2796e+05
3.2802e+05
3.2825e+05
3.2829e+05
3.2855e+05
3.2858e+05
3.2881e+05
3.2889e+05
3.2962e+05
3.2991e+05
3.3035e+05
3.3121e+05
3.3124e+05
3.3208e+05
3.3212e+05
3.3738e+05
3.3742e+05
3.3796e+05
3.38e+05
3.3824e+05
3.3829e+05
3.3852e+05
3.3855e+05
3.3882e+05
3.3885e+05
3.3909e+05
3.3918e+05
3.3943e+05
3.3972e+05
3.3976e+05
3.4001e+05
3.4005e+05
3.4059e+05
3.4063e+05
3.4088e+05
3.4092e+05
3.4121e+05
3.4146e+05
3.4151e+05
3.4178e+05
3.4181e+05
3.4207e+05
3.4239e+05
3.4267e+05
3.4296e+05
3.4321e+05
3.4325e+05
3.4351e+05
3.4355e+05
3.4384e+05
3.4413e+05
3.4437e+05
3.4441e+05
3.4465e+05
3.4471e+05
3.4493e+05
3.4498e+05
3.4521e+05
3.4525e+05
3.4551e+05
3.4555e+05
3.4582e+05
3.4586e+05
3.4612e+05
3.4615e+05
3.4644e+05
3.468e+05
3.4724e+05
3.4728e+05
3.4755e+05
3.4759e+05
3.4785e+05
3.4789e+05
3.4816e+05
3.482e+05
3.4846e+05
3.4849e+05
3.4879e+05
3.4906e+05
3.493e+05
3.4936e+05
3.496e+05
3.4964e+05
3.4991e+05
3.4995e+05
3.5024e+05
3.5049e+05
3.5055e+05
3.5107e+05
3.5113e+05
3.5136e+05
3.5157e+05
3.5161e+05
3.5192e+05
3.5197e+05
3.5251e+05
3.5255e+05
3.5284e+05
3.5367e+05
3.5397e+05
3.5426e+05
3.5481e+05
3.5485e+05
3.5514e+05
3.5542e+05
3.5595e+05
3.5601e+05
3.5625e+05
3.5631e+05
3.5659e+05
3.569e+05
3.5714e+05
3.5718e+05
3.5742e+05
3.5746e+05
3.577e+05
3.5774e+05
3.5799e+05
3.5803e+05
3.5828e+05
3.5831e+05
3.5858e+05
3.5863e+05
3.5889e+05
3.5894e+05
3.5922e+05
3.609e+05
3.6118e+05
3.6144e+05
3.6147e+05
3.6176e+05
3.6202e+05
3.6255e+05
3.6258e+05
3.6283e+05
3.6286e+05
3.6311e+05
3.6315e+05
3.6401e+05
3.6486e+05
3.6512e+05
3.6515e+05
3.6543e+05
3.6547e+05
3.6603e+05
3.6687e+05
3.6692e+05
3.672e+05
3.6777e+05
3.6781e+05
3.68e+05
3.6809e+05
3.6892e+05
3.6896e+05
3.6921e+05
3.6924e+05
3.6946e+05
3.6955e+05
3.7011e+05
3.7014e+05
3.7037e+05
3.704e+05
3.7065e+05
3.7068e+05
3.7122e+05
3.7126e+05
3.715e+05
3.7153e+05
3.7185e+05
3.7239e+05
3.7242e+05
3.7265e+05
3.7268e+05
3.7297e+05
3.7352e+05
3.7356e+05
3.738e+05
3.7384e+05
3.7409e+05
3.7413e+05
3.744e+05
3.7444e+05
3.7468e+05
3.7472e+05
3.7494e+05
3.7498e+05
3.7522e+05
3.7525e+05
3.7581e+05
3.7584e+05
3.7609e+05
3.7613e+05
3.7642e+05
3.7696e+05
3.7721e+05
3.7753e+05
3.781e+05
3.7814e+05
3.7844e+05
3.787e+05
3.7873e+05
3.7898e+05
3.7902e+05
3.7925e+05
3.7929e+05
3.7953e+05
3.7957e+05
3.7982e+05
3.7987e+05
3.807e+05
3.8074e+05
3.8099e+05
3.8102e+05
3.8154e+05
3.8158e+05
3.8184e+05
3.8211e+05
3.8215e+05
3.8266e+05
3.8273e+05
3.8846e+05
3.8851e+05
3.9143e+05
3.9147e+05
3.9227e+05
3.9233e+05
3.9317e+05
3.9323e+05
3.9347e+05
3.9352e+05
3.9377e+05
3.938e+05
3.9433e+05
3.9437e+05
3.9458e+05
3.9464e+05
3.9549e+05
3.9553e+05
3.9578e+05
3.9582e+05
3.9734e+05
3.978e+05
3.9784e+05
3.9814e+05
3.9841e+05
3.9866e+05
3.9871e+05
3.9898e+05
3.9928e+05
3.9986e+05
4.0011e+05
4.0017e+05
4.0046e+05
4.007e+05
4.0073e+05
4.0097e+05
4.0102e+05
4.0125e+05
4.0129e+05
4.0155e+05
4.0159e+05
4.0186e+05
4.019e+05
4.0215e+05
4.0222e+05
4.0249e+05
4.0277e+05
4.0302e+05
4.0307e+05
4.0331e+05
4.0336e+05
4.036e+05
4.0363e+05
4.042e+05
4.0424e+05
4.0483e+05
4.0535e+05
4.0563e+05
4.0568e+05
4.0622e+05
4.0626e+05
4.0652e+05
4.0656e+05
4.0713e+05
4.0737e+05
4.0741e+05
4.0765e+05
4.0771e+05
4.079e+05
4.0798e+05
4.0822e+05
4.083e+05
4.0855e+05
4.0859e+05
4.0884e+05
4.0887e+05
4.0911e+05
4.0916e+05
4.0944e+05
4.0969e+05
4.0974e+05
4.0997e+05
4.1001e+05
4.1025e+05
4.1031e+05
4.1056e+05
4.1061e+05
4.1088e+05
4.1091e+05
4.1117e+05
4.1121e+05
4.1144e+05
4.1147e+05
4.1172e+05
4.1178e+05
4.1201e+05
4.1206e+05
4.1261e+05
4.1265e+05
4.1291e+05
4.1296e+05
4.132e+05
4.1324e+05
4.1349e+05
4.1353e+05
4.1377e+05
4.1381e+05
4.1405e+05
4.1409e+05
4.1435e+05
4.1437e+05
4.1464e+05
4.1468e+05
4.1494e+05
4.1498e+05
4.1599e+05
4.1665e+05
4.1668e+05
4.1695e+05
4.1698e+05
4.1728e+05
4.1801e+05
4.184e+05
4.1896e+05
4.19e+05
4.1925e+05
4.1929e+05
4.1959e+05
4.1987e+05
4.2012e+05
4.2016e+05
4.2039e+05
4.2044e+05
4.207e+05
4.2101e+05
4.2197e+05
4.226e+05
4.2288e+05
4.2294e+05
4.3724e+05
4.3752e+05
4.3777e+05
4.3781e+05
4.3806e+05
4.381e+05
4.384e+05
4.3871e+05
4.3896e+05
4.39e+05
4.3925e+05
4.3929e+05
4.3958e+05
4.3986e+05
4.4011e+05
4.4014e+05
4.404e+05
4.4072e+05
4.4076e+05
4.4107e+05
4.4132e+05
4.4138e+05
4.4161e+05
4.4165e+05
4.4191e+05
4.4195e+05
4.422e+05
4.4225e+05
4.425e+05
4.4272e+05
4.4275e+05
4.4309e+05
4.4313e+05
4.434e+05
4.4344e+05
4.443e+05
4.4457e+05
4.448e+05
4.4484e+05
4.4546e+05
4.455e+05
4.4575e+05
4.458e+05
4.4604e+05
4.4608e+05
4.466e+05
4.4663e+05
4.4689e+05
4.4693e+05
4.4717e+05
4.4725e+05
4.475e+05
4.4754e+05
4.4811e+05
4.4839e+05
4.4893e+05
4.4898e+05
4.4923e+05
4.4929e+05
4.4953e+05
4.4958e+05
4.5045e+05
4.5094e+05
4.5104e+05
4.5158e+05
4.5165e+05
4.5194e+05
4.528e+05
4.5301e+05
4.5308e+05
4.5395e+05
4.54e+05
4.5429e+05
4.5509e+05
4.5513e+05
4.5539e+05
4.5542e+05
4.5628e+05
4.5634e+05
4.5658e+05
4.5661e+05
4.5746e+05
4.5776e+05
4.5862e+05
4.5865e+05
4.5894e+05
4.5976e+05
4.5979e+05
4.6006e+05
4.6011e+05
4.6067e+05
4.6071e+05
4.6127e+05
4.6241e+05
4.6245e+05
4.6272e+05
4.6275e+05
4.6329e+05
4.6334e+05
4.6355e+05
4.6361e+05
4.6389e+05
4.6475e+05
4.6479e+05
4.6505e+05
4.6509e+05
4.6591e+05
4.6596e+05
4.6619e+05
4.6623e+05
4.6743e+05
4.6854e+05
4.686e+05
4.6979e+05
4.7063e+05
4.7093e+05
4.7098e+05
4.7211e+05
4.7215e+05
4.733e+05
4.7333e+05
4.7358e+05
4.7362e+05
4.7445e+05
4.7448e+05
4.7478e+05
4.7504e+05
4.7509e+05
4.7534e+05
4.7538e+05
4.7564e+05
4.7568e+05
4.7598e+05
4.768e+05
4.7683e+05
4.7709e+05
4.7713e+05
4.7799e+05
4.7804e+05
4.7834e+05
4.7913e+05
4.7917e+05
4.7942e+05
4.7946e+05
4.7977e+05
4.8031e+05
4.8034e+05
4.8091e+05
4.8144e+05
4.8148e+05
4.8177e+05
4.8204e+05
4.8207e+05
4.8373e+05
4.8378e+05
4.8402e+05
4.8407e+05
4.844e+05
4.8519e+05
4.8548e+05
4.8604e+05
4.8608e+05
4.8635e+05
4.8638e+05
4.8756e+05
4.8988e+05
4.8992e+05
4.9019e+05
4.9023e+05
4.9079e+05
4.9084e+05
4.9113e+05
4.9228e+05
4.9258e+05
4.9343e+05
4.9346e+05
4.9464e+05
4.9488e+05
4.9491e+05
4.9578e+05
4.9671e+05
4.9716e+05
4.972e+05
4.975e+05
4.9776e+05
4.978e+05
4.9804e+05
4.981e+05
4.9861e+05
4.9864e+05
4.9895e+05
4.9922e+05
4.9925e+05
4.9951e+05
4.9954e+05
4.9983e+05
5.0011e+05
5.0036e+05
5.0039e+05
5.0094e+05
5.0099e+05
5.0124e+05
5.0128e+05
5.0154e+05
5.0159e+05
5.0184e+05
5.0188e+05
5.0212e+05
5.0215e+05
5.024e+05
5.0244e+05
5.027e+05
5.0272e+05
5.0298e+05
5.0302e+05
5.0329e+05
5.0332e+05
5.0354e+05
5.0363e+05
5.0392e+05
5.0418e+05
5.0422e+05
5.0446e+05
5.0449e+05
5.0477e+05
5.0503e+05
5.0507e+05
5.0532e+05
5.0536e+05
5.0562e+05
5.0567e+05
5.0597e+05
5.0625e+05
5.0649e+05
5.0709e+05
5.0735e+05
5.0739e+05
5.0765e+05
5.0768e+05
5.0795e+05
5.0799e+05
5.0825e+05
5.0828e+05
5.0854e+05
5.0858e+05
5.0883e+05
5.0887e+05
5.0911e+05
5.092e+05
5.0946e+05
5.0979e+05
5.1002e+05
5.1006e+05
5.1032e+05
5.1036e+05
5.1061e+05
5.1064e+05
5.1089e+05
5.1093e+05
5.1122e+05
5.1146e+05
5.1152e+05
5.1176e+05
5.118e+05
5.1211e+05
5.1241e+05
5.1266e+05
5.127e+05
5.1294e+05
5.1298e+05
5.1326e+05
5.1351e+05
5.1355e+05
5.1382e+05
5.1388e+05
5.1411e+05
5.1415e+05
5.1442e+05
5.1445e+05
5.1475e+05
5.156e+05
5.1585e+05
5.1589e+05
5.1647e+05
5.165e+05
5.171e+05
5.1793e+05
5.1796e+05
5.1969e+05
5.1973e+05
5.2056e+05
5.206e+05
5.2086e+05
5.2108e+05
5.2111e+05
5.2172e+05
5.2175e+05
5.2201e+05
5.2204e+05
5.2409e+05
5.2414e+05
5.2498e+05
5.2503e+05
5.2674e+05
5.2678e+05
5.2849e+05
5.2853e+05
5.3645e+05
5.3649e+05
5.3674e+05
5.3678e+05
5.3702e+05
5.3705e+05
5.373e+05
5.3734e+05
5.376e+05
5.3764e+05
5.3791e+05
5.3794e+05
5.3821e+05
5.3825e+05
5.3855e+05
5.3884e+05
5.3913e+05
5.3937e+05
5.394e+05
5.397e+05
5.3994e+05
5.4001e+05
5.4027e+05
5.4031e+05
5.4057e+05
5.4063e+05
5.409e+05
5.4118e+05
5.4147e+05
5.4171e+05
5.4176e+05
5.4202e+05
5.4206e+05
5.4235e+05
5.4262e+05
5.4266e+05
5.4296e+05
5.4321e+05
5.4325e+05
5.4354e+05
5.4381e+05
5.4412e+05
5.4439e+05
5.4443e+05
5.4469e+05
5.4473e+05
5.4503e+05
5.4535e+05
5.4539e+05
5.4583e+05
5.4586e+05
5.464e+05
5.4644e+05
5.4689e+05
5.4734e+05
5.4761e+05
5.4813e+05
5.4817e+05
5.4846e+05
5.4873e+05
5.4876e+05
5.4959e+05
5.4962e+05
5.4997e+05
5.5074e+05
5.5078e+05
5.5108e+05
5.5191e+05
5.5194e+05
5.5222e+05
5.5278e+05
5.5281e+05
5.5334e+05
5.5342e+05
5.5371e+05
5.5448e+05
5.5457e+05
5.5486e+05
5.5517e+05
5.5571e+05
5.5575e+05
5.5605e+05
5.5715e+05
5.5719e+05
5.5742e+05
5.5749e+05
5.578e+05
5.5894e+05
5.601e+05
5.6013e+05
5.6037e+05
5.6041e+05
5.6094e+05
5.6098e+05
5.6124e+05
5.6128e+05
5.6157e+05
5.624e+05
5.6244e+05
5.6268e+05
5.629e+05
5.6294e+05
5.6323e+05
5.6328e+05
5.6352e+05
5.6355e+05
5.6384e+05
5.6386e+05
5.6417e+05
5.6469e+05
5.6472e+05
5.6495e+05
5.6501e+05
5.6525e+05
5.6529e+05
5.6584e+05
5.6588e+05
5.6614e+05
5.6635e+05
5.6639e+05
5.6727e+05
5.6747e+05
5.675e+05
5.6782e+05
5.6786e+05
5.6842e+05
5.6848e+05
5.6872e+05
5.6875e+05
5.6901e+05
5.6905e+05
5.7019e+05
5.7046e+05
5.705e+05
5.7129e+05
5.7137e+05
5.7163e+05
5.7167e+05
5.7252e+05
5.7257e+05
5.7283e+05
5.7286e+05
5.737e+05
5.7373e+05
5.7403e+05
5.7429e+05
5.7437e+05
5.7523e+05
5.7548e+05
5.7552e+05
5.7638e+05
5.7664e+05
5.767e+05
5.7783e+05
5.7786e+05
5.7903e+05
5.7936e+05
5.8016e+05
5.802e+05
5.8105e+05
5.8108e+05
5.8164e+05
5.8168e+05
5.8192e+05
5.8196e+05
5.8297e+05
5.8305e+05
5.8832e+05
5.8873e+05
5.8885e+05
5.9156e+05
5.921e+05
5.9215e+05
5.9447e+05
5.9495e+05
5.9499e+05
5.9612e+05
5.9668e+05
5.9674e+05
5.9697e+05
5.9701e+05
5.9726e+05
5.975e+05
5.9754e+05
5.9776e+05
5.9828e+05
5.9831e+05
5.9855e+05
5.9859e+05
5.9931e+05
5.9935e+05
5.9955e+05
5.9995e+05
6.003e+05
6.0035e+05
6.0057e+05
6.0127e+05
6.018e+05
6.0215e+05
6.0218e+05
6.0246e+05
6.0303e+05
6.0327e+05
6.0331e+05
6.0399e+05
6.0437e+05
6.0441e+05
6.0484e+05
6.0601e+05
6.0668e+05
6.0673e+05
6.0701e+05
6.0731e+05
6.0775e+05
6.0927e+05
6.097e+05
6.1035e+05
6.1038e+05
6.1082e+05
6.1138e+05
6.1184e+05
6.1226e+05
6.1454e+05
6.1509e+05
6.2166e+05
6.2419e+05
6.3578e+05
6.3582e+05
6.3605e+05
6.3608e+05
6.3636e+05
6.369e+05
6.3753e+05
6.378e+05
6.3784e+05
6.3809e+05
6.3812e+05
6.384e+05
6.3894e+05
6.3899e+05
6.3924e+05
6.3929e+05
6.3958e+05
6.3987e+05
6.4013e+05
6.4017e+05
6.4041e+05
6.4045e+05
6.4102e+05
6.4127e+05
6.4132e+05
6.4161e+05
6.419e+05
6.4219e+05
6.4243e+05
6.4246e+05
6.4266e+05
6.4273e+05
6.4297e+05
6.4301e+05
6.4326e+05
6.433e+05
6.4353e+05
6.4357e+05
6.4381e+05
6.4387e+05
6.4463e+05
6.4466e+05
6.4489e+05
6.4568e+05
6.4574e+05
6.4599e+05
6.4626e+05
6.4649e+05
6.4654e+05
6.4675e+05
6.4678e+05
6.47e+05
6.4705e+05
6.4807e+05
6.4857e+05
6.4861e+05
