346
658
981
1316
1659
1985
2300
2612
2924
3248
3577
3910
4234
4559
4878
5189
5516
5843
6170
6480
6782
7091
7413
7736
8055
8362
8672
8976
9272
9579
9900
10230
10541
10845
11137
11420
11706
11999
12287
12571
12860
13135
13410
13690
13982
14281
14591
14875
15147
15424
15712
16001
16299
16603
16905
17201
17485
17767
18051
18344
18636
18929
19219
19512
19811
20122
20441
20770
21114
21448
21761
22081
22402
22728
23076
23407
23725
24043
24354
24669
24987
25321
25652
25958
26261
26587
26917
27253
27571
27885
28194
28510
28811
29105
29415
29731
30040
30338
30641
30937
31258
31581
31896
32212
32518
32820
33117
33420
33724
34040
34339
34632
34931
35240
35548
35861
36164
36479
36789
37091
37402
37721
38048
38382
38699
39011
39327
39643
39963
40288
40616
40894
41216
41493
41779
42075
42365
42660
42939
43215
43498
43765
44043
44333
44624
44924
45220
45505
45791
46086
46389
46699
47009
47312
47607
47894
48180
48470
48771
49073
49372
49648
49931
50197
50473
50761
51061
51350
51636
51918
52192
52463
52743
53033
53328
53616
53900
54171
54466
54764
55056
55351
55659
55959
56258
56559
56868
57197
57536
57876
58195
58491
58795
59116
59436
59768
60103
60426
60734
61035
61340
61673
62003
62306
62621
62948
63914
64236
64575
64878
65193
65521
65852
66172
66510
66838
67148
67461
67781
68110
68454
68776
69083
69395
69704
70028
70362
70698
71034
71350
71661
71970
72298
72626
72949
73255
73550
73858
74176
74502
74841
75160
75484
75804
76117
76440
76780
77107
77445
77778
78095
78422
78761
79103
79461
79799
80107
80412
80719
81050
81397
81739
82060
82393
82723
83107
83380
83723
84066
84377
84683
85018
85363
85699
86015
86316
86630
86942
87252
87597
88000
88286
88618
88949
89293
89698
90006
90344
90685
91019
91348
91690
92093
92447
92741
93079
94104
94868
95198
95479
95863
96226
96589
96889
97284
97561
97949
98647
99011
99309
99965
1.0031e+05
1.0067e+05
1.0103e+05
1.0137e+05
1.0172e+05
1.0206e+05
1.024e+05
1.0277e+05
1.0383e+05
1.0416e+05
1.045e+05
1.0483e+05
1.0515e+05
1.0548e+05
1.058e+05
1.0613e+05
1.0645e+05
1.0679e+05
1.0715e+05
1.0751e+05
1.0787e+05
1.082e+05
1.0852e+05
1.0886e+05
1.0922e+05
1.0958e+05
1.0994e+05
1.1029e+05
1.1064e+05
1.1099e+05
1.1135e+05
1.1174e+05
1.1211e+05
1.1247e+05
1.1283e+05
1.1319e+05
1.1356e+05
1.1393e+05
1.143e+05
1.1501e+05
1.1604e+05
1.1638e+05
1.1672e+05
1.1738e+05
1.1773e+05
1.1809e+05
1.1846e+05
1.188e+05
1.1913e+05
1.1946e+05
1.1979e+05
1.2012e+05
1.2045e+05
1.2077e+05
1.211e+05
1.2141e+05
1.2171e+05
1.2204e+05
1.2239e+05
1.2275e+05
1.2309e+05
1.2343e+05
1.2377e+05
1.2412e+05
1.2448e+05
1.2484e+05
1.2518e+05
1.2551e+05
1.2584e+05
1.2617e+05
1.2654e+05
1.269e+05
1.2725e+05
1.2758e+05
1.2792e+05
1.2824e+05
1.2858e+05
1.2893e+05
1.293e+05
1.2964e+05
1.2995e+05
1.3028e+05
1.3059e+05
1.3093e+05
1.3127e+05
1.316e+05
1.3191e+05
1.3222e+05
1.3252e+05
1.3286e+05
1.3322e+05
1.3359e+05
1.3397e+05
1.3431e+05
1.3467e+05
1.3505e+05
1.3567e+05
1.3604e+05
1.3638e+05
1.3673e+05
1.3709e+05
1.3745e+05
1.3783e+05
1.3818e+05
1.3853e+05
1.3888e+05
1.3925e+05
1.3963e+05
1.4001e+05
1.4038e+05
1.4072e+05
1.4107e+05
1.4144e+05
1.4182e+05
1.422e+05
1.4256e+05
1.429e+05
1.4325e+05
1.4362e+05
1.4401e+05
1.4439e+05
1.4476e+05
1.4511e+05
1.4546e+05
1.4582e+05
1.462e+05
1.4655e+05
1.4691e+05
1.4726e+05
1.4762e+05
1.48e+05
1.4838e+05
1.4876e+05
1.4911e+05
1.4947e+05
1.4983e+05
1.502e+05
1.5096e+05
1.5132e+05
1.5168e+05
1.5355e+05
1.5391e+05
1.5467e+05
1.5505e+05
1.5543e+05
1.5579e+05
1.5613e+05
1.565e+05
1.5689e+05
1.5727e+05
1.5762e+05
1.5798e+05
1.5833e+05
1.5906e+05
1.5943e+05
1.6016e+05
1.6052e+05
1.6128e+05
1.6166e+05
1.6204e+05
1.6277e+05
1.6392e+05
1.6428e+05
1.6464e+05
1.676e+05
1.6834e+05
1.6868e+05
1.69e+05
1.6934e+05
1.6971e+05
1.7007e+05
1.7043e+05
1.7079e+05
1.7114e+05
1.7149e+05
1.7765e+05
1.7798e+05
1.7833e+05
1.8092e+05
1.8129e+05
1.8164e+05
1.8199e+05
1.8233e+05
1.8268e+05
1.8302e+05
1.8337e+05
1.8372e+05
1.8405e+05
1.8475e+05
1.8644e+05
1.8679e+05
1.8715e+05
1.8752e+05
1.8784e+05
1.8816e+05
1.8848e+05
1.8951e+05
1.8985e+05
1.9083e+05
1.9117e+05
1.9152e+05
1.9221e+05
1.9254e+05
1.9423e+05
1.9523e+05
1.9558e+05
1.9665e+05
1.97e+05
1.9768e+05
1.9803e+05
2.8431e+05
2.9813e+05
2.9848e+05
2.9884e+05
2.9921e+05
2.9957e+05
2.9994e+05
3.0027e+05
3.0059e+05
3.0092e+05
3.0124e+05
3.016e+05
3.0197e+05
3.0234e+05
3.0269e+05
3.0305e+05
3.0342e+05
3.0381e+05
3.0419e+05
3.0528e+05
3.0565e+05
3.0603e+05
3.0641e+05
3.0678e+05
3.0714e+05
3.0749e+05
3.3824e+05
3.3861e+05
3.3896e+05
3.3931e+05
3.3967e+05
3.4002e+05
3.4038e+05
3.4073e+05
3.4139e+05
3.4172e+05
3.4205e+05
3.4245e+05
3.4284e+05
3.4322e+05
3.4358e+05
3.4395e+05
3.4432e+05
3.4469e+05
3.4507e+05
3.4543e+05
3.4573e+05
3.461e+05
3.4644e+05
3.468e+05
3.4713e+05
3.4747e+05
3.478e+05
3.4813e+05
3.4881e+05
3.4917e+05
3.4954e+05
3.4988e+05
3.5016e+05
3.5079e+05
3.5109e+05
3.514e+05
3.5173e+05
3.5205e+05
3.5239e+05
3.5273e+05
3.531e+05
3.5552e+05
3.6098e+05
3.6131e+05
3.62e+05
3.6235e+05
3.6269e+05
3.6329e+05
3.6359e+05
3.6388e+05
3.6421e+05
3.6456e+05
3.696e+05
3.7104e+05
3.714e+05
3.7751e+05
3.7892e+05
3.8174e+05
3.8307e+05
3.8938e+05
3.9041e+05
3.9077e+05
3.9112e+05
3.9182e+05
3.922e+05
3.9292e+05
3.9327e+05
3.9362e+05
3.9471e+05
3.954e+05
3.9753e+05
3.9789e+05
3.9899e+05
4.0038e+05
4.0075e+05
4.0141e+05
4.0282e+05
4.0357e+05
4.0396e+05
4.043e+05
4.0507e+05
4.0543e+05
4.058e+05
4.0765e+05
4.0802e+05
4.0872e+05
4.0908e+05
4.0947e+05
4.0985e+05
4.102e+05
4.1055e+05
4.1091e+05
4.1165e+05
4.1201e+05
4.1237e+05
4.1274e+05
4.1381e+05
4.1561e+05
4.1707e+05
4.1776e+05
4.181e+05
4.1848e+05
4.1884e+05
4.199e+05
4.2026e+05
4.2064e+05
4.21e+05
4.2135e+05
4.2206e+05
4.2243e+05
4.2278e+05
4.2314e+05
4.2417e+05
4.245e+05
4.2482e+05
4.2553e+05
4.2653e+05
4.273e+05
4.2802e+05
4.2872e+05
4.2911e+05
4.3057e+05
4.3127e+05
4.3199e+05
4.3303e+05
4.3339e+05
4.3376e+05
4.341e+05
4.3441e+05
4.3515e+05
4.3553e+05
4.359e+05
4.3731e+05
4.3771e+05
4.3982e+05
4.4016e+05
4.4051e+05
4.4118e+05
4.4188e+05
4.4258e+05
4.4289e+05
4.4386e+05
4.4457e+05
4.4489e+05
4.4804e+05
4.5084e+05
4.5118e+05
4.5153e+05
4.5292e+05
4.5328e+05
4.543e+05
4.5466e+05
4.5573e+05
4.609e+05
4.6228e+05
4.6331e+05
4.6579e+05
4.7202e+05
4.7233e+05
4.745e+05
4.8363e+05
4.8396e+05
4.8569e+05
4.8605e+05
4.882e+05
4.9849e+05
5.0103e+05
5.0303e+05
5.0537e+05
5.0669e+05
5.0806e+05
5.0916e+05
5.0952e+05
5.106e+05
5.1204e+05
5.1309e+05
5.1348e+05
5.1383e+05
5.1487e+05
5.1561e+05
5.1601e+05
5.1635e+05
5.1672e+05
5.178e+05
5.185e+05
5.1994e+05
5.2031e+05
5.21e+05
5.2137e+05
5.2173e+05
5.228e+05
5.2315e+05
5.2557e+05
5.2633e+05
5.2705e+05
5.2774e+05
5.2952e+05
5.3063e+05
5.3099e+05
5.3278e+05
5.3424e+05
5.3535e+05
5.3568e+05
5.3641e+05
5.3678e+05
5.3719e+05
5.3796e+05
5.3832e+05
5.3867e+05
5.3942e+05
5.398e+05
5.4013e+05
5.405e+05
5.4122e+05
5.4159e+05
5.4232e+05
5.4339e+05
5.4521e+05
5.4595e+05
5.4813e+05
5.4887e+05
5.4957e+05
5.5213e+05
5.5427e+05
5.5606e+05
5.5787e+05
5.5859e+05
5.6076e+05
5.6114e+05
5.6244e+05
5.6354e+05
5.6461e+05
5.6681e+05
5.6939e+05
5.7013e+05
5.7156e+05
5.7409e+05
5.748e+05
5.762e+05
5.7984e+05
5.8965e+05
5.9e+05
5.918e+05
5.9519e+05
5.9663e+05
5.9738e+05
5.9882e+05
6.0168e+05
6.0204e+05
6.0276e+05
6.0549e+05
6.0863e+05
6.1042e+05
6.1079e+05
6.1117e+05
6.1153e+05
6.1187e+05
6.144e+05
6.1586e+05
6.1657e+05
6.173e+05
6.1873e+05
6.1949e+05
6.2056e+05
6.2624e+05
6.2798e+05
6.2905e+05
6.3016e+05
6.3235e+05
6.3272e+05
6.3309e+05
6.3419e+05
6.3456e+05
6.3564e+05
6.36e+05
6.3639e+05
6.3884e+05
6.4094e+05
6.4674e+05
6.4892e+05
6.4929e+05
-1
499
815
1142
1481
1826
2143
2454
2770
2869
3083
3417
3741
4066
4391
4713
4985
5031
5345
5677
6011
6043
6330
6633
6936
7252
7572
7894
8213
8516
8825
9130
9428
9737
10069
10116
10392
10691
10995
11287
11336
11573
11869
12161
12444
12731
13012
13285
13563
13849
13899
14138
14443
14711
14742
15027
15058
15298
15579
15862
16155
16458
16764
17065
17353
17634
17914
18208
18507
18799
19084
19374
19660
19964
20276
20602
20932
21277
21604
21912
22235
22562
22895
23239
23561
23881
24193
24505
24825
25146
25483
25809
26111
26415
26747
27078
27412
27730
28038
28344
28659
28968
29264
29579
29892
30192
30490
30790
31091
31420
31742
32056
32371
32668
32968
33272
33574
33887
34198
34493
34783
35088
35395
35705
36021
36322
36635
36940
37242
37559
37887
38213
38539
38795
38855
39164
39482
39800
40122
40158
40452
40516
40776
40874
41079
41363
41649
41936
42193
42234
42817
43095
43320
43375
43648
43917
44200
44497
44789
45089
45372
45654
45944
46246
46554
46859
47168
47468
47761
48045
48328
48673
48869
48935
49247
49554
49745
49801
50076
50354
50639
50924
51222
51452
51541
51795
52020
52071
52361
52613
52642
52900
53125
53198
53446
53499
53777
54007
54324
54623
54922
55216
55514
55554
55819
56114
56407
56708
57024
57362
57704
57995
58038
58350
58648
58953
59276
59597
59934
60264
60578
60887
61191
61505
61841
62169
62463
62782
63315
63738
63793
64076
64403
64732
65029
65351
65688
66018
66337
66677
66932
67001
67305
67614
67940
68279
68616
68934
68973
69236
69548
69862
70192
70530
70863
71198
71505
71813
72128
72461
72794
73111
73410
73646
73706
74019
74338
74670
75009
75326
75644
75958
76270
76606
76941
77269
77603
77931
78254
78578
78875
78927
79274
79626
79958
80263
80571
80886
80929
81221
81567
81899
82222
82552
82880
83278
83546
83584
83891
84224
84529
84844
85181
85527
85902
86174
86477
86790
87102
87416
87714
87773
88162
88445
88774
89053
89107
89458
89602
89859
90172
90510
90843
91261
91859
92304
92610
92896
93329
93680
93974
94370
94715
95017
95343
96078
96385
96699
97094
97766
98154
98864
99463
1.0012e+05
1.0048e+05
1.0084e+05
1.012e+05
1.0154e+05
1.0188e+05
1.0222e+05
1.0257e+05
1.0294e+05
1.0398e+05
1.0432e+05
1.0466e+05
1.0499e+05
1.0531e+05
1.0564e+05
1.0596e+05
1.0629e+05
1.0661e+05
1.0696e+05
1.0732e+05
1.0768e+05
1.0803e+05
1.0836e+05
1.0868e+05
1.0903e+05
1.0939e+05
1.0975e+05
1.1011e+05
1.1045e+05
1.108e+05
1.1116e+05
1.1153e+05
1.119e+05
1.1227e+05
1.1263e+05
1.1299e+05
1.1335e+05
1.1373e+05
1.141e+05
1.1447e+05
1.1483e+05
1.1515e+05
1.1539e+05
1.1586e+05
1.1615e+05
1.1621e+05
1.1649e+05
1.1655e+05
1.1688e+05
1.1718e+05
1.1721e+05
1.1754e+05
1.1789e+05
1.1821e+05
1.1826e+05
1.1857e+05
1.187e+05
1.1892e+05
1.1896e+05
1.1929e+05
1.1963e+05
1.1996e+05
1.2024e+05
1.2028e+05
1.2061e+05
1.2093e+05
1.2125e+05
1.2156e+05
1.2187e+05
1.222e+05
1.2256e+05
1.2291e+05
1.2325e+05
1.2358e+05
1.2393e+05
1.2429e+05
1.2465e+05
1.25e+05
1.2534e+05
1.2567e+05
1.26e+05
1.2634e+05
1.2671e+05
1.2706e+05
1.2741e+05
1.2774e+05
1.2808e+05
1.284e+05
1.2875e+05
1.291e+05
1.2942e+05
1.2947e+05
1.2978e+05
1.3006e+05
1.3011e+05
1.3044e+05
1.3077e+05
1.3111e+05
1.3143e+05
1.3175e+05
1.3207e+05
1.3237e+05
1.3268e+05
1.3302e+05
1.3339e+05
1.3376e+05
1.3413e+05
1.3447e+05
1.3484e+05
1.3541e+05
1.3584e+05
1.3619e+05
1.3655e+05
1.369e+05
1.3725e+05
1.3763e+05
1.38e+05
1.3834e+05
1.3869e+05
1.3905e+05
1.3943e+05
1.398e+05
1.4018e+05
1.4054e+05
1.4088e+05
1.4124e+05
1.4161e+05
1.4199e+05
1.4236e+05
1.4272e+05
1.4306e+05
1.4342e+05
1.4379e+05
1.4417e+05
1.4455e+05
1.4492e+05
1.4527e+05
1.4562e+05
1.46e+05
1.4637e+05
1.4672e+05
1.4707e+05
1.4742e+05
1.4779e+05
1.4817e+05
1.4855e+05
1.4892e+05
1.4927e+05
1.4963e+05
1.4999e+05
1.5038e+05
1.5112e+05
1.5148e+05
1.5184e+05
1.5371e+05
1.5407e+05
1.5484e+05
1.5521e+05
1.5559e+05
1.5595e+05
1.563e+05
1.5667e+05
1.5706e+05
1.5744e+05
1.5778e+05
1.5814e+05
1.585e+05
1.5923e+05
1.596e+05
1.6032e+05
1.6068e+05
1.6145e+05
1.6183e+05
1.622e+05
1.6294e+05
1.6408e+05
1.6444e+05
1.648e+05
1.6496e+05
1.6777e+05
1.685e+05
1.6884e+05
1.6917e+05
1.6951e+05
1.6989e+05
1.7025e+05
1.7059e+05
1.7096e+05
1.713e+05
1.7165e+05
1.718e+05
1.7781e+05
1.7815e+05
1.7845e+05
1.7851e+05
1.8109e+05
1.8145e+05
1.818e+05
1.8215e+05
1.825e+05
1.8285e+05
1.8319e+05
1.8354e+05
1.8387e+05
1.8421e+05
1.8434e+05
1.8492e+05
1.8505e+05
1.866e+05
1.8696e+05
1.8732e+05
1.8769e+05
1.8801e+05
1.8832e+05
1.8864e+05
1.8878e+05
1.8933e+05
1.8968e+05
1.9001e+05
1.91e+05
1.9135e+05
1.917e+05
1.9183e+05
1.9237e+05
1.9269e+05
1.9283e+05
1.944e+05
1.9454e+05
1.954e+05
1.9575e+05
1.9681e+05
1.9716e+05
1.9731e+05
1.9785e+05
1.9819e+05
1.9889e+05
1.9922e+05
1.9957e+05
1.9993e+05
2.0029e+05
2.0064e+05
2.0098e+05
2.3885e+05
2.3922e+05
2.3959e+05
2.3994e+05
2.4029e+05
2.4064e+05
2.4102e+05
2.414e+05
2.4178e+05
2.4215e+05
2.4249e+05
2.4287e+05
2.4326e+05
2.4364e+05
2.4401e+05
2.4438e+05
2.4475e+05
2.4511e+05
2.455e+05
2.4588e+05
2.4625e+05
2.466e+05
2.4696e+05
2.4734e+05
2.4772e+05
2.4809e+05
2.4847e+05
2.4882e+05
2.4916e+05
2.4952e+05
2.499e+05
2.5026e+05
2.5062e+05
2.5096e+05
2.5131e+05
2.5166e+05
2.5204e+05
2.5241e+05
2.5277e+05
2.5313e+05
2.5348e+05
2.5424e+05
2.5462e+05
2.5499e+05
2.5533e+05
2.557e+05
2.5608e+05
2.5685e+05
2.5793e+05
2.5833e+05
2.587e+05
2.5907e+05
2.5944e+05
2.6014e+05
2.623e+05
2.6267e+05
2.6282e+05
2.6341e+05
2.6375e+05
2.6411e+05
2.6447e+05
2.6483e+05
2.6521e+05
2.6592e+05
2.6628e+05
2.6702e+05
2.6738e+05
2.677e+05
2.6775e+05
2.6993e+05
2.7006e+05
2.7137e+05
2.7212e+05
2.7247e+05
2.7282e+05
2.7297e+05
2.7574e+05
2.7612e+05
2.7649e+05
2.7683e+05
2.7718e+05
2.7755e+05
2.7829e+05
2.7865e+05
2.7901e+05
2.7936e+05
2.795e+05
2.8452e+05
2.8596e+05
2.8708e+05
2.8744e+05
2.8759e+05
2.8851e+05
2.889e+05
2.8926e+05
2.8962e+05
2.9033e+05
2.9069e+05
2.9143e+05
2.9158e+05
2.9286e+05
2.9395e+05
2.9431e+05
2.9446e+05
2.9539e+05
2.9575e+05
2.961e+05
2.9645e+05
2.968e+05
2.9719e+05
2.9756e+05
2.983e+05
2.9865e+05
2.99e+05
2.9938e+05
2.9974e+05
3.001e+05
3.0043e+05
3.0075e+05
3.0108e+05
3.0142e+05
3.0177e+05
3.0214e+05
3.025e+05
3.0285e+05
3.0321e+05
3.0359e+05
3.0398e+05
3.0435e+05
3.0472e+05
3.0509e+05
3.0545e+05
3.0582e+05
3.062e+05
3.0659e+05
3.0694e+05
3.073e+05
3.0765e+05
3.084e+05
3.0856e+05
3.3582e+05
3.3593e+05
3.3806e+05
3.3842e+05
3.3877e+05
3.3912e+05
3.3947e+05
3.3983e+05
3.4018e+05
3.4055e+05
3.409e+05
3.4123e+05
3.4155e+05
3.4188e+05
3.4224e+05
3.4262e+05
3.43e+05
3.4338e+05
3.4375e+05
3.4412e+05
3.4449e+05
3.4486e+05
3.4524e+05
3.456e+05
3.4593e+05
3.4626e+05
3.4661e+05
3.4697e+05
3.4732e+05
3.4764e+05
3.4797e+05
3.483e+05
3.4863e+05
3.4898e+05
3.4934e+05
3.4971e+05
3.5004e+05
3.5035e+05
3.5065e+05
3.5095e+05
3.5126e+05
3.5157e+05
3.5189e+05
3.5221e+05
3.5255e+05
3.5289e+05
3.5327e+05
3.5569e+05
3.5583e+05
3.6114e+05
3.6147e+05
3.6162e+05
3.6217e+05
3.6252e+05
3.6285e+05
3.6316e+05
3.6346e+05
3.6375e+05
3.6405e+05
3.6438e+05
3.6473e+05
3.6484e+05
3.6976e+05
3.699e+05
3.712e+05
3.7156e+05
3.7172e+05
3.7768e+05
3.7783e+05
3.7908e+05
3.8018e+05
3.8032e+05
3.8158e+05
3.8191e+05
3.8205e+05
3.8323e+05
3.8337e+05
3.8954e+05
3.8965e+05
3.9058e+05
3.9094e+05
3.9128e+05
3.9144e+05
3.9199e+05
3.9237e+05
3.9309e+05
3.9343e+05
3.9378e+05
3.9392e+05
3.9489e+05
3.9504e+05
3.9557e+05
3.9738e+05
3.9773e+05
3.9807e+05
3.9843e+05
3.988e+05
3.9916e+05
3.9952e+05
3.9987e+05
4.0022e+05
4.0056e+05
4.0091e+05
4.0126e+05
4.016e+05
4.0194e+05
4.0229e+05
4.0264e+05
4.0302e+05
4.034e+05
4.0377e+05
4.0414e+05
4.0449e+05
4.0486e+05
4.0524e+05
4.0562e+05
4.0599e+05
4.0636e+05
4.0671e+05
4.0707e+05
4.0746e+05
4.0784e+05
4.082e+05
4.0856e+05
4.0892e+05
4.0927e+05
4.0965e+05
4.1003e+05
4.1039e+05
4.1074e+05
4.1109e+05
4.1145e+05
4.1182e+05
4.1219e+05
4.1255e+05
4.129e+05
4.1326e+05
4.1361e+05
4.1398e+05
4.1437e+05
4.1472e+05
4.1507e+05
4.1543e+05
4.1579e+05
4.1616e+05
4.1653e+05
4.1688e+05
4.1723e+05
4.1758e+05
4.1793e+05
4.183e+05
4.1868e+05
4.1903e+05
4.1938e+05
4.1973e+05
4.2008e+05
4.2046e+05
4.2081e+05
4.2118e+05
4.2153e+05
4.2187e+05
4.2223e+05
4.226e+05
4.2297e+05
4.2333e+05
4.2366e+05
4.24e+05
4.2434e+05
4.2467e+05
4.2501e+05
4.2535e+05
4.2569e+05
4.2603e+05
4.2638e+05
4.2674e+05
4.2712e+05
4.2749e+05
4.2785e+05
4.282e+05
4.2855e+05
4.2892e+05
4.2929e+05
4.2967e+05
4.3002e+05
4.3037e+05
4.3074e+05
4.311e+05
4.3147e+05
4.3183e+05
4.3218e+05
4.3252e+05
4.3287e+05
4.3321e+05
4.3357e+05
4.3393e+05
4.3427e+05
4.3461e+05
4.3496e+05
4.3533e+05
4.357e+05
4.3608e+05
4.3644e+05
4.3678e+05
4.3713e+05
4.375e+05
4.3789e+05
4.3825e+05
4.3859e+05
4.3894e+05
4.3929e+05
4.3964e+05
4.3999e+05
4.4035e+05
4.4069e+05
4.4103e+05
4.4137e+05
4.4172e+05
4.4207e+05
4.4243e+05
4.4271e+05
4.4276e+05
4.4308e+05
4.434e+05
4.4372e+05
4.4406e+05
4.4442e+05
4.4476e+05
4.4508e+05
4.4542e+05
4.4576e+05
4.4647e+05
4.4677e+05
4.4683e+05
4.4753e+05
4.4787e+05
4.4823e+05
4.4858e+05
4.4894e+05
4.4929e+05
4.4942e+05
4.5067e+05
4.5103e+05
4.5137e+05
4.5143e+05
4.5171e+05
4.5186e+05
4.5276e+05
4.5312e+05
4.5346e+05
4.538e+05
4.5414e+05
4.5449e+05
4.5483e+05
4.552e+05
4.5557e+05
4.5591e+05
4.5605e+05
4.6074e+05
4.6109e+05
4.6144e+05
4.6179e+05
4.6213e+05
4.6247e+05
4.6261e+05
4.6313e+05
4.635e+05
4.6423e+05
4.6438e+05
4.6491e+05
4.6526e+05
4.6561e+05
4.6598e+05
4.6633e+05
4.6699e+05
4.6731e+05
4.6746e+05
4.6802e+05
4.6838e+05
4.6872e+05
4.6883e+05
4.6938e+05
4.6952e+05
4.7219e+05
4.7255e+05
4.7269e+05
4.7431e+05
4.7468e+05
4.7482e+05
4.785e+05
4.7866e+05
4.8099e+05
4.8205e+05
4.8239e+05
4.8252e+05
4.8345e+05
4.838e+05
4.8414e+05
4.8427e+05
4.8516e+05
4.8531e+05
4.8588e+05
4.8623e+05
4.8639e+05
4.8842e+05
4.8855e+05
4.8984e+05
4.8998e+05
4.9087e+05
4.9122e+05
4.9136e+05
4.9293e+05
4.9305e+05
4.9394e+05
4.9398e+05
4.9429e+05
4.9442e+05
4.9597e+05
4.9669e+05
4.9703e+05
4.9735e+05
4.9768e+05
4.9807e+05
4.9812e+05
4.9836e+05
4.9868e+05
4.99e+05
4.9905e+05
4.993e+05
4.9962e+05
4.9993e+05
5.0025e+05
5.0058e+05
5.009e+05
5.0123e+05
5.0155e+05
5.0187e+05
5.022e+05
5.0254e+05
5.0288e+05
5.0322e+05
5.0353e+05
5.0383e+05
5.0415e+05
5.0449e+05
5.0484e+05
5.052e+05
5.0554e+05
5.0587e+05
5.0619e+05
5.0653e+05
5.0688e+05
5.0722e+05
5.0756e+05
5.079e+05
5.0824e+05
5.0859e+05
5.0896e+05
5.0935e+05
5.0972e+05
5.1006e+05
5.1041e+05
5.1078e+05
5.1115e+05
5.1153e+05
5.1188e+05
5.1223e+05
5.1258e+05
5.1294e+05
5.1331e+05
5.1367e+05
5.1402e+05
5.1437e+05
5.1472e+05
5.1508e+05
5.1545e+05
5.1582e+05
5.1619e+05
5.1654e+05
5.169e+05
5.1724e+05
5.1762e+05
5.1799e+05
5.1834e+05
5.1869e+05
5.1904e+05
5.1939e+05
5.1976e+05
5.2013e+05
5.205e+05
5.2085e+05
5.2119e+05
5.2155e+05
5.2193e+05
5.2229e+05
5.2265e+05
5.2298e+05
5.2333e+05
5.2367e+05
5.2403e+05
5.2438e+05
5.2473e+05
5.2507e+05
5.2542e+05
5.2576e+05
5.2613e+05
5.2651e+05
5.2688e+05
5.2724e+05
5.2759e+05
5.2794e+05
5.2827e+05
5.2862e+05
5.2898e+05
5.2933e+05
5.2969e+05
5.3005e+05
5.3043e+05
5.3081e+05
5.3118e+05
5.3154e+05
5.3189e+05
5.3212e+05
5.3259e+05
5.3298e+05
5.3335e+05
5.337e+05
5.3406e+05
5.3442e+05
5.348e+05
5.3517e+05
5.3553e+05
5.3587e+05
5.3623e+05
5.366e+05
5.3699e+05
5.3739e+05
5.3777e+05
5.3815e+05
5.3851e+05
5.3886e+05
5.3924e+05
5.3962e+05
5.3998e+05
5.4032e+05
5.4068e+05
5.4105e+05
5.4142e+05
5.4178e+05
5.4215e+05
5.4251e+05
5.4285e+05
5.432e+05
5.4359e+05
5.4396e+05
5.4431e+05
5.4466e+05
5.4503e+05
5.454e+05
5.4577e+05
5.4615e+05
5.4686e+05
5.4721e+05
5.4757e+05
5.4833e+05
5.4868e+05
5.4906e+05
5.4918e+05
5.4978e+05
5.5016e+05
5.5125e+05
5.516e+05
5.5232e+05
5.5269e+05
5.5338e+05
5.5373e+05
5.541e+05
5.5448e+05
5.5484e+05
5.552e+05
5.5555e+05
5.5589e+05
5.5626e+05
5.5699e+05
5.5735e+05
5.577e+05
5.5805e+05
5.5841e+05
5.5879e+05
5.5951e+05
5.5986e+05
5.6022e+05
5.6095e+05
5.6133e+05
5.6168e+05
5.6179e+05
5.623e+05
5.6263e+05
5.63e+05
5.6337e+05
5.6372e+05
5.6408e+05
5.6423e+05
5.648e+05
5.6517e+05
5.6556e+05
5.6628e+05
5.6664e+05
5.6701e+05
5.6717e+05
5.6776e+05
5.6813e+05
5.6829e+05
5.6884e+05
5.692e+05
5.6958e+05
5.6996e+05
5.7031e+05
5.7066e+05
5.7102e+05
5.7139e+05
5.7175e+05
5.7212e+05
5.7248e+05
5.7283e+05
5.7317e+05
5.7353e+05
5.7392e+05
5.7429e+05
5.7464e+05
5.7499e+05
5.7513e+05
5.7567e+05
5.7603e+05
5.7639e+05
5.7675e+05
5.7709e+05
5.7744e+05
5.7781e+05
5.8001e+05
5.8017e+05
5.8406e+05
5.8422e+05
5.848e+05
5.8518e+05
5.853e+05
5.8587e+05
5.8622e+05
5.8803e+05
5.8838e+05
5.8874e+05
5.8948e+05
5.8983e+05
5.9019e+05
5.909e+05
5.9128e+05
5.9165e+05
5.9198e+05
5.9231e+05
5.9264e+05
5.9276e+05
5.9332e+05
5.9365e+05
5.9399e+05
5.9412e+05
5.9466e+05
5.9502e+05
5.9538e+05
5.9613e+05
5.9648e+05
5.9683e+05
5.9719e+05
5.9758e+05
5.9795e+05
5.9832e+05
5.9868e+05
5.9902e+05
5.9937e+05
5.9974e+05
6.0011e+05
6.0046e+05
6.008e+05
6.0116e+05
6.0151e+05
6.0188e+05
6.0224e+05
6.026e+05
6.0295e+05
6.0328e+05
6.0362e+05
6.0399e+05
6.0435e+05
6.0468e+05
6.0502e+05
6.0536e+05
6.057e+05
6.0605e+05
6.0642e+05
6.0679e+05
6.0713e+05
6.0746e+05
6.078e+05
6.0813e+05
6.0848e+05
6.0883e+05
6.0917e+05
6.0951e+05
6.0986e+05
6.1023e+05
6.1062e+05
6.11e+05
6.1137e+05
6.1172e+05
6.1208e+05
6.1245e+05
6.1282e+05
6.1318e+05
6.1353e+05
6.1389e+05
6.1424e+05
6.1461e+05
6.1497e+05
6.1535e+05
6.157e+05
6.1605e+05
6.164e+05
6.1677e+05
6.1715e+05
6.1751e+05
6.1787e+05
6.1823e+05
6.1858e+05
6.1894e+05
6.1932e+05
6.197e+05
6.2004e+05
6.204e+05
6.2076e+05
6.2113e+05
6.215e+05
6.2187e+05
6.2223e+05
6.2257e+05
6.2291e+05
6.2328e+05
6.2365e+05
6.2399e+05
6.2432e+05
6.2466e+05
6.25e+05
6.2534e+05
6.2571e+05
6.2609e+05
6.2644e+05
6.2678e+05
6.2713e+05
6.2749e+05
6.2784e+05
6.2819e+05
6.2855e+05
6.2889e+05
6.2924e+05
6.296e+05
6.2998e+05
6.3036e+05
6.3074e+05
6.3109e+05
6.3146e+05
6.3181e+05
6.3218e+05
6.3256e+05
6.3292e+05
6.3328e+05
6.3364e+05
6.3401e+05
6.3439e+05
6.3476e+05
6.3512e+05
6.3548e+05
6.3584e+05
6.3622e+05
6.366e+05
6.3698e+05
6.3733e+05
6.3767e+05
6.3801e+05
6.3836e+05
6.3871e+05
6.3904e+05
6.3937e+05
6.3971e+05
6.4006e+05
6.4033e+05
6.404e+05
6.4077e+05
6.4114e+05
6.4151e+05
6.4185e+05
6.4218e+05
6.4255e+05
6.4293e+05
6.4329e+05
6.4365e+05
6.4401e+05
6.4437e+05
6.4474e+05
6.4514e+05
6.4551e+05
6.4586e+05
6.4621e+05
6.4657e+05
6.4694e+05
6.4731e+05
6.4805e+05
6.484e+05
6.4869e+05
6.4876e+05
6.4912e+05
6.4949e+05
