298
2431
2738
4790
5118
6031
6263
7794
8109
8442
8652
9866
10148
10803
11086
13181
13478
13690
15556
17326
17605
19142
19974
20309
20553
20915
21809
22077
22390
23883
24174
25077
25961
27156
28049
28600
29204
29833
30105
30960
31803
32120
33198
34306
34594
34859
35188
36681
38136
39039
39309
39908
40829
41086
41682
41929
42581
42839
43668
44549
45197
45408
45702
46291
46898
47222
47463
47783
48642
48911
49197
49747
50363
50654
51257
52131
52913
53552
54392
54680
55515
55891
56413
57261
57548
58172
58490
59280
59539
61893
62446
63026
63339
63632
64515
65123
68721
69266
69604
69911
70222
70863
71420
72276
72657
73219
73505
74089
74381
74671
74995
75284
75870
76759
78003
78258
78586
79201
79469
80020
80323
80635
81217
81818
82110
82393
83062
83368
83984
84247
84569
86018
86309
86598
86884
87785
88658
88958
89545
90484
92266
93192
93496
93789
94044
95486
95835
96749
97876
98561
99157
99428
1.012e+05
1.0208e+05
1.0382e+05
1.0409e+05
1.0499e+05
1.0537e+05
1.0568e+05
1.0598e+05
1.0684e+05
1.0862e+05
1.0924e+05
1.0953e+05
1.0985e+05
1.1303e+05
1.1756e+05
1.1905e+05
1.1936e+05
1.2115e+05
1.2474e+05
1.2503e+05
1.2557e+05
1.2651e+05
1.2828e+05
1.2921e+05
1.3005e+05
1.3031e+05
1.3068e+05
1.3181e+05
1.3238e+05
1.3305e+05
1.3453e+05
1.3507e+05
1.3546e+05
1.3747e+05
1.3783e+05
1.3842e+05
1.387e+05
1.4082e+05
1.4108e+05
1.4163e+05
1.4341e+05
1.4376e+05
1.4912e+05
1.5056e+05
1.5178e+05
1.7533e+05
1.8627e+05
1.8695e+05
1.9052e+05
1.9404e+05
1.9858e+05
1.9911e+05
1.9946e+05
2.0037e+05
2.0066e+05
2.0094e+05
2.0124e+05
2.0154e+05
2.0184e+05
2.0214e+05
2.0244e+05
2.0361e+05
2.0389e+05
2.0425e+05
2.0481e+05
2.0513e+05
2.0541e+05
2.0569e+05
2.06e+05
2.063e+05
2.0662e+05
2.0694e+05
2.0715e+05
2.0748e+05
2.0799e+05
2.0825e+05
2.0862e+05
2.0923e+05
2.0951e+05
2.0979e+05
2.1007e+05
2.1034e+05
2.1131e+05
2.1161e+05
2.1181e+05
2.1215e+05
2.1249e+05
2.1277e+05
2.1305e+05
2.1336e+05
2.1363e+05
2.1422e+05
2.1514e+05
2.1545e+05
2.1636e+05
2.1665e+05
2.1687e+05
2.1723e+05
2.1815e+05
2.1843e+05
2.187e+05
2.1902e+05
2.1933e+05
2.199e+05
2.2024e+05
2.2081e+05
2.2111e+05
2.214e+05
2.2171e+05
2.2202e+05
2.2234e+05
2.2256e+05
2.2289e+05
2.2347e+05
2.2375e+05
2.2413e+05
2.2439e+05
2.247e+05
2.2492e+05
2.2526e+05
2.2555e+05
2.2586e+05
2.2622e+05
2.2645e+05
2.268e+05
2.2797e+05
2.2824e+05
2.2855e+05
2.2887e+05
2.291e+05
2.2946e+05
2.2974e+05
2.3003e+05
2.3031e+05
2.3067e+05
2.3097e+05
2.3124e+05
2.3153e+05
2.3211e+05
2.3244e+05
2.3305e+05
2.3333e+05
2.336e+05
2.3451e+05
2.3483e+05
2.3511e+05
2.3538e+05
2.3573e+05
2.3593e+05
2.3625e+05
2.3688e+05
2.3722e+05
2.3743e+05
2.3773e+05
2.3805e+05
2.3868e+05
2.3898e+05
2.3927e+05
2.3955e+05
2.399e+05
2.4016e+05
2.4042e+05
2.4137e+05
2.4218e+05
2.4253e+05
2.4316e+05
2.4345e+05
2.4374e+05
2.4406e+05
2.4431e+05
2.4462e+05
2.4523e+05
2.4608e+05
2.4639e+05
2.47e+05
2.4732e+05
2.4824e+05
2.4852e+05
2.4938e+05
2.497e+05
2.5003e+05
2.5063e+05
2.5149e+05
2.5175e+05
2.5209e+05
2.5269e+05
2.5296e+05
2.5564e+05
2.574e+05
2.5861e+05
2.592e+05
2.5983e+05
2.601e+05
2.6131e+05
2.6162e+05
2.622e+05
2.6244e+05
2.6313e+05
2.6342e+05
2.6398e+05
2.6487e+05
2.6579e+05
2.6722e+05
2.6757e+05
2.6788e+05
2.6843e+05
2.6873e+05
2.6966e+05
2.6997e+05
2.7025e+05
2.7053e+05
2.7204e+05
2.7235e+05
2.7262e+05
2.7322e+05
2.7383e+05
2.7411e+05
2.7472e+05
2.7524e+05
2.7588e+05
2.7644e+05
2.7676e+05
2.7858e+05
2.7917e+05
2.8008e+05
2.8124e+05
2.8211e+05
2.8273e+05
2.8306e+05
2.8424e+05
2.8457e+05
2.8511e+05
2.8543e+05
2.8573e+05
2.8635e+05
2.8725e+05
2.8809e+05
2.8835e+05
2.8904e+05
2.8932e+05
2.9019e+05
2.9108e+05
2.9136e+05
2.9197e+05
2.9227e+05
2.9258e+05
2.9373e+05
2.9409e+05
2.9438e+05
2.9498e+05
2.9557e+05
2.9589e+05
2.9854e+05
2.9913e+05
2.9941e+05
2.9978e+05
3.018e+05
3.0242e+05
3.0272e+05
3.0423e+05
3.0453e+05
3.0475e+05
3.0541e+05
3.0566e+05
3.066e+05
3.0719e+05
3.0801e+05
3.0923e+05
3.0958e+05
3.1107e+05
3.1225e+05
3.1255e+05
3.1287e+05
3.137e+05
3.1462e+05
3.149e+05
3.1524e+05
3.1643e+05
3.1735e+05
3.1759e+05
3.179e+05
3.1882e+05
3.1942e+05
3.2023e+05
3.2056e+05
3.2083e+05
3.2142e+05
3.2296e+05
3.2322e+05
3.236e+05
3.2388e+05
3.2417e+05
3.2446e+05
3.2507e+05
3.2534e+05
3.2567e+05
3.2655e+05
3.2806e+05
3.2835e+05
3.2864e+05
3.2893e+05
3.2915e+05
3.2953e+05
3.3162e+05
3.3252e+05
3.3341e+05
3.3401e+05
3.3489e+05
3.352e+05
3.3548e+05
3.3605e+05
3.3728e+05
3.375e+05
3.3842e+05
3.3876e+05
3.3932e+05
3.4023e+05
3.4049e+05
3.4085e+05
3.4114e+05
3.4145e+05
3.4166e+05
3.4195e+05
3.4259e+05
3.4291e+05
3.4352e+05
3.4382e+05
3.45e+05
3.4555e+05
3.4741e+05
3.4771e+05
3.4852e+05
3.4886e+05
3.5007e+05
3.5038e+05
3.5093e+05
3.5152e+05
3.5185e+05
3.5483e+05
3.5575e+05
3.5605e+05
3.5627e+05
3.5745e+05
3.5814e+05
3.5873e+05
3.5893e+05
3.6106e+05
3.6312e+05
3.6347e+05
3.6549e+05
3.6793e+05
3.697e+05
3.7183e+05
3.7335e+05
3.7629e+05
3.778e+05
3.8373e+05
3.8456e+05
3.8526e+05
3.8608e+05
3.8933e+05
3.9176e+05
3.9349e+05
3.9713e+05
3.9737e+05
3.98e+05
3.9891e+05
3.9978e+05
4.0008e+05
4.0067e+05
4.0129e+05
4.0155e+05
4.0191e+05
4.0399e+05
4.0449e+05
4.0485e+05
4.0542e+05
4.0576e+05
4.0608e+05
4.0688e+05
4.0755e+05
4.0813e+05
4.0844e+05
4.0903e+05
4.0932e+05
4.0993e+05
4.1052e+05
4.111e+05
4.1227e+05
4.1286e+05
4.1321e+05
4.1351e+05
4.1472e+05
4.1527e+05
4.1557e+05
4.1583e+05
4.162e+05
4.1652e+05
4.1674e+05
4.1706e+05
4.1734e+05
4.1762e+05
4.1796e+05
4.1829e+05
4.1854e+05
4.2066e+05
4.2212e+05
4.2274e+05
4.2303e+05
4.2358e+05
4.2393e+05
4.2539e+05
4.2595e+05
4.2631e+05
4.272e+05
4.2748e+05
4.2775e+05
4.2807e+05
4.2835e+05
4.287e+05
4.2899e+05
4.2991e+05
4.3017e+05
4.3076e+05
4.3105e+05
4.3137e+05
4.3169e+05
4.3286e+05
4.3314e+05
4.3348e+05
4.3375e+05
4.3439e+05
4.3459e+05
4.349e+05
4.3521e+05
4.3585e+05
4.3616e+05
4.3703e+05
4.3795e+05
4.3853e+05
4.391e+05
4.397e+05
4.4062e+05
4.4149e+05
4.4179e+05
4.4271e+05
4.4328e+05
4.4355e+05
4.4418e+05
4.4596e+05
4.48e+05
4.4954e+05
4.4982e+05
4.5039e+05
4.5076e+05
4.5136e+05
4.5157e+05
4.5191e+05
4.522e+05
4.5345e+05
4.5398e+05
4.546e+05
4.549e+05
4.5602e+05
4.5729e+05
4.5968e+05
4.6028e+05
4.6177e+05
4.6204e+05
4.6383e+05
4.6443e+05
4.6474e+05
4.6496e+05
4.6625e+05
4.6862e+05
4.6892e+05
4.6913e+05
4.695e+05
4.7039e+05
4.7129e+05
4.7158e+05
4.7215e+05
4.725e+05
4.7366e+05
4.74e+05
4.7457e+05
4.7488e+05
4.7539e+05
4.7605e+05
4.7667e+05
4.7697e+05
4.7725e+05
4.7935e+05
4.8199e+05
4.8315e+05
4.844e+05
4.8473e+05
4.8496e+05
4.8535e+05
4.8555e+05
4.859e+05
4.8613e+05
4.8648e+05
4.8669e+05
4.8738e+05
4.8827e+05
4.8857e+05
4.8915e+05
4.9662e+05
4.9691e+05
4.972e+05
4.9811e+05
4.9958e+05
5.0138e+05
5.0374e+05
5.0497e+05
5.0583e+05
5.0764e+05
5.0843e+05
5.0936e+05
5.0963e+05
5.1202e+05
5.1382e+05
5.1649e+05
5.1736e+05
5.1884e+05
5.1914e+05
5.1975e+05
5.2302e+05
5.2361e+05
5.2392e+05
5.254e+05
5.2778e+05
5.2868e+05
5.2899e+05
5.2928e+05
5.3047e+05
5.3077e+05
5.3166e+05
5.3224e+05
5.3346e+05
5.3376e+05
5.3403e+05
5.3673e+05
5.9649e+05
5.9678e+05
5.9738e+05
5.9885e+05
5.9978e+05
6.0123e+05
6.0154e+05
6.0245e+05
6.0305e+05
6.0425e+05
6.0665e+05
6.1166e+05
6.1227e+05
6.1437e+05
6.1555e+05
6.1585e+05
6.1675e+05
6.1764e+05
6.2062e+05
6.212e+05
6.2269e+05
6.245e+05
6.2568e+05
6.2658e+05
6.2686e+05
6.2746e+05
6.2778e+05
6.2838e+05
6.2868e+05
6.3045e+05
6.3103e+05
6.3132e+05
6.3254e+05
6.3313e+05
6.3492e+05
6.4713e+05
6.4743e+05
-1
520
814
1079
1115
1740
2032
2317
2606
2836
2898
3184
3497
3814
4082
4116
4404
4690
4986
5277
5586
5895
6205
6499
6749
6785
7050
7372
7677
7972
8287
8587
8876
9159
9422
9757
10066
10371
10670
10957
11246
11469
11534
11833
12107
12149
12421
12462
12760
13049
13117
13342
13564
13629
13920
14224
14523
14837
15132
15427
15718
15946
16007
16273
16316
16604
16932
17227
17513
17807
18095
18388
18632
18700
18967
19012
19309
19606
19887
20181
20481
20742
20790
21063
21099
21397
21690
21975
22258
22567
22803
22869
23133
23179
23484
23779
24078
24359
24576
24649
24962
25263
25569
25867
26145
26445
26738
27029
27343
27606
27905
27980
28189
28233
28473
28510
28763
28805
29047
29105
29338
29642
29695
29937
30011
30220
30292
30496
30775
30850
31057
31349
31388
31643
31684
31944
32010
32240
32276
32518
32789
32830
33069
33105
33358
33398
33651
33697
33941
33978
34131
34432
34508
34791
35085
35359
35665
35986
36284
36526
36580
36841
36876
37124
37159
37403
37439
37693
37728
37995
38033
38305
38341
38599
38637
38880
38918
39174
39209
39457
39493
39740
39777
40036
40074
40340
40378
40648
40684
40936
40972
41213
41250
41509
41543
41790
42075
42111
42378
42415
42676
42716
42978
43014
43262
43296
43538
43574
43827
43868
44119
44158
44415
44454
44714
44752
45009
45048
45299
45372
45583
45617
45857
45894
46151
46217
46444
46482
46741
46778
47040
47080
47329
47368
47621
47677
47895
47935
48172
48210
48467
48767
48807
49062
49098
49353
49392
49636
49675
49920
49956
50198
50235
50475
50528
50768
50808
51075
51114
51370
51656
51692
51940
52026
52217
52255
52499
52534
52781
53075
53113
53382
53420
53675
53737
53953
53988
54233
54508
54570
54793
54830
55082
55121
55377
55416
55683
55720
56251
56291
56530
56601
56804
56843
57099
57137
57391
57430
57681
57722
57987
58028
58271
58312
58668
58826
58864
59103
59145
59401
59443
59701
59741
59995
60032
60287
60325
60572
60608
60848
60928
61122
61161
61410
61449
61714
61752
62010
62049
62302
62340
62591
62682
62908
63233
63529
63827
64074
64150
64450
64710
64747
64999
65040
65289
65329
65578
65619
65870
65919
66175
66223
66462
66537
66775
66831
67112
67343
67415
67637
67706
68004
68235
68310
68540
68613
68915
69140
69205
69486
69780
70011
70083
70685
70998
71284
71574
71865
72174
72476
73011
73083
73379
73678
73954
74241
74561
74869
75159
75458
75755
76044
76332
76560
76632
76904
76948
77253
77553
77887
78127
78354
78421
78713
78982
79335
79646
79861
79933
80151
80222
80507
80807
81106
81374
81413
81723
82021
82237
82306
82593
82817
82886
83189
83500
83798
84110
84402
84909
84974
85273
85541
85586
85888
86198
86420
86490
86777
87057
87313
87356
87660
87979
88282
88569
88867
89153
89372
89437
89738
89981
90057
90309
90363
90655
90902
90949
91195
91241
91487
91530
91785
91831
92089
92139
92448
92704
92749
93060
93320
93646
94211
94750
94825
95114
95402
95786
95963
96300
96608
96910
97210
97492
97774
98073
98319
98380
98712
98944
99036
99289
99511
99584
99894
1.0007e+05
1.0015e+05
1.0043e+05
1.0078e+05
1.0107e+05
1.0138e+05
1.0166e+05
1.0194e+05
1.0225e+05
1.025e+05
1.0254e+05
1.0282e+05
1.0285e+05
1.0312e+05
1.0317e+05
1.0342e+05
1.0347e+05
1.0366e+05
1.0375e+05
1.0399e+05
1.0404e+05
1.0427e+05
1.0455e+05
1.0463e+05
1.0486e+05
1.0493e+05
1.0517e+05
1.0554e+05
1.0583e+05
1.0607e+05
1.0696e+05
1.0704e+05
1.0754e+05
1.0794e+05
1.0821e+05
1.085e+05
1.0879e+05
1.091e+05
1.0941e+05
1.0971e+05
1.0998e+05
1.1002e+05
1.1027e+05
1.1031e+05
1.1055e+05
1.1059e+05
1.1084e+05
1.1088e+05
1.1111e+05
1.1142e+05
1.1205e+05
1.121e+05
1.1234e+05
1.1268e+05
1.129e+05
1.1297e+05
1.1319e+05
1.1388e+05
1.1418e+05
1.1446e+05
1.1501e+05
1.1626e+05
1.1652e+05
1.1657e+05
1.1679e+05
1.1705e+05
1.1714e+05
1.1744e+05
1.1773e+05
1.1804e+05
1.1834e+05
1.1856e+05
1.1922e+05
1.1952e+05
1.1975e+05
1.1982e+05
1.2006e+05
1.2012e+05
1.2034e+05
1.2074e+05
1.2101e+05
1.2131e+05
1.2184e+05
1.2245e+05
1.2281e+05
1.2368e+05
1.2389e+05
1.2399e+05
1.2426e+05
1.243e+05
1.2453e+05
1.2487e+05
1.249e+05
1.252e+05
1.2549e+05
1.257e+05
1.2577e+05
1.2606e+05
1.2629e+05
1.2664e+05
1.2668e+05
1.2725e+05
1.278e+05
1.2838e+05
1.2844e+05
1.2869e+05
1.2934e+05
1.2937e+05
1.2965e+05
1.2985e+05
1.2994e+05
1.3024e+05
1.3046e+05
1.3083e+05
1.3108e+05
1.3141e+05
1.3146e+05
1.3172e+05
1.3175e+05
1.3229e+05
1.3255e+05
1.3315e+05
1.3322e+05
1.3347e+05
1.3378e+05
1.344e+05
1.347e+05
1.3473e+05
1.3493e+05
1.3523e+05
1.3531e+05
1.3561e+05
1.3617e+05
1.3622e+05
1.3647e+05
1.365e+05
1.3678e+05
1.3708e+05
1.3733e+05
1.377e+05
1.3799e+05
1.3822e+05
1.3829e+05
1.3852e+05
1.3859e+05
1.3883e+05
1.3887e+05
1.3914e+05
1.3917e+05
1.3937e+05
1.3947e+05
1.3969e+05
1.3979e+05
1.4e+05
1.4009e+05
1.406e+05
1.4092e+05
1.4096e+05
1.4118e+05
1.4145e+05
1.4155e+05
1.4179e+05
1.4211e+05
1.4246e+05
1.4266e+05
1.4276e+05
1.4303e+05
1.4328e+05
1.4357e+05
1.4389e+05
1.4418e+05
1.4447e+05
1.4456e+05
1.448e+05
1.4484e+05
1.4567e+05
1.4603e+05
1.4627e+05
1.4656e+05
1.4747e+05
1.4772e+05
1.4782e+05
1.4802e+05
1.4812e+05
1.4841e+05
1.4896e+05
1.4923e+05
1.4952e+05
1.4981e+05
1.5011e+05
1.502e+05
1.5042e+05
1.5051e+05
1.511e+05
1.514e+05
1.5221e+05
1.5253e+05
1.531e+05
1.5319e+05
1.5344e+05
1.54e+05
1.5458e+05
1.5525e+05
1.5556e+05
1.5585e+05
1.5614e+05
1.5635e+05
1.5644e+05
1.579e+05
1.5794e+05
1.5814e+05
1.5823e+05
1.5843e+05
1.5853e+05
1.5906e+05
1.5968e+05
1.5995e+05
1.6023e+05
1.6032e+05
1.6058e+05
1.6061e+05
1.6088e+05
1.6205e+05
1.6234e+05
1.6241e+05
1.636e+05
1.6382e+05
1.6391e+05
1.6502e+05
1.6625e+05
1.671e+05
1.6831e+05
1.6862e+05
1.6916e+05
1.6925e+05
1.7097e+05
1.7129e+05
1.7134e+05
1.7187e+05
1.722e+05
1.7393e+05
1.7402e+05
1.7426e+05
1.7454e+05
1.7463e+05
1.7513e+05
1.7521e+05
1.7545e+05
1.7572e+05
1.7906e+05
1.7965e+05
1.835e+05
1.8356e+05
1.8382e+05
1.8464e+05
1.8474e+05
1.8587e+05
1.8615e+05
1.8645e+05
1.8652e+05
1.8713e+05
1.8734e+05
1.8743e+05
1.8795e+05
1.8945e+05
1.9068e+05
1.9119e+05
1.9129e+05
1.9298e+05
1.9332e+05
1.9362e+05
1.9398e+05
1.9419e+05
1.9428e+05
1.9453e+05
1.9509e+05
1.9539e+05
1.9568e+05
1.9602e+05
1.9694e+05
1.9874e+05
1.9903e+05
1.9925e+05
1.9933e+05
1.9962e+05
1.9986e+05
1.9993e+05
2.0014e+05
2.0023e+05
2.0053e+05
2.0083e+05
2.0112e+05
2.014e+05
2.0166e+05
2.0176e+05
2.0193e+05
2.0201e+05
2.0224e+05
2.0231e+05
2.0257e+05
2.0262e+05
2.0288e+05
2.0321e+05
2.0349e+05
2.0378e+05
2.0402e+05
2.0409e+05
2.0433e+05
2.044e+05
2.0465e+05
2.047e+05
2.0491e+05
2.05e+05
2.0529e+05
2.0559e+05
2.0588e+05
2.0612e+05
2.0617e+05
2.0642e+05
2.0673e+05
2.0702e+05
2.0709e+05
2.0738e+05
2.0774e+05
2.0776e+05
2.081e+05
2.0851e+05
2.0874e+05
2.0879e+05
2.0909e+05
2.0931e+05
2.0938e+05
2.0964e+05
2.0968e+05
2.0993e+05
2.0997e+05
2.1026e+05
2.1056e+05
2.109e+05
2.111e+05
2.1118e+05
2.1148e+05
2.117e+05
2.1177e+05
2.1201e+05
2.1206e+05
2.1234e+05
2.1261e+05
2.1288e+05
2.132e+05
2.1325e+05
2.1352e+05
2.1357e+05
2.1381e+05
2.1407e+05
2.1414e+05
2.1443e+05
2.1465e+05
2.1498e+05
2.1525e+05
2.1565e+05
2.1585e+05
2.1594e+05
2.1623e+05
2.1652e+05
2.1676e+05
2.1681e+05
2.1703e+05
2.1743e+05
2.1797e+05
2.1802e+05
2.1832e+05
2.1861e+05
2.192e+05
2.1982e+05
2.2007e+05
2.2036e+05
2.2064e+05
2.2098e+05
2.2118e+05
2.2128e+05
2.2158e+05
2.2183e+05
2.2213e+05
2.2243e+05
2.2249e+05
2.2274e+05
2.2278e+05
2.2337e+05
2.2367e+05
2.2391e+05
2.2421e+05
2.2428e+05
2.2458e+05
2.2483e+05
2.2515e+05
2.2545e+05
2.2568e+05
2.2606e+05
2.2629e+05
2.2636e+05
2.2666e+05
2.2692e+05
2.2696e+05
2.2724e+05
2.2749e+05
2.2784e+05
2.2807e+05
2.2814e+05
2.2837e+05
2.2844e+05
2.2867e+05
2.2899e+05
2.2904e+05
2.2933e+05
2.2961e+05
2.2992e+05
2.3017e+05
2.3046e+05
2.3079e+05
2.3083e+05
2.3108e+05
2.3112e+05
2.3134e+05
2.3142e+05
2.3171e+05
2.3196e+05
2.3199e+05
2.323e+05
2.3252e+05
2.3261e+05
2.3291e+05
2.3316e+05
2.3321e+05
2.3342e+05
2.337e+05
2.3379e+05
2.3405e+05
2.3434e+05
2.3459e+05
2.3469e+05
2.35e+05
2.353e+05
2.3558e+05
2.358e+05
2.3587e+05
2.361e+05
2.3617e+05
2.3672e+05
2.3677e+05
2.3703e+05
2.3708e+05
2.3731e+05
2.3763e+05
2.3767e+05
2.379e+05
2.3849e+05
2.388e+05
2.3942e+05
2.3968e+05
2.4005e+05
2.4026e+05
2.4053e+05
2.4062e+05
2.4086e+05
2.4115e+05
2.4125e+05
2.4148e+05
2.4179e+05
2.4211e+05
2.4234e+05
2.4243e+05
2.4266e+05
2.4328e+05
2.4359e+05
2.4364e+05
2.4384e+05
2.4393e+05
2.4414e+05
2.4423e+05
2.4446e+05
2.4479e+05
2.4535e+05
2.4565e+05
2.4593e+05
2.4602e+05
2.4627e+05
2.4659e+05
2.4715e+05
2.4743e+05
2.4835e+05
2.4865e+05
2.4924e+05
2.4948e+05
2.4957e+05
2.4979e+05
2.4988e+05
2.5013e+05
2.5078e+05
2.5159e+05
2.5192e+05
2.5197e+05
2.5224e+05
2.5248e+05
2.5257e+05
2.5282e+05
2.5315e+05
2.558e+05
2.5754e+05
2.5761e+05
2.5875e+05
2.5883e+05
2.5932e+05
2.5941e+05
2.5995e+05
2.5999e+05
2.6026e+05
2.6141e+05
2.615e+05
2.6172e+05
2.6237e+05
2.6259e+05
2.6269e+05
2.6296e+05
2.6327e+05
2.6356e+05
2.6384e+05
2.6414e+05
2.647e+05
2.6503e+05
2.6649e+05
2.674e+05
2.677e+05
2.6799e+05
2.6833e+05
2.6861e+05
2.6885e+05
2.6977e+05
2.6984e+05
2.7009e+05
2.7037e+05
2.7063e+05
2.7072e+05
2.71e+05
2.7122e+05
2.7132e+05
2.7216e+05
2.7243e+05
2.7251e+05
2.7275e+05
2.728e+05
2.7305e+05
2.7336e+05
2.7398e+05
2.7431e+05
2.7488e+05
2.7541e+05
2.7549e+05
2.7574e+05
2.7604e+05
2.7665e+05
2.7688e+05
2.7697e+05
2.7871e+05
2.7929e+05
2.8017e+05
2.8026e+05
2.8047e+05
2.8056e+05
2.8135e+05
2.8143e+05
2.8228e+05
2.8235e+05
2.8292e+05
2.8319e+05
2.8437e+05
2.8497e+05
2.8504e+05
2.8528e+05
2.8558e+05
2.8582e+05
2.8591e+05
2.8617e+05
2.8621e+05
2.8642e+05
2.8652e+05
2.8676e+05
2.8793e+05
2.8825e+05
2.885e+05
2.886e+05
2.8884e+05
2.8912e+05
2.8921e+05
2.8941e+05
2.895e+05
2.903e+05
2.9094e+05
2.9125e+05
2.913e+05
2.915e+05
2.9159e+05
2.9183e+05
2.9212e+05
2.9242e+05
2.9274e+05
2.939e+05
2.9421e+05
2.945e+05
2.9481e+05
2.9509e+05
2.9568e+05
2.9576e+05
2.9604e+05
2.981e+05
2.9814e+05
2.9843e+05
2.9872e+05
2.9903e+05
2.9925e+05
2.9955e+05
2.9985e+05
2.9993e+05
3.0021e+05
3.0046e+05
3.005e+05
3.0077e+05
3.008e+05
3.0109e+05
3.0129e+05
3.0139e+05
3.0163e+05
3.0171e+05
3.0197e+05
3.0201e+05
3.0259e+05
3.0289e+05
3.0318e+05
3.0344e+05
3.0348e+05
3.0376e+05
3.0379e+05
3.0405e+05
3.0409e+05
3.0435e+05
3.0439e+05
3.0469e+05
3.0495e+05
3.0521e+05
3.055e+05
3.0557e+05
3.058e+05
3.0587e+05
3.0609e+05
3.0644e+05
3.0648e+05
3.0674e+05
3.0703e+05
3.0706e+05
3.0731e+05
3.0735e+05
3.0762e+05
3.0766e+05
3.0792e+05
3.0795e+05
3.082e+05
3.0852e+05
3.0876e+05
3.0892e+05
3.0943e+05
3.0965e+05
3.0973e+05
3.1e+05
3.103e+05
3.1035e+05
3.1065e+05
3.1094e+05
3.112e+05
3.1124e+05
3.1149e+05
3.1181e+05
3.1207e+05
3.1217e+05
3.1236e+05
3.1243e+05
3.1268e+05
3.1296e+05
3.1303e+05
3.1328e+05
3.1332e+05
3.1355e+05
3.1386e+05
3.1391e+05
3.1416e+05
3.1443e+05
3.1476e+05
3.1506e+05
3.1512e+05
3.1541e+05
3.1566e+05
3.1595e+05
3.1628e+05
3.1659e+05
3.1693e+05
3.1746e+05
3.175e+05
3.1772e+05
3.1778e+05
3.1807e+05
3.1837e+05
3.1863e+05
3.1868e+05
3.1894e+05
3.1898e+05
3.1924e+05
3.193e+05
3.1959e+05
3.1987e+05
3.2016e+05
3.2045e+05
3.2076e+05
3.2099e+05
3.2137e+05
3.2164e+05
3.2194e+05
3.2197e+05
3.2225e+05
3.2254e+05
3.2284e+05
3.2309e+05
3.2338e+05
3.2368e+05
3.2375e+05
3.2398e+05
3.2433e+05
3.2455e+05
3.2485e+05
3.2492e+05
3.2522e+05
3.2547e+05
3.2554e+05
3.2584e+05
3.2609e+05
3.264e+05
3.2643e+05
3.2667e+05
3.2672e+05
3.27e+05
3.2731e+05
3.2757e+05
3.2762e+05
3.2786e+05
3.2815e+05
3.2822e+05
3.2844e+05
3.285e+05
3.288e+05
3.2902e+05
3.2933e+05
3.2939e+05
3.2966e+05
3.297e+05
3.3002e+05
3.3027e+05
3.3059e+05
3.3088e+05
3.3111e+05
3.3124e+05
3.3142e+05
3.3171e+05
3.3178e+05
3.3202e+05
3.3231e+05
3.3262e+05
3.3268e+05
3.3297e+05
3.3322e+05
3.3326e+05
3.3351e+05
3.3357e+05
3.3387e+05
3.3417e+05
3.3448e+05
3.3477e+05
3.3531e+05
3.3535e+05
3.3557e+05
3.3618e+05
3.3651e+05
3.3656e+05
3.3682e+05
3.3711e+05
3.3744e+05
3.377e+05
3.3827e+05
3.3835e+05
3.3889e+05
3.3916e+05
3.3923e+05
3.3948e+05
3.3977e+05
3.4007e+05
3.4032e+05
3.4042e+05
3.4069e+05
3.4097e+05
3.4125e+05
3.4157e+05
3.4162e+05
3.4185e+05
3.4213e+05
3.422e+05
3.4243e+05
3.425e+05
3.4277e+05
3.4308e+05
3.4337e+05
3.4366e+05
3.4395e+05
3.4425e+05
3.4457e+05
3.4514e+05
3.4572e+05
3.4603e+05
3.4607e+05
3.4633e+05
3.4663e+05
3.4695e+05
3.4724e+05
3.4752e+05
3.4759e+05
3.4781e+05
3.4788e+05
3.4839e+05
3.4845e+05
3.4871e+05
3.4897e+05
3.4907e+05
3.4966e+05
3.5021e+05
3.5047e+05
3.5075e+05
3.511e+05
3.5175e+05
3.5205e+05
3.5381e+05
3.5414e+05
3.5439e+05
3.5504e+05
3.5583e+05
3.5622e+05
3.5644e+05
3.5706e+05
3.5763e+05
3.5825e+05
3.5884e+05
3.5888e+05
3.5914e+05
3.5974e+05
3.6122e+05
3.6126e+05
3.6217e+05
3.6335e+05
3.6359e+05
3.6363e+05
3.6387e+05
3.6425e+05
3.6569e+05
3.666e+05
3.6689e+05
3.6694e+05
3.6811e+05
3.6833e+05
3.6903e+05
3.6982e+05
3.7043e+05
3.7105e+05
3.7166e+05
3.7198e+05
3.7223e+05
3.7349e+05
3.7375e+05
3.7379e+05
3.7403e+05
3.7436e+05
3.7462e+05
3.7493e+05
3.764e+05
3.7645e+05
3.767e+05
3.7699e+05
3.7732e+05
3.7796e+05
3.8063e+05
3.8178e+05
3.8238e+05
3.8242e+05
3.8268e+05
3.833e+05
3.8384e+05
3.8418e+05
3.8448e+05
3.8476e+05
3.8507e+05
3.8539e+05
3.8623e+05
3.8773e+05
3.8829e+05
3.8838e+05
3.8864e+05
3.8894e+05
3.8922e+05
3.8946e+05
3.8955e+05
3.9073e+05
3.9102e+05
3.9134e+05
3.9163e+05
3.9193e+05
3.9223e+05
3.9339e+05
3.9369e+05
3.9422e+05
3.9426e+05
3.9457e+05
3.949e+05
3.955e+05
3.964e+05
3.9731e+05
3.9761e+05
3.9814e+05
3.9819e+05
3.9872e+05
3.9879e+05
3.991e+05
3.9937e+05
3.9941e+05
3.9969e+05
3.9997e+05
4.0027e+05
4.0081e+05
4.0088e+05
4.0149e+05
4.0175e+05
4.0179e+05
4.0203e+05
4.0207e+05
4.0232e+05
4.0236e+05
4.0262e+05
4.0297e+05
4.0327e+05
4.0411e+05
4.0416e+05
4.0474e+05
4.0504e+05
4.0536e+05
4.0562e+05
4.0566e+05
4.0592e+05
4.0621e+05
4.0625e+05
4.0654e+05
4.0682e+05
4.0705e+05
4.0712e+05
4.0774e+05
4.0826e+05
4.0832e+05
4.0861e+05
4.0891e+05
4.0914e+05
4.0921e+05
4.0947e+05
4.0951e+05
4.0979e+05
4.0983e+05
4.1013e+05
4.1038e+05
4.1042e+05
4.1073e+05
4.1125e+05
4.113e+05
4.119e+05
4.1217e+05
4.1221e+05
4.1248e+05
4.1251e+05
4.1305e+05
4.1309e+05
4.1338e+05
4.1369e+05
4.1484e+05
4.1488e+05
4.1512e+05
4.1517e+05
4.1546e+05
4.1576e+05
4.1603e+05
4.1607e+05
4.1633e+05
4.1637e+05
4.1667e+05
4.1697e+05
4.1722e+05
4.1726e+05
4.1751e+05
4.1755e+05
4.178e+05
4.1785e+05
4.1816e+05
4.1846e+05
4.1871e+05
4.1885e+05
4.1957e+05
4.1963e+05
4.2088e+05
4.2201e+05
4.2228e+05
4.2231e+05
4.2293e+05
4.2323e+05
4.238e+05
4.2403e+05
4.241e+05
4.247e+05
4.2527e+05
4.2532e+05
4.256e+05
4.2585e+05
4.2589e+05
4.2618e+05
4.2641e+05
4.2649e+05
4.274e+05
4.2766e+05
4.277e+05
4.2795e+05
4.2798e+05
4.2826e+05
4.2857e+05
4.2888e+05
4.2922e+05
4.3007e+05
4.3031e+05
4.3035e+05
4.3061e+05
4.3064e+05
4.3094e+05
4.3126e+05
4.3149e+05
4.3156e+05
4.3186e+05
4.3244e+05
4.3269e+05
4.3273e+05
4.33e+05
4.3303e+05
4.3334e+05
4.3365e+05
4.3391e+05
4.3395e+05
4.3453e+05
4.3475e+05
4.3482e+05
4.3507e+05
4.3511e+05
4.3538e+05
4.3573e+05
4.3604e+05
4.3628e+05
4.3632e+05
4.372e+05
4.3812e+05
4.3838e+05
4.3842e+05
4.3869e+05
4.3928e+05
4.3954e+05
4.3959e+05
4.3982e+05
4.3989e+05
4.4079e+05
4.4104e+05
4.4108e+05
4.4168e+05
4.4198e+05
4.4284e+05
4.4289e+05
4.431e+05
4.4317e+05
4.4341e+05
4.4345e+05
4.4373e+05
4.4407e+05
4.4437e+05
4.4611e+05
4.4615e+05
4.4671e+05
4.4676e+05
4.4791e+05
4.4818e+05
4.4823e+05
4.4851e+05
4.4855e+05
4.4884e+05
4.4914e+05
4.4939e+05
4.4943e+05
4.4972e+05
4.4997e+05
4.5001e+05
4.5024e+05
4.5031e+05
4.5062e+05
4.5089e+05
4.5093e+05
4.512e+05
4.5123e+05
4.5151e+05
4.5177e+05
4.518e+05
4.521e+05
4.5243e+05
4.5361e+05
4.5385e+05
4.5389e+05
4.5414e+05
4.5418e+05
4.5478e+05
4.5508e+05
4.562e+05
4.5627e+05
4.5747e+05
4.5981e+05
4.5986e+05
4.6045e+05
4.6191e+05
4.6195e+05
4.622e+05
4.6253e+05
4.6399e+05
4.6403e+05
4.6429e+05
4.6433e+05
4.6457e+05
4.6461e+05
4.6491e+05
4.6523e+05
4.6641e+05
4.6666e+05
4.667e+05
4.6696e+05
4.6699e+05
4.6728e+05
4.6758e+05
4.6879e+05
4.6908e+05
4.6933e+05
4.6937e+05
4.6967e+05
4.7057e+05
4.7144e+05
4.7175e+05
4.7202e+05
4.7206e+05
4.7235e+05
4.7269e+05
4.7376e+05
4.7382e+05
4.7413e+05
4.7472e+05
4.7475e+05
4.75e+05
4.7504e+05
4.7534e+05
4.7563e+05
4.7621e+05
4.7684e+05
4.7714e+05
4.7738e+05
4.7742e+05
4.7771e+05
4.7948e+05
4.7951e+05
4.8154e+05
4.8161e+05
4.8214e+05
4.8217e+05
4.8277e+05
4.8334e+05
4.8339e+05
4.8369e+05
4.8398e+05
4.8449e+05
4.8455e+05
4.8486e+05
4.8517e+05
4.8547e+05
4.8574e+05
4.8607e+05
4.8635e+05
4.8663e+05
4.8686e+05
4.8701e+05
4.875e+05
4.8755e+05
4.8815e+05
4.884e+05
4.8844e+05
4.8886e+05
4.8928e+05
4.8932e+05
4.9678e+05
4.9707e+05
4.9732e+05
4.9736e+05
4.9763e+05
4.9787e+05
4.9796e+05
4.9823e+05
4.9827e+05
4.9853e+05
4.9882e+05
4.9886e+05
4.9938e+05
4.9944e+05
4.9973e+05
4.9997e+05
5.0031e+05
5.0065e+05
5.0092e+05
5.0096e+05
5.012e+05
5.0125e+05
5.0153e+05
5.0178e+05
5.0182e+05
5.0205e+05
5.0219e+05
5.0274e+05
5.0304e+05
5.0332e+05
5.0359e+05
5.0363e+05
5.0387e+05
5.0391e+05
5.042e+05
5.0456e+05
5.0476e+05
5.0483e+05
5.0508e+05
5.0512e+05
5.0533e+05
5.0541e+05
5.0566e+05
5.0571e+05
5.0595e+05
5.06e+05
5.0626e+05
5.066e+05
5.0691e+05
5.0718e+05
5.0751e+05
5.0776e+05
5.078e+05
5.0816e+05
5.0852e+05
5.0859e+05
5.0889e+05
5.092e+05
5.0944e+05
5.0951e+05
5.0979e+05
5.1003e+05
5.1008e+05
5.1033e+05
5.1037e+05
5.1062e+05
5.1068e+05
5.1097e+05
5.1128e+05
5.1152e+05
5.116e+05
5.1212e+05
5.1217e+05
5.1242e+05
5.1246e+05
5.1272e+05
5.1276e+05
5.1302e+05
5.1332e+05
5.1337e+05
5.136e+05
5.1366e+05
5.139e+05
5.1398e+05
5.1454e+05
5.1484e+05
5.1511e+05
5.1514e+05
5.1544e+05
5.1575e+05
5.1601e+05
5.1605e+05
5.1628e+05
5.1635e+05
5.166e+05
5.1664e+05
5.1692e+05
5.1722e+05
5.1749e+05
5.1753e+05
5.1781e+05
5.1814e+05
5.1839e+05
5.1843e+05
5.1867e+05
5.1901e+05
5.1926e+05
5.193e+05
5.1992e+05
5.2023e+05
5.2048e+05
5.2052e+05
5.2077e+05
5.2107e+05
5.211e+05
5.2138e+05
5.2171e+05
5.2192e+05
5.2226e+05
5.2231e+05
5.2314e+05
5.2318e+05
5.2344e+05
5.2374e+05
5.2377e+05
5.2405e+05
5.2409e+05
5.2438e+05
5.2472e+05
5.2499e+05
5.2555e+05
5.2586e+05
5.2612e+05
5.2616e+05
5.264e+05
5.2674e+05
5.2678e+05
5.2702e+05
5.2707e+05
5.2735e+05
5.276e+05
5.2764e+05
5.279e+05
5.2795e+05
5.2825e+05
5.2851e+05
5.2856e+05
5.2882e+05
5.2886e+05
5.2912e+05
5.294e+05
5.2945e+05
5.2973e+05
5.2999e+05
5.3026e+05
5.3034e+05
5.306e+05
5.3064e+05
5.3093e+05
5.3119e+05
5.3124e+05
5.3148e+05
5.3153e+05
5.3178e+05
5.3182e+05
5.3208e+05
5.3212e+05
5.3236e+05
5.3241e+05
5.3273e+05
5.3307e+05
5.3326e+05
5.3333e+05
5.3361e+05
5.3389e+05
5.3413e+05
5.342e+05
5.3449e+05
5.3476e+05
5.348e+05
5.3509e+05
5.3512e+05
5.3537e+05
5.3542e+05
5.3567e+05
5.3599e+05
5.3628e+05
5.3684e+05
5.3746e+05
5.3775e+05
5.3804e+05
5.3831e+05
5.3862e+05
5.3893e+05
5.3927e+05
5.3951e+05
5.3983e+05
5.4045e+05
5.4071e+05
5.4098e+05
5.4133e+05
5.4163e+05
5.4187e+05
5.4197e+05
5.422e+05
5.4254e+05
5.4275e+05
5.4309e+05
5.4313e+05
5.4334e+05
5.4345e+05
5.4368e+05
5.4401e+05
5.4432e+05
5.4463e+05
5.4487e+05
5.4579e+05
5.461e+05
5.4636e+05
5.4668e+05
5.4698e+05
5.4727e+05
5.4877e+05
5.4936e+05
5.4996e+05
5.5026e+05
5.5057e+05
5.5201e+05
5.5234e+05
5.5261e+05
5.5295e+05
5.5323e+05
5.5352e+05
5.5419e+05
5.5529e+05
5.5535e+05
5.556e+05
5.559e+05
5.5618e+05
5.5651e+05
5.5712e+05
5.5797e+05
5.589e+05
5.592e+05
5.5976e+05
5.6007e+05
5.6101e+05
5.6215e+05
5.6245e+05
5.6272e+05
5.6305e+05
5.6337e+05
5.6369e+05
5.639e+05
5.6414e+05
5.6474e+05
5.6567e+05
5.6595e+05
5.6624e+05
5.68e+05
5.6832e+05
5.6836e+05
5.6861e+05
5.6888e+05
5.6952e+05
5.6983e+05
5.7129e+05
5.7191e+05
5.7483e+05
5.7491e+05
5.7512e+05
5.7545e+05
5.755e+05
5.7576e+05
5.7671e+05
5.7752e+05
5.781e+05
5.7819e+05
5.7876e+05
5.7905e+05
5.7964e+05
5.7997e+05
5.811e+05
5.8142e+05
5.817e+05
5.8231e+05
5.8235e+05
5.8288e+05
5.8297e+05
5.8411e+05
5.8472e+05
5.8499e+05
5.8532e+05
5.8561e+05
5.8589e+05
5.8618e+05
5.874e+05
5.8798e+05
5.8824e+05
5.8949e+05
5.9184e+05
5.9304e+05
5.9509e+05
5.9624e+05
5.9664e+05
5.9694e+05
5.9717e+05
5.9755e+05
5.9782e+05
5.9786e+05
5.9813e+05
5.9844e+05
5.9873e+05
5.9902e+05
5.9923e+05
5.9932e+05
5.999e+05
6.0054e+05
6.0079e+05
6.0082e+05
6.0108e+05
6.0111e+05
6.0135e+05
6.014e+05
6.0172e+05
6.0202e+05
6.0235e+05
6.0262e+05
6.0291e+05
6.0315e+05
6.0319e+05
6.038e+05
6.0401e+05
6.0411e+05
6.0437e+05
6.0442e+05
6.0467e+05
6.047e+05
6.05e+05
6.0525e+05
6.0529e+05
6.0557e+05
6.0581e+05
6.0619e+05
6.0641e+05
6.0646e+05
6.0674e+05
6.068e+05
6.07e+05
6.0707e+05
6.0738e+05
6.0763e+05
6.0767e+05
6.0793e+05
6.0824e+05
6.0854e+05
6.0858e+05
6.0885e+05
6.0889e+05
6.0917e+05
6.0946e+05
6.0976e+05
6.1001e+05
6.1012e+05
6.1059e+05
6.1096e+05
6.1154e+05
6.1183e+05
6.1209e+05
6.1213e+05
6.124e+05
6.1244e+05
6.127e+05
6.1301e+05
6.1334e+05
6.1359e+05
6.1369e+05
6.1421e+05
6.1448e+05
6.1474e+05
6.1513e+05
6.1538e+05
6.1543e+05
6.1568e+05
6.1572e+05
6.1596e+05
6.1601e+05
6.163e+05
6.165e+05
6.166e+05
6.1691e+05
6.1721e+05
6.178e+05
6.1806e+05
6.1834e+05
6.1838e+05
6.1864e+05
6.1868e+05
6.1896e+05
6.19e+05
6.193e+05
6.1957e+05
6.1987e+05
6.2009e+05
6.2018e+05
6.2044e+05
6.2051e+05
6.2071e+05
6.2138e+05
6.2165e+05
6.2169e+05
6.2195e+05
6.2198e+05
6.2223e+05
6.2227e+05
6.2251e+05
6.2255e+05
6.2286e+05
6.2341e+05
6.2346e+05
6.2368e+05
6.2373e+05
6.243e+05
6.246e+05
6.2485e+05
6.2492e+05
6.2523e+05
6.2549e+05
6.2554e+05
6.258e+05
6.2585e+05
6.2612e+05
6.2616e+05
6.264e+05
6.2645e+05
6.2673e+05
6.2702e+05
6.2732e+05
6.2765e+05
6.2793e+05
6.2823e+05
6.2849e+05
6.2878e+05
6.291e+05
6.2939e+05
6.2965e+05
6.2971e+05
6.2993e+05
6.3028e+05
6.3058e+05
6.3062e+05
6.3088e+05
6.3116e+05
6.3119e+05
6.3144e+05
6.3149e+05
6.3179e+05
6.3201e+05
6.3241e+05
6.3266e+05
6.3328e+05
6.3357e+05
6.3387e+05
6.3413e+05
6.3418e+05
6.3449e+05
6.3479e+05
6.3504e+05
6.3508e+05
6.3563e+05
6.3566e+05
6.3592e+05
6.3617e+05
6.3626e+05
6.365e+05
6.3678e+05
6.3684e+05
6.3711e+05
6.3736e+05
6.3744e+05
6.3767e+05
6.38e+05
6.383e+05
6.3859e+05
6.3893e+05
6.3923e+05
6.3951e+05
6.398e+05
6.4013e+05
6.4037e+05
6.407e+05
6.4095e+05
6.4103e+05
6.413e+05
6.4159e+05
6.4188e+05
6.4214e+05
6.4246e+05
6.4276e+05
6.431e+05
6.434e+05
6.4374e+05
6.4486e+05
6.4602e+05
6.4635e+05
6.4689e+05
6.4699e+05
6.473e+05
6.4763e+05
6.4897e+05
6.4905e+05
6.4938e+05
