202
514
814
1120
1422
1728
2065
2384
2684
2983
3286
3585
3891
4216
4543
4867
5184
5508
5828
6154
6484
6810
7118
7420
7717
8034
8355
8672
9000
9305
9604
9902
10214
10534
10847
11158
11461
11743
12035
12333
12637
12939
13238
13539
13827
14111
14403
14706
15021
15324
15622
15919
16212
16512
16820
17151
17472
17775
18082
18384
18678
18987
19304
19627
19930
20225
20536
20835
21136
21452
21771
22074
22365
22665
22963
23264
23578
23892
24208
24503
24797
25106
25405
25709
26019
26326
26625
26916
27209
27513
27814
28120
28427
28724
29003
29285
29586
29890
30196
30512
30817
31125
31419
31726
32053
32374
32691
33001
33311
33614
33917
34242
34566
34877
35180
35481
35785
36091
36410
36739
37053
37355
37655
37964
38268
38580
38909
39221
39518
39814
40112
40418
40726
41039
41352
41648
41935
42223
42525
42836
43140
43456
43763
44055
44347
44643
44953
45261
45565
45872
46160
46439
46726
47027
47329
47623
47917
48206
48484
48765
49052
49357
49666
49964
50263
50559
50847
51145
51455
51777
52087
52387
52691
52987
53278
53578
53891
54197
54492
54780
55071
55355
55645
55943
56240
56532
56808
57086
57379
57677
57988
58306
58636
58960
59276
59597
59915
60231
60559
60880
61184
61479
61785
62095
62407
62730
63044
63354
63651
63958
64288
64616
64947
65264
65576
65879
66177
66506
66832
67146
67460
67767
68075
68378
68703
69035
69359
69677
69988
70300
70611
70938
71275
71601
71915
72223
72536
72845
73159
73494
73807
74104
74397
74701
75007
75314
75632
75944
76237
76532
76829
77131
77438
77745
78062
78358
78640
78926
79225
79531
79834
80140
80444
80732
81024
81310
81619
81929
82229
82538
82838
83124
83423
83724
84041
84344
84637
84933
85216
85490
85777
86074
86379
86674
86962
87254
87534
87813
88105
88406
88711
88998
89279
89570
89850
90134
90434
90738
91043
91330
91613
91907
92196
92486
92789
93091
93382
93662
93944
94229
94518
94810
95102
95395
95669
95923
96180
96731
97018
97319
97615
97915
98201
98496
98822
99494
1.0011e+05
1.004e+05
1.0069e+05
1.0133e+05
1.0164e+05
1.0196e+05
1.0227e+05
1.0353e+05
1.0385e+05
1.0417e+05
1.0479e+05
1.051e+05
1.0576e+05
1.064e+05
1.0702e+05
1.0734e+05
1.0765e+05
1.0799e+05
1.0954e+05
1.0985e+05
1.1049e+05
1.1079e+05
1.1139e+05
1.1171e+05
1.1234e+05
1.1266e+05
1.1326e+05
1.1356e+05
1.1388e+05
1.1453e+05
1.1486e+05
1.1517e+05
1.1548e+05
1.1642e+05
1.1673e+05
1.1705e+05
1.1736e+05
1.1766e+05
1.1827e+05
1.186e+05
1.1892e+05
1.1923e+05
1.2013e+05
1.2108e+05
1.2138e+05
1.2168e+05
1.2226e+05
1.2256e+05
1.2319e+05
1.2349e+05
1.2378e+05
1.2407e+05
1.2465e+05
1.2495e+05
1.2526e+05
1.2556e+05
1.2614e+05
1.2675e+05
1.2706e+05
1.2771e+05
1.2833e+05
1.2864e+05
1.2927e+05
1.2959e+05
1.299e+05
1.3079e+05
1.3141e+05
1.3263e+05
1.3292e+05
1.3322e+05
1.3381e+05
1.3409e+05
1.3437e+05
1.3523e+05
1.3556e+05
1.359e+05
1.3623e+05
1.3656e+05
1.3689e+05
1.3754e+05
1.3789e+05
1.3823e+05
1.3856e+05
1.3887e+05
1.3919e+05
1.3951e+05
1.3982e+05
1.4016e+05
1.4111e+05
1.4143e+05
1.4174e+05
1.4231e+05
1.4264e+05
1.4295e+05
1.4325e+05
1.4355e+05
1.4386e+05
1.4416e+05
1.4446e+05
1.4479e+05
1.451e+05
1.454e+05
1.4569e+05
1.4599e+05
1.463e+05
1.4661e+05
1.4693e+05
1.4726e+05
1.4756e+05
1.4786e+05
1.4817e+05
1.4849e+05
1.4882e+05
1.4913e+05
1.4946e+05
1.4977e+05
1.5007e+05
1.5038e+05
1.507e+05
1.5102e+05
1.5134e+05
1.5166e+05
1.5195e+05
1.5254e+05
1.5285e+05
1.5318e+05
1.535e+05
1.5382e+05
1.5413e+05
1.5443e+05
1.5474e+05
1.5506e+05
1.5539e+05
1.5571e+05
1.5602e+05
1.5633e+05
1.5724e+05
1.5757e+05
1.5788e+05
1.5879e+05
1.5971e+05
1.6005e+05
1.6067e+05
1.6099e+05
1.613e+05
1.6162e+05
1.6195e+05
1.6229e+05
1.6261e+05
1.6354e+05
1.6384e+05
1.6477e+05
1.6506e+05
1.6566e+05
1.6597e+05
1.6628e+05
1.6659e+05
1.6719e+05
1.6748e+05
1.6811e+05
1.6842e+05
1.6873e+05
1.6935e+05
1.6964e+05
1.7028e+05
1.706e+05
1.7092e+05
1.7153e+05
1.7183e+05
1.7212e+05
1.7245e+05
1.7277e+05
1.7308e+05
1.7339e+05
1.737e+05
1.74e+05
1.7431e+05
1.7463e+05
1.7495e+05
1.7526e+05
1.7556e+05
1.7585e+05
1.7615e+05
1.7645e+05
1.7675e+05
1.7707e+05
1.7738e+05
1.7768e+05
1.7797e+05
1.7826e+05
1.7855e+05
1.7884e+05
1.7915e+05
1.7946e+05
1.7976e+05
1.8006e+05
1.8036e+05
1.8067e+05
1.8099e+05
1.8197e+05
1.8288e+05
1.832e+05
1.8631e+05
1.8754e+05
1.8849e+05
1.8879e+05
1.8971e+05
1.9003e+05
1.9096e+05
1.9191e+05
1.9225e+05
1.9288e+05
1.932e+05
1.9382e+05
1.9415e+05
1.9513e+05
1.9545e+05
1.9642e+05
1.9675e+05
1.9769e+05
1.9869e+05
1.9902e+05
1.9932e+05
1.9962e+05
2.0055e+05
2.0087e+05
2.0119e+05
2.015e+05
2.021e+05
2.0242e+05
2.0274e+05
2.0399e+05
2.0428e+05
2.0522e+05
2.0553e+05
2.0584e+05
2.0645e+05
2.0676e+05
2.0802e+05
2.0862e+05
2.0892e+05
2.0924e+05
2.0986e+05
2.1015e+05
2.1044e+05
2.1074e+05
2.1103e+05
2.1249e+05
2.1278e+05
2.1336e+05
2.1366e+05
2.1397e+05
2.1456e+05
2.1485e+05
2.1546e+05
2.1609e+05
2.1762e+05
2.1793e+05
2.1858e+05
2.1888e+05
2.1917e+05
2.1947e+05
2.1978e+05
2.201e+05
2.2041e+05
2.2073e+05
2.2162e+05
2.2225e+05
2.2288e+05
2.2318e+05
2.2348e+05
2.2378e+05
2.2473e+05
2.2535e+05
2.2593e+05
2.2623e+05
2.2686e+05
2.2716e+05
2.2745e+05
2.2775e+05
2.2832e+05
2.2927e+05
2.2956e+05
2.2986e+05
2.3016e+05
2.3046e+05
2.3076e+05
2.3196e+05
2.3256e+05
2.3287e+05
2.3385e+05
2.3447e+05
2.3478e+05
2.351e+05
2.3542e+05
2.3574e+05
2.3605e+05
2.3727e+05
2.3789e+05
2.382e+05
2.3878e+05
2.391e+05
2.3941e+05
2.3972e+05
2.4003e+05
2.4034e+05
2.4059e+05
2.4088e+05
2.4118e+05
2.415e+05
2.4183e+05
2.4214e+05
2.4245e+05
2.4276e+05
2.4305e+05
2.4334e+05
2.4366e+05
2.4398e+05
2.4428e+05
2.4459e+05
2.4489e+05
2.452e+05
2.455e+05
2.4581e+05
2.4614e+05
2.4646e+05
2.4676e+05
2.4706e+05
2.4736e+05
2.4766e+05
2.4796e+05
2.4829e+05
2.4861e+05
2.4892e+05
2.4922e+05
2.4953e+05
2.4985e+05
2.5017e+05
2.505e+05
2.5084e+05
2.5114e+05
2.5145e+05
2.5175e+05
2.5206e+05
2.5239e+05
2.5271e+05
2.5304e+05
2.5334e+05
2.5364e+05
2.5394e+05
2.5426e+05
2.5457e+05
2.5489e+05
2.5521e+05
2.5551e+05
2.5581e+05
2.5641e+05
2.5673e+05
2.5737e+05
2.5769e+05
2.5799e+05
2.586e+05
2.5893e+05
2.5987e+05
2.6017e+05
2.6046e+05
2.6109e+05
2.6141e+05
2.6233e+05
2.6262e+05
2.6292e+05
2.6356e+05
2.6387e+05
2.6417e+05
2.6478e+05
2.6508e+05
2.654e+05
2.6606e+05
2.6636e+05
2.6667e+05
2.6697e+05
2.6727e+05
2.6822e+05
2.6852e+05
2.6881e+05
2.6941e+05
2.6971e+05
2.7003e+05
2.7064e+05
2.7093e+05
2.7123e+05
2.7185e+05
2.7216e+05
2.7247e+05
2.7308e+05
2.7338e+05
2.7369e+05
2.7401e+05
2.7433e+05
2.7465e+05
2.7527e+05
2.7557e+05
2.7589e+05
2.7653e+05
2.7684e+05
2.7771e+05
2.7801e+05
2.7833e+05
2.7897e+05
2.7928e+05
2.796e+05
2.8057e+05
2.809e+05
2.8186e+05
2.8218e+05
2.8317e+05
2.8349e+05
2.838e+05
2.8443e+05
2.8476e+05
2.851e+05
2.8573e+05
2.8604e+05
2.8636e+05
2.87e+05
2.8734e+05
2.8766e+05
2.8827e+05
2.8859e+05
2.8891e+05
2.8924e+05
2.8957e+05
2.899e+05
2.902e+05
2.9114e+05
2.9146e+05
2.924e+05
2.927e+05
2.9301e+05
2.9334e+05
2.9367e+05
2.9398e+05
2.949e+05
2.952e+05
2.9615e+05
2.9647e+05
2.9677e+05
4.1461e+05
4.5204e+05
4.9606e+05
4.9646e+05
4.9673e+05
4.9706e+05
4.9737e+05
4.9768e+05
4.9799e+05
4.983e+05
4.9861e+05
4.9894e+05
4.9927e+05
4.9959e+05
4.9989e+05
5.0027e+05
5.0059e+05
5.0091e+05
5.0124e+05
5.0157e+05
5.0188e+05
5.0252e+05
5.0286e+05
5.0319e+05
5.0352e+05
5.0386e+05
5.0417e+05
5.0449e+05
5.0482e+05
5.0549e+05
5.0582e+05
5.0614e+05
5.0645e+05
5.0677e+05
5.071e+05
5.0775e+05
5.0807e+05
5.0838e+05
5.0868e+05
5.0961e+05
5.0993e+05
5.1025e+05
5.1056e+05
5.1088e+05
5.1119e+05
5.1153e+05
5.1187e+05
5.1219e+05
5.125e+05
5.134e+05
5.14e+05
5.1431e+05
5.1461e+05
5.1491e+05
5.1556e+05
5.159e+05
5.1626e+05
5.1661e+05
5.1693e+05
5.1725e+05
5.1759e+05
5.1792e+05
5.1825e+05
5.1859e+05
5.1892e+05
5.1922e+05
5.1953e+05
5.2085e+05
5.2117e+05
5.2147e+05
5.2334e+05
5.2363e+05
5.2422e+05
5.2455e+05
5.2487e+05
5.2581e+05
5.2644e+05
5.2775e+05
5.2804e+05
5.2834e+05
5.2899e+05
5.2932e+05
5.2964e+05
5.2998e+05
5.3029e+05
5.3094e+05
5.3129e+05
5.3162e+05
5.3194e+05
5.3227e+05
5.3259e+05
5.3325e+05
5.336e+05
5.3394e+05
5.3425e+05
5.3458e+05
5.3489e+05
5.3522e+05
5.3555e+05
5.3587e+05
5.3618e+05
5.3648e+05
5.368e+05
5.3712e+05
5.3745e+05
5.381e+05
5.384e+05
5.3868e+05
5.3956e+05
5.3987e+05
5.4014e+05
5.4046e+05
5.4077e+05
5.4108e+05
5.4141e+05
5.4174e+05
5.4208e+05
5.4242e+05
5.4275e+05
5.4306e+05
5.4337e+05
5.437e+05
5.4402e+05
5.4435e+05
5.4468e+05
5.4499e+05
5.453e+05
5.4561e+05
5.4594e+05
5.4627e+05
5.466e+05
5.4693e+05
5.4725e+05
5.4757e+05
5.4787e+05
5.4821e+05
5.4854e+05
5.4885e+05
5.4917e+05
5.4949e+05
5.498e+05
5.5011e+05
5.5045e+05
5.5078e+05
5.511e+05
5.5141e+05
5.5172e+05
5.5202e+05
5.5233e+05
5.5267e+05
5.5299e+05
5.533e+05
5.536e+05
5.5391e+05
5.5421e+05
5.5452e+05
5.5485e+05
5.5518e+05
5.5548e+05
5.5579e+05
5.561e+05
5.5674e+05
5.5707e+05
5.5742e+05
5.5808e+05
5.584e+05
5.5906e+05
5.594e+05
5.5974e+05
5.6035e+05
5.6065e+05
5.6097e+05
5.6162e+05
5.6195e+05
5.6225e+05
5.6256e+05
5.6287e+05
5.6318e+05
5.635e+05
5.6414e+05
5.6445e+05
5.6476e+05
5.6539e+05
5.6572e+05
5.6605e+05
5.6639e+05
5.667e+05
5.67e+05
5.6732e+05
5.6799e+05
5.6832e+05
5.6925e+05
5.6956e+05
5.6989e+05
5.7021e+05
5.7052e+05
5.7085e+05
5.7176e+05
5.7207e+05
5.724e+05
5.727e+05
5.73e+05
5.733e+05
5.7359e+05
5.739e+05
5.7422e+05
5.7455e+05
5.7548e+05
5.7578e+05
5.7609e+05
5.7673e+05
5.7705e+05
5.7736e+05
5.7799e+05
5.7831e+05
5.7865e+05
5.7931e+05
5.7962e+05
5.7995e+05
5.812e+05
5.8181e+05
5.8212e+05
5.8243e+05
5.8275e+05
5.834e+05
5.8372e+05
5.8402e+05
5.8433e+05
5.8464e+05
5.8497e+05
5.853e+05
5.8563e+05
5.8596e+05
5.8628e+05
5.8659e+05
5.8693e+05
5.8725e+05
5.8853e+05
5.8883e+05
5.8949e+05
5.8981e+05
5.9013e+05
5.9075e+05
5.9106e+05
5.9139e+05
5.9205e+05
5.9238e+05
5.927e+05
5.9301e+05
5.9333e+05
5.9367e+05
5.9401e+05
5.9434e+05
5.9466e+05
5.9497e+05
5.9568e+05
5.9598e+05
5.963e+05
5.9661e+05
5.9851e+05
5.9882e+05
5.9945e+05
5.9976e+05
6.0043e+05
6.0108e+05
6.0172e+05
6.0205e+05
6.0239e+05
6.0274e+05
6.0307e+05
6.0338e+05
6.037e+05
6.0402e+05
6.0435e+05
6.0532e+05
6.0756e+05
6.0787e+05
6.0852e+05
6.0948e+05
6.0979e+05
6.1008e+05
6.11e+05
6.1195e+05
6.1257e+05
6.1324e+05
6.1421e+05
6.1452e+05
6.1484e+05
6.1551e+05
6.1583e+05
6.1614e+05
6.1646e+05
6.1776e+05
6.181e+05
6.1842e+05
6.1875e+05
6.1906e+05
6.1972e+05
6.2007e+05
6.2039e+05
6.2071e+05
6.2103e+05
6.2201e+05
6.2235e+05
6.2267e+05
6.2298e+05
6.248e+05
6.2508e+05
6.2539e+05
6.2601e+05
6.2635e+05
6.2762e+05
6.2795e+05
6.2829e+05
6.2862e+05
6.2896e+05
6.2928e+05
6.2958e+05
6.2991e+05
6.3023e+05
6.3088e+05
6.312e+05
6.3181e+05
6.3308e+05
6.346e+05
6.3624e+05
6.3657e+05
6.3692e+05
6.3726e+05
6.376e+05
6.3793e+05
6.3826e+05
6.3858e+05
6.3927e+05
6.396e+05
6.3992e+05
6.4024e+05
6.4055e+05
6.4081e+05
6.4114e+05
6.4147e+05
6.4179e+05
6.421e+05
6.424e+05
6.4272e+05
6.4303e+05
6.4335e+05
6.4369e+05
6.44e+05
6.443e+05
6.4461e+05
6.4492e+05
6.4522e+05
6.4554e+05
6.4589e+05
6.4621e+05
6.4652e+05
6.4683e+05
6.4715e+05
6.4748e+05
6.4782e+05
6.4816e+05
6.485e+05
6.4881e+05
6.4913e+05
6.4947e+05
-1
362
664
968
1272
1576
1898
2227
2537
2841
3141
3446
3745
4056
4387
4707
5029
5347
5680
5992
6318
6655
6971
7273
7571
7875
8193
8516
8841
9154
9452
9759
10060
10383
10699
11008
11322
11615
11894
12189
12493
12795
13098
13398
13689
13973
14261
14558
14872
15179
15479
15780
16069
16364
16676
16987
17320
17633
17933
18238
18537
18835
19146
19468
19786
20081
20384
20691
20993
21303
21620
21933
22229
22518
22821
23122
23424
23734
24056
24363
24651
24957
25262
25563
25875
26184
26487
26779
27068
27372
27675
27973
28282
28585
28874
29153
29440
29745
30051
30356
30665
30974
31272
31571
31894
32217
32537
32855
33160
33467
33769
34078
34407
34724
35034
35330
35637
35942
36252
36583
36906
37210
37510
37812
38117
38428
38751
39071
39374
39673
39971
40276
40580
40889
41209
41510
41801
42089
42381
42689
42999
43304
43619
43916
44204
44498
44804
45115
45420
45728
46024
46308
46595
46887
47194
47490
47782
48078
48358
48637
48923
49215
49525
49828
50121
50422
50713
51000
51303
51618
51937
52241
52544
52840
53134
53434
53743
54055
54355
54643
54938
55222
55508
55808
56108
56405
56685
56956
57244
57533
57835
58154
58474
58796
59113
59440
59753
60069
60397
60725
61037
61338
61632
61943
62257
62570
62886
63202
63504
63801
64125
64457
64783
65111
65422
65728
66028
66341
66671
66988
67311
67622
67927
68231
68540
68874
69202
69520
69830
70147
70458
70775
71114
71447
71764
72068
72380
72690
73000
73331
73654
73959
74260
74556
74864
75169
75479
75804
76104
76388
76684
76985
77288
77597
77913
78218
78504
78792
79084
79390
79692
79996
80307
80600
80888
81181
81473
81787
82091
82390
82702
82993
83276
83576
83888
84199
84499
84795
85083
85361
85641
85933
86239
86537
86827
87120
87402
87682
87971
88267
88572
88867
89147
89437
89720
89998
90295
90597
90905
91198
91478
91773
92062
92348
92652
92954
93253
93535
93814
94101
94386
94676
94975
95268
95554
95815
96069
96334
96603
96883
97174
97470
97769
98060
98345
98655
98981
99804
1.0034e+05
1.0063e+05
1.01e+05
1.013e+05
1.0162e+05
1.019e+05
1.0225e+05
1.0256e+05
1.0287e+05
1.032e+05
1.035e+05
1.0383e+05
1.0414e+05
1.0446e+05
1.0477e+05
1.0507e+05
1.0541e+05
1.0607e+05
1.0637e+05
1.0669e+05
1.07e+05
1.0731e+05
1.0763e+05
1.083e+05
1.086e+05
1.0891e+05
1.0921e+05
1.0948e+05
1.0983e+05
1.1011e+05
1.1016e+05
1.1047e+05
1.1073e+05
1.1107e+05
1.1133e+05
1.1168e+05
1.1196e+05
1.1201e+05
1.1232e+05
1.1264e+05
1.1295e+05
1.132e+05
1.1353e+05
1.1385e+05
1.1419e+05
1.145e+05
1.1515e+05
1.1545e+05
1.1577e+05
1.1608e+05
1.1671e+05
1.1703e+05
1.173e+05
1.176e+05
1.1794e+05
1.1825e+05
1.1853e+05
1.1889e+05
1.192e+05
1.1952e+05
1.1982e+05
1.2007e+05
1.2044e+05
1.2076e+05
1.2101e+05
1.2135e+05
1.2165e+05
1.2196e+05
1.2224e+05
1.225e+05
1.2286e+05
1.2317e+05
1.2343e+05
1.2372e+05
1.2401e+05
1.2435e+05
1.2459e+05
1.2489e+05
1.2519e+05
1.255e+05
1.2584e+05
1.2608e+05
1.2643e+05
1.2673e+05
1.2704e+05
1.2738e+05
1.2765e+05
1.2801e+05
1.2827e+05
1.2861e+05
1.2893e+05
1.2924e+05
1.2956e+05
1.2988e+05
1.3019e+05
1.3048e+05
1.3077e+05
1.3109e+05
1.3135e+05
1.3171e+05
1.3203e+05
1.3232e+05
1.3257e+05
1.3286e+05
1.3315e+05
1.3352e+05
1.3378e+05
1.3407e+05
1.3434e+05
1.3459e+05
1.3463e+05
1.3487e+05
1.3492e+05
1.3517e+05
1.3546e+05
1.3549e+05
1.372e+05
1.3748e+05
1.3783e+05
1.3821e+05
1.385e+05
1.3882e+05
1.3913e+05
1.3948e+05
1.398e+05
1.4047e+05
1.4079e+05
1.4109e+05
1.414e+05
1.4172e+05
1.4203e+05
1.4248e+05
1.428e+05
1.4311e+05
1.4341e+05
1.4371e+05
1.4401e+05
1.4432e+05
1.4463e+05
1.4495e+05
1.4525e+05
1.4555e+05
1.4584e+05
1.4615e+05
1.4646e+05
1.4677e+05
1.471e+05
1.4742e+05
1.4771e+05
1.4802e+05
1.4833e+05
1.4865e+05
1.4898e+05
1.493e+05
1.4962e+05
1.4992e+05
1.5023e+05
1.5054e+05
1.5087e+05
1.5118e+05
1.515e+05
1.5181e+05
1.521e+05
1.5269e+05
1.5302e+05
1.5334e+05
1.5366e+05
1.5398e+05
1.5428e+05
1.5459e+05
1.549e+05
1.5522e+05
1.5555e+05
1.5587e+05
1.5618e+05
1.5648e+05
1.5741e+05
1.5774e+05
1.5805e+05
1.5894e+05
1.5988e+05
1.6021e+05
1.6083e+05
1.6115e+05
1.6146e+05
1.618e+05
1.6212e+05
1.6245e+05
1.6276e+05
1.6369e+05
1.6401e+05
1.6492e+05
1.6521e+05
1.6582e+05
1.6613e+05
1.6645e+05
1.6676e+05
1.6735e+05
1.6764e+05
1.6827e+05
1.6858e+05
1.6889e+05
1.695e+05
1.698e+05
1.7045e+05
1.7077e+05
1.7108e+05
1.7168e+05
1.7198e+05
1.7229e+05
1.7262e+05
1.7293e+05
1.7324e+05
1.7355e+05
1.7386e+05
1.7416e+05
1.7447e+05
1.748e+05
1.7511e+05
1.7541e+05
1.7571e+05
1.7601e+05
1.763e+05
1.766e+05
1.7692e+05
1.7723e+05
1.7754e+05
1.7784e+05
1.7812e+05
1.7842e+05
1.7871e+05
1.79e+05
1.7932e+05
1.7963e+05
1.7992e+05
1.8021e+05
1.8052e+05
1.8083e+05
1.8115e+05
1.8212e+05
1.8305e+05
1.8336e+05
1.8647e+05
1.8771e+05
1.8864e+05
1.8894e+05
1.8906e+05
1.8987e+05
1.9019e+05
1.9112e+05
1.9208e+05
1.9241e+05
1.9304e+05
1.9335e+05
1.9399e+05
1.9432e+05
1.9529e+05
1.9561e+05
1.9659e+05
1.9692e+05
1.9784e+05
1.9899e+05
1.9926e+05
1.9956e+05
1.9991e+05
2.0021e+05
2.0052e+05
2.0084e+05
2.0116e+05
2.0148e+05
2.0178e+05
2.0203e+05
2.024e+05
2.0272e+05
2.0306e+05
2.0336e+05
2.0367e+05
2.0397e+05
2.0422e+05
2.0458e+05
2.049e+05
2.0515e+05
2.055e+05
2.0581e+05
2.0613e+05
2.0643e+05
2.0674e+05
2.0709e+05
2.0739e+05
2.0765e+05
2.077e+05
2.08e+05
2.0831e+05
2.0856e+05
2.0885e+05
2.0917e+05
2.0954e+05
2.0983e+05
2.1013e+05
2.1038e+05
2.1068e+05
2.1097e+05
2.1133e+05
2.1157e+05
2.1162e+05
2.1192e+05
2.1219e+05
2.1244e+05
2.1272e+05
2.13e+05
2.1305e+05
2.1329e+05
2.1359e+05
2.1395e+05
2.1421e+05
2.1426e+05
2.145e+05
2.1482e+05
2.1514e+05
2.1543e+05
2.1575e+05
2.1607e+05
2.1639e+05
2.1669e+05
2.1698e+05
2.1728e+05
2.1753e+05
2.1755e+05
2.1791e+05
2.1825e+05
2.1852e+05
2.1882e+05
2.1914e+05
2.1941e+05
2.1976e+05
2.2007e+05
2.2034e+05
2.207e+05
2.2102e+05
2.213e+05
2.2156e+05
2.2193e+05
2.2222e+05
2.2254e+05
2.2285e+05
2.2316e+05
2.2342e+05
2.2372e+05
2.2407e+05
2.244e+05
2.247e+05
2.2502e+05
2.2532e+05
2.2563e+05
2.2587e+05
2.2621e+05
2.2655e+05
2.2683e+05
2.2714e+05
2.2742e+05
2.2769e+05
2.2802e+05
2.283e+05
2.2863e+05
2.2895e+05
2.292e+05
2.295e+05
2.2984e+05
2.301e+05
2.3039e+05
2.3074e+05
2.3105e+05
2.3136e+05
2.3166e+05
2.319e+05
2.3225e+05
2.325e+05
2.3285e+05
2.3313e+05
2.3318e+05
2.3353e+05
2.3379e+05
2.3414e+05
2.3437e+05
2.344e+05
2.3476e+05
2.3507e+05
2.3536e+05
2.3571e+05
2.3603e+05
2.3633e+05
2.3663e+05
2.3694e+05
2.3721e+05
2.3756e+05
2.3787e+05
2.3814e+05
2.3848e+05
2.3872e+05
2.3907e+05
2.3939e+05
2.397e+05
2.4001e+05
2.4032e+05
2.4074e+05
2.4103e+05
2.4135e+05
2.4167e+05
2.4199e+05
2.4231e+05
2.4261e+05
2.4291e+05
2.432e+05
2.435e+05
2.4382e+05
2.4413e+05
2.4444e+05
2.4474e+05
2.4505e+05
2.4535e+05
2.4566e+05
2.4599e+05
2.4631e+05
2.4662e+05
2.4692e+05
2.4722e+05
2.4751e+05
2.4781e+05
2.4813e+05
2.4846e+05
2.4877e+05
2.4908e+05
2.4938e+05
2.497e+05
2.5002e+05
2.5034e+05
2.5068e+05
2.51e+05
2.513e+05
2.516e+05
2.5191e+05
2.5223e+05
2.5255e+05
2.5288e+05
2.532e+05
2.535e+05
2.538e+05
2.541e+05
2.5442e+05
2.5473e+05
2.5506e+05
2.5537e+05
2.5566e+05
2.5596e+05
2.5658e+05
2.569e+05
2.5754e+05
2.5784e+05
2.5814e+05
2.5877e+05
2.591e+05
2.6003e+05
2.6032e+05
2.6062e+05
2.6126e+05
2.6158e+05
2.6248e+05
2.6277e+05
2.6308e+05
2.6372e+05
2.6402e+05
2.6433e+05
2.6493e+05
2.6525e+05
2.6558e+05
2.6621e+05
2.6652e+05
2.6683e+05
2.6713e+05
2.6743e+05
2.6838e+05
2.6867e+05
2.6897e+05
2.6957e+05
2.6988e+05
2.702e+05
2.708e+05
2.7109e+05
2.7139e+05
2.7201e+05
2.7233e+05
2.7264e+05
2.7323e+05
2.7354e+05
2.7386e+05
2.7417e+05
2.745e+05
2.7481e+05
2.7542e+05
2.7573e+05
2.7606e+05
2.767e+05
2.77e+05
2.7787e+05
2.7818e+05
2.785e+05
2.7912e+05
2.7944e+05
2.7975e+05
2.8074e+05
2.8107e+05
2.8202e+05
2.8234e+05
2.8333e+05
2.8365e+05
2.8396e+05
2.8459e+05
2.8493e+05
2.8526e+05
2.8589e+05
2.862e+05
2.8652e+05
2.8717e+05
2.875e+05
2.8781e+05
2.8843e+05
2.8875e+05
2.8908e+05
2.8941e+05
2.8974e+05
2.9006e+05
2.9036e+05
2.913e+05
2.9162e+05
2.9255e+05
2.9286e+05
2.9318e+05
2.935e+05
2.9383e+05
2.9415e+05
2.9506e+05
2.9536e+05
2.9632e+05
2.9663e+05
2.9693e+05
2.9819e+05
2.985e+05
2.9881e+05
2.9912e+05
2.9942e+05
2.9974e+05
3.0007e+05
3.004e+05
3.0071e+05
3.0102e+05
3.0133e+05
3.0163e+05
3.0195e+05
3.0227e+05
3.026e+05
3.0291e+05
3.0321e+05
3.0353e+05
3.0383e+05
3.0415e+05
3.0448e+05
3.0481e+05
3.0512e+05
3.0542e+05
3.0574e+05
3.0606e+05
3.0638e+05
3.0672e+05
3.0706e+05
3.0738e+05
3.0767e+05
3.0798e+05
3.083e+05
3.0861e+05
3.0893e+05
3.0925e+05
3.0956e+05
3.0986e+05
3.1017e+05
3.105e+05
3.1082e+05
3.1116e+05
3.1148e+05
3.118e+05
3.1211e+05
3.1243e+05
3.1276e+05
3.1308e+05
3.1342e+05
3.1376e+05
3.1409e+05
3.1441e+05
3.1473e+05
3.1507e+05
3.154e+05
3.1573e+05
3.1605e+05
3.1637e+05
3.1667e+05
3.17e+05
3.1734e+05
3.1767e+05
3.18e+05
3.1832e+05
3.1865e+05
3.1896e+05
3.1929e+05
3.1963e+05
3.1995e+05
3.2027e+05
3.2058e+05
3.209e+05
3.2122e+05
3.2154e+05
3.2188e+05
3.2221e+05
3.2251e+05
3.2282e+05
3.2314e+05
3.2346e+05
3.2378e+05
3.2413e+05
3.2445e+05
3.2475e+05
3.2505e+05
3.2536e+05
3.2566e+05
3.2596e+05
3.2627e+05
3.2656e+05
3.2685e+05
3.2713e+05
3.2743e+05
3.2775e+05
3.2808e+05
3.284e+05
3.2874e+05
3.2905e+05
3.2936e+05
3.2967e+05
3.3e+05
3.3034e+05
3.3066e+05
3.3099e+05
3.3129e+05
3.3157e+05
3.3187e+05
3.3218e+05
3.325e+05
3.3281e+05
3.3313e+05
3.3345e+05
3.3375e+05
3.3406e+05
3.3438e+05
3.3472e+05
3.3503e+05
3.3533e+05
3.3564e+05
3.3594e+05
3.3624e+05
3.3656e+05
3.3689e+05
3.3722e+05
3.3753e+05
3.3784e+05
3.3816e+05
3.3846e+05
3.388e+05
3.3913e+05
3.3947e+05
3.3979e+05
3.4012e+05
3.4045e+05
3.4078e+05
3.4111e+05
3.4145e+05
3.4179e+05
3.421e+05
3.4242e+05
3.4274e+05
3.4307e+05
3.434e+05
3.4374e+05
3.4406e+05
3.4437e+05
3.4469e+05
3.4501e+05
3.4532e+05
3.4565e+05
3.4596e+05
3.4627e+05
3.4657e+05
3.4688e+05
3.4719e+05
3.4751e+05
3.4784e+05
3.4818e+05
3.4851e+05
3.4883e+05
3.4915e+05
3.4949e+05
3.4982e+05
3.5016e+05
3.5048e+05
3.5079e+05
3.5109e+05
3.5141e+05
3.5174e+05
3.5205e+05
3.5237e+05
3.5268e+05
3.5299e+05
3.5329e+05
3.5359e+05
3.5392e+05
3.5425e+05
3.5456e+05
3.5518e+05
3.5548e+05
3.5579e+05
3.5611e+05
3.5644e+05
3.5676e+05
3.5737e+05
3.5768e+05
3.5799e+05
3.5865e+05
3.5896e+05
3.5927e+05
3.5989e+05
3.602e+05
3.6052e+05
3.6086e+05
3.6118e+05
3.618e+05
3.6212e+05
3.6245e+05
3.6277e+05
3.6311e+05
3.6343e+05
3.6374e+05
3.6405e+05
3.6438e+05
3.6504e+05
3.6538e+05
3.657e+05
3.66e+05
3.6631e+05
3.6696e+05
3.6728e+05
3.6819e+05
3.6849e+05
3.688e+05
3.6944e+05
3.6975e+05
3.7065e+05
3.7096e+05
3.7383e+05
3.7413e+05
3.7504e+05
3.7536e+05
3.76e+05
3.7631e+05
3.7723e+05
3.7755e+05
3.7788e+05
3.7852e+05
3.7882e+05
3.7977e+05
3.8075e+05
3.8105e+05
3.8136e+05
3.8198e+05
3.823e+05
3.8261e+05
3.8322e+05
3.8352e+05
3.8384e+05
3.8416e+05
3.8481e+05
3.8513e+05
3.8574e+05
3.8607e+05
3.8639e+05
3.8702e+05
3.8733e+05
3.8763e+05
3.8825e+05
3.8921e+05
3.9013e+05
3.9045e+05
3.914e+05
3.917e+05
3.92e+05
3.9258e+05
3.9287e+05
3.9297e+05
3.9342e+05
3.9367e+05
3.9542e+05
3.9566e+05
3.9662e+05
3.9686e+05
3.9767e+05
3.9794e+05
3.9797e+05
3.9821e+05
3.9848e+05
3.9877e+05
3.9881e+05
3.9907e+05
3.991e+05
3.9937e+05
3.9941e+05
3.997e+05
3.9974e+05
4.0001e+05
4.0031e+05
4.0035e+05
4.0062e+05
4.0065e+05
4.0092e+05
4.0125e+05
4.0159e+05
4.0162e+05
4.0193e+05
4.0197e+05
4.0226e+05
4.0258e+05
4.029e+05
4.0323e+05
4.0327e+05
4.0358e+05
4.0362e+05
4.0391e+05
4.0425e+05
4.0458e+05
4.0462e+05
4.0489e+05
4.0492e+05
4.0519e+05
4.055e+05
4.0582e+05
4.0614e+05
4.0618e+05
4.0646e+05
4.0678e+05
4.0708e+05
4.074e+05
4.0773e+05
4.0805e+05
4.0838e+05
4.0871e+05
4.0903e+05
4.0932e+05
4.0961e+05
4.0993e+05
4.1028e+05
4.106e+05
4.1091e+05
4.1124e+05
4.1155e+05
4.1185e+05
4.1217e+05
4.1251e+05
4.1283e+05
4.1318e+05
4.134e+05
4.1373e+05
4.1419e+05
4.1446e+05
4.1511e+05
4.1537e+05
4.1563e+05
4.1648e+05
4.1703e+05
4.1733e+05
4.1763e+05
4.1794e+05
4.1824e+05
4.1858e+05
4.1924e+05
4.1957e+05
4.1991e+05
4.2019e+05
4.2057e+05
4.2187e+05
4.2217e+05
4.2249e+05
4.2282e+05
4.2316e+05
4.2334e+05
4.2361e+05
4.3377e+05
4.3406e+05
4.349e+05
4.3546e+05
4.3554e+05
4.3735e+05
4.3761e+05
4.3787e+05
4.3814e+05
4.3841e+05
4.3869e+05
4.3896e+05
4.39e+05
4.3923e+05
4.395e+05
4.3978e+05
4.4008e+05
4.4013e+05
4.4037e+05
4.4067e+05
4.4099e+05
4.4129e+05
4.416e+05
4.4191e+05
4.4224e+05
4.4258e+05
4.4291e+05
4.4325e+05
4.4357e+05
4.4388e+05
4.442e+05
4.4454e+05
4.4457e+05
4.4488e+05
4.4521e+05
4.4555e+05
4.4587e+05
4.4618e+05
4.465e+05
4.4685e+05
4.4718e+05
4.475e+05
4.4783e+05
4.4814e+05
4.4845e+05
4.4877e+05
4.4911e+05
4.4944e+05
4.4975e+05
4.5006e+05
4.501e+05
4.5037e+05
4.5067e+05
4.5099e+05
4.5131e+05
4.5163e+05
4.5194e+05
4.5224e+05
4.5254e+05
4.5283e+05
4.5314e+05
4.5345e+05
4.5377e+05
4.5437e+05
4.5468e+05
4.5499e+05
4.5561e+05
4.5594e+05
4.5627e+05
4.569e+05
4.5721e+05
4.5754e+05
4.5855e+05
4.5886e+05
4.5952e+05
4.5985e+05
4.6019e+05
4.6035e+05
4.6086e+05
4.6117e+05
4.615e+05
4.6184e+05
4.6197e+05
4.6281e+05
4.6294e+05
4.6377e+05
4.641e+05
4.6444e+05
4.6457e+05
4.6509e+05
4.6539e+05
4.6569e+05
4.6634e+05
4.6666e+05
4.6697e+05
4.6727e+05
4.6786e+05
4.6816e+05
4.6848e+05
4.6879e+05
4.6939e+05
4.697e+05
4.7001e+05
4.7066e+05
4.71e+05
4.7132e+05
4.7194e+05
4.7225e+05
4.7256e+05
4.729e+05
4.7321e+05
4.7351e+05
4.738e+05
4.7441e+05
4.7471e+05
4.7502e+05
4.7565e+05
4.7595e+05
4.7626e+05
4.7659e+05
4.7689e+05
4.7748e+05
4.7776e+05
4.7802e+05
4.7812e+05
4.7855e+05
4.7882e+05
4.7935e+05
4.7964e+05
4.8019e+05
4.8046e+05
4.8075e+05
4.8105e+05
4.8136e+05
4.8167e+05
4.8201e+05
4.8264e+05
4.8267e+05
4.8295e+05
4.8299e+05
4.8329e+05
4.8361e+05
4.8395e+05
4.8428e+05
4.8433e+05
4.8491e+05
4.8522e+05
4.8554e+05
4.8587e+05
4.8619e+05
4.8652e+05
4.8684e+05
4.8715e+05
4.8748e+05
4.8782e+05
4.8817e+05
4.882e+05
4.885e+05
4.8884e+05
4.8916e+05
4.8947e+05
4.8974e+05
4.9014e+05
4.9049e+05
4.9082e+05
4.9115e+05
4.9147e+05
4.9179e+05
4.9211e+05
4.9245e+05
4.9277e+05
4.929e+05
4.9338e+05
4.9369e+05
4.9399e+05
4.9497e+05
4.9528e+05
4.9591e+05
4.9623e+05
4.9663e+05
4.9689e+05
4.9722e+05
4.9752e+05
4.9784e+05
4.9815e+05
4.9846e+05
4.9878e+05
4.9911e+05
4.9943e+05
4.9974e+05
5.0005e+05
5.0053e+05
5.0089e+05
5.0121e+05
5.0154e+05
5.0182e+05
5.0185e+05
5.0217e+05
5.028e+05
5.0317e+05
5.035e+05
5.0379e+05
5.0411e+05
5.0446e+05
5.0514e+05
5.0546e+05
5.0579e+05
5.0611e+05
5.0642e+05
5.0674e+05
5.0741e+05
5.0769e+05
5.0805e+05
5.0836e+05
5.0862e+05
5.0896e+05
5.0929e+05
5.0959e+05
5.0991e+05
5.1019e+05
5.1054e+05
5.1086e+05
5.1117e+05
5.1217e+05
5.1248e+05
5.1279e+05
5.131e+05
5.1334e+05
5.1369e+05
5.1398e+05
5.1429e+05
5.1455e+05
5.1485e+05
5.1522e+05
5.155e+05
5.1619e+05
5.1649e+05
5.1655e+05
5.1691e+05
5.1723e+05
5.1756e+05
5.1789e+05
5.1823e+05
5.1857e+05
5.1886e+05
5.1917e+05
5.1951e+05
5.1984e+05
5.2017e+05
5.2051e+05
5.2111e+05
5.2145e+05
5.2176e+05
5.221e+05
5.2242e+05
5.2273e+05
5.2303e+05
5.2328e+05
5.2355e+05
5.2357e+05
5.2391e+05
5.2416e+05
5.2449e+05
5.2478e+05
5.2481e+05
5.2518e+05
5.255e+05
5.2575e+05
5.261e+05
5.2637e+05
5.2675e+05
5.2708e+05
5.2741e+05
5.2773e+05
5.2799e+05
5.2828e+05
5.2866e+05
5.2926e+05
5.2958e+05
5.3024e+05
5.3061e+05
5.3087e+05
5.3118e+05
5.3122e+05
5.3156e+05
5.3191e+05
5.3221e+05
5.3253e+05
5.3289e+05
5.3323e+05
5.3354e+05
5.3387e+05
5.3423e+05
5.3452e+05
5.3487e+05
5.3519e+05
5.3552e+05
5.3581e+05
5.3612e+05
5.3646e+05
5.3674e+05
5.3706e+05
5.3778e+05
5.3808e+05
5.3834e+05
5.3862e+05
5.3898e+05
5.392e+05
5.3925e+05
5.395e+05
5.3985e+05
5.4004e+05
5.403e+05
5.4061e+05
5.4092e+05
5.4124e+05
5.4157e+05
5.419e+05
5.4224e+05
5.4258e+05
5.429e+05
5.4321e+05
5.4354e+05
5.4386e+05
5.4418e+05
5.4451e+05
5.4484e+05
5.4515e+05
5.4545e+05
5.4577e+05
5.4611e+05
5.4644e+05
5.4676e+05
5.4708e+05
5.474e+05
5.4772e+05
5.4804e+05
5.4837e+05
5.487e+05
5.4902e+05
5.4933e+05
5.4964e+05
5.4995e+05
5.5028e+05
5.5061e+05
5.5094e+05
5.5126e+05
5.5157e+05
5.5187e+05
5.5218e+05
5.525e+05
5.5283e+05
5.5314e+05
5.5346e+05
5.5376e+05
5.5407e+05
5.5436e+05
5.5468e+05
5.5502e+05
5.5534e+05
5.5564e+05
5.5594e+05
5.5626e+05
5.569e+05
5.5725e+05
5.5758e+05
5.5823e+05
5.5856e+05
5.5922e+05
5.5957e+05
5.5989e+05
5.6002e+05
5.605e+05
5.6081e+05
5.6114e+05
5.6179e+05
5.6211e+05
5.6241e+05
5.6271e+05
5.6303e+05
5.6334e+05
5.6366e+05
5.643e+05
5.646e+05
5.6491e+05
5.6555e+05
5.6588e+05
5.6622e+05
5.6654e+05
5.6685e+05
5.6716e+05
5.6749e+05
5.6815e+05
5.6848e+05
5.6941e+05
5.6972e+05
5.7005e+05
5.7037e+05
5.7069e+05
5.71e+05
5.7192e+05
5.7224e+05
5.7256e+05
5.7286e+05
5.7316e+05
5.7345e+05
5.7375e+05
5.7406e+05
5.7439e+05
5.7471e+05
5.7563e+05
5.7593e+05
5.7625e+05
5.769e+05
5.7721e+05
5.7752e+05
5.7814e+05
5.7847e+05
5.7882e+05
5.7947e+05
5.7978e+05
5.801e+05
5.8137e+05
5.8196e+05
5.8228e+05
5.826e+05
5.8291e+05
5.8356e+05
5.8387e+05
5.8417e+05
5.8449e+05
5.8481e+05
5.8513e+05
5.8546e+05
5.8579e+05
5.8612e+05
5.8643e+05
5.8676e+05
5.8709e+05
5.8742e+05
5.8868e+05
5.89e+05
5.8965e+05
5.8997e+05
5.9029e+05
5.909e+05
5.9122e+05
5.9156e+05
5.9222e+05
5.9253e+05
5.9285e+05
5.9317e+05
5.935e+05
5.9384e+05
5.9417e+05
5.945e+05
5.9481e+05
5.9512e+05
5.9592e+05
5.9624e+05
5.9659e+05
5.9686e+05
5.969e+05
5.9721e+05
5.9751e+05
5.9785e+05
5.9817e+05
5.9845e+05
5.988e+05
5.9911e+05
5.9942e+05
5.9974e+05
6.0008e+05
6.0036e+05
6.0074e+05
6.0138e+05
6.0166e+05
6.0271e+05
6.0301e+05
6.0336e+05
6.0367e+05
6.0396e+05
6.0432e+05
6.0466e+05
6.0498e+05
6.053e+05
6.056e+05
6.0591e+05
6.0625e+05
6.0657e+05
6.0689e+05
6.0723e+05
6.0754e+05
6.0785e+05
6.0816e+05
6.085e+05
6.0883e+05
6.0915e+05
6.0942e+05
6.0973e+05
6.1002e+05
6.1037e+05
6.1068e+05
6.1098e+05
6.1129e+05
6.1162e+05
6.119e+05
6.1224e+05
6.1255e+05
6.1288e+05
6.1355e+05
6.1389e+05
6.1419e+05
6.145e+05
6.1481e+05
6.1515e+05
6.1577e+05
6.1612e+05
6.1644e+05
6.1675e+05
6.1708e+05
6.174e+05
6.177e+05
6.184e+05
6.1869e+05
6.1904e+05
6.1938e+05
6.2e+05
6.203e+05
6.2033e+05
6.2068e+05
6.2097e+05
6.2134e+05
6.2166e+05
6.2199e+05
6.2233e+05
6.2261e+05
6.2295e+05
6.2327e+05
6.2359e+05
6.239e+05
6.242e+05
6.245e+05
6.2474e+05
6.2503e+05
6.2532e+05
6.2568e+05
6.2599e+05
6.2666e+05
6.2698e+05
6.2729e+05
6.2756e+05
6.2922e+05
6.2953e+05
6.2984e+05
6.3017e+05
6.3054e+05
6.3083e+05
6.3118e+05
6.315e+05
6.3176e+05
6.3213e+05
6.3245e+05
6.3275e+05
6.3306e+05
6.3337e+05
6.3367e+05
6.3396e+05
6.3426e+05
6.3458e+05
6.3492e+05
6.3525e+05
6.3558e+05
6.359e+05
6.3618e+05
6.3681e+05
6.3686e+05
6.3724e+05
6.3754e+05
6.3787e+05
6.3821e+05
6.3853e+05
6.3891e+05
6.3924e+05
6.3957e+05
6.3987e+05
6.4018e+05
6.4053e+05
6.4097e+05
6.4131e+05
6.4164e+05
6.4195e+05
6.4225e+05
6.4256e+05
6.4287e+05
6.4319e+05
6.4352e+05
6.4385e+05
6.4415e+05
6.4446e+05
6.4477e+05
6.4508e+05
6.4538e+05
6.4571e+05
6.4605e+05
6.4636e+05
6.4667e+05
6.4699e+05
6.4732e+05
6.4765e+05
6.4798e+05
6.4832e+05
6.4865e+05
6.4897e+05
6.493e+05
6.4963e+05
