231
1392
1723
3438
3768
4082
5481
5811
7305
7569
7847
8103
8493
8752
9051
9316
9633
9924
10231
10504
11657
12006
12494
13428
14021
14307
14530
14867
15193
15489
15770
16051
16351
16625
17214
17535
17828
18086
18419
19280
19560
20108
20418
20738
20994
21300
21603
21906
22219
22531
23067
23373
23700
23941
24818
25113
26596
26883
27121
27424
27729
27984
28333
28907
29740
30076
30374
31820
32667
32995
33303
33533
35268
35907
36791
37380
37647
37939
38210
38525
38806
39070
39373
39698
40222
40532
40853
41149
41481
41801
42056
42302
42570
42881
43173
43489
44077
44402
44605
44944
45304
45597
45821
46395
46678
47001
47338
47592
47884
47935
48051
48493
48806
49084
49326
49604
49861
50182
50724
51040
51332
51638
51991
52585
52812
53152
53384
53737
54034
54214
54470
54785
55125
55394
55678
56020
56347
56615
56936
57226
57421
57789
58012
58321
58607
58883
59212
59479
59778
60086
60341
60658
61010
61305
61587
62056
62386
62671
62991
63290
63579
64135
64444
64750
64997
65279
65610
65839
66150
66431
66743
67059
67348
67693
67924
68184
68506
68794
69105
69394
69649
69934
70221
70504
70806
71111
71418
71681
72013
72302
72551
72873
73138
73466
73752
74060
74335
74626
74900
75169
75455
75785
76081
76365
76642
76909
77192
77487
77771
78073
78339
78653
79197
79495
79789
80075
80658
80941
81210
81490
81779
82071
83441
83738
84619
85447
86636
86979
87273
87546
87843
88137
88429
88727
89020
89316
89596
89868
90151
90431
90764
91024
91335
91629
91934
92163
92441
92757
93118
93374
93641
93990
94269
94499
94794
95077
95415
95696
95998
96322
96520
96843
97155
97443
97749
98036
98328
98953
1.415e+05
1.4179e+05
2.0022e+05
2.0427e+05
2.0456e+05
2.0488e+05
2.0519e+05
2.0921e+05
2.0953e+05
2.0983e+05
2.1014e+05
2.1388e+05
2.142e+05
2.1764e+05
2.2116e+05
2.2147e+05
2.2177e+05
2.2497e+05
2.2529e+05
2.2905e+05
2.2935e+05
2.2967e+05
2.3309e+05
2.3341e+05
2.3404e+05
2.3724e+05
2.3751e+05
2.3782e+05
2.4101e+05
2.4132e+05
2.4419e+05
2.4454e+05
2.4769e+05
2.4802e+05
2.515e+05
2.5181e+05
2.5499e+05
2.5534e+05
2.582e+05
2.5852e+05
2.6142e+05
2.6407e+05
2.6437e+05
2.6724e+05
2.6755e+05
2.6787e+05
2.7104e+05
2.7134e+05
2.7163e+05
2.7194e+05
2.7511e+05
2.7542e+05
2.7573e+05
2.783e+05
2.7863e+05
2.7897e+05
2.8157e+05
2.8415e+05
2.8449e+05
2.8709e+05
2.8744e+05
2.9068e+05
2.9329e+05
2.9353e+05
2.9648e+05
2.9966e+05
2.9999e+05
3.0231e+05
3.0729e+05
3.0991e+05
3.1252e+05
3.1548e+05
3.181e+05
3.1841e+05
3.2335e+05
3.2569e+05
3.2804e+05
3.3039e+05
3.3271e+05
3.3504e+05
3.3537e+05
3.3768e+05
3.3799e+05
3.406e+05
3.4324e+05
3.4557e+05
3.5026e+05
3.526e+05
3.5522e+05
3.5783e+05
3.5814e+05
3.6106e+05
3.6369e+05
3.6631e+05
3.7597e+05
3.7861e+05
3.7891e+05
3.8153e+05
3.8412e+05
3.8679e+05
3.9146e+05
4.193e+05
4.3685e+05
5.0283e+05
5.0346e+05
5.052e+05
5.0582e+05
5.0845e+05
5.1077e+05
5.1283e+05
5.134e+05
5.1369e+05
5.1599e+05
5.1893e+05
5.2129e+05
5.2158e+05
5.2332e+05
5.242e+05
5.2828e+05
5.2918e+05
5.3153e+05
5.3324e+05
5.3679e+05
5.3881e+05
5.8757e+05
5.9666e+05
6.0073e+05
6.0659e+05
6.0687e+05
6.0718e+05
6.098e+05
6.1095e+05
6.1128e+05
6.1303e+05
6.1388e+05
6.1831e+05
6.2709e+05
6.2881e+05
6.2941e+05
6.2967e+05
6.2999e+05
6.3024e+05
6.32e+05
6.323e+05
6.3288e+05
6.3557e+05
-1
460
747
1041
1320
1551
1606
1896
2204
2501
2784
3087
3368
3604
3660
3943
4243
4548
4821
5135
5423
5462
5643
5698
5936
5997
6290
6602
6887
7176
7472
7512
7691
7751
7967
8062
8299
8635
8931
9231
9524
9763
10065
10372
10465
10687
10960
11275
11509
11566
11801
11855
12137
12419
12727
13023
13333
13620
13673
13836
13926
14196
14240
14467
14765
15073
15160
15370
15672
15896
15949
16186
16252
16527
16809
17119
17422
17718
18003
18247
18310
18575
18848
19156
19433
19755
20055
20257
20337
20573
20632
21188
21509
21777
22078
22180
22345
22498
22709
22937
23539
23845
24122
24441
24727
24954
25016
25241
25301
25582
25894
26188
26479
26772
27062
27258
27566
27627
27909
28203
28524
28810
29093
29388
29598
29652
29893
29954
30235
30286
30553
30846
31148
31430
31690
31997
32311
32521
32587
32803
32870
33144
33193
33469
33749
34028
34339
34616
34928
35223
35436
35737
35787
36073
36364
36675
36966
37029
37250
37554
37839
38053
38108
38357
38421
38704
38999
39278
39579
39892
40174
40383
40671
40747
40948
40961
41340
41449
41699
41992
42251
42497
42805
43039
43310
43377
43622
43717
43946
44307
44560
44869
45171
45479
45762
46006
46072
46251
46331
46520
46807
47187
47531
47850
48231
48654
48966
49230
49245
49478
49538
49761
50321
50436
50631
50694
50911
50969
51211
51541
51818
52206
52430
52745
53000
53054
53309
53576
53886
54168
54437
54674
54964
55300
55562
55863
56235
56532
56781
57120
57379
57968
58228
58487
58537
58747
58810
59013
59083
59395
59675
59940
60238
60551
60626
60835
60946
61233
61435
61715
61926
62002
62178
62270
62547
62589
62840
62872
63166
63259
63453
63749
63830
64026
64309
64621
64907
65210
65223
65505
65515
66025
66679
66947
67224
67515
67830
68069
68125
68344
68442
68680
68981
69074
69267
69343
69557
69790
69853
70042
70130
70358
70649
70714
70933
71252
71360
71548
71615
71835
71906
72147
72200
72435
72759
73063
73374
73664
73978
74199
74263
74490
74579
74800
75102
75421
75628
75947
76045
76222
76320
76505
76595
76765
76839
77037
77126
77308
77395
77607
77682
77918
77981
78202
78281
78517
78563
78754
78859
79059
79111
79343
79625
79713
79924
79986
80225
80508
80574
80806
80862
81075
81348
81630
81696
81927
82213
82442
82758
83052
83327
83618
83912
84209
84511
84809
85103
85380
85660
85957
86252
86547
86847
87148
87434
87709
88020
88253
88321
88551
88684
88860
88974
89162
89219
89449
89500
89728
89772
90014
90064
90295
90348
90573
90591
90896
90936
91213
91544
91756
91825
92047
92128
92395
92556
92643
92918
93231
93244
93533
93595
93920
94147
94400
94412
94648
94775
94985
95285
95593
95896
95976
96167
96228
96447
96750
97046
97130
97344
97643
97940
98219
98495
99091
99690
1.0012e+05
1.0428e+05
1.0496e+05
1.0501e+05
1.0545e+05
1.0806e+05
1.0875e+05
1.0879e+05
1.0922e+05
1.0989e+05
1.1036e+05
1.1079e+05
1.1106e+05
1.1116e+05
1.1139e+05
1.117e+05
1.1195e+05
1.1282e+05
1.1297e+05
1.1333e+05
1.1391e+05
1.1467e+05
1.1479e+05
1.1499e+05
1.1504e+05
1.1524e+05
1.155e+05
1.1588e+05
1.1789e+05
1.1858e+05
1.3725e+05
1.3773e+05
1.4162e+05
1.4168e+05
1.4189e+05
1.4196e+05
1.422e+05
1.4224e+05
1.4249e+05
1.4253e+05
1.4278e+05
1.4283e+05
1.4309e+05
1.4314e+05
1.4356e+05
1.4414e+05
1.4452e+05
1.4482e+05
1.4487e+05
1.4513e+05
1.4518e+05
1.4563e+05
1.5199e+05
1.5294e+05
1.53e+05
1.5324e+05
1.5329e+05
1.5354e+05
1.5359e+05
1.5384e+05
1.5389e+05
1.5415e+05
1.5418e+05
1.5443e+05
1.5448e+05
1.5492e+05
1.5878e+05
1.5905e+05
1.5912e+05
1.5936e+05
1.5941e+05
1.5985e+05
1.6401e+05
1.6439e+05
1.6462e+05
1.6467e+05
1.6491e+05
1.6496e+05
1.652e+05
1.6525e+05
1.657e+05
1.713e+05
1.7134e+05
1.7175e+05
1.7214e+05
1.7219e+05
1.7244e+05
1.7249e+05
1.7274e+05
1.7279e+05
1.7305e+05
1.731e+05
1.7355e+05
1.7846e+05
1.7912e+05
1.7918e+05
1.8467e+05
1.8471e+05
1.8516e+05
1.9968e+05
2.0057e+05
2.0416e+05
2.0439e+05
2.0446e+05
2.0471e+05
2.0503e+05
2.0509e+05
2.0553e+05
2.0907e+05
2.0915e+05
2.0936e+05
2.0942e+05
2.0968e+05
2.0973e+05
2.0998e+05
2.1003e+05
2.1048e+05
2.1375e+05
2.1403e+05
2.1409e+05
2.1752e+05
2.1778e+05
2.1793e+05
2.1833e+05
2.2134e+05
2.2162e+05
2.2166e+05
2.2211e+05
2.2482e+05
2.2512e+05
2.2518e+05
2.2564e+05
2.289e+05
2.2919e+05
2.2925e+05
2.2951e+05
2.2956e+05
2.3001e+05
2.3328e+05
2.3356e+05
2.3362e+05
2.3389e+05
2.3394e+05
2.3437e+05
2.3736e+05
2.3766e+05
2.3771e+05
2.4087e+05
2.4094e+05
2.4115e+05
2.4121e+05
2.4167e+05
2.4438e+05
2.4449e+05
2.4488e+05
2.4786e+05
2.4792e+05
2.4826e+05
2.514e+05
2.5163e+05
2.5171e+05
2.5215e+05
2.5518e+05
2.5524e+05
2.5567e+05
2.5569e+05
2.5838e+05
2.5848e+05
2.5886e+05
2.6131e+05
2.6157e+05
2.6162e+05
2.6393e+05
2.6398e+05
2.6422e+05
2.6426e+05
2.647e+05
2.6741e+05
2.677e+05
2.6775e+05
2.6822e+05
2.7119e+05
2.7149e+05
2.7154e+05
2.7178e+05
2.7184e+05
2.7228e+05
2.7528e+05
2.7534e+05
2.7557e+05
2.7562e+05
2.7607e+05
2.7849e+05
2.788e+05
2.7893e+05
2.7931e+05
2.8144e+05
2.8193e+05
2.8435e+05
2.8484e+05
2.8728e+05
2.8779e+05
2.902e+05
2.9034e+05
2.9099e+05
2.9346e+05
2.9381e+05
2.9669e+05
2.9813e+05
2.9854e+05
2.9858e+05
2.9901e+05
2.9929e+05
2.9951e+05
2.9957e+05
2.9981e+05
2.9987e+05
3.0007e+05
3.0008e+05
3.0047e+05
3.0076e+05
3.0105e+05
3.0132e+05
3.0162e+05
3.019e+05
3.0216e+05
3.0501e+05
3.0715e+05
3.0764e+05
3.0977e+05
3.0987e+05
3.1026e+05
3.1237e+05
3.1244e+05
3.1278e+05
3.1532e+05
3.1538e+05
3.1563e+05
3.158e+05
3.1796e+05
3.1825e+05
3.183e+05
3.1875e+05
3.2108e+05
3.2321e+05
3.2327e+05
3.235e+05
3.2364e+05
3.2555e+05
3.2561e+05
3.2604e+05
3.279e+05
3.2831e+05
3.3024e+05
3.3071e+05
3.3257e+05
3.3262e+05
3.3344e+05
3.3489e+05
3.3519e+05
3.3525e+05
3.3568e+05
3.3754e+05
3.3783e+05
3.3788e+05
3.3832e+05
3.4045e+05
3.4056e+05
3.4083e+05
3.4309e+05
3.4543e+05
3.4827e+05
3.5012e+05
3.5022e+05
3.5246e+05
3.5255e+05
3.5295e+05
3.5507e+05
3.5536e+05
3.5554e+05
3.5771e+05
3.5797e+05
3.5804e+05
3.5847e+05
3.6089e+05
3.6102e+05
3.614e+05
3.6354e+05
3.636e+05
3.6404e+05
3.6617e+05
3.6624e+05
3.6667e+05
3.69e+05
3.7581e+05
3.7588e+05
3.7846e+05
3.7875e+05
3.788e+05
3.7921e+05
3.8136e+05
3.8186e+05
3.8397e+05
3.8427e+05
3.8445e+05
3.8663e+05
3.8669e+05
3.8715e+05
3.8948e+05
3.9133e+05
3.9162e+05
3.9179e+05
3.9384e+05
3.96e+05
3.9752e+05
3.9781e+05
3.9811e+05
3.9855e+05
3.992e+05
3.9955e+05
3.9986e+05
4.0012e+05
4.0044e+05
4.0074e+05
4.0115e+05
4.019e+05
4.0219e+05
4.0249e+05
4.0278e+05
4.0306e+05
4.0333e+05
4.0365e+05
4.0409e+05
4.0484e+05
4.051e+05
4.0539e+05
4.0568e+05
4.0596e+05
4.0627e+05
4.0659e+05
4.0703e+05
4.0768e+05
4.0802e+05
4.0833e+05
4.086e+05
4.0892e+05
4.0936e+05
4.1008e+05
4.1037e+05
4.1067e+05
4.1097e+05
4.1125e+05
4.1155e+05
4.1198e+05
4.1238e+05
4.1243e+05
4.1271e+05
4.1301e+05
4.1332e+05
4.1359e+05
4.1388e+05
4.1433e+05
4.1505e+05
4.1536e+05
4.1563e+05
4.1592e+05
4.1637e+05
4.1711e+05
4.1741e+05
4.177e+05
4.1795e+05
4.1825e+05
4.1871e+05
4.1946e+05
4.1975e+05
4.2002e+05
4.2031e+05
4.2058e+05
4.2089e+05
4.2133e+05
4.2235e+05
4.2263e+05
4.2293e+05
4.232e+05
4.2351e+05
4.2384e+05
4.2426e+05
4.2497e+05
4.2527e+05
4.2557e+05
4.2588e+05
4.2618e+05
4.2646e+05
4.2687e+05
4.2761e+05
4.2791e+05
4.2822e+05
4.2851e+05
4.2877e+05
4.2907e+05
4.2952e+05
4.3016e+05
4.3018e+05
4.3056e+05
4.3084e+05
4.3112e+05
4.3139e+05
4.317e+05
4.3212e+05
4.3261e+05
4.3289e+05
4.3318e+05
4.3344e+05
4.3375e+05
4.3421e+05
4.3494e+05
4.3522e+05
4.3551e+05
4.3578e+05
4.3611e+05
4.3653e+05
4.3701e+05
4.3727e+05
4.3756e+05
4.3782e+05
4.3812e+05
4.3844e+05
4.3864e+05
4.3875e+05
4.3929e+05
4.3951e+05
4.3961e+05
4.3989e+05
4.4009e+05
4.4019e+05
4.4038e+05
4.4048e+05
4.4068e+05
4.4083e+05
4.4104e+05
4.4114e+05
4.4153e+05
4.4364e+05
4.4414e+05
4.4625e+05
4.4677e+05
4.4919e+05
4.4926e+05
4.4972e+05
4.5183e+05
4.5194e+05
4.5234e+05
4.5447e+05
4.5458e+05
4.5497e+05
4.5681e+05
4.5691e+05
4.573e+05
4.5915e+05
4.5963e+05
4.6168e+05
4.6402e+05
4.6614e+05
4.6626e+05
4.6666e+05
4.6878e+05
4.6884e+05
4.693e+05
4.7169e+05
4.722e+05
4.7431e+05
4.7471e+05
4.7695e+05
4.7706e+05
4.7747e+05
4.793e+05
4.8215e+05
4.8399e+05
4.8449e+05
4.8654e+05
4.8866e+05
4.8872e+05
4.8916e+05
4.9099e+05
4.9149e+05
4.9388e+05
4.9672e+05
4.9748e+05
4.9775e+05
4.9803e+05
4.983e+05
4.986e+05
4.9891e+05
4.9937e+05
5.0037e+05
5.0067e+05
5.0096e+05
5.0124e+05
5.0155e+05
5.0187e+05
5.0229e+05
5.03e+05
5.033e+05
5.0361e+05
5.0389e+05
5.042e+05
5.0463e+05
5.0534e+05
5.0565e+05
5.0596e+05
5.0622e+05
5.0652e+05
5.0697e+05
5.0769e+05
5.08e+05
5.0829e+05
5.0857e+05
5.0885e+05
5.0916e+05
5.096e+05
5.1034e+05
5.1062e+05
5.1091e+05
5.1118e+05
5.1148e+05
5.1194e+05
5.1269e+05
5.1295e+05
5.1325e+05
5.1353e+05
5.1383e+05
5.1413e+05
5.1457e+05
5.1525e+05
5.1558e+05
5.1586e+05
5.1616e+05
5.1647e+05
5.1676e+05
5.172e+05
5.1809e+05
5.1849e+05
5.188e+05
5.1909e+05
5.1935e+05
5.1966e+05
5.2009e+05
5.2114e+05
5.2142e+05
5.2172e+05
5.2198e+05
5.2227e+05
5.2259e+05
5.2302e+05
5.2363e+05
5.2405e+05
5.2434e+05
5.2461e+05
5.2494e+05
5.254e+05
5.261e+05
5.2638e+05
5.2667e+05
5.2695e+05
5.2727e+05
5.2773e+05
5.2859e+05
5.2901e+05
5.2933e+05
5.2962e+05
5.2992e+05
5.3036e+05
5.3106e+05
5.3136e+05
5.3167e+05
5.3194e+05
5.3225e+05
5.3268e+05
5.3342e+05
5.3371e+05
5.3401e+05
5.3427e+05
5.3457e+05
5.3487e+05
5.3529e+05
5.3605e+05
5.3634e+05
5.3654e+05
5.3664e+05
5.3692e+05
5.3718e+05
5.3749e+05
5.378e+05
5.3812e+05
5.3855e+05
5.3895e+05
5.3922e+05
5.3942e+05
5.3951e+05
5.3971e+05
5.4011e+05
5.4042e+05
5.4063e+05
5.4092e+05
5.4097e+05
5.4142e+05
5.4353e+05
5.4404e+05
5.463e+05
5.4875e+05
5.5109e+05
5.5311e+05
5.5536e+05
5.576e+05
5.5766e+05
5.5812e+05
5.6023e+05
5.6072e+05
5.6311e+05
5.6362e+05
5.6603e+05
5.6616e+05
5.6657e+05
5.687e+05
5.6918e+05
5.7131e+05
5.7179e+05
5.7412e+05
5.7645e+05
5.8127e+05
5.8133e+05
5.8174e+05
5.8416e+05
5.8467e+05
5.8706e+05
5.8717e+05
5.8737e+05
5.8743e+05
5.879e+05
5.9001e+05
5.9293e+05
5.9342e+05
5.9621e+05
5.965e+05
5.968e+05
5.9707e+05
5.9737e+05
5.9765e+05
5.9775e+05
5.9855e+05
5.9884e+05
5.9914e+05
5.9943e+05
5.9969e+05
6e+05
6.003e+05
6.009e+05
6.0118e+05
6.0147e+05
6.0176e+05
6.0202e+05
6.0234e+05
6.0264e+05
6.0381e+05
6.0409e+05
6.044e+05
6.047e+05
6.0496e+05
6.0527e+05
6.0558e+05
6.0643e+05
6.0672e+05
6.0702e+05
6.0733e+05
6.076e+05
6.079e+05
6.0819e+05
6.0848e+05
6.0956e+05
6.0967e+05
6.0996e+05
6.1024e+05
6.1052e+05
6.108e+05
6.1111e+05
6.1142e+05
6.1172e+05
6.1287e+05
6.1316e+05
6.1346e+05
6.1374e+05
6.1405e+05
6.1435e+05
6.1463e+05
6.1542e+05
6.158e+05
6.161e+05
6.1641e+05
6.1666e+05
6.1695e+05
6.1727e+05
6.1755e+05
6.1845e+05
6.1873e+05
6.1901e+05
6.1929e+05
6.1959e+05
6.199e+05
6.2105e+05
6.2135e+05
6.2164e+05
6.2191e+05
6.2223e+05
6.2254e+05
6.2329e+05
6.2369e+05
6.2397e+05
6.2429e+05
6.2456e+05
6.2488e+05
6.2518e+05
6.2628e+05
6.2663e+05
6.2694e+05
6.2722e+05
6.2748e+05
6.2779e+05
6.2808e+05
6.2891e+05
6.2899e+05
6.2927e+05
6.2954e+05
6.2984e+05
6.3013e+05
6.3041e+05
6.307e+05
6.3103e+05
6.3218e+05
6.3246e+05
6.3265e+05
6.3306e+05
6.3315e+05
6.3334e+05
6.3364e+05
6.3394e+05
6.3422e+05
6.3541e+05
6.357e+05
6.3597e+05
6.3618e+05
6.3627e+05
6.3646e+05
6.3656e+05
6.3684e+05
6.3715e+05
6.3739e+05
6.3769e+05
6.3775e+05
6.4033e+05
6.4039e+05
6.4266e+05
6.4275e+05
6.4294e+05
6.4299e+05
6.4528e+05
6.4557e+05
6.4563e+05
