139
403
653
911
1168
1423
1685
1957
2232
2494
2750
2999
3251
3509
3777
4044
4314
4580
4844
5100
5356
5868
6136
6411
6681
6943
7192
7451
7713
8236
8506
8774
9039
9297
9547
9794
10048
10322
10588
10852
11115
11374
11622
11876
12133
12396
12930
13197
13454
13701
13952
14199
14460
14732
14997
15257
15519
15780
16029
16283
16536
16799
17070
17341
17606
17864
18115
18371
18628
18892
19157
19426
19690
19952
20210
20461
20710
20974
21520
21781
22045
22299
22551
22804
23060
23321
23584
23859
24125
24378
24624
25136
25404
25676
25943
26200
26461
26719
26968
27217
27473
27739
28010
28279
28534
28782
29033
29294
29548
29814
30081
30346
30605
30861
31108
31363
31614
31876
32150
32420
32679
32931
33180
33438
33695
33954
34219
34485
34761
35020
35270
35518
35778
36037
36309
36578
36736
37101
37359
37614
37863
38112
38373
38635
38903
39172
39424
39670
39921
40178
40434
40689
40955
41221
41472
41728
41976
42224
42468
42736
43003
43268
43520
43767
44011
44262
44515
44762
45021
45284
45552
45708
46055
46297
46541
46788
47051
47318
47579
47835
48087
48342
48589
48835
49089
49357
49622
49884
50144
50397
50638
50893
51153
51418
51681
51945
52203
52460
52718
52967
53218
53481
53758
54023
54279
54535
54787
55037
55294
55552
55818
56083
56356
56614
56867
57113
57260
57614
57884
58157
58417
58676
58932
59188
59440
59688
59948
60216
60487
60753
61008
61260
61506
61763
62026
62295
62556
62818
63074
63329
63584
63834
64081
64342
64618
64882
65136
65385
65636
65881
66134
66391
66653
67177
67435
67684
67924
68172
68421
68703
68954
69214
69470
69719
69975
70221
70471
70727
70991
71253
71522
71779
72027
72274
72794
73062
73322
73587
73850
74107
74256
74608
74864
75126
75402
75670
75930
76181
76434
76684
76943
77203
77472
77731
78000
78261
78512
78757
79007
79261
79527
79801
80060
80318
80571
80829
81077
81326
81585
81853
82114
82381
82639
82884
83128
83388
83651
83915
84176
84436
84692
84949
85203
85452
85708
85975
86247
86513
86768
87020
87268
87518
87777
88039
88292
88574
88845
89107
89358
89605
89850
90116
90387
90660
90924
91179
91431
91693
91948
92201
92458
92741
93005
93278
93529
93829
94031
94297
94561
94830
95100
95381
95627
95881
96136
96392
96670
96943
97200
97469
97723
97976
98224
98486
98753
99021
1.2068e+05
1.9865e+05
1.9963e+05
1.999e+05
2.0071e+05
2.0149e+05
2.0174e+05
2.051e+05
2.0564e+05
2.0981e+05
2.1032e+05
2.2606e+05
2.2663e+05
2.2803e+05
2.3864e+05
2.389e+05
2.3916e+05
2.3944e+05
2.397e+05
2.3997e+05
2.4022e+05
2.4048e+05
2.4073e+05
2.4098e+05
2.4124e+05
2.4151e+05
2.4177e+05
2.423e+05
2.4256e+05
2.428e+05
2.4305e+05
2.4331e+05
2.4358e+05
2.4384e+05
2.441e+05
2.4436e+05
2.4462e+05
2.4487e+05
2.4512e+05
2.4537e+05
2.459e+05
2.4617e+05
2.4643e+05
2.4669e+05
2.4719e+05
2.4744e+05
2.4767e+05
2.4876e+05
2.4926e+05
2.503e+05
2.5057e+05
2.5083e+05
2.5108e+05
2.516e+05
2.5184e+05
2.521e+05
2.5264e+05
2.5291e+05
2.5317e+05
2.5342e+05
2.5367e+05
2.5394e+05
2.542e+05
3.6524e+05
4.4739e+05
-1
296
555
809
1063
1317
1577
1801
1844
2120
2386
2647
2899
3150
3401
3665
3938
4206
4470
4737
4997
5213
5254
5464
5623
6025
6300
6575
6837
7090
7343
7607
7828
7989
8394
8669
8934
9194
9445
9712
9907
9943
10210
10479
10746
11009
11268
11518
11770
12031
12288
12512
12689
13095
13353
13601
13850
14100
14357
14618
14885
15153
15413
15675
15928
16181
16431
16692
16955
17229
17499
17760
18012
18266
18526
18785
19046
19313
19582
19849
20106
20356
20607
20863
21092
21333
21679
21938
22199
22448
22698
22957
23216
23478
23747
24018
24278
24522
24724
24903
24947
25297
25569
25835
26094
26355
26617
26864
27114
27371
27634
27900
28169
28432
28686
28931
29187
29446
29707
29973
30238
30498
30760
31018
31221
31260
31511
31769
32040
32308
32572
32831
33083
33333
33588
33846
34113
34376
34647
34918
35174
35418
35668
35927
36194
36468
36854
37253
37514
37764
38009
38265
38532
38798
39065
39325
39570
39815
40074
40328
40590
40851
41114
41395
41625
41880
42126
42369
42624
42899
43160
43419
43668
43915
44160
44412
44663
44918
45176
45443
45822
46199
46441
46687
46947
47210
47472
47731
47986
48237
48486
48737
48987
49249
49513
49780
50043
50294
50540
50787
51050
51308
51568
51835
52099
52356
52611
52863
53116
53372
53644
53913
54177
54432
54685
54931
55186
55448
55709
55973
56241
56512
56763
57010
57431
57775
58046
58309
58572
58827
59083
59334
59590
59843
60106
60371
60643
60906
61158
61403
61656
61918
62183
62445
62709
62973
63226
63479
63729
63947
63983
64235
64506
64774
65037
65287
65533
65779
66030
66293
66551
66765
66932
67335
67603
67829
68072
68325
68545
68580
68844
69108
69367
69619
69868
70122
70372
70621
70880
71143
71411
71680
71924
72171
72381
72544
72949
73215
73478
73744
74003
74385
74760
75015
75287
75559
75828
76079
76330
76577
76832
77098
77363
77627
77890
78156
78410
78653
78902
79159
79421
79690
79954
80214
80485
80724
80975
81228
81479
81745
82005
82271
82540
82784
83026
83233
83281
83545
83807
84067
84331
84591
84846
85101
85349
85610
85861
86135
86402
86669
86921
87168
87412
87668
87901
87956
88197
88465
88733
88948
89042
89257
89545
89763
90008
90282
90552
90783
90817
91078
91331
91587
91840
92062
92094
92338
92357
92602
92628
92894
93182
93427
93476
93679
93982
94186
94448
94722
94983
95256
95483
95552
95774
96035
96247
96285
96542
96884
97090
97324
97356
97617
97870
98121
98378
98641
98908
99177
99448
99719
99976
1.0023e+05
1.0048e+05
1.0073e+05
1.01e+05
1.0127e+05
1.0154e+05
1.018e+05
1.0211e+05
1.0257e+05
1.0278e+05
1.0282e+05
1.0304e+05
1.0308e+05
1.0334e+05
1.0356e+05
1.036e+05
1.0387e+05
1.0413e+05
1.0434e+05
1.0438e+05
1.0462e+05
1.0484e+05
1.0487e+05
1.0513e+05
1.0539e+05
1.0566e+05
1.0592e+05
1.0619e+05
1.0643e+05
1.0645e+05
1.0665e+05
1.0669e+05
1.0694e+05
1.0719e+05
1.0744e+05
1.0771e+05
1.0798e+05
1.0814e+05
1.0849e+05
1.0874e+05
1.0899e+05
1.0924e+05
1.095e+05
1.0976e+05
1.1003e+05
1.1029e+05
1.1056e+05
1.1081e+05
1.1106e+05
1.113e+05
1.1156e+05
1.1177e+05
1.1181e+05
1.1208e+05
1.1235e+05
1.1261e+05
1.1286e+05
1.1311e+05
1.1337e+05
1.1362e+05
1.1387e+05
1.1414e+05
1.144e+05
1.1467e+05
1.1493e+05
1.1518e+05
1.1543e+05
1.1568e+05
1.1594e+05
1.1621e+05
1.1647e+05
1.1674e+05
1.17e+05
1.1726e+05
1.1751e+05
1.1777e+05
1.1798e+05
1.1802e+05
1.1882e+05
1.1905e+05
1.1909e+05
1.1934e+05
1.1958e+05
1.1983e+05
1.2035e+05
1.2061e+05
1.2084e+05
1.2088e+05
1.2114e+05
1.2136e+05
1.214e+05
1.2166e+05
1.2186e+05
1.219e+05
1.2215e+05
1.2241e+05
1.2267e+05
1.2294e+05
1.2321e+05
1.2348e+05
1.2371e+05
1.2394e+05
1.2398e+05
1.2424e+05
1.2445e+05
1.2449e+05
1.2475e+05
1.2528e+05
1.2582e+05
1.2607e+05
1.2623e+05
1.2657e+05
1.2684e+05
1.2711e+05
1.2733e+05
1.2737e+05
1.2763e+05
1.279e+05
1.2815e+05
1.2841e+05
1.2866e+05
1.2892e+05
1.2918e+05
1.2946e+05
1.2973e+05
1.2999e+05
1.3024e+05
1.3049e+05
1.307e+05
1.3074e+05
1.31e+05
1.3126e+05
1.3153e+05
1.3179e+05
1.3232e+05
1.3257e+05
1.3281e+05
1.3306e+05
1.3332e+05
1.3359e+05
1.3386e+05
1.3413e+05
1.3439e+05
1.3463e+05
1.3489e+05
1.3514e+05
1.354e+05
1.3566e+05
1.362e+05
1.3646e+05
1.3672e+05
1.3697e+05
1.3724e+05
1.3748e+05
1.3775e+05
1.3828e+05
1.3855e+05
1.3881e+05
1.3932e+05
1.3957e+05
1.3983e+05
1.401e+05
1.4038e+05
1.4065e+05
1.409e+05
1.4115e+05
1.4141e+05
1.4166e+05
1.4193e+05
1.4219e+05
1.4246e+05
1.4273e+05
1.4299e+05
1.4325e+05
1.435e+05
1.4376e+05
1.4401e+05
1.4428e+05
1.4455e+05
1.4482e+05
1.4509e+05
1.4534e+05
1.4559e+05
1.4585e+05
1.4611e+05
1.4636e+05
1.4659e+05
1.4663e+05
1.4686e+05
1.4699e+05
1.4768e+05
1.4793e+05
1.4818e+05
1.4872e+05
1.4894e+05
1.4898e+05
1.495e+05
1.4975e+05
1.5e+05
1.5026e+05
1.5182e+05
1.5207e+05
1.5232e+05
1.5257e+05
1.5337e+05
1.5415e+05
1.544e+05
1.5465e+05
1.5518e+05
1.5573e+05
1.5598e+05
1.5623e+05
1.5649e+05
1.5687e+05
1.5692e+05
1.6388e+05
1.6591e+05
1.7403e+05
1.9881e+05
1.9907e+05
1.9932e+05
1.9953e+05
1.9959e+05
1.9979e+05
1.9983e+05
2.0024e+05
2.005e+05
2.0103e+05
2.0164e+05
2.0204e+05
2.0543e+05
2.0594e+05
2.1012e+05
2.1047e+05
2.107e+05
2.1073e+05
2.1116e+05
2.2567e+05
2.2595e+05
2.2636e+05
2.266e+05
2.2681e+05
2.2703e+05
2.2732e+05
2.2734e+05
2.2753e+05
2.2768e+05
2.2818e+05
2.3876e+05
2.388e+05
2.3903e+05
2.3906e+05
2.3932e+05
2.396e+05
2.3986e+05
2.4012e+05
2.4038e+05
2.4063e+05
2.4089e+05
2.4114e+05
2.4139e+05
2.4166e+05
2.4202e+05
2.421e+05
2.4246e+05
2.427e+05
2.4295e+05
2.4321e+05
2.4347e+05
2.4373e+05
2.4399e+05
2.4426e+05
2.4452e+05
2.4477e+05
2.4502e+05
2.4527e+05
2.4568e+05
2.4606e+05
2.4633e+05
2.4658e+05
2.4699e+05
2.4734e+05
2.476e+05
2.4802e+05
2.4907e+05
2.4956e+05
2.5046e+05
2.5073e+05
2.5098e+05
2.514e+05
2.5174e+05
2.52e+05
2.5242e+05
2.528e+05
2.5307e+05
2.5332e+05
2.5357e+05
2.5383e+05
2.5409e+05
2.5431e+05
2.5448e+05
2.5455e+05
2.6956e+05
2.6966e+05
2.9803e+05
2.9829e+05
2.9854e+05
2.9879e+05
2.9905e+05
2.9929e+05
2.9957e+05
2.9977e+05
2.9981e+05
3.0008e+05
3.0035e+05
3.006e+05
3.0085e+05
3.011e+05
3.0136e+05
3.0161e+05
3.0187e+05
3.0213e+05
3.024e+05
3.0267e+05
3.0292e+05
3.0317e+05
3.0341e+05
3.0366e+05
3.0392e+05
3.0419e+05
3.0444e+05
3.0471e+05
3.0496e+05
3.052e+05
3.0543e+05
3.0572e+05
3.061e+05
3.1447e+05
3.1452e+05
3.1491e+05
3.3803e+05
3.3828e+05
3.3854e+05
3.3881e+05
3.3907e+05
3.3934e+05
3.3961e+05
3.3986e+05
3.4011e+05
3.4037e+05
3.4063e+05
3.4086e+05
3.409e+05
3.4116e+05
3.4143e+05
3.4165e+05
3.4169e+05
3.4195e+05
3.4221e+05
3.4246e+05
3.4271e+05
3.4298e+05
3.4326e+05
3.4352e+05
3.4379e+05
3.4404e+05
3.4429e+05
3.4455e+05
3.4482e+05
3.4508e+05
3.4535e+05
3.4562e+05
3.459e+05
3.4616e+05
3.4641e+05
3.4666e+05
3.4709e+05
3.4747e+05
3.4791e+05
3.485e+05
3.4854e+05
3.4896e+05
3.4948e+05
3.5002e+05
3.5038e+05
3.5064e+05
3.5089e+05
3.5115e+05
3.5141e+05
3.5185e+05
3.5222e+05
3.5249e+05
3.5275e+05
3.5301e+05
3.5342e+05
3.5664e+05
3.5767e+05
3.5768e+05
3.5805e+05
3.5809e+05
3.5834e+05
3.5876e+05
3.5912e+05
3.5939e+05
3.596e+05
3.5989e+05
3.6015e+05
3.6043e+05
3.6087e+05
3.6119e+05
3.6123e+05
3.6148e+05
3.615e+05
3.6175e+05
3.6215e+05
3.6269e+05
3.6358e+05
3.638e+05
3.6383e+05
3.6408e+05
3.6433e+05
3.646e+05
3.6488e+05
3.6515e+05
3.6541e+05
3.6566e+05
3.6607e+05
3.6642e+05
3.6669e+05
3.6694e+05
3.6721e+05
3.6744e+05
3.6747e+05
3.6771e+05
3.6773e+05
3.6828e+05
3.6978e+05
3.7003e+05
3.7032e+05
3.7078e+05
3.708e+05
3.7107e+05
3.7109e+05
3.7128e+05
3.7146e+05
3.7149e+05
3.9744e+05
3.9769e+05
3.9795e+05
3.9816e+05
3.9833e+05
3.9883e+05
4.0597e+05
4.1136e+05
4.1175e+05
4.2993e+05
4.3016e+05
4.304e+05
4.3063e+05
4.3122e+05
4.3138e+05
4.3159e+05
4.3161e+05
4.329e+05
4.3291e+05
4.3311e+05
4.3333e+05
4.3339e+05
4.3366e+05
4.3482e+05
4.3502e+05
4.3541e+05
4.3577e+05
4.3607e+05
4.3709e+05
4.3742e+05
4.3764e+05
4.3768e+05
4.3803e+05
4.3837e+05
4.3861e+05
4.3903e+05
4.3941e+05
4.3947e+05
4.4042e+05
4.4043e+05
4.4151e+05
4.4158e+05
4.4212e+05
4.4252e+05
4.4434e+05
4.4441e+05
4.4555e+05
4.4562e+05
4.4615e+05
4.4631e+05
4.4776e+05
4.4805e+05
4.4808e+05
4.4869e+05
4.503e+05
4.5034e+05
4.5413e+05
4.5695e+05
4.5728e+05
4.5763e+05
4.5767e+05
4.6369e+05
4.639e+05
4.7272e+05
4.7308e+05
4.7447e+05
4.7491e+05
4.7703e+05
4.7708e+05
4.775e+05
4.7765e+05
4.7772e+05
4.7892e+05
4.7895e+05
4.7941e+05
4.7944e+05
4.8833e+05
4.968e+05
4.9704e+05
4.9728e+05
4.975e+05
4.9773e+05
4.9796e+05
4.9819e+05
4.9844e+05
4.9868e+05
4.9892e+05
4.9916e+05
4.994e+05
4.9963e+05
4.9983e+05
4.9986e+05
5.0009e+05
5.0031e+05
5.0055e+05
5.008e+05
5.0101e+05
5.0104e+05
5.0128e+05
5.0152e+05
5.0174e+05
5.0197e+05
5.0221e+05
5.024e+05
5.0244e+05
5.0267e+05
5.0291e+05
5.0312e+05
5.0319e+05
5.0339e+05
5.0364e+05
5.0387e+05
5.041e+05
5.0432e+05
5.0455e+05
5.0475e+05
5.0479e+05
5.0503e+05
5.0524e+05
5.0527e+05
5.0551e+05
5.0575e+05
5.0594e+05
5.0598e+05
5.0617e+05
5.0621e+05
5.0644e+05
5.0663e+05
5.0667e+05
5.069e+05
5.0713e+05
5.0738e+05
5.0758e+05
5.0762e+05
5.0786e+05
5.0809e+05
5.0831e+05
5.0854e+05
5.0873e+05
5.0877e+05
5.0896e+05
5.09e+05
5.0924e+05
5.0948e+05
5.0971e+05
5.0991e+05
5.0995e+05
5.1019e+05
5.1042e+05
5.1065e+05
5.1087e+05
5.111e+05
5.1133e+05
5.1182e+05
5.1202e+05
5.1206e+05
5.1225e+05
5.1229e+05
5.1252e+05
5.1275e+05
5.1298e+05
5.132e+05
5.1343e+05
5.1363e+05
5.1367e+05
5.1391e+05
5.1415e+05
5.1439e+05
5.1476e+05
5.152e+05
5.3202e+05
5.3664e+05
5.3689e+05
5.3714e+05
5.3739e+05
5.3763e+05
5.3788e+05
5.3814e+05
5.3838e+05
5.3861e+05
5.3885e+05
5.3909e+05
5.3933e+05
5.3958e+05
5.3987e+05
5.4005e+05
5.4013e+05
5.4035e+05
5.4055e+05
5.408e+05
5.41e+05
5.4104e+05
5.4127e+05
5.4148e+05
5.4151e+05
5.4173e+05
5.4177e+05
5.4201e+05
5.4222e+05
5.4226e+05
5.4251e+05
5.4275e+05
5.4298e+05
5.4321e+05
5.4345e+05
5.4369e+05
5.4394e+05
5.442e+05
5.4445e+05
5.4469e+05
5.4493e+05
5.4517e+05
5.454e+05
5.4564e+05
5.4588e+05
5.4639e+05
5.4664e+05
5.4688e+05
5.4712e+05
5.4735e+05
5.4759e+05
5.4808e+05
5.4832e+05
5.4857e+05
5.4882e+05
5.4906e+05
5.493e+05
5.4954e+05
5.5001e+05
5.5025e+05
5.5077e+05
5.5101e+05
5.5126e+05
5.515e+05
5.5173e+05
5.5197e+05
5.5322e+05
5.5346e+05
5.537e+05
5.5393e+05
5.5414e+05
5.5417e+05
5.5441e+05
5.5541e+05
5.559e+05
5.5661e+05
5.5711e+05
5.5736e+05
5.5808e+05
5.5856e+05
5.588e+05
5.5955e+05
5.5979e+05
5.6e+05
5.6004e+05
5.6027e+05
5.6124e+05
5.6149e+05
5.6174e+05
5.6224e+05
5.6273e+05
5.6293e+05
5.6342e+05
5.6369e+05
5.644e+05
5.651e+05
5.6535e+05
5.6586e+05
5.6611e+05
5.6708e+05
5.6808e+05
5.6834e+05
5.687e+05
5.799e+05
5.9335e+05
5.945e+05
5.9467e+05
5.9472e+05
5.9505e+05
5.9532e+05
5.958e+05
5.9583e+05
5.9608e+05
5.9634e+05
5.9659e+05
5.9679e+05
5.9682e+05
5.9706e+05
5.9739e+05
5.9749e+05
5.9751e+05
5.9771e+05
5.982e+05
5.987e+05
6.0211e+05
6.0287e+05
6.0497e+05
6.0521e+05
6.0555e+05
6.0702e+05
6.0705e+05
6.075e+05
6.081e+05
6.0845e+05
6.0874e+05
6.0891e+05
6.0914e+05
6.0941e+05
6.0946e+05
6.0976e+05
6.1014e+05
6.1062e+05
6.1112e+05
6.1114e+05
6.123e+05
6.177e+05
6.1788e+05
6.1806e+05
6.1852e+05
6.1898e+05
6.2982e+05
6.3593e+05
6.3617e+05
6.3643e+05
6.3669e+05
6.3694e+05
6.372e+05
6.3746e+05
6.3771e+05
6.3796e+05
6.382e+05
6.3844e+05
6.3869e+05
6.3895e+05
6.3922e+05
6.3947e+05
6.3972e+05
6.3997e+05
6.4021e+05
6.4045e+05
6.407e+05
6.4096e+05
6.4121e+05
6.4147e+05
6.4173e+05
6.4198e+05
6.4223e+05
6.4247e+05
6.4271e+05
6.4296e+05
6.4322e+05
6.4348e+05
6.4374e+05
6.44e+05
6.445e+05
6.4474e+05
6.4499e+05
6.4524e+05
6.455e+05
6.4577e+05
6.4603e+05
6.4629e+05
6.4654e+05
6.4678e+05
6.4729e+05
6.4807e+05
6.4832e+05
6.4883e+05
6.4907e+05
