311
684
1047
1408
1788
2155
2530
2877
3194
3530
3891
4241
4573
4909
5216
5518
5823
6135
6432
6717
7006
7301
7578
7858
8143
8436
8721
8987
9234
9479
9729
10000
10275
10541
10843
11206
11550
11897
12248
12963
13281
13579
13881
14191
14525
14825
15193
15524
15863
16207
16567
16959
17314
17662
17988
18297
18925
19233
19539
19830
20100
20367
20650
20950
21259
21597
21970
22653
22978
23325
23677
24009
24646
24974
25299
25656
26027
26748
27101
27430
27769
28122
28463
28765
29068
29371
29670
29985
30294
30591
30881
31151
31421
31685
31971
32295
32629
32794
33440
34267
34627
35244
36065
36718
37494
37875
38051
38715
39041
39554
39863
40675
40991
41800
42402
43236
43870
44470
45311
45940
46739
47375
48188
48971
49797
50390
51173
51812
52627
53237
53534
53831
54177
54681
55517
56144
56509
56802
57136
57458
58309
58957
59733
60392
61016
61693
62059
62448
62784
63090
63461
64499
65250
66066
66443
66844
67263
67664
68057
68424
68829
69231
69596
69926
70243
70577
70956
71366
71776
72155
72519
72904
73296
73688
74049
74372
74703
75097
75473
75867
76249
76631
76984
77359
77730
78116
78462
78818
79221
79607
79990
80335
80646
80981
81348
81761
82173
82546
82904
83267
83624
83991
84395
84798
85174
85560
85968
86339
86715
87094
87469
87847
88256
88670
89056
89393
89705
90018
90358
90736
91093
91415
91715
92007
92303
92616
92974
93354
93673
93995
94333
94676
95000
95339
95678
96301
96623
96966
97290
97580
97869
98176
98474
98778
99429
99768
1.0008e+05
1.004e+05
1.0075e+05
1.0111e+05
1.0148e+05
1.0184e+05
1.0219e+05
1.0252e+05
1.0287e+05
1.0326e+05
1.0363e+05
1.04e+05
1.0437e+05
1.0474e+05
1.0508e+05
1.0546e+05
1.0586e+05
1.0625e+05
1.0659e+05
1.0694e+05
1.0732e+05
1.0773e+05
1.0811e+05
1.085e+05
1.0888e+05
1.0925e+05
1.0963e+05
1.1002e+05
1.1039e+05
1.1075e+05
1.111e+05
1.1143e+05
1.1179e+05
1.1218e+05
1.1257e+05
1.1292e+05
1.1296e+05
1.1327e+05
1.133e+05
1.1363e+05
1.1367e+05
1.1402e+05
1.1406e+05
1.1436e+05
1.144e+05
1.147e+05
1.1504e+05
1.1945e+05
1.2173e+05
1.2208e+05
1.2421e+05
1.2608e+05
1.3268e+05
1.3949e+05
1.5339e+05
1.5375e+05
1.5434e+05
1.5464e+05
1.5496e+05
1.5528e+05
1.5559e+05
1.559e+05
1.5619e+05
1.5646e+05
1.5673e+05
1.5701e+05
1.573e+05
1.5758e+05
1.5786e+05
1.5813e+05
1.584e+05
1.5865e+05
1.589e+05
1.5916e+05
1.5944e+05
1.5974e+05
1.6008e+05
1.6045e+05
1.6104e+05
1.6138e+05
1.6171e+05
1.6204e+05
1.6239e+05
1.6274e+05
1.6333e+05
1.6367e+05
1.6403e+05
1.6438e+05
1.647e+05
1.6502e+05
1.6536e+05
1.6571e+05
1.6606e+05
1.6638e+05
1.6669e+05
1.6699e+05
1.6733e+05
1.6766e+05
1.68e+05
1.6836e+05
1.6873e+05
1.6908e+05
1.694e+05
1.6972e+05
1.7005e+05
1.7043e+05
1.7079e+05
1.7112e+05
1.7145e+05
1.7179e+05
1.7216e+05
1.7252e+05
1.7287e+05
1.7322e+05
1.7356e+05
1.7388e+05
1.742e+05
1.7452e+05
1.7485e+05
1.7515e+05
1.7545e+05
1.7574e+05
1.7603e+05
1.7634e+05
1.7666e+05
1.7729e+05
1.7946e+05
1.9872e+05
1.991e+05
1.9941e+05
1.9977e+05
2.001e+05
2.0045e+05
2.0151e+05
2.0213e+05
2.0393e+05
2.0526e+05
2.0632e+05
2.1414e+05
2.1578e+05
2.1876e+05
2.2342e+05
2.2486e+05
2.3849e+05
2.3886e+05
2.3922e+05
2.3958e+05
2.3992e+05
2.4024e+05
2.4054e+05
2.4083e+05
2.4113e+05
2.4148e+05
2.4183e+05
2.4219e+05
2.4256e+05
2.4292e+05
2.4326e+05
2.4362e+05
2.4398e+05
2.4432e+05
2.4466e+05
2.4499e+05
2.4533e+05
2.4568e+05
2.4604e+05
2.4638e+05
2.4671e+05
2.4701e+05
2.473e+05
2.476e+05
2.4791e+05
2.4822e+05
2.4852e+05
2.4882e+05
2.4909e+05
2.4942e+05
2.5031e+05
2.506e+05
2.5092e+05
2.5117e+05
2.5148e+05
2.5177e+05
2.5208e+05
2.5243e+05
2.5279e+05
2.5341e+05
2.5372e+05
2.5403e+05
2.5432e+05
2.5463e+05
2.5496e+05
2.5586e+05
2.5642e+05
2.5677e+05
2.5707e+05
2.5736e+05
2.5792e+05
2.585e+05
2.5909e+05
2.5938e+05
2.5996e+05
2.6056e+05
2.6085e+05
2.6114e+05
2.6137e+05
2.6198e+05
2.6228e+05
2.6254e+05
2.6472e+05
2.65e+05
2.653e+05
2.6589e+05
2.6617e+05
2.8511e+05
2.8613e+05
2.8663e+05
2.8714e+05
2.8768e+05
2.8781e+05
2.8814e+05
2.8871e+05
2.8926e+05
2.8977e+05
2.9028e+05
2.9078e+05
2.9332e+05
2.9388e+05
2.9441e+05
2.9491e+05
2.9543e+05
2.9597e+05
2.965e+05
2.9873e+05
3.0053e+05
3.0412e+05
3.0474e+05
3.0713e+05
3.2226e+05
3.3313e+05
3.3348e+05
3.3791e+05
3.382e+05
3.3851e+05
3.3915e+05
3.3947e+05
3.404e+05
3.4074e+05
3.4107e+05
3.4142e+05
3.4239e+05
3.4437e+05
3.7421e+05
3.7509e+05
3.7607e+05
3.7912e+05
3.7942e+05
3.8407e+05
3.8475e+05
3.8956e+05
3.8988e+05
3.9287e+05
3.9387e+05
4.2438e+05
4.7234e+05
4.965e+05
4.9689e+05
4.9727e+05
4.9763e+05
4.9939e+05
5.0009e+05
5.0197e+05
5.0231e+05
5.0466e+05
5.0625e+05
5.0662e+05
5.082e+05
5.0859e+05
5.1056e+05
5.1092e+05
5.1131e+05
5.1275e+05
5.1306e+05
5.146e+05
5.1549e+05
5.158e+05
5.1641e+05
5.1688e+05
5.1736e+05
5.1782e+05
5.1867e+05
5.1929e+05
5.207e+05
5.22e+05
5.2403e+05
5.3648e+05
5.3712e+05
5.3778e+05
5.3856e+05
5.3917e+05
5.3966e+05
5.4014e+05
5.4083e+05
5.4192e+05
5.4262e+05
5.4337e+05
5.4402e+05
5.4454e+05
5.4516e+05
5.4575e+05
5.4659e+05
5.4723e+05
5.4783e+05
5.4847e+05
5.491e+05
5.497e+05
5.5032e+05
5.5096e+05
5.5156e+05
5.5216e+05
5.528e+05
5.5346e+05
5.5408e+05
5.5472e+05
5.5539e+05
5.56e+05
5.5664e+05
5.573e+05
5.5794e+05
5.5856e+05
5.5921e+05
5.5989e+05
5.6069e+05
5.6134e+05
5.6233e+05
5.6284e+05
5.6372e+05
5.6411e+05
5.6446e+05
5.653e+05
5.6571e+05
5.821e+05
5.8244e+05
5.8279e+05
5.8314e+05
5.8404e+05
5.8442e+05
5.8482e+05
5.8574e+05
5.8615e+05
5.8703e+05
5.8747e+05
5.8836e+05
5.8879e+05
5.8971e+05
5.9058e+05
5.9098e+05
5.9189e+05
5.9231e+05
5.9318e+05
5.9361e+05
5.9451e+05
5.9863e+05
6.0081e+05
6.0209e+05
6.034e+05
6.0468e+05
6.0593e+05
6.0724e+05
6.081e+05
6.2074e+05
6.2281e+05
6.2409e+05
6.2498e+05
6.2773e+05
6.3067e+05
6.3241e+05
6.3262e+05
6.338e+05
6.3443e+05
6.3619e+05
6.368e+05
6.3744e+05
6.3804e+05
6.3862e+05
6.3926e+05
6.3986e+05
6.4066e+05
6.4127e+05
6.4157e+05
6.4191e+05
6.4237e+05
6.4293e+05
6.4352e+05
6.4411e+05
6.4437e+05
6.447e+05
6.4515e+05
6.4576e+05
6.4658e+05
6.4688e+05
6.4719e+05
6.4753e+05
6.4823e+05
6.4858e+05
-1
450
819
1181
1548
1931
2300
2670
3013
3330
3674
4035
4385
4713
5042
5349
5655
5967
6276
6577
6856
6892
7141
7429
7709
7992
8283
8578
8854
9119
9362
9399
9611
9862
10136
10412
10679
10983
11343
11685
12032
12385
12755
13102
13146
13414
13710
14012
14049
14326
14667
14710
15003
15330
15660
15994
16340
16704
17099
17453
17503
17798
17843
18120
18162
18428
18745
18785
19065
19107
19374
19411
19679
19966
20229
20497
20532
20785
20827
21087
21140
21399
21738
22104
22151
22455
22499
22781
22830
23114
23464
23822
24147
24456
24781
25104
25438
25798
26167
26530
26880
27235
27281
27569
27915
27962
28262
28306
28596
28895
29199
29500
29816
29862
30065
30121
30430
30728
30769
31016
31068
31283
31556
31607
31823
32114
32439
32720
32924
33112
33555
33701
33895
34411
34765
34958
35375
35517
35708
36203
36393
36861
37010
37193
37679
37947
38144
38340
38388
38806
39193
39241
39686
39999
40144
40325
40818
41089
41277
41465
41895
42100
42499
42664
42868
43331
43557
43998
44180
44547
44750
44935
45403
45639
46030
46216
46395
46839
47052
47458
47664
47894
48280
48453
48642
49076
49250
49449
49907
50116
50520
50657
50841
51272
51498
51901
52094
52282
52696
52930
53376
53680
53974
54333
54758
54982
55129
55612
55823
56329
56644
56935
57270
57591
57953
58395
58610
59028
59223
59399
59803
60030
60468
60709
61118
61347
61826
62199
62588
62920
63224
63596
63752
63939
64134
64615
64842
65385
65802
66202
66587
66989
67401
67799
68192
68564
68971
69373
69733
70059
70380
70725
71104
71512
71914
72292
72660
73051
73442
73835
74188
74505
74844
75244
75623
76009
76386
76771
77129
77504
77876
78256
78600
78954
79363
79758
80136
80472
80783
81119
81496
81911
82319
82685
83044
83409
83768
84143
84542
84939
85314
85703
86488
86856
87232
87610
87995
88819
89200
89531
89841
90162
90503
90882
91233
91554
91852
92149
92450
92765
93119
93493
93811
94136
94483
94820
95149
95481
95813
96005
96439
96771
97116
97433
97719
98009
98317
98614
98922
99575
99910
1.0022e+05
1.0054e+05
1.0089e+05
1.0126e+05
1.0162e+05
1.0198e+05
1.0233e+05
1.0266e+05
1.0302e+05
1.0341e+05
1.0377e+05
1.0415e+05
1.0451e+05
1.0488e+05
1.0523e+05
1.0561e+05
1.06e+05
1.0639e+05
1.0673e+05
1.0708e+05
1.0748e+05
1.0788e+05
1.0826e+05
1.0864e+05
1.0902e+05
1.0939e+05
1.0978e+05
1.1017e+05
1.1054e+05
1.1089e+05
1.1124e+05
1.1157e+05
1.1194e+05
1.1234e+05
1.1272e+05
1.1314e+05
1.1386e+05
1.1426e+05
1.146e+05
1.1484e+05
1.1518e+05
1.1959e+05
1.2187e+05
1.2222e+05
1.2435e+05
1.2622e+05
1.3282e+05
1.3963e+05
1.5354e+05
1.5389e+05
1.5448e+05
1.5479e+05
1.5512e+05
1.5543e+05
1.5574e+05
1.5604e+05
1.5633e+05
1.566e+05
1.5687e+05
1.5692e+05
1.5709e+05
1.5715e+05
1.5745e+05
1.5772e+05
1.5777e+05
1.58e+05
1.5827e+05
1.5853e+05
1.5855e+05
1.5878e+05
1.5903e+05
1.5907e+05
1.5931e+05
1.5958e+05
1.5963e+05
1.5989e+05
1.6022e+05
1.6065e+05
1.6067e+05
1.6124e+05
1.6125e+05
1.6152e+05
1.6156e+05
1.6186e+05
1.619e+05
1.6218e+05
1.6253e+05
1.6295e+05
1.6297e+05
1.6348e+05
1.6381e+05
1.6425e+05
1.6452e+05
1.6483e+05
1.6516e+05
1.655e+05
1.6586e+05
1.6621e+05
1.6652e+05
1.6656e+05
1.6682e+05
1.6713e+05
1.6716e+05
1.6746e+05
1.678e+05
1.6784e+05
1.6815e+05
1.6819e+05
1.6851e+05
1.6887e+05
1.6921e+05
1.6953e+05
1.6985e+05
1.699e+05
1.702e+05
1.7057e+05
1.7093e+05
1.7126e+05
1.7158e+05
1.7193e+05
1.723e+05
1.7267e+05
1.7301e+05
1.7336e+05
1.737e+05
1.7402e+05
1.7434e+05
1.744e+05
1.7466e+05
1.7499e+05
1.7529e+05
1.7534e+05
1.7559e+05
1.7588e+05
1.7617e+05
1.7648e+05
1.768e+05
1.7743e+05
1.7961e+05
1.9887e+05
1.9924e+05
1.9958e+05
1.999e+05
2.0024e+05
2.006e+05
2.0182e+05
2.0244e+05
2.054e+05
2.0646e+05
2.0662e+05
2.1429e+05
2.148e+05
2.1595e+05
2.1889e+05
2.1905e+05
2.236e+05
2.25e+05
2.2516e+05
2.3695e+05
2.3701e+05
2.3867e+05
2.3899e+05
2.3936e+05
2.3972e+05
2.4006e+05
2.4038e+05
2.4067e+05
2.4096e+05
2.4127e+05
2.4162e+05
2.4197e+05
2.4233e+05
2.427e+05
2.4306e+05
2.4341e+05
2.4377e+05
2.4412e+05
2.4446e+05
2.448e+05
2.4513e+05
2.4547e+05
2.4583e+05
2.4618e+05
2.4652e+05
2.4685e+05
2.4689e+05
2.4714e+05
2.4744e+05
2.4774e+05
2.4806e+05
2.4836e+05
2.4867e+05
2.4896e+05
2.4926e+05
2.4955e+05
2.4984e+05
2.5015e+05
2.502e+05
2.5046e+05
2.5076e+05
2.5106e+05
2.5133e+05
2.5138e+05
2.5161e+05
2.5191e+05
2.5222e+05
2.5258e+05
2.5293e+05
2.5326e+05
2.5357e+05
2.5361e+05
2.5386e+05
2.539e+05
2.5417e+05
2.5447e+05
2.5451e+05
2.5477e+05
2.551e+05
2.554e+05
2.5545e+05
2.5571e+05
2.561e+05
2.5612e+05
2.5661e+05
2.5667e+05
2.5686e+05
2.5691e+05
2.5722e+05
2.5758e+05
2.576e+05
2.5814e+05
2.5815e+05
2.5871e+05
2.5873e+05
2.5923e+05
2.596e+05
2.5962e+05
2.6017e+05
2.6018e+05
2.607e+05
2.6099e+05
2.6128e+05
2.6167e+05
2.6168e+05
2.6214e+05
2.6241e+05
2.6275e+05
2.6277e+05
2.6346e+05
2.6382e+05
2.6384e+05
2.6438e+05
2.644e+05
2.6486e+05
2.6514e+05
2.6552e+05
2.6554e+05
2.6604e+05
2.6639e+05
2.664e+05
2.8536e+05
2.8538e+05
2.8574e+05
2.8597e+05
2.8633e+05
2.8683e+05
2.8735e+05
2.8794e+05
2.8797e+05
2.8839e+05
2.8891e+05
2.894e+05
2.8955e+05
2.8963e+05
2.8992e+05
2.9006e+05
2.9014e+05
2.9041e+05
2.9055e+05
2.9091e+05
2.9106e+05
2.9115e+05
2.9151e+05
2.9354e+05
2.9409e+05
2.9411e+05
2.9461e+05
2.9462e+05
2.9513e+05
2.9515e+05
2.9566e+05
2.9618e+05
2.967e+05
2.9838e+05
2.9896e+05
2.9954e+05
3.0079e+05
3.0375e+05
3.0434e+05
3.0497e+05
3.0616e+05
3.0738e+05
3.0916e+05
3.0974e+05
3.1031e+05
3.1033e+05
3.2193e+05
3.2195e+05
3.2251e+05
3.2306e+05
3.253e+05
3.2538e+05
3.2664e+05
3.2666e+05
3.272e+05
3.2879e+05
3.2998e+05
3.3172e+05
3.3174e+05
3.3326e+05
3.3361e+05
3.3775e+05
3.3804e+05
3.3833e+05
3.3865e+05
3.3897e+05
3.3929e+05
3.396e+05
3.3991e+05
3.3996e+05
3.4021e+05
3.4053e+05
3.4088e+05
3.4121e+05
3.4126e+05
3.4156e+05
3.4189e+05
3.4193e+05
3.422e+05
3.4224e+05
3.4253e+05
3.4269e+05
3.4321e+05
3.4364e+05
3.4629e+05
3.7381e+05
3.7453e+05
3.7523e+05
3.7591e+05
3.7626e+05
3.7925e+05
3.7956e+05
3.7973e+05
3.8297e+05
3.8358e+05
3.8366e+05
3.8424e+05
3.8491e+05
3.897e+05
3.8973e+05
3.9011e+05
3.9013e+05
3.9165e+05
3.9167e+05
3.9311e+05
3.9313e+05
3.9408e+05
3.941e+05
3.9727e+05
3.9823e+05
3.9843e+05
3.991e+05
4.0086e+05
4.0265e+05
4.0376e+05
4.0444e+05
4.0491e+05
4.0516e+05
4.0583e+05
4.0691e+05
4.0753e+05
4.0755e+05
4.081e+05
4.0858e+05
4.0878e+05
4.0882e+05
4.0931e+05
4.0932e+05
4.1006e+05
4.117e+05
4.1193e+05
4.1312e+05
4.1372e+05
4.1504e+05
4.1761e+05
4.1823e+05
4.2017e+05
4.2082e+05
4.2211e+05
4.2403e+05
4.2465e+05
4.2598e+05
4.2669e+05
4.3033e+05
4.3345e+05
4.3563e+05
4.367e+05
4.3762e+05
4.3764e+05
4.5288e+05
4.5425e+05
4.549e+05
4.5556e+05
4.5626e+05
4.5746e+05
4.5814e+05
4.5865e+05
4.5888e+05
4.5932e+05
4.5936e+05
4.5965e+05
4.601e+05
4.6011e+05
4.6068e+05
4.6103e+05
4.6137e+05
4.6175e+05
4.6216e+05
4.6254e+05
4.6292e+05
4.6331e+05
4.6369e+05
4.6407e+05
4.6447e+05
4.6486e+05
4.6523e+05
4.656e+05
4.6598e+05
4.664e+05
4.6681e+05
4.6719e+05
4.6755e+05
4.6795e+05
4.6836e+05
4.6873e+05
4.6911e+05
4.6948e+05
4.6986e+05
4.7024e+05
4.7063e+05
4.7103e+05
4.7138e+05
4.7173e+05
4.7212e+05
4.7251e+05
4.7289e+05
4.7327e+05
4.7363e+05
4.74e+05
4.7434e+05
4.747e+05
4.751e+05
4.7551e+05
4.7591e+05
4.7631e+05
4.7671e+05
4.7712e+05
4.7752e+05
4.7791e+05
4.7829e+05
4.9516e+05
4.9665e+05
4.9704e+05
4.9742e+05
4.9777e+05
4.9791e+05
4.9953e+05
5.0023e+05
5.0211e+05
5.0246e+05
5.0481e+05
5.0638e+05
5.0676e+05
5.0834e+05
5.0873e+05
5.107e+05
5.1106e+05
5.1145e+05
5.1289e+05
5.132e+05
5.1564e+05
5.1603e+05
5.1656e+05
5.1671e+05
5.1707e+05
5.1767e+05
5.1801e+05
5.189e+05
5.1892e+05
5.1951e+05
5.1953e+05
5.2096e+05
5.2104e+05
5.2207e+05
5.2233e+05
5.2337e+05
5.2361e+05
5.2422e+05
5.3183e+05
5.3198e+05
5.331e+05
5.3492e+05
5.367e+05
5.3672e+05
5.3722e+05
5.3745e+05
5.3801e+05
5.3804e+05
5.3874e+05
5.3935e+05
5.3992e+05
5.4042e+05
5.405e+05
5.4104e+05
5.4106e+05
5.4219e+05
5.4227e+05
5.4283e+05
5.4285e+05
5.4355e+05
5.4422e+05
5.4475e+05
5.4477e+05
5.4537e+05
5.4539e+05
5.4598e+05
5.46e+05
5.4681e+05
5.4683e+05
5.4729e+05
5.4752e+05
5.476e+05
5.4804e+05
5.4806e+05
5.487e+05
5.4931e+05
5.4991e+05
5.5055e+05
5.5103e+05
5.5126e+05
5.5135e+05
5.5163e+05
5.5184e+05
5.5194e+05
5.5238e+05
5.524e+05
5.5288e+05
5.5308e+05
5.532e+05
5.5367e+05
5.5369e+05
5.5421e+05
5.5437e+05
5.5495e+05
5.5546e+05
5.5569e+05
5.5622e+05
5.5686e+05
5.5688e+05
5.5753e+05
5.5817e+05
5.5819e+05
5.5877e+05
5.5879e+05
5.5945e+05
5.5947e+05
5.601e+05
5.6012e+05
5.6092e+05
5.6094e+05
5.6158e+05
5.616e+05
5.625e+05
5.6306e+05
5.6308e+05
5.6387e+05
5.6425e+05
5.6469e+05
5.647e+05
5.6545e+05
5.6596e+05
5.6598e+05
5.8224e+05
5.8258e+05
5.8294e+05
5.8339e+05
5.8341e+05
5.8416e+05
5.8456e+05
5.8507e+05
5.8509e+05
5.8588e+05
5.8637e+05
5.8639e+05
5.8718e+05
5.8771e+05
5.8773e+05
5.885e+05
5.8902e+05
5.8904e+05
5.8995e+05
5.8996e+05
5.9072e+05
5.9121e+05
5.9123e+05
5.9204e+05
5.9254e+05
5.9256e+05
5.9332e+05
5.9385e+05
5.9387e+05
5.9465e+05
5.9668e+05
5.989e+05
6.0108e+05
6.0225e+05
6.0245e+05
6.0366e+05
6.0496e+05
6.062e+05
6.0751e+05
6.0759e+05
6.0835e+05
6.2087e+05
6.2304e+05
6.2306e+05
6.2434e+05
6.2436e+05
6.2512e+05
6.2678e+05
6.2692e+05
6.2801e+05
6.3095e+05
6.3253e+05
6.3278e+05
6.3287e+05
6.3402e+05
6.3405e+05
6.3466e+05
6.3467e+05
6.3593e+05
6.3641e+05
6.3704e+05
6.3751e+05
6.3774e+05
6.3826e+05
6.3869e+05
6.3894e+05
6.3904e+05
6.3934e+05
6.3957e+05
6.3966e+05
6.4008e+05
6.4088e+05
6.4141e+05
6.4146e+05
6.4181e+05
6.4182e+05
6.4207e+05
6.4257e+05
6.4315e+05
6.4317e+05
6.4376e+05
6.4378e+05
6.4424e+05
6.4428e+05
6.446e+05
6.4462e+05
6.4484e+05
6.4539e+05
6.4599e+05
6.4601e+05
6.4671e+05
6.4701e+05
6.4732e+05
6.4737e+05
6.4778e+05
6.478e+05
6.4836e+05
6.4872e+05
