521
779
1130
1401
2055
2328
2653
2920
3604
3903
4186
4773
5419
5720
7261
7526
7871
8445
8817
9063
9672
10633
10916
11484
12191
12500
13017
13323
13711
14027
14579
14878
15213
15508
16772
17058
17298
17925
18301
18597
18854
19464
19815
20102
21364
21637
22923
23180
23750
24048
24418
24704
25299
25946
26231
27486
27738
28335
29014
29316
29887
30567
30827
32638
32923
34208
34455
35748
36004
37551
37859
38165
39070
39367
39630
40928
41211
41502
41817
42093
43079
43332
43919
44937
45191
45477
45756
46383
46781
47043
47300
47894
48566
48888
49150
49744
50712
50969
51609
52248
52551
53131
53442
53816
54068
55335
55629
55874
56184
57162
57425
58024
58690
58944
59879
60245
60487
61065
61745
62045
62624
63256
63561
63858
64464
64804
65095
66664
67225
67811
68216
68483
69338
70039
70305
70603
71865
72133
72467
73045
73710
73978
74307
74585
75223
75543
75833
76087
77034
77678
77931
78230
78584
79532
79806
80367
80674
81043
81359
81616
82216
82907
83171
84708
84973
85634
86248
86526
87110
87434
87785
88097
88341
88938
89636
89901
90205
90495
91155
91410
91740
92024
92340
92704
92999
94502
94743
95089
96020
96340
96637
96903
97556
97815
98112
1.2782e+05
1.9889e+05
1.9921e+05
1.9984e+05
2.0014e+05
2.0048e+05
2.0075e+05
2.0134e+05
2.0163e+05
2.0195e+05
2.0231e+05
2.0261e+05
2.0287e+05
2.0325e+05
2.0347e+05
2.0381e+05
2.0413e+05
2.0445e+05
2.0472e+05
2.0504e+05
2.0531e+05
2.0559e+05
2.0595e+05
2.0627e+05
2.0656e+05
2.0687e+05
2.0719e+05
2.075e+05
2.0841e+05
2.0905e+05
2.0929e+05
2.0995e+05
2.1024e+05
2.1053e+05
2.1087e+05
2.1117e+05
2.1149e+05
2.1207e+05
2.1238e+05
2.127e+05
2.13e+05
2.1354e+05
2.1386e+05
2.1417e+05
2.1445e+05
2.1477e+05
2.1508e+05
2.154e+05
2.1569e+05
2.1599e+05
2.1629e+05
2.1662e+05
2.1691e+05
2.1724e+05
2.1755e+05
2.1786e+05
2.1845e+05
2.1875e+05
2.1906e+05
2.1937e+05
2.2e+05
2.2024e+05
2.2057e+05
2.2089e+05
2.2121e+05
2.2144e+05
2.2211e+05
2.2238e+05
2.2268e+05
2.2297e+05
2.2331e+05
2.2356e+05
2.2395e+05
2.2422e+05
2.2449e+05
2.248e+05
2.2512e+05
2.2545e+05
2.257e+05
2.2605e+05
2.2632e+05
2.2668e+05
2.2696e+05
2.2733e+05
2.2945e+05
2.2974e+05
2.3004e+05
2.3038e+05
2.3069e+05
2.3097e+05
2.3126e+05
2.3158e+05
2.3187e+05
2.322e+05
2.325e+05
2.3283e+05
2.3311e+05
2.334e+05
2.3371e+05
2.3404e+05
2.3433e+05
2.3468e+05
2.3496e+05
2.3527e+05
2.3555e+05
2.3585e+05
2.3618e+05
2.3646e+05
2.3681e+05
2.3711e+05
2.374e+05
2.3768e+05
2.3797e+05
2.383e+05
2.3863e+05
2.3893e+05
2.3925e+05
2.3961e+05
2.3981e+05
2.4015e+05
2.4046e+05
2.4074e+05
2.4109e+05
2.4139e+05
2.4172e+05
2.42e+05
2.423e+05
2.4293e+05
2.4322e+05
2.4355e+05
2.4384e+05
2.4475e+05
2.4502e+05
2.4599e+05
2.4634e+05
2.4659e+05
2.4719e+05
2.4754e+05
2.4785e+05
2.4873e+05
2.5026e+05
2.5052e+05
2.5088e+05
2.5147e+05
2.518e+05
2.5297e+05
2.5338e+05
2.5425e+05
2.5457e+05
2.548e+05
2.5604e+05
2.5642e+05
2.57e+05
2.5729e+05
2.5915e+05
2.5974e+05
2.6005e+05
2.6098e+05
2.616e+05
2.6221e+05
2.6284e+05
2.6374e+05
2.6463e+05
2.6499e+05
2.6527e+05
2.662e+05
2.6649e+05
2.6715e+05
2.6743e+05
2.6773e+05
2.6803e+05
2.6902e+05
2.6928e+05
2.6988e+05
2.7013e+05
2.7048e+05
2.7171e+05
2.7225e+05
2.7254e+05
2.7283e+05
2.7317e+05
2.7347e+05
2.738e+05
2.7408e+05
2.7676e+05
2.7808e+05
2.7864e+05
2.8112e+05
2.8142e+05
2.8289e+05
2.8313e+05
2.8441e+05
2.8473e+05
2.8506e+05
2.8534e+05
2.8562e+05
2.9266e+05
2.9297e+05
2.9417e+05
2.9601e+05
2.9686e+05
2.971e+05
3.0235e+05
3.2025e+05
3.218e+05
3.2387e+05
3.2626e+05
3.2724e+05
3.3058e+05
3.35e+05
3.4732e+05
3.5664e+05
3.8875e+05
3.9724e+05
3.9784e+05
3.9821e+05
3.9846e+05
3.9875e+05
3.9901e+05
3.993e+05
3.9957e+05
3.9997e+05
4.0022e+05
4.0054e+05
4.0081e+05
4.0115e+05
4.0145e+05
4.0171e+05
4.0232e+05
4.03e+05
4.0329e+05
4.0358e+05
4.0391e+05
4.0425e+05
4.0451e+05
4.0481e+05
4.0539e+05
4.0563e+05
4.0592e+05
4.0627e+05
4.0658e+05
4.0683e+05
4.0715e+05
4.0751e+05
4.0777e+05
4.081e+05
4.0841e+05
4.0877e+05
4.0956e+05
4.0986e+05
4.101e+05
4.1047e+05
4.1109e+05
4.1134e+05
4.1168e+05
4.1217e+05
4.1248e+05
4.1282e+05
4.1306e+05
4.1337e+05
4.1371e+05
4.1405e+05
4.1437e+05
4.1464e+05
4.1491e+05
4.1526e+05
4.1555e+05
4.1586e+05
4.1637e+05
4.1671e+05
4.1702e+05
4.1725e+05
4.1791e+05
4.1826e+05
4.185e+05
4.1886e+05
4.1903e+05
4.1935e+05
4.1968e+05
4.1999e+05
4.2122e+05
4.2146e+05
4.2237e+05
4.2265e+05
4.2298e+05
4.2329e+05
4.2361e+05
4.2384e+05
4.2451e+05
4.2484e+05
4.2508e+05
4.2537e+05
4.2625e+05
4.2653e+05
4.2695e+05
4.2717e+05
4.275e+05
4.2773e+05
4.2809e+05
4.284e+05
4.287e+05
4.2905e+05
4.2933e+05
4.2964e+05
4.299e+05
4.3023e+05
4.3055e+05
4.3088e+05
4.314e+05
4.3175e+05
4.3202e+05
4.3262e+05
4.3293e+05
4.3329e+05
4.3353e+05
4.3387e+05
4.3416e+05
4.3472e+05
4.3532e+05
4.3566e+05
4.3594e+05
4.3626e+05
4.365e+05
4.3685e+05
4.3713e+05
4.375e+05
4.3778e+05
4.3811e+05
4.384e+05
4.387e+05
4.3929e+05
4.396e+05
4.3996e+05
4.4028e+05
4.405e+05
4.4084e+05
4.4113e+05
4.4209e+05
4.4237e+05
4.4268e+05
4.4329e+05
4.4388e+05
4.4431e+05
4.4453e+05
4.4637e+05
4.4702e+05
4.4724e+05
4.4764e+05
4.4789e+05
4.4884e+05
4.4914e+05
4.494e+05
4.4974e+05
4.5004e+05
4.5038e+05
4.5099e+05
4.5345e+05
4.5397e+05
4.5439e+05
4.552e+05
4.5553e+05
4.5613e+05
4.5736e+05
4.5767e+05
4.5796e+05
4.5979e+05
4.601e+05
4.604e+05
4.6133e+05
4.6165e+05
4.6198e+05
4.6222e+05
4.6254e+05
4.6283e+05
4.6344e+05
4.6379e+05
4.6411e+05
4.6435e+05
4.6466e+05
4.6496e+05
4.6592e+05
4.6625e+05
4.6655e+05
4.6682e+05
4.6714e+05
4.6778e+05
4.6812e+05
4.6864e+05
4.6929e+05
4.6961e+05
4.7024e+05
4.7085e+05
4.7113e+05
4.7145e+05
4.7176e+05
4.7208e+05
4.724e+05
4.7269e+05
4.7485e+05
4.7515e+05
4.7539e+05
4.7602e+05
4.7632e+05
4.7667e+05
4.7723e+05
4.7752e+05
4.7815e+05
4.7851e+05
4.7908e+05
4.794e+05
4.8001e+05
4.8035e+05
4.8091e+05
4.8247e+05
4.8341e+05
4.84e+05
4.8433e+05
4.8711e+05
4.8801e+05
4.8857e+05
4.9016e+05
4.9102e+05
4.9323e+05
4.9413e+05
4.947e+05
4.9569e+05
5.0231e+05
5.0559e+05
5.0619e+05
5.1357e+05
5.1941e+05
5.2461e+05
5.3332e+05
5.9599e+05
6.107e+05
6.4374e+05
6.4663e+05
-1
388
688
1010
1323
1633
1934
2228
2530
2843
3154
3469
3783
4083
4133
4380
4667
4975
5294
5617
5927
6228
6522
6826
7132
7438
7755
8065
8371
8668
8959
9267
9591
9900
10213
10516
10812
11124
11409
11723
12051
12365
12664
12953
13233
13560
13877
14194
14504
14805
15109
15407
15707
16021
16329
16653
16950
17245
17543
17850
18170
18480
18794
19101
19390
19694
19989
20303
20628
20937
21238
21534
21828
22135
22451
22772
23083
23394
23682
23980
24277
24585
24907
25220
25531
25824
26126
26436
26739
27055
27368
27676
27979
28264
28565
28878
29197
29256
29515
29814
30117
30415
30717
31029
31347
31654
31902
32166
32516
32812
32868
33115
33433
33759
34068
34363
34666
34964
35269
35584
35898
36210
36516
36805
37099
37414
37733
38048
38353
38655
38954
39256
39558
39868
40185
40502
40802
41094
41391
41700
42019
42336
42646
42949
43248
43544
43848
44159
44477
44795
45094
45384
45691
45990
46314
46624
46939
47238
47537
47825
48133
48452
48773
49082
49394
49675
49975
50290
50599
50908
51230
51527
51831
52120
52420
52731
53050
53366
53675
53967
54269
54578
54879
55202
55509
55813
56120
56401
56705
57029
57344
57670
57951
58252
58556
58858
59165
59473
59798
60106
60397
60689
60988
61284
61630
61944
62245
62546
62826
63145
63452
63767
64086
64391
64689
64981
65283
65608
65915
66230
66536
66829
66889
67129
67424
67734
68052
68375
68679
68724
68979
69264
69568
69883
70204
70517
70825
71121
71422
71717
72022
72339
72664
72962
73269
73561
73865
74179
74502
74798
75112
75414
75715
76011
76310
76631
76935
77266
77557
77855
78157
78464
78777
79095
79404
79705
79757
80003
80293
80581
80920
81241
81553
81852
82138
82429
82758
83065
83384
83695
83992
84294
84582
84890
85217
85526
85824
86144
86432
86734
87039
87346
87671
87981
88284
88582
88868
89175
89497
89813
90121
90416
90728
91024
91322
91636
91943
92268
92569
92862
93160
93403
93664
93717
94049
94359
94664
94960
95256
95559
95868
96192
96507
96808
97104
97403
97704
98023
98339
98643
98956
99851
1.0015e+05
1.0048e+05
1.0079e+05
1.011e+05
1.014e+05
1.0169e+05
1.02e+05
1.0231e+05
1.0262e+05
1.0294e+05
1.0324e+05
1.0354e+05
1.0384e+05
1.0414e+05
1.0445e+05
1.0477e+05
1.0509e+05
1.0539e+05
1.0569e+05
1.0598e+05
1.0629e+05
1.0659e+05
1.0722e+05
1.0754e+05
1.0783e+05
1.0812e+05
1.0843e+05
1.0873e+05
1.0884e+05
1.0906e+05
1.0938e+05
1.0968e+05
1.0998e+05
1.1028e+05
1.1058e+05
1.1089e+05
1.1119e+05
1.1151e+05
1.1183e+05
1.1242e+05
1.1271e+05
1.1303e+05
1.1335e+05
1.1397e+05
1.1427e+05
1.1457e+05
1.1488e+05
1.1549e+05
1.1581e+05
1.1612e+05
1.1642e+05
1.1671e+05
1.1701e+05
1.1732e+05
1.1764e+05
1.1796e+05
1.1826e+05
1.1887e+05
1.1916e+05
1.1946e+05
1.1978e+05
1.2009e+05
1.207e+05
1.21e+05
1.213e+05
1.2161e+05
1.2224e+05
1.2255e+05
1.2285e+05
1.2315e+05
1.2345e+05
1.2374e+05
1.2406e+05
1.2439e+05
1.247e+05
1.25e+05
1.2529e+05
1.2559e+05
1.259e+05
1.2621e+05
1.2652e+05
1.2684e+05
1.2714e+05
1.2744e+05
1.2773e+05
1.2803e+05
1.2835e+05
1.2866e+05
1.2898e+05
1.2988e+05
1.3018e+05
1.3049e+05
1.3081e+05
1.3112e+05
1.3143e+05
1.3172e+05
1.3202e+05
1.3296e+05
1.3387e+05
1.3417e+05
1.3447e+05
1.3541e+05
1.3572e+05
1.3602e+05
1.3608e+05
1.3631e+05
1.3661e+05
1.3693e+05
1.3725e+05
1.3756e+05
1.3786e+05
1.3816e+05
1.3846e+05
1.3876e+05
1.3907e+05
1.3939e+05
1.397e+05
1.4001e+05
1.4031e+05
1.406e+05
1.409e+05
1.4122e+05
1.4154e+05
1.4161e+05
1.4185e+05
1.4216e+05
1.4244e+05
1.4275e+05
1.4335e+05
1.4459e+05
1.452e+05
1.4614e+05
1.4704e+05
1.4733e+05
1.4764e+05
1.4859e+05
1.4918e+05
1.4948e+05
1.4979e+05
1.5011e+05
1.5022e+05
1.5042e+05
1.5074e+05
1.5103e+05
1.5133e+05
1.5193e+05
1.5225e+05
1.5257e+05
1.5288e+05
1.5295e+05
1.5318e+05
1.5347e+05
1.5377e+05
1.5746e+05
1.5838e+05
1.599e+05
1.602e+05
1.6083e+05
1.6115e+05
1.6235e+05
1.636e+05
1.639e+05
1.6419e+05
1.6449e+05
1.648e+05
1.6512e+05
1.6543e+05
1.655e+05
1.6574e+05
1.6604e+05
1.6635e+05
1.6695e+05
1.6819e+05
1.6878e+05
1.6885e+05
1.6909e+05
1.7062e+05
1.7186e+05
1.7248e+05
1.7277e+05
1.7306e+05
1.7338e+05
1.7369e+05
1.7375e+05
1.7401e+05
1.7431e+05
1.7462e+05
1.747e+05
1.7492e+05
1.7496e+05
1.7521e+05
1.7582e+05
1.7677e+05
1.7766e+05
1.7798e+05
1.7808e+05
1.7829e+05
1.786e+05
1.7891e+05
1.7921e+05
1.7927e+05
1.795e+05
1.798e+05
1.8012e+05
1.8075e+05
1.8105e+05
1.8203e+05
1.8255e+05
1.8286e+05
1.8377e+05
1.8438e+05
1.847e+05
1.8501e+05
1.8561e+05
1.8715e+05
1.8776e+05
1.8898e+05
1.902e+05
1.905e+05
1.9081e+05
1.9176e+05
1.9234e+05
1.9479e+05
1.9573e+05
1.9879e+05
1.9908e+05
1.9937e+05
1.997e+05
2.0002e+05
2.0033e+05
2.0063e+05
2.0093e+05
2.0154e+05
2.0185e+05
2.0216e+05
2.0248e+05
2.0278e+05
2.0308e+05
2.0337e+05
2.0367e+05
2.0399e+05
2.0432e+05
2.0462e+05
2.0492e+05
2.0522e+05
2.0552e+05
2.0581e+05
2.0613e+05
2.0645e+05
2.0676e+05
2.0706e+05
2.0736e+05
2.0765e+05
2.077e+05
2.0796e+05
2.0829e+05
2.086e+05
2.0891e+05
2.0921e+05
2.095e+05
2.098e+05
2.1011e+05
2.1042e+05
2.1074e+05
2.1105e+05
2.1136e+05
2.1165e+05
2.1171e+05
2.1195e+05
2.1225e+05
2.1257e+05
2.1288e+05
2.1311e+05
2.1347e+05
2.1374e+05
2.1404e+05
2.1434e+05
2.1465e+05
2.1496e+05
2.1528e+05
2.1559e+05
2.1588e+05
2.1617e+05
2.1649e+05
2.168e+05
2.1711e+05
2.1742e+05
2.1773e+05
2.1803e+05
2.181e+05
2.1833e+05
2.1862e+05
2.1893e+05
2.1925e+05
2.1957e+05
2.1987e+05
2.2017e+05
2.2047e+05
2.2069e+05
2.2077e+05
2.2108e+05
2.2134e+05
2.2159e+05
2.2196e+05
2.2227e+05
2.2255e+05
2.2285e+05
2.2316e+05
2.2348e+05
2.2379e+05
2.2411e+05
2.244e+05
2.2471e+05
2.2501e+05
2.2531e+05
2.2562e+05
2.2594e+05
2.2625e+05
2.2655e+05
2.2685e+05
2.2714e+05
2.2745e+05
2.2777e+05
2.2952e+05
2.296e+05
2.2992e+05
2.3023e+05
2.3055e+05
2.3084e+05
2.3114e+05
2.3144e+05
2.3174e+05
2.3205e+05
2.3238e+05
2.3269e+05
2.3299e+05
2.3328e+05
2.3359e+05
2.3389e+05
2.342e+05
2.3451e+05
2.3483e+05
2.3514e+05
2.3543e+05
2.3571e+05
2.3603e+05
2.3635e+05
2.3667e+05
2.3697e+05
2.3728e+05
2.3758e+05
2.3788e+05
2.3818e+05
2.3849e+05
2.3881e+05
2.3913e+05
2.3943e+05
2.3972e+05
2.4002e+05
2.4032e+05
2.4065e+05
2.4096e+05
2.4127e+05
2.4157e+05
2.4187e+05
2.4216e+05
2.4246e+05
2.4278e+05
2.4284e+05
2.4309e+05
2.4341e+05
2.4371e+05
2.44e+05
2.4411e+05
2.4431e+05
2.4492e+05
2.4524e+05
2.4616e+05
2.4645e+05
2.4654e+05
2.4675e+05
2.4739e+05
2.477e+05
2.48e+05
2.4891e+05
2.5045e+05
2.5074e+05
2.5116e+05
2.5168e+05
2.5199e+05
2.5319e+05
2.535e+05
2.5366e+05
2.5444e+05
2.5473e+05
2.5503e+05
2.5596e+05
2.5628e+05
2.5658e+05
2.5665e+05
2.5688e+05
2.5718e+05
2.5748e+05
2.5779e+05
2.579e+05
2.5932e+05
2.5993e+05
2.6025e+05
2.6117e+05
2.6177e+05
2.6239e+05
2.6302e+05
2.6313e+05
2.6391e+05
2.6485e+05
2.6516e+05
2.6546e+05
2.6635e+05
2.6668e+05
2.6731e+05
2.676e+05
2.679e+05
2.682e+05
2.6829e+05
2.6883e+05
2.6914e+05
2.6945e+05
2.7006e+05
2.7033e+05
2.7065e+05
2.7182e+05
2.719e+05
2.7241e+05
2.7263e+05
2.7271e+05
2.7303e+05
2.7333e+05
2.7365e+05
2.7395e+05
2.7401e+05
2.7425e+05
2.77e+05
2.7825e+05
2.7854e+05
2.7884e+05
2.8129e+05
2.8159e+05
2.8306e+05
2.8335e+05
2.8462e+05
2.8491e+05
2.8521e+05
2.8551e+05
2.8581e+05
2.9283e+05
2.9313e+05
2.9434e+05
2.9631e+05
2.9703e+05
2.9735e+05
2.9742e+05
2.9766e+05
2.9771e+05
2.9824e+05
2.9854e+05
2.9885e+05
2.9918e+05
2.9949e+05
2.998e+05
3.0009e+05
3.004e+05
3.007e+05
3.01e+05
3.0132e+05
3.0163e+05
3.0194e+05
3.0224e+05
3.0254e+05
3.0284e+05
3.0315e+05
3.0347e+05
3.0378e+05
3.0409e+05
3.0449e+05
3.0451e+05
3.049e+05
3.052e+05
3.0552e+05
3.0584e+05
3.0615e+05
3.0645e+05
3.0675e+05
3.0705e+05
3.0735e+05
3.0767e+05
3.0799e+05
3.0829e+05
3.086e+05
3.089e+05
3.092e+05
3.095e+05
3.0979e+05
3.1013e+05
3.1044e+05
3.1075e+05
3.1104e+05
3.1132e+05
3.1165e+05
3.1197e+05
3.1228e+05
3.1259e+05
3.1289e+05
3.1319e+05
3.1349e+05
3.1379e+05
3.1409e+05
3.1442e+05
3.1474e+05
3.1503e+05
3.1533e+05
3.1562e+05
3.1593e+05
3.1625e+05
3.1657e+05
3.1688e+05
3.1729e+05
3.1768e+05
3.1796e+05
3.1829e+05
3.1861e+05
3.1893e+05
3.1923e+05
3.1953e+05
3.1983e+05
3.2013e+05
3.2044e+05
3.2076e+05
3.2107e+05
3.2138e+05
3.2168e+05
3.2197e+05
3.2227e+05
3.2258e+05
3.2288e+05
3.2322e+05
3.2352e+05
3.2382e+05
3.2413e+05
3.2441e+05
3.2473e+05
3.2504e+05
3.2536e+05
3.2567e+05
3.2597e+05
3.2619e+05
3.2647e+05
3.2676e+05
3.271e+05
3.2742e+05
3.2773e+05
3.2804e+05
3.2833e+05
3.2864e+05
3.2893e+05
3.2925e+05
3.2956e+05
3.2987e+05
3.3016e+05
3.3047e+05
3.3077e+05
3.3108e+05
3.314e+05
3.3164e+05
3.3195e+05
3.3227e+05
3.3256e+05
3.3286e+05
3.3317e+05
3.3346e+05
3.3379e+05
3.3411e+05
3.3441e+05
3.347e+05
3.3493e+05
3.3522e+05
3.3524e+05
3.3552e+05
3.3585e+05
3.3616e+05
3.3646e+05
3.3677e+05
3.3706e+05
3.3736e+05
3.3767e+05
3.3798e+05
3.383e+05
3.3861e+05
3.3891e+05
3.3921e+05
3.3952e+05
3.3982e+05
3.4014e+05
3.4045e+05
3.4075e+05
3.4106e+05
3.4135e+05
3.4166e+05
3.4195e+05
3.4228e+05
3.4259e+05
3.432e+05
3.4349e+05
3.438e+05
3.4411e+05
3.4533e+05
3.4565e+05
3.4625e+05
3.4687e+05
3.4749e+05
3.4809e+05
3.4839e+05
3.4871e+05
3.4902e+05
3.4964e+05
3.4997e+05
3.5046e+05
3.5201e+05
3.5232e+05
3.5262e+05
3.5386e+05
3.5539e+05
3.5571e+05
3.5601e+05
3.5683e+05
3.5714e+05
3.5745e+05
3.5777e+05
3.5808e+05
3.596e+05
3.5992e+05
3.6587e+05
3.665e+05
3.6681e+05
3.7787e+05
3.7826e+05
3.792e+05
3.8102e+05
3.8197e+05
3.8225e+05
3.8255e+05
3.8355e+05
3.8433e+05
3.8647e+05
3.8676e+05
3.8708e+05
3.8801e+05
3.8832e+05
3.8862e+05
3.8892e+05
3.8922e+05
3.8952e+05
3.9039e+05
3.9098e+05
3.9128e+05
3.9222e+05
3.9253e+05
3.9283e+05
3.9312e+05
3.9373e+05
3.9527e+05
3.9558e+05
3.9588e+05
3.9748e+05
3.976e+05
3.9802e+05
3.9834e+05
3.9859e+05
3.9885e+05
3.9919e+05
3.9949e+05
3.9979e+05
4.0008e+05
4.0039e+05
4.0071e+05
4.0103e+05
4.0133e+05
4.0163e+05
4.0192e+05
4.0199e+05
4.0222e+05
4.0255e+05
4.0286e+05
4.0317e+05
4.0348e+05
4.0378e+05
4.0407e+05
4.0437e+05
4.0468e+05
4.0504e+05
4.0555e+05
4.0584e+05
4.0614e+05
4.0645e+05
4.0668e+05
4.0708e+05
4.0738e+05
4.077e+05
4.08e+05
4.083e+05
4.0858e+05
4.0887e+05
4.0908e+05
4.0942e+05
4.0973e+05
4.1003e+05
4.1033e+05
4.1063e+05
4.1093e+05
4.1125e+05
4.1156e+05
4.1187e+05
4.12e+05
4.1239e+05
4.1268e+05
4.1298e+05
4.1329e+05
4.1361e+05
4.1393e+05
4.1424e+05
4.1453e+05
4.1483e+05
4.1514e+05
4.1545e+05
4.1576e+05
4.16e+05
4.1626e+05
4.1659e+05
4.1689e+05
4.1718e+05
4.175e+05
4.1781e+05
4.1812e+05
4.1843e+05
4.1874e+05
4.1896e+05
4.1922e+05
4.1955e+05
4.1986e+05
4.2018e+05
4.214e+05
4.2169e+05
4.2201e+05
4.2222e+05
4.2256e+05
4.2286e+05
4.2317e+05
4.2347e+05
4.2376e+05
4.2408e+05
4.2438e+05
4.247e+05
4.2502e+05
4.2531e+05
4.2556e+05
4.2579e+05
4.2613e+05
4.2645e+05
4.2677e+05
4.2707e+05
4.2737e+05
4.2767e+05
4.2797e+05
4.2827e+05
4.2858e+05
4.2891e+05
4.2921e+05
4.2952e+05
4.2982e+05
4.3011e+05
4.3042e+05
4.3073e+05
4.3105e+05
4.3129e+05
4.3161e+05
4.319e+05
4.3219e+05
4.3226e+05
4.325e+05
4.328e+05
4.3313e+05
4.3344e+05
4.3375e+05
4.3404e+05
4.3428e+05
4.3452e+05
4.349e+05
4.3521e+05
4.3553e+05
4.3584e+05
4.3614e+05
4.3643e+05
4.3673e+05
4.3705e+05
4.3737e+05
4.3768e+05
4.3798e+05
4.3828e+05
4.3858e+05
4.3888e+05
4.3919e+05
4.395e+05
4.3982e+05
4.4013e+05
4.4043e+05
4.4073e+05
4.4102e+05
4.4133e+05
4.4196e+05
4.4228e+05
4.4258e+05
4.4288e+05
4.4316e+05
4.4348e+05
4.4412e+05
4.4442e+05
4.4472e+05
4.4531e+05
4.4656e+05
4.4717e+05
4.4747e+05
4.4776e+05
4.4808e+05
4.4871e+05
4.4901e+05
4.4931e+05
4.496e+05
4.4983e+05
4.4991e+05
4.5023e+05
4.5055e+05
4.5116e+05
4.536e+05
4.5421e+05
4.5452e+05
4.5468e+05
4.5509e+05
4.554e+05
4.5569e+05
4.5599e+05
4.563e+05
4.5724e+05
4.5754e+05
4.5784e+05
4.5814e+05
4.5906e+05
4.5998e+05
4.6027e+05
4.6058e+05
4.6153e+05
4.6183e+05
4.6214e+05
4.6244e+05
4.6273e+05
4.6304e+05
4.6368e+05
4.6399e+05
4.6428e+05
4.6457e+05
4.6488e+05
4.6519e+05
4.6613e+05
4.6642e+05
4.6673e+05
4.6703e+05
4.6733e+05
4.6797e+05
4.6828e+05
4.6888e+05
4.694e+05
4.6949e+05
4.698e+05
4.7042e+05
4.7072e+05
4.7102e+05
4.7131e+05
4.7162e+05
4.7194e+05
4.7226e+05
4.7257e+05
4.7262e+05
4.7286e+05
4.7347e+05
4.7502e+05
4.7531e+05
4.7562e+05
4.7624e+05
4.7655e+05
4.7678e+05
4.7686e+05
4.7716e+05
4.7745e+05
4.7776e+05
4.7838e+05
4.7869e+05
4.793e+05
4.796e+05
4.802e+05
4.8053e+05
4.8115e+05
4.8266e+05
4.8359e+05
4.8388e+05
4.8418e+05
4.845e+05
4.8504e+05
4.8513e+05
4.8574e+05
4.8663e+05
4.8728e+05
4.8818e+05
4.8878e+05
4.9032e+05
4.9124e+05
4.9187e+05
4.9277e+05
4.9338e+05
4.9432e+05
4.9491e+05
4.9585e+05
4.9675e+05
4.9706e+05
4.9736e+05
4.9761e+05
4.9786e+05
4.982e+05
4.9852e+05
4.9858e+05
4.9881e+05
4.9886e+05
4.9911e+05
4.994e+05
4.9972e+05
4.9979e+05
5.0004e+05
5.0036e+05
5.0065e+05
5.0095e+05
5.0125e+05
5.0132e+05
5.0155e+05
5.0185e+05
5.0218e+05
5.0249e+05
5.0281e+05
5.0305e+05
5.033e+05
5.0362e+05
5.0394e+05
5.0425e+05
5.0456e+05
5.0487e+05
5.0517e+05
5.0547e+05
5.0577e+05
5.0582e+05
5.0608e+05
5.0633e+05
5.0668e+05
5.0699e+05
5.0707e+05
5.0728e+05
5.0733e+05
5.0758e+05
5.0787e+05
5.0818e+05
5.0881e+05
5.0907e+05
5.093e+05
5.0935e+05
5.0963e+05
5.0993e+05
5.1023e+05
5.1087e+05
5.1113e+05
5.1122e+05
5.1141e+05
5.1171e+05
5.1191e+05
5.1224e+05
5.1254e+05
5.1297e+05
5.1338e+05
5.1369e+05
5.1392e+05
5.1416e+05
5.1505e+05
5.1538e+05
5.1567e+05
5.1574e+05
5.1597e+05
5.1627e+05
5.1719e+05
5.175e+05
5.1756e+05
5.1783e+05
5.1812e+05
5.1841e+05
5.1871e+05
5.1902e+05
5.1933e+05
5.1965e+05
5.1996e+05
5.2026e+05
5.2056e+05
5.2086e+05
5.2116e+05
5.2149e+05
5.2179e+05
5.2211e+05
5.2241e+05
5.2246e+05
5.2271e+05
5.2298e+05
5.2332e+05
5.2363e+05
5.2394e+05
5.2425e+05
5.2455e+05
5.2485e+05
5.2514e+05
5.2545e+05
5.2576e+05
5.2609e+05
5.264e+05
5.267e+05
5.2699e+05
5.2729e+05
5.2759e+05
5.2791e+05
5.2823e+05
5.2854e+05
5.2883e+05
5.2914e+05
5.2943e+05
5.2974e+05
5.3005e+05
5.3037e+05
5.3069e+05
5.3098e+05
5.3128e+05
5.3158e+05
5.319e+05
5.3219e+05
5.3251e+05
5.3282e+05
5.3287e+05
5.3313e+05
5.3343e+05
5.3373e+05
5.3403e+05
5.3434e+05
5.3466e+05
5.3498e+05
5.3504e+05
5.3528e+05
5.3557e+05
5.3587e+05
5.3618e+05
5.3649e+05
5.368e+05
5.3712e+05
5.3743e+05
5.3747e+05
5.3773e+05
5.3802e+05
5.3832e+05
5.3863e+05
5.3895e+05
5.3927e+05
5.3957e+05
5.3986e+05
5.4016e+05
5.4047e+05
5.4087e+05
5.413e+05
5.4137e+05
5.4161e+05
5.4191e+05
5.4221e+05
5.4738e+05
5.4769e+05
5.4801e+05
5.4831e+05
5.4861e+05
5.4889e+05
5.526e+05
5.532e+05
5.7772e+05
5.7804e+05
5.7811e+05
5.7834e+05
5.7864e+05
5.7894e+05
5.7924e+05
5.7955e+05
5.8018e+05
5.9581e+05
5.961e+05
5.964e+05
5.9671e+05
5.9703e+05
5.9735e+05
5.9765e+05
5.9795e+05
5.9826e+05
5.9855e+05
5.9863e+05
5.9885e+05
5.9891e+05
5.9916e+05
6.001e+05
6.004e+05
6.0047e+05
6.0069e+05
6.0075e+05
6.01e+05
6.0132e+05
6.0163e+05
6.0194e+05
6.0233e+05
6.0254e+05
6.026e+05
6.0284e+05
6.0314e+05
6.0345e+05
6.0378e+05
6.0409e+05
6.0439e+05
6.0469e+05
6.0498e+05
6.0529e+05
6.0561e+05
6.0592e+05
6.0623e+05
6.0654e+05
6.0684e+05
6.0838e+05
6.0898e+05
6.0928e+05
6.0958e+05
6.0989e+05
6.0995e+05
6.102e+05
6.1051e+05
6.1083e+05
6.1113e+05
6.1142e+05
6.1172e+05
6.1178e+05
6.1203e+05
6.1235e+05
6.1267e+05
6.1327e+05
6.1357e+05
6.1363e+05
6.1387e+05
6.1418e+05
6.1449e+05
6.1481e+05
6.1512e+05
6.1542e+05
6.1571e+05
6.1601e+05
6.1632e+05
6.1664e+05
6.1696e+05
6.1726e+05
6.1756e+05
6.1786e+05
6.1847e+05
6.1888e+05
6.193e+05
6.1961e+05
6.199e+05
6.2019e+05
6.205e+05
6.2082e+05
6.2114e+05
6.2145e+05
6.2151e+05
6.2175e+05
6.2204e+05
6.2235e+05
6.2265e+05
6.2305e+05
6.2349e+05
6.2379e+05
6.2385e+05
6.2409e+05
6.2614e+05
6.262e+05
6.2703e+05
6.2735e+05
6.2776e+05
6.2817e+05
6.2847e+05
6.2877e+05
6.2908e+05
6.2938e+05
6.297e+05
6.3001e+05
6.3032e+05
6.3062e+05
6.3068e+05
6.3091e+05
6.3121e+05
6.3153e+05
6.3185e+05
6.3216e+05
6.3251e+05
6.3299e+05
6.3305e+05
6.333e+05
6.336e+05
6.3391e+05
6.3423e+05
6.3484e+05
6.3513e+05
6.3543e+05
6.3574e+05
6.3618e+05
6.3659e+05
6.3689e+05
6.372e+05
6.375e+05
6.378e+05
6.3786e+05
6.3811e+05
6.3843e+05
6.3874e+05
6.3904e+05
6.3934e+05
6.3963e+05
6.3994e+05
6.4026e+05
6.4058e+05
6.4088e+05
6.4119e+05
6.4149e+05
6.4178e+05
6.4208e+05
6.4213e+05
6.4239e+05
6.4272e+05
6.4303e+05
6.4333e+05
6.4363e+05
6.4392e+05
6.4423e+05
6.4428e+05
6.4455e+05
6.4486e+05
6.4517e+05
6.4548e+05
6.4578e+05
6.4615e+05
6.4657e+05
6.4688e+05
6.4695e+05
6.472e+05
