364
713
1074
1417
1746
2084
2436
2811
3160
3514
3849
4529
4889
5270
5641
6039
6405
6801
7209
7611
7982
8353
8728
9114
9501
9887
10150
10618
10828
11374
11744
12096
12435
12779
13152
13568
13996
14393
14773
15144
15536
15940
16327
16711
17085
17459
17886
18247
18606
18970
19334
19720
20111
20510
20870
21228
21597
21977
22350
22716
23112
23536
23956
24373
24774
25156
25539
25913
26307
26705
27101
27469
27851
28237
28633
29020
29384
29721
30071
30461
30898
31340
31785
32188
32614
33044
33435
33810
34186
34550
34935
35333
35687
36043
36394
36768
37215
37703
38123
38517
38908
39311
39697
40094
40460
40842
41225
41618
42012
42392
42764
43138
43535
43928
44315
44698
45072
45438
45817
46225
46583
46927
47270
47644
48113
48556
48935
49312
49699
50092
50468
50835
51193
51545
51925
52320
52694
53068
53437
53827
54174
54579
54957
55337
55703
56092
56481
56886
57269
57647
58016
58402
58802
59203
59584
59939
60303
60714
61112
61511
61886
62255
62631
63021
63419
63804
64183
64550
64922
65318
65724
66094
66471
66843
67227
67614
68004
68383
68731
69105
69460
69833
70207
70663
71091
71558
71987
72396
72772
73152
73519
73936
74325
74697
75069
75445
75821
76233
76637
76992
77365
77748
78129
78519
78909
79276
79642
80027
80408
80789
81153
81492
81831
82208
82606
83065
83479
83772
84278
84723
85142
85517
85902
86261
86628
87014
87407
87779
88151
88534
88925
89329
89732
90124
90486
90880
91277
91672
92043
92413
92785
93182
93561
93938
94301
94653
94995
95364
95790
96268
96684
97079
97480
97895
98285
98642
99004
1.6997e+05
1.9882e+05
1.9959e+05
1.9998e+05
2.0035e+05
2.0073e+05
2.0118e+05
2.0159e+05
2.0197e+05
2.0228e+05
2.027e+05
2.0307e+05
2.0383e+05
2.05e+05
2.0549e+05
2.0624e+05
2.0923e+05
2.112e+05
2.1157e+05
2.2399e+05
2.3873e+05
2.3914e+05
2.3957e+05
2.3995e+05
2.4037e+05
2.4079e+05
2.4115e+05
2.4152e+05
2.4191e+05
2.4232e+05
2.4271e+05
2.4309e+05
2.4345e+05
2.4382e+05
2.4418e+05
2.4458e+05
2.4497e+05
2.4536e+05
2.4572e+05
2.4608e+05
2.4647e+05
2.4688e+05
2.4727e+05
2.4766e+05
2.4805e+05
2.4843e+05
2.4883e+05
2.4924e+05
2.4962e+05
2.4998e+05
2.5037e+05
2.5075e+05
2.5114e+05
2.5154e+05
2.5191e+05
2.5225e+05
2.5261e+05
2.5296e+05
2.542e+05
2.5644e+05
2.5678e+05
2.5712e+05
2.5789e+05
2.5824e+05
2.5857e+05
2.5902e+05
2.6132e+05
2.6168e+05
2.6241e+05
2.629e+05
2.6312e+05
2.636e+05
2.6448e+05
2.6525e+05
2.6561e+05
2.6601e+05
2.6678e+05
2.6715e+05
2.6749e+05
2.6786e+05
2.6861e+05
2.693e+05
2.7011e+05
2.705e+05
2.7131e+05
2.7357e+05
2.7392e+05
2.7482e+05
2.7562e+05
2.7598e+05
2.775e+05
2.7784e+05
2.7823e+05
2.7859e+05
2.7897e+05
2.7936e+05
2.7973e+05
2.8008e+05
2.8043e+05
2.8088e+05
2.8135e+05
2.818e+05
2.8219e+05
2.8256e+05
2.8296e+05
2.8337e+05
2.8376e+05
2.8415e+05
2.8453e+05
2.8489e+05
2.8528e+05
2.8567e+05
2.8606e+05
2.8643e+05
2.8679e+05
2.8716e+05
2.8754e+05
2.8793e+05
2.9062e+05
2.9096e+05
2.9131e+05
2.9166e+05
2.9242e+05
3.1356e+05
4.7123e+05
4.905e+05
4.9937e+05
4.9967e+05
5.0089e+05
5.0135e+05
5.3652e+05
5.3721e+05
5.3758e+05
5.3795e+05
5.3868e+05
5.3905e+05
5.3937e+05
5.3973e+05
5.4006e+05
5.4081e+05
5.4115e+05
5.4149e+05
5.4185e+05
5.422e+05
5.4255e+05
5.4291e+05
5.433e+05
5.4363e+05
5.4402e+05
5.4438e+05
5.4476e+05
5.466e+05
5.4695e+05
5.4838e+05
5.492e+05
5.4958e+05
5.5067e+05
5.5147e+05
5.5426e+05
5.55e+05
5.5614e+05
5.5649e+05
5.5693e+05
5.5781e+05
5.5822e+05
5.5861e+05
5.5898e+05
5.6017e+05
5.6056e+05
5.6091e+05
5.6129e+05
5.6209e+05
5.6249e+05
5.6288e+05
5.6325e+05
5.64e+05
5.6514e+05
5.6623e+05
5.6767e+05
5.6889e+05
5.6925e+05
5.7e+05
5.7036e+05
5.7075e+05
5.7144e+05
5.7217e+05
5.7397e+05
5.7689e+05
5.7731e+05
5.7804e+05
5.7985e+05
5.8018e+05
5.8153e+05
5.84e+05
5.8615e+05
5.8647e+05
5.8722e+05
5.904e+05
6.0355e+05
6.0702e+05
6.0836e+05
6.1027e+05
6.1221e+05
6.1278e+05
6.1374e+05
6.1746e+05
6.1776e+05
6.1914e+05
6.2043e+05
6.2486e+05
6.2868e+05
6.293e+05
6.3053e+05
6.3332e+05
6.3825e+05
6.3909e+05
6.3976e+05
6.4009e+05
6.444e+05
6.465e+05
6.4685e+05
-1
532
631
1238
1337
1657
1695
1901
2603
2714
2979
3075
3322
3433
3674
3769
4001
4182
4201
4687
4797
5061
5162
5431
5894
6194
6563
6970
7371
7487
7770
7865
8516
8611
8883
9286
9383
10102
10324
10717
10952
11001
11652
11906
12036
12256
12386
12591
12735
13321
13476
13719
13842
14156
14278
14553
15306
15420
15703
15847
16098
16208
16484
16586
16872
16969
17241
17417
17571
17621
18033
18174
18389
18421
18727
18781
19101
19177
19958
20286
20397
20659
21018
21400
21765
21866
22885
22979
23270
23366
23697
23804
24129
24267
24538
24643
25316
25422
25700
25801
26071
26200
26476
26586
26879
26978
27261
27355
27633
27745
28398
28497
28804
28955
29183
29291
29536
29878
29976
30238
30409
30633
30731
31065
31176
31508
31677
31938
32353
32456
32788
32888
33211
33303
33601
33697
33974
34127
34342
34712
34828
35114
35239
35502
35604
35848
36194
36297
36558
36660
36938
37049
37868
38277
38385
38676
39077
39476
39574
39869
39989
40253
40355
40619
40997
41099
42180
42293
42553
42644
42884
42921
43401
43721
44129
44482
45297
45734
46119
46391
46811
47184
47452
47960
48000
48308
48855
49217
49574
49908
50224
50273
50649
51018
51347
51712
52482
52925
53258
53555
53753
54056
54426
55134
55451
55562
56213
56289
56681
57011
57109
57454
57900
58524
58579
58917
58982
59399
59769
60140
60501
60916
61311
61719
62081
62377
62442
63230
63544
63633
63997
64294
64373
64742
65123
65521
65839
65935
66289
66674
67035
67431
67815
68201
68573
68926
69308
69590
69659
70039
70329
70399
70778
70861
71210
71293
71684
71764
72114
72184
72512
72591
72894
72967
73344
73727
74055
74143
74528
74899
74946
75262
75574
75651
76024
76368
76435
76836
77186
77562
77991
78071
78329
78643
78735
79094
79450
80237
80611
81002
81334
81684
82022
82423
82736
82805
83213
83264
83600
83669
84023
84469
84930
85349
86037
86107
86417
86518
86895
87210
87589
88336
88700
89105
89504
89893
90655
90784
91043
91224
91445
91791
91849
92598
93128
93361
93679
93761
94135
94489
95114
95172
95636
95916
95990
96449
96877
97278
97830
98094
98401
98491
98838
99121
99194
99820
99838
1.0036e+05
1.0149e+05
1.0259e+05
1.0334e+05
1.0375e+05
1.0491e+05
1.0497e+05
1.0733e+05
1.0735e+05
1.2891e+05
1.2898e+05
1.2936e+05
1.3952e+05
1.3989e+05
1.4028e+05
1.4067e+05
1.4108e+05
1.4139e+05
1.4148e+05
1.4185e+05
1.4222e+05
1.4261e+05
1.4302e+05
1.4342e+05
1.4383e+05
1.4421e+05
1.446e+05
1.4497e+05
1.4541e+05
1.4579e+05
1.4619e+05
1.4659e+05
1.4697e+05
1.4739e+05
1.4772e+05
1.4779e+05
1.4819e+05
1.4859e+05
1.4897e+05
1.4903e+05
1.4937e+05
1.4978e+05
1.5019e+05
1.5057e+05
1.5095e+05
1.5136e+05
1.5214e+05
1.5292e+05
1.5328e+05
1.5359e+05
1.5369e+05
1.5443e+05
1.549e+05
1.5564e+05
1.5708e+05
1.5746e+05
1.6102e+05
1.6826e+05
1.6865e+05
1.6903e+05
1.6944e+05
1.6981e+05
1.7017e+05
1.7048e+05
1.7055e+05
1.7092e+05
1.7124e+05
1.7131e+05
1.7172e+05
1.7201e+05
1.7208e+05
1.7245e+05
1.7274e+05
1.7296e+05
1.7359e+05
1.7404e+05
1.7466e+05
1.751e+05
1.7627e+05
1.7667e+05
1.7872e+05
1.7922e+05
1.7928e+05
1.7956e+05
1.7963e+05
1.8004e+05
1.8116e+05
1.8153e+05
1.8192e+05
1.8229e+05
1.826e+05
1.8268e+05
1.8304e+05
1.834e+05
1.8377e+05
1.8464e+05
1.8563e+05
1.86e+05
1.8693e+05
1.8734e+05
1.8811e+05
1.8851e+05
1.8921e+05
1.8963e+05
1.9163e+05
1.9225e+05
1.9302e+05
1.937e+05
1.9427e+05
1.9907e+05
1.9978e+05
2.0017e+05
2.0053e+05
2.0093e+05
2.015e+05
2.019e+05
2.0216e+05
2.0256e+05
2.03e+05
2.034e+05
2.0414e+05
2.052e+05
2.0569e+05
2.0584e+05
2.0644e+05
2.0706e+05
2.0743e+05
2.0948e+05
2.1089e+05
2.109e+05
2.1139e+05
2.1177e+05
2.2417e+05
2.3893e+05
2.3933e+05
2.3976e+05
2.4015e+05
2.4058e+05
2.4098e+05
2.4127e+05
2.4133e+05
2.4171e+05
2.4211e+05
2.425e+05
2.4291e+05
2.4321e+05
2.4331e+05
2.4363e+05
2.4393e+05
2.44e+05
2.4439e+05
2.4479e+05
2.4516e+05
2.4548e+05
2.4554e+05
2.4583e+05
2.459e+05
2.4628e+05
2.4666e+05
2.4707e+05
2.4746e+05
2.4786e+05
2.4823e+05
2.4864e+05
2.4904e+05
2.4944e+05
2.4981e+05
2.5018e+05
2.5049e+05
2.5055e+05
2.5095e+05
2.5136e+05
2.5172e+05
2.5209e+05
2.5245e+05
2.528e+05
2.5308e+05
2.5316e+05
2.5447e+05
2.5662e+05
2.5703e+05
2.5732e+05
2.5808e+05
2.5842e+05
2.5876e+05
2.5922e+05
2.6152e+05
2.6194e+05
2.6259e+05
2.6302e+05
2.6325e+05
2.6331e+05
2.6381e+05
2.6469e+05
2.6544e+05
2.6581e+05
2.6621e+05
2.6697e+05
2.6733e+05
2.6768e+05
2.6798e+05
2.6806e+05
2.6897e+05
2.6941e+05
2.6949e+05
2.7023e+05
2.7031e+05
2.707e+05
2.7155e+05
2.7375e+05
2.7412e+05
2.7503e+05
2.7583e+05
2.7628e+05
2.7762e+05
2.7771e+05
2.7803e+05
2.7842e+05
2.7871e+05
2.7879e+05
2.792e+05
2.7956e+05
2.7998e+05
2.802e+05
2.8028e+05
2.8063e+05
2.8107e+05
2.8156e+05
2.8198e+05
2.8238e+05
2.8276e+05
2.8308e+05
2.8316e+05
2.8356e+05
2.8396e+05
2.8434e+05
2.8465e+05
2.8475e+05
2.8501e+05
2.8508e+05
2.8549e+05
2.8586e+05
2.8626e+05
2.8661e+05
2.8698e+05
2.8736e+05
2.8775e+05
2.8821e+05
2.908e+05
2.9117e+05
2.9151e+05
2.9186e+05
2.9262e+05
2.9828e+05
2.9831e+05
2.9866e+05
2.9871e+05
2.9909e+05
2.9952e+05
2.9992e+05
2.9995e+05
3.0031e+05
3.0073e+05
3.0137e+05
3.0183e+05
3.0878e+05
3.0945e+05
3.1252e+05
3.1297e+05
3.1412e+05
3.157e+05
3.1759e+05
3.1799e+05
3.1993e+05
3.2227e+05
3.2497e+05
3.2606e+05
3.2658e+05
3.266e+05
3.2739e+05
3.2875e+05
3.291e+05
3.311e+05
3.3153e+05
3.331e+05
3.382e+05
3.3862e+05
3.3901e+05
3.3943e+05
3.3977e+05
3.3984e+05
3.4022e+05
3.4098e+05
3.4136e+05
3.4175e+05
3.4215e+05
3.4251e+05
3.4288e+05
3.4324e+05
3.4363e+05
3.4401e+05
3.4438e+05
3.4476e+05
3.4531e+05
3.4576e+05
3.4619e+05
3.4699e+05
3.4734e+05
3.4771e+05
3.4811e+05
3.4889e+05
3.4918e+05
3.4925e+05
3.4971e+05
3.5086e+05
3.5153e+05
3.5193e+05
3.5347e+05
3.5456e+05
3.5578e+05
3.572e+05
3.5729e+05
3.5765e+05
3.5842e+05
3.5882e+05
3.5963e+05
3.6e+05
3.6191e+05
3.6199e+05
3.6268e+05
3.6276e+05
3.6312e+05
3.6475e+05
3.6544e+05
3.6583e+05
3.9725e+05
3.9818e+05
3.9859e+05
3.9861e+05
4.0329e+05
4.0812e+05
4.0814e+05
4.1401e+05
4.1408e+05
4.1701e+05
4.1703e+05
4.1761e+05
4.1796e+05
4.183e+05
4.1874e+05
4.1962e+05
4.1992e+05
4.2143e+05
4.2606e+05
4.2614e+05
4.3661e+05
4.3784e+05
4.3839e+05
4.384e+05
4.464e+05
4.4728e+05
4.5205e+05
4.5219e+05
4.5292e+05
4.5483e+05
4.5522e+05
4.555e+05
4.5582e+05
4.5624e+05
4.5653e+05
4.5686e+05
4.5726e+05
4.5787e+05
4.5792e+05
4.5821e+05
4.5827e+05
4.5857e+05
4.5892e+05
4.5939e+05
4.6098e+05
4.6217e+05
4.6305e+05
4.634e+05
4.6386e+05
4.6467e+05
4.6473e+05
4.6504e+05
4.651e+05
4.6542e+05
4.6591e+05
4.6726e+05
4.6777e+05
4.6823e+05
4.6888e+05
4.7042e+05
4.707e+05
4.7076e+05
4.7111e+05
4.7138e+05
4.7145e+05
4.7178e+05
4.721e+05
4.7241e+05
4.7272e+05
4.7337e+05
4.7633e+05
4.7723e+05
4.7919e+05
4.7924e+05
4.7956e+05
4.8088e+05
4.8095e+05
4.8163e+05
4.8211e+05
4.8312e+05
4.8314e+05
4.8411e+05
4.8511e+05
4.8797e+05
4.8845e+05
4.8933e+05
4.8961e+05
4.897e+05
4.8996e+05
4.9005e+05
4.9039e+05
4.908e+05
4.9222e+05
4.9321e+05
4.9398e+05
4.9402e+05
4.9444e+05
4.9448e+05
4.9512e+05
4.968e+05
4.9748e+05
4.975e+05
4.9807e+05
4.9859e+05
4.9883e+05
4.9891e+05
4.991e+05
4.9912e+05
4.9957e+05
5.0004e+05
5.0117e+05
5.0145e+05
5.0152e+05
5.0201e+05
5.0473e+05
5.0995e+05
5.3671e+05
5.3709e+05
5.3733e+05
5.374e+05
5.377e+05
5.3778e+05
5.3815e+05
5.3843e+05
5.385e+05
5.3888e+05
5.3924e+05
5.395e+05
5.3957e+05
5.3992e+05
5.4027e+05
5.4063e+05
5.41e+05
5.4127e+05
5.4135e+05
5.4168e+05
5.4204e+05
5.4241e+05
5.4276e+05
5.4311e+05
5.435e+05
5.4377e+05
5.4382e+05
5.4422e+05
5.4458e+05
5.4489e+05
5.4497e+05
5.4535e+05
5.4568e+05
5.4604e+05
5.4641e+05
5.4681e+05
5.4722e+05
5.4754e+05
5.4787e+05
5.4824e+05
5.4858e+05
5.4939e+05
5.4988e+05
5.5052e+05
5.5087e+05
5.5167e+05
5.5201e+05
5.5255e+05
5.5451e+05
5.5526e+05
5.5633e+05
5.5669e+05
5.5713e+05
5.5794e+05
5.5803e+05
5.5842e+05
5.5879e+05
5.5933e+05
5.6038e+05
5.607e+05
5.6075e+05
5.6104e+05
5.6112e+05
5.6155e+05
5.6229e+05
5.6269e+05
5.6308e+05
5.6344e+05
5.6422e+05
5.6527e+05
5.6535e+05
5.6579e+05
5.6659e+05
5.6795e+05
5.6911e+05
5.6944e+05
5.6983e+05
5.7022e+05
5.7057e+05
5.711e+05
5.7163e+05
5.7236e+05
5.7248e+05
5.7271e+05
5.7432e+05
5.7545e+05
5.7716e+05
5.7745e+05
5.7752e+05
5.786e+05
5.7897e+05
5.7931e+05
5.7971e+05
5.8006e+05
5.8033e+05
5.8041e+05
5.8079e+05
5.8087e+05
5.8142e+05
5.8151e+05
5.8189e+05
5.8291e+05
5.8433e+05
5.8536e+05
5.8597e+05
5.8635e+05
5.8666e+05
5.8755e+05
5.8968e+05
5.9075e+05
5.9249e+05
5.9616e+05
5.9627e+05
5.9735e+05
5.9777e+05
5.9816e+05
5.9823e+05
5.9906e+05
5.9912e+05
5.9957e+05
6.0148e+05
6.0531e+05
6.0616e+05
6.0667e+05
6.0718e+05
6.0729e+05
6.0932e+05
6.1064e+05
6.1205e+05
6.1252e+05
6.1311e+05
6.1404e+05
6.1408e+05
6.1542e+05
6.1588e+05
6.1762e+05
6.1809e+05
6.1853e+05
6.1864e+05
6.1906e+05
6.1938e+05
6.2075e+05
6.2196e+05
6.2502e+05
6.254e+05
6.2725e+05
6.2727e+05
6.286e+05
6.2889e+05
6.2949e+05
6.296e+05
6.3039e+05
6.3047e+05
6.3069e+05
6.3077e+05
6.3142e+05
6.3259e+05
6.3288e+05
6.3295e+05
6.3357e+05
6.3362e+05
6.3632e+05
6.3656e+05
6.3677e+05
6.3684e+05
6.3708e+05
6.375e+05
6.378e+05
6.3814e+05
6.385e+05
6.3855e+05
6.3936e+05
6.3992e+05
6.4001e+05
6.4057e+05
6.427e+05
6.4317e+05
6.4466e+05
6.4635e+05
6.4645e+05
6.4667e+05
6.4763e+05
6.4795e+05
6.4804e+05
6.4846e+05
6.4878e+05
6.4885e+05
6.494e+05
6.4944e+05
