289
512
743
989
1238
1468
1714
2169
2383
2609
2829
3066
3532
3756
3989
4428
4643
4855
5079
5306
5539
5772
5997
6164
6394
6652
6869
7061
7304
7529
7768
8013
8238
8461
8682
8917
9142
9369
9602
9846
10087
10332
10565
10794
11019
11256
11460
11728
11972
12221
12461
12708
12908
13174
13409
13652
13866
14160
14402
14626
14901
15149
15378
15612
15856
16122
16376
16623
16873
17117
17364
17609
17847
18091
18355
18585
18870
19118
19358
19602
19851
20094
20336
20600
20867
21123
21369
21612
21849
22095
22348
22608
22863
23126
23379
23620
23863
24097
24346
24604
24865
25122
25349
25637
25881
26121
26334
26616
26848
27139
27394
27879
28150
28370
28643
28900
29170
29428
29653
29940
30167
30445
30692
30944
31164
31465
31729
31985
32242
32495
32741
32981
33501
33761
34002
34248
34521
34775
35025
35271
35496
35789
36057
36320
36544
36787
37072
37322
37550
37840
38077
38372
38632
38876
39120
39374
39601
39892
40151
40414
40668
40923
41142
41384
41659
41928
42188
42440
42700
42954
43203
43425
43703
43949
44216
44482
44743
44997
45219
45491
45704
45988
46229
46492
46758
46983
47259
47499
47735
47984
48231
48489
48746
49007
49266
49512
49720
49962
50240
50500
50750
51000
51267
51523
51766
52002
52246
52491
52746
53004
53262
53513
53775
53989
54249
54491
54730
54986
55251
55503
55745
55997
56243
56449
56686
56967
57223
57489
57743
57993
58239
58491
58707
58949
59235
59497
59765
60022
60242
60521
60749
60995
61272
61534
61794
62062
62320
62536
62806
63061
63309
63555
63812
64069
64326
64580
64818
65051
65294
65551
65804
66055
66313
66567
66818
67032
67270
67547
67812
68073
68329
68584
68833
69084
69331
69544
69822
70082
70342
70600
70855
71076
71347
71600
71816
72062
72359
72594
72878
73130
73345
73617
73871
74118
74374
74632
74909
75166
75408
75622
75894
76147
76403
76639
76926
77199
77450
77703
77911
78165
78445
78707
78966
79224
79495
79720
79999
80231
80487
80732
81005
81261
81523
81772
82035
82274
82517
82737
82992
83291
83561
83783
84062
84326
84567
84751
85053
85305
85548
85837
86095
86322
86566
86779
87054
87287
87532
87779
88023
88264
88498
88723
88961
89193
89441
89686
89926
90171
90426
90656
90854
91128
91367
91618
91863
92111
92365
92616
92868
93077
93347
93612
93867
94130
94397
94625
94910
95138
95416
95636
95935
96211
96483
96740
96974
97232
97492
97773
98029
98305
98579
98838
1.2049e+05
1.9879e+05
1.9898e+05
1.9955e+05
1.9982e+05
2.0009e+05
2.0062e+05
2.0088e+05
2.0138e+05
2.0165e+05
2.0188e+05
2.0218e+05
2.0244e+05
2.0271e+05
2.0291e+05
2.0317e+05
2.0348e+05
2.0374e+05
2.0428e+05
2.0455e+05
2.0482e+05
2.0507e+05
2.0533e+05
2.0554e+05
2.0585e+05
2.0611e+05
2.0667e+05
2.0693e+05
2.0719e+05
2.0745e+05
2.0787e+05
2.0823e+05
2.0849e+05
2.0877e+05
2.0904e+05
2.0924e+05
2.0974e+05
2.0999e+05
2.1031e+05
2.1049e+05
2.1083e+05
2.111e+05
2.1136e+05
2.1161e+05
2.1181e+05
2.1206e+05
2.1236e+05
2.1264e+05
2.1315e+05
2.1342e+05
2.1368e+05
2.1375e+05
2.1476e+05
2.1504e+05
2.1633e+05
2.1684e+05
2.1765e+05
2.192e+05
2.1966e+05
2.2182e+05
2.3426e+05
2.3477e+05
2.3581e+05
2.3607e+05
2.3815e+05
2.3842e+05
2.3868e+05
2.3895e+05
2.3922e+05
2.3949e+05
2.3971e+05
2.3998e+05
2.4024e+05
2.405e+05
2.4077e+05
2.4104e+05
2.413e+05
2.4158e+05
2.4183e+05
2.4205e+05
2.4233e+05
2.4258e+05
2.4286e+05
2.4313e+05
2.4339e+05
2.4366e+05
2.4392e+05
2.4418e+05
2.4442e+05
2.4468e+05
2.4494e+05
2.4522e+05
2.4573e+05
2.4601e+05
2.4628e+05
2.4654e+05
2.4679e+05
2.4705e+05
2.4733e+05
2.4787e+05
2.4812e+05
2.4837e+05
2.4864e+05
2.489e+05
2.4914e+05
2.494e+05
2.4968e+05
2.4995e+05
2.5044e+05
2.5072e+05
2.5095e+05
2.5124e+05
2.5151e+05
2.5177e+05
2.5205e+05
2.5257e+05
2.5279e+05
2.5307e+05
2.5385e+05
2.5413e+05
2.5439e+05
2.5466e+05
2.5515e+05
2.5541e+05
2.5567e+05
2.5591e+05
2.5647e+05
2.5673e+05
2.5699e+05
2.5721e+05
2.5775e+05
2.5801e+05
2.5829e+05
2.5856e+05
2.5907e+05
2.593e+05
2.5958e+05
2.5983e+05
2.6009e+05
2.6061e+05
2.609e+05
2.6116e+05
2.6141e+05
2.6168e+05
2.6192e+05
2.6217e+05
2.6242e+05
2.6272e+05
2.6295e+05
2.6323e+05
2.6346e+05
2.6373e+05
2.6399e+05
2.6422e+05
2.6451e+05
2.648e+05
2.6506e+05
2.6529e+05
2.6554e+05
2.6583e+05
2.6607e+05
2.6634e+05
2.6659e+05
2.6686e+05
2.6714e+05
2.674e+05
2.6763e+05
2.6788e+05
2.6816e+05
2.6839e+05
2.6868e+05
2.6895e+05
2.6921e+05
2.6974e+05
2.6999e+05
2.7021e+05
2.7049e+05
2.7129e+05
2.7154e+05
2.7181e+05
2.7255e+05
2.7281e+05
2.7306e+05
2.7385e+05
2.7411e+05
2.7437e+05
2.7462e+05
2.7512e+05
2.7537e+05
2.7564e+05
2.7617e+05
2.7641e+05
2.7667e+05
2.7769e+05
2.7797e+05
2.7845e+05
2.787e+05
2.7899e+05
2.7925e+05
2.8004e+05
2.8032e+05
2.8055e+05
2.808e+05
2.8108e+05
2.8134e+05
2.816e+05
2.8187e+05
2.8213e+05
2.8239e+05
2.8268e+05
2.8292e+05
2.8314e+05
2.8342e+05
2.837e+05
2.8396e+05
2.8423e+05
2.845e+05
2.8475e+05
2.8502e+05
2.8526e+05
2.8552e+05
2.8604e+05
2.8631e+05
2.8657e+05
2.8683e+05
2.8709e+05
2.8735e+05
2.876e+05
2.8786e+05
2.8865e+05
2.8892e+05
2.8918e+05
2.8943e+05
2.9151e+05
2.9176e+05
2.9253e+05
2.9281e+05
2.9308e+05
2.9386e+05
2.941e+05
2.9436e+05
2.9543e+05
2.9568e+05
2.9644e+05
2.967e+05
2.9697e+05
2.9751e+05
2.9802e+05
2.9824e+05
2.9852e+05
2.9878e+05
2.9905e+05
2.9931e+05
2.9955e+05
2.9986e+05
3.0011e+05
3.0036e+05
3.006e+05
3.0086e+05
3.0112e+05
3.014e+05
3.0163e+05
3.0192e+05
3.0217e+05
3.0243e+05
3.0266e+05
3.029e+05
3.0316e+05
3.0346e+05
3.0373e+05
3.04e+05
3.0426e+05
3.0477e+05
3.0502e+05
3.0525e+05
3.0555e+05
3.0579e+05
3.0609e+05
3.0635e+05
3.0658e+05
3.0686e+05
3.0712e+05
3.0735e+05
3.0764e+05
3.0791e+05
3.0815e+05
3.0845e+05
3.0872e+05
3.0896e+05
3.0921e+05
3.0948e+05
3.0975e+05
3.1e+05
3.1024e+05
3.1054e+05
3.1081e+05
3.1105e+05
3.113e+05
3.1156e+05
3.1183e+05
3.1206e+05
3.1235e+05
3.1262e+05
3.1284e+05
3.1313e+05
3.1339e+05
3.136e+05
3.1388e+05
3.1416e+05
3.144e+05
3.1468e+05
3.1492e+05
3.1521e+05
3.1543e+05
3.1568e+05
3.1596e+05
3.1623e+05
3.1647e+05
3.1677e+05
3.17e+05
3.1726e+05
3.1755e+05
3.1782e+05
3.1803e+05
3.1831e+05
3.186e+05
3.1883e+05
3.191e+05
3.1939e+05
3.1961e+05
3.1986e+05
3.2016e+05
3.2038e+05
3.2064e+05
3.2095e+05
3.2121e+05
3.2148e+05
3.2172e+05
3.2197e+05
3.2219e+05
3.2246e+05
3.2276e+05
3.2298e+05
3.2329e+05
3.2352e+05
3.238e+05
3.2426e+05
3.2452e+05
3.2481e+05
3.2503e+05
3.2533e+05
3.2557e+05
3.2587e+05
3.2608e+05
3.2636e+05
3.2658e+05
3.2687e+05
3.2713e+05
3.2736e+05
3.2766e+05
3.2792e+05
3.2819e+05
3.284e+05
3.2864e+05
3.2892e+05
3.2915e+05
3.2946e+05
3.2971e+05
3.2996e+05
3.3046e+05
3.3073e+05
3.3098e+05
3.3123e+05
3.315e+05
3.3176e+05
3.3199e+05
3.3227e+05
3.3252e+05
3.3278e+05
3.33e+05
3.3327e+05
3.3352e+05
3.3375e+05
3.3405e+05
3.3432e+05
3.3457e+05
3.3482e+05
3.3507e+05
3.3532e+05
3.358e+05
3.3609e+05
3.3636e+05
3.3659e+05
3.3684e+05
3.3708e+05
3.3737e+05
3.3762e+05
3.3788e+05
3.3811e+05
3.3841e+05
3.3867e+05
3.3893e+05
3.3918e+05
3.3942e+05
3.3968e+05
3.3994e+05
3.402e+05
3.4044e+05
3.4074e+05
3.4097e+05
3.4126e+05
3.4151e+05
3.4199e+05
3.4229e+05
3.4255e+05
3.4279e+05
3.4331e+05
3.4357e+05
3.4382e+05
3.4464e+05
3.4491e+05
3.4516e+05
3.4568e+05
3.4594e+05
3.4619e+05
3.4645e+05
3.4699e+05
3.4723e+05
3.4753e+05
3.4776e+05
3.4824e+05
3.485e+05
3.488e+05
3.4907e+05
3.4956e+05
3.4982e+05
3.5084e+05
3.5113e+05
3.5142e+05
3.5218e+05
3.524e+05
3.5269e+05
3.5349e+05
3.5373e+05
3.5402e+05
3.5427e+05
3.5452e+05
3.5474e+05
3.5504e+05
3.561e+05
3.5635e+05
3.571e+05
3.5734e+05
3.5764e+05
3.5841e+05
3.587e+05
3.5894e+05
3.5972e+05
3.6002e+05
3.6028e+05
3.6081e+05
3.6106e+05
3.6131e+05
3.6157e+05
3.6184e+05
3.6212e+05
3.6239e+05
3.6264e+05
3.6291e+05
3.6316e+05
3.6341e+05
3.6367e+05
3.6394e+05
3.6418e+05
3.6448e+05
3.6474e+05
3.6496e+05
3.6524e+05
3.6547e+05
3.6627e+05
3.6654e+05
3.6681e+05
3.6731e+05
3.6779e+05
3.6807e+05
3.6857e+05
3.6886e+05
3.6913e+05
3.6938e+05
3.6963e+05
3.6985e+05
3.7015e+05
3.7041e+05
3.7117e+05
3.7146e+05
3.7168e+05
3.7248e+05
3.7275e+05
3.7301e+05
3.7325e+05
3.7379e+05
3.7426e+05
3.7454e+05
3.7482e+05
3.7509e+05
3.7531e+05
3.7561e+05
3.7585e+05
3.7611e+05
3.7633e+05
3.7661e+05
3.7687e+05
3.7715e+05
3.7742e+05
3.7767e+05
3.7789e+05
3.7818e+05
3.7842e+05
3.7945e+05
3.7974e+05
3.8022e+05
3.8049e+05
3.8072e+05
3.8098e+05
3.8152e+05
3.8182e+05
3.8206e+05
3.8233e+05
3.8259e+05
3.8281e+05
3.8307e+05
3.8334e+05
3.836e+05
3.8387e+05
3.8418e+05
3.8439e+05
3.8463e+05
3.8489e+05
3.8517e+05
3.8567e+05
3.8596e+05
3.8623e+05
3.8646e+05
3.8671e+05
3.8695e+05
3.8724e+05
3.8746e+05
3.8776e+05
3.8829e+05
3.8851e+05
3.8878e+05
3.8902e+05
3.8927e+05
3.8956e+05
3.8983e+05
3.901e+05
3.9059e+05
3.9088e+05
3.911e+05
3.9164e+05
3.9216e+05
3.9243e+05
3.9267e+05
3.9295e+05
3.9317e+05
3.9346e+05
3.9368e+05
3.9423e+05
3.9477e+05
3.9502e+05
3.9524e+05
3.9575e+05
3.96e+05
3.9626e+05
3.9653e+05
3.9756e+05
3.9839e+05
3.9955e+05
4.0136e+05
4.0163e+05
4.0209e+05
4.0268e+05
4.037e+05
4.0602e+05
4.1569e+05
4.1774e+05
4.18e+05
4.2471e+05
4.3529e+05
4.3709e+05
4.3735e+05
4.3761e+05
4.3789e+05
4.3815e+05
4.384e+05
4.3865e+05
4.389e+05
4.3916e+05
4.3942e+05
4.3969e+05
4.3995e+05
4.4023e+05
4.4048e+05
4.4073e+05
4.4098e+05
4.4123e+05
4.415e+05
4.4177e+05
4.4203e+05
4.4229e+05
4.4256e+05
4.4282e+05
4.4305e+05
4.4331e+05
4.4355e+05
4.4383e+05
4.4409e+05
4.4461e+05
4.4488e+05
4.4513e+05
4.4538e+05
4.4563e+05
4.4589e+05
4.4615e+05
4.4643e+05
4.4669e+05
4.4695e+05
4.472e+05
4.4745e+05
4.477e+05
4.4796e+05
4.4823e+05
4.485e+05
4.4876e+05
4.4902e+05
4.4927e+05
4.4953e+05
4.4978e+05
4.5004e+05
4.503e+05
4.5057e+05
4.511e+05
4.5134e+05
4.5159e+05
4.5185e+05
4.5211e+05
4.5236e+05
4.5263e+05
4.529e+05
4.5317e+05
4.5343e+05
4.5367e+05
4.5393e+05
4.6631e+05
4.6731e+05
4.6756e+05
4.681e+05
4.6835e+05
4.686e+05
4.6885e+05
4.691e+05
4.6935e+05
4.6961e+05
4.6988e+05
4.7041e+05
4.7067e+05
4.7091e+05
4.7117e+05
4.7221e+05
4.7349e+05
4.7481e+05
4.7557e+05
4.7688e+05
4.7713e+05
4.7944e+05
4.797e+05
4.8099e+05
4.8176e+05
4.8202e+05
4.8227e+05
4.8331e+05
4.8358e+05
4.8383e+05
4.8432e+05
4.8458e+05
4.8484e+05
4.8536e+05
4.8562e+05
4.8588e+05
4.8613e+05
4.8637e+05
4.8663e+05
4.8688e+05
4.8714e+05
4.8741e+05
4.8792e+05
4.8818e+05
4.8842e+05
4.8867e+05
4.8893e+05
4.892e+05
4.8946e+05
4.8972e+05
4.8998e+05
4.9049e+05
4.9073e+05
4.9098e+05
4.9151e+05
4.9178e+05
4.9203e+05
4.9229e+05
4.928e+05
4.9304e+05
4.9329e+05
4.9434e+05
4.9459e+05
5.0119e+05
5.0408e+05
5.0641e+05
5.1081e+05
5.1107e+05
5.2367e+05
5.2422e+05
5.2447e+05
5.2472e+05
5.2496e+05
5.2521e+05
5.2597e+05
5.2624e+05
5.2649e+05
5.2675e+05
5.2699e+05
5.2773e+05
5.2823e+05
5.3348e+05
5.3635e+05
5.3661e+05
5.3686e+05
5.3712e+05
5.3737e+05
5.3762e+05
5.3786e+05
5.3811e+05
5.3835e+05
5.3859e+05
5.3884e+05
5.391e+05
5.3936e+05
5.3962e+05
5.3986e+05
5.401e+05
5.4036e+05
5.4062e+05
5.4087e+05
5.4114e+05
5.4141e+05
5.4195e+05
5.422e+05
5.4245e+05
5.4272e+05
5.4298e+05
5.4325e+05
5.4352e+05
5.4379e+05
5.4406e+05
5.4432e+05
5.4458e+05
5.4484e+05
5.4539e+05
5.4618e+05
5.4645e+05
5.4669e+05
5.4746e+05
5.4773e+05
5.4799e+05
5.4851e+05
5.4877e+05
5.4902e+05
5.4927e+05
5.4982e+05
5.5009e+05
5.5035e+05
5.5061e+05
5.5113e+05
5.5139e+05
5.5193e+05
5.522e+05
5.5247e+05
5.5273e+05
5.5299e+05
5.5324e+05
5.5351e+05
5.5377e+05
5.5404e+05
5.5432e+05
5.546e+05
5.5486e+05
5.5512e+05
5.5538e+05
5.5564e+05
5.5591e+05
5.5618e+05
5.5646e+05
5.5674e+05
5.5701e+05
5.5726e+05
5.5752e+05
5.5779e+05
5.5806e+05
5.5832e+05
5.5859e+05
5.5887e+05
5.5914e+05
5.594e+05
5.5964e+05
5.599e+05
5.6017e+05
5.6044e+05
5.6071e+05
5.6097e+05
5.6125e+05
5.615e+05
5.6175e+05
5.6252e+05
5.6359e+05
5.6384e+05
5.6485e+05
5.6513e+05
5.6875e+05
5.6894e+05
5.6943e+05
5.7158e+05
5.7206e+05
5.7252e+05
5.7324e+05
5.7529e+05
5.7555e+05
5.7581e+05
5.7608e+05
5.7711e+05
5.7736e+05
5.7764e+05
5.779e+05
5.7817e+05
5.7844e+05
5.7895e+05
5.7973e+05
5.8027e+05
5.8054e+05
5.8105e+05
5.8234e+05
5.8388e+05
5.8413e+05
5.8625e+05
5.8835e+05
5.9232e+05
5.9314e+05
5.937e+05
5.9474e+05
5.9531e+05
6.0794e+05
6.107e+05
6.2512e+05
6.254e+05
6.2754e+05
6.4167e+05
6.4312e+05
6.4409e+05
6.4458e+05
6.4539e+05
6.456e+05
6.4796e+05
-1
459
627
694
940
1101
1410
1650
1891
2062
2266
2551
2782
2942
3183
3407
3646
3902
4101
4320
4534
4749
4965
5192
5422
5651
5882
6104
6324
6543
6753
6972
7192
7420
7649
7886
8127
8354
8571
8799
9030
9256
9485
9725
9965
10211
10455
10682
10902
11136
11373
11615
11849
12098
12341
12637
12880
13061
13112
13339
13529
13585
13783
13835
14036
14280
14531
14586
14779
14833
15020
15073
15260
15311
15499
15548
15734
15785
15985
16043
16247
16304
16500
16553
16750
16804
16999
17048
17294
17488
17541
17725
17779
17966
18020
18225
18283
18490
18543
18748
18801
18995
19048
19241
19295
19480
19534
19778
19968
20019
20212
20266
20468
20527
20741
20796
20998
21052
21294
21485
21540
21727
21779
21973
22026
22223
22276
22473
22528
22725
22782
22992
23050
23254
23307
23500
23550
23738
23786
23979
24030
24225
24277
24478
24534
24730
24787
24987
25040
25248
25306
25516
25567
25765
25815
26002
26052
26243
26295
26490
26546
26749
26803
27005
27061
27263
27317
27522
27578
27768
28030
28089
28320
28519
28574
28762
28821
29028
29088
29295
29350
29556
29610
29813
29866
30069
30124
30318
30371
30560
30612
30806
30863
31063
31115
31329
31384
31600
31653
31859
31912
32105
32159
32362
32418
32613
32667
32859
32911
33108
33161
33355
33629
33691
33896
33951
34153
34209
34398
34450
34647
34700
34900
34951
35150
35199
35397
35450
35661
35716
35923
35981
36190
36247
36443
36498
36688
36739
36939
36993
37196
37250
37452
37507
37709
37765
37972
38029
38234
38291
38499
38555
38754
38804
39000
39051
39242
39296
39501
39557
39759
39815
40015
40071
40279
40335
40536
40592
40794
40848
41051
41103
41293
41346
41534
41588
41791
41849
42056
42111
42318
42371
42573
42625
42831
42881
43079
43133
43330
43384
43577
43629
43822
43874
44077
44137
44355
44411
44617
44672
44869
44924
45121
45177
45366
45422
45614
45669
45882
46113
46360
46417
46629
46688
46887
46945
47190
47377
47430
47619
47670
47862
47916
48113
48166
48360
48415
48612
48667
48873
48935
49142
49197
49393
49448
49633
49684
49873
49927
50115
50173
50367
50425
50621
50678
50876
51130
51191
51455
51645
51701
51883
51936
52121
52177
52364
52418
52615
52671
52880
52935
53137
53190
53386
53444
53648
53705
53947
54131
54182
54423
54613
54863
55122
55179
55373
55431
55625
55680
55871
55926
56123
56176
56363
56415
56596
56650
56838
56897
57088
57148
57353
57411
57614
57670
57870
57922
58112
58167
58366
58421
58611
58665
58853
58908
59104
59159
59361
59417
59630
59687
59894
59949
60149
60202
60393
60446
60646
60703
60896
60951
61143
61196
61399
61456
61661
61717
61928
61986
62196
62250
62443
62497
62682
62737
62934
62989
63185
63237
63436
63489
63687
63741
63949
64001
64199
64257
64458
64700
64753
64936
65173
65229
65425
65480
65678
65735
65926
65984
66181
66241
66437
66494
66692
66748
66941
66992
67180
67232
67420
67475
67676
67736
67938
67998
68251
68453
68509
68710
68764
68962
69014
69212
69265
69451
69504
69691
69745
69950
70007
70215
70268
70477
70530
70731
70785
70986
71037
71225
71282
71474
71526
71718
71772
71968
72021
72218
72275
72491
72549
72750
72808
73000
73057
73248
73304
73492
73545
73741
73794
73997
74050
74248
74303
74499
74557
74769
74828
75037
75090
75289
75339
75531
75581
75776
75829
76020
76075
76274
76332
76533
76590
76790
76845
77054
77114
77327
77380
77576
77631
77818
77872
78067
78124
78370
78574
78631
78836
78893
79100
79154
79354
79412
79621
79677
79866
79921
80110
80164
80352
80406
80601
80658
80864
80924
81134
81191
81392
81448
81644
81702
81902
81959
82152
82205
82398
82449
82638
82691
82895
82948
83213
83424
83485
83684
83740
83928
83986
84185
84244
84493
84684
84913
85181
85437
85497
85707
85769
86016
86207
86444
86501
86697
86933
87164
87234
87469
87720
87905
87968
88149
88387
88611
88841
88902
89082
89142
89320
89381
89622
89871
90045
90109
90293
90364
90542
90599
90768
90823
90994
91051
91242
91299
91487
91543
91737
91790
91985
92039
92289
92493
92547
92741
92797
92984
93036
93270
93472
93528
93737
93792
94000
94053
94258
94314
94527
94580
94781
94835
95034
95091
95286
95342
95538
95592
95798
95853
96070
96128
96346
96400
96609
96664
96927
97131
97184
97443
97641
97696
97896
97949
98163
98221
98442
98499
98715
98769
98970
99020
99474
99530
99732
99789
99985
1.0004e+05
1.0024e+05
1.003e+05
1.0052e+05
1.0057e+05
1.0079e+05
1.0085e+05
1.0105e+05
1.011e+05
1.013e+05
1.0135e+05
1.0155e+05
1.016e+05
1.018e+05
1.0185e+05
1.0205e+05
1.021e+05
1.0236e+05
1.0261e+05
1.0282e+05
1.0288e+05
1.031e+05
1.0315e+05
1.0335e+05
1.0341e+05
1.036e+05
1.0365e+05
1.039e+05
1.0415e+05
1.0435e+05
1.0441e+05
1.046e+05
1.0465e+05
1.0488e+05
1.0494e+05
1.052e+05
1.0542e+05
1.0548e+05
1.0567e+05
1.0573e+05
1.0592e+05
1.0597e+05
1.0616e+05
1.0621e+05
1.0641e+05
1.0646e+05
1.0667e+05
1.0673e+05
1.0695e+05
1.07e+05
1.0721e+05
1.0726e+05
1.0746e+05
1.0752e+05
1.0772e+05
1.0778e+05
1.0799e+05
1.0804e+05
1.0823e+05
1.0828e+05
1.0848e+05
1.0853e+05
1.0874e+05
1.0879e+05
1.09e+05
1.0906e+05
1.0928e+05
1.0933e+05
1.0954e+05
1.096e+05
1.098e+05
1.0985e+05
1.1006e+05
1.1011e+05
1.1031e+05
1.1036e+05
1.1056e+05
1.1062e+05
1.1081e+05
1.1086e+05
1.1107e+05
1.1113e+05
1.1134e+05
1.114e+05
1.1161e+05
1.1167e+05
1.1187e+05
1.1193e+05
1.1212e+05
1.1217e+05
1.1238e+05
1.1243e+05
1.1264e+05
1.1269e+05
1.1289e+05
1.1294e+05
1.1315e+05
1.132e+05
1.1341e+05
1.1347e+05
1.1368e+05
1.1374e+05
1.1395e+05
1.1401e+05
1.1421e+05
1.1427e+05
1.1446e+05
1.1451e+05
1.1471e+05
1.1477e+05
1.1497e+05
1.1503e+05
1.1523e+05
1.1529e+05
1.1549e+05
1.1554e+05
1.1576e+05
1.1581e+05
1.1602e+05
1.1608e+05
1.1629e+05
1.1634e+05
1.1655e+05
1.166e+05
1.1679e+05
1.1684e+05
1.1704e+05
1.171e+05
1.1731e+05
1.1737e+05
1.1763e+05
1.1783e+05
1.1789e+05
1.181e+05
1.1816e+05
1.1841e+05
1.1867e+05
1.1891e+05
1.191e+05
1.1914e+05
1.194e+05
1.196e+05
1.1966e+05
1.1992e+05
1.2017e+05
1.2036e+05
1.2043e+05
1.2066e+05
1.2085e+05
1.2107e+05
1.2131e+05
1.2153e+05
1.2184e+05
1.2203e+05
1.2233e+05
1.2256e+05
1.2273e+05
1.2301e+05
1.2318e+05
1.2342e+05
1.237e+05
1.2386e+05
1.2393e+05
1.241e+05
1.2418e+05
1.2436e+05
1.246e+05
1.2483e+05
1.2488e+05
1.2506e+05
1.2528e+05
1.2558e+05
1.2581e+05
1.2605e+05
1.2628e+05
1.2647e+05
1.2654e+05
1.2678e+05
1.2695e+05
1.2725e+05
1.2741e+05
1.2764e+05
1.2795e+05
1.2818e+05
1.2836e+05
1.286e+05
1.2886e+05
1.2911e+05
1.2936e+05
1.2959e+05
1.2982e+05
1.3006e+05
1.3031e+05
1.3037e+05
1.3056e+05
1.3061e+05
1.3081e+05
1.3086e+05
1.3106e+05
1.3112e+05
1.3133e+05
1.3138e+05
1.3157e+05
1.3163e+05
1.3181e+05
1.3186e+05
1.3205e+05
1.321e+05
1.3229e+05
1.3234e+05
1.3254e+05
1.326e+05
1.3281e+05
1.3286e+05
1.3306e+05
1.3312e+05
1.3332e+05
1.3338e+05
1.3358e+05
1.3364e+05
1.3389e+05
1.3408e+05
1.3413e+05
1.3432e+05
1.3438e+05
1.3462e+05
1.3483e+05
1.3489e+05
1.351e+05
1.3516e+05
1.3537e+05
1.3542e+05
1.3568e+05
1.3588e+05
1.3594e+05
1.3614e+05
1.3619e+05
1.3643e+05
1.3663e+05
1.3668e+05
1.3688e+05
1.3694e+05
1.3714e+05
1.372e+05
1.3742e+05
1.3748e+05
1.3768e+05
1.3774e+05
1.3793e+05
1.3798e+05
1.3818e+05
1.3824e+05
1.3844e+05
1.3849e+05
1.3874e+05
1.3893e+05
1.3898e+05
1.3919e+05
1.3924e+05
1.3945e+05
1.3951e+05
1.3971e+05
1.3977e+05
1.3998e+05
1.4003e+05
1.4023e+05
1.4028e+05
1.4047e+05
1.4073e+05
1.4078e+05
1.4103e+05
1.4123e+05
1.4128e+05
1.4148e+05
1.4154e+05
1.418e+05
1.4201e+05
1.4207e+05
1.4232e+05
1.4257e+05
1.4281e+05
1.4306e+05
1.4325e+05
1.4351e+05
1.4356e+05
1.4382e+05
1.4403e+05
1.4428e+05
1.4434e+05
1.4454e+05
1.4459e+05
1.4478e+05
1.4483e+05
1.4507e+05
1.4526e+05
1.4532e+05
1.4552e+05
1.4558e+05
1.4578e+05
1.4584e+05
1.4604e+05
1.461e+05
1.463e+05
1.4636e+05
1.4655e+05
1.4661e+05
1.4681e+05
1.4686e+05
1.4706e+05
1.4711e+05
1.4731e+05
1.4736e+05
1.4755e+05
1.4761e+05
1.4788e+05
1.4809e+05
1.4815e+05
1.4835e+05
1.484e+05
1.4861e+05
1.4866e+05
1.4886e+05
1.4891e+05
1.4916e+05
1.4936e+05
1.4941e+05
1.4961e+05
1.4966e+05
1.4991e+05
1.5013e+05
1.5019e+05
1.5039e+05
1.5045e+05
1.5065e+05
1.5071e+05
1.509e+05
1.5096e+05
1.5115e+05
1.512e+05
1.514e+05
1.5146e+05
1.5171e+05
1.519e+05
1.5196e+05
1.5215e+05
1.5221e+05
1.5243e+05
1.5249e+05
1.5269e+05
1.5275e+05
1.5295e+05
1.53e+05
1.5318e+05
1.5344e+05
1.5369e+05
1.5374e+05
1.5394e+05
1.542e+05
1.5443e+05
1.5472e+05
1.5504e+05
1.5524e+05
1.5553e+05
1.5573e+05
1.5597e+05
1.5602e+05
1.5622e+05
1.5647e+05
1.5653e+05
1.5672e+05
1.5698e+05
1.5705e+05
1.5724e+05
1.5729e+05
1.5749e+05
1.5772e+05
1.5777e+05
1.5802e+05
1.582e+05
1.5826e+05
1.5851e+05
1.5877e+05
1.5897e+05
1.5903e+05
1.5923e+05
1.5929e+05
1.595e+05
1.5955e+05
1.598e+05
1.5998e+05
1.6004e+05
1.6023e+05
1.6028e+05
1.6047e+05
1.6053e+05
1.6074e+05
1.608e+05
1.6106e+05
1.6127e+05
1.6132e+05
1.6152e+05
1.6158e+05
1.6178e+05
1.6184e+05
1.6204e+05
1.6209e+05
1.6233e+05
1.6252e+05
1.6258e+05
1.6283e+05
1.6304e+05
1.631e+05
1.6337e+05
1.6357e+05
1.6363e+05
1.6382e+05
1.6388e+05
1.6407e+05
1.6413e+05
1.6433e+05
1.6438e+05
1.6458e+05
1.6463e+05
1.6488e+05
1.6509e+05
1.6514e+05
1.6536e+05
1.6541e+05
1.6562e+05
1.6568e+05
1.6589e+05
1.6594e+05
1.6613e+05
1.6619e+05
1.6639e+05
1.6644e+05
1.6664e+05
1.6669e+05
1.6689e+05
1.6694e+05
1.6714e+05
1.6719e+05
1.6746e+05
1.6773e+05
1.6794e+05
1.68e+05
1.6819e+05
1.6825e+05
1.6844e+05
1.685e+05
1.687e+05
1.6875e+05
1.6896e+05
1.6901e+05
1.6927e+05
1.6953e+05
1.6975e+05
1.698e+05
1.7001e+05
1.7007e+05
1.7028e+05
1.7033e+05
1.7053e+05
1.7058e+05
1.7078e+05
1.7083e+05
1.7108e+05
1.7129e+05
1.7135e+05
1.7155e+05
1.7161e+05
1.7182e+05
1.7187e+05
1.7208e+05
1.7214e+05
1.7234e+05
1.724e+05
1.7261e+05
1.7266e+05
1.7285e+05
1.7291e+05
1.731e+05
1.7315e+05
1.734e+05
1.7361e+05
1.7367e+05
1.7387e+05
1.7393e+05
1.7413e+05
1.7419e+05
1.7439e+05
1.7444e+05
1.7464e+05
1.7489e+05
1.7514e+05
1.7538e+05
1.7543e+05
1.7562e+05
1.7568e+05
1.7588e+05
1.7616e+05
1.7641e+05
1.7666e+05
1.7671e+05
1.7691e+05
1.7721e+05
1.774e+05
1.7746e+05
1.7765e+05
1.777e+05
1.779e+05
1.7795e+05
1.7821e+05
1.7843e+05
1.7868e+05
1.7893e+05
1.7898e+05
1.7923e+05
1.7941e+05
1.7965e+05
1.799e+05
1.8016e+05
1.8021e+05
1.804e+05
1.8073e+05
1.8093e+05
1.8099e+05
1.8119e+05
1.8124e+05
1.8143e+05
1.8148e+05
1.8172e+05
1.8192e+05
1.8198e+05
1.8224e+05
1.8249e+05
1.827e+05
1.8276e+05
1.8303e+05
1.833e+05
1.8354e+05
1.8373e+05
1.8405e+05
1.843e+05
1.8453e+05
1.8458e+05
1.8485e+05
1.8506e+05
1.8512e+05
1.8533e+05
1.8539e+05
1.8559e+05
1.8565e+05
1.8584e+05
1.8589e+05
1.8609e+05
1.8615e+05
1.864e+05
1.8661e+05
1.8667e+05
1.8688e+05
1.8694e+05
1.8715e+05
1.8721e+05
1.8741e+05
1.8747e+05
1.8768e+05
1.8774e+05
1.8793e+05
1.8799e+05
1.8817e+05
1.8823e+05
1.8849e+05
1.8869e+05
1.8874e+05
1.8896e+05
1.8902e+05
1.8923e+05
1.8929e+05
1.895e+05
1.8955e+05
1.8975e+05
1.8981e+05
1.9001e+05
1.9007e+05
1.9026e+05
1.905e+05
1.9076e+05
1.9108e+05
1.913e+05
1.9136e+05
1.9157e+05
1.9163e+05
1.9183e+05
1.9188e+05
1.9208e+05
1.9214e+05
1.9234e+05
1.924e+05
1.9259e+05
1.9264e+05
1.9283e+05
1.9289e+05
1.9309e+05
1.9315e+05
1.9335e+05
1.9341e+05
1.9362e+05
1.9368e+05
1.9388e+05
1.9394e+05
1.9419e+05
1.9443e+05
1.9469e+05
1.9488e+05
1.9494e+05
1.9513e+05
1.9518e+05
1.9544e+05
1.9571e+05
1.9598e+05
1.9618e+05
1.9624e+05
1.9643e+05
1.9649e+05
1.9667e+05
1.9673e+05
1.9693e+05
1.9699e+05
1.9718e+05
1.9724e+05
1.9749e+05
1.9769e+05
1.9775e+05
1.9796e+05
1.9801e+05
1.9822e+05
1.9828e+05
1.9856e+05
1.9891e+05
1.9916e+05
1.997e+05
1.9996e+05
2.0023e+05
2.0076e+05
2.0101e+05
2.0152e+05
2.0154e+05
2.0179e+05
2.0206e+05
2.0232e+05
2.0259e+05
2.0285e+05
2.0311e+05
2.0336e+05
2.0361e+05
2.0388e+05
2.0443e+05
2.0469e+05
2.0496e+05
2.0521e+05
2.0547e+05
2.0573e+05
2.0599e+05
2.0626e+05
2.0654e+05
2.0681e+05
2.0707e+05
2.0733e+05
2.0758e+05
2.081e+05
2.0836e+05
2.0864e+05
2.0891e+05
2.0918e+05
2.0942e+05
2.0992e+05
2.1018e+05
2.1044e+05
2.107e+05
2.1097e+05
2.1124e+05
2.1126e+05
2.115e+05
2.1174e+05
2.1199e+05
2.1224e+05
2.125e+05
2.1277e+05
2.1329e+05
2.1356e+05
2.1395e+05
2.1496e+05
2.1517e+05
2.1523e+05
2.1646e+05
2.1651e+05
2.167e+05
2.1705e+05
2.1784e+05
2.1939e+05
2.1985e+05
2.2195e+05
2.2201e+05
2.344e+05
2.3446e+05
2.3492e+05
2.3599e+05
2.362e+05
2.3626e+05
2.3828e+05
2.3834e+05
2.3861e+05
2.3881e+05
2.3887e+05
2.3909e+05
2.3915e+05
2.3936e+05
2.3941e+05
2.3961e+05
2.3967e+05
2.3986e+05
2.3991e+05
2.4011e+05
2.4016e+05
2.4037e+05
2.4042e+05
2.4064e+05
2.407e+05
2.409e+05
2.4096e+05
2.4117e+05
2.4123e+05
2.4144e+05
2.415e+05
2.417e+05
2.4176e+05
2.4196e+05
2.4201e+05
2.4221e+05
2.4226e+05
2.4246e+05
2.4251e+05
2.4272e+05
2.4278e+05
2.4299e+05
2.4305e+05
2.4326e+05
2.4332e+05
2.4352e+05
2.4358e+05
2.4379e+05
2.4385e+05
2.4405e+05
2.4411e+05
2.443e+05
2.4436e+05
2.4455e+05
2.4461e+05
2.4481e+05
2.4487e+05
2.4508e+05
2.4514e+05
2.4536e+05
2.4542e+05
2.4589e+05
2.4595e+05
2.4614e+05
2.462e+05
2.4641e+05
2.4647e+05
2.4667e+05
2.4672e+05
2.4692e+05
2.4697e+05
2.4724e+05
2.4746e+05
2.4752e+05
2.4799e+05
2.4805e+05
2.4825e+05
2.483e+05
2.485e+05
2.4856e+05
2.4876e+05
2.4882e+05
2.4902e+05
2.4907e+05
2.4927e+05
2.4933e+05
2.4954e+05
2.496e+05
2.4987e+05
2.5008e+05
2.5014e+05
2.5059e+05
2.5065e+05
2.5091e+05
2.5111e+05
2.5116e+05
2.5143e+05
2.5169e+05
2.5196e+05
2.5224e+05
2.5269e+05
2.5275e+05
2.5295e+05
2.53e+05
2.532e+05
2.5327e+05
2.5399e+05
2.5405e+05
2.5425e+05
2.5431e+05
2.5452e+05
2.5458e+05
2.5484e+05
2.5528e+05
2.5533e+05
2.5554e+05
2.556e+05
2.5581e+05
2.5587e+05
2.5606e+05
2.5612e+05
2.5659e+05
2.5665e+05
2.5686e+05
2.5691e+05
2.5711e+05
2.5716e+05
2.5736e+05
2.5746e+05
2.5788e+05
2.5794e+05
2.5815e+05
2.5821e+05
2.5842e+05
2.5848e+05
2.5868e+05
2.5874e+05
2.592e+05
2.5926e+05
2.5945e+05
2.5951e+05
2.597e+05
2.5976e+05
2.5996e+05
2.6002e+05
2.6024e+05
2.6029e+05
2.6077e+05
2.6082e+05
2.6103e+05
2.6109e+05
2.6128e+05
2.6134e+05
2.6154e+05
2.616e+05
2.6185e+05
2.6204e+05
2.621e+05
2.623e+05
2.6237e+05
2.6258e+05
2.6264e+05
2.6285e+05
2.6291e+05
2.631e+05
2.6316e+05
2.6336e+05
2.6342e+05
2.6361e+05
2.6366e+05
2.6387e+05
2.6392e+05
2.6412e+05
2.6417e+05
2.6438e+05
2.6443e+05
2.6464e+05
2.647e+05
2.6492e+05
2.6498e+05
2.6519e+05
2.6525e+05
2.6544e+05
2.655e+05
2.657e+05
2.6575e+05
2.6594e+05
2.66e+05
2.6621e+05
2.6626e+05
2.6646e+05
2.6652e+05
2.6673e+05
2.6678e+05
2.67e+05
2.6706e+05
2.6727e+05
2.6733e+05
2.6754e+05
2.6759e+05
2.6778e+05
2.6784e+05
2.6803e+05
2.6809e+05
2.6834e+05
2.6854e+05
2.6861e+05
2.6881e+05
2.6887e+05
2.6908e+05
2.6914e+05
2.6935e+05
2.694e+05
2.6987e+05
2.6993e+05
2.7012e+05
2.7017e+05
2.7036e+05
2.7042e+05
2.7061e+05
2.7067e+05
2.7141e+05
2.7147e+05
2.7167e+05
2.7173e+05
2.7194e+05
2.72e+05
2.7268e+05
2.7274e+05
2.7293e+05
2.7299e+05
2.732e+05
2.7326e+05
2.7398e+05
2.7404e+05
2.7424e+05
2.743e+05
2.7449e+05
2.7454e+05
2.7481e+05
2.7525e+05
2.753e+05
2.7551e+05
2.7557e+05
2.7579e+05
2.7629e+05
2.7635e+05
2.7654e+05
2.766e+05
2.7679e+05
2.7685e+05
2.7783e+05
2.7789e+05
2.781e+05
2.7816e+05
2.786e+05
2.7866e+05
2.7886e+05
2.7892e+05
2.7912e+05
2.7918e+05
2.7938e+05
2.7943e+05
2.8018e+05
2.8024e+05
2.8045e+05
2.8051e+05
2.807e+05
2.8076e+05
2.8101e+05
2.8121e+05
2.8127e+05
2.8147e+05
2.8153e+05
2.8173e+05
2.8179e+05
2.82e+05
2.8206e+05
2.8227e+05
2.8233e+05
2.8253e+05
2.8259e+05
2.828e+05
2.8285e+05
2.8305e+05
2.831e+05
2.8329e+05
2.8335e+05
2.8356e+05
2.8362e+05
2.8382e+05
2.8388e+05
2.8409e+05
2.8414e+05
2.8442e+05
2.8462e+05
2.8468e+05
2.8489e+05
2.8494e+05
2.8514e+05
2.8539e+05
2.8545e+05
2.8564e+05
2.857e+05
2.8617e+05
2.8624e+05
2.8643e+05
2.8649e+05
2.867e+05
2.8676e+05
2.8696e+05
2.8702e+05
2.8722e+05
2.8728e+05
2.8747e+05
2.8753e+05
2.8773e+05
2.8778e+05
2.8797e+05
2.8804e+05
2.8878e+05
2.8884e+05
2.8905e+05
2.8911e+05
2.893e+05
2.8936e+05
2.8956e+05
2.8961e+05
2.9169e+05
2.9189e+05
2.9195e+05
2.9267e+05
2.9273e+05
2.9295e+05
2.9301e+05
2.9322e+05
2.9327e+05
2.9403e+05
2.9423e+05
2.9429e+05
2.9448e+05
2.9455e+05
2.9556e+05
2.9562e+05
2.9581e+05
2.9586e+05
2.9657e+05
2.9663e+05
2.9689e+05
2.9709e+05
2.9715e+05
2.9764e+05
2.977e+05
2.9814e+05
2.982e+05
2.984e+05
2.9845e+05
2.9865e+05
2.9871e+05
2.9891e+05
2.9897e+05
2.9918e+05
2.9924e+05
2.9944e+05
2.995e+05
2.9971e+05
2.9977e+05
2.9999e+05
3.0004e+05
3.0024e+05
3.0029e+05
3.0048e+05
3.0054e+05
3.0073e+05
3.0079e+05
3.0098e+05
3.0104e+05
3.0125e+05
3.0131e+05
3.0152e+05
3.0158e+05
3.0179e+05
3.0184e+05
3.0204e+05
3.021e+05
3.0231e+05
3.0236e+05
3.0256e+05
3.0262e+05
3.028e+05
3.0286e+05
3.0306e+05
3.0312e+05
3.0332e+05
3.0338e+05
3.0359e+05
3.0365e+05
3.0387e+05
3.0392e+05
3.0413e+05
3.0419e+05
3.0438e+05
3.0444e+05
3.0496e+05
3.0514e+05
3.052e+05
3.0541e+05
3.0547e+05
3.0568e+05
3.0574e+05
3.0595e+05
3.0601e+05
3.0622e+05
3.0628e+05
3.0648e+05
3.0654e+05
3.0673e+05
3.0679e+05
3.07e+05
3.0705e+05
3.0725e+05
3.0731e+05
3.0751e+05
3.0756e+05
3.0777e+05
3.0783e+05
3.0804e+05
3.0811e+05
3.0832e+05
3.0838e+05
3.0859e+05
3.0864e+05
3.0889e+05
3.0909e+05
3.0915e+05
3.0935e+05
3.0941e+05
3.0961e+05
3.0967e+05
3.0993e+05
3.1014e+05
3.102e+05
3.104e+05
3.1046e+05
3.1067e+05
3.1073e+05
3.1093e+05
3.1099e+05
3.1118e+05
3.1123e+05
3.1143e+05
3.1148e+05
3.1169e+05
3.1175e+05
3.1195e+05
3.1202e+05
3.1221e+05
3.1227e+05
3.1248e+05
3.1254e+05
3.1274e+05
3.13e+05
3.1306e+05
3.1326e+05
3.1331e+05
3.135e+05
3.1356e+05
3.1375e+05
3.138e+05
3.1408e+05
3.1428e+05
3.1435e+05
3.1455e+05
3.1461e+05
3.1481e+05
3.1487e+05
3.1507e+05
3.1513e+05
3.1533e+05
3.1539e+05
3.1558e+05
3.1564e+05
3.1583e+05
3.1589e+05
3.1609e+05
3.1615e+05
3.1636e+05
3.1643e+05
3.1663e+05
3.1669e+05
3.169e+05
3.1696e+05
3.1716e+05
3.1722e+05
3.1741e+05
3.1747e+05
3.1773e+05
3.1798e+05
3.1818e+05
3.1824e+05
3.1845e+05
3.1851e+05
3.1873e+05
3.1879e+05
3.19e+05
3.1906e+05
3.1926e+05
3.1932e+05
3.1952e+05
3.1957e+05
3.1977e+05
3.1982e+05
3.2003e+05
3.2008e+05
3.2028e+05
3.2034e+05
3.2054e+05
3.2059e+05
3.2081e+05
3.2087e+05
3.2108e+05
3.2114e+05
3.2135e+05
3.214e+05
3.216e+05
3.2166e+05
3.2185e+05
3.221e+05
3.2216e+05
3.2235e+05
3.2242e+05
3.2261e+05
3.2267e+05
3.2287e+05
3.2295e+05
3.2314e+05
3.232e+05
3.2341e+05
3.2347e+05
3.2368e+05
3.2373e+05
3.2392e+05
3.2399e+05
3.2417e+05
3.2422e+05
3.2441e+05
3.2449e+05
3.2468e+05
3.2473e+05
3.2493e+05
3.2501e+05
3.252e+05
3.2525e+05
3.2546e+05
3.2552e+05
3.2573e+05
3.2579e+05
3.2598e+05
3.2604e+05
3.2624e+05
3.2629e+05
3.2648e+05
3.2654e+05
3.2674e+05
3.2679e+05
3.27e+05
3.2706e+05
3.2733e+05
3.2752e+05
3.2758e+05
3.2779e+05
3.2806e+05
3.2811e+05
3.2831e+05
3.2836e+05
3.2855e+05
3.286e+05
3.288e+05
3.2885e+05
3.2905e+05
3.2911e+05
3.2931e+05
3.2937e+05
3.2958e+05
3.2984e+05
3.299e+05
3.301e+05
3.3016e+05
3.3036e+05
3.3061e+05
3.3091e+05
3.311e+05
3.3136e+05
3.3142e+05
3.3162e+05
3.3168e+05
3.3189e+05
3.3195e+05
3.3215e+05
3.3222e+05
3.324e+05
3.3246e+05
3.3266e+05
3.3271e+05
3.3296e+05
3.3314e+05
3.332e+05
3.3345e+05
3.3365e+05
3.3371e+05
3.3392e+05
3.3398e+05
3.3419e+05
3.3424e+05
3.345e+05
3.3469e+05
3.3475e+05
3.3495e+05
3.35e+05
3.3519e+05
3.3525e+05
3.3544e+05
3.355e+05
3.3569e+05
3.3596e+05
3.3603e+05
3.3622e+05
3.3628e+05
3.365e+05
3.3655e+05
3.368e+05
3.3699e+05
3.3704e+05
3.3724e+05
3.373e+05
3.3749e+05
3.3755e+05
3.3775e+05
3.378e+05
3.3801e+05
3.3827e+05
3.3833e+05
3.3854e+05
3.386e+05
3.388e+05
3.3886e+05
3.3905e+05
3.3911e+05
3.393e+05
3.3935e+05
3.3955e+05
3.3961e+05
3.3981e+05
3.3987e+05
3.4007e+05
3.4013e+05
3.4034e+05
3.4039e+05
3.4061e+05
3.4067e+05
3.4087e+05
3.4093e+05
3.4113e+05
3.4119e+05
3.4138e+05
3.4144e+05
3.4162e+05
3.4168e+05
3.4215e+05
3.4221e+05
3.4242e+05
3.4248e+05
3.4268e+05
3.4274e+05
3.4295e+05
3.4301e+05
3.4347e+05
3.4352e+05
3.4372e+05
3.4378e+05
3.4397e+05
3.4402e+05
3.4478e+05
3.4483e+05
3.4504e+05
3.4509e+05
3.453e+05
3.4535e+05
3.4581e+05
3.4587e+05
3.4606e+05
3.4612e+05
3.4631e+05
3.4637e+05
3.4665e+05
3.4713e+05
3.4718e+05
3.4739e+05
3.4744e+05
3.4764e+05
3.477e+05
3.4789e+05
3.4795e+05
3.484e+05
3.4866e+05
3.4871e+05
3.4893e+05
3.4899e+05
3.492e+05
3.4926e+05
3.4971e+05
3.4977e+05
3.4997e+05
3.5006e+05
3.51e+05
3.5105e+05
3.5133e+05
3.5154e+05
3.516e+05
3.523e+05
3.5235e+05
3.5256e+05
3.5261e+05
3.5288e+05
3.5368e+05
3.5389e+05
3.5395e+05
3.5414e+05
3.5419e+05
3.5439e+05
3.5444e+05
3.5464e+05
3.5469e+05
3.549e+05
3.5496e+05
3.5517e+05
3.5523e+05
3.5623e+05
3.5629e+05
3.5647e+05
3.5653e+05
3.5723e+05
3.5729e+05
3.5751e+05
3.5756e+05
3.5777e+05
3.5783e+05
3.5857e+05
3.5862e+05
3.5881e+05
3.5887e+05
3.5913e+05
3.5988e+05
3.5994e+05
3.6015e+05
3.6021e+05
3.6041e+05
3.6047e+05
3.6094e+05
3.6099e+05
3.6118e+05
3.6124e+05
3.6144e+05
3.615e+05
3.617e+05
3.6177e+05
3.6198e+05
3.6205e+05
3.6225e+05
3.6231e+05
3.6251e+05
3.6257e+05
3.6277e+05
3.6283e+05
3.6304e+05
3.6309e+05
3.6329e+05
3.6335e+05
3.6354e+05
3.636e+05
3.638e+05
3.6386e+05
3.6407e+05
3.6414e+05
3.6435e+05
3.6441e+05
3.6461e+05
3.6467e+05
3.6486e+05
3.6492e+05
3.6511e+05
3.6517e+05
3.6537e+05
3.6543e+05
3.6563e+05
3.6568e+05
3.6641e+05
3.6647e+05
3.6667e+05
3.6674e+05
3.6694e+05
3.6699e+05
3.6743e+05
3.6749e+05
3.6769e+05
3.6775e+05
3.6795e+05
3.6801e+05
3.682e+05
3.6826e+05
3.6873e+05
3.6879e+05
3.69e+05
3.6905e+05
3.6926e+05
3.6931e+05
3.695e+05
3.6956e+05
3.6975e+05
3.6981e+05
3.7001e+05
3.7007e+05
3.7028e+05
3.7034e+05
3.706e+05
3.7133e+05
3.7139e+05
3.7164e+05
3.7184e+05
3.7193e+05
3.7262e+05
3.7268e+05
3.7288e+05
3.7294e+05
3.7314e+05
3.732e+05
3.734e+05
3.7346e+05
3.7399e+05
3.7441e+05
3.7447e+05
3.7468e+05
3.7474e+05
3.7495e+05
3.7501e+05
3.7522e+05
3.7527e+05
3.7548e+05
3.7553e+05
3.7578e+05
3.7598e+05
3.7603e+05
3.7629e+05
3.7649e+05
3.7654e+05
3.768e+05
3.7701e+05
3.7707e+05
3.7729e+05
3.7734e+05
3.7755e+05
3.776e+05
3.778e+05
3.7785e+05
3.7805e+05
3.781e+05
3.783e+05
3.7835e+05
3.7856e+05
3.7861e+05
3.7961e+05
3.7967e+05
3.7987e+05
3.7992e+05
3.8037e+05
3.8042e+05
3.8062e+05
3.8068e+05
3.8088e+05
3.8093e+05
3.8114e+05
3.812e+05
3.8168e+05
3.8177e+05
3.8201e+05
3.8221e+05
3.8226e+05
3.8246e+05
3.8251e+05
3.8271e+05
3.8276e+05
3.8296e+05
3.8302e+05
3.8324e+05
3.8329e+05
3.835e+05
3.8356e+05
3.8376e+05
3.8382e+05
3.8404e+05
3.841e+05
3.8429e+05
3.8435e+05
3.8454e+05
3.8459e+05
3.8478e+05
3.8484e+05
3.8503e+05
3.8509e+05
3.8536e+05
3.8584e+05
3.859e+05
3.8609e+05
3.8616e+05
3.8637e+05
3.8643e+05
3.8661e+05
3.8667e+05
3.8686e+05
3.8692e+05
3.871e+05
3.8716e+05
3.8735e+05
3.8742e+05
3.8762e+05
3.8768e+05
3.8789e+05
3.8795e+05
3.8841e+05
3.8847e+05
3.8867e+05
3.8873e+05
3.8893e+05
3.8898e+05
3.8923e+05
3.8942e+05
3.8948e+05
3.8968e+05
3.8974e+05
3.8995e+05
3.9002e+05
3.9023e+05
3.9029e+05
3.9075e+05
3.908e+05
3.9101e+05
3.9106e+05
3.9126e+05
3.9131e+05
3.9176e+05
3.9182e+05
3.923e+05
3.9236e+05
3.9256e+05
3.9262e+05
3.9283e+05
3.9288e+05
3.9307e+05
3.9313e+05
3.9333e+05
3.9339e+05
3.9358e+05
3.9383e+05
3.9389e+05
3.9436e+05
3.9441e+05
3.949e+05
3.9496e+05
3.952e+05
3.9539e+05
3.9545e+05
3.9591e+05
3.9596e+05
3.9616e+05
3.9622e+05
3.9642e+05
3.9648e+05
3.9669e+05
3.9675e+05
3.974e+05
3.9772e+05
3.9791e+05
3.9817e+05
3.987e+05
3.9896e+05
3.9923e+05
3.9949e+05
3.9974e+05
3.9998e+05
4.0024e+05
4.0051e+05
4.0077e+05
4.0104e+05
4.013e+05
4.0156e+05
4.0182e+05
4.0207e+05
4.0232e+05
4.0258e+05
4.0285e+05
4.0338e+05
4.0363e+05
4.0388e+05
4.0414e+05
4.0439e+05
4.0464e+05
4.0518e+05
4.0544e+05
4.057e+05
4.0595e+05
4.062e+05
4.0645e+05
4.0671e+05
4.0697e+05
4.0723e+05
4.0777e+05
4.0807e+05
4.1144e+05
4.1592e+05
4.179e+05
4.1796e+05
4.1817e+05
4.1823e+05
4.2047e+05
4.2487e+05
4.2493e+05
4.3546e+05
4.3552e+05
4.3725e+05
4.3731e+05
4.3751e+05
4.3757e+05
4.3779e+05
4.3785e+05
4.3805e+05
4.3811e+05
4.383e+05
4.3836e+05
4.3855e+05
4.3861e+05
4.388e+05
4.3886e+05
4.3906e+05
4.3912e+05
4.3932e+05
4.3938e+05
4.3958e+05
4.3964e+05
4.3985e+05
4.3991e+05
4.4013e+05
4.4019e+05
4.4038e+05
4.4044e+05
4.4063e+05
4.4069e+05
4.4088e+05
4.4094e+05
4.4113e+05
4.4119e+05
4.4139e+05
4.4145e+05
4.4167e+05
4.4172e+05
4.4193e+05
4.4199e+05
4.4219e+05
4.4225e+05
4.4247e+05
4.4252e+05
4.4272e+05
4.4277e+05
4.4296e+05
4.4301e+05
4.4326e+05
4.4346e+05
4.4351e+05
4.4372e+05
4.4378e+05
4.4399e+05
4.4405e+05
4.4425e+05
4.4431e+05
4.4478e+05
4.4484e+05
4.4503e+05
4.4509e+05
4.4527e+05
4.4533e+05
4.4553e+05
4.4558e+05
4.4578e+05
4.4584e+05
4.4605e+05
4.4611e+05
4.4632e+05
4.4638e+05
4.4659e+05
4.4665e+05
4.4684e+05
4.469e+05
4.471e+05
4.4716e+05
4.4735e+05
4.4741e+05
4.476e+05
4.4766e+05
4.4785e+05
4.4791e+05
4.4811e+05
4.4818e+05
4.4839e+05
4.4845e+05
4.4866e+05
4.4872e+05
4.4892e+05
4.4898e+05
4.4917e+05
4.4923e+05
4.4943e+05
4.4949e+05
4.4968e+05
4.4974e+05
4.4993e+05
4.4999e+05
4.5019e+05
4.5025e+05
4.5046e+05
4.5052e+05
4.5073e+05
4.5079e+05
4.5125e+05
4.513e+05
4.515e+05
4.5155e+05
4.5175e+05
4.5181e+05
4.5201e+05
4.5206e+05
4.5226e+05
4.5232e+05
4.5252e+05
4.5259e+05
4.5279e+05
4.5285e+05
4.5306e+05
4.5312e+05
4.5332e+05
4.5338e+05
4.5358e+05
4.5363e+05
4.5383e+05
4.5388e+05
4.5409e+05
4.5414e+05
4.6646e+05
4.6653e+05
4.667e+05
4.668e+05
4.6747e+05
4.6772e+05
4.6778e+05
4.6826e+05
4.6832e+05
4.6851e+05
4.6856e+05
4.6875e+05
4.6881e+05
4.69e+05
4.6906e+05
4.6926e+05
4.6931e+05
4.6952e+05
4.6957e+05
4.6977e+05
4.6984e+05
4.7009e+05
4.7057e+05
4.7063e+05
4.7082e+05
4.7088e+05
4.7107e+05
4.7113e+05
4.7132e+05
4.7138e+05
4.7211e+05
4.7217e+05
4.7237e+05
4.7243e+05
4.7365e+05
4.7371e+05
4.7471e+05
4.7477e+05
4.7497e+05
4.7503e+05
4.7573e+05
4.7578e+05
4.7704e+05
4.7709e+05
4.7729e+05
4.7735e+05
4.796e+05
4.7966e+05
4.7986e+05
4.7991e+05
4.8116e+05
4.8122e+05
4.8192e+05
4.8198e+05
4.8217e+05
4.8223e+05
4.825e+05
4.8348e+05
4.8354e+05
4.8373e+05
4.8379e+05
4.8397e+05
4.8403e+05
4.8449e+05
4.8454e+05
4.8475e+05
4.848e+05
4.85e+05
4.8506e+05
4.8553e+05
4.8579e+05
4.8604e+05
4.8609e+05
4.8628e+05
4.8633e+05
4.8653e+05
4.8659e+05
4.8679e+05
4.8705e+05
4.8731e+05
4.8737e+05
4.8757e+05
4.8763e+05
4.8809e+05
4.8814e+05
4.8833e+05
4.8839e+05
4.8858e+05
4.8863e+05
4.8883e+05
4.8889e+05
4.891e+05
4.8916e+05
4.8937e+05
4.8942e+05
4.8963e+05
4.8968e+05
4.8989e+05
4.8994e+05
4.9022e+05
4.9064e+05
4.907e+05
4.9089e+05
4.9094e+05
4.9114e+05
4.912e+05
4.9169e+05
4.9174e+05
4.9194e+05
4.92e+05
4.922e+05
4.9225e+05
4.9245e+05
4.9251e+05
4.9295e+05
4.9301e+05
4.932e+05
4.9326e+05
4.9346e+05
4.9353e+05
4.9451e+05
4.9456e+05
4.9475e+05
4.9481e+05
4.9649e+05
4.9674e+05
4.9699e+05
4.9724e+05
4.975e+05
4.9829e+05
4.9881e+05
4.9905e+05
4.993e+05
4.9955e+05
4.9982e+05
5.0009e+05
5.0034e+05
5.0061e+05
5.0088e+05
5.0113e+05
5.0137e+05
5.0162e+05
5.0187e+05
5.0214e+05
5.024e+05
5.0425e+05
5.0431e+05
5.0657e+05
5.0663e+05
5.1098e+05
5.1103e+05
5.1126e+05
5.2385e+05
5.2391e+05
5.2438e+05
5.2462e+05
5.2492e+05
5.2512e+05
5.2518e+05
5.2538e+05
5.2543e+05
5.2614e+05
5.2641e+05
5.2646e+05
5.2666e+05
5.2671e+05
5.2689e+05
5.2714e+05
5.2788e+05
5.2794e+05
5.2839e+05
5.2845e+05
5.2866e+05
5.2872e+05
5.3012e+05
5.3019e+05
5.3111e+05
5.3117e+05
5.3222e+05
5.3246e+05
5.3276e+05
5.3342e+05
5.3371e+05
5.3484e+05
5.349e+05
5.3651e+05
5.3657e+05
5.3676e+05
5.3682e+05
5.3702e+05
5.3708e+05
5.3728e+05
5.3734e+05
5.3759e+05
5.3777e+05
5.3782e+05
5.3801e+05
5.3808e+05
5.3831e+05
5.385e+05
5.3855e+05
5.3874e+05
5.388e+05
5.39e+05
5.3906e+05
5.3927e+05
5.3932e+05
5.3953e+05
5.3958e+05
5.3983e+05
5.4001e+05
5.4006e+05
5.4026e+05
5.4032e+05
5.4057e+05
5.4077e+05
5.4083e+05
5.4103e+05
5.4108e+05
5.413e+05
5.4135e+05
5.4157e+05
5.4163e+05
5.4184e+05
5.419e+05
5.4209e+05
5.4215e+05
5.4234e+05
5.424e+05
5.4261e+05
5.4267e+05
5.4287e+05
5.4293e+05
5.4314e+05
5.4319e+05
5.4341e+05
5.4347e+05
5.4368e+05
5.4374e+05
5.4395e+05
5.4401e+05
5.4427e+05
5.4453e+05
5.4473e+05
5.4479e+05
5.45e+05
5.4506e+05
5.4555e+05
5.4561e+05
5.4634e+05
5.464e+05
5.466e+05
5.4665e+05
5.4684e+05
5.469e+05
5.4763e+05
5.4769e+05
5.4789e+05
5.4795e+05
5.4815e+05
5.4821e+05
5.4866e+05
5.4872e+05
5.4892e+05
5.4897e+05
5.4917e+05
5.4923e+05
5.4943e+05
5.4949e+05
5.4998e+05
5.5004e+05
5.5025e+05
5.503e+05
5.5051e+05
5.5057e+05
5.5076e+05
5.5082e+05
5.5128e+05
5.5134e+05
5.5153e+05
5.5159e+05
5.5181e+05
5.5187e+05
5.5209e+05
5.5215e+05
5.5236e+05
5.5242e+05
5.5262e+05
5.5268e+05
5.5288e+05
5.5294e+05
5.5314e+05
5.532e+05
5.534e+05
5.5346e+05
5.5366e+05
5.5372e+05
5.5393e+05
5.5398e+05
5.5421e+05
5.5427e+05
5.5449e+05
5.5454e+05
5.5475e+05
5.5481e+05
5.5501e+05
5.5507e+05
5.5527e+05
5.5532e+05
5.5553e+05
5.5559e+05
5.5585e+05
5.5607e+05
5.5612e+05
5.5634e+05
5.564e+05
5.5663e+05
5.5669e+05
5.569e+05
5.5696e+05
5.5722e+05
5.5742e+05
5.5747e+05
5.5768e+05
5.5773e+05
5.5795e+05
5.58e+05
5.5827e+05
5.5848e+05
5.5854e+05
5.5876e+05
5.5882e+05
5.5909e+05
5.593e+05
5.5935e+05
5.5955e+05
5.596e+05
5.5986e+05
5.6006e+05
5.6012e+05
5.6033e+05
5.6039e+05
5.6066e+05
5.6087e+05
5.6093e+05
5.6114e+05
5.612e+05
5.6141e+05
5.6146e+05
5.6166e+05
5.6171e+05
5.619e+05
5.6196e+05
5.6242e+05
5.6247e+05
5.6269e+05
5.6275e+05
5.6374e+05
5.638e+05
5.6399e+05
5.6409e+05
5.6503e+05
5.6508e+05
5.6528e+05
5.6534e+05
5.6602e+05
5.6608e+05
5.6817e+05
5.6822e+05
5.6847e+05
5.6864e+05
5.6887e+05
5.6912e+05
5.6919e+05
5.6936e+05
5.6961e+05
5.6967e+05
5.6986e+05
5.6992e+05
5.7016e+05
5.7152e+05
5.7175e+05
5.7182e+05
5.72e+05
5.7224e+05
5.7229e+05
5.7247e+05
5.7269e+05
5.7294e+05
5.7318e+05
5.7343e+05
5.7348e+05
5.7368e+05
5.7374e+05
5.7394e+05
5.7399e+05
5.7419e+05
5.7424e+05
5.7444e+05
5.745e+05
5.7468e+05
5.7474e+05
5.7493e+05
5.7498e+05
5.7518e+05
5.7524e+05
5.7545e+05
5.7551e+05
5.7572e+05
5.7577e+05
5.7598e+05
5.7603e+05
5.7624e+05
5.763e+05
5.765e+05
5.7656e+05
5.7676e+05
5.7681e+05
5.7701e+05
5.7706e+05
5.7726e+05
5.7731e+05
5.7752e+05
5.7758e+05
5.778e+05
5.7785e+05
5.7807e+05
5.7812e+05
5.7833e+05
5.7839e+05
5.7859e+05
5.7865e+05
5.7885e+05
5.7891e+05
5.7911e+05
5.7917e+05
5.7937e+05
5.7942e+05
5.7962e+05
5.7968e+05
5.799e+05
5.7996e+05
5.8017e+05
5.8023e+05
5.8044e+05
5.807e+05
5.8075e+05
5.812e+05
5.8126e+05
5.8146e+05
5.8151e+05
5.8171e+05
5.8176e+05
5.8196e+05
5.8202e+05
5.8251e+05
5.8257e+05
5.8277e+05
5.8282e+05
5.8302e+05
5.8308e+05
5.8327e+05
5.8333e+05
5.8404e+05
5.843e+05
5.8436e+05
5.8459e+05
5.8465e+05
5.8485e+05
5.8491e+05
5.8511e+05
5.8517e+05
5.8536e+05
5.8542e+05
5.8562e+05
5.8568e+05
5.8588e+05
5.8594e+05
5.8641e+05
5.8647e+05
5.8669e+05
5.8675e+05
5.8723e+05
5.8729e+05
5.8748e+05
5.8754e+05
5.8774e+05
5.8779e+05
5.8852e+05
5.8858e+05
5.8878e+05
5.8884e+05
5.8905e+05
5.8911e+05
5.8958e+05
5.8964e+05
5.8983e+05
5.8988e+05
5.9009e+05
5.9014e+05
5.9034e+05
5.9039e+05
5.9088e+05
5.9094e+05
5.9115e+05
5.9121e+05
5.9143e+05
5.9149e+05
5.917e+05
5.9175e+05
5.9195e+05
5.92e+05
5.9221e+05
5.9226e+05
5.9247e+05
5.9253e+05
5.9275e+05
5.9281e+05
5.9303e+05
5.9309e+05
5.9331e+05
5.9336e+05
5.9358e+05
5.9364e+05
5.9385e+05
5.9391e+05
5.9411e+05
5.9417e+05
5.9437e+05
5.9442e+05
5.9463e+05
5.9469e+05
5.949e+05
5.9496e+05
5.9518e+05
5.9524e+05
5.9546e+05
5.9552e+05
5.9646e+05
5.9725e+05
6.0365e+05
6.0468e+05
6.106e+05
6.1065e+05
6.1086e+05
6.1092e+05
6.1132e+05
6.2203e+05
6.2528e+05
6.2534e+05
6.2576e+05
6.277e+05
6.2776e+05
6.2818e+05
6.3176e+05
6.3571e+05
6.3578e+05
6.362e+05
6.3654e+05
6.366e+05
6.3681e+05
6.3687e+05
6.3727e+05
6.376e+05
6.3765e+05
6.3785e+05
6.3791e+05
6.3813e+05
6.382e+05
6.3841e+05
6.3847e+05
6.3868e+05
6.3874e+05
6.3896e+05
6.3902e+05
6.3922e+05
6.3928e+05
6.3949e+05
6.3955e+05
6.3975e+05
6.3981e+05
6.4002e+05
6.4007e+05
6.4049e+05
6.4083e+05
6.4089e+05
6.4109e+05
6.4133e+05
6.4157e+05
6.4199e+05
6.4305e+05
6.4331e+05
6.4372e+05
6.4402e+05
6.4427e+05
6.4452e+05
6.4496e+05
6.4555e+05
6.4579e+05
6.4584e+05
6.4603e+05
6.4608e+05
6.4646e+05
6.4679e+05
6.4685e+05
6.4705e+05
6.4711e+05
6.4753e+05
6.481e+05
6.4816e+05
