112
398
1344
1650
1953
2255
3500
4405
5641
6550
7803
8103
8410
9958
10875
11219
12164
14704
15008
15317
15623
17482
18132
18420
19045
19359
19665
20940
21259
21561
22185
22519
22890
23161
23474
24738
25051
26599
27263
27580
27896
28525
29182
30435
31716
32657
33348
34243
34553
35510
35834
36777
37081
37734
38052
38347
38647
38948
39241
39891
40215
40522
40843
41154
41454
42152
42756
43054
43359
43664
44313
46535
46852
47169
47472
47776
48095
48424
48754
49057
49369
49978
50294
50925
51848
52143
52793
53122
53732
54025
55309
56225
56514
57148
57466
58383
59681
60252
60852
61162
61480
61791
62100
62400
62692
63021
63324
63644
63975
64563
64857
65126
65439
66064
66367
66668
67245
67542
68151
68437
68727
69010
69291
69571
70194
70497
70794
71092
71380
71668
71974
72285
72595
73198
73495
73775
74088
74398
74709
74995
75296
75584
75875
76183
76497
77103
77405
77980
78277
79202
79809
80111
80420
80736
81671
81975
82278
82577
83540
84165
84473
84789
86066
86389
86690
87316
87648
87950
89169
89540
89821
91334
91656
92010
93185
94130
94437
95036
95327
95640
96572
96876
97479
98738
99049
1.9929e+05
1.996e+05
2.002e+05
2.0055e+05
2.008e+05
2.011e+05
2.0171e+05
2.0231e+05
2.0261e+05
2.029e+05
2.032e+05
2.0348e+05
2.0411e+05
2.0441e+05
2.0475e+05
2.0501e+05
2.0624e+05
2.0652e+05
2.0713e+05
2.0742e+05
2.0864e+05
2.0924e+05
2.0954e+05
2.1045e+05
2.1076e+05
2.1106e+05
2.1196e+05
2.1318e+05
2.1349e+05
2.1407e+05
2.15e+05
2.153e+05
2.156e+05
2.159e+05
2.168e+05
2.1801e+05
2.1858e+05
2.1951e+05
2.198e+05
2.2009e+05
2.2066e+05
2.2097e+05
2.2127e+05
2.2158e+05
2.2187e+05
2.2217e+05
2.2247e+05
2.2276e+05
2.2306e+05
2.2337e+05
2.2398e+05
2.2427e+05
2.2457e+05
2.2487e+05
2.2516e+05
2.2609e+05
2.2641e+05
2.2672e+05
2.2702e+05
2.2732e+05
2.2799e+05
2.2827e+05
2.2863e+05
2.289e+05
2.292e+05
2.2952e+05
2.2984e+05
2.3016e+05
2.3079e+05
2.311e+05
2.314e+05
2.3171e+05
2.3203e+05
2.3235e+05
2.3267e+05
2.3296e+05
2.3328e+05
2.3355e+05
2.3387e+05
2.3423e+05
2.3452e+05
2.3483e+05
2.3507e+05
2.3542e+05
2.3573e+05
2.3637e+05
2.3669e+05
2.37e+05
2.3791e+05
2.3827e+05
2.386e+05
2.3981e+05
2.4048e+05
2.42e+05
2.4292e+05
2.4325e+05
2.4391e+05
2.4421e+05
2.4543e+05
2.467e+05
2.4701e+05
2.4761e+05
2.4797e+05
2.4887e+05
2.4915e+05
2.4948e+05
2.4981e+05
2.5102e+05
2.5166e+05
2.5197e+05
2.5259e+05
2.5385e+05
2.5413e+05
2.5474e+05
2.5505e+05
2.5539e+05
2.5631e+05
2.5693e+05
2.5723e+05
2.5753e+05
2.5821e+05
2.591e+05
2.6e+05
2.6034e+05
2.6063e+05
2.6093e+05
2.6124e+05
2.6185e+05
2.6249e+05
2.6313e+05
2.6345e+05
2.6376e+05
2.6504e+05
2.6535e+05
2.6565e+05
2.6658e+05
2.6689e+05
2.6749e+05
2.6839e+05
2.6875e+05
2.6908e+05
2.6934e+05
2.7027e+05
2.7217e+05
2.7247e+05
2.7339e+05
2.737e+05
2.7402e+05
2.7462e+05
2.7497e+05
2.7618e+05
2.7649e+05
2.7709e+05
2.7863e+05
2.7893e+05
2.8018e+05
2.8107e+05
2.8202e+05
2.8233e+05
2.83e+05
2.8388e+05
2.8513e+05
2.8543e+05
2.8611e+05
2.87e+05
2.873e+05
2.876e+05
2.8853e+05
2.8883e+05
2.8944e+05
2.8975e+05
2.9006e+05
2.9044e+05
2.9073e+05
2.9105e+05
2.9172e+05
2.9232e+05
2.9265e+05
2.9298e+05
2.9391e+05
2.955e+05
2.9581e+05
2.9827e+05
2.9857e+05
2.995e+05
3.0011e+05
3.0041e+05
3.0069e+05
3.0165e+05
3.0195e+05
3.0225e+05
3.0284e+05
3.0407e+05
3.0437e+05
3.0467e+05
3.0496e+05
3.0526e+05
3.0558e+05
3.059e+05
3.062e+05
3.065e+05
3.074e+05
3.0772e+05
3.0803e+05
3.0834e+05
3.0864e+05
3.0894e+05
3.0924e+05
3.0955e+05
3.0987e+05
3.102e+05
3.1112e+05
3.1141e+05
3.1173e+05
3.1204e+05
3.1235e+05
3.1296e+05
3.1325e+05
3.1355e+05
3.1385e+05
3.1416e+05
3.1447e+05
3.1477e+05
3.1507e+05
3.1628e+05
3.166e+05
3.169e+05
3.1721e+05
3.175e+05
3.181e+05
3.184e+05
3.1871e+05
3.1901e+05
3.1931e+05
3.196e+05
3.1988e+05
3.2017e+05
3.211e+05
3.2139e+05
3.2169e+05
3.2199e+05
3.2228e+05
3.229e+05
3.232e+05
3.235e+05
3.238e+05
3.2557e+05
3.2587e+05
3.2616e+05
3.2645e+05
3.2675e+05
3.2707e+05
3.2768e+05
3.2798e+05
3.2827e+05
3.2888e+05
3.295e+05
3.2981e+05
3.3013e+05
3.3043e+05
3.3072e+05
3.3102e+05
3.3195e+05
3.3225e+05
3.3407e+05
3.3437e+05
3.3468e+05
3.3499e+05
3.3625e+05
3.3657e+05
3.3688e+05
3.3876e+05
3.3968e+05
3.4215e+05
3.4246e+05
3.4277e+05
3.4308e+05
3.4397e+05
3.4429e+05
3.4461e+05
3.4584e+05
3.4676e+05
3.4707e+05
3.4795e+05
3.4825e+05
3.5126e+05
3.5276e+05
3.5617e+05
3.5774e+05
3.6289e+05
3.6413e+05
3.6534e+05
3.6596e+05
3.6629e+05
3.6659e+05
3.6751e+05
3.6782e+05
3.6817e+05
3.6879e+05
3.6972e+05
3.7068e+05
3.7099e+05
3.716e+05
3.7317e+05
3.7349e+05
3.7379e+05
3.7441e+05
3.7474e+05
3.7506e+05
3.766e+05
3.7755e+05
3.7785e+05
3.8063e+05
3.8222e+05
3.8283e+05
3.8315e+05
3.841e+05
3.8503e+05
3.879e+05
3.8822e+05
3.8852e+05
3.8913e+05
3.9009e+05
3.91e+05
3.9669e+05
3.9894e+05
4.2487e+05
4.589e+05
4.9667e+05
4.9696e+05
4.9724e+05
4.9753e+05
4.9812e+05
4.984e+05
4.9868e+05
4.9896e+05
4.9922e+05
5.0093e+05
5.0121e+05
5.0153e+05
5.0178e+05
5.0239e+05
5.0263e+05
5.0292e+05
5.0325e+05
5.0352e+05
5.0374e+05
5.0404e+05
5.0433e+05
5.0462e+05
5.0519e+05
5.0552e+05
5.0603e+05
5.0633e+05
5.0663e+05
5.0696e+05
5.0747e+05
5.0775e+05
5.0807e+05
5.0836e+05
5.086e+05
5.0889e+05
5.0918e+05
5.0946e+05
5.1029e+05
5.1058e+05
5.1088e+05
5.1147e+05
5.1175e+05
5.1204e+05
5.1236e+05
5.1261e+05
5.132e+05
5.1349e+05
5.1378e+05
5.1407e+05
5.1436e+05
5.1464e+05
5.1494e+05
5.1555e+05
5.1584e+05
5.1614e+05
5.1643e+05
5.1733e+05
5.1824e+05
5.1858e+05
5.1912e+05
5.2096e+05
5.2267e+05
5.2295e+05
5.2382e+05
5.2412e+05
5.2441e+05
5.247e+05
5.2499e+05
5.2556e+05
5.2587e+05
5.2647e+05
5.2765e+05
5.2797e+05
5.2859e+05
5.2921e+05
5.295e+05
5.2983e+05
5.3046e+05
5.3073e+05
5.3132e+05
5.3191e+05
5.3255e+05
5.3285e+05
5.3315e+05
5.3346e+05
5.3404e+05
5.344e+05
5.3501e+05
5.3562e+05
5.359e+05
5.3619e+05
5.3679e+05
5.371e+05
5.374e+05
5.3768e+05
5.3794e+05
5.3824e+05
5.395e+05
5.4136e+05
5.4322e+05
5.4475e+05
5.4689e+05
5.5059e+05
5.5118e+05
5.5244e+05
5.5275e+05
5.6024e+05
5.642e+05
5.6629e+05
5.6655e+05
5.6717e+05
5.6746e+05
5.6895e+05
5.6957e+05
5.7021e+05
5.705e+05
5.7138e+05
5.7173e+05
5.7199e+05
5.732e+05
5.7381e+05
5.744e+05
5.747e+05
5.7498e+05
5.7592e+05
5.7652e+05
5.771e+05
5.7741e+05
5.7772e+05
5.7864e+05
5.7954e+05
5.8047e+05
5.8138e+05
5.832e+05
5.835e+05
5.9196e+05
5.9284e+05
5.9609e+05
5.9662e+05
5.9724e+05
5.9905e+05
5.9999e+05
6.0029e+05
6.0093e+05
6.0211e+05
6.0241e+05
6.033e+05
6.0486e+05
6.0543e+05
6.0635e+05
6.0666e+05
6.0696e+05
6.0755e+05
6.0819e+05
6.0912e+05
6.0941e+05
6.1185e+05
6.1249e+05
6.1279e+05
6.1344e+05
6.137e+05
6.1491e+05
6.1522e+05
6.1584e+05
6.1674e+05
6.1795e+05
6.1856e+05
6.1947e+05
6.1977e+05
6.2011e+05
6.2035e+05
6.2096e+05
6.2156e+05
6.227e+05
6.2304e+05
6.2417e+05
6.2472e+05
6.2505e+05
6.2558e+05
6.2585e+05
6.2644e+05
6.2692e+05
6.2721e+05
6.281e+05
6.2839e+05
6.2889e+05
6.2917e+05
6.2947e+05
6.2974e+05
6.3002e+05
6.303e+05
6.3087e+05
6.3114e+05
6.3282e+05
6.3339e+05
6.3389e+05
6.342e+05
6.3447e+05
6.3501e+05
6.3528e+05
6.3582e+05
6.3605e+05
6.3662e+05
6.3694e+05
6.3722e+05
6.3746e+05
6.3773e+05
6.3891e+05
6.3949e+05
6.4006e+05
6.4036e+05
6.4066e+05
6.4186e+05
6.4239e+05
6.427e+05
6.4303e+05
6.4332e+05
6.4585e+05
6.4613e+05
6.4672e+05
6.4733e+05
6.4936e+05
-1
279
582
682
899
1003
1222
1525
1829
2127
2426
2519
2736
2841
3058
3160
3373
3671
3774
3978
4078
4283
4579
4660
4881
4985
5196
5306
5513
5819
5920
6133
6227
6428
6722
6815
7028
7138
7355
7457
7675
7977
8285
8586
8680
8887
8983
9197
9301
9516
9618
9826
10137
10244
10450
10551
10755
11056
11149
11371
11472
11700
11808
12032
12346
12456
12661
12772
12977
13076
13282
13388
13610
13707
13937
14038
14260
14359
14570
14888
15192
15491
15812
15847
16131
16239
16451
16540
16758
16855
17065
17158
17365
17654
17758
17975
18071
18292
18605
18703
18909
19233
19540
19841
19947
20165
20272
20488
20600
20809
21125
21435
21742
21841
22050
22385
22712
22821
23024
23344
23652
23750
23963
24065
24277
24386
24598
24922
25227
25334
25545
25651
25853
25889
26152
26235
26465
26789
26904
27124
27446
27764
28071
28185
28384
28713
28828
29044
29372
29456
29680
29779
29994
30089
30304
30609
30700
30929
31025
31254
31368
31585
31903
32015
32213
32312
32527
32832
32946
33166
33266
33499
33608
33810
33848
34121
34428
34739
34836
35047
35156
35370
35700
36012
36116
36332
36432
36647
36955
37265
37379
37593
37919
38227
38526
38824
39123
39433
39541
39759
40082
40389
40707
41018
41325
41645
41752
41971
42075
42300
42412
42616
42928
43227
43526
43856
43971
44182
44500
44595
44808
44913
45120
45225
45431
45523
45739
45854
46064
46176
46394
46722
47038
47348
47389
47653
47955
48284
48611
48928
49242
49546
49647
49855
50157
50482
50519
50793
51103
51202
51414
51512
51723
52029
52330
52433
52652
52985
53294
53401
53607
53907
54192
54300
54524
54630
54854
54965
55177
55482
55587
55795
55902
56101
56404
56700
56800
57015
57333
57642
57747
57956
58050
58257
58554
58647
58866
58957
59188
59300
59510
59816
59912
60127
60424
60524
60726
61030
61344
61663
61969
62277
62571
62866
62958
63168
63267
63483
63582
63793
63919
64104
64196
64400
64456
64701
64816
65008
65307
65623
65724
65933
66235
66543
66844
66943
67133
67420
67721
67826
68029
68328
68413
68616
68899
69182
69453
69759
69860
70072
70377
70668
70967
71263
71551
71846
72156
72465
72766
72877
73073
73369
73662
73959
74276
74583
74871
75173
75465
75760
76053
76362
76675
76775
76977
77283
77578
77670
77864
78151
78465
78554
78773
78864
79081
79383
79488
79686
79986
80284
80606
80920
81022
81235
81320
81540
81846
82148
82445
82762
82871
83084
83188
83409
83722
83832
84034
84343
84651
84982
85090
85311
85353
85624
85724
85935
86246
86349
86556
86859
86980
87179
87501
87815
88130
88231
88439
88542
88739
88838
89038
89360
89472
89681
89741
89991
90100
90299
90402
90601
90708
90899
91001
91200
91522
91839
92141
92249
92454
92554
92764
92860
93065
93363
93473
93680
93794
93999
94303
94616
94713
94917
95211
95508
95825
95930
96143
96245
96444
96758
97054
97154
97355
97653
97763
97975
98078
98291
98398
98605
98919
99221
1.0013e+05
1.0024e+05
1.0046e+05
1.0065e+05
1.0118e+05
1.02e+05
1.0231e+05
1.0263e+05
1.0275e+05
1.0386e+05
1.0416e+05
1.0427e+05
1.0448e+05
1.0459e+05
1.048e+05
1.0541e+05
1.0601e+05
1.061e+05
1.0631e+05
1.0642e+05
1.0663e+05
1.0695e+05
1.0706e+05
1.0758e+05
1.0769e+05
1.0789e+05
1.082e+05
1.083e+05
1.0882e+05
1.0893e+05
1.0976e+05
1.1006e+05
1.1035e+05
1.1045e+05
1.1098e+05
1.113e+05
1.116e+05
1.1171e+05
1.1222e+05
1.1233e+05
1.1253e+05
1.1263e+05
1.1284e+05
1.1347e+05
1.1411e+05
1.1503e+05
1.1513e+05
1.1535e+05
1.1541e+05
1.1568e+05
1.1579e+05
1.1659e+05
1.169e+05
1.1699e+05
1.1784e+05
1.1846e+05
1.1876e+05
1.1905e+05
1.1968e+05
1.2001e+05
1.2012e+05
1.2062e+05
1.2092e+05
1.2152e+05
1.2163e+05
1.2184e+05
1.2216e+05
1.2221e+05
1.2277e+05
1.2308e+05
1.2338e+05
1.2399e+05
1.241e+05
1.2431e+05
1.2442e+05
1.2493e+05
1.2503e+05
1.2552e+05
1.2581e+05
1.2614e+05
1.2625e+05
1.2646e+05
1.2657e+05
1.2768e+05
1.2778e+05
1.2799e+05
1.281e+05
1.2831e+05
1.2863e+05
1.2874e+05
1.2926e+05
1.2956e+05
1.296e+05
1.3016e+05
1.3028e+05
1.3081e+05
1.3112e+05
1.3205e+05
1.3215e+05
1.3237e+05
1.3248e+05
1.3302e+05
1.3332e+05
1.3363e+05
1.3393e+05
1.3404e+05
1.3455e+05
1.3487e+05
1.3497e+05
1.3519e+05
1.355e+05
1.356e+05
1.358e+05
1.3672e+05
1.3683e+05
1.3704e+05
1.3737e+05
1.3748e+05
1.3768e+05
1.3779e+05
1.3799e+05
1.3922e+05
1.3933e+05
1.3954e+05
1.3964e+05
1.3985e+05
1.4016e+05
1.4045e+05
1.4074e+05
1.4084e+05
1.4106e+05
1.4116e+05
1.4138e+05
1.4148e+05
1.42e+05
1.423e+05
1.426e+05
1.429e+05
1.4354e+05
1.4364e+05
1.4386e+05
1.4417e+05
1.4479e+05
1.4509e+05
1.4542e+05
1.4551e+05
1.4574e+05
1.4946e+05
1.4979e+05
1.5011e+05
1.5044e+05
1.5054e+05
1.5136e+05
1.5167e+05
1.5178e+05
1.5232e+05
1.5263e+05
1.5274e+05
1.5295e+05
1.5306e+05
1.5326e+05
1.5337e+05
1.5357e+05
1.5367e+05
1.5388e+05
1.5452e+05
1.5483e+05
1.5495e+05
1.5576e+05
1.5584e+05
1.5607e+05
1.5702e+05
1.5763e+05
1.589e+05
1.5985e+05
1.6014e+05
1.6046e+05
1.6296e+05
1.6307e+05
1.6328e+05
1.6337e+05
1.6609e+05
1.6639e+05
1.6669e+05
1.6677e+05
1.6766e+05
1.6797e+05
1.6807e+05
1.6858e+05
1.6889e+05
1.6899e+05
1.6921e+05
1.6984e+05
1.7015e+05
1.7045e+05
1.7076e+05
1.7106e+05
1.7116e+05
1.7202e+05
1.7262e+05
1.7291e+05
1.7321e+05
1.7353e+05
1.7385e+05
1.7416e+05
1.7426e+05
1.7446e+05
1.7457e+05
1.7508e+05
1.7569e+05
1.7601e+05
1.7612e+05
1.7633e+05
1.7643e+05
1.7664e+05
1.7674e+05
1.7695e+05
1.77e+05
1.7753e+05
1.7761e+05
1.7786e+05
1.7938e+05
1.7967e+05
1.8029e+05
1.8061e+05
1.8092e+05
1.8101e+05
1.8182e+05
1.8214e+05
1.8224e+05
1.8589e+05
1.9948e+05
1.9978e+05
1.9988e+05
2.0039e+05
2.0049e+05
2.0069e+05
2.0098e+05
2.0127e+05
2.0137e+05
2.0158e+05
2.0189e+05
2.0199e+05
2.0249e+05
2.0279e+05
2.0307e+05
2.0336e+05
2.0367e+05
2.0377e+05
2.0429e+05
2.0459e+05
2.0468e+05
2.0489e+05
2.0518e+05
2.0527e+05
2.0548e+05
2.064e+05
2.0669e+05
2.0679e+05
2.07e+05
2.073e+05
2.076e+05
2.0769e+05
2.0882e+05
2.0892e+05
2.0912e+05
2.0922e+05
2.0942e+05
2.0971e+05
2.1064e+05
2.1094e+05
2.1125e+05
2.1134e+05
2.1154e+05
2.1164e+05
2.1184e+05
2.1213e+05
2.1223e+05
2.1244e+05
2.1255e+05
2.1337e+05
2.1366e+05
2.1424e+05
2.1434e+05
2.1456e+05
2.1465e+05
2.1488e+05
2.1518e+05
2.1548e+05
2.1578e+05
2.1608e+05
2.1618e+05
2.1698e+05
2.1706e+05
2.173e+05
2.1739e+05
2.176e+05
2.1769e+05
2.1789e+05
2.1818e+05
2.1876e+05
2.1887e+05
2.1908e+05
2.1918e+05
2.1939e+05
2.1968e+05
2.1998e+05
2.2027e+05
2.2084e+05
2.2115e+05
2.2145e+05
2.2175e+05
2.2205e+05
2.2235e+05
2.2264e+05
2.2293e+05
2.2324e+05
2.2356e+05
2.2416e+05
2.2445e+05
2.2474e+05
2.2503e+05
2.2535e+05
2.2546e+05
2.2566e+05
2.2577e+05
2.2598e+05
2.2628e+05
2.2659e+05
2.2689e+05
2.2719e+05
2.2751e+05
2.2757e+05
2.2783e+05
2.2815e+05
2.2846e+05
2.2857e+05
2.2877e+05
2.2907e+05
2.2938e+05
2.2971e+05
2.3004e+05
2.3035e+05
2.3044e+05
2.3066e+05
2.3096e+05
2.3127e+05
2.3157e+05
2.3189e+05
2.3221e+05
2.3253e+05
2.3283e+05
2.3314e+05
2.3343e+05
2.3373e+05
2.3406e+05
2.3417e+05
2.3438e+05
2.347e+05
2.3501e+05
2.3523e+05
2.356e+05
2.3591e+05
2.3602e+05
2.3624e+05
2.3656e+05
2.3686e+05
2.3718e+05
2.3729e+05
2.3749e+05
2.3759e+05
2.3779e+05
2.3809e+05
2.3842e+05
2.3875e+05
2.3886e+05
2.3906e+05
2.3917e+05
2.3937e+05
2.3948e+05
2.3968e+05
2.3998e+05
2.4008e+05
2.4029e+05
2.4041e+05
2.4062e+05
2.4073e+05
2.4094e+05
2.4105e+05
2.4125e+05
2.4136e+05
2.4157e+05
2.4218e+05
2.4227e+05
2.4248e+05
2.4252e+05
2.428e+05
2.4311e+05
2.4343e+05
2.4353e+05
2.4404e+05
2.4414e+05
2.4434e+05
2.4444e+05
2.4466e+05
2.4561e+05
2.4572e+05
2.4684e+05
2.4695e+05
2.4716e+05
2.4725e+05
2.4779e+05
2.479e+05
2.4811e+05
2.4822e+05
2.4841e+05
2.4902e+05
2.4935e+05
2.4967e+05
2.4999e+05
2.5009e+05
2.503e+05
2.5121e+05
2.5131e+05
2.5153e+05
2.5184e+05
2.5215e+05
2.5225e+05
2.5246e+05
2.5256e+05
2.5276e+05
2.5287e+05
2.54e+05
2.543e+05
2.5492e+05
2.5522e+05
2.5531e+05
2.5554e+05
2.5649e+05
2.571e+05
2.574e+05
2.5771e+05
2.5782e+05
2.5803e+05
2.5814e+05
2.5835e+05
2.5845e+05
2.5927e+05
2.5937e+05
2.6019e+05
2.6029e+05
2.6051e+05
2.608e+05
2.6111e+05
2.6141e+05
2.6203e+05
2.6215e+05
2.6268e+05
2.6278e+05
2.63e+05
2.6332e+05
2.6363e+05
2.6393e+05
2.6404e+05
2.6426e+05
2.6437e+05
2.6522e+05
2.6553e+05
2.6583e+05
2.6593e+05
2.6675e+05
2.6706e+05
2.6767e+05
2.6857e+05
2.6868e+05
2.6889e+05
2.69e+05
2.6922e+05
2.6953e+05
2.6964e+05
2.7044e+05
2.7056e+05
2.7078e+05
2.7089e+05
2.7111e+05
2.7235e+05
2.7264e+05
2.7274e+05
2.7296e+05
2.7304e+05
2.7358e+05
2.7389e+05
2.7419e+05
2.748e+05
2.7491e+05
2.7513e+05
2.7636e+05
2.7646e+05
2.7666e+05
2.7727e+05
2.7738e+05
2.7759e+05
2.777e+05
2.779e+05
2.7881e+05
2.791e+05
2.7921e+05
2.7942e+05
2.7953e+05
2.7974e+05
2.7984e+05
2.8006e+05
2.8036e+05
2.8046e+05
2.8125e+05
2.8135e+05
2.8157e+05
2.8169e+05
2.822e+05
2.8251e+05
2.8261e+05
2.8282e+05
2.8293e+05
2.8314e+05
2.8407e+05
2.8417e+05
2.844e+05
2.8531e+05
2.8561e+05
2.8571e+05
2.8593e+05
2.8603e+05
2.8626e+05
2.8717e+05
2.8748e+05
2.8777e+05
2.8788e+05
2.8871e+05
2.8901e+05
2.8962e+05
2.8993e+05
2.9026e+05
2.9038e+05
2.9059e+05
2.9091e+05
2.9123e+05
2.9134e+05
2.9155e+05
2.9166e+05
2.9186e+05
2.9196e+05
2.9218e+05
2.9251e+05
2.9284e+05
2.9315e+05
2.9409e+05
2.9418e+05
2.944e+05
2.9451e+05
2.9568e+05
2.9598e+05
2.9844e+05
2.9875e+05
2.9886e+05
2.9907e+05
2.9912e+05
2.9938e+05
2.9968e+05
2.9978e+05
2.9999e+05
3.0028e+05
3.0057e+05
3.0088e+05
3.0099e+05
3.012e+05
3.0131e+05
3.0152e+05
3.0182e+05
3.0212e+05
3.0223e+05
3.0242e+05
3.0252e+05
3.0272e+05
3.0303e+05
3.0334e+05
3.0365e+05
3.0395e+05
3.0425e+05
3.0455e+05
3.0484e+05
3.0513e+05
3.0545e+05
3.0577e+05
3.0607e+05
3.0637e+05
3.0667e+05
3.0677e+05
3.0697e+05
3.0706e+05
3.0727e+05
3.0759e+05
3.079e+05
3.082e+05
3.0852e+05
3.0882e+05
3.0913e+05
3.0942e+05
3.0974e+05
3.1006e+05
3.1038e+05
3.1049e+05
3.1069e+05
3.11e+05
3.1129e+05
3.1159e+05
3.1192e+05
3.1223e+05
3.1253e+05
3.1263e+05
3.1283e+05
3.1313e+05
3.1343e+05
3.1372e+05
3.1404e+05
3.1434e+05
3.1438e+05
3.1464e+05
3.1495e+05
3.1525e+05
3.1554e+05
3.1583e+05
3.1593e+05
3.1615e+05
3.1646e+05
3.1678e+05
3.1708e+05
3.1738e+05
3.1768e+05
3.1778e+05
3.1797e+05
3.1828e+05
3.1859e+05
3.1889e+05
3.1919e+05
3.1949e+05
3.1977e+05
3.2005e+05
3.2035e+05
3.2045e+05
3.2066e+05
3.2077e+05
3.2098e+05
3.2127e+05
3.2157e+05
3.2187e+05
3.2216e+05
3.2246e+05
3.2277e+05
3.2308e+05
3.2338e+05
3.2368e+05
3.2397e+05
3.2404e+05
3.2426e+05
3.2454e+05
3.2485e+05
3.2515e+05
3.2525e+05
3.2545e+05
3.2575e+05
3.2604e+05
3.2632e+05
3.2662e+05
3.2694e+05
3.2725e+05
3.2756e+05
3.2786e+05
3.279e+05
3.2815e+05
3.2845e+05
3.2874e+05
3.2906e+05
3.2937e+05
3.2968e+05
3.3e+05
3.303e+05
3.306e+05
3.3088e+05
3.312e+05
3.313e+05
3.3151e+05
3.3161e+05
3.3182e+05
3.3212e+05
3.3242e+05
3.327e+05
3.33e+05
3.333e+05
3.3341e+05
3.3362e+05
3.3373e+05
3.3393e+05
3.3424e+05
3.3455e+05
3.3486e+05
3.3516e+05
3.3525e+05
3.3547e+05
3.3558e+05
3.3579e+05
3.3591e+05
3.3612e+05
3.3643e+05
3.3674e+05
3.3705e+05
3.3716e+05
3.3735e+05
3.3767e+05
3.3779e+05
3.3801e+05
3.3807e+05
3.3833e+05
3.3844e+05
3.3863e+05
3.3894e+05
3.3925e+05
3.3986e+05
3.3995e+05
3.4018e+05
3.4029e+05
3.405e+05
3.408e+05
3.4092e+05
3.4233e+05
3.4265e+05
3.4295e+05
3.4325e+05
3.4416e+05
3.4448e+05
3.448e+05
3.449e+05
3.4511e+05
3.4522e+05
3.4542e+05
3.4601e+05
3.461e+05
3.4633e+05
3.4644e+05
3.4695e+05
3.4725e+05
3.4755e+05
3.4784e+05
3.4813e+05
3.4844e+05
3.4854e+05
3.4875e+05
3.4935e+05
3.5082e+05
3.5092e+05
3.5144e+05
3.5154e+05
3.5204e+05
3.5295e+05
3.5305e+05
3.5327e+05
3.5337e+05
3.5511e+05
3.5522e+05
3.5635e+05
3.5644e+05
3.5665e+05
3.5674e+05
3.5791e+05
3.5801e+05
3.6308e+05
3.6312e+05
3.6369e+05
3.6379e+05
3.6431e+05
3.6441e+05
3.6462e+05
3.6472e+05
3.6492e+05
3.6502e+05
3.6523e+05
3.6552e+05
3.6615e+05
3.6648e+05
3.6678e+05
3.6688e+05
3.6709e+05
3.6718e+05
3.6739e+05
3.6769e+05
3.6801e+05
3.6813e+05
3.6834e+05
3.6845e+05
3.6866e+05
3.6897e+05
3.6907e+05
3.6929e+05
3.6939e+05
3.696e+05
3.699e+05
3.6999e+05
3.7022e+05
3.7033e+05
3.7055e+05
3.7086e+05
3.7118e+05
3.7128e+05
3.7148e+05
3.7178e+05
3.7188e+05
3.7208e+05
3.7219e+05
3.7241e+05
3.7252e+05
3.7273e+05
3.7284e+05
3.7304e+05
3.7336e+05
3.7367e+05
3.7398e+05
3.7406e+05
3.746e+05
3.7493e+05
3.7524e+05
3.7534e+05
3.7556e+05
3.7566e+05
3.7586e+05
3.7597e+05
3.7617e+05
3.7623e+05
3.7679e+05
3.7688e+05
3.7711e+05
3.7772e+05
3.7802e+05
3.8082e+05
3.8093e+05
3.8114e+05
3.8124e+05
3.8147e+05
3.8158e+05
3.8179e+05
3.824e+05
3.825e+05
3.827e+05
3.8302e+05
3.8334e+05
3.8345e+05
3.8367e+05
3.8397e+05
3.8428e+05
3.8438e+05
3.8459e+05
3.847e+05
3.8489e+05
3.8522e+05
3.8532e+05
3.8555e+05
3.8618e+05
3.8629e+05
3.865e+05
3.866e+05
3.8681e+05
3.8809e+05
3.884e+05
3.887e+05
3.888e+05
3.89e+05
3.8931e+05
3.8942e+05
3.8964e+05
3.8969e+05
3.9026e+05
3.9088e+05
3.9118e+05
3.9128e+05
3.9148e+05
3.9157e+05
3.918e+05
3.9191e+05
3.9688e+05
3.9781e+05
3.9813e+05
3.9846e+05
3.9857e+05
3.9878e+05
3.9909e+05
3.9939e+05
4e+05
4.0032e+05
4.0042e+05
4.0064e+05
4.0097e+05
4.0106e+05
4.0128e+05
4.0139e+05
4.0159e+05
4.0191e+05
4.0221e+05
4.0233e+05
4.0254e+05
4.0288e+05
4.0299e+05
4.0321e+05
4.0332e+05
4.0352e+05
4.0384e+05
4.0445e+05
4.0479e+05
4.0511e+05
4.0522e+05
4.0542e+05
4.0575e+05
4.0606e+05
4.0616e+05
4.0637e+05
4.0667e+05
4.0678e+05
4.0699e+05
4.0711e+05
4.0732e+05
4.0743e+05
4.0763e+05
4.0773e+05
4.0794e+05
4.0805e+05
4.0825e+05
4.0855e+05
4.0866e+05
4.0887e+05
4.092e+05
4.0953e+05
4.0984e+05
4.0995e+05
4.1016e+05
4.1047e+05
4.1058e+05
4.1078e+05
4.1087e+05
4.1109e+05
4.1142e+05
4.1153e+05
4.1174e+05
4.1185e+05
4.1206e+05
4.1217e+05
4.1238e+05
4.1268e+05
4.1277e+05
4.1329e+05
4.1363e+05
4.1373e+05
4.1395e+05
4.1405e+05
4.1426e+05
4.1457e+05
4.1468e+05
4.1488e+05
4.1551e+05
4.1676e+05
4.1686e+05
4.1706e+05
4.1768e+05
4.1779e+05
4.1801e+05
4.1832e+05
4.1863e+05
4.1894e+05
4.1899e+05
4.1924e+05
4.1987e+05
4.202e+05
4.2052e+05
4.2085e+05
4.2117e+05
4.215e+05
4.2161e+05
4.2181e+05
4.2215e+05
4.2248e+05
4.2312e+05
4.2342e+05
4.2372e+05
4.2404e+05
4.2437e+05
4.247e+05
4.25e+05
4.2532e+05
4.2625e+05
4.2658e+05
4.2691e+05
4.2723e+05
4.2755e+05
4.2786e+05
4.285e+05
4.2884e+05
4.2896e+05
4.2917e+05
4.295e+05
4.2982e+05
4.3015e+05
4.3113e+05
4.3145e+05
4.3177e+05
4.3188e+05
4.3273e+05
4.3286e+05
4.3307e+05
4.3341e+05
4.3372e+05
4.3403e+05
4.3434e+05
4.3445e+05
4.3497e+05
4.3562e+05
4.3572e+05
4.3593e+05
4.3603e+05
4.3625e+05
4.3628e+05
4.3655e+05
4.3686e+05
4.3697e+05
4.3719e+05
4.373e+05
4.3751e+05
4.3783e+05
4.3816e+05
4.3846e+05
4.3877e+05
4.3886e+05
4.3907e+05
4.3918e+05
4.394e+05
4.3951e+05
4.3973e+05
4.4003e+05
4.4014e+05
4.4035e+05
4.4066e+05
4.4076e+05
4.4097e+05
4.4107e+05
4.4129e+05
4.414e+05
4.4162e+05
4.4195e+05
4.4226e+05
4.4237e+05
4.4258e+05
4.4269e+05
4.4289e+05
4.4319e+05
4.4351e+05
4.4384e+05
4.4417e+05
4.4448e+05
4.448e+05
4.4491e+05
4.4575e+05
4.4607e+05
4.4618e+05
4.4701e+05
4.476e+05
4.4768e+05
4.4791e+05
4.4802e+05
4.4823e+05
4.4855e+05
4.4886e+05
4.4896e+05
4.5038e+05
4.5049e+05
4.5189e+05
4.5198e+05
4.522e+05
4.523e+05
4.5284e+05
4.5293e+05
4.5315e+05
4.5326e+05
4.5347e+05
4.5357e+05
4.5535e+05
4.569e+05
4.5722e+05
4.5874e+05
4.5883e+05
4.5906e+05
4.5916e+05
4.6206e+05
4.6235e+05
4.6244e+05
4.6593e+05
4.6623e+05
4.6654e+05
4.6684e+05
4.6713e+05
4.6807e+05
4.6817e+05
4.6837e+05
4.6848e+05
4.6958e+05
4.699e+05
4.7e+05
4.702e+05
4.703e+05
4.717e+05
4.7179e+05
4.7201e+05
4.7211e+05
4.7292e+05
4.7589e+05
4.7599e+05
4.7796e+05
4.7806e+05
4.7949e+05
4.7979e+05
4.8009e+05
4.8105e+05
4.8114e+05
4.8136e+05
4.8146e+05
4.8166e+05
4.8289e+05
4.83e+05
4.8319e+05
4.833e+05
4.835e+05
4.8359e+05
4.841e+05
4.8439e+05
4.8534e+05
4.8544e+05
4.8747e+05
4.8756e+05
4.9504e+05
4.9655e+05
4.9684e+05
4.9713e+05
4.9741e+05
4.9771e+05
4.9829e+05
4.9857e+05
4.9885e+05
4.9912e+05
4.9915e+05
4.9939e+05
4.9968e+05
4.9974e+05
5.0083e+05
5.0086e+05
5.0111e+05
5.0138e+05
5.0166e+05
5.0196e+05
5.0254e+05
5.0281e+05
5.031e+05
5.0338e+05
5.0365e+05
5.0393e+05
5.0422e+05
5.0451e+05
5.048e+05
5.0537e+05
5.0564e+05
5.0622e+05
5.0652e+05
5.0681e+05
5.0709e+05
5.0765e+05
5.0793e+05
5.082e+05
5.085e+05
5.0878e+05
5.0908e+05
5.0936e+05
5.0964e+05
5.1047e+05
5.1077e+05
5.1107e+05
5.1165e+05
5.1193e+05
5.1222e+05
5.1249e+05
5.1279e+05
5.1338e+05
5.1367e+05
5.1396e+05
5.1425e+05
5.1452e+05
5.1482e+05
5.1513e+05
5.1522e+05
5.1573e+05
5.1602e+05
5.1631e+05
5.1659e+05
5.1669e+05
5.1689e+05
5.17e+05
5.1721e+05
5.1753e+05
5.1842e+05
5.1871e+05
5.1879e+05
5.19e+05
5.1931e+05
5.1939e+05
5.1962e+05
5.211e+05
5.2119e+05
5.214e+05
5.2149e+05
5.2284e+05
5.2312e+05
5.232e+05
5.2341e+05
5.2349e+05
5.24e+05
5.2429e+05
5.2459e+05
5.2488e+05
5.2516e+05
5.2575e+05
5.2606e+05
5.2616e+05
5.2636e+05
5.2665e+05
5.2674e+05
5.2694e+05
5.2703e+05
5.2724e+05
5.2784e+05
5.2815e+05
5.2826e+05
5.2847e+05
5.2877e+05
5.2887e+05
5.2908e+05
5.2938e+05
5.2967e+05
5.2998e+05
5.3008e+05
5.303e+05
5.304e+05
5.3061e+05
5.3091e+05
5.3094e+05
5.312e+05
5.3149e+05
5.321e+05
5.3221e+05
5.3241e+05
5.3273e+05
5.3303e+05
5.3334e+05
5.3363e+05
5.3373e+05
5.3423e+05
5.3454e+05
5.3515e+05
5.3545e+05
5.3574e+05
5.3603e+05
5.3633e+05
5.3643e+05
5.3663e+05
5.3669e+05
5.3694e+05
5.3723e+05
5.3753e+05
5.3762e+05
5.3783e+05
5.3812e+05
5.3842e+05
5.3852e+05
5.3873e+05
5.3883e+05
5.3905e+05
5.3916e+05
5.3936e+05
5.3968e+05
5.3978e+05
5.3998e+05
5.4008e+05
5.4028e+05
5.4154e+05
5.4164e+05
5.4185e+05
5.4195e+05
5.4216e+05
5.4226e+05
5.4247e+05
5.4256e+05
5.4277e+05
5.4287e+05
5.4309e+05
5.4342e+05
5.4494e+05
5.4503e+05
5.4525e+05
5.4535e+05
5.4558e+05
5.4567e+05
5.4588e+05
5.4598e+05
5.4619e+05
5.4708e+05
5.4718e+05
5.474e+05
5.475e+05
5.4772e+05
5.4782e+05
5.4802e+05
5.4812e+05
5.5076e+05
5.5136e+05
5.5146e+05
5.5169e+05
5.5179e+05
5.5201e+05
5.5211e+05
5.5231e+05
5.5263e+05
5.5294e+05
5.5415e+05
5.5425e+05
5.5446e+05
5.5456e+05
5.5477e+05
5.5487e+05
5.6043e+05
5.6433e+05
5.6643e+05
5.6674e+05
5.6683e+05
5.6735e+05
5.6765e+05
5.6774e+05
5.6794e+05
5.6803e+05
5.6914e+05
5.6923e+05
5.6975e+05
5.6985e+05
5.7035e+05
5.7043e+05
5.7064e+05
5.7073e+05
5.7094e+05
5.7104e+05
5.7157e+05
5.7187e+05
5.7217e+05
5.7227e+05
5.7247e+05
5.7257e+05
5.7277e+05
5.7286e+05
5.7307e+05
5.7338e+05
5.7348e+05
5.7369e+05
5.7399e+05
5.7458e+05
5.7467e+05
5.7487e+05
5.7516e+05
5.7526e+05
5.7547e+05
5.7558e+05
5.758e+05
5.761e+05
5.7669e+05
5.7679e+05
5.7699e+05
5.7728e+05
5.776e+05
5.7791e+05
5.7801e+05
5.7822e+05
5.7831e+05
5.7852e+05
5.7883e+05
5.7892e+05
5.7912e+05
5.7922e+05
5.7972e+05
5.7983e+05
5.8004e+05
5.8014e+05
5.8036e+05
5.8066e+05
5.8076e+05
5.8096e+05
5.8106e+05
5.8126e+05
5.8155e+05
5.8166e+05
5.8338e+05
5.8367e+05
5.8376e+05
5.9214e+05
5.9302e+05
5.9594e+05
5.9622e+05
5.9632e+05
5.9681e+05
5.969e+05
5.9712e+05
5.9743e+05
5.9753e+05
5.9804e+05
5.9924e+05
5.9935e+05
5.9956e+05
6.0017e+05
6.0047e+05
6.0057e+05
6.0105e+05
6.0115e+05
6.0137e+05
6.0147e+05
6.0168e+05
6.0178e+05
6.0229e+05
6.0258e+05
6.0267e+05
6.0349e+05
6.0359e+05
6.038e+05
6.039e+05
6.0411e+05
6.0421e+05
6.0472e+05
6.0481e+05
6.0502e+05
6.0511e+05
6.0561e+05
6.0571e+05
6.0592e+05
6.0602e+05
6.0624e+05
6.0654e+05
6.0684e+05
6.0713e+05
6.0723e+05
6.0774e+05
6.0838e+05
6.0847e+05
6.0868e+05
6.0878e+05
6.0899e+05
6.0929e+05
6.0959e+05
6.0969e+05
6.099e+05
6.1e+05
6.1022e+05
6.1032e+05
6.1053e+05
6.1063e+05
6.1084e+05
6.1093e+05
6.1204e+05
6.1215e+05
6.1236e+05
6.1268e+05
6.1298e+05
6.1307e+05
6.1328e+05
6.1358e+05
6.1387e+05
6.1397e+05
6.1418e+05
6.1428e+05
6.1449e+05
6.1458e+05
6.148e+05
6.151e+05
6.1539e+05
6.1549e+05
6.1598e+05
6.1607e+05
6.1628e+05
6.1638e+05
6.166e+05
6.1693e+05
6.1813e+05
6.1874e+05
6.1885e+05
6.1905e+05
6.1916e+05
6.1965e+05
6.1995e+05
6.2024e+05
6.2053e+05
6.2063e+05
6.2084e+05
6.2115e+05
6.2125e+05
6.2174e+05
6.2182e+05
6.223e+05
6.2239e+05
6.2288e+05
6.2298e+05
6.2319e+05
6.2327e+05
6.2348e+05
6.2377e+05
6.2384e+05
6.2434e+05
6.2443e+05
6.2461e+05
6.2489e+05
6.2498e+05
6.2518e+05
6.2575e+05
6.2602e+05
6.2656e+05
6.271e+05
6.2739e+05
6.2767e+05
6.2823e+05
6.2851e+05
6.2859e+05
6.2878e+05
6.2905e+05
6.2934e+05
6.2963e+05
6.2991e+05
6.2995e+05
6.3019e+05
6.3047e+05
6.3101e+05
6.3127e+05
6.313e+05
6.3295e+05
6.335e+05
6.3357e+05
6.3378e+05
6.3406e+05
6.3434e+05
6.346e+05
6.3514e+05
6.354e+05
6.3595e+05
6.3623e+05
6.3652e+05
6.368e+05
6.3707e+05
6.3734e+05
6.3762e+05
6.3791e+05
6.388e+05
6.3909e+05
6.3966e+05
6.4024e+05
6.4054e+05
6.4084e+05
6.4092e+05
6.4113e+05
6.4198e+05
6.4207e+05
6.4258e+05
6.4288e+05
6.4297e+05
6.4316e+05
6.4345e+05
6.4353e+05
6.4603e+05
6.463e+05
6.4691e+05
6.4721e+05
6.475e+05
6.476e+05
6.478e+05
6.4788e+05
6.4808e+05
6.4817e+05
6.4952e+05
