327
586
838
1093
1340
1592
1837
2093
2339
2578
2827
3075
3325
3567
3817
4064
4313
4568
4817
5066
5309
5562
5810
6055
6304
6555
6807
7060
7322
7578
7832
8094
8347
8603
8851
9112
9367
9621
9883
10139
10388
10644
10906
11165
11411
11675
11923
12178
12431
12692
12942
13195
13455
13706
13958
14203
14453
14702
14948
15203
15455
15704
15957
16217
16471
16724
16976
17228
17479
17734
17995
18244
18495
18747
18999
19250
19499
19754
20006
20260
20521
20780
21037
21291
21552
21803
22060
22314
22561
22812
23065
23320
23569
23821
24071
24315
24574
24823
25071
25323
25577
25825
26072
26319
26567
26816
27063
27313
27805
28058
28302
28559
28806
29057
29307
29557
29814
30057
30308
30556
30803
31052
31305
31548
31796
32042
32292
32544
32783
33033
33280
33530
33779
34022
34272
34513
34764
35009
35254
35493
35739
35984
36230
36484
36732
36981
37227
37480
37729
37976
38231
38483
38735
38987
39242
39496
39739
39997
40245
40501
40748
41004
41255
41503
41763
42011
42261
42511
42769
43019
43263
43520
43764
44016
44261
44513
44761
45004
45262
45512
45766
46011
46268
46516
46766
47027
47280
47536
47790
48054
48306
48556
48812
49067
49320
49581
49839
50092
50341
50606
50862
51125
51379
51641
51892
52150
52412
52667
52924
53181
53439
53692
53934
54184
54433
54682
54937
55189
55439
55686
55941
56188
56443
56690
56946
57198
57450
57707
57956
58207
58459
58716
58968
59220
59475
59724
59978
60230
60485
60733
60979
61236
61482
61736
61979
62230
62482
62737
62991
63242
63495
63748
64015
64273
64529
64786
65044
65298
65553
65814
66069
66323
66587
66845
67102
67363
67621
67886
68143
68409
68667
68924
69192
69452
69718
69968
70228
70483
70738
70997
71253
71501
71761
72013
72269
72517
72779
73033
73286
73542
73798
74049
74297
74555
74802
75048
75296
75544
75794
76045
76305
76560
76814
77079
77338
77592
77842
78098
78353
78607
78869
79121
79370
79623
79882
80132
80380
80638
80892
81147
81412
81672
81924
82176
82442
82695
82948
83200
83454
83708
83965
84226
84478
84734
84997
85261
85524
85779
86045
86297
86559
86826
87090
87348
87615
87877
88134
88388
88652
88905
89166
89424
89683
89938
90194
90455
90708
90964
91213
91465
91715
91966
92210
92461
92708
92958
93207
93455
93700
93951
94188
94428
94673
94930
95172
95414
95652
95877
96152
96388
96639
96882
97128
97370
97621
97853
98102
98352
98594
98846
99086
1.0064e+05
1.0368e+05
1.0958e+05
1.1667e+05
1.2259e+05
1.3059e+05
1.9857e+05
1.9884e+05
1.991e+05
1.9935e+05
1.9959e+05
1.9984e+05
2.0009e+05
2.0033e+05
2.0058e+05
2.0084e+05
2.0109e+05
2.0134e+05
2.016e+05
2.0185e+05
2.0211e+05
2.0236e+05
2.0261e+05
2.0286e+05
2.0311e+05
2.0336e+05
2.0361e+05
2.0386e+05
2.0411e+05
2.0436e+05
2.0461e+05
2.0486e+05
2.0511e+05
2.0535e+05
2.056e+05
2.0586e+05
2.0611e+05
2.0636e+05
2.0661e+05
2.0686e+05
2.0711e+05
2.0735e+05
2.0759e+05
2.0785e+05
2.0809e+05
2.0833e+05
2.0859e+05
2.0884e+05
2.0909e+05
2.0933e+05
2.0958e+05
2.0983e+05
2.1009e+05
2.1033e+05
2.1058e+05
2.1083e+05
2.1108e+05
2.1133e+05
2.1158e+05
2.1182e+05
2.1207e+05
2.1232e+05
2.1256e+05
2.128e+05
2.1305e+05
2.1329e+05
2.1354e+05
2.1378e+05
2.1403e+05
2.1428e+05
2.1452e+05
2.1477e+05
2.1502e+05
2.1528e+05
2.1552e+05
2.1577e+05
2.1601e+05
2.1626e+05
2.1651e+05
2.1676e+05
2.1701e+05
2.1725e+05
2.1751e+05
2.1776e+05
2.1801e+05
2.1825e+05
2.185e+05
2.1875e+05
2.19e+05
2.1926e+05
2.1951e+05
2.1977e+05
2.2002e+05
2.2028e+05
2.2053e+05
2.2078e+05
2.2103e+05
2.2128e+05
2.2153e+05
2.2178e+05
2.2204e+05
2.2228e+05
2.2254e+05
2.228e+05
2.2305e+05
2.233e+05
2.2356e+05
2.2381e+05
2.2407e+05
2.2432e+05
2.2458e+05
2.2483e+05
2.2508e+05
2.2534e+05
2.2559e+05
2.2585e+05
2.2609e+05
2.2634e+05
2.2659e+05
2.2684e+05
2.271e+05
2.2735e+05
2.276e+05
2.2784e+05
2.2811e+05
2.2836e+05
2.2861e+05
2.2887e+05
2.2912e+05
2.2937e+05
2.2963e+05
2.2989e+05
2.3014e+05
2.3039e+05
2.3065e+05
2.3091e+05
2.3116e+05
2.3141e+05
2.3167e+05
2.3191e+05
2.3217e+05
2.3242e+05
2.3267e+05
2.3292e+05
2.3317e+05
2.3343e+05
2.3368e+05
2.3392e+05
2.3418e+05
2.3442e+05
2.3467e+05
2.3492e+05
2.3517e+05
2.3542e+05
2.3566e+05
2.3592e+05
2.3617e+05
2.3642e+05
2.3666e+05
2.3692e+05
2.3717e+05
2.3742e+05
2.3767e+05
2.3792e+05
2.3817e+05
2.3842e+05
2.3867e+05
2.3892e+05
2.3917e+05
2.3941e+05
2.3967e+05
2.3991e+05
2.4016e+05
2.4042e+05
2.4067e+05
2.4092e+05
2.4117e+05
2.4143e+05
2.4168e+05
2.4193e+05
2.4218e+05
2.4243e+05
2.4268e+05
2.4293e+05
2.4366e+05
2.4391e+05
2.4416e+05
2.4441e+05
2.4463e+05
2.4491e+05
2.4516e+05
2.4542e+05
2.4592e+05
2.4618e+05
2.4642e+05
2.4685e+05
2.4743e+05
2.4767e+05
2.4792e+05
2.4818e+05
2.4843e+05
2.4868e+05
2.4892e+05
2.4918e+05
2.4944e+05
2.4969e+05
2.5251e+05
2.5477e+05
2.5505e+05
2.5531e+05
2.561e+05
2.5635e+05
2.5661e+05
2.5686e+05
2.5712e+05
2.5737e+05
2.5888e+05
2.6187e+05
2.6262e+05
2.6312e+05
2.6958e+05
2.7159e+05
2.7184e+05
2.7209e+05
2.7234e+05
2.7333e+05
2.7357e+05
2.7381e+05
2.7406e+05
2.7431e+05
2.7678e+05
2.7727e+05
2.78e+05
2.7842e+05
2.7873e+05
2.7898e+05
2.7921e+05
2.7947e+05
2.7973e+05
2.7999e+05
2.8023e+05
2.8049e+05
2.8075e+05
2.8152e+05
2.8177e+05
2.82e+05
2.8278e+05
2.8302e+05
2.8327e+05
2.8353e+05
2.8378e+05
2.8404e+05
2.8428e+05
2.9099e+05
2.9362e+05
2.9388e+05
3.4735e+05
3.645e+05
4.4437e+05
4.5332e+05
4.7636e+05
4.9862e+05
5.0025e+05
5.0394e+05
5.2257e+05
5.2308e+05
5.2918e+05
5.3075e+05
5.3135e+05
5.3315e+05
5.3375e+05
5.343e+05
5.3456e+05
5.3591e+05
5.3827e+05
5.4057e+05
5.4428e+05
5.4482e+05
5.4641e+05
5.4694e+05
5.4774e+05
5.4934e+05
5.4988e+05
5.5093e+05
5.5147e+05
5.5174e+05
5.5385e+05
5.5437e+05
5.549e+05
5.5543e+05
5.5569e+05
5.5622e+05
5.5702e+05
5.5728e+05
5.5755e+05
5.5781e+05
5.5834e+05
5.586e+05
5.6203e+05
5.6333e+05
5.6437e+05
5.6463e+05
5.6567e+05
5.6826e+05
5.6902e+05
5.6954e+05
5.7058e+05
5.7085e+05
5.7188e+05
5.7343e+05
5.7369e+05
5.7524e+05
5.7576e+05
5.7602e+05
5.7655e+05
5.7732e+05
5.7836e+05
5.7913e+05
5.8119e+05
5.825e+05
5.8434e+05
5.8537e+05
5.8589e+05
5.8666e+05
5.877e+05
5.9033e+05
5.9059e+05
5.9085e+05
5.9422e+05
5.9873e+05
6.0057e+05
6.0162e+05
6.0317e+05
6.0369e+05
6.0501e+05
6.0526e+05
6.063e+05
6.0681e+05
6.0785e+05
6.1882e+05
6.2093e+05
6.3142e+05
6.3295e+05
6.3426e+05
6.3891e+05
6.3918e+05
6.3944e+05
6.397e+05
6.3996e+05
6.402e+05
6.4073e+05
6.4098e+05
6.4123e+05
6.415e+05
6.4203e+05
6.4227e+05
6.4254e+05
6.4279e+05
6.4306e+05
6.4357e+05
6.441e+05
6.4437e+05
6.4463e+05
6.4489e+05
6.4514e+05
6.454e+05
6.4566e+05
6.4592e+05
6.4617e+05
6.467e+05
6.4722e+05
6.4748e+05
6.4826e+05
6.4852e+05
6.4879e+05
6.4905e+05
6.493e+05
6.4957e+05
-1
465
506
724
762
976
1014
1229
1266
1473
1514
1728
1769
1978
2018
2228
2267
2472
2512
2711
2753
2960
3002
3212
3252
3459
3496
3706
3746
3953
3996
4199
4239
4450
4491
4706
4745
4950
4989
5197
5237
5448
5699
5738
5949
5988
6190
6229
6444
6483
6692
6731
6945
6983
7200
7240
7459
7497
7716
7753
7968
8011
8234
8273
8487
8527
8738
8776
8993
9033
9250
9289
9503
9544
9761
9801
10022
10063
10282
10316
10526
10566
10790
10828
11044
11083
11305
11338
11550
11592
11816
12062
12103
12316
12357
12576
12616
12824
12866
13079
13117
13334
13375
13593
13632
13840
13883
14088
14128
14338
14380
14584
14625
14836
14878
15085
15128
15341
15380
15590
15630
15838
15878
16097
16138
16348
16391
16608
16649
16862
16901
17116
17155
17361
17402
17616
17656
17875
17915
18125
18163
18377
18416
18630
18667
18885
18923
19133
19173
19385
19423
19637
19675
19888
19925
20136
20177
20396
20436
20658
20697
20914
20953
21168
21209
21428
21469
21683
21723
21940
21977
22187
22229
22442
22482
22688
22730
22946
22988
23205
23246
23454
23494
23703
23744
23951
23989
24213
24242
24455
24492
24709
24742
24958
24999
25210
25248
25457
25495
25706
25746
25960
26001
26205
26249
26454
26505
26700
26743
26951
26989
27195
27237
27430
27477
27696
27735
27938
28197
28231
28443
28694
28732
28946
29188
29230
29447
29485
29694
29736
29948
30195
30234
30444
30484
30689
30729
30937
30977
31185
31227
31435
31472
31677
31721
31930
31971
32180
32217
32429
32470
32669
32710
32919
32961
33166
33204
33413
33453
33656
33703
33914
33953
34161
34204
34407
34442
34651
34691
34899
34937
35143
35184
35379
35418
35627
35666
35870
35910
36117
36156
36363
36402
36617
36652
36858
36901
37108
37150
37364
37403
37615
37657
37867
37904
38111
38153
38366
38403
38618
38655
38864
38906
39124
39163
39378
39419
39631
39878
39920
40132
40170
40386
40424
40628
40668
40888
40927
41139
41178
41390
41427
41642
41679
41896
41938
42147
42186
42397
42435
42655
42693
42900
42943
43154
43192
43401
43440
43652
43691
43899
43940
44152
44191
44403
44442
44647
44685
44892
44931
45143
45184
45397
45437
45649
45687
45893
45933
46151
46191
46403
46442
46654
46692
46905
46947
47162
47205
47416
47456
47669
47709
47934
47972
48191
48229
48443
48482
48691
48733
48950
48988
49203
49242
49455
49497
49722
49762
49976
50016
50227
50266
50484
50525
50746
50784
51000
51043
51257
51296
51521
51561
51776
51815
52035
52075
52291
52552
52590
52805
52842
53062
53100
53321
53363
53576
53616
53833
53870
54077
54328
54363
54573
54609
54824
54862
55079
55115
55324
55365
55577
55614
55829
55867
56078
56116
56328
56366
56574
56615
56831
56869
57079
57119
57332
57372
57583
57626
57843
57881
58092
58131
58338
58381
58600
58640
58845
58888
59100
59141
59352
59393
59603
59644
59854
59897
60106
60150
60358
60404
60616
60657
60865
60906
61115
61158
61367
61407
61617
61659
61864
61902
62117
62156
62364
62405
62616
62657
62870
62911
63126
63167
63378
63420
63634
63672
63890
63932
64152
64191
64409
64451
64662
64703
64926
64965
65187
65223
65441
65478
65700
65736
65952
65990
66208
66469
66731
66768
66987
67028
67240
67280
67504
67543
67765
67805
68030
68065
68293
68332
68547
68587
68808
68847
69064
69106
69332
69372
69595
69634
69848
69888
70108
70148
70364
70403
70618
70661
70876
70916
71130
71175
71387
71427
71636
71677
71901
71943
72154
72192
72403
72443
72659
72702
72914
72953
73172
73211
73421
73466
73688
73726
73935
73978
74188
74223
74437
74480
74687
74727
74937
74977
75180
75219
75435
75476
75683
75722
75931
75970
76186
76228
76439
76480
76697
76736
76954
76994
77213
77257
77478
77516
77725
77764
77984
78024
78235
78276
78490
78529
78743
78784
79004
79041
79251
79292
79499
79543
79767
79811
80018
80058
80268
80308
80517
80559
80774
80815
81028
81068
81286
81327
81551
81592
81808
81847
82058
82097
82320
82359
82574
82616
82830
82869
83075
83118
83337
83377
83586
83630
83844
83884
84105
84147
84363
84400
84612
84655
84872
84909
85138
85178
85398
85438
85656
85698
85919
85963
86181
86220
86436
86478
86701
86740
86964
87005
87221
87267
87483
87527
87757
87797
88019
88056
88275
88315
88535
88571
88781
88825
89043
89084
89304
89344
89570
89605
89818
89862
90076
90113
90335
90375
90592
90628
90845
90886
91093
91131
91352
91388
91595
91635
91849
91888
92095
92139
92345
92383
92596
92637
92844
92882
93094
93134
93341
93381
93589
93628
93830
93875
94051
94118
94310
94360
94567
94622
94792
94858
95056
95110
95283
95341
95536
95586
95797
95834
96011
96079
96269
96491
96560
96767
96806
97010
97054
97257
97300
97503
97546
97749
97790
97991
98033
98244
98294
98491
98529
98737
98774
98976
99015
99225
1.0023e+05
1.0048e+05
1.0052e+05
1.009e+05
1.0149e+05
1.0161e+05
1.0217e+05
1.0267e+05
1.0318e+05
1.0392e+05
1.042e+05
1.0469e+05
1.0543e+05
1.059e+05
1.0616e+05
1.0641e+05
1.0666e+05
1.0714e+05
1.0739e+05
1.0787e+05
1.0812e+05
1.0837e+05
1.0861e+05
1.0984e+05
1.1132e+05
1.1234e+05
1.126e+05
1.1336e+05
1.1338e+05
1.1413e+05
1.1415e+05
1.1465e+05
1.149e+05
1.1515e+05
1.1566e+05
1.1592e+05
1.1745e+05
1.1842e+05
1.1874e+05
1.1979e+05
1.2055e+05
1.2081e+05
1.2158e+05
1.2184e+05
1.2207e+05
1.2235e+05
1.2284e+05
1.231e+05
1.2359e+05
1.2385e+05
1.241e+05
1.2561e+05
1.2585e+05
1.266e+05
1.2684e+05
1.2709e+05
1.2734e+05
1.2759e+05
1.2784e+05
1.3085e+05
1.3086e+05
1.3944e+05
1.3948e+05
1.3967e+05
1.3972e+05
1.3993e+05
1.3998e+05
1.4018e+05
1.4023e+05
1.4068e+05
1.4073e+05
1.4093e+05
1.4097e+05
1.4143e+05
1.4147e+05
1.4168e+05
1.4172e+05
1.4193e+05
1.4197e+05
1.4218e+05
1.4222e+05
1.4243e+05
1.4247e+05
1.4268e+05
1.4272e+05
1.4293e+05
1.4297e+05
1.4317e+05
1.4321e+05
1.4342e+05
1.4346e+05
1.4366e+05
1.4371e+05
1.4391e+05
1.4396e+05
1.4416e+05
1.442e+05
1.4441e+05
1.4445e+05
1.4466e+05
1.447e+05
1.4492e+05
1.4496e+05
1.4518e+05
1.4543e+05
1.4547e+05
1.4568e+05
1.4572e+05
1.4594e+05
1.4598e+05
1.4624e+05
1.4646e+05
1.465e+05
1.4671e+05
1.4675e+05
1.4697e+05
1.4702e+05
1.4723e+05
1.4727e+05
1.4749e+05
1.4753e+05
1.4775e+05
1.4779e+05
1.48e+05
1.4804e+05
1.4826e+05
1.4829e+05
1.4851e+05
1.4855e+05
1.4877e+05
1.4881e+05
1.4903e+05
1.4907e+05
1.4928e+05
1.4932e+05
1.4954e+05
1.4958e+05
1.4979e+05
1.4983e+05
1.5005e+05
1.5009e+05
1.5031e+05
1.5035e+05
1.5057e+05
1.5061e+05
1.5083e+05
1.5087e+05
1.5135e+05
1.5139e+05
1.5161e+05
1.5165e+05
1.5187e+05
1.5191e+05
1.5212e+05
1.5217e+05
1.5238e+05
1.5242e+05
1.5263e+05
1.5267e+05
1.5342e+05
1.5346e+05
1.5367e+05
1.5371e+05
1.5394e+05
1.5398e+05
1.5419e+05
1.5423e+05
1.5445e+05
1.5449e+05
1.547e+05
1.5474e+05
1.5496e+05
1.55e+05
1.5522e+05
1.5526e+05
1.5547e+05
1.5551e+05
1.5573e+05
1.5577e+05
1.5624e+05
1.5628e+05
1.565e+05
1.5654e+05
1.5676e+05
1.568e+05
1.5701e+05
1.5705e+05
1.5726e+05
1.573e+05
1.5751e+05
1.5755e+05
1.5775e+05
1.578e+05
1.58e+05
1.5804e+05
1.5825e+05
1.583e+05
1.5851e+05
1.5854e+05
1.5875e+05
1.588e+05
1.59e+05
1.5904e+05
1.5926e+05
1.593e+05
1.5951e+05
1.5955e+05
1.6e+05
1.6004e+05
1.6029e+05
1.605e+05
1.6054e+05
1.6075e+05
1.6079e+05
1.61e+05
1.6105e+05
1.6125e+05
1.6129e+05
1.615e+05
1.6154e+05
1.6175e+05
1.618e+05
1.6201e+05
1.6205e+05
1.6227e+05
1.6231e+05
1.6252e+05
1.6255e+05
1.6277e+05
1.6281e+05
1.6302e+05
1.6306e+05
1.6328e+05
1.6332e+05
1.6354e+05
1.6358e+05
1.6379e+05
1.6383e+05
1.6404e+05
1.6409e+05
1.643e+05
1.6434e+05
1.6456e+05
1.646e+05
1.6482e+05
1.6486e+05
1.6507e+05
1.6511e+05
1.6533e+05
1.6537e+05
1.6558e+05
1.6562e+05
1.6583e+05
1.6587e+05
1.6736e+05
1.674e+05
1.6761e+05
1.6766e+05
1.6787e+05
1.679e+05
1.6812e+05
1.6816e+05
1.6862e+05
1.6866e+05
1.6964e+05
1.6968e+05
1.7041e+05
1.7045e+05
1.7091e+05
1.7096e+05
1.7118e+05
1.7121e+05
1.7143e+05
1.7169e+05
1.7173e+05
1.7195e+05
1.7199e+05
1.7221e+05
1.7224e+05
1.7247e+05
1.7251e+05
1.7273e+05
1.7277e+05
1.73e+05
1.7325e+05
1.7329e+05
1.7351e+05
1.7355e+05
1.7377e+05
1.7403e+05
1.7429e+05
1.7433e+05
1.7454e+05
1.7458e+05
1.7479e+05
1.7483e+05
1.7505e+05
1.7509e+05
1.753e+05
1.7535e+05
1.7633e+05
1.7637e+05
1.7658e+05
1.7662e+05
1.7684e+05
1.7688e+05
1.771e+05
1.7714e+05
1.8095e+05
1.8099e+05
1.8224e+05
1.8228e+05
1.825e+05
1.838e+05
1.8384e+05
1.8406e+05
1.8432e+05
1.8436e+05
1.8458e+05
1.8463e+05
1.8592e+05
1.8596e+05
1.8619e+05
1.8623e+05
1.8751e+05
1.8755e+05
1.8777e+05
1.8781e+05
1.8802e+05
1.8806e+05
1.8933e+05
1.8938e+05
1.896e+05
1.8964e+05
1.9194e+05
1.9198e+05
1.9298e+05
1.9302e+05
1.9323e+05
1.9327e+05
1.935e+05
1.9353e+05
1.9375e+05
1.9379e+05
1.94e+05
1.9404e+05
1.9425e+05
1.9429e+05
1.945e+05
1.9454e+05
1.9476e+05
1.948e+05
1.9525e+05
1.9529e+05
1.955e+05
1.9554e+05
1.9575e+05
1.9578e+05
1.9598e+05
1.9602e+05
1.9624e+05
1.9628e+05
1.9697e+05
1.9701e+05
1.9877e+05
1.9898e+05
1.9902e+05
1.9923e+05
1.9927e+05
1.9948e+05
1.9952e+05
1.9972e+05
1.9976e+05
1.9997e+05
2.0001e+05
2.0022e+05
2.0026e+05
2.0047e+05
2.0051e+05
2.0072e+05
2.0077e+05
2.0097e+05
2.0101e+05
2.0122e+05
2.0126e+05
2.0148e+05
2.0152e+05
2.0173e+05
2.0178e+05
2.0199e+05
2.0203e+05
2.0224e+05
2.0228e+05
2.025e+05
2.0254e+05
2.0275e+05
2.0279e+05
2.03e+05
2.0325e+05
2.0329e+05
2.035e+05
2.0354e+05
2.0375e+05
2.0379e+05
2.0399e+05
2.0403e+05
2.0425e+05
2.0429e+05
2.0449e+05
2.0453e+05
2.0474e+05
2.0478e+05
2.0499e+05
2.0503e+05
2.0524e+05
2.0528e+05
2.0549e+05
2.0553e+05
2.0574e+05
2.0578e+05
2.0599e+05
2.0604e+05
2.0625e+05
2.0629e+05
2.0649e+05
2.0653e+05
2.0674e+05
2.0678e+05
2.0699e+05
2.0703e+05
2.0724e+05
2.0728e+05
2.0752e+05
2.0773e+05
2.0777e+05
2.0798e+05
2.0802e+05
2.0821e+05
2.0826e+05
2.0845e+05
2.0851e+05
2.0872e+05
2.0876e+05
2.0896e+05
2.09e+05
2.0921e+05
2.0925e+05
2.0946e+05
2.0951e+05
2.0976e+05
2.0997e+05
2.1001e+05
2.1025e+05
2.1047e+05
2.1051e+05
2.107e+05
2.1075e+05
2.1096e+05
2.11e+05
2.1122e+05
2.1126e+05
2.1147e+05
2.1151e+05
2.1171e+05
2.1175e+05
2.1199e+05
2.122e+05
2.1224e+05
2.1245e+05
2.1249e+05
2.1269e+05
2.1274e+05
2.1293e+05
2.1298e+05
2.1318e+05
2.1322e+05
2.1342e+05
2.1346e+05
2.1366e+05
2.1371e+05
2.1391e+05
2.1396e+05
2.1416e+05
2.142e+05
2.1441e+05
2.1445e+05
2.1465e+05
2.1469e+05
2.149e+05
2.1495e+05
2.1516e+05
2.1519e+05
2.154e+05
2.1544e+05
2.1565e+05
2.1569e+05
2.159e+05
2.1594e+05
2.1614e+05
2.1619e+05
2.1639e+05
2.1643e+05
2.1665e+05
2.1669e+05
2.1689e+05
2.1693e+05
2.1714e+05
2.1718e+05
2.1738e+05
2.1743e+05
2.1764e+05
2.1768e+05
2.179e+05
2.1794e+05
2.1814e+05
2.1818e+05
2.1839e+05
2.1843e+05
2.1863e+05
2.1868e+05
2.1888e+05
2.1892e+05
2.1913e+05
2.1918e+05
2.1939e+05
2.1943e+05
2.1964e+05
2.1969e+05
2.1989e+05
2.1993e+05
2.2015e+05
2.202e+05
2.2041e+05
2.2045e+05
2.2066e+05
2.207e+05
2.2091e+05
2.2095e+05
2.2116e+05
2.212e+05
2.2141e+05
2.2145e+05
2.2166e+05
2.217e+05
2.2191e+05
2.2196e+05
2.2217e+05
2.2221e+05
2.2241e+05
2.2246e+05
2.2267e+05
2.2272e+05
2.2293e+05
2.2297e+05
2.2318e+05
2.2322e+05
2.2343e+05
2.2347e+05
2.2369e+05
2.2373e+05
2.2395e+05
2.2398e+05
2.242e+05
2.2424e+05
2.2445e+05
2.245e+05
2.2471e+05
2.2475e+05
2.2496e+05
2.25e+05
2.252e+05
2.2525e+05
2.2547e+05
2.2551e+05
2.2572e+05
2.2576e+05
2.2597e+05
2.2601e+05
2.2622e+05
2.2627e+05
2.2648e+05
2.2651e+05
2.2672e+05
2.2676e+05
2.2697e+05
2.2702e+05
2.2724e+05
2.2727e+05
2.2748e+05
2.2752e+05
2.2773e+05
2.2777e+05
2.2799e+05
2.2803e+05
2.2824e+05
2.2828e+05
2.2849e+05
2.2854e+05
2.2874e+05
2.2878e+05
2.29e+05
2.2904e+05
2.2925e+05
2.2929e+05
2.2951e+05
2.2955e+05
2.2977e+05
2.2981e+05
2.3003e+05
2.3006e+05
2.3028e+05
2.3032e+05
2.3053e+05
2.3057e+05
2.3078e+05
2.3083e+05
2.3104e+05
2.3108e+05
2.3129e+05
2.3133e+05
2.3154e+05
2.3158e+05
2.3179e+05
2.3184e+05
2.3204e+05
2.3209e+05
2.323e+05
2.3235e+05
2.3256e+05
2.326e+05
2.3281e+05
2.3284e+05
2.3305e+05
2.3309e+05
2.3331e+05
2.3335e+05
2.3356e+05
2.336e+05
2.3381e+05
2.3385e+05
2.3406e+05
2.341e+05
2.3431e+05
2.3435e+05
2.3456e+05
2.346e+05
2.348e+05
2.3485e+05
2.3506e+05
2.351e+05
2.353e+05
2.3534e+05
2.3555e+05
2.3559e+05
2.358e+05
2.3584e+05
2.3605e+05
2.3609e+05
2.363e+05
2.3634e+05
2.3655e+05
2.3659e+05
2.3679e+05
2.3684e+05
2.3705e+05
2.3709e+05
2.373e+05
2.3734e+05
2.3756e+05
2.376e+05
2.3781e+05
2.3785e+05
2.3805e+05
2.3809e+05
2.383e+05
2.3834e+05
2.3855e+05
2.3859e+05
2.388e+05
2.3884e+05
2.3905e+05
2.3909e+05
2.3929e+05
2.3934e+05
2.3955e+05
2.3959e+05
2.398e+05
2.3984e+05
2.4005e+05
2.4009e+05
2.403e+05
2.4034e+05
2.4055e+05
2.4059e+05
2.408e+05
2.4084e+05
2.4105e+05
2.4109e+05
2.4131e+05
2.4135e+05
2.4156e+05
2.4161e+05
2.418e+05
2.4186e+05
2.4204e+05
2.421e+05
2.4232e+05
2.4235e+05
2.4256e+05
2.426e+05
2.4281e+05
2.4307e+05
2.4311e+05
2.438e+05
2.4384e+05
2.4405e+05
2.4409e+05
2.4429e+05
2.4434e+05
2.4454e+05
2.4458e+05
2.4478e+05
2.4483e+05
2.4504e+05
2.4509e+05
2.4529e+05
2.4533e+05
2.4555e+05
2.456e+05
2.4606e+05
2.461e+05
2.4631e+05
2.4635e+05
2.4656e+05
2.4661e+05
2.4705e+05
2.4711e+05
2.4753e+05
2.4762e+05
2.478e+05
2.4806e+05
2.481e+05
2.4828e+05
2.4835e+05
2.486e+05
2.4885e+05
2.491e+05
2.4932e+05
2.4936e+05
2.4961e+05
2.4982e+05
2.4987e+05
2.5265e+05
2.5269e+05
2.5491e+05
2.5495e+05
2.5518e+05
2.5522e+05
2.5545e+05
2.5549e+05
2.5623e+05
2.5627e+05
2.5649e+05
2.5653e+05
2.5674e+05
2.57e+05
2.5704e+05
2.5725e+05
2.575e+05
2.5755e+05
2.5902e+05
2.5906e+05
2.6204e+05
2.6275e+05
2.628e+05
2.6325e+05
2.6329e+05
2.6972e+05
2.6976e+05
2.7173e+05
2.7177e+05
2.7198e+05
2.7222e+05
2.7226e+05
2.7246e+05
2.725e+05
2.7345e+05
2.735e+05
2.737e+05
2.7375e+05
2.7395e+05
2.7399e+05
2.7419e+05
2.7423e+05
2.7448e+05
2.7691e+05
2.7696e+05
2.774e+05
2.7744e+05
2.7813e+05
2.7817e+05
2.7858e+05
2.7863e+05
2.7884e+05
2.7891e+05
2.7909e+05
2.7915e+05
2.7937e+05
2.794e+05
2.7961e+05
2.7965e+05
2.7987e+05
2.799e+05
2.8013e+05
2.8016e+05
2.8035e+05
2.8042e+05
2.8062e+05
2.8069e+05
2.8089e+05
2.8165e+05
2.8169e+05
2.8191e+05
2.8194e+05
2.8216e+05
2.822e+05
2.8289e+05
2.8295e+05
2.8316e+05
2.8341e+05
2.8346e+05
2.8367e+05
2.8371e+05
2.8392e+05
2.8417e+05
2.8423e+05
2.844e+05
2.8447e+05
2.9109e+05
2.9374e+05
2.938e+05
2.9399e+05
2.9405e+05
2.9881e+05
2.9887e+05
2.9914e+05
2.9936e+05
2.9971e+05
3.0941e+05
3.3811e+05
3.3815e+05
3.3836e+05
3.384e+05
3.3861e+05
3.3865e+05
3.3886e+05
3.389e+05
3.3912e+05
3.3916e+05
3.3938e+05
3.3942e+05
3.3962e+05
3.3966e+05
3.3987e+05
3.3991e+05
3.4012e+05
3.4016e+05
3.4038e+05
3.4042e+05
3.4063e+05
3.4067e+05
3.4089e+05
3.4093e+05
3.4114e+05
3.4139e+05
3.4143e+05
3.4165e+05
3.4169e+05
3.419e+05
3.4194e+05
3.4215e+05
3.4219e+05
3.424e+05
3.4244e+05
3.4265e+05
3.4269e+05
3.429e+05
3.4294e+05
3.4315e+05
3.4319e+05
3.4341e+05
3.4345e+05
3.4366e+05
3.437e+05
3.4391e+05
3.4395e+05
3.4416e+05
3.4421e+05
3.4442e+05
3.4446e+05
3.4468e+05
3.4472e+05
3.4492e+05
3.4496e+05
3.452e+05
3.4522e+05
3.4545e+05
3.4548e+05
3.4569e+05
3.4573e+05
3.4595e+05
3.46e+05
3.4621e+05
3.4625e+05
3.4647e+05
3.4671e+05
3.4675e+05
3.4697e+05
3.4722e+05
3.4726e+05
3.4748e+05
3.4751e+05
3.4772e+05
3.4777e+05
3.4798e+05
3.4802e+05
3.484e+05
3.4841e+05
3.4916e+05
3.4917e+05
3.5853e+05
3.5879e+05
3.5884e+05
3.5902e+05
3.591e+05
3.5932e+05
3.5936e+05
3.5957e+05
3.5982e+05
3.5986e+05
3.6008e+05
3.6012e+05
3.6033e+05
3.6037e+05
3.6058e+05
3.6062e+05
3.6083e+05
3.6108e+05
3.6112e+05
3.6133e+05
3.6137e+05
3.6158e+05
3.6162e+05
3.6183e+05
3.6188e+05
3.6226e+05
3.6228e+05
3.6278e+05
3.628e+05
3.6363e+05
3.6368e+05
3.6388e+05
3.6392e+05
3.6414e+05
3.6418e+05
3.6439e+05
3.6443e+05
3.6464e+05
3.6469e+05
3.6489e+05
3.6493e+05
3.6513e+05
3.6517e+05
3.6544e+05
3.6563e+05
3.6568e+05
3.6605e+05
3.6607e+05
3.6765e+05
3.6769e+05
3.679e+05
3.6794e+05
3.6816e+05
3.682e+05
3.6841e+05
3.6845e+05
3.6882e+05
3.6884e+05
3.6985e+05
3.6987e+05
3.7037e+05
3.7038e+05
3.7141e+05
3.7142e+05
3.7226e+05
3.723e+05
3.7252e+05
3.7277e+05
3.7281e+05
3.7303e+05
3.7328e+05
3.7353e+05
3.738e+05
3.7383e+05
3.7405e+05
3.7431e+05
3.7457e+05
3.7483e+05
3.7487e+05
3.751e+05
3.7513e+05
3.7536e+05
3.7562e+05
3.7589e+05
3.7615e+05
3.7619e+05
3.7659e+05
3.766e+05
3.7711e+05
3.7712e+05
3.7789e+05
3.779e+05
3.8155e+05
3.8179e+05
3.8183e+05
3.8221e+05
3.8222e+05
3.8355e+05
3.8359e+05
3.8381e+05
3.8423e+05
3.8425e+05
3.8499e+05
3.85e+05
3.8533e+05
3.8537e+05
3.8559e+05
3.8601e+05
3.8603e+05
3.8678e+05
3.868e+05
3.8737e+05
3.8763e+05
3.8767e+05
3.8788e+05
3.8793e+05
3.8814e+05
3.8818e+05
3.884e+05
3.8844e+05
3.8865e+05
3.8869e+05
3.889e+05
3.8916e+05
3.892e+05
3.8942e+05
3.8967e+05
3.8992e+05
3.9017e+05
3.9023e+05
3.9042e+05
3.9046e+05
3.9067e+05
3.9071e+05
3.9093e+05
3.9097e+05
3.9119e+05
3.9144e+05
3.9147e+05
3.9169e+05
3.9195e+05
3.9221e+05
3.9225e+05
3.9264e+05
3.9265e+05
3.9392e+05
3.9394e+05
3.9469e+05
3.9471e+05
3.9553e+05
3.9558e+05
3.9583e+05
3.9604e+05
3.961e+05
3.9636e+05
3.9654e+05
3.966e+05
3.9677e+05
3.9685e+05
3.9736e+05
3.9758e+05
3.9762e+05
3.9782e+05
3.9787e+05
3.9808e+05
3.9812e+05
3.9833e+05
3.9837e+05
3.9857e+05
3.9862e+05
3.9884e+05
3.9889e+05
3.9909e+05
3.9913e+05
3.9934e+05
3.9939e+05
3.996e+05
3.9964e+05
3.9986e+05
3.999e+05
4.0011e+05
4.0015e+05
4.0036e+05
4.0063e+05
4.0067e+05
4.0088e+05
4.0092e+05
4.0114e+05
4.0118e+05
4.014e+05
4.0145e+05
4.0167e+05
4.0171e+05
4.0193e+05
4.0197e+05
4.0219e+05
4.0223e+05
4.0245e+05
4.025e+05
4.0272e+05
4.0277e+05
4.0298e+05
4.0302e+05
4.0324e+05
4.0329e+05
4.035e+05
4.0354e+05
4.0376e+05
4.038e+05
4.0403e+05
4.0407e+05
4.0428e+05
4.0433e+05
4.0454e+05
4.0459e+05
4.0481e+05
4.0485e+05
4.0508e+05
4.0512e+05
4.0534e+05
4.0539e+05
4.056e+05
4.0564e+05
4.0586e+05
4.0591e+05
4.0612e+05
4.0617e+05
4.0638e+05
4.0643e+05
4.0666e+05
4.067e+05
4.0692e+05
4.0717e+05
4.0721e+05
4.0743e+05
4.0748e+05
4.0769e+05
4.0774e+05
4.0796e+05
4.08e+05
4.0822e+05
4.0826e+05
4.0848e+05
4.0852e+05
4.0874e+05
4.0878e+05
4.09e+05
4.0904e+05
4.0926e+05
4.0931e+05
4.0952e+05
4.0957e+05
4.0979e+05
4.0983e+05
4.1006e+05
4.101e+05
4.1032e+05
4.1036e+05
4.1058e+05
4.1063e+05
4.1084e+05
4.1089e+05
4.1111e+05
4.1115e+05
4.1136e+05
4.114e+05
4.1162e+05
4.1166e+05
4.1188e+05
4.1192e+05
4.1214e+05
4.1218e+05
4.124e+05
4.1244e+05
4.1265e+05
4.127e+05
4.1292e+05
4.1296e+05
4.1318e+05
4.1322e+05
4.1343e+05
4.1347e+05
4.1369e+05
4.1373e+05
4.1394e+05
4.1399e+05
4.1421e+05
4.1425e+05
4.1447e+05
4.1451e+05
4.1473e+05
4.1478e+05
4.1499e+05
4.1503e+05
4.1525e+05
4.153e+05
4.1552e+05
4.1556e+05
4.1578e+05
4.1582e+05
4.1604e+05
4.1608e+05
4.1629e+05
4.1633e+05
4.1655e+05
4.1659e+05
4.168e+05
4.1684e+05
4.1706e+05
4.171e+05
4.1732e+05
4.1736e+05
4.1758e+05
4.1762e+05
4.1784e+05
4.1788e+05
4.181e+05
4.1814e+05
4.1836e+05
4.184e+05
4.1862e+05
4.1866e+05
4.1888e+05
4.1892e+05
4.1913e+05
4.1918e+05
4.194e+05
4.1945e+05
4.1967e+05
4.1971e+05
4.1993e+05
4.1997e+05
4.2018e+05
4.2023e+05
4.2044e+05
4.2049e+05
4.2071e+05
4.2075e+05
4.2096e+05
4.21e+05
4.2122e+05
4.2126e+05
4.2147e+05
4.2151e+05
4.2174e+05
4.2177e+05
4.2199e+05
4.2203e+05
4.2225e+05
4.2229e+05
4.2252e+05
4.2256e+05
4.2278e+05
4.2282e+05
4.2304e+05
4.2308e+05
4.233e+05
4.2334e+05
4.2356e+05
4.236e+05
4.2382e+05
4.2386e+05
4.2407e+05
4.2411e+05
4.2434e+05
4.2438e+05
4.246e+05
4.2464e+05
4.2485e+05
4.2489e+05
4.2511e+05
4.2516e+05
4.2537e+05
4.2542e+05
4.2564e+05
4.2568e+05
4.2589e+05
4.2594e+05
4.2616e+05
4.2621e+05
4.2642e+05
4.2647e+05
4.2668e+05
4.2672e+05
4.2695e+05
4.2699e+05
4.2721e+05
4.2725e+05
4.2747e+05
4.2751e+05
4.2773e+05
4.2778e+05
4.28e+05
4.2804e+05
4.2826e+05
4.283e+05
4.2852e+05
4.2856e+05
4.2879e+05
4.2883e+05
4.2905e+05
4.2909e+05
4.293e+05
4.2934e+05
4.2956e+05
4.2961e+05
4.2982e+05
4.2987e+05
4.3008e+05
4.3013e+05
4.3035e+05
4.304e+05
4.3062e+05
4.3066e+05
4.3088e+05
4.3092e+05
4.3114e+05
4.3118e+05
4.3141e+05
4.3145e+05
4.3167e+05
4.3172e+05
4.3193e+05
4.3197e+05
4.3219e+05
4.3223e+05
4.3249e+05
4.3271e+05
4.3276e+05
4.3298e+05
4.3302e+05
4.3324e+05
4.3328e+05
4.335e+05
4.3354e+05
4.3375e+05
4.338e+05
4.3403e+05
4.3407e+05
4.3429e+05
4.3433e+05
4.3455e+05
4.3459e+05
4.3482e+05
4.3486e+05
4.3508e+05
4.3512e+05
4.3534e+05
4.3539e+05
4.3561e+05
4.3566e+05
4.3588e+05
4.3593e+05
4.3615e+05
4.3619e+05
4.3641e+05
4.3645e+05
4.3668e+05
4.3672e+05
4.3694e+05
4.3698e+05
4.372e+05
4.3724e+05
4.3746e+05
4.3751e+05
4.3772e+05
4.3777e+05
4.3798e+05
4.3802e+05
4.3825e+05
4.3829e+05
4.3851e+05
4.3856e+05
4.3878e+05
4.3881e+05
4.3903e+05
4.3907e+05
4.393e+05
4.3934e+05
4.3956e+05
4.396e+05
4.3982e+05
4.3986e+05
4.4008e+05
4.4013e+05
4.4034e+05
4.4039e+05
4.406e+05
4.4064e+05
4.4086e+05
4.4091e+05
4.4113e+05
4.4117e+05
4.4138e+05
4.4142e+05
4.4164e+05
4.4168e+05
4.4191e+05
4.4195e+05
4.4217e+05
4.4221e+05
4.4242e+05
4.4246e+05
4.4268e+05
4.4273e+05
4.4294e+05
4.4299e+05
4.432e+05
4.4325e+05
4.4347e+05
4.4351e+05
4.4399e+05
4.4404e+05
4.4426e+05
4.443e+05
4.4453e+05
4.4457e+05
4.4479e+05
4.4483e+05
4.4504e+05
4.4508e+05
4.453e+05
4.4535e+05
4.4556e+05
4.456e+05
4.466e+05
4.4664e+05
4.4686e+05
4.469e+05
4.4712e+05
4.4716e+05
4.4738e+05
4.4742e+05
4.4763e+05
4.4767e+05
4.4815e+05
4.4819e+05
4.4894e+05
4.4898e+05
4.492e+05
4.4924e+05
4.4945e+05
4.495e+05
4.4972e+05
4.4977e+05
4.4998e+05
4.5002e+05
4.5077e+05
4.508e+05
4.5129e+05
4.5133e+05
4.5156e+05
4.516e+05
4.5182e+05
4.5186e+05
4.5208e+05
4.5213e+05
4.5236e+05
4.524e+05
4.5262e+05
4.5267e+05
4.529e+05
4.5293e+05
4.5316e+05
4.532e+05
4.5342e+05
4.5347e+05
4.5395e+05
4.5399e+05
4.5421e+05
4.5425e+05
4.5447e+05
4.5451e+05
4.5472e+05
4.5476e+05
4.5499e+05
4.5503e+05
4.5524e+05
4.5528e+05
4.555e+05
4.5554e+05
4.5576e+05
4.558e+05
4.5602e+05
4.5606e+05
4.5627e+05
4.5631e+05
4.5653e+05
4.5658e+05
4.568e+05
4.5684e+05
4.5758e+05
4.5763e+05
4.5784e+05
4.5789e+05
4.5811e+05
4.5815e+05
4.5836e+05
4.584e+05
4.5991e+05
4.5996e+05
4.6044e+05
4.6048e+05
4.6224e+05
4.6229e+05
4.625e+05
4.6255e+05
4.6276e+05
4.6281e+05
4.6745e+05
4.675e+05
4.6901e+05
4.6905e+05
4.6927e+05
4.6931e+05
4.6953e+05
4.6957e+05
4.7139e+05
4.7143e+05
4.7164e+05
4.7169e+05
4.7191e+05
4.7195e+05
4.7217e+05
4.7222e+05
4.7243e+05
4.7248e+05
4.7458e+05
4.7462e+05
4.7485e+05
4.7489e+05
4.7647e+05
4.7651e+05
4.7726e+05
4.773e+05
4.7752e+05
4.7756e+05
4.7779e+05
4.7783e+05
4.7805e+05
4.7809e+05
4.7831e+05
4.7835e+05
4.7911e+05
4.7916e+05
4.7937e+05
4.7942e+05
4.7964e+05
4.7969e+05
4.8017e+05
4.8021e+05
4.8044e+05
4.8048e+05
4.807e+05
4.8074e+05
4.8226e+05
4.8231e+05
4.8252e+05
4.8256e+05
4.8304e+05
4.8309e+05
4.8435e+05
4.8439e+05
4.846e+05
4.8464e+05
4.8486e+05
4.849e+05
4.8511e+05
4.8516e+05
4.8642e+05
4.8647e+05
4.8669e+05
4.8673e+05
4.8695e+05
4.87e+05
4.8721e+05
4.8726e+05
4.8805e+05
4.8828e+05
4.8832e+05
4.8854e+05
4.8858e+05
4.888e+05
4.8884e+05
4.8983e+05
4.8987e+05
4.9009e+05
4.9013e+05
4.9034e+05
4.9038e+05
4.9059e+05
4.9064e+05
4.9085e+05
4.909e+05
4.9142e+05
4.9242e+05
4.9246e+05
4.9268e+05
4.9273e+05
4.9294e+05
4.9298e+05
4.9319e+05
4.9324e+05
4.9424e+05
4.9428e+05
4.9706e+05
4.9708e+05
4.9733e+05
4.9734e+05
4.9785e+05
4.9786e+05
4.9836e+05
4.9888e+05
4.989e+05
4.9993e+05
5.0019e+05
5.0045e+05
5.0046e+05
5.0092e+05
5.0123e+05
5.0125e+05
5.0176e+05
5.0202e+05
5.0229e+05
5.023e+05
5.0255e+05
5.0257e+05
5.0282e+05
5.0283e+05
5.0334e+05
5.0336e+05
5.036e+05
5.0362e+05
5.0386e+05
5.0388e+05
5.0413e+05
5.0415e+05
5.0439e+05
5.0441e+05
5.0466e+05
5.0467e+05
5.0492e+05
5.0494e+05
5.0519e+05
5.052e+05
5.0546e+05
5.0547e+05
5.0599e+05
5.06e+05
5.0625e+05
5.0626e+05
5.0731e+05
5.0784e+05
5.0786e+05
5.0864e+05
5.0865e+05
5.0944e+05
5.0946e+05
5.1051e+05
5.1052e+05
5.1078e+05
5.108e+05
5.1104e+05
5.1157e+05
5.1158e+05
5.1262e+05
5.1264e+05
5.1289e+05
5.129e+05
5.1315e+05
5.1317e+05
5.142e+05
5.1422e+05
5.1446e+05
5.1448e+05
5.1525e+05
5.1526e+05
5.1577e+05
5.1579e+05
5.1629e+05
5.163e+05
5.168e+05
5.1682e+05
5.1733e+05
5.1734e+05
5.1759e+05
5.1761e+05
5.1785e+05
5.1787e+05
5.1812e+05
5.1813e+05
5.1838e+05
5.184e+05
5.1865e+05
5.1866e+05
5.1891e+05
5.1917e+05
5.1943e+05
5.1945e+05
5.1996e+05
5.1997e+05
5.2022e+05
5.2047e+05
5.2049e+05
5.2074e+05
5.2075e+05
5.2126e+05
5.2128e+05
5.2177e+05
5.2229e+05
5.2231e+05
5.2282e+05
5.2283e+05
5.2334e+05
5.2335e+05
5.236e+05
5.2362e+05
5.2387e+05
5.2388e+05
5.2412e+05
5.2414e+05
5.2438e+05
5.244e+05
5.2465e+05
5.2518e+05
5.2545e+05
5.2546e+05
5.2571e+05
5.2572e+05
5.2598e+05
5.2652e+05
5.2654e+05
5.2705e+05
5.2732e+05
5.2733e+05
5.2838e+05
5.284e+05
5.2892e+05
5.2893e+05
5.2943e+05
5.297e+05
5.2971e+05
5.3022e+05
5.3102e+05
5.3103e+05
5.3129e+05
5.313e+05
5.3155e+05
5.3157e+05
5.3182e+05
5.3262e+05
5.3263e+05
5.3288e+05
5.3341e+05
5.3343e+05
5.3395e+05
5.3396e+05
5.3422e+05
5.3448e+05
5.3474e+05
5.3476e+05
5.3528e+05
5.3555e+05
5.3556e+05
5.3582e+05
5.3584e+05
5.3609e+05
5.361e+05
5.3635e+05
5.3636e+05
5.3662e+05
5.3663e+05
5.3688e+05
5.369e+05
5.3715e+05
5.3716e+05
5.3767e+05
5.3792e+05
5.3794e+05
5.3819e+05
5.382e+05
5.3845e+05
5.3847e+05
5.3897e+05
5.3899e+05
5.3924e+05
5.3951e+05
5.3952e+05
5.3978e+05
5.4004e+05
5.4005e+05
5.4031e+05
5.4032e+05
5.4083e+05
5.4085e+05
5.4111e+05
5.4112e+05
5.4137e+05
5.4138e+05
5.4163e+05
5.4164e+05
5.4217e+05
5.4271e+05
5.4272e+05
5.4298e+05
5.4299e+05
5.4325e+05
5.4326e+05
5.4361e+05
5.4365e+05
5.4388e+05
5.4392e+05
5.4414e+05
5.4419e+05
5.4442e+05
5.4446e+05
5.4469e+05
5.4473e+05
5.4496e+05
5.45e+05
5.455e+05
5.4553e+05
5.4575e+05
5.458e+05
5.4602e+05
5.4607e+05
5.4629e+05
5.4633e+05
5.4655e+05
5.4659e+05
5.4682e+05
5.4686e+05
5.4708e+05
5.4713e+05
5.4735e+05
5.474e+05
5.4762e+05
5.4766e+05
5.4788e+05
5.4792e+05
5.4815e+05
5.4819e+05
5.4841e+05
5.4846e+05
5.4868e+05
5.4872e+05
5.4895e+05
5.4899e+05
5.4922e+05
5.4926e+05
5.4948e+05
5.4952e+05
5.4975e+05
5.498e+05
5.5001e+05
5.5006e+05
5.5028e+05
5.5033e+05
5.5055e+05
5.5059e+05
5.5081e+05
5.5085e+05
5.5108e+05
5.5112e+05
5.5133e+05
5.5139e+05
5.5161e+05
5.5166e+05
5.5188e+05
5.5192e+05
5.5215e+05
5.5219e+05
5.5242e+05
5.5246e+05
5.5267e+05
5.5273e+05
5.5295e+05
5.5299e+05
5.532e+05
5.5326e+05
5.5347e+05
5.5351e+05
5.5373e+05
5.5377e+05
5.5399e+05
5.5404e+05
5.5426e+05
5.543e+05
5.5452e+05
5.5456e+05
5.5477e+05
5.5482e+05
5.5504e+05
5.5509e+05
5.553e+05
5.5535e+05
5.5557e+05
5.5561e+05
5.5583e+05
5.5588e+05
5.561e+05
5.5614e+05
5.5636e+05
5.5641e+05
5.5663e+05
5.5667e+05
5.5716e+05
5.572e+05
5.5742e+05
5.5747e+05
5.577e+05
5.5774e+05
5.5796e+05
5.58e+05
5.5848e+05
5.5853e+05
5.5874e+05
5.5879e+05
5.5901e+05
5.5905e+05
5.5927e+05
5.5931e+05
5.598e+05
5.5984e+05
5.6006e+05
5.601e+05
5.6033e+05
5.6037e+05
5.6112e+05
5.6116e+05
5.6138e+05
5.6142e+05
5.6217e+05
5.6221e+05
5.6243e+05
5.6247e+05
5.6269e+05
5.6273e+05
5.6321e+05
5.6325e+05
5.6347e+05
5.6351e+05
5.6373e+05
5.6377e+05
5.6399e+05
5.6403e+05
5.6451e+05
5.6456e+05
5.6478e+05
5.6482e+05
5.6503e+05
5.6508e+05
5.6529e+05
5.6533e+05
5.6581e+05
5.6586e+05
5.6607e+05
5.6612e+05
5.6633e+05
5.6637e+05
5.6658e+05
5.6663e+05
5.671e+05
5.6714e+05
5.6736e+05
5.6741e+05
5.6762e+05
5.6766e+05
5.6787e+05
5.6792e+05
5.6839e+05
5.6844e+05
5.6891e+05
5.6895e+05
5.6917e+05
5.6921e+05
5.6943e+05
5.6947e+05
5.6968e+05
5.6973e+05
5.7047e+05
5.7051e+05
5.7073e+05
5.7077e+05
5.7099e+05
5.7103e+05
5.7125e+05
5.7129e+05
5.7202e+05
5.7207e+05
5.7228e+05
5.7232e+05
5.7254e+05
5.7259e+05
5.7357e+05
5.7362e+05
5.7383e+05
5.7387e+05
5.7486e+05
5.7491e+05
5.7538e+05
5.7543e+05
5.759e+05
5.7595e+05
5.7617e+05
5.7621e+05
5.7643e+05
5.7647e+05
5.7668e+05
5.7673e+05
5.7694e+05
5.7699e+05
5.772e+05
5.7725e+05
5.7746e+05
5.775e+05
5.7771e+05
5.7776e+05
5.7798e+05
5.7803e+05
5.7823e+05
5.7828e+05
5.7849e+05
5.7853e+05
5.7876e+05
5.788e+05
5.7901e+05
5.7905e+05
5.7926e+05
5.7931e+05
5.7978e+05
5.7983e+05
5.8004e+05
5.8008e+05
5.8133e+05
5.8138e+05
5.8159e+05
5.8164e+05
5.8185e+05
5.819e+05
5.8216e+05
5.8242e+05
5.8263e+05
5.8268e+05
5.829e+05
5.8294e+05
5.8368e+05
5.8373e+05
5.8395e+05
5.84e+05
5.8422e+05
5.8426e+05
5.8448e+05
5.8452e+05
5.8499e+05
5.8504e+05
5.8525e+05
5.8529e+05
5.8551e+05
5.8555e+05
5.8577e+05
5.8581e+05
5.8602e+05
5.8606e+05
5.8628e+05
5.8632e+05
5.8654e+05
5.8658e+05
5.868e+05
5.8684e+05
5.8784e+05
5.8788e+05
5.9046e+05
5.9051e+05
5.9073e+05
5.9077e+05
5.9099e+05
5.9104e+05
5.9151e+05
5.9156e+05
5.9205e+05
5.9209e+05
5.9307e+05
5.9311e+05
5.9333e+05
5.9337e+05
5.941e+05
5.9414e+05
5.9436e+05
5.9441e+05
5.9541e+05
5.9545e+05
5.963e+05
5.969e+05
5.9692e+05
5.9717e+05
5.9719e+05
5.9769e+05
5.9815e+05
5.9841e+05
5.9867e+05
5.9899e+05
6.0083e+05
6.0084e+05
6.0135e+05
6.0187e+05
6.0189e+05
6.0265e+05
6.0312e+05
6.0343e+05
6.0345e+05
6.0396e+05
6.0448e+05
6.0449e+05
6.0521e+05
6.0552e+05
6.0578e+05
6.0624e+05
6.0655e+05
6.0707e+05
6.0811e+05
6.0862e+05
6.0888e+05
6.089e+05
6.094e+05
6.0992e+05
6.0993e+05
6.1069e+05
6.1094e+05
6.1095e+05
6.1145e+05
6.1146e+05
6.1171e+05
6.1197e+05
6.1223e+05
6.1249e+05
6.1275e+05
6.1301e+05
6.1303e+05
6.1327e+05
6.1329e+05
6.1353e+05
6.1354e+05
6.1379e+05
6.138e+05
6.1431e+05
6.1457e+05
6.1483e+05
6.1484e+05
6.1587e+05
6.1613e+05
6.1639e+05
6.164e+05
6.1664e+05
6.1666e+05
6.1717e+05
6.1718e+05
6.1795e+05
6.1796e+05
6.19e+05
6.1901e+05
6.2112e+05
6.2192e+05
6.2193e+05
6.2218e+05
6.222e+05
6.2245e+05
6.2298e+05
6.2352e+05
6.2353e+05
6.2379e+05
6.2431e+05
6.2458e+05
6.2459e+05
6.2563e+05
6.2616e+05
6.2618e+05
6.2642e+05
6.272e+05
6.2721e+05
6.2746e+05
6.2772e+05
6.2849e+05
6.2901e+05
6.2903e+05
6.2953e+05
6.2954e+05
6.2979e+05
6.3005e+05
6.3032e+05
6.3084e+05
6.3085e+05
6.311e+05
6.3137e+05
6.3163e+05
6.3189e+05
6.319e+05
6.3267e+05
6.332e+05
6.3321e+05
6.3346e+05
6.3347e+05
6.3372e+05
6.345e+05
6.3452e+05
6.3529e+05
6.3531e+05
6.3556e+05
6.3557e+05
6.3582e+05
6.3584e+05
6.3608e+05
6.3634e+05
6.3661e+05
6.3663e+05
6.3687e+05
6.3689e+05
6.3713e+05
6.3714e+05
6.3739e+05
6.3766e+05
6.3792e+05
6.3793e+05
6.3818e+05
6.382e+05
6.3845e+05
6.3846e+05
6.3871e+05
6.3905e+05
6.391e+05
6.3932e+05
6.3936e+05
6.3958e+05
6.3962e+05
6.3983e+05
6.3988e+05
6.4009e+05
6.4014e+05
6.4035e+05
6.404e+05
6.4061e+05
6.4066e+05
6.4087e+05
6.4092e+05
6.4113e+05
6.4117e+05
6.4139e+05
6.4143e+05
6.4164e+05
6.4169e+05
6.4191e+05
6.4195e+05
6.4216e+05
6.4221e+05
6.4241e+05
6.4246e+05
6.4268e+05
6.4272e+05
6.4293e+05
6.4298e+05
6.4319e+05
6.4324e+05
6.4346e+05
6.435e+05
6.4372e+05
6.4376e+05
6.4398e+05
6.4402e+05
6.4424e+05
6.4429e+05
6.445e+05
6.4455e+05
6.4476e+05
6.4481e+05
6.4502e+05
6.4506e+05
6.4528e+05
6.4533e+05
6.4554e+05
6.4558e+05
6.4579e+05
6.4584e+05
6.4611e+05
6.4632e+05
6.4636e+05
6.4658e+05
6.4662e+05
6.4683e+05
6.4688e+05
6.471e+05
6.4715e+05
6.4736e+05
6.474e+05
6.4762e+05
6.4766e+05
6.4788e+05
6.4793e+05
6.4814e+05
6.4819e+05
6.484e+05
6.4845e+05
6.4867e+05
6.4871e+05
6.4893e+05
6.4897e+05
6.4919e+05
6.4923e+05
6.4944e+05
6.4949e+05
6.4971e+05
6.4975e+05
