121
922
1278
1658
2459
2823
3600
4297
4648
5723
6929
7279
7682
8403
8999
10940
11334
11691
12071
13189
13932
14317
14653
15792
16113
16472
17243
17596
17966
18724
19065
20616
21722
22090
22853
23211
23576
23985
24742
25083
25475
25851
26204
26589
26978
27349
27674
28863
30002
30364
30727
31086
31457
32178
32952
33293
34432
34811
35184
35577
35961
36300
36657
37461
39279
39639
40037
40414
40744
41139
41540
41899
42238
42627
43338
43704
44062
44748
45919
46283
46655
47038
47421
47789
48166
48944
49277
49643
50054
50445
50794
51143
51497
51887
52249
52626
53423
54617
56133
57267
57637
57955
59125
59466
60550
60878
61251
61993
62310
62721
63131
63503
63853
64211
65367
65743
66127
66831
67163
68265
68543
68826
69162
69482
69818
70721
72428
72822
74057
74449
74799
75177
75992
76348
77120
77473
77818
78173
78547
78924
79294
80430
80817
81128
81443
81798
82609
82986
84484
85582
85944
86325
86746
87451
88139
89710
90092
90472
90871
91223
91583
92368
93521
94268
95790
96172
96555
97311
98039
98410
99580
1.0401e+05
1.1183e+05
1.1255e+05
1.1297e+05
1.1892e+05
1.2195e+05
1.2313e+05
1.2355e+05
1.2779e+05
1.3403e+05
1.3552e+05
1.3658e+05
1.4205e+05
1.4856e+05
1.5343e+05
1.549e+05
1.7908e+05
1.9967e+05
2.0001e+05
2.0033e+05
2.0065e+05
2.0146e+05
2.0185e+05
2.0225e+05
2.0295e+05
2.0334e+05
2.0374e+05
2.0411e+05
2.0522e+05
2.0562e+05
2.0597e+05
2.063e+05
2.0666e+05
2.0735e+05
2.0771e+05
2.0809e+05
2.0848e+05
2.0881e+05
2.0911e+05
2.0993e+05
2.1028e+05
2.1141e+05
2.1178e+05
2.1332e+05
2.1366e+05
2.1405e+05
2.1444e+05
2.1515e+05
2.1551e+05
2.159e+05
2.1666e+05
2.1704e+05
2.1812e+05
2.185e+05
2.1888e+05
2.1923e+05
2.1954e+05
2.2065e+05
2.2099e+05
2.2135e+05
2.2171e+05
2.224e+05
2.2318e+05
2.2357e+05
2.251e+05
2.2544e+05
2.258e+05
2.2654e+05
2.2691e+05
2.273e+05
2.2768e+05
2.2834e+05
2.2865e+05
2.2944e+05
2.3054e+05
2.3124e+05
2.3164e+05
2.3202e+05
2.3236e+05
2.3272e+05
2.3387e+05
2.3422e+05
2.3497e+05
2.3534e+05
2.357e+05
2.3606e+05
2.3682e+05
2.3755e+05
2.3798e+05
2.3834e+05
2.3867e+05
2.3902e+05
2.3938e+05
2.3977e+05
2.4015e+05
2.4053e+05
2.409e+05
2.4191e+05
2.4226e+05
2.4299e+05
2.4366e+05
2.4403e+05
2.4439e+05
2.4473e+05
2.455e+05
2.4583e+05
2.4621e+05
2.4662e+05
2.47e+05
2.4735e+05
2.477e+05
2.4806e+05
2.4881e+05
2.4915e+05
2.5024e+05
2.5065e+05
2.5105e+05
2.5142e+05
2.5176e+05
2.5212e+05
2.5327e+05
2.5363e+05
2.5399e+05
2.5432e+05
2.5463e+05
2.5492e+05
2.552e+05
2.555e+05
2.558e+05
2.5607e+05
2.5633e+05
2.5661e+05
2.5709e+05
2.5754e+05
2.5847e+05
2.5875e+05
2.5917e+05
2.5959e+05
2.5996e+05
2.6033e+05
2.6153e+05
2.6193e+05
2.6232e+05
2.6266e+05
2.6295e+05
2.6326e+05
2.6363e+05
2.6401e+05
2.6513e+05
2.6545e+05
2.6579e+05
2.6612e+05
2.6647e+05
2.6758e+05
2.6821e+05
2.6954e+05
2.6982e+05
2.7089e+05
2.7296e+05
2.7453e+05
2.7488e+05
2.7526e+05
2.7722e+05
2.7864e+05
2.8099e+05
2.8137e+05
2.8275e+05
2.8308e+05
2.8348e+05
2.8502e+05
2.8619e+05
2.8729e+05
2.8766e+05
2.8911e+05
2.8944e+05
2.9019e+05
2.9057e+05
2.9089e+05
2.9165e+05
2.9238e+05
2.9273e+05
2.9344e+05
2.9379e+05
2.9416e+05
2.9453e+05
2.9557e+05
2.9594e+05
2.9631e+05
2.9666e+05
2.9699e+05
2.9734e+05
3.9904e+05
3.9944e+05
4.0206e+05
4.0649e+05
4.0767e+05
4.0806e+05
4.0848e+05
4.0888e+05
4.0928e+05
4.1039e+05
4.1711e+05
4.1874e+05
4.2062e+05
4.21e+05
4.2217e+05
4.2333e+05
4.2447e+05
4.256e+05
4.274e+05
4.282e+05
4.286e+05
4.3023e+05
4.3102e+05
4.3143e+05
4.3182e+05
4.3227e+05
4.3266e+05
4.3342e+05
4.357e+05
4.3793e+05
4.3833e+05
4.3906e+05
4.4005e+05
4.4084e+05
4.4124e+05
4.4355e+05
4.4385e+05
4.4417e+05
4.4452e+05
4.4487e+05
4.452e+05
4.4554e+05
4.4587e+05
4.4619e+05
4.4649e+05
4.468e+05
4.4716e+05
4.4747e+05
4.4775e+05
4.4802e+05
4.4831e+05
4.4872e+05
4.4912e+05
4.4989e+05
4.5025e+05
4.5086e+05
4.5118e+05
4.5161e+05
4.5201e+05
4.5231e+05
4.526e+05
4.5294e+05
4.5332e+05
4.5372e+05
4.5408e+05
4.548e+05
4.5516e+05
4.5547e+05
4.5578e+05
4.5613e+05
4.5649e+05
4.5738e+05
4.5773e+05
4.581e+05
4.5842e+05
4.5874e+05
4.5909e+05
4.5972e+05
4.6004e+05
4.6039e+05
4.6075e+05
4.6253e+05
4.6329e+05
4.6368e+05
4.6403e+05
4.6447e+05
4.6488e+05
4.6524e+05
4.6562e+05
4.6639e+05
4.6681e+05
4.6721e+05
4.6756e+05
4.6794e+05
4.6833e+05
4.6871e+05
4.6911e+05
4.6952e+05
4.6986e+05
4.7017e+05
4.7101e+05
4.7137e+05
4.7168e+05
4.7202e+05
4.7238e+05
4.7311e+05
4.735e+05
4.7388e+05
4.7454e+05
4.7562e+05
4.7599e+05
4.7636e+05
4.7701e+05
4.7738e+05
4.7776e+05
4.7842e+05
4.7877e+05
4.7914e+05
4.7954e+05
4.7991e+05
4.8028e+05
4.8065e+05
4.8157e+05
4.8198e+05
4.8236e+05
4.8308e+05
4.8381e+05
4.8418e+05
4.8452e+05
4.8486e+05
4.8548e+05
4.8582e+05
4.8683e+05
4.8748e+05
4.8808e+05
4.8843e+05
4.8933e+05
4.8972e+05
4.9045e+05
4.9084e+05
4.9123e+05
4.9297e+05
4.9333e+05
4.9439e+05
-1
295
699
1081
1445
1808
2218
2632
2980
3368
3767
4140
4474
4820
5205
5565
5885
6272
6711
7098
7449
7844
8221
8518
8752
9174
9573
9946
10315
10697
11112
11505
11865
12233
12599
12995
13355
13722
14101
14480
14800
15177
15580
15946
16282
16639
17014
17411
17771
18125
18511
18885
19233
19633
20043
20436
20782
21138
21508
21898
22261
22615
23019
23361
23748
24160
24554
24904
25251
25624
26018
26378
26754
27141
27507
27841
28244
28651
29030
29412
29795
30171
30543
30901
31255
31616
31971
32345
32737
33124
33461
33822
34188
34607
34982
35340
35748
36123
36455
36825
37240
37625
37970
38331
38690
39081
39445
39809
40201
40574
40921
41313
41706
42061
42405
42784
43144
43522
43877
44228
44581
44912
45270
45672
46090
46451
46814
47183
47600
47962
48325
48724
49100
49437
49822
50229
50609
50960
51305
51659
52063
52423
52794
53194
53584
53976
54378
54769
55139
55514
55885
56308
56680
57061
57432
57802
58122
58506
58911
59285
59632
59989
60355
60715
61055
61419
61790
62158
62483
62891
63297
63673
64014
64368
64759
65164
65529
65904
66298
66661
67005
67337
67701
68111
68421
68700
68997
69332
69649
69976
70437
70872
71291
71744
72167
72585
72986
73376
73797
74214
74605
74964
75338
75756
76159
76519
76900
77279
77645
77993
78346
78712
79092
79455
79798
80197
80601
80979
81287
81610
81967
82387
82777
83152
83545
83904
84285
84657
85022
85399
85745
86090
86496
86924
87275
87614
87968
88298
88683
89102
89515
89867
90254
90648
91044
91390
91754
92147
92514
92882
93269
93675
94066
94438
94808
95203
95604
95962
96335
96718
97105
97475
97844
98208
98576
98911
99941
1.0035e+05
1.0074e+05
1.0113e+05
1.0151e+05
1.0185e+05
1.0217e+05
1.0256e+05
1.0293e+05
1.0324e+05
1.0359e+05
1.0396e+05
1.0437e+05
1.048e+05
1.0517e+05
1.0555e+05
1.0593e+05
1.0631e+05
1.0667e+05
1.0706e+05
1.0744e+05
1.0776e+05
1.0812e+05
1.0852e+05
1.0893e+05
1.0928e+05
1.0962e+05
1.1002e+05
1.1041e+05
1.1077e+05
1.1112e+05
1.1147e+05
1.118e+05
1.1215e+05
1.1252e+05
1.1295e+05
1.1335e+05
1.1372e+05
1.1408e+05
1.1445e+05
1.1485e+05
1.1522e+05
1.156e+05
1.1595e+05
1.163e+05
1.1668e+05
1.1706e+05
1.1743e+05
1.1779e+05
1.1814e+05
1.1851e+05
1.189e+05
1.193e+05
1.1967e+05
1.2006e+05
1.2043e+05
1.2079e+05
1.2115e+05
1.2154e+05
1.2178e+05
1.219e+05
1.2232e+05
1.227e+05
1.2297e+05
1.2308e+05
1.2353e+05
1.2392e+05
1.2431e+05
1.247e+05
1.2508e+05
1.2547e+05
1.2587e+05
1.2625e+05
1.2664e+05
1.2697e+05
1.2736e+05
1.2776e+05
1.2817e+05
1.2851e+05
1.2885e+05
1.2922e+05
1.296e+05
1.2996e+05
1.3033e+05
1.3071e+05
1.3108e+05
1.314e+05
1.3177e+05
1.3216e+05
1.3252e+05
1.3288e+05
1.3323e+05
1.3362e+05
1.3398e+05
1.3439e+05
1.3474e+05
1.3512e+05
1.355e+05
1.3584e+05
1.3619e+05
1.3653e+05
1.3683e+05
1.3695e+05
1.3737e+05
1.3773e+05
1.3814e+05
1.3853e+05
1.3887e+05
1.3927e+05
1.3966e+05
1.4001e+05
1.4037e+05
1.4074e+05
1.4113e+05
1.4152e+05
1.4187e+05
1.4225e+05
1.4253e+05
1.4291e+05
1.4325e+05
1.4357e+05
1.4393e+05
1.4431e+05
1.4471e+05
1.4512e+05
1.4554e+05
1.4592e+05
1.4628e+05
1.4658e+05
1.4683e+05
1.4726e+05
1.4761e+05
1.48e+05
1.4839e+05
1.4875e+05
1.4911e+05
1.495e+05
1.499e+05
1.5027e+05
1.5063e+05
1.51e+05
1.5142e+05
1.5181e+05
1.5215e+05
1.5252e+05
1.5288e+05
1.5325e+05
1.5363e+05
1.54e+05
1.5437e+05
1.5476e+05
1.5509e+05
1.5545e+05
1.5587e+05
1.5626e+05
1.566e+05
1.5774e+05
1.5813e+05
1.5854e+05
1.5961e+05
1.6004e+05
1.6044e+05
1.608e+05
1.6117e+05
1.653e+05
1.6605e+05
1.6646e+05
1.6756e+05
1.6944e+05
1.6979e+05
1.7015e+05
1.705e+05
1.7088e+05
1.7124e+05
1.7159e+05
1.7197e+05
1.7234e+05
1.727e+05
1.7308e+05
1.7346e+05
1.7383e+05
1.7415e+05
1.745e+05
1.7487e+05
1.7527e+05
1.7563e+05
1.7599e+05
1.7638e+05
1.7672e+05
1.7706e+05
1.7744e+05
1.7783e+05
1.7822e+05
1.7856e+05
1.789e+05
1.793e+05
1.797e+05
1.8005e+05
1.8043e+05
1.8078e+05
1.815e+05
1.8185e+05
1.8222e+05
1.826e+05
1.8302e+05
1.8304e+05
1.8351e+05
1.8393e+05
1.8431e+05
1.8467e+05
1.8503e+05
1.8539e+05
1.8576e+05
1.8645e+05
1.8751e+05
1.879e+05
1.8832e+05
1.8905e+05
1.8943e+05
1.9017e+05
1.9054e+05
1.9129e+05
1.9163e+05
1.9197e+05
1.9236e+05
1.9275e+05
1.9344e+05
1.938e+05
1.9417e+05
1.9455e+05
1.9492e+05
1.9529e+05
1.9568e+05
1.9604e+05
1.9639e+05
1.9906e+05
1.9946e+05
1.9983e+05
2.0017e+05
2.0048e+05
2.0084e+05
2.0125e+05
2.0161e+05
2.0201e+05
2.024e+05
2.0277e+05
2.0313e+05
2.0351e+05
2.0389e+05
2.0428e+05
2.0464e+05
2.0499e+05
2.0539e+05
2.0579e+05
2.0613e+05
2.0646e+05
2.0682e+05
2.0718e+05
2.0752e+05
2.0789e+05
2.0826e+05
2.0864e+05
2.0897e+05
2.0928e+05
2.097e+05
2.101e+05
2.1045e+05
2.1082e+05
2.112e+05
2.1158e+05
2.1196e+05
2.1235e+05
2.1273e+05
2.1311e+05
2.1346e+05
2.1383e+05
2.1421e+05
2.146e+05
2.1498e+05
2.1531e+05
2.1566e+05
2.1607e+05
2.1647e+05
2.1682e+05
2.1721e+05
2.176e+05
2.1794e+05
2.1829e+05
2.1867e+05
2.1904e+05
2.1938e+05
2.1971e+05
2.2006e+05
2.2045e+05
2.2083e+05
2.2116e+05
2.2151e+05
2.2187e+05
2.222e+05
2.2257e+05
2.2296e+05
2.2335e+05
2.2373e+05
2.2409e+05
2.2446e+05
2.2488e+05
2.2527e+05
2.256e+05
2.2597e+05
2.2634e+05
2.2671e+05
2.2708e+05
2.2747e+05
2.2784e+05
2.2819e+05
2.285e+05
2.2883e+05
2.2922e+05
2.296e+05
2.2997e+05
2.3033e+05
2.3068e+05
2.3106e+05
2.3142e+05
2.318e+05
2.3218e+05
2.3253e+05
2.3287e+05
2.3325e+05
2.3365e+05
2.3403e+05
2.3438e+05
2.3476e+05
2.3513e+05
2.3552e+05
2.3587e+05
2.3621e+05
2.3661e+05
2.3699e+05
2.3732e+05
2.3774e+05
2.3815e+05
2.385e+05
2.3884e+05
2.3918e+05
2.3955e+05
2.3995e+05
2.4032e+05
2.4069e+05
2.4106e+05
2.4208e+05
2.4243e+05
2.428e+05
2.4315e+05
2.4349e+05
2.4382e+05
2.4421e+05
2.4455e+05
2.4489e+05
2.4528e+05
2.4567e+05
2.46e+05
2.4638e+05
2.4679e+05
2.4717e+05
2.4751e+05
2.4786e+05
2.4823e+05
2.4862e+05
2.4898e+05
2.4931e+05
2.4967e+05
2.5006e+05
2.5043e+05
2.5083e+05
2.5121e+05
2.5158e+05
2.5193e+05
2.5227e+05
2.5265e+05
2.5307e+05
2.5343e+05
2.5379e+05
2.5414e+05
2.5447e+05
2.548e+05
2.5509e+05
2.5537e+05
2.5566e+05
2.5596e+05
2.5622e+05
2.5649e+05
2.5677e+05
2.5728e+05
2.577e+05
2.5863e+05
2.5891e+05
2.5934e+05
2.5976e+05
2.6013e+05
2.6049e+05
2.6089e+05
2.6129e+05
2.617e+05
2.6209e+05
2.6248e+05
2.6282e+05
2.631e+05
2.6345e+05
2.6381e+05
2.6417e+05
2.6455e+05
2.6494e+05
2.6528e+05
2.6562e+05
2.6597e+05
2.6629e+05
2.6663e+05
2.674e+05
2.6776e+05
2.6854e+05
2.6945e+05
2.697e+05
2.7e+05
2.7036e+05
2.7106e+05
2.7147e+05
2.7312e+05
2.747e+05
2.7505e+05
2.7542e+05
2.7657e+05
2.77e+05
2.7739e+05
2.7882e+05
2.7921e+05
2.7957e+05
2.7997e+05
2.8036e+05
2.8077e+05
2.8117e+05
2.8153e+05
2.8189e+05
2.8225e+05
2.8291e+05
2.8324e+05
2.8364e+05
2.8404e+05
2.8441e+05
2.8477e+05
2.8519e+05
2.8561e+05
2.8599e+05
2.8635e+05
2.867e+05
2.8705e+05
2.8745e+05
2.8783e+05
2.8819e+05
2.8856e+05
2.8894e+05
2.8928e+05
2.8961e+05
2.8997e+05
2.9036e+05
2.9073e+05
2.9105e+05
2.9141e+05
2.9183e+05
2.9221e+05
2.9255e+05
2.9289e+05
2.9325e+05
2.936e+05
2.9397e+05
2.9433e+05
2.9469e+05
2.9506e+05
2.954e+05
2.9575e+05
2.9611e+05
2.9648e+05
2.9682e+05
2.9715e+05
2.975e+05
2.9811e+05
2.9843e+05
2.9877e+05
2.9957e+05
2.9995e+05
3.002e+05
3.0034e+05
3.0122e+05
3.0153e+05
3.0185e+05
3.0225e+05
3.0264e+05
3.0306e+05
3.0343e+05
3.0382e+05
3.0419e+05
3.0456e+05
3.0485e+05
3.0498e+05
3.0542e+05
3.0577e+05
3.0609e+05
3.0644e+05
3.0679e+05
3.0726e+05
3.0764e+05
3.0802e+05
3.0843e+05
3.088e+05
3.0908e+05
3.0921e+05
3.0963e+05
3.1006e+05
3.104e+05
3.1074e+05
3.1114e+05
3.1154e+05
3.1191e+05
3.1224e+05
3.126e+05
3.1296e+05
3.1332e+05
3.1373e+05
3.1406e+05
3.1445e+05
3.1481e+05
3.1519e+05
3.1559e+05
3.1597e+05
3.1636e+05
3.1669e+05
3.1702e+05
3.1743e+05
3.1779e+05
3.1812e+05
3.1847e+05
3.1884e+05
3.1914e+05
3.1952e+05
3.1992e+05
3.2028e+05
3.2063e+05
3.2097e+05
3.213e+05
3.2166e+05
3.22e+05
3.2235e+05
3.227e+05
3.2305e+05
3.2338e+05
3.2369e+05
3.2403e+05
3.2437e+05
3.247e+05
3.2505e+05
3.2544e+05
3.258e+05
3.2616e+05
3.2655e+05
3.2693e+05
3.273e+05
3.2766e+05
3.2799e+05
3.2839e+05
3.2879e+05
3.2919e+05
3.2955e+05
3.2991e+05
3.3031e+05
3.3067e+05
3.3104e+05
3.3143e+05
3.3177e+05
3.3206e+05
3.3241e+05
3.3278e+05
3.3311e+05
3.3342e+05
3.3424e+05
3.3463e+05
3.3502e+05
3.354e+05
3.3576e+05
3.3605e+05
3.3637e+05
3.3676e+05
3.3711e+05
3.3749e+05
3.3787e+05
3.3821e+05
3.385e+05
3.389e+05
3.3929e+05
3.3966e+05
3.4001e+05
3.4033e+05
3.4077e+05
3.4111e+05
3.4145e+05
3.418e+05
3.4215e+05
3.4253e+05
3.4287e+05
3.4321e+05
3.4362e+05
3.4402e+05
3.4435e+05
3.4467e+05
3.45e+05
3.4535e+05
3.4568e+05
3.4604e+05
3.464e+05
3.4679e+05
3.4713e+05
3.4745e+05
3.4785e+05
3.482e+05
3.485e+05
3.4882e+05
3.492e+05
3.4991e+05
3.5032e+05
3.5069e+05
3.5247e+05
3.5285e+05
3.5323e+05
3.536e+05
3.5393e+05
3.5427e+05
3.5458e+05
3.549e+05
3.5521e+05
3.555e+05
3.5577e+05
3.5634e+05
3.5668e+05
3.5708e+05
3.5746e+05
3.5787e+05
3.5828e+05
3.5868e+05
3.591e+05
3.595e+05
3.5989e+05
3.6024e+05
3.6065e+05
3.6105e+05
3.6141e+05
3.6175e+05
3.6207e+05
3.624e+05
3.628e+05
3.6321e+05
3.6357e+05
3.6393e+05
3.6561e+05
3.6591e+05
3.6641e+05
3.6677e+05
3.671e+05
3.6759e+05
3.6845e+05
3.6885e+05
3.6928e+05
3.6971e+05
3.7009e+05
3.7048e+05
3.7089e+05
3.7128e+05
3.7169e+05
3.7209e+05
3.7249e+05
3.7287e+05
3.7325e+05
3.7365e+05
3.7406e+05
3.7446e+05
3.7483e+05
3.7549e+05
3.7591e+05
3.7631e+05
3.7701e+05
3.7742e+05
3.7781e+05
3.785e+05
3.7885e+05
3.7922e+05
3.7994e+05
3.8037e+05
3.8452e+05
3.853e+05
3.8602e+05
3.864e+05
3.8678e+05
3.8714e+05
3.8747e+05
3.8899e+05
3.8936e+05
3.8974e+05
3.901e+05
3.9044e+05
3.9082e+05
3.9124e+05
3.916e+05
3.9191e+05
3.9226e+05
3.9263e+05
3.9301e+05
3.9341e+05
3.938e+05
3.9416e+05
3.9447e+05
3.9479e+05
3.9517e+05
3.9558e+05
3.9592e+05
3.963e+05
3.9767e+05
3.9804e+05
3.9838e+05
3.987e+05
3.9902e+05
3.9941e+05
3.9982e+05
4.002e+05
4.0057e+05
4.0094e+05
4.0127e+05
4.0165e+05
4.0201e+05
4.0243e+05
4.0279e+05
4.0317e+05
4.0353e+05
4.0391e+05
4.0429e+05
4.0466e+05
4.0504e+05
4.0539e+05
4.0571e+05
4.0608e+05
4.0647e+05
4.0688e+05
4.0728e+05
4.0763e+05
4.0804e+05
4.0843e+05
4.0884e+05
4.0926e+05
4.0962e+05
4.0998e+05
4.1037e+05
4.1076e+05
4.1112e+05
4.1147e+05
4.1181e+05
4.1211e+05
4.1247e+05
4.1287e+05
4.1323e+05
4.1356e+05
4.139e+05
4.1424e+05
4.1458e+05
4.1489e+05
4.152e+05
4.155e+05
4.1581e+05
4.1609e+05
4.1639e+05
4.1699e+05
4.1706e+05
4.1741e+05
4.1774e+05
4.1808e+05
4.1843e+05
4.1905e+05
4.1938e+05
4.1971e+05
4.2e+05
4.2029e+05
4.2059e+05
4.2087e+05
4.2139e+05
4.2176e+05
4.2215e+05
4.2253e+05
4.2291e+05
4.2371e+05
4.2407e+05
4.2442e+05
4.2479e+05
4.2519e+05
4.2557e+05
4.2598e+05
4.2633e+05
4.267e+05
4.2707e+05
4.2777e+05
4.2858e+05
4.2899e+05
4.2938e+05
4.302e+05
4.3061e+05
4.31e+05
4.3141e+05
4.318e+05
4.3222e+05
4.3264e+05
4.3302e+05
4.3327e+05
4.3337e+05
4.3382e+05
4.3421e+05
4.346e+05
4.3497e+05
4.353e+05
4.3567e+05
4.3609e+05
4.3647e+05
4.3684e+05
4.372e+05
4.3757e+05
4.3791e+05
4.3824e+05
4.387e+05
4.3904e+05
4.394e+05
4.3974e+05
4.4e+05
4.4041e+05
4.4079e+05
4.4119e+05
4.4159e+05
4.4197e+05
4.4229e+05
4.4262e+05
4.4295e+05
4.433e+05
4.4348e+05
4.4371e+05
4.4401e+05
4.4433e+05
4.4468e+05
4.4505e+05
4.4537e+05
4.457e+05
4.4604e+05
4.4636e+05
4.4664e+05
4.4698e+05
4.4733e+05
4.4764e+05
4.4791e+05
4.4818e+05
4.4847e+05
4.4887e+05
4.4929e+05
4.4967e+05
4.5005e+05
4.5041e+05
4.5101e+05
4.5136e+05
4.5178e+05
4.5216e+05
4.5247e+05
4.5277e+05
4.5309e+05
4.5349e+05
4.5389e+05
4.5425e+05
4.5458e+05
4.5496e+05
4.5531e+05
4.5563e+05
4.5595e+05
4.5629e+05
4.5665e+05
4.5708e+05
4.5753e+05
4.579e+05
4.5826e+05
4.5858e+05
4.5891e+05
4.5926e+05
4.5957e+05
4.5988e+05
4.6022e+05
4.6055e+05
4.6091e+05
4.627e+05
4.6306e+05
4.6345e+05
4.6383e+05
4.642e+05
4.6464e+05
4.6503e+05
4.6541e+05
4.6578e+05
4.6656e+05
4.6698e+05
4.6737e+05
4.6772e+05
4.681e+05
4.6849e+05
4.6887e+05
4.6928e+05
4.6968e+05
4.7002e+05
4.7033e+05
4.7074e+05
4.7117e+05
4.7154e+05
4.7185e+05
4.7218e+05
4.7254e+05
4.7292e+05
4.7329e+05
4.7366e+05
4.7404e+05
4.747e+05
4.7506e+05
4.7544e+05
4.7579e+05
4.7615e+05
4.7652e+05
4.7718e+05
4.7755e+05
4.7792e+05
4.7826e+05
4.7858e+05
4.7893e+05
4.7931e+05
4.7971e+05
4.8007e+05
4.8044e+05
4.8081e+05
4.8174e+05
4.8215e+05
4.8252e+05
4.8285e+05
4.8324e+05
4.8398e+05
4.8435e+05
4.8469e+05
4.8502e+05
4.8564e+05
4.8601e+05
4.8699e+05
4.8767e+05
4.8781e+05
4.8826e+05
4.887e+05
4.8948e+05
4.8987e+05
4.9061e+05
4.91e+05
4.9139e+05
4.9312e+05
4.9349e+05
4.9455e+05
4.9685e+05
4.9723e+05
4.9756e+05
4.9791e+05
4.9829e+05
4.9861e+05
4.9901e+05
4.9938e+05
4.9976e+05
5.0011e+05
5.0044e+05
5.008e+05
5.0119e+05
5.0157e+05
5.0194e+05
5.0227e+05
5.0263e+05
5.0299e+05
5.0334e+05
5.0369e+05
5.0405e+05
5.0439e+05
5.0476e+05
5.0515e+05
5.0553e+05
5.0589e+05
5.0627e+05
5.0662e+05
5.0694e+05
5.0732e+05
5.0767e+05
5.0809e+05
5.0845e+05
5.0882e+05
5.0914e+05
5.0951e+05
5.099e+05
5.1026e+05
5.1064e+05
5.1097e+05
5.1134e+05
5.1173e+05
5.1212e+05
5.1245e+05
5.1284e+05
5.1317e+05
5.1349e+05
5.1424e+05
5.146e+05
5.1493e+05
5.1527e+05
5.1563e+05
5.1624e+05
5.1658e+05
5.1691e+05
5.1719e+05
5.1753e+05
5.179e+05
5.1825e+05
5.186e+05
5.1894e+05
5.1928e+05
5.1956e+05
5.1993e+05
5.2062e+05
5.2098e+05
5.2133e+05
5.2162e+05
5.2192e+05
5.2219e+05
5.2254e+05
5.2286e+05
5.2317e+05
5.2359e+05
5.2394e+05
5.2423e+05
5.246e+05
5.2497e+05
5.2535e+05
5.2567e+05
5.2598e+05
5.2629e+05
5.266e+05
5.2692e+05
5.2726e+05
5.2758e+05
5.279e+05
5.2818e+05
5.2844e+05
5.2865e+05
5.2867e+05
5.2893e+05
5.2921e+05
5.2991e+05
5.3039e+05
5.3071e+05
5.3138e+05
5.315e+05
5.3187e+05
5.3221e+05
5.3259e+05
5.3293e+05
5.3332e+05
5.3375e+05
5.3416e+05
5.3454e+05
5.3491e+05
5.3528e+05
5.3564e+05
5.3601e+05
5.3639e+05
5.3676e+05
5.3715e+05
5.3751e+05
5.3789e+05
5.3822e+05
5.3854e+05
5.389e+05
5.3929e+05
5.3963e+05
5.4003e+05
5.4044e+05
5.4079e+05
5.4113e+05
5.4144e+05
5.4174e+05
5.4211e+05
5.4249e+05
5.4278e+05
5.4308e+05
5.4344e+05
5.4388e+05
5.4422e+05
5.4458e+05
5.4494e+05
5.4524e+05
5.4554e+05
5.4586e+05
5.4627e+05
5.4667e+05
5.4707e+05
5.4745e+05
5.478e+05
5.4816e+05
5.4855e+05
5.4895e+05
5.4931e+05
5.4964e+05
5.5e+05
5.5035e+05
5.5075e+05
5.5113e+05
5.5148e+05
5.5178e+05
5.5211e+05
5.5246e+05
5.5279e+05
5.5312e+05
5.5354e+05
5.5393e+05
5.5431e+05
5.5468e+05
5.5509e+05
5.5546e+05
5.5582e+05
5.5616e+05
5.5647e+05
5.5677e+05
5.5708e+05
5.574e+05
5.5773e+05
5.5807e+05
5.5837e+05
5.587e+05
5.5906e+05
5.594e+05
5.5973e+05
5.6007e+05
5.6038e+05
5.6068e+05
5.6108e+05
5.6149e+05
5.6185e+05
5.6221e+05
5.636e+05
5.6425e+05
5.6442e+05
5.6548e+05
5.6588e+05
5.6626e+05
5.666e+05
5.6694e+05
5.6727e+05
5.6759e+05
5.6789e+05
5.682e+05
5.6852e+05
5.6883e+05
5.6915e+05
5.6942e+05
5.6969e+05
5.7008e+05
5.7049e+05
5.7082e+05
5.7112e+05
5.7141e+05
5.7175e+05
5.731e+05
5.7346e+05
5.7376e+05
5.7405e+05
5.7438e+05
5.7476e+05
5.7509e+05
5.7539e+05
5.7574e+05
5.7611e+05
5.7647e+05
5.7683e+05
5.7718e+05
5.7751e+05
5.7789e+05
5.7801e+05
5.7869e+05
5.7905e+05
5.7943e+05
5.7975e+05
5.8008e+05
5.8044e+05
5.8081e+05
5.8116e+05
5.815e+05
5.8186e+05
5.8221e+05
5.8284e+05
5.8321e+05
5.8357e+05
5.8389e+05
5.8421e+05
5.8457e+05
5.8493e+05
5.8527e+05
5.8562e+05
5.8597e+05
5.8633e+05
5.8707e+05
5.8747e+05
5.8862e+05
5.89e+05
5.8937e+05
5.8974e+05
5.9012e+05
5.9052e+05
5.9171e+05
5.9214e+05
5.9252e+05
5.9292e+05
5.933e+05
5.9366e+05
5.9409e+05
5.9449e+05
5.9487e+05
5.9525e+05
5.9622e+05
5.9624e+05
5.9662e+05
5.97e+05
5.9737e+05
5.9774e+05
5.9809e+05
5.9845e+05
5.9881e+05
5.9914e+05
5.9943e+05
5.9974e+05
6.0013e+05
6.0053e+05
6.009e+05
6.0126e+05
6.0163e+05
6.0201e+05
6.0236e+05
6.0274e+05
6.031e+05
6.0342e+05
6.0372e+05
6.0409e+05
6.0442e+05
6.0478e+05
6.0516e+05
6.0553e+05
6.0589e+05
6.0622e+05
6.0661e+05
6.07e+05
6.0739e+05
6.0775e+05
6.0812e+05
6.0845e+05
6.0876e+05
6.0908e+05
6.0939e+05
6.0972e+05
6.1003e+05
6.1031e+05
6.1062e+05
6.1092e+05
6.1122e+05
6.1151e+05
6.1178e+05
6.1204e+05
6.123e+05
6.1263e+05
6.1289e+05
6.1325e+05
6.1355e+05
6.1365e+05
6.1402e+05
6.143e+05
6.1463e+05
6.1496e+05
6.153e+05
6.1567e+05
6.1599e+05
6.1634e+05
6.167e+05
6.1706e+05
6.174e+05
6.1778e+05
6.1818e+05
6.1853e+05
6.1885e+05
6.192e+05
6.1959e+05
6.2e+05
6.2039e+05
6.2081e+05
6.2118e+05
6.2154e+05
6.219e+05
6.2234e+05
6.2269e+05
6.2303e+05
6.2337e+05
6.2374e+05
6.2409e+05
6.2446e+05
6.2481e+05
6.2516e+05
6.2547e+05
6.2571e+05
6.258e+05
6.2621e+05
6.2623e+05
6.2664e+05
6.2694e+05
6.2729e+05
6.2757e+05
6.2784e+05
6.2811e+05
6.2838e+05
6.2913e+05
6.2924e+05
6.2951e+05
6.3003e+05
6.3046e+05
6.3083e+05
6.3117e+05
6.3156e+05
6.3192e+05
6.3228e+05
6.3293e+05
6.3332e+05
6.3373e+05
6.341e+05
6.3444e+05
6.3519e+05
6.3553e+05
6.3584e+05
6.362e+05
6.3669e+05
6.3708e+05
6.3744e+05
6.3781e+05
6.3818e+05
6.3853e+05
6.3885e+05
6.3919e+05
6.3959e+05
6.3997e+05
6.403e+05
6.4062e+05
6.4096e+05
6.4134e+05
6.4174e+05
6.4207e+05
6.4238e+05
6.4272e+05
6.4304e+05
6.4333e+05
6.437e+05
6.441e+05
6.4446e+05
6.4479e+05
6.4516e+05
6.4554e+05
6.4592e+05
6.467e+05
6.4703e+05
6.4733e+05
6.4761e+05
6.4793e+05
6.4826e+05
6.487e+05
6.4912e+05
6.4947e+05
6.4978e+05
