98
458
785
1145
1566
1915
2264
2638
3005
3344
3672
4046
4423
4758
5114
5454
5779
6096
6433
6795
7118
7430
7770
8120
8457
8770
9100
9435
9777
10092
10429
10767
11097
11412
11725
12051
12366
12670
13023
13362
13670
14024
14404
14744
15126
15535
15902
16258
16633
17005
17361
17722
18094
18454
18803
19156
19503
19820
20141
20474
20811
21112
21425
21767
22100
22456
22816
23153
23477
23808
24170
24500
24852
25223
25592
25947
26315
26667
27001
27318
27644
27971
28287
28602
28924
29285
29606
29937
30288
30628
30963
31316
31704
32045
32384
32733
33084
33405
33748
34094
34442
34760
35131
35479
35802
36166
36549
36863
37191
37568
37945
38271
38636
39032
39370
39709
40070
40439
40760
41091
41450
41781
42086
42402
42740
43069
43390
43733
44092
44415
44755
45125
45459
45798
46179
46541
46860
47169
47500
47811
48125
48458
48793
49123
49473
49831
50162
50482
50854
51211
51535
51882
52255
52577
52888
53220
53547
53851
54158
54493
54825
55130
55460
55858
56214
56548
56919
57266
57575
57922
58314
58662
59005
59363
59716
60028
60363
60710
61056
61375
61709
62076
62412
62718
63071
63449
63782
64126
64500
64859
65173
65483
65795
66111
66411
66730
67072
67398
67731
68170
68538
68912
69292
69672
70029
70408
70781
71130
71508
71876
72241
72596
72952
73318
73664
74016
74373
74732
75068
75410
75766
76127
76459
76805
77169
77525
77844
78167
78498
78809
79126
79440
79763
80076
80418
80776
81134
81455
81788
82108
82413
82726
83044
83340
83639
83954
84258
84550
84851
85158
85468
85813
86168
86513
86890
87255
87590
87940
88268
88575
88873
89192
89549
89897
90240
90636
91040
91400
91770
92153
92510
92832
93198
93572
93907
94225
94586
94946
95266
95596
95943
96269
96573
96915
97283
97614
97973
98348
98669
2.9804e+05
2.984e+05
2.9871e+05
2.9905e+05
2.994e+05
2.9972e+05
3.0003e+05
3.0034e+05
3.0068e+05
3.01e+05
3.0131e+05
3.0164e+05
3.0199e+05
3.023e+05
3.0263e+05
3.0303e+05
3.0341e+05
3.0374e+05
3.0407e+05
3.0441e+05
3.0474e+05
3.0505e+05
3.0539e+05
3.0575e+05
3.0609e+05
3.0641e+05
3.0673e+05
3.0707e+05
3.0743e+05
3.0774e+05
3.0806e+05
3.0839e+05
3.0873e+05
3.0904e+05
3.0935e+05
3.097e+05
3.1002e+05
3.1032e+05
3.1065e+05
3.1097e+05
3.113e+05
3.116e+05
3.1191e+05
3.1221e+05
3.1253e+05
3.1282e+05
3.1312e+05
3.1345e+05
3.138e+05
3.1412e+05
3.1448e+05
3.1493e+05
3.153e+05
3.1567e+05
3.1606e+05
3.1643e+05
3.1678e+05
3.1714e+05
3.1752e+05
3.1786e+05
3.1819e+05
3.1853e+05
3.1888e+05
3.1919e+05
3.1952e+05
3.1988e+05
3.2023e+05
3.2054e+05
3.209e+05
3.2128e+05
3.2163e+05
3.2194e+05
3.2228e+05
3.2267e+05
3.2301e+05
3.2334e+05
3.237e+05
3.2405e+05
3.2437e+05
3.2467e+05
3.2501e+05
3.2535e+05
3.2565e+05
3.2595e+05
3.2626e+05
3.2656e+05
3.2686e+05
3.2716e+05
3.2747e+05
3.2787e+05
3.282e+05
3.2857e+05
3.2897e+05
3.2935e+05
3.2967e+05
3.3001e+05
3.3039e+05
3.3071e+05
3.3103e+05
3.3136e+05
3.3169e+05
3.32e+05
3.3233e+05
3.3267e+05
3.3301e+05
3.3332e+05
3.3364e+05
3.3397e+05
3.3429e+05
3.3461e+05
3.3494e+05
3.3533e+05
3.3567e+05
3.3598e+05
3.3631e+05
3.3665e+05
3.3696e+05
3.3727e+05
3.3763e+05
3.3798e+05
3.3831e+05
3.3862e+05
3.3896e+05
3.3931e+05
3.3964e+05
3.3995e+05
3.4032e+05
3.4071e+05
3.4104e+05
3.4135e+05
3.4167e+05
3.4198e+05
3.4229e+05
3.426e+05
3.4296e+05
3.4332e+05
3.4363e+05
3.4398e+05
3.444e+05
3.4476e+05
3.4509e+05
3.4547e+05
3.4585e+05
3.4617e+05
3.4649e+05
3.4682e+05
3.4717e+05
3.4748e+05
3.4781e+05
3.4815e+05
3.4851e+05
3.4883e+05
3.4915e+05
3.4953e+05
3.5024e+05
3.509e+05
3.5151e+05
3.5276e+05
3.5308e+05
3.5438e+05
3.5668e+05
3.5699e+05
3.576e+05
3.5848e+05
3.5879e+05
3.5938e+05
3.597e+05
3.6065e+05
3.6131e+05
3.6163e+05
3.6197e+05
3.6273e+05
3.6307e+05
3.6341e+05
3.6405e+05
3.6437e+05
3.6535e+05
3.6568e+05
3.6634e+05
3.6665e+05
3.6696e+05
3.6792e+05
3.6824e+05
3.6856e+05
3.689e+05
3.6922e+05
3.6954e+05
3.6986e+05
3.7049e+05
3.7081e+05
3.7113e+05
3.7146e+05
3.7177e+05
3.7213e+05
3.7312e+05
3.7344e+05
3.7443e+05
3.7475e+05
3.7619e+05
3.7657e+05
3.7691e+05
3.7721e+05
3.7753e+05
3.7787e+05
3.782e+05
3.7852e+05
3.7883e+05
3.7914e+05
3.7945e+05
3.8006e+05
3.8068e+05
3.8098e+05
3.8226e+05
3.8257e+05
3.8289e+05
3.832e+05
3.8351e+05
3.8471e+05
3.85e+05
3.8531e+05
3.856e+05
3.8593e+05
3.8626e+05
3.8696e+05
3.9223e+05
3.9501e+05
3.963e+05
3.974e+05
3.9774e+05
3.9881e+05
3.9914e+05
3.9946e+05
4.0012e+05
4.0045e+05
4.0077e+05
4.0108e+05
4.0131e+05
4.0178e+05
4.021e+05
4.0243e+05
4.0316e+05
4.035e+05
4.0384e+05
4.0418e+05
4.0449e+05
4.0481e+05
4.0516e+05
4.0593e+05
4.0626e+05
4.066e+05
4.0728e+05
4.076e+05
4.0792e+05
4.0857e+05
4.0889e+05
4.0958e+05
4.0989e+05
4.1023e+05
4.1055e+05
4.1087e+05
4.1118e+05
4.1212e+05
4.1243e+05
4.1275e+05
4.1308e+05
4.1341e+05
4.1373e+05
4.1406e+05
4.1438e+05
4.147e+05
4.15e+05
4.1533e+05
4.1598e+05
4.1628e+05
4.1658e+05
4.1739e+05
4.1858e+05
4.2469e+05
4.2532e+05
4.2564e+05
4.3716e+05
4.3749e+05
4.3779e+05
4.3811e+05
4.3845e+05
4.3876e+05
4.3906e+05
4.3938e+05
4.3973e+05
4.4006e+05
4.4037e+05
4.4074e+05
4.4115e+05
4.415e+05
4.4183e+05
4.4215e+05
4.4247e+05
4.4279e+05
4.4309e+05
4.4341e+05
4.4376e+05
4.441e+05
4.4442e+05
4.4478e+05
4.4518e+05
4.4552e+05
4.4585e+05
4.4619e+05
4.4652e+05
4.4683e+05
4.4712e+05
4.4741e+05
4.4825e+05
4.4855e+05
4.4887e+05
4.4917e+05
4.495e+05
4.499e+05
4.5028e+05
4.5063e+05
4.5102e+05
4.5142e+05
4.5177e+05
4.5212e+05
4.5281e+05
4.5312e+05
4.5342e+05
4.5374e+05
4.5404e+05
4.5434e+05
4.5465e+05
4.5497e+05
4.5528e+05
4.5557e+05
4.5587e+05
4.562e+05
4.565e+05
4.5679e+05
4.5709e+05
4.5772e+05
4.5803e+05
4.5834e+05
4.593e+05
4.5959e+05
4.6017e+05
4.6046e+05
4.6076e+05
4.6105e+05
4.6135e+05
4.6165e+05
4.6197e+05
4.6257e+05
4.6288e+05
4.6351e+05
4.6381e+05
4.6792e+05
4.682e+05
4.6846e+05
4.6873e+05
4.69e+05
4.6954e+05
4.698e+05
4.7036e+05
4.7064e+05
4.7091e+05
4.7121e+05
4.7156e+05
4.7195e+05
4.7272e+05
4.731e+05
4.7345e+05
4.7379e+05
4.7415e+05
4.7449e+05
4.7481e+05
4.7511e+05
4.7543e+05
4.7575e+05
4.7608e+05
4.7639e+05
4.7671e+05
4.7706e+05
4.7768e+05
4.7799e+05
4.7831e+05
4.7862e+05
4.7891e+05
4.792e+05
4.795e+05
4.7979e+05
4.8008e+05
4.8038e+05
4.8098e+05
4.8128e+05
4.816e+05
4.8192e+05
4.8444e+05
4.8477e+05
4.854e+05
4.8573e+05
4.8605e+05
4.8636e+05
4.8667e+05
4.87e+05
4.8733e+05
4.8765e+05
4.8799e+05
4.887e+05
4.8902e+05
4.8932e+05
4.8963e+05
4.8993e+05
4.9024e+05
4.909e+05
4.9121e+05
4.919e+05
4.9225e+05
4.9256e+05
4.9353e+05
4.9384e+05
4.9416e+05
4.9449e+05
4.948e+05
4.9515e+05
4.9594e+05
-1
292
330
640
683
973
1013
1338
1373
1738
1793
2092
2139
2456
2496
2812
2864
3185
3235
3531
3571
3865
3906
4241
4279
4601
4653
4948
4993
5304
5347
5642
5680
5968
6009
6279
6318
6625
6668
6979
7021
7300
7337
7623
7662
7961
8003
8307
8342
8636
8682
8953
8997
9295
9338
9622
9662
9947
9999
10282
10325
10613
10652
10952
10991
11281
11322
11599
11643
11915
11956
12239
12279
12550
12591
12861
12904
13212
13256
13545
13589
13857
13902
14218
14261
14597
14636
14929
14972
15318
15357
15726
15762
16072
16124
16446
16487
17181
17239
17551
17590
17917
17956
18279
18329
18629
18672
18989
19031
19347
19387
19685
19738
20001
20050
20323
20372
20669
20709
20997
21036
21293
21335
21616
21661
21963
22001
22290
22339
22646
22691
23007
23045
23339
23385
23669
23708
23995
24032
24346
24398
24678
24728
25039
25078
25408
25443
25774
25829
26503
26540
26862
26897
27189
27231
27505
27547
27830
27869
28163
28205
28476
28520
28789
28830
29110
29154
29461
29516
29786
29833
30123
30165
30479
30520
30816
30863
31150
31192
31501
31540
31875
31932
32225
32275
32575
32618
32924
32962
33257
33312
33593
33637
33939
33980
34292
34330
34624
34669
34951
34992
35320
35365
35658
35704
35993
36038
36355
36398
36710
36769
37035
37086
37376
37421
37763
37802
38120
38172
38449
38501
38831
38872
39211
39258
39543
39596
39891
39933
40610
40665
40936
40984
41282
41322
41640
41682
41969
42009
42271
42313
42589
42632
42940
42979
43251
43299
43574
43620
43931
43975
44268
44323
44595
44637
44951
44991
45298
45355
45637
45693
45983
46023
46362
46417
46721
46771
47040
47079
47356
47400
47689
47726
47996
48041
48313
48352
48645
48686
48989
49024
49307
49349
49657
49699
50020
50057
50340
50385
50673
50716
51045
51083
51383
51434
51728
51772
52078
52116
52429
52479
52756
52802
53081
53119
53414
53452
53736
53775
54026
54079
54353
54398
54684
54724
55010
55047
55319
55359
55654
55696
56050
56086
56388
56437
56739
56780
57106
57141
57439
57489
57760
57800
58107
58147
58492
58549
58839
58892
59189
59233
59547
59600
59895
59944
60209
60255
60549
60591
60905
60944
61233
61286
61557
61596
61897
61944
62267
62304
62595
62631
62897
62941
63265
63300
63630
63685
63959
64009
64313
64358
64685
64734
65039
65088
65359
65400
65668
65708
65989
66030
66301
66340
66598
66639
66921
66963
67267
67307
67586
67629
67923
67965
68343
68400
68717
68770
69100
69141
69487
69522
69865
69905
70216
70258
70587
70635
70953
71009
71311
71365
71689
71736
72053
72104
72422
72478
72787
72823
73124
73178
73491
73544
73835
73893
74192
74243
74545
74597
74912
74967
75246
75299
75586
75639
75947
75999
76307
76364
76638
76686
76992
77036
77348
77403
77707
77755
78033
78073
78357
78393
78684
78723
79000
79038
79312
79354
79630
79672
79957
79997
80269
80308
80609
80649
80965
81321
81359
81642
81685
81973
82019
82295
82332
82601
82641
82916
82956
83233
83272
83525
83565
83826
83867
84148
84186
84444
84484
84735
84778
85036
85085
85352
85394
85654
85696
85998
86044
86359
86400
86705
86749
87082
87125
87440
87479
87778
87816
88128
88170
88454
88491
88755
88795
89053
89091
89383
89424
89735
89775
90069
90120
90433
90474
90815
90866
91212
91263
91575
91625
91965
92003
92329
92378
92678
92729
93014
93065
93374
93427
93749
93798
94086
94138
94416
94458
94780
94827
95126
95170
95451
95495
95789
95835
96135
96174
96446
96495
96755
96798
97105
97150
97472
97505
97787
97836
98168
98212
98537
98579
98847
98889
99372
99821
99872
1.0013e+05
1.0018e+05
1.0045e+05
1.0049e+05
1.0079e+05
1.0084e+05
1.0111e+05
1.0115e+05
1.0146e+05
1.015e+05
1.1851e+05
1.2969e+05
1.3797e+05
1.3811e+05
1.3939e+05
1.3943e+05
1.3979e+05
1.3983e+05
1.4011e+05
1.4016e+05
1.4044e+05
1.4048e+05
1.408e+05
1.4084e+05
1.4119e+05
1.4122e+05
1.4151e+05
1.4155e+05
1.4182e+05
1.4186e+05
1.4218e+05
1.4222e+05
1.4254e+05
1.4258e+05
1.4289e+05
1.4294e+05
1.4323e+05
1.4327e+05
1.4361e+05
1.4366e+05
1.44e+05
1.4405e+05
1.4435e+05
1.444e+05
1.4468e+05
1.4473e+05
1.4504e+05
1.4508e+05
1.4539e+05
1.4542e+05
1.457e+05
1.4574e+05
1.4601e+05
1.4605e+05
1.4635e+05
1.4639e+05
1.4669e+05
1.4674e+05
1.4701e+05
1.4705e+05
1.4734e+05
1.4738e+05
1.4769e+05
1.4773e+05
1.4805e+05
1.481e+05
1.4839e+05
1.4844e+05
1.4878e+05
1.4882e+05
1.4916e+05
1.4919e+05
1.4948e+05
1.4953e+05
1.498e+05
1.4985e+05
1.5013e+05
1.5017e+05
1.5045e+05
1.5049e+05
1.5076e+05
1.508e+05
1.5108e+05
1.5112e+05
1.5142e+05
1.5146e+05
1.5175e+05
1.5179e+05
1.5206e+05
1.521e+05
1.5238e+05
1.5242e+05
1.5271e+05
1.5274e+05
1.5303e+05
1.5307e+05
1.5334e+05
1.5338e+05
1.5369e+05
1.5373e+05
1.5407e+05
1.5411e+05
1.5441e+05
1.5446e+05
1.5474e+05
1.5479e+05
1.551e+05
1.5514e+05
1.5549e+05
1.5603e+05
1.5607e+05
1.5636e+05
1.5641e+05
1.5672e+05
1.5676e+05
1.5703e+05
1.5707e+05
1.5734e+05
1.5738e+05
1.5767e+05
1.5772e+05
1.5797e+05
1.5801e+05
1.5826e+05
1.5831e+05
1.5857e+05
1.5862e+05
1.5893e+05
1.5897e+05
1.5928e+05
1.5932e+05
1.596e+05
1.5964e+05
1.6e+05
1.6004e+05
1.6037e+05
1.6042e+05
1.6071e+05
1.6075e+05
1.6105e+05
1.6119e+05
1.6174e+05
1.6178e+05
1.6205e+05
1.6209e+05
1.6237e+05
1.6241e+05
1.6272e+05
1.6276e+05
1.6303e+05
1.6334e+05
1.6338e+05
1.6365e+05
1.6369e+05
1.646e+05
1.6464e+05
1.6493e+05
1.6497e+05
1.6597e+05
1.6601e+05
1.6695e+05
1.6699e+05
1.6754e+05
1.6759e+05
1.6813e+05
1.6818e+05
1.6844e+05
1.6848e+05
1.6905e+05
1.6936e+05
1.6941e+05
1.698e+05
1.6986e+05
1.7095e+05
1.7111e+05
1.7206e+05
1.7211e+05
1.7244e+05
1.7248e+05
1.7317e+05
1.7332e+05
1.7491e+05
1.7495e+05
1.7528e+05
1.7534e+05
1.7564e+05
1.757e+05
1.7598e+05
1.7602e+05
1.7634e+05
1.7639e+05
1.7671e+05
1.7675e+05
1.7703e+05
1.7708e+05
1.7736e+05
1.7741e+05
1.7772e+05
1.7775e+05
1.7815e+05
1.7872e+05
1.7876e+05
1.7908e+05
1.7912e+05
1.7944e+05
1.795e+05
1.8023e+05
1.8313e+05
1.8327e+05
1.8384e+05
1.8389e+05
1.8416e+05
1.842e+05
1.845e+05
1.8454e+05
1.8488e+05
1.8493e+05
1.852e+05
1.8526e+05
1.8561e+05
1.862e+05
1.8624e+05
1.865e+05
1.8655e+05
1.8682e+05
1.8686e+05
1.8715e+05
1.8719e+05
1.8748e+05
1.8752e+05
1.8778e+05
1.8782e+05
1.8811e+05
1.8815e+05
1.8846e+05
1.885e+05
1.8881e+05
1.8885e+05
1.8912e+05
1.8927e+05
1.8988e+05
1.8993e+05
1.9024e+05
1.9029e+05
1.906e+05
1.9073e+05
1.9161e+05
1.9165e+05
1.9194e+05
1.9199e+05
1.9229e+05
1.9233e+05
1.9263e+05
1.9267e+05
1.9295e+05
1.93e+05
1.9329e+05
1.9333e+05
1.9365e+05
1.9369e+05
1.9398e+05
1.9412e+05
1.9537e+05
1.9541e+05
1.9578e+05
1.9667e+05
1.9672e+05
1.9708e+05
1.9831e+05
1.9835e+05
1.9889e+05
1.9934e+05
1.9938e+05
1.9968e+05
1.9972e+05
2.0005e+05
2.0009e+05
2.011e+05
2.1857e+05
2.1943e+05
2.1955e+05
2.3875e+05
2.3879e+05
2.3911e+05
2.3915e+05
2.3944e+05
2.3948e+05
2.3974e+05
2.3979e+05
2.4008e+05
2.4012e+05
2.4043e+05
2.4047e+05
2.4074e+05
2.4078e+05
2.4105e+05
2.411e+05
2.4138e+05
2.4143e+05
2.4174e+05
2.4178e+05
2.4205e+05
2.4209e+05
2.4235e+05
2.424e+05
2.4268e+05
2.4272e+05
2.4303e+05
2.4334e+05
2.4339e+05
2.4366e+05
2.4371e+05
2.44e+05
2.4404e+05
2.4433e+05
2.4437e+05
2.4463e+05
2.4467e+05
2.4492e+05
2.4497e+05
2.4525e+05
2.453e+05
2.4559e+05
2.459e+05
2.4594e+05
2.4619e+05
2.4624e+05
2.4652e+05
2.4656e+05
2.4683e+05
2.4687e+05
2.4713e+05
2.4718e+05
2.4742e+05
2.4746e+05
2.4774e+05
2.4779e+05
2.4806e+05
2.481e+05
2.4836e+05
2.484e+05
2.4866e+05
2.487e+05
2.4898e+05
2.4902e+05
2.4933e+05
2.4937e+05
2.4964e+05
2.4968e+05
2.4995e+05
2.4999e+05
2.503e+05
2.5035e+05
2.5065e+05
2.507e+05
2.5098e+05
2.5102e+05
2.5132e+05
2.5136e+05
2.5166e+05
2.5171e+05
2.52e+05
2.5205e+05
2.5231e+05
2.5236e+05
2.5263e+05
2.5267e+05
2.5299e+05
2.5304e+05
2.5334e+05
2.5339e+05
2.5366e+05
2.537e+05
2.5403e+05
2.5407e+05
2.5442e+05
2.5446e+05
2.5474e+05
2.5479e+05
2.5506e+05
2.5511e+05
2.554e+05
2.5544e+05
2.5575e+05
2.5579e+05
2.5606e+05
2.561e+05
2.564e+05
2.5644e+05
2.568e+05
2.5684e+05
2.5752e+05
2.5757e+05
2.5786e+05
2.5791e+05
2.5824e+05
2.5828e+05
2.5855e+05
2.586e+05
2.5885e+05
2.589e+05
2.5917e+05
2.5922e+05
2.5949e+05
2.5953e+05
2.598e+05
2.5985e+05
2.6013e+05
2.6017e+05
2.6045e+05
2.605e+05
2.6079e+05
2.6111e+05
2.6116e+05
2.6146e+05
2.615e+05
2.6185e+05
2.619e+05
2.622e+05
2.6224e+05
2.6254e+05
2.6258e+05
2.6286e+05
2.629e+05
2.6318e+05
2.6322e+05
2.6349e+05
2.6353e+05
2.6381e+05
2.6385e+05
2.6411e+05
2.6416e+05
2.6443e+05
2.6447e+05
2.6473e+05
2.6477e+05
2.6504e+05
2.6509e+05
2.6537e+05
2.6542e+05
2.6568e+05
2.6572e+05
2.66e+05
2.6604e+05
2.663e+05
2.6635e+05
2.6661e+05
2.6665e+05
2.6691e+05
2.6695e+05
2.672e+05
2.6724e+05
2.6753e+05
2.6757e+05
2.6787e+05
2.6791e+05
2.6818e+05
2.6823e+05
2.6854e+05
2.6859e+05
2.6896e+05
2.6901e+05
2.6932e+05
2.6937e+05
2.6967e+05
2.6971e+05
2.7005e+05
2.7009e+05
2.7039e+05
2.7043e+05
2.7071e+05
2.7075e+05
2.7105e+05
2.7119e+05
2.7205e+05
2.721e+05
2.724e+05
2.7245e+05
2.7314e+05
2.7318e+05
2.7346e+05
2.735e+05
2.7381e+05
2.7385e+05
2.7417e+05
2.7421e+05
2.745e+05
2.7454e+05
2.7482e+05
2.7486e+05
2.7517e+05
2.7531e+05
2.7619e+05
2.7623e+05
2.7663e+05
2.7753e+05
2.7758e+05
2.779e+05
2.7794e+05
2.7822e+05
2.7828e+05
2.7854e+05
2.7859e+05
2.7897e+05
2.7992e+05
2.8103e+05
2.8108e+05
2.8143e+05
2.8227e+05
2.8232e+05
2.8267e+05
2.8324e+05
2.8353e+05
2.8358e+05
2.8388e+05
2.8392e+05
2.849e+05
2.8494e+05
2.8555e+05
2.856e+05
2.8585e+05
2.8589e+05
2.8616e+05
2.862e+05
2.8649e+05
2.8653e+05
2.874e+05
2.8745e+05
2.8775e+05
2.8779e+05
2.8807e+05
2.8811e+05
2.8837e+05
2.8842e+05
2.8869e+05
2.8874e+05
2.8903e+05
2.8907e+05
2.8935e+05
2.8965e+05
2.8969e+05
2.9002e+05
2.9007e+05
2.9041e+05
2.9046e+05
2.9077e+05
2.9081e+05
2.9112e+05
2.9116e+05
2.9148e+05
2.9151e+05
2.9183e+05
2.9187e+05
2.9214e+05
2.9218e+05
2.9247e+05
2.926e+05
2.935e+05
2.9355e+05
2.9386e+05
2.939e+05
2.9424e+05
2.9429e+05
2.9458e+05
2.9464e+05
2.9491e+05
2.9504e+05
2.9595e+05
2.96e+05
2.9626e+05
2.9631e+05
2.9658e+05
2.9662e+05
2.9701e+05
2.9755e+05
2.976e+05
2.9824e+05
2.9828e+05
2.9858e+05
2.9863e+05
2.9889e+05
2.9894e+05
2.9924e+05
2.9928e+05
2.9959e+05
2.9963e+05
2.9989e+05
2.9994e+05
3.0021e+05
3.0025e+05
3.0053e+05
3.0057e+05
3.0086e+05
3.009e+05
3.0118e+05
3.0122e+05
3.015e+05
3.0154e+05
3.0183e+05
3.0187e+05
3.0218e+05
3.0222e+05
3.0248e+05
3.0253e+05
3.0281e+05
3.0285e+05
3.032e+05
3.0325e+05
3.0358e+05
3.0364e+05
3.0393e+05
3.0397e+05
3.0426e+05
3.043e+05
3.046e+05
3.0465e+05
3.0493e+05
3.0497e+05
3.0523e+05
3.0527e+05
3.0558e+05
3.0562e+05
3.0594e+05
3.0598e+05
3.0628e+05
3.0633e+05
3.0659e+05
3.0663e+05
3.0692e+05
3.0727e+05
3.0731e+05
3.0762e+05
3.0765e+05
3.0792e+05
3.0796e+05
3.0825e+05
3.0829e+05
3.0858e+05
3.0862e+05
3.0892e+05
3.0897e+05
3.0922e+05
3.0926e+05
3.0954e+05
3.0958e+05
3.0989e+05
3.0993e+05
3.102e+05
3.1025e+05
3.1051e+05
3.1055e+05
3.1083e+05
3.1087e+05
3.1117e+05
3.1121e+05
3.1149e+05
3.1153e+05
3.1179e+05
3.1183e+05
3.1209e+05
3.1214e+05
3.1241e+05
3.1245e+05
3.1272e+05
3.1276e+05
3.1301e+05
3.1305e+05
3.1331e+05
3.1336e+05
3.1364e+05
3.1368e+05
3.1399e+05
3.1403e+05
3.143e+05
3.1435e+05
3.1467e+05
3.1472e+05
3.1512e+05
3.1515e+05
3.1548e+05
3.1552e+05
3.1587e+05
3.1591e+05
3.1625e+05
3.1629e+05
3.1662e+05
3.1666e+05
3.1696e+05
3.1701e+05
3.1733e+05
3.1738e+05
3.177e+05
3.1774e+05
3.1803e+05
3.1808e+05
3.1837e+05
3.1842e+05
3.1873e+05
3.1877e+05
3.1907e+05
3.1911e+05
3.1938e+05
3.1942e+05
3.197e+05
3.1975e+05
3.2008e+05
3.2012e+05
3.2042e+05
3.2046e+05
3.2073e+05
3.2077e+05
3.2109e+05
3.2114e+05
3.2147e+05
3.2151e+05
3.2181e+05
3.2185e+05
3.2212e+05
3.2216e+05
3.2247e+05
3.2252e+05
3.2286e+05
3.229e+05
3.2318e+05
3.2323e+05
3.2353e+05
3.2357e+05
3.2389e+05
3.2394e+05
3.2425e+05
3.2428e+05
3.2456e+05
3.246e+05
3.2486e+05
3.249e+05
3.2521e+05
3.2525e+05
3.2554e+05
3.2558e+05
3.2584e+05
3.2588e+05
3.2614e+05
3.2618e+05
3.2644e+05
3.2649e+05
3.2675e+05
3.2679e+05
3.2705e+05
3.2709e+05
3.2734e+05
3.2738e+05
3.2766e+05
3.2771e+05
3.2805e+05
3.2809e+05
3.2838e+05
3.2842e+05
3.2876e+05
3.288e+05
3.2917e+05
3.292e+05
3.2952e+05
3.2957e+05
3.2985e+05
3.2989e+05
3.302e+05
3.3024e+05
3.3058e+05
3.3062e+05
3.3089e+05
3.3093e+05
3.3121e+05
3.3125e+05
3.3155e+05
3.3159e+05
3.3188e+05
3.3192e+05
3.3219e+05
3.3223e+05
3.3251e+05
3.3255e+05
3.3287e+05
3.3291e+05
3.332e+05
3.3324e+05
3.335e+05
3.3354e+05
3.3383e+05
3.3387e+05
3.3416e+05
3.342e+05
3.3448e+05
3.3452e+05
3.3479e+05
3.3483e+05
3.3512e+05
3.3516e+05
3.3551e+05
3.3556e+05
3.3585e+05
3.359e+05
3.3616e+05
3.3621e+05
3.365e+05
3.3654e+05
3.3684e+05
3.3715e+05
3.372e+05
3.3746e+05
3.375e+05
3.3781e+05
3.3785e+05
3.3818e+05
3.3822e+05
3.3849e+05
3.3854e+05
3.388e+05
3.3885e+05
3.3915e+05
3.3919e+05
3.395e+05
3.3954e+05
3.3982e+05
3.3987e+05
3.4014e+05
3.4018e+05
3.4051e+05
3.4055e+05
3.4089e+05
3.4093e+05
3.4121e+05
3.4126e+05
3.4153e+05
3.4157e+05
3.4185e+05
3.4189e+05
3.4217e+05
3.4221e+05
3.4247e+05
3.4251e+05
3.4279e+05
3.4283e+05
3.4315e+05
3.4319e+05
3.435e+05
3.4354e+05
3.4381e+05
3.4385e+05
3.4417e+05
3.4421e+05
3.4459e+05
3.4463e+05
3.4494e+05
3.4499e+05
3.4528e+05
3.4566e+05
3.457e+05
3.4603e+05
3.4607e+05
3.4635e+05
3.4639e+05
3.4668e+05
3.4672e+05
3.4701e+05
3.4705e+05
3.4736e+05
3.474e+05
3.4766e+05
3.477e+05
3.48e+05
3.4804e+05
3.4835e+05
3.4839e+05
3.487e+05
3.4874e+05
3.49e+05
3.4905e+05
3.4934e+05
3.4938e+05
3.4972e+05
3.4976e+05
3.505e+05
3.5116e+05
3.5176e+05
3.5295e+05
3.5299e+05
3.5335e+05
3.5456e+05
3.547e+05
3.5686e+05
3.569e+05
3.5724e+05
3.5792e+05
3.5868e+05
3.5872e+05
3.5911e+05
3.5957e+05
3.5961e+05
3.5989e+05
3.5993e+05
3.6083e+05
3.6088e+05
3.615e+05
3.6154e+05
3.6181e+05
3.6185e+05
3.6215e+05
3.622e+05
3.629e+05
3.6295e+05
3.6325e+05
3.633e+05
3.6368e+05
3.6423e+05
3.6427e+05
3.6456e+05
3.6469e+05
3.6554e+05
3.6558e+05
3.6594e+05
3.6651e+05
3.6657e+05
3.6683e+05
3.6687e+05
3.6715e+05
3.6719e+05
3.6811e+05
3.6815e+05
3.6842e+05
3.6846e+05
3.6876e+05
3.6879e+05
3.6909e+05
3.6914e+05
3.694e+05
3.6944e+05
3.6972e+05
3.6976e+05
3.7005e+05
3.7009e+05
3.7067e+05
3.7071e+05
3.7099e+05
3.7103e+05
3.7132e+05
3.7136e+05
3.7165e+05
3.7169e+05
3.7195e+05
3.72e+05
3.724e+05
3.733e+05
3.7334e+05
3.7363e+05
3.7367e+05
3.7461e+05
3.7465e+05
3.7494e+05
3.7498e+05
3.7638e+05
3.7642e+05
3.7676e+05
3.768e+05
3.7709e+05
3.7714e+05
3.7739e+05
3.7744e+05
3.7772e+05
3.7776e+05
3.7806e+05
3.781e+05
3.784e+05
3.7843e+05
3.7871e+05
3.7875e+05
3.7901e+05
3.7906e+05
3.7934e+05
3.7938e+05
3.7964e+05
3.7973e+05
3.8025e+05
3.8029e+05
3.8087e+05
3.8091e+05
3.8117e+05
3.8121e+05
3.8244e+05
3.8249e+05
3.8276e+05
3.828e+05
3.8308e+05
3.8339e+05
3.8343e+05
3.8369e+05
3.8373e+05
3.8489e+05
3.8518e+05
3.8523e+05
3.8549e+05
3.8579e+05
3.8583e+05
3.8611e+05
3.8616e+05
3.8644e+05
3.8649e+05
3.8714e+05
3.8719e+05
3.9242e+05
3.9247e+05
3.9518e+05
3.9523e+05
3.9648e+05
3.9653e+05
3.9759e+05
3.9763e+05
3.9793e+05
3.9797e+05
3.9899e+05
3.9903e+05
3.9933e+05
3.9937e+05
3.9966e+05
3.9997e+05
4.0001e+05
4.003e+05
4.0034e+05
4.0064e+05
4.0068e+05
4.0095e+05
4.0101e+05
4.0127e+05
4.015e+05
4.0197e+05
4.02e+05
4.023e+05
4.0234e+05
4.0261e+05
4.0285e+05
4.0335e+05
4.034e+05
4.0369e+05
4.0373e+05
4.0403e+05
4.0407e+05
4.0436e+05
4.044e+05
4.0468e+05
4.0472e+05
4.05e+05
4.0504e+05
4.0536e+05
4.054e+05
4.0574e+05
4.0578e+05
4.0611e+05
4.0616e+05
4.0644e+05
4.0649e+05
4.0679e+05
4.0683e+05
4.0702e+05
4.0748e+05
4.0752e+05
4.0779e+05
4.0783e+05
4.081e+05
4.0815e+05
4.0844e+05
4.0849e+05
4.0876e+05
4.088e+05
4.0907e+05
4.0912e+05
4.0942e+05
4.0947e+05
4.0977e+05
4.0981e+05
4.1009e+05
4.1013e+05
4.1041e+05
4.1046e+05
4.1073e+05
4.1077e+05
4.1107e+05
4.1111e+05
4.1136e+05
4.1168e+05
4.1198e+05
4.1203e+05
4.123e+05
4.1235e+05
4.1262e+05
4.1266e+05
4.1293e+05
4.1298e+05
4.1326e+05
4.1331e+05
4.136e+05
4.1364e+05
4.1391e+05
4.1396e+05
4.1425e+05
4.1429e+05
4.1457e+05
4.1461e+05
4.1488e+05
4.1492e+05
4.1519e+05
4.1523e+05
4.1552e+05
4.1556e+05
4.1617e+05
4.1621e+05
4.1647e+05
4.1651e+05
4.1677e+05
4.1681e+05
4.1728e+05
4.1757e+05
4.1788e+05
4.1818e+05
4.1875e+05
4.1904e+05
4.1934e+05
4.1963e+05
4.1991e+05
4.2022e+05
4.2053e+05
4.2083e+05
4.2113e+05
4.2181e+05
4.2212e+05
4.2276e+05
4.2308e+05
4.2339e+05
4.237e+05
4.2404e+05
4.2503e+05
4.2551e+05
4.2556e+05
4.2582e+05
4.2586e+05
4.3735e+05
4.374e+05
4.3767e+05
4.3771e+05
4.3797e+05
4.3802e+05
4.383e+05
4.3835e+05
4.3864e+05
4.3868e+05
4.3894e+05
4.3898e+05
4.3924e+05
4.3928e+05
4.3957e+05
4.3961e+05
4.3992e+05
4.3997e+05
4.4024e+05
4.4028e+05
4.4055e+05
4.4059e+05
4.4093e+05
4.4098e+05
4.4134e+05
4.4138e+05
4.4168e+05
4.4173e+05
4.4201e+05
4.4205e+05
4.4234e+05
4.4238e+05
4.4266e+05
4.427e+05
4.4297e+05
4.4301e+05
4.4327e+05
4.4331e+05
4.436e+05
4.4365e+05
4.4394e+05
4.4399e+05
4.4429e+05
4.4432e+05
4.446e+05
4.4465e+05
4.4497e+05
4.4536e+05
4.4541e+05
4.457e+05
4.4575e+05
4.4604e+05
4.4609e+05
4.4637e+05
4.4641e+05
4.4671e+05
4.4675e+05
4.4701e+05
4.4705e+05
4.473e+05
4.4735e+05
4.4759e+05
4.4763e+05
4.4844e+05
4.4848e+05
4.4874e+05
4.4879e+05
4.4906e+05
4.4936e+05
4.494e+05
4.4969e+05
4.4974e+05
4.5009e+05
4.5015e+05
4.5047e+05
4.5051e+05
4.5081e+05
4.5085e+05
4.5121e+05
4.5126e+05
4.5161e+05
4.5165e+05
4.5195e+05
4.5199e+05
4.5231e+05
4.5246e+05
4.53e+05
4.5304e+05
4.533e+05
4.5334e+05
4.5361e+05
4.5365e+05
4.5393e+05
4.5397e+05
4.5423e+05
4.5427e+05
4.5453e+05
4.5457e+05
4.5483e+05
4.5487e+05
4.5516e+05
4.5546e+05
4.555e+05
4.5575e+05
4.558e+05
4.5605e+05
4.561e+05
4.5639e+05
4.5669e+05
4.5673e+05
4.5697e+05
4.5702e+05
4.5728e+05
4.5732e+05
4.5792e+05
4.5795e+05
4.5821e+05
4.5826e+05
4.5853e+05
4.5887e+05
4.5947e+05
4.5952e+05
4.5977e+05
4.5981e+05
4.6035e+05
4.6039e+05
4.6064e+05
4.6069e+05
4.6094e+05
4.6098e+05
4.6123e+05
4.6128e+05
4.6154e+05
4.6158e+05
4.6184e+05
4.6188e+05
4.6215e+05
4.6224e+05
4.6276e+05
4.628e+05
4.6307e+05
4.6312e+05
4.6369e+05
4.6373e+05
4.64e+05
4.6405e+05
4.6811e+05
4.6814e+05
4.6836e+05
4.6863e+05
4.6867e+05
4.689e+05
4.6918e+05
4.6971e+05
4.6998e+05
4.7054e+05
4.7082e+05
4.7109e+05
4.7113e+05
4.7139e+05
4.7175e+05
4.718e+05
4.7213e+05
4.7218e+05
4.7291e+05
4.7296e+05
4.7329e+05
4.7334e+05
4.7363e+05
4.7367e+05
4.7397e+05
4.7402e+05
4.7434e+05
4.7438e+05
4.7468e+05
4.7472e+05
4.75e+05
4.7504e+05
4.753e+05
4.7534e+05
4.7561e+05
4.7566e+05
4.7594e+05
4.7627e+05
4.7631e+05
4.7657e+05
4.7662e+05
4.7691e+05
4.7695e+05
4.7733e+05
4.7787e+05
4.7791e+05
4.7818e+05
4.7822e+05
4.785e+05
4.7855e+05
4.7881e+05
4.7909e+05
4.7913e+05
4.7938e+05
4.7968e+05
4.7997e+05
4.8002e+05
4.8026e+05
4.8056e+05
4.8116e+05
4.8121e+05
4.8147e+05
4.8151e+05
4.8179e+05
4.8183e+05
4.8211e+05
4.8215e+05
4.8463e+05
4.8468e+05
4.8496e+05
4.85e+05
4.8559e+05
4.8563e+05
4.8592e+05
4.8596e+05
4.8624e+05
4.8629e+05
4.8654e+05
4.8659e+05
4.8686e+05
4.869e+05
4.872e+05
4.8724e+05
4.8752e+05
4.8757e+05
4.8783e+05
4.8788e+05
4.8818e+05
4.8822e+05
4.8855e+05
4.886e+05
4.8889e+05
4.8893e+05
4.892e+05
4.8925e+05
4.8951e+05
4.8982e+05
4.8986e+05
4.9012e+05
4.9016e+05
4.9043e+05
4.9076e+05
4.9081e+05
4.9109e+05
4.914e+05
4.9144e+05
4.9172e+05
4.921e+05
4.9215e+05
4.9244e+05
4.9248e+05
4.9274e+05
4.9279e+05
4.9316e+05
4.9372e+05
4.9376e+05
4.9403e+05
4.9408e+05
4.9434e+05
4.9468e+05
4.9472e+05
4.9499e+05
4.9504e+05
4.9533e+05
4.9537e+05
4.9614e+05
4.9618e+05
4.9686e+05
4.969e+05
4.972e+05
4.9725e+05
4.9753e+05
4.9757e+05
4.9784e+05
4.9789e+05
4.9813e+05
4.9817e+05
4.9843e+05
4.9847e+05
4.9873e+05
4.9904e+05
4.9934e+05
4.9938e+05
4.9964e+05
4.9968e+05
4.9997e+05
5.0002e+05
5.0031e+05
5.0035e+05
5.0061e+05
5.0065e+05
5.0092e+05
5.0096e+05
5.0124e+05
5.0129e+05
5.0158e+05
5.0162e+05
5.0188e+05
5.0192e+05
5.0217e+05
5.0221e+05
5.0248e+05
5.0278e+05
5.0306e+05
5.031e+05
5.0335e+05
5.034e+05
5.0364e+05
5.0395e+05
5.0399e+05
5.0424e+05
5.0429e+05
5.0453e+05
5.0457e+05
5.0484e+05
5.0489e+05
5.0518e+05
5.0522e+05
5.0547e+05
5.0551e+05
5.0577e+05
5.0582e+05
5.0609e+05
5.064e+05
5.0645e+05
5.067e+05
5.0674e+05
5.0701e+05
5.0705e+05
5.0732e+05
5.0736e+05
5.0764e+05
5.0768e+05
5.0793e+05
5.0798e+05
5.0825e+05
5.083e+05
5.0857e+05
5.0861e+05
5.0888e+05
5.0893e+05
5.0923e+05
5.0927e+05
5.0966e+05
5.0971e+05
5.1004e+05
5.1009e+05
5.1045e+05
5.1049e+05
5.1081e+05
5.1086e+05
5.112e+05
5.1124e+05
5.1159e+05
5.1163e+05
5.1196e+05
5.12e+05
5.1233e+05
5.1237e+05
5.1268e+05
5.1273e+05
5.1305e+05
5.131e+05
5.1343e+05
5.1347e+05
5.1377e+05
5.1382e+05
5.1415e+05
5.142e+05
5.1452e+05
5.1456e+05
5.1484e+05
5.1488e+05
5.1516e+05
5.1521e+05
5.1549e+05
5.1553e+05
5.1578e+05
5.1606e+05
5.1611e+05
5.1636e+05
5.1641e+05
5.1669e+05
5.1673e+05
5.1698e+05
5.1703e+05
5.1727e+05
5.1731e+05
5.1756e+05
5.176e+05
5.1785e+05
5.179e+05
5.1814e+05
5.1818e+05
5.1841e+05
5.1869e+05
5.1897e+05
5.1925e+05
5.1955e+05
5.1983e+05
5.2011e+05
5.2015e+05
5.2042e+05
5.2075e+05
5.2079e+05
5.2104e+05
5.2108e+05
5.2135e+05
5.214e+05
5.2172e+05
5.2176e+05
5.2211e+05
5.2215e+05
5.2243e+05
5.2248e+05
5.2278e+05
5.2282e+05
5.2314e+05
5.2318e+05
5.2348e+05
5.2352e+05
5.2378e+05
5.2382e+05
5.2409e+05
5.2414e+05
5.2444e+05
5.2448e+05
5.2482e+05
5.2485e+05
5.2518e+05
5.2522e+05
5.255e+05
5.2555e+05
5.2584e+05
5.2588e+05
5.2625e+05
5.2629e+05
5.2662e+05
5.2667e+05
5.2697e+05
5.2702e+05
5.2731e+05
5.2736e+05
5.2765e+05
5.2769e+05
5.28e+05
5.2804e+05
5.2831e+05
5.2835e+05
5.2861e+05
5.2866e+05
5.2893e+05
5.2897e+05
5.2927e+05
5.2932e+05
5.2962e+05
5.2967e+05
5.2993e+05
5.2998e+05
5.3028e+05
5.3073e+05
5.3078e+05
5.311e+05
5.3114e+05
5.3146e+05
5.315e+05
5.3181e+05
5.3186e+05
5.3216e+05
5.3221e+05
5.3248e+05
5.3253e+05
5.328e+05
5.3284e+05
5.3311e+05
5.3316e+05
5.3343e+05
5.3347e+05
5.3372e+05
5.3377e+05
5.3405e+05
5.3409e+05
5.3437e+05
5.3442e+05
5.3476e+05
5.348e+05
5.3511e+05
5.3515e+05
5.3552e+05
5.3557e+05
5.3592e+05
5.3597e+05
5.363e+05
5.3634e+05
5.3669e+05
5.3674e+05
5.3707e+05
5.3712e+05
5.3744e+05
5.3748e+05
5.3781e+05
5.3785e+05
5.3815e+05
5.382e+05
5.3851e+05
5.3855e+05
5.3883e+05
5.3887e+05
5.3913e+05
5.3943e+05
5.3947e+05
5.3973e+05
5.3978e+05
5.4007e+05
5.4011e+05
5.4042e+05
5.4046e+05
5.4074e+05
5.4079e+05
5.411e+05
5.4115e+05
5.4143e+05
5.4147e+05
5.4172e+05
5.4177e+05
5.4203e+05
5.4208e+05
5.4235e+05
5.424e+05
5.4271e+05
5.4275e+05
5.4301e+05
5.4306e+05
5.4332e+05
5.4336e+05
5.4369e+05
5.4373e+05
5.4403e+05
5.4408e+05
5.4438e+05
5.4442e+05
5.448e+05
5.4485e+05
5.4519e+05
5.4524e+05
5.4555e+05
5.4559e+05
5.4588e+05
5.4593e+05
5.4624e+05
5.4628e+05
5.4654e+05
5.4659e+05
5.4691e+05
5.4746e+05
5.475e+05
5.4776e+05
5.478e+05
5.4808e+05
5.4812e+05
5.4841e+05
5.4845e+05
5.4873e+05
5.4878e+05
5.4904e+05
5.4908e+05
5.4935e+05
5.4939e+05
5.4968e+05
5.4972e+05
5.5e+05
5.5004e+05
5.503e+05
5.5035e+05
5.5239e+05
5.5244e+05
5.5269e+05
5.5274e+05
5.5302e+05
5.5307e+05
5.5336e+05
5.534e+05
5.5368e+05
5.5373e+05
5.54e+05
5.5404e+05
5.5443e+05
5.5448e+05
5.5483e+05
5.5487e+05
5.5519e+05
5.5523e+05
5.5557e+05
5.5562e+05
5.5595e+05
5.56e+05
5.563e+05
5.5636e+05
5.5669e+05
5.5674e+05
5.5705e+05
5.5711e+05
5.5742e+05
5.5747e+05
5.5781e+05
5.5786e+05
5.5822e+05
5.5828e+05
5.5859e+05
5.5864e+05
5.59e+05
5.5904e+05
5.5937e+05
5.5943e+05
5.5974e+05
5.5979e+05
5.6014e+05
5.6018e+05
5.6051e+05
5.6057e+05
5.6088e+05
5.6093e+05
5.6125e+05
5.613e+05
5.6162e+05
5.6167e+05
5.6197e+05
5.6202e+05
5.6231e+05
5.6235e+05
5.6264e+05
5.6268e+05
5.6294e+05
5.6299e+05
5.6324e+05
5.6329e+05
5.6355e+05
5.6359e+05
5.6387e+05
5.6392e+05
5.6557e+05
5.6943e+05
5.8004e+05
5.8299e+05
5.8314e+05
5.8372e+05
5.8379e+05
5.8407e+05
5.8412e+05
5.8446e+05
5.845e+05
5.8483e+05
5.8498e+05
5.8633e+05
5.8669e+05
5.8728e+05
5.8732e+05
5.876e+05
5.8765e+05
5.8884e+05
5.8888e+05
5.8921e+05
5.8925e+05
5.8998e+05
5.9003e+05
5.9114e+05
5.9119e+05
5.9156e+05
5.94e+05
5.9493e+05
5.9497e+05
5.9537e+05
5.9607e+05
5.9611e+05
5.9638e+05
5.9641e+05
5.9667e+05
5.9671e+05
5.9695e+05
5.97e+05
5.9725e+05
5.973e+05
5.9757e+05
5.9761e+05
5.9789e+05
5.9794e+05
5.9821e+05
5.9825e+05
5.985e+05
5.9855e+05
5.9884e+05
5.9888e+05
5.9931e+05
5.9936e+05
5.9968e+05
5.9972e+05
6.0008e+05
6.0013e+05
6.0053e+05
6.0057e+05
6.0093e+05
6.0098e+05
6.0132e+05
6.0136e+05
6.0173e+05
6.0177e+05
6.021e+05
6.0215e+05
6.0247e+05
6.0252e+05
6.0288e+05
6.0292e+05
6.0326e+05
6.033e+05
6.036e+05
6.0365e+05
6.0401e+05
6.0406e+05
6.0443e+05
6.0448e+05
6.0481e+05
6.0486e+05
6.0525e+05
6.0529e+05
6.0564e+05
6.0569e+05
6.0604e+05
6.0608e+05
6.0643e+05
6.0648e+05
6.068e+05
6.0684e+05
6.0719e+05
6.0723e+05
6.0758e+05
6.0763e+05
6.0793e+05
6.0798e+05
6.0829e+05
6.0833e+05
6.0866e+05
6.0871e+05
6.0902e+05
6.0907e+05
6.0938e+05
6.0942e+05
6.0977e+05
6.0982e+05
6.1019e+05
6.1025e+05
6.1061e+05
6.1065e+05
6.1099e+05
6.1104e+05
6.1139e+05
6.1143e+05
6.1184e+05
6.1214e+05
6.1218e+05
6.1247e+05
6.1252e+05
6.1282e+05
6.1286e+05
6.1322e+05
6.1327e+05
6.1364e+05
6.1368e+05
6.1404e+05
6.1409e+05
6.1442e+05
6.1446e+05
6.1482e+05
6.1486e+05
6.1517e+05
6.1523e+05
6.1555e+05
6.156e+05
6.1591e+05
6.1596e+05
6.1625e+05
6.1629e+05
6.1655e+05
6.1659e+05
6.1687e+05
6.1691e+05
6.172e+05
6.1725e+05
6.175e+05
6.1754e+05
6.178e+05
6.1784e+05
6.1811e+05
6.1816e+05
6.1842e+05
6.1846e+05
6.1871e+05
6.1875e+05
6.1901e+05
6.1906e+05
6.1932e+05
6.1936e+05
6.1961e+05
6.1965e+05
6.199e+05
6.1993e+05
6.2017e+05
6.2022e+05
6.2048e+05
6.2052e+05
6.2078e+05
6.2082e+05
6.2108e+05
6.2112e+05
6.2136e+05
6.214e+05
6.2164e+05
6.2169e+05
6.2194e+05
6.2198e+05
6.2223e+05
6.2228e+05
6.2253e+05
6.2257e+05
6.2282e+05
6.2286e+05
6.2313e+05
6.2317e+05
6.2343e+05
6.2347e+05
6.2373e+05
6.2377e+05
6.2403e+05
6.2407e+05
6.2433e+05
6.2437e+05
6.2462e+05
6.2466e+05
6.2491e+05
6.2496e+05
6.2521e+05
6.2552e+05
6.2556e+05
6.2581e+05
6.2586e+05
6.261e+05
6.2615e+05
6.2642e+05
6.2646e+05
6.2673e+05
6.2677e+05
6.2703e+05
6.2708e+05
6.2733e+05
6.2737e+05
6.2763e+05
6.2767e+05
6.2793e+05
6.2797e+05
6.2825e+05
6.2829e+05
6.2854e+05
6.2858e+05
6.2882e+05
6.2886e+05
6.2913e+05
6.2917e+05
6.2944e+05
6.2949e+05
6.2975e+05
6.2979e+05
6.3004e+05
6.3009e+05
6.3033e+05
6.3038e+05
6.3066e+05
6.307e+05
6.3098e+05
6.3102e+05
6.3128e+05
6.3132e+05
6.3157e+05
6.3162e+05
6.3189e+05
6.3194e+05
6.3223e+05
6.3228e+05
6.3257e+05
6.326e+05
6.3289e+05
6.3294e+05
6.3336e+05
6.3339e+05
6.3374e+05
6.3379e+05
6.3414e+05
6.3418e+05
6.3454e+05
6.3459e+05
6.3491e+05
6.3496e+05
6.3531e+05
6.3535e+05
6.3571e+05
6.3576e+05
6.3607e+05
6.3612e+05
6.3643e+05
6.3648e+05
6.368e+05
6.3685e+05
6.3715e+05
6.372e+05
6.3754e+05
6.3759e+05
6.3792e+05
6.3796e+05
6.3828e+05
6.3833e+05
6.3868e+05
6.3873e+05
6.3903e+05
6.3908e+05
6.3937e+05
6.3941e+05
6.3976e+05
6.3981e+05
6.4014e+05
6.4018e+05
6.4049e+05
6.4053e+05
6.409e+05
6.4095e+05
6.4126e+05
6.413e+05
6.4164e+05
6.4168e+05
6.4201e+05
6.4205e+05
6.4236e+05
6.424e+05
6.4272e+05
6.4277e+05
6.4309e+05
6.4313e+05
6.4343e+05
6.4348e+05
6.4374e+05
6.4378e+05
6.4404e+05
6.4408e+05
6.4434e+05
6.4463e+05
6.4492e+05
6.4496e+05
6.4521e+05
6.4526e+05
6.4551e+05
6.4555e+05
6.4579e+05
6.4584e+05
6.4608e+05
6.4613e+05
6.4637e+05
6.4641e+05
6.4666e+05
6.4669e+05
6.4696e+05
6.4699e+05
6.4716e+05
6.4727e+05
6.4751e+05
6.4779e+05
6.4782e+05
6.4806e+05
6.4832e+05
6.4859e+05
6.4887e+05
6.4918e+05
6.4948e+05
6.4977e+05
