235
512
788
1058
1323
1593
1859
2134
2400
2668
2940
3210
3481
3748
4019
4295
4566
4838
5116
5930
6206
6486
6756
7034
7312
7588
7864
8137
8408
8693
8961
9234
9515
9787
10055
10325
10595
10872
11140
11411
11688
11965
12233
12501
12777
13062
13339
13615
13902
14175
14447
14724
14997
15543
15814
16089
16368
16636
16904
17181
17465
17740
18019
18305
18586
18864
19141
19418
19706
19976
20255
20540
20819
21097
21374
21651
21938
22215
22500
22776
23050
23332
23606
23881
24161
24436
24712
24995
25263
25543
25818
26100
26375
26651
26934
27206
27478
27755
28028
28305
28581
28848
29127
29398
29664
29940
30210
30488
30765
31036
31320
31594
31862
32138
32412
32689
32960
33232
33519
33795
34069
34348
34630
34909
35466
35717
36296
36569
36839
37121
37393
37668
37946
38220
38492
39042
39319
39875
40154
40435
40712
40985
41264
41548
41820
42093
42374
42647
42920
43192
43470
43757
44030
44308
44590
44864
45106
45414
45690
45972
46247
46528
46810
47086
47365
47641
47919
48203
48479
48753
49033
49306
49576
49850
50124
50397
50667
50947
51220
51487
51768
52036
52315
52595
52868
53146
53426
53968
54241
54512
54783
55054
55329
55600
55871
56069
56416
56692
57236
57510
57783
58049
58313
58584
58851
59118
59384
59658
59925
60191
60466
60733
61008
61284
61554
61825
62096
62363
62633
62898
63164
63437
63708
63983
64254
64522
64794
65064
65338
65614
65884
66160
66432
66701
66971
67242
67512
67788
68055
68332
68602
68870
69146
69414
69690
69963
70232
70507
70781
71052
71322
71589
71862
72135
72400
72668
72940
73213
73480
73745
74016
74291
74554
75101
75371
75634
75903
76168
76440
76707
76971
77245
77513
77776
78042
78313
78582
78850
79115
79389
79657
79922
80193
80456
80993
81258
81525
81797
82064
82328
82597
82866
83140
83401
83670
83942
84210
84475
84738
85005
85278
85546
85810
86085
86356
86620
86891
87161
87439
87705
87977
88255
88528
88795
89064
89336
89615
89885
90156
90434
90711
90982
91256
91531
91810
92080
92356
92632
92900
93172
93436
93700
93978
94243
94514
95062
95332
95875
96424
96963
97227
97496
97757
98024
98298
98563
98829
99423
99699
99973
1.0025e+05
1.0054e+05
1.0081e+05
1.0109e+05
1.0138e+05
1.0166e+05
1.0193e+05
1.022e+05
1.0248e+05
1.0304e+05
1.0415e+05
1.0497e+05
1.0532e+05
1.0577e+05
1.0604e+05
1.063e+05
1.0656e+05
1.0682e+05
1.0709e+05
1.0736e+05
1.0818e+05
1.0846e+05
1.0902e+05
1.0931e+05
1.0987e+05
1.1015e+05
1.1043e+05
1.1098e+05
1.1125e+05
1.1153e+05
1.1181e+05
1.1264e+05
1.1318e+05
1.1374e+05
1.1455e+05
1.1482e+05
1.1536e+05
1.1563e+05
1.1591e+05
1.1646e+05
1.1701e+05
1.1728e+05
1.1755e+05
1.1782e+05
1.1809e+05
1.1836e+05
1.1862e+05
1.1916e+05
1.1942e+05
1.1969e+05
1.2023e+05
1.2049e+05
1.2103e+05
1.213e+05
1.2157e+05
1.2238e+05
1.2265e+05
1.2318e+05
1.2345e+05
1.2371e+05
1.2398e+05
1.2505e+05
1.2533e+05
1.256e+05
1.2613e+05
1.2776e+05
1.28e+05
1.2855e+05
1.2909e+05
1.2967e+05
1.2991e+05
1.3018e+05
1.3045e+05
1.3073e+05
1.3127e+05
1.3154e+05
1.3236e+05
1.3263e+05
1.3317e+05
1.3371e+05
1.3407e+05
1.3461e+05
1.3506e+05
1.3624e+05
1.3959e+05
1.3986e+05
1.4013e+05
1.404e+05
1.4067e+05
1.412e+05
1.4147e+05
1.4174e+05
1.4228e+05
1.4255e+05
1.4283e+05
1.4311e+05
1.4337e+05
1.4365e+05
1.4392e+05
1.4419e+05
1.4446e+05
1.4473e+05
1.45e+05
1.4527e+05
1.4553e+05
1.458e+05
1.4606e+05
1.4633e+05
1.466e+05
1.4686e+05
1.4713e+05
1.4793e+05
1.482e+05
1.4847e+05
1.4875e+05
1.4929e+05
1.4956e+05
1.4983e+05
1.5063e+05
1.509e+05
1.5117e+05
1.5144e+05
1.5172e+05
1.5199e+05
1.5226e+05
1.5252e+05
1.5306e+05
1.536e+05
1.5439e+05
1.5465e+05
1.5518e+05
1.5544e+05
1.5571e+05
1.5599e+05
1.5627e+05
1.5681e+05
1.5707e+05
1.5735e+05
1.5787e+05
1.5841e+05
1.5867e+05
1.5893e+05
1.5946e+05
1.5972e+05
1.6026e+05
1.6052e+05
1.6078e+05
1.6104e+05
1.6131e+05
1.6157e+05
1.6184e+05
1.6209e+05
1.6236e+05
1.6262e+05
1.6289e+05
1.6342e+05
1.6369e+05
1.6396e+05
1.6422e+05
1.6529e+05
1.6581e+05
1.6608e+05
1.6634e+05
1.6659e+05
1.6712e+05
1.6738e+05
1.6764e+05
1.679e+05
1.6843e+05
1.687e+05
1.6896e+05
1.6949e+05
1.6965e+05
1.7001e+05
1.7024e+05
1.7054e+05
1.7132e+05
1.721e+05
1.7263e+05
1.7316e+05
1.737e+05
1.7393e+05
1.7422e+05
1.7448e+05
1.7502e+05
1.7527e+05
1.7581e+05
1.7634e+05
1.7686e+05
1.7713e+05
1.7739e+05
1.7766e+05
1.7793e+05
1.782e+05
1.7846e+05
1.7899e+05
1.7926e+05
1.7978e+05
1.8005e+05
1.8031e+05
1.8057e+05
1.808e+05
1.811e+05
1.8127e+05
1.8188e+05
1.8218e+05
1.8298e+05
1.8325e+05
1.8381e+05
1.8407e+05
1.8436e+05
1.8453e+05
1.849e+05
1.8515e+05
1.8545e+05
1.8572e+05
1.8599e+05
1.8626e+05
1.8654e+05
1.8681e+05
1.8707e+05
1.8734e+05
1.8761e+05
1.8788e+05
1.8815e+05
1.8841e+05
1.8868e+05
1.8895e+05
1.8921e+05
1.8974e+05
1.9002e+05
1.9028e+05
1.9083e+05
1.9107e+05
1.9135e+05
1.9161e+05
1.9188e+05
1.9215e+05
1.9241e+05
1.9267e+05
1.9294e+05
1.9321e+05
1.9347e+05
1.9374e+05
1.94e+05
1.9454e+05
1.9507e+05
1.9534e+05
1.9561e+05
1.9614e+05
1.9638e+05
1.9667e+05
1.9694e+05
1.972e+05
1.9747e+05
1.9799e+05
1.9826e+05
2.9847e+05
3.0011e+05
3.0123e+05
3.9734e+05
3.9761e+05
3.9789e+05
3.9811e+05
3.9838e+05
4.3367e+05
4.3731e+05
4.3758e+05
4.3785e+05
4.3811e+05
4.3839e+05
4.3865e+05
4.3892e+05
4.3919e+05
4.3946e+05
4.3973e+05
4.4e+05
4.4026e+05
4.4054e+05
4.408e+05
4.4107e+05
4.4134e+05
4.4161e+05
4.4187e+05
4.4214e+05
4.424e+05
4.4268e+05
4.4294e+05
4.432e+05
4.4347e+05
4.44e+05
4.4427e+05
4.4453e+05
4.448e+05
4.4506e+05
4.4533e+05
4.456e+05
4.4587e+05
4.4614e+05
4.464e+05
4.4666e+05
4.4746e+05
4.4773e+05
4.4799e+05
4.4878e+05
4.4931e+05
4.5012e+05
4.5038e+05
4.5065e+05
4.5091e+05
4.5144e+05
4.517e+05
4.5196e+05
4.5222e+05
4.5249e+05
4.5275e+05
4.5327e+05
4.538e+05
4.5486e+05
4.5512e+05
4.5565e+05
4.5591e+05
4.5617e+05
4.5695e+05
4.5722e+05
4.5748e+05
4.5801e+05
4.5827e+05
4.5855e+05
4.5881e+05
4.5907e+05
4.5933e+05
4.5986e+05
4.6013e+05
4.6038e+05
4.6066e+05
4.6118e+05
4.6145e+05
4.6171e+05
4.6224e+05
4.6251e+05
4.6278e+05
4.641e+05
4.6436e+05
4.6462e+05
4.6489e+05
4.6541e+05
4.6594e+05
4.662e+05
4.6647e+05
4.6673e+05
4.6699e+05
4.6726e+05
4.6753e+05
4.6805e+05
4.6831e+05
4.6858e+05
4.6884e+05
4.691e+05
4.6963e+05
4.6989e+05
4.7016e+05
4.7042e+05
4.7069e+05
4.7096e+05
4.7122e+05
4.7149e+05
4.7176e+05
4.7203e+05
4.7229e+05
4.7309e+05
4.7334e+05
4.7388e+05
4.7415e+05
4.7441e+05
4.7467e+05
4.7494e+05
4.7521e+05
4.7574e+05
4.7629e+05
4.7655e+05
4.7682e+05
4.7709e+05
4.7736e+05
4.7762e+05
4.7789e+05
4.7816e+05
4.7869e+05
4.7896e+05
4.795e+05
4.8031e+05
4.8111e+05
4.8165e+05
4.8192e+05
4.8352e+05
4.8379e+05
4.8406e+05
4.8432e+05
4.846e+05
4.8567e+05
5.0543e+05
5.8945e+05
5.8966e+05
6.0632e+05
6.2752e+05
-1
364
648
923
1188
1451
1725
1994
2261
2529
2806
3073
3339
3611
3878
4154
4426
4698
4973
5251
5513
5788
6061
6340
6616
6886
7170
7446
7714
7992
8265
8547
8823
9093
9369
9647
9912
10181
10456
10728
11001
11271
11547
11820
12092
12365
12634
12912
13194
13471
13757
14034
14302
14580
14856
15128
15402
15673
15951
16222
16495
16769
17036
17315
17595
17873
18160
18435
18713
18996
19272
19554
19837
20109
20393
20674
20946
21228
21507
21785
22069
22347
22635
22910
23182
23463
23736
24016
24293
24564
24846
25128
25397
25674
25953
26237
26507
26784
27063
27338
27614
27885
28162
28438
28708
28983
29259
29527
29800
30071
30343
30623
30899
31174
31450
31724
31998
32269
32545
32821
33093
33370
33653
33922
34202
34482
34763
35041
35194
35611
35879
36028
36437
36700
36974
37251
37523
37806
38079
38348
38622
38897
39177
39453
39729
40012
40290
40563
40841
41117
41400
41678
41950
42232
42507
42776
43050
43325
43607
43887
44162
44445
44724
44992
45269
45545
45826
46102
46379
46665
46945
47218
47496
47773
48059
48335
48608
48888
49167
49436
49705
49982
50258
50525
50799
51082
51354
51618
51898
52166
52452
52728
52997
53283
53559
53704
54105
54370
54644
54916
55186
55460
55734
56004
56250
56549
56827
56990
57371
57643
57915
58178
58442
58712
58985
59246
59515
59789
60059
60325
60598
60863
61145
61414
61679
61959
62228
62494
62762
63030
63300
63570
63838
64114
64388
64654
64923
65197
65476
65744
66013
66296
66564
66831
67101
67371
67649
67917
68187
68465
68736
69001
69275
69547
69826
70094
70362
70643
70914
71180
71451
71720
71994
72264
72530
72806
73074
73339
73610
73876
74148
74420
74684
74836
75235
75496
75768
76031
76298
76572
76838
77102
77375
77643
77910
78173
78444
78717
78978
79246
79520
79788
80051
80321
80586
80854
81123
81386
81661
81929
82191
82459
82728
82998
83265
83533
83806
84074
84335
84606
84867
85137
85408
85674
85947
86218
86482
86752
87023
87292
87567
87836
88114
88386
88654
88926
89194
89468
89744
90013
90293
90566
90837
91114
91388
91665
91940
92212
92493
92764
93027
93301
93567
93835
94107
94371
94652
94815
95193
95464
95614
96019
96171
96561
96822
97094
97352
97623
97886
98154
98426
98690
98966
99650
1.002e+05
1.0049e+05
1.0079e+05
1.0104e+05
1.0133e+05
1.0161e+05
1.0188e+05
1.0244e+05
1.0274e+05
1.0302e+05
1.0332e+05
1.0355e+05
1.0357e+05
1.0387e+05
1.0433e+05
1.0479e+05
1.0524e+05
1.0563e+05
1.0599e+05
1.0628e+05
1.0654e+05
1.0677e+05
1.0762e+05
1.0788e+05
1.0814e+05
1.0841e+05
1.0872e+05
1.0898e+05
1.0926e+05
1.0954e+05
1.0957e+05
1.0982e+05
1.1011e+05
1.1041e+05
1.1065e+05
1.1067e+05
1.1148e+05
1.1176e+05
1.1205e+05
1.1234e+05
1.1289e+05
1.1343e+05
1.14e+05
1.148e+05
1.1508e+05
1.1589e+05
1.1618e+05
1.1671e+05
1.1726e+05
1.1779e+05
1.1805e+05
1.1857e+05
1.1889e+05
1.1911e+05
1.1938e+05
1.1967e+05
1.1993e+05
1.2021e+05
1.2045e+05
1.2073e+05
1.2101e+05
1.2152e+05
1.2181e+05
1.2211e+05
1.2233e+05
1.2262e+05
1.2291e+05
1.2316e+05
1.2343e+05
1.2396e+05
1.2423e+05
1.245e+05
1.2476e+05
1.25e+05
1.2528e+05
1.2558e+05
1.2574e+05
1.2598e+05
1.2603e+05
1.2638e+05
1.2665e+05
1.2691e+05
1.2718e+05
1.2745e+05
1.2772e+05
1.2825e+05
1.285e+05
1.2879e+05
1.2905e+05
1.2934e+05
1.2959e+05
1.2962e+05
1.3016e+05
1.3041e+05
1.3067e+05
1.307e+05
1.31e+05
1.3125e+05
1.315e+05
1.3179e+05
1.3202e+05
1.3258e+05
1.329e+05
1.3344e+05
1.3398e+05
1.3426e+05
1.3453e+05
1.3476e+05
1.3534e+05
1.3561e+05
1.3588e+05
1.3642e+05
1.3669e+05
1.3696e+05
1.3723e+05
1.3749e+05
1.3777e+05
1.3804e+05
1.383e+05
1.3858e+05
1.3946e+05
1.3973e+05
1.3999e+05
1.4026e+05
1.4053e+05
1.408e+05
1.4096e+05
1.4134e+05
1.416e+05
1.4187e+05
1.4215e+05
1.4241e+05
1.4268e+05
1.4296e+05
1.4324e+05
1.435e+05
1.4378e+05
1.4405e+05
1.4432e+05
1.4459e+05
1.4486e+05
1.4513e+05
1.454e+05
1.4566e+05
1.4593e+05
1.4619e+05
1.4646e+05
1.4673e+05
1.4699e+05
1.4726e+05
1.4753e+05
1.4779e+05
1.4806e+05
1.4833e+05
1.486e+05
1.4887e+05
1.4905e+05
1.4942e+05
1.4969e+05
1.4996e+05
1.5013e+05
1.505e+05
1.5077e+05
1.5103e+05
1.513e+05
1.5158e+05
1.5185e+05
1.5211e+05
1.5238e+05
1.5265e+05
1.5282e+05
1.532e+05
1.5345e+05
1.5373e+05
1.5389e+05
1.5426e+05
1.5451e+05
1.5477e+05
1.5504e+05
1.5531e+05
1.5557e+05
1.5585e+05
1.5613e+05
1.5639e+05
1.5657e+05
1.5695e+05
1.572e+05
1.5748e+05
1.5774e+05
1.5801e+05
1.5827e+05
1.5853e+05
1.588e+05
1.5906e+05
1.5932e+05
1.5959e+05
1.5985e+05
1.6012e+05
1.6039e+05
1.6065e+05
1.6091e+05
1.6118e+05
1.6144e+05
1.617e+05
1.6197e+05
1.6222e+05
1.6249e+05
1.6276e+05
1.6302e+05
1.6328e+05
1.6355e+05
1.6382e+05
1.6408e+05
1.6435e+05
1.6463e+05
1.6489e+05
1.6506e+05
1.6543e+05
1.6568e+05
1.6594e+05
1.6621e+05
1.6646e+05
1.6673e+05
1.6699e+05
1.6725e+05
1.6751e+05
1.6777e+05
1.6803e+05
1.682e+05
1.6857e+05
1.6882e+05
1.691e+05
1.6936e+05
1.6962e+05
1.698e+05
1.7014e+05
1.704e+05
1.7067e+05
1.7092e+05
1.7119e+05
1.7145e+05
1.717e+05
1.7197e+05
1.7223e+05
1.7249e+05
1.7276e+05
1.7302e+05
1.7329e+05
1.7346e+05
1.7383e+05
1.7409e+05
1.7435e+05
1.7461e+05
1.7488e+05
1.7514e+05
1.754e+05
1.7567e+05
1.7594e+05
1.762e+05
1.7646e+05
1.7663e+05
1.77e+05
1.7726e+05
1.7752e+05
1.778e+05
1.7806e+05
1.7832e+05
1.7859e+05
1.7877e+05
1.7912e+05
1.7939e+05
1.7965e+05
1.7991e+05
1.8018e+05
1.8044e+05
1.807e+05
1.8097e+05
1.8123e+05
1.8141e+05
1.8178e+05
1.8204e+05
1.8231e+05
1.8258e+05
1.8284e+05
1.8311e+05
1.8339e+05
1.8355e+05
1.8394e+05
1.8421e+05
1.8449e+05
1.8466e+05
1.8504e+05
1.8531e+05
1.8558e+05
1.8585e+05
1.8612e+05
1.864e+05
1.8667e+05
1.8694e+05
1.872e+05
1.8747e+05
1.8774e+05
1.8801e+05
1.8828e+05
1.8854e+05
1.8881e+05
1.8908e+05
1.8935e+05
1.8961e+05
1.8987e+05
1.9015e+05
1.9041e+05
1.9058e+05
1.9096e+05
1.9122e+05
1.9148e+05
1.9174e+05
1.9201e+05
1.9228e+05
1.9254e+05
1.928e+05
1.9307e+05
1.9334e+05
1.936e+05
1.9387e+05
1.9413e+05
1.944e+05
1.9467e+05
1.9493e+05
1.952e+05
1.9547e+05
1.9573e+05
1.9592e+05
1.9627e+05
1.9654e+05
1.968e+05
1.9706e+05
1.9733e+05
1.9759e+05
1.9786e+05
1.9813e+05
1.9839e+05
1.9963e+05
2.0391e+05
2.0641e+05
2.0859e+05
2.0971e+05
2.1081e+05
2.1866e+05
2.1872e+05
2.1988e+05
2.3862e+05
2.389e+05
2.3918e+05
2.3934e+05
2.3973e+05
2.3999e+05
2.4027e+05
2.4054e+05
2.4081e+05
2.411e+05
2.4137e+05
2.4164e+05
2.4192e+05
2.4219e+05
2.4248e+05
2.4275e+05
2.4292e+05
2.4331e+05
2.4358e+05
2.4385e+05
2.4413e+05
2.444e+05
2.4456e+05
2.4494e+05
2.452e+05
2.4547e+05
2.4574e+05
2.4601e+05
2.4628e+05
2.4655e+05
2.4682e+05
2.471e+05
2.4737e+05
2.4765e+05
2.4793e+05
2.482e+05
2.4847e+05
2.4875e+05
2.4891e+05
2.493e+05
2.4957e+05
2.4985e+05
2.5012e+05
2.5039e+05
2.5066e+05
2.5094e+05
2.5122e+05
2.515e+05
2.5166e+05
2.5205e+05
2.5232e+05
2.5259e+05
2.5285e+05
2.5312e+05
2.534e+05
2.5367e+05
2.5394e+05
2.5422e+05
2.545e+05
2.5478e+05
2.5506e+05
2.5534e+05
2.5563e+05
2.5591e+05
2.562e+05
2.5648e+05
2.5676e+05
2.5705e+05
2.5733e+05
2.5761e+05
2.5789e+05
2.5817e+05
2.5846e+05
2.5874e+05
2.5901e+05
2.593e+05
2.5957e+05
2.5973e+05
2.6014e+05
2.604e+05
2.6069e+05
2.6097e+05
2.6127e+05
2.6179e+05
2.6262e+05
2.6404e+05
2.6457e+05
2.6484e+05
2.6513e+05
2.654e+05
2.6568e+05
2.6596e+05
2.6624e+05
2.6653e+05
2.6682e+05
2.6711e+05
2.674e+05
2.6769e+05
2.6799e+05
2.6827e+05
2.6856e+05
2.6886e+05
2.6913e+05
2.6942e+05
2.6971e+05
2.6998e+05
2.7027e+05
2.7055e+05
2.7083e+05
2.7139e+05
2.7168e+05
2.7197e+05
2.7225e+05
2.7369e+05
2.7707e+05
2.7764e+05
2.7821e+05
2.7877e+05
2.7905e+05
2.7933e+05
2.7961e+05
2.7989e+05
2.8017e+05
2.8045e+05
2.8072e+05
2.8128e+05
2.8214e+05
2.8267e+05
2.8292e+05
2.832e+05
2.8347e+05
2.8374e+05
2.8401e+05
2.8429e+05
2.8456e+05
2.8483e+05
2.851e+05
2.8538e+05
2.8566e+05
2.8594e+05
2.8621e+05
2.8649e+05
2.8678e+05
2.8705e+05
2.8721e+05
2.8761e+05
2.8788e+05
2.8816e+05
2.8844e+05
2.8871e+05
2.8899e+05
2.8928e+05
2.8955e+05
2.8983e+05
2.9012e+05
2.904e+05
2.9068e+05
2.9096e+05
2.9125e+05
2.9154e+05
2.9181e+05
2.9209e+05
2.9237e+05
2.9266e+05
2.9293e+05
2.9321e+05
2.935e+05
2.9379e+05
2.9435e+05
2.952e+05
2.9605e+05
2.9688e+05
2.9716e+05
2.9744e+05
2.9772e+05
2.9818e+05
2.9846e+05
2.9874e+05
2.9892e+05
2.9923e+05
2.9952e+05
2.9975e+05
2.9982e+05
3.0039e+05
3.0067e+05
3.0094e+05
3.0119e+05
3.0148e+05
3.0176e+05
3.0204e+05
3.0228e+05
3.0234e+05
3.3806e+05
3.3834e+05
3.3862e+05
3.389e+05
3.3918e+05
3.3946e+05
3.3973e+05
3.4001e+05
3.4029e+05
3.4056e+05
3.4084e+05
3.4112e+05
3.414e+05
3.4183e+05
3.4222e+05
3.4249e+05
3.4277e+05
3.4303e+05
3.4331e+05
3.4358e+05
3.4438e+05
3.4491e+05
3.4545e+05
3.4571e+05
3.4598e+05
3.4626e+05
3.468e+05
3.4708e+05
3.4735e+05
3.4762e+05
3.479e+05
3.4817e+05
3.4844e+05
3.4871e+05
3.4898e+05
3.4926e+05
3.4954e+05
3.4982e+05
3.5009e+05
3.5037e+05
3.5065e+05
3.5092e+05
3.5201e+05
3.5228e+05
3.5271e+05
3.5686e+05
3.5755e+05
3.6083e+05
3.6144e+05
3.6198e+05
3.6226e+05
3.6253e+05
3.6279e+05
3.6308e+05
3.6335e+05
3.6444e+05
3.647e+05
3.6497e+05
3.6524e+05
3.6605e+05
3.6659e+05
3.6712e+05
3.674e+05
3.6767e+05
3.6794e+05
3.6821e+05
3.6849e+05
3.6876e+05
3.6957e+05
3.6984e+05
3.7011e+05
3.7038e+05
3.7065e+05
3.7092e+05
3.7119e+05
3.7174e+05
3.7201e+05
3.7228e+05
3.7255e+05
3.7282e+05
3.731e+05
3.7336e+05
3.7391e+05
3.7418e+05
3.7434e+05
3.7473e+05
3.7499e+05
3.7526e+05
3.7661e+05
3.7743e+05
3.7759e+05
3.7798e+05
3.7825e+05
3.7851e+05
3.7931e+05
3.7958e+05
3.7985e+05
3.8012e+05
3.8067e+05
3.8093e+05
3.8121e+05
3.8137e+05
3.8176e+05
3.8201e+05
3.8228e+05
3.8256e+05
3.8282e+05
3.8335e+05
3.8361e+05
3.8416e+05
3.8443e+05
3.847e+05
3.8514e+05
3.8579e+05
3.8607e+05
3.8634e+05
3.8715e+05
3.8822e+05
3.8849e+05
3.8876e+05
3.8892e+05
3.8932e+05
3.8958e+05
3.8985e+05
3.9011e+05
3.9038e+05
3.9065e+05
3.9092e+05
3.9118e+05
3.9146e+05
3.9172e+05
3.9199e+05
3.9226e+05
3.927e+05
3.9276e+05
3.9309e+05
3.9335e+05
3.9362e+05
3.9389e+05
3.9416e+05
3.9443e+05
3.947e+05
3.9498e+05
3.9525e+05
3.9552e+05
3.9579e+05
3.9606e+05
3.9634e+05
3.9661e+05
3.9688e+05
3.9756e+05
3.9786e+05
3.9803e+05
3.9824e+05
3.9852e+05
3.9868e+05
4.3383e+05
4.3745e+05
4.3771e+05
4.3798e+05
4.3825e+05
4.3852e+05
4.3878e+05
4.3906e+05
4.3932e+05
4.3959e+05
4.3986e+05
4.4013e+05
4.404e+05
4.4066e+05
4.4093e+05
4.412e+05
4.4147e+05
4.4174e+05
4.42e+05
4.4227e+05
4.4254e+05
4.4281e+05
4.4306e+05
4.4334e+05
4.4379e+05
4.4413e+05
4.4439e+05
4.4466e+05
4.4493e+05
4.4519e+05
4.4546e+05
4.4573e+05
4.46e+05
4.4627e+05
4.4653e+05
4.4698e+05
4.4759e+05
4.4786e+05
4.483e+05
4.4909e+05
4.4963e+05
4.5025e+05
4.5051e+05
4.5077e+05
4.5122e+05
4.5156e+05
4.5182e+05
4.5209e+05
4.5235e+05
4.5261e+05
4.5305e+05
4.5358e+05
4.5393e+05
4.5409e+05
4.5499e+05
4.5543e+05
4.5578e+05
4.5604e+05
4.5648e+05
4.5709e+05
4.5735e+05
4.5761e+05
4.5778e+05
4.5815e+05
4.5841e+05
4.5867e+05
4.5894e+05
4.592e+05
4.5964e+05
4.5999e+05
4.6025e+05
4.6052e+05
4.6079e+05
4.6095e+05
4.6132e+05
4.6158e+05
4.6203e+05
4.6238e+05
4.6264e+05
4.6291e+05
4.6307e+05
4.6423e+05
4.6449e+05
4.6475e+05
4.652e+05
4.6554e+05
4.657e+05
4.6607e+05
4.6633e+05
4.6659e+05
4.6686e+05
4.6712e+05
4.6739e+05
4.6765e+05
4.6818e+05
4.6844e+05
4.6871e+05
4.6897e+05
4.6923e+05
4.6976e+05
4.7002e+05
4.7029e+05
4.7055e+05
4.7082e+05
4.7109e+05
4.7135e+05
4.7162e+05
4.7189e+05
4.7215e+05
4.7241e+05
4.7258e+05
4.7321e+05
4.7347e+05
4.7401e+05
4.7427e+05
4.7454e+05
4.748e+05
4.7507e+05
4.7534e+05
4.7588e+05
4.7641e+05
4.7668e+05
4.7695e+05
4.7722e+05
4.7749e+05
4.7775e+05
4.7802e+05
4.7829e+05
4.7845e+05
4.7884e+05
4.7909e+05
4.7963e+05
4.8044e+05
4.8124e+05
4.8178e+05
4.8205e+05
4.8221e+05
4.8365e+05
4.8392e+05
4.8419e+05
4.8446e+05
4.8473e+05
4.858e+05
4.8598e+05
4.9673e+05
4.97e+05
4.9726e+05
4.9754e+05
4.977e+05
4.9807e+05
4.9833e+05
4.986e+05
4.9886e+05
4.9913e+05
4.9939e+05
4.9966e+05
4.9992e+05
5.0018e+05
5.0045e+05
5.0068e+05
5.0365e+05
5.0392e+05
5.0419e+05
5.0447e+05
5.0474e+05
5.05e+05
5.0527e+05
5.06e+05
5.0636e+05
5.0662e+05
5.0689e+05
5.0715e+05
5.0742e+05
5.0769e+05
5.0795e+05
5.0821e+05
5.0848e+05
5.0874e+05
5.09e+05
5.0926e+05
5.0952e+05
5.0979e+05
5.1005e+05
5.1032e+05
5.106e+05
5.1087e+05
5.1114e+05
5.1142e+05
5.1158e+05
5.1197e+05
5.1223e+05
5.125e+05
5.1277e+05
5.1304e+05
5.133e+05
5.1357e+05
5.1383e+05
5.141e+05
5.1437e+05
5.1464e+05
5.1491e+05
5.1518e+05
5.1544e+05
5.1571e+05
5.1598e+05
5.1625e+05
5.1652e+05
5.1679e+05
5.1694e+05
5.1734e+05
5.1759e+05
5.1786e+05
5.1813e+05
5.184e+05
5.1867e+05
5.1894e+05
5.1922e+05
5.1948e+05
5.1974e+05
5.2001e+05
5.2028e+05
5.2054e+05
5.208e+05
5.2106e+05
5.2132e+05
5.2158e+05
5.2184e+05
5.221e+05
5.2226e+05
5.2232e+05
5.2263e+05
5.2289e+05
5.2315e+05
5.2341e+05
5.2345e+05
5.2368e+05
5.2371e+05
5.2394e+05
5.2419e+05
5.2444e+05
5.247e+05
5.2496e+05
5.2521e+05
5.2547e+05
5.2573e+05
5.2599e+05
5.2624e+05
5.265e+05
5.2676e+05
5.2703e+05
5.2729e+05
5.2755e+05
5.2782e+05
5.2799e+05
5.2835e+05
5.2861e+05
5.2886e+05
5.2912e+05
5.2938e+05
5.2964e+05
5.2989e+05
5.3016e+05
5.3042e+05
5.3067e+05
5.3093e+05
5.312e+05
5.3146e+05
5.3172e+05
5.3198e+05
5.3226e+05
5.3252e+05
5.3277e+05
5.3304e+05
5.333e+05
5.3357e+05
5.3383e+05
5.3409e+05
5.3435e+05
5.3461e+05
5.3488e+05
5.3514e+05
5.3539e+05
5.3565e+05
5.3592e+05
5.3618e+05
5.3644e+05
5.367e+05
5.3697e+05
5.3723e+05
5.3749e+05
5.3774e+05
5.3801e+05
5.3827e+05
5.3852e+05
5.3857e+05
5.3879e+05
5.3904e+05
5.393e+05
5.3956e+05
5.3982e+05
5.4008e+05
5.4035e+05
5.4039e+05
5.4062e+05
5.4089e+05
5.4117e+05
5.4143e+05
5.4171e+05
5.4197e+05
5.4216e+05
5.4252e+05
5.4277e+05
5.4303e+05
5.4308e+05
5.4408e+05
5.4514e+05
5.4541e+05
5.4544e+05
5.4593e+05
5.4646e+05
5.4673e+05
5.4699e+05
5.4725e+05
5.4752e+05
5.4778e+05
5.4805e+05
5.4857e+05
5.491e+05
5.4937e+05
5.4941e+05
5.4964e+05
5.499e+05
5.5017e+05
5.5043e+05
5.506e+05
5.5097e+05
5.5122e+05
5.5148e+05
5.5176e+05
5.5203e+05
5.5229e+05
5.5272e+05
5.5325e+05
5.5327e+05
5.5515e+05
5.579e+05
5.5816e+05
5.5867e+05
5.6404e+05
5.6623e+05
5.6668e+05
5.7045e+05
5.7465e+05
5.7473e+05
5.8383e+05
5.839e+05
5.88e+05
5.8852e+05
5.8882e+05
5.8904e+05
5.8929e+05
5.8933e+05
5.8955e+05
5.8961e+05
5.8982e+05
5.9007e+05
5.9591e+05
5.9616e+05
5.9642e+05
5.9668e+05
5.9693e+05
5.972e+05
5.9746e+05
5.9771e+05
5.9798e+05
5.9801e+05
5.9823e+05
5.985e+05
5.9854e+05
5.9875e+05
5.9901e+05
5.9927e+05
5.9953e+05
5.9978e+05
6.0004e+05
6.0029e+05
6.0055e+05
6.0081e+05
6.0107e+05
6.0132e+05
6.0159e+05
6.0184e+05
6.0209e+05
6.0235e+05
6.026e+05
6.0286e+05
6.0311e+05
6.0336e+05
6.0362e+05
6.0388e+05
6.0413e+05
6.0417e+05
6.0439e+05
6.0465e+05
6.049e+05
6.0517e+05
6.0543e+05
6.0569e+05
6.0595e+05
6.0621e+05
6.0652e+05
6.0673e+05
6.0699e+05
6.0725e+05
6.075e+05
6.0775e+05
6.0802e+05
6.0827e+05
6.0852e+05
6.0878e+05
6.0904e+05
6.0929e+05
6.0934e+05
6.0956e+05
6.0981e+05
6.1008e+05
6.1034e+05
6.1059e+05
6.1086e+05
6.1111e+05
6.1138e+05
6.1164e+05
6.119e+05
6.1217e+05
6.1243e+05
6.1268e+05
6.1295e+05
6.132e+05
6.1346e+05
6.1372e+05
6.1398e+05
6.1424e+05
6.145e+05
6.1477e+05
6.1502e+05
6.1528e+05
6.1553e+05
6.158e+05
6.1583e+05
6.1604e+05
6.163e+05
6.1657e+05
6.1682e+05
6.1708e+05
6.1734e+05
6.1759e+05
6.1784e+05
6.1811e+05
6.1814e+05
6.1836e+05
6.1862e+05
6.1887e+05
6.1913e+05
6.1938e+05
6.1964e+05
6.1989e+05
6.2016e+05
6.2019e+05
6.2041e+05
6.2067e+05
6.2093e+05
6.2119e+05
6.2144e+05
6.2169e+05
6.2173e+05
6.2195e+05
6.2199e+05
6.222e+05
6.2247e+05
6.2272e+05
6.2299e+05
6.2325e+05
6.2351e+05
6.2377e+05
6.2403e+05
6.243e+05
6.2456e+05
6.2482e+05
6.2499e+05
6.2536e+05
6.2561e+05
6.2587e+05
6.2612e+05
6.2638e+05
6.2664e+05
6.269e+05
6.2716e+05
6.2743e+05
6.2769e+05
6.2795e+05
6.2821e+05
6.2847e+05
6.2873e+05
6.2899e+05
6.2925e+05
6.2951e+05
6.2977e+05
6.3003e+05
6.3029e+05
6.3054e+05
6.308e+05
6.3107e+05
6.3132e+05
6.3158e+05
6.3162e+05
6.3185e+05
6.3211e+05
6.3237e+05
6.3262e+05
6.3288e+05
6.3314e+05
6.3339e+05
6.3365e+05
6.3391e+05
6.3417e+05
6.3442e+05
6.3469e+05
6.3495e+05
6.3521e+05
6.3547e+05
6.3573e+05
6.36e+05
6.3627e+05
6.3653e+05
6.3679e+05
6.3705e+05
6.3732e+05
6.3758e+05
6.3784e+05
6.381e+05
6.3836e+05
6.3861e+05
6.3887e+05
6.3913e+05
6.3938e+05
6.399e+05
6.4017e+05
6.4043e+05
6.407e+05
6.4095e+05
6.4099e+05
6.4122e+05
6.4148e+05
6.4174e+05
6.4178e+05
6.42e+05
6.4226e+05
6.4252e+05
6.4279e+05
6.4304e+05
6.433e+05
6.4356e+05
6.4361e+05
6.4383e+05
6.4409e+05
6.4414e+05
6.4435e+05
6.4462e+05
6.4488e+05
6.4513e+05
6.4539e+05
6.4564e+05
6.4616e+05
6.4642e+05
6.4745e+05
6.4748e+05
6.4848e+05
6.4874e+05
6.4901e+05
6.4927e+05
