127
535
943
1346
1771
2184
2614
3041
3465
3894
4316
4736
5172
5603
6033
6485
6919
7367
7801
8258
8698
9144
9585
10013
10454
10864
11284
11697
12116
12562
13001
13439
13888
14323
14776
15211
15649
16086
16515
16959
17389
17825
18281
18711
19160
19601
20043
20476
20918
21355
21792
22231
22671
23108
23550
23982
24420
24837
25267
25690
26107
26547
26972
27404
27830
28270
28711
29134
29581
29988
30422
30845
31280
31721
32165
32618
33051
33498
33939
34386
34816
35265
35695
36121
36563
37003
37440
37876
38309
38735
39157
39592
40020
40451
40890
41325
41765
42185
42626
43051
43477
43900
44318
44745
45164
45600
46028
46459
46904
47333
47762
48193
48623
49065
49505
49941
50372
50797
51237
51655
52087
52510
52919
53350
53774
54202
54632
55061
55495
55921
56341
56761
57180
57597
58037
58472
58937
59377
59831
60274
60720
61173
61613
62066
62500
62946
63373
63804
64238
64652
65073
65498
65913
66331
66755
67185
67604
68027
68461
68872
69300
69725
70152
70591
71007
71444
71862
72294
72727
73149
73589
74015
74451
74885
75311
75738
76154
76570
77001
77412
77831
78251
78660
79078
79486
79905
80316
80728
81159
81575
82006
82428
82862
83286
83711
84141
84560
84977
85398
85814
86237
86659
87093
87527
87955
88399
88829
89265
89700
90124
90572
90998
91440
91868
92316
92753
93199
93632
94074
94507
94935
95370
95788
96218
96641
97066
97493
97909
98335
98751
99603
1.0047e+05
1.0091e+05
1.0129e+05
1.0179e+05
1.0217e+05
1.0264e+05
1.0307e+05
1.0392e+05
1.0434e+05
1.052e+05
1.0563e+05
1.0603e+05
1.0649e+05
1.0692e+05
1.0735e+05
1.082e+05
1.0863e+05
1.0905e+05
1.0991e+05
1.1029e+05
1.1076e+05
1.1161e+05
1.1202e+05
1.1245e+05
1.1287e+05
1.1329e+05
1.1371e+05
1.1409e+05
1.1457e+05
1.1499e+05
1.1541e+05
1.1583e+05
1.1624e+05
1.1666e+05
1.1751e+05
1.1793e+05
1.1834e+05
1.1871e+05
1.1919e+05
1.1961e+05
1.2004e+05
1.2046e+05
1.2089e+05
1.2129e+05
1.2167e+05
1.2208e+05
1.2254e+05
1.2296e+05
1.2338e+05
1.2381e+05
1.2423e+05
1.2464e+05
1.2507e+05
1.2591e+05
1.2628e+05
1.2676e+05
1.2718e+05
1.2843e+05
1.2885e+05
1.2926e+05
1.2968e+05
1.3009e+05
1.3051e+05
1.3136e+05
1.3179e+05
1.3221e+05
1.3264e+05
1.3347e+05
1.3388e+05
1.3472e+05
1.3514e+05
1.3557e+05
1.36e+05
1.3644e+05
1.3688e+05
1.3772e+05
1.3817e+05
1.386e+05
1.3904e+05
1.3946e+05
1.399e+05
1.4077e+05
1.4121e+05
1.4165e+05
1.4207e+05
1.4249e+05
1.4291e+05
1.4334e+05
1.4373e+05
1.4418e+05
1.4461e+05
1.4593e+05
1.4767e+05
1.4809e+05
1.4888e+05
1.4981e+05
1.5024e+05
1.5112e+05
1.5156e+05
1.5199e+05
1.5238e+05
1.5329e+05
1.5372e+05
1.5417e+05
1.5459e+05
1.5545e+05
1.5587e+05
1.563e+05
1.5666e+05
1.5751e+05
1.6053e+05
1.6394e+05
1.6477e+05
1.6518e+05
1.6598e+05
1.6646e+05
1.6689e+05
1.6732e+05
1.6775e+05
1.6818e+05
1.6903e+05
1.7112e+05
1.7197e+05
1.7241e+05
1.7279e+05
1.7324e+05
1.7366e+05
1.7539e+05
1.7582e+05
1.7624e+05
1.7662e+05
1.7707e+05
1.7749e+05
1.779e+05
1.7831e+05
1.7874e+05
1.8087e+05
1.8132e+05
1.8175e+05
1.8263e+05
1.8308e+05
1.8352e+05
1.8396e+05
1.8483e+05
1.8565e+05
1.8656e+05
1.8699e+05
1.8738e+05
1.8778e+05
1.8825e+05
1.8868e+05
1.8909e+05
1.8951e+05
1.8991e+05
1.9241e+05
1.9283e+05
1.9325e+05
1.9367e+05
1.941e+05
1.9452e+05
1.9537e+05
2.0475e+05
2.7127e+05
3.2254e+05
4.0073e+05
4.0161e+05
4.0554e+05
4.1193e+05
4.2047e+05
4.3105e+05
4.3835e+05
4.4129e+05
4.9268e+05
4.9651e+05
4.9693e+05
4.9735e+05
4.9778e+05
4.982e+05
4.9863e+05
4.9905e+05
4.9948e+05
4.9991e+05
5.0033e+05
5.0076e+05
5.0118e+05
5.0159e+05
5.0201e+05
5.0243e+05
5.0286e+05
5.0326e+05
5.0369e+05
5.0411e+05
5.0454e+05
5.0497e+05
5.0539e+05
5.0582e+05
5.0623e+05
5.0667e+05
5.0709e+05
5.0751e+05
5.0794e+05
5.0836e+05
5.0879e+05
5.0921e+05
5.0964e+05
5.1007e+05
5.1048e+05
5.109e+05
5.1133e+05
5.1174e+05
5.1217e+05
5.1259e+05
5.13e+05
5.1341e+05
5.1383e+05
5.1425e+05
5.1465e+05
5.1508e+05
5.1549e+05
5.1591e+05
5.1633e+05
5.1676e+05
5.1719e+05
5.176e+05
5.1803e+05
5.1845e+05
5.1886e+05
5.1928e+05
5.197e+05
5.2012e+05
5.2053e+05
5.2096e+05
5.2138e+05
5.218e+05
5.2223e+05
5.2265e+05
5.2308e+05
5.235e+05
5.2392e+05
5.2434e+05
5.2475e+05
5.2518e+05
5.256e+05
5.2601e+05
5.2644e+05
5.2685e+05
5.2726e+05
5.2767e+05
5.2809e+05
5.2851e+05
5.2893e+05
5.2935e+05
5.2977e+05
5.3018e+05
5.3059e+05
5.3101e+05
5.3142e+05
5.3183e+05
5.3226e+05
5.3267e+05
5.3309e+05
5.3349e+05
5.3392e+05
5.3434e+05
5.3475e+05
5.3518e+05
5.356e+05
5.3603e+05
5.3646e+05
5.3687e+05
5.373e+05
5.3771e+05
5.3815e+05
5.3857e+05
5.3899e+05
5.3941e+05
5.3983e+05
5.4025e+05
5.4067e+05
5.4109e+05
5.4151e+05
5.4192e+05
5.4235e+05
5.4277e+05
5.4319e+05
5.4361e+05
5.4403e+05
5.4485e+05
5.4612e+05
5.4655e+05
5.4737e+05
5.4822e+05
5.4866e+05
5.4907e+05
5.4951e+05
5.4993e+05
5.5036e+05
5.5121e+05
5.5206e+05
5.5249e+05
5.5332e+05
5.5416e+05
5.554e+05
5.5581e+05
5.5623e+05
5.5708e+05
5.5792e+05
5.5833e+05
5.5916e+05
5.5957e+05
5.5999e+05
5.6083e+05
5.6208e+05
5.6418e+05
5.6502e+05
5.6545e+05
5.6587e+05
5.663e+05
5.6672e+05
5.6714e+05
5.6797e+05
5.6882e+05
5.7093e+05
5.7178e+05
5.7305e+05
5.7389e+05
5.7596e+05
5.768e+05
5.8001e+05
5.8084e+05
5.8169e+05
5.8597e+05
5.8683e+05
5.8894e+05
5.9107e+05
5.9191e+05
5.9402e+05
5.9486e+05
5.9569e+05
5.9612e+05
5.9654e+05
5.9696e+05
5.9739e+05
5.9781e+05
5.9823e+05
5.9865e+05
5.9907e+05
5.9951e+05
5.9992e+05
6.0035e+05
6.0077e+05
6.0119e+05
6.0161e+05
6.0202e+05
6.0245e+05
6.0286e+05
6.0329e+05
6.037e+05
6.0412e+05
6.0453e+05
6.0494e+05
6.0537e+05
6.0577e+05
6.0619e+05
6.0661e+05
6.0701e+05
6.0744e+05
6.0785e+05
6.0827e+05
6.087e+05
6.0911e+05
6.0954e+05
6.0995e+05
6.1037e+05
6.108e+05
6.1122e+05
6.1165e+05
6.1207e+05
6.1249e+05
6.1291e+05
6.1332e+05
6.1374e+05
6.1416e+05
6.1458e+05
6.15e+05
6.1541e+05
6.1583e+05
6.1625e+05
6.1668e+05
6.1711e+05
6.1753e+05
6.1795e+05
6.1836e+05
6.1878e+05
6.192e+05
6.1962e+05
6.2006e+05
6.2048e+05
6.2092e+05
6.2135e+05
6.2177e+05
6.222e+05
6.2261e+05
6.2303e+05
6.2346e+05
6.2388e+05
6.2431e+05
6.2472e+05
6.2515e+05
6.2556e+05
6.2598e+05
6.264e+05
6.2681e+05
6.2723e+05
6.2764e+05
6.2807e+05
6.285e+05
6.2892e+05
6.2935e+05
6.2976e+05
6.3019e+05
6.3061e+05
6.3104e+05
6.3147e+05
6.319e+05
6.3233e+05
6.3275e+05
6.3318e+05
6.336e+05
6.3402e+05
6.3444e+05
6.3486e+05
6.3529e+05
6.357e+05
6.3612e+05
6.3655e+05
6.3696e+05
6.374e+05
6.3781e+05
6.3823e+05
6.3864e+05
6.3906e+05
6.3949e+05
6.399e+05
6.4032e+05
6.4073e+05
6.4113e+05
6.4155e+05
6.4195e+05
6.4238e+05
6.4278e+05
6.4321e+05
6.4363e+05
6.4404e+05
6.4445e+05
6.4486e+05
6.4528e+05
6.4611e+05
6.4653e+05
6.4735e+05
6.4817e+05
6.4859e+05
-1
284
696
1103
1510
1933
2346
2775
3201
3624
4053
4478
4896
5341
5764
6200
6649
7081
7530
7963
8418
8857
9309
9746
10179
10617
11030
11446
11861
12279
12718
13160
13601
14054
14487
14944
15377
15818
16251
16683
17123
17551
17991
18444
18875
19325
19769
20207
20645
21086
21521
21957
22400
22832
23272
23715
24149
24588
25003
25436
25854
26274
26712
27133
27568
27992
28440
28875
29308
29746
30154
30587
31009
31444
31884
32329
32782
33216
33666
34108
34552
34987
35433
35861
36287
36730
37168
37602
38041
38471
38899
39320
39763
40185
40623
41057
41493
41928
42354
42789
43215
43642
44068
44486
44912
45330
45765
46192
46623
47064
47495
47924
48363
48788
49238
49672
50110
50537
50965
51399
51818
52252
52677
53085
53517
53940
54370
54797
55226
55655
56086
56505
56931
57341
57765
58200
58635
59099
59544
59997
60439
60888
61339
61782
62233
62670
63112
63539
63969
64397
64815
65240
65666
66079
66504
66921
67352
67768
68195
68626
69037
69467
69892
70321
70756
71174
71609
72024
72460
72888
73317
73753
74185
74617
75056
75478
75903
76317
76737
77167
77576
78000
78419
78827
79245
79651
80070
80479
80897
81324
81745
82172
82597
83028
83451
83877
84303
84725
85143
85569
85980
86408
86824
87254
87691
88121
88566
88993
89436
89867
90297
90737
91168
91607
92035
92482
92916
93365
93799
94243
94673
95105
95538
95954
96385
96806
97233
97659
98076
98502
98922
99770
1.002e+05
1.0064e+05
1.0108e+05
1.0151e+05
1.0196e+05
1.0238e+05
1.0281e+05
1.0324e+05
1.0366e+05
1.0408e+05
1.045e+05
1.0493e+05
1.0537e+05
1.058e+05
1.0623e+05
1.0666e+05
1.0709e+05
1.0752e+05
1.0794e+05
1.0837e+05
1.0879e+05
1.0922e+05
1.0965e+05
1.1007e+05
1.1051e+05
1.1092e+05
1.1135e+05
1.1177e+05
1.1219e+05
1.1261e+05
1.1303e+05
1.1345e+05
1.1388e+05
1.143e+05
1.1474e+05
1.1516e+05
1.1558e+05
1.1599e+05
1.1641e+05
1.1683e+05
1.1725e+05
1.1767e+05
1.181e+05
1.1851e+05
1.1894e+05
1.1936e+05
1.1978e+05
1.2021e+05
1.2062e+05
1.2105e+05
1.2146e+05
1.2188e+05
1.2229e+05
1.227e+05
1.2313e+05
1.2354e+05
1.2397e+05
1.2439e+05
1.2481e+05
1.2523e+05
1.2566e+05
1.2607e+05
1.265e+05
1.2692e+05
1.2734e+05
1.2776e+05
1.2818e+05
1.286e+05
1.2901e+05
1.2943e+05
1.2984e+05
1.3025e+05
1.3067e+05
1.3109e+05
1.3152e+05
1.3195e+05
1.3238e+05
1.3281e+05
1.3321e+05
1.3363e+05
1.3404e+05
1.3446e+05
1.3488e+05
1.353e+05
1.3574e+05
1.3617e+05
1.366e+05
1.3704e+05
1.3746e+05
1.3789e+05
1.3833e+05
1.3876e+05
1.392e+05
1.3963e+05
1.4007e+05
1.4051e+05
1.4094e+05
1.4138e+05
1.4181e+05
1.4224e+05
1.4265e+05
1.4308e+05
1.435e+05
1.4392e+05
1.4435e+05
1.4478e+05
1.4521e+05
1.4565e+05
1.4609e+05
1.4784e+05
1.4826e+05
1.491e+05
1.4954e+05
1.4998e+05
1.5041e+05
1.5128e+05
1.5172e+05
1.5215e+05
1.5259e+05
1.5346e+05
1.5389e+05
1.5434e+05
1.5476e+05
1.5519e+05
1.5561e+05
1.5603e+05
1.5646e+05
1.5688e+05
1.5773e+05
1.5859e+05
1.5986e+05
1.6072e+05
1.6284e+05
1.641e+05
1.6493e+05
1.6535e+05
1.662e+05
1.6663e+05
1.6706e+05
1.6749e+05
1.6792e+05
1.6834e+05
1.6919e+05
1.7003e+05
1.7044e+05
1.7129e+05
1.7214e+05
1.7257e+05
1.7299e+05
1.7341e+05
1.7383e+05
1.7425e+05
1.7511e+05
1.7555e+05
1.7598e+05
1.764e+05
1.7682e+05
1.7724e+05
1.7765e+05
1.7807e+05
1.7848e+05
1.789e+05
1.8018e+05
1.8061e+05
1.8104e+05
1.8148e+05
1.8191e+05
1.828e+05
1.8324e+05
1.8368e+05
1.8413e+05
1.8499e+05
1.8586e+05
1.8673e+05
1.8716e+05
1.8758e+05
1.8799e+05
1.8842e+05
1.8885e+05
1.8925e+05
1.8968e+05
1.9008e+05
1.909e+05
1.9215e+05
1.9258e+05
1.93e+05
1.9341e+05
1.9384e+05
1.9426e+05
1.9469e+05
1.951e+05
1.9554e+05
1.9894e+05
1.9938e+05
1.9981e+05
2.0024e+05
2.0067e+05
2.0111e+05
2.0154e+05
2.0197e+05
2.024e+05
2.0283e+05
2.0325e+05
2.0367e+05
2.041e+05
2.0451e+05
2.0493e+05
2.0535e+05
2.0577e+05
2.0618e+05
2.0659e+05
2.0701e+05
2.0742e+05
2.0785e+05
2.0827e+05
2.0871e+05
2.0913e+05
2.0957e+05
2.1e+05
2.1044e+05
2.1087e+05
2.1129e+05
2.1172e+05
2.1215e+05
2.1259e+05
2.1304e+05
2.1346e+05
2.139e+05
2.1434e+05
2.1478e+05
2.1522e+05
2.1565e+05
2.1608e+05
2.165e+05
2.1693e+05
2.1736e+05
2.1778e+05
2.1822e+05
2.1864e+05
2.1907e+05
2.1949e+05
2.1993e+05
2.2036e+05
2.2077e+05
2.2121e+05
2.2163e+05
2.2205e+05
2.2248e+05
2.229e+05
2.2334e+05
2.2375e+05
2.2419e+05
2.2461e+05
2.2503e+05
2.2546e+05
2.2589e+05
2.2632e+05
2.2675e+05
2.2719e+05
2.2763e+05
2.2805e+05
2.2847e+05
2.289e+05
2.2932e+05
2.2976e+05
2.3018e+05
2.3062e+05
2.3106e+05
2.3147e+05
2.3189e+05
2.3228e+05
2.3269e+05
2.3308e+05
2.3347e+05
2.3387e+05
2.3427e+05
2.3468e+05
2.3508e+05
2.3551e+05
2.3593e+05
2.3636e+05
2.3678e+05
2.372e+05
2.3763e+05
2.3805e+05
2.3849e+05
2.3891e+05
2.3934e+05
2.3976e+05
2.4019e+05
2.4061e+05
2.4103e+05
2.4145e+05
2.4186e+05
2.4229e+05
2.427e+05
2.4314e+05
2.4357e+05
2.44e+05
2.4444e+05
2.4486e+05
2.4529e+05
2.4573e+05
2.4615e+05
2.4658e+05
2.4701e+05
2.4744e+05
2.4786e+05
2.4872e+05
2.5e+05
2.5085e+05
2.5171e+05
2.5214e+05
2.5258e+05
2.53e+05
2.5344e+05
2.5385e+05
2.5428e+05
2.547e+05
2.5511e+05
2.5554e+05
2.5596e+05
2.5638e+05
2.5679e+05
2.5719e+05
2.5759e+05
2.5798e+05
2.5836e+05
2.5844e+05
2.6045e+05
2.6062e+05
2.6136e+05
2.6164e+05
2.6178e+05
2.6371e+05
2.6387e+05
2.6518e+05
2.7145e+05
2.726e+05
2.7333e+05
2.7372e+05
2.745e+05
2.7532e+05
2.7618e+05
2.7706e+05
2.8872e+05
2.8956e+05
2.904e+05
2.9084e+05
2.9169e+05
2.9254e+05
2.9341e+05
2.9427e+05
2.9471e+05
2.9557e+05
2.9645e+05
2.973e+05
2.9844e+05
2.9884e+05
2.9926e+05
2.9968e+05
3.0016e+05
3.0056e+05
3.0096e+05
3.0138e+05
3.0225e+05
3.0267e+05
3.0308e+05
3.0347e+05
3.0388e+05
3.0475e+05
3.0513e+05
3.0556e+05
3.0626e+05
3.0639e+05
3.0682e+05
3.0685e+05
3.0726e+05
3.0768e+05
3.0809e+05
3.0852e+05
3.0892e+05
3.1051e+05
3.115e+05
3.1192e+05
3.1232e+05
3.1362e+05
3.1404e+05
3.148e+05
3.1519e+05
3.1532e+05
3.1579e+05
3.162e+05
3.1661e+05
3.1706e+05
3.1739e+05
3.179e+05
3.1832e+05
3.1902e+05
3.1915e+05
3.2003e+05
3.204e+05
3.2086e+05
3.2166e+05
3.2193e+05
3.2207e+05
3.2241e+05
3.2284e+05
3.2339e+05
3.2382e+05
3.2508e+05
3.2631e+05
3.2718e+05
3.2847e+05
3.2889e+05
3.2975e+05
3.314e+05
3.3183e+05
3.3227e+05
3.3267e+05
3.3479e+05
3.3521e+05
3.3561e+05
3.3606e+05
3.3648e+05
3.369e+05
3.3728e+05
3.3816e+05
3.3857e+05
3.3899e+05
3.3944e+05
3.3985e+05
3.4031e+05
3.4069e+05
3.4072e+05
3.4098e+05
3.4128e+05
3.4172e+05
3.4215e+05
3.4259e+05
3.4303e+05
3.4345e+05
3.4389e+05
3.4431e+05
3.4474e+05
3.4516e+05
3.4558e+05
3.46e+05
3.4641e+05
3.4684e+05
3.4727e+05
3.4768e+05
3.4812e+05
3.4853e+05
3.4896e+05
3.4938e+05
3.498e+05
3.5022e+05
3.5064e+05
3.5107e+05
3.5148e+05
3.5191e+05
3.5275e+05
3.5318e+05
3.536e+05
3.5402e+05
3.5487e+05
3.5571e+05
3.5613e+05
3.5698e+05
3.5782e+05
3.5867e+05
3.5995e+05
3.608e+05
3.6166e+05
3.6208e+05
3.6291e+05
3.6376e+05
3.6419e+05
3.6457e+05
3.6495e+05
3.6533e+05
3.657e+05
3.6606e+05
3.6643e+05
3.6681e+05
3.6719e+05
3.6758e+05
3.6798e+05
3.6842e+05
3.6886e+05
3.6931e+05
3.7021e+05
3.7109e+05
3.7199e+05
3.7287e+05
3.7331e+05
3.742e+05
3.7507e+05
3.7592e+05
3.7635e+05
3.7676e+05
3.7717e+05
3.7798e+05
3.7842e+05
3.7884e+05
3.7928e+05
3.7972e+05
3.8014e+05
3.8058e+05
3.8101e+05
3.8146e+05
3.819e+05
3.8233e+05
3.8278e+05
3.8367e+05
3.8455e+05
3.8542e+05
3.9112e+05
3.9198e+05
3.9282e+05
3.9366e+05
3.9409e+05
3.9493e+05
3.9536e+05
3.9579e+05
3.9622e+05
3.9664e+05
3.9776e+05
3.9819e+05
3.9861e+05
3.9903e+05
3.994e+05
3.9943e+05
4.0016e+05
4.0061e+05
4.0103e+05
4.016e+05
4.0201e+05
4.0287e+05
4.029e+05
4.0331e+05
4.0375e+05
4.0463e+05
4.0552e+05
4.0593e+05
4.0638e+05
4.0681e+05
4.0765e+05
4.0808e+05
4.0849e+05
4.0889e+05
4.0892e+05
4.0931e+05
4.1061e+05
4.1145e+05
4.1192e+05
4.1317e+05
4.1362e+05
4.1486e+05
4.1657e+05
4.1746e+05
4.1788e+05
4.1819e+05
4.1872e+05
4.1999e+05
4.2002e+05
4.2043e+05
4.2084e+05
4.212e+05
4.217e+05
4.2428e+05
4.2469e+05
4.256e+05
4.2602e+05
4.2643e+05
4.2766e+05
4.281e+05
4.2849e+05
4.2894e+05
4.2936e+05
4.2938e+05
4.2976e+05
4.3017e+05
4.3101e+05
4.3144e+05
4.3187e+05
4.319e+05
4.3232e+05
4.3273e+05
4.3276e+05
4.3404e+05
4.3489e+05
4.3535e+05
4.3708e+05
4.3734e+05
4.3746e+05
4.3788e+05
4.383e+05
4.3873e+05
4.3914e+05
4.3959e+05
4.3999e+05
4.4044e+05
4.4083e+05
4.4128e+05
4.417e+05
4.4198e+05
4.4225e+05
4.4267e+05
4.431e+05
4.4351e+05
4.4394e+05
4.4436e+05
4.448e+05
4.4522e+05
4.4565e+05
4.4609e+05
4.4652e+05
4.4697e+05
4.474e+05
4.4784e+05
4.4826e+05
4.487e+05
4.4913e+05
4.4956e+05
4.4999e+05
4.5041e+05
4.5084e+05
4.5127e+05
4.517e+05
4.5214e+05
4.5257e+05
4.53e+05
4.5386e+05
4.5473e+05
4.5559e+05
4.5603e+05
4.5645e+05
4.5689e+05
4.5774e+05
4.5859e+05
4.5902e+05
4.5987e+05
4.6071e+05
4.6114e+05
4.6155e+05
4.6198e+05
4.6239e+05
4.628e+05
4.6323e+05
4.6407e+05
4.6493e+05
4.6536e+05
4.6621e+05
4.6706e+05
4.6791e+05
4.6834e+05
4.6876e+05
4.6919e+05
4.6962e+05
4.7004e+05
4.7046e+05
4.7087e+05
4.7129e+05
4.7171e+05
4.7213e+05
4.7296e+05
4.7338e+05
4.7379e+05
4.7421e+05
4.7463e+05
4.7504e+05
4.7547e+05
4.7588e+05
4.7631e+05
4.7718e+05
4.7803e+05
4.7845e+05
4.7928e+05
4.8012e+05
4.8054e+05
4.8138e+05
4.8222e+05
4.8265e+05
4.835e+05
4.8436e+05
4.8479e+05
4.852e+05
4.8564e+05
4.8605e+05
4.865e+05
4.8693e+05
4.8736e+05
4.8779e+05
4.8821e+05
4.8864e+05
4.8905e+05
4.8949e+05
4.9033e+05
4.9118e+05
4.916e+05
4.9201e+05
4.9244e+05
4.9286e+05
4.9327e+05
4.9369e+05
4.9411e+05
4.9453e+05
4.9495e+05
4.9539e+05
4.9667e+05
4.9709e+05
4.9752e+05
4.9795e+05
4.9837e+05
4.9879e+05
4.9922e+05
4.9965e+05
5.0007e+05
5.0049e+05
5.0093e+05
5.0134e+05
5.0176e+05
5.0217e+05
5.0259e+05
5.0302e+05
5.0342e+05
5.0386e+05
5.0427e+05
5.0471e+05
5.0513e+05
5.0556e+05
5.0598e+05
5.0639e+05
5.0683e+05
5.0725e+05
5.0768e+05
5.0811e+05
5.0853e+05
5.0896e+05
5.0938e+05
5.0981e+05
5.1023e+05
5.1064e+05
5.1107e+05
5.1149e+05
5.1191e+05
5.1234e+05
5.1275e+05
5.1317e+05
5.1357e+05
5.1399e+05
5.1441e+05
5.1481e+05
5.1525e+05
5.1566e+05
5.1608e+05
5.1649e+05
5.1692e+05
5.1735e+05
5.1777e+05
5.1819e+05
5.1861e+05
5.1903e+05
5.1944e+05
5.1987e+05
5.2029e+05
5.207e+05
5.2112e+05
5.2153e+05
5.2197e+05
5.2239e+05
5.2281e+05
5.2324e+05
5.2366e+05
5.2409e+05
5.2451e+05
5.2492e+05
5.2535e+05
5.2576e+05
5.2618e+05
5.266e+05
5.2701e+05
5.2743e+05
5.2783e+05
5.2826e+05
5.2867e+05
5.2909e+05
5.2952e+05
5.2993e+05
5.3035e+05
5.3075e+05
5.3118e+05
5.3159e+05
5.32e+05
5.3242e+05
5.3283e+05
5.3325e+05
5.3365e+05
5.3409e+05
5.345e+05
5.3492e+05
5.3535e+05
5.3576e+05
5.3619e+05
5.3662e+05
5.3703e+05
5.3746e+05
5.3788e+05
5.3832e+05
5.3873e+05
5.3915e+05
5.3958e+05
5.3999e+05
5.4041e+05
5.4083e+05
5.4126e+05
5.4168e+05
5.4208e+05
5.4252e+05
5.4293e+05
5.4335e+05
5.4377e+05
5.4419e+05
5.4502e+05
5.4629e+05
5.4671e+05
5.4754e+05
5.4839e+05
5.4882e+05
5.4924e+05
5.4967e+05
5.5009e+05
5.5052e+05
5.5138e+05
5.5223e+05
5.5265e+05
5.5348e+05
5.5432e+05
5.5556e+05
5.5598e+05
5.564e+05
5.5724e+05
5.5808e+05
5.5849e+05
5.5932e+05
5.5974e+05
5.6015e+05
5.6099e+05
5.6224e+05
5.6435e+05
5.6519e+05
5.6561e+05
5.6603e+05
5.6646e+05
5.6688e+05
5.673e+05
5.6814e+05
5.6899e+05
5.711e+05
5.7195e+05
5.7322e+05
5.7406e+05
5.7612e+05
5.7697e+05
5.8017e+05
5.81e+05
5.8186e+05
5.8613e+05
5.8699e+05
5.8911e+05
5.9123e+05
5.9208e+05
5.9419e+05
5.9503e+05
5.9586e+05
5.9628e+05
5.9671e+05
5.9712e+05
5.9755e+05
5.9797e+05
5.9839e+05
5.9882e+05
5.9924e+05
5.9967e+05
6.0009e+05
6.0052e+05
6.0093e+05
6.0135e+05
6.0177e+05
6.0219e+05
6.0261e+05
6.0302e+05
6.0345e+05
6.0386e+05
6.0428e+05
6.047e+05
6.0511e+05
6.0553e+05
6.0593e+05
6.0635e+05
6.0677e+05
6.0718e+05
6.076e+05
6.0802e+05
6.0844e+05
6.0887e+05
6.0928e+05
6.097e+05
6.1011e+05
6.1053e+05
6.1097e+05
6.1138e+05
6.1182e+05
6.1223e+05
6.1265e+05
6.1307e+05
6.1348e+05
6.1391e+05
6.1432e+05
6.1475e+05
6.1517e+05
6.1558e+05
6.16e+05
6.1642e+05
6.1684e+05
6.1727e+05
6.1769e+05
6.1811e+05
6.1853e+05
6.1894e+05
6.1936e+05
6.1979e+05
6.2022e+05
6.2065e+05
6.2108e+05
6.2151e+05
6.2193e+05
6.2237e+05
6.2278e+05
6.232e+05
6.2362e+05
6.2404e+05
6.2447e+05
6.2488e+05
6.2531e+05
6.2572e+05
6.2615e+05
6.2657e+05
6.2697e+05
6.2739e+05
6.278e+05
6.2823e+05
6.2866e+05
6.2909e+05
6.2952e+05
6.2993e+05
6.3036e+05
6.3078e+05
6.3121e+05
6.3163e+05
6.3206e+05
6.3249e+05
6.3291e+05
6.3334e+05
6.3377e+05
6.3419e+05
6.3461e+05
6.3503e+05
6.3545e+05
6.3586e+05
6.3629e+05
6.3671e+05
6.3713e+05
6.3756e+05
6.3797e+05
6.3839e+05
6.388e+05
6.3922e+05
6.3965e+05
6.4006e+05
6.4048e+05
6.4089e+05
6.413e+05
6.4171e+05
6.4212e+05
6.4254e+05
6.4295e+05
6.4337e+05
6.4379e+05
6.442e+05
6.4462e+05
6.4503e+05
6.4545e+05
6.4627e+05
6.4669e+05
6.4751e+05
6.4833e+05
6.4876e+05
