299
607
912
1215
1521
1806
2102
2405
2694
2985
3292
3606
3910
4211
4513
4815
5106
5390
5692
5986
6280
6582
6858
7142
7434
7726
8011
8300
8595
8896
9188
9492
9801
10103
10408
10717
11310
11613
11919
12217
12519
12827
13123
13434
13719
13997
14292
14568
14846
15134
15426
15717
16018
16323
16626
16931
17243
17548
17863
18170
18473
18782
19082
19386
19690
19982
20287
20586
20885
21192
21495
21799
22099
22404
22703
23003
23301
23594
23899
24204
24491
24790
25093
25399
25704
26002
26305
26602
26902
27206
27502
27802
28101
28398
28697
28983
29278
29577
29870
30168
30463
30756
31046
31337
31633
31913
32200
32489
32776
33066
33355
33915
34219
34505
34794
35078
35293
35629
35920
36211
36490
36771
37057
37351
37639
38189
38779
39080
39363
39648
39922
40211
40464
40756
41055
41341
41635
41923
42217
42509
42800
43102
43399
43695
43989
44274
44570
44864
45158
45451
45736
46040
46332
46625
46917
47211
47497
47788
48078
48361
48640
48936
49222
49519
49807
50108
50408
50705
51008
51308
51612
51914
52219
52520
52822
53128
53431
53736
54044
54348
54653
54962
55264
55567
55879
56179
56482
56790
57085
57386
57689
57978
58278
58568
58860
59156
59450
59742
60043
60322
60611
61166
61463
61748
62036
62324
62616
62904
63196
63486
63777
64069
64373
64887
65205
65503
65797
66089
66374
66672
66962
67255
67556
67847
68141
68442
68747
69308
69629
69937
70246
70545
70842
71137
71435
72035
72644
72964
73276
73593
73899
74195
74506
74809
75095
75387
75690
75982
76285
76586
76881
77185
77486
77789
78093
78388
78695
79001
79308
79604
79907
80214
80519
80772
81118
81419
81726
82023
82315
82611
82912
83196
83489
83788
84075
84362
84644
84932
85226
85511
85802
86089
86381
86679
86963
87251
87543
87835
88131
88421
88719
89027
89324
89636
89930
90228
90535
90855
91153
91455
91765
92076
92386
92706
93022
93339
93663
93987
94278
94599
94911
95211
95508
95801
96091
96375
96673
96968
97254
97542
97839
98135
98438
98737
98962
2.103e+05
2.1438e+05
2.5154e+05
3.9732e+05
3.9762e+05
3.9792e+05
3.982e+05
3.9851e+05
3.9879e+05
3.9909e+05
3.9931e+05
3.996e+05
3.9991e+05
4.0019e+05
4.0049e+05
4.008e+05
4.0109e+05
4.0139e+05
4.017e+05
4.0201e+05
4.023e+05
4.026e+05
4.029e+05
4.0319e+05
4.0349e+05
4.0407e+05
4.0438e+05
4.0468e+05
4.0497e+05
4.0528e+05
4.0557e+05
4.0587e+05
4.0616e+05
4.0646e+05
4.067e+05
4.07e+05
4.0729e+05
4.076e+05
4.079e+05
4.082e+05
4.085e+05
4.088e+05
4.091e+05
4.0941e+05
4.0996e+05
4.1027e+05
4.1057e+05
4.1088e+05
4.1118e+05
4.1148e+05
4.1179e+05
4.1209e+05
4.1239e+05
4.127e+05
4.133e+05
4.1361e+05
4.1391e+05
4.1421e+05
4.1451e+05
4.1482e+05
4.1512e+05
4.1544e+05
4.1573e+05
4.1603e+05
4.1635e+05
4.1664e+05
4.1693e+05
4.1723e+05
4.1752e+05
4.1785e+05
4.1812e+05
4.1842e+05
4.1872e+05
4.1901e+05
4.1931e+05
4.1961e+05
4.2017e+05
4.2048e+05
4.2076e+05
4.2104e+05
4.2134e+05
4.2163e+05
4.2191e+05
4.2219e+05
4.2242e+05
4.2274e+05
4.2306e+05
4.2332e+05
4.236e+05
4.2388e+05
4.2442e+05
4.247e+05
4.2497e+05
4.2525e+05
4.2552e+05
4.258e+05
4.2606e+05
4.2634e+05
4.2662e+05
4.2691e+05
4.272e+05
4.2749e+05
4.2807e+05
4.2835e+05
4.2865e+05
4.2892e+05
4.2922e+05
4.295e+05
4.2978e+05
4.3007e+05
4.3091e+05
4.3122e+05
4.315e+05
4.3178e+05
4.3207e+05
4.3237e+05
4.3266e+05
4.3296e+05
4.3326e+05
4.3355e+05
4.3385e+05
4.3415e+05
4.3445e+05
4.3474e+05
4.3505e+05
4.3534e+05
4.3564e+05
4.3594e+05
4.3623e+05
4.3652e+05
4.3682e+05
4.3713e+05
4.3743e+05
4.3774e+05
4.3804e+05
4.3834e+05
4.3864e+05
4.3895e+05
4.3925e+05
4.3955e+05
4.3985e+05
4.4016e+05
4.4046e+05
4.4075e+05
4.4106e+05
4.4135e+05
4.4165e+05
4.4195e+05
4.4254e+05
4.4283e+05
4.4343e+05
4.4371e+05
4.4401e+05
4.443e+05
4.4459e+05
4.4488e+05
4.4602e+05
4.4631e+05
4.4688e+05
4.4745e+05
4.4768e+05
4.4797e+05
4.4825e+05
4.4853e+05
4.4884e+05
4.4913e+05
4.4943e+05
4.4971e+05
4.5001e+05
4.5031e+05
4.506e+05
4.509e+05
4.512e+05
4.515e+05
4.518e+05
4.5211e+05
4.5241e+05
4.5301e+05
4.5332e+05
4.5363e+05
4.5394e+05
4.5425e+05
4.5455e+05
4.5487e+05
4.6132e+05
4.6222e+05
4.6314e+05
4.6374e+05
4.6402e+05
4.6432e+05
4.649e+05
4.652e+05
4.6551e+05
4.658e+05
4.6609e+05
4.664e+05
4.667e+05
4.67e+05
4.673e+05
4.676e+05
4.6789e+05
4.6818e+05
4.6848e+05
4.6878e+05
4.6907e+05
4.6936e+05
4.6967e+05
4.6996e+05
4.7025e+05
4.7056e+05
4.7085e+05
4.7115e+05
4.7147e+05
4.7176e+05
4.7206e+05
4.7236e+05
4.7266e+05
4.7297e+05
4.7326e+05
4.7356e+05
4.7386e+05
4.7416e+05
4.7447e+05
4.7632e+05
4.8237e+05
4.8293e+05
4.8382e+05
4.8443e+05
4.8472e+05
4.8502e+05
4.8534e+05
4.8563e+05
4.8592e+05
4.8652e+05
4.8682e+05
4.8712e+05
4.8742e+05
4.8772e+05
4.8801e+05
4.8832e+05
4.8856e+05
4.8892e+05
4.8915e+05
4.8951e+05
4.8981e+05
4.9012e+05
4.9043e+05
4.9074e+05
4.9104e+05
4.9136e+05
4.9159e+05
4.926e+05
4.9293e+05
4.9325e+05
4.9388e+05
4.9419e+05
4.945e+05
4.9512e+05
4.9575e+05
4.9607e+05
4.9675e+05
4.9895e+05
5.002e+05
5.0244e+05
5.0308e+05
5.0465e+05
5.0684e+05
5.0805e+05
5.0983e+05
5.1103e+05
5.1224e+05
5.1282e+05
5.1343e+05
5.1401e+05
5.1521e+05
5.1584e+05
5.1615e+05
5.1639e+05
5.1768e+05
5.1799e+05
5.183e+05
5.1893e+05
5.1924e+05
5.1978e+05
5.2018e+05
5.2111e+05
5.2143e+05
5.2456e+05
5.258e+05
5.264e+05
5.2701e+05
5.2795e+05
5.2886e+05
5.2916e+05
5.2946e+05
5.3007e+05
5.3036e+05
5.3059e+05
5.3158e+05
5.3218e+05
5.3248e+05
5.3338e+05
5.3428e+05
5.349e+05
5.3521e+05
5.3549e+05
5.3612e+05
5.3643e+05
5.3734e+05
5.3826e+05
5.3919e+05
5.3951e+05
5.4045e+05
5.4138e+05
5.4263e+05
5.4542e+05
5.4878e+05
5.4908e+05
5.4969e+05
5.5085e+05
5.6671e+05
5.6733e+05
5.6824e+05
5.6916e+05
5.7041e+05
5.7103e+05
5.7287e+05
5.7503e+05
5.7627e+05
5.7721e+05
5.8318e+05
5.8431e+05
5.9719e+05
6.0231e+05
6.1092e+05
6.1384e+05
6.1759e+05
6.2536e+05
6.2711e+05
6.3513e+05
6.449e+05
-1
456
508
758
819
1062
1162
1371
1669
1963
2260
2310
2556
2849
2924
3136
3184
3444
3500
3758
3806
4062
4368
4666
4711
4968
5258
5298
5548
5652
5843
6139
6180
6433
6487
6729
6776
7011
7302
7349
7589
7876
8166
8459
8749
9049
9097
9351
9649
9957
10265
10564
10872
11109
11464
11509
11771
12074
12378
12679
12981
13026
13286
13325
13581
13873
14156
14441
14718
15001
15048
15294
15339
15580
15621
15872
15912
16176
16475
16784
17092
17136
17397
17706
17750
18016
18328
18375
18632
18935
19241
19543
19841
20142
20188
20444
20738
21044
21350
21650
21954
22006
22260
22561
22859
23162
23456
23751
24053
24092
24356
24398
24650
24947
25252
25559
25603
25856
26162
26460
26502
26758
27062
27361
27659
27959
28260
28553
28849
28897
29147
29434
29483
29736
30032
30079
30326
30622
31496
31786
32070
32357
32643
32934
33224
33509
33738
34070
34375
34662
34710
34949
35233
35468
35783
35834
36079
36121
36362
36645
36929
37216
37503
37548
37787
38017
38342
38569
38933
38979
39231
39268
39512
39794
39837
40084
40129
40363
40602
40661
40911
40955
41208
41495
41542
41789
42085
42139
42371
42412
42665
42964
43259
43557
43609
43846
44143
44189
44432
44723
44763
45020
45073
45312
45894
46194
46238
46486
46531
46775
47073
47364
47407
47652
47696
47945
47989
48229
48512
48798
48841
49090
49378
49962
50261
50560
50859
50901
51163
51464
51508
51767
52073
52374
52674
52980
53285
53587
53896
54198
54505
54815
54860
55115
55421
55726
56030
56335
56637
56946
57243
57288
57541
57588
57844
58137
58185
58433
58504
58724
58770
59017
59314
59607
59902
60196
60479
60526
60774
60997
61321
61614
61906
61946
62192
62481
62777
63059
63354
63644
63686
64230
64517
65039
65087
65360
65660
65953
66242
66530
66829
67118
67408
67711
67764
68002
68298
68601
68645
68899
69462
69508
69784
70094
70138
70402
70699
70995
71293
71590
71654
71835
72189
72242
72421
72803
72849
73124
73431
73481
73748
74052
74355
74398
74662
74960
75251
75301
75542
75589
75841
75889
76141
76436
76740
77041
77085
77343
77385
77647
77946
77991
78246
78287
78546
78853
78896
79159
79198
79460
79503
79762
80061
80106
80365
80466
80677
80919
81275
81321
81580
81881
81938
82177
82226
82468
82513
82762
82805
83059
83105
83353
83648
83706
83938
83986
84225
84281
84799
84843
85089
85139
85372
85673
85957
86011
86248
86544
86835
86878
87120
87406
87705
87989
88284
88581
88871
89185
89231
89484
89540
89783
90084
90385
90695
91008
91303
91613
91657
91923
92229
92272
92550
92864
93177
93503
93823
93866
94134
94442
94814
95057
95369
95419
95661
95737
95955
96533
96571
96829
96876
97120
97409
97455
97702
97997
98045
98295
98594
98893
98921
99108
99437
99486
99744
99793
1.0003e+05
1.0008e+05
1.0033e+05
1.0042e+05
1.0062e+05
1.0084e+05
1.0116e+05
1.0121e+05
1.0147e+05
1.0175e+05
1.018e+05
1.0205e+05
1.0234e+05
1.0257e+05
1.0291e+05
1.0295e+05
1.0322e+05
1.0376e+05
1.0381e+05
1.0408e+05
1.0414e+05
1.0438e+05
1.0468e+05
1.0498e+05
1.0528e+05
1.0534e+05
1.0555e+05
1.056e+05
1.0586e+05
1.0592e+05
1.0616e+05
1.0621e+05
1.0646e+05
1.0675e+05
1.0705e+05
1.0709e+05
1.0735e+05
1.0765e+05
1.077e+05
1.0794e+05
1.0801e+05
1.083e+05
1.0853e+05
1.0883e+05
1.0887e+05
1.091e+05
1.0938e+05
1.0966e+05
1.099e+05
1.0995e+05
1.1021e+05
1.1027e+05
1.1049e+05
1.1078e+05
1.1082e+05
1.1106e+05
1.1135e+05
1.114e+05
1.1158e+05
1.119e+05
1.1221e+05
1.1251e+05
1.128e+05
1.1309e+05
1.134e+05
1.1369e+05
1.1398e+05
1.1428e+05
1.1457e+05
1.1462e+05
1.1487e+05
1.1517e+05
1.1546e+05
1.1576e+05
1.1606e+05
1.1636e+05
1.1641e+05
1.1667e+05
1.1696e+05
1.1726e+05
1.1756e+05
1.1786e+05
1.1815e+05
1.1845e+05
1.1874e+05
1.1903e+05
1.1934e+05
1.1963e+05
1.1993e+05
1.2023e+05
1.2054e+05
1.2084e+05
1.2089e+05
1.2113e+05
1.2118e+05
1.2144e+05
1.2174e+05
1.2204e+05
1.2208e+05
1.2234e+05
1.2264e+05
1.2269e+05
1.2294e+05
1.2298e+05
1.2322e+05
1.2327e+05
1.2351e+05
1.2381e+05
1.241e+05
1.2414e+05
1.2439e+05
1.2443e+05
1.2469e+05
1.2473e+05
1.2498e+05
1.2504e+05
1.2528e+05
1.2556e+05
1.2578e+05
1.2613e+05
1.2619e+05
1.2643e+05
1.2648e+05
1.2673e+05
1.2678e+05
1.2702e+05
1.2724e+05
1.2755e+05
1.2761e+05
1.2779e+05
1.2813e+05
1.2836e+05
1.287e+05
1.2894e+05
1.2928e+05
1.2934e+05
1.2959e+05
1.2963e+05
1.2987e+05
1.2989e+05
1.3008e+05
1.304e+05
1.3069e+05
1.3074e+05
1.3098e+05
1.3107e+05
1.3128e+05
1.316e+05
1.3182e+05
1.3189e+05
1.3211e+05
1.3239e+05
1.3243e+05
1.3266e+05
1.3271e+05
1.3292e+05
1.3298e+05
1.3321e+05
1.3329e+05
1.3348e+05
1.3375e+05
1.3379e+05
1.3403e+05
1.3411e+05
1.343e+05
1.3458e+05
1.3463e+05
1.3485e+05
1.3489e+05
1.3516e+05
1.3539e+05
1.3544e+05
1.3566e+05
1.3574e+05
1.3592e+05
1.3598e+05
1.3619e+05
1.3623e+05
1.3645e+05
1.3649e+05
1.3672e+05
1.3676e+05
1.3698e+05
1.3725e+05
1.3731e+05
1.3751e+05
1.3758e+05
1.3777e+05
1.3805e+05
1.3809e+05
1.3832e+05
1.3837e+05
1.3858e+05
1.3863e+05
1.3884e+05
1.3888e+05
1.3911e+05
1.3914e+05
1.3937e+05
1.3942e+05
1.3964e+05
1.3969e+05
1.399e+05
1.3995e+05
1.4017e+05
1.4023e+05
1.4044e+05
1.4047e+05
1.4069e+05
1.4074e+05
1.4097e+05
1.4102e+05
1.4123e+05
1.4128e+05
1.415e+05
1.4154e+05
1.4173e+05
1.4178e+05
1.4202e+05
1.4207e+05
1.4228e+05
1.4254e+05
1.4259e+05
1.4281e+05
1.4286e+05
1.4306e+05
1.431e+05
1.4331e+05
1.4357e+05
1.4363e+05
1.4382e+05
1.4408e+05
1.4414e+05
1.4457e+05
1.4463e+05
1.4483e+05
1.4609e+05
1.4684e+05
1.4689e+05
1.4709e+05
1.4714e+05
1.4734e+05
1.4739e+05
1.4758e+05
1.4832e+05
1.4835e+05
1.4856e+05
1.4861e+05
1.4905e+05
1.4909e+05
1.4954e+05
1.5052e+05
1.5055e+05
1.5076e+05
1.5081e+05
1.51e+05
1.5105e+05
1.5125e+05
1.513e+05
1.5198e+05
1.5202e+05
1.5221e+05
1.5225e+05
1.5245e+05
1.5366e+05
1.5371e+05
1.539e+05
1.5397e+05
1.5414e+05
1.5419e+05
1.5512e+05
1.5537e+05
1.5541e+05
1.5561e+05
1.5565e+05
1.561e+05
1.5615e+05
1.5708e+05
1.5713e+05
1.5809e+05
1.5879e+05
1.5884e+05
1.5905e+05
1.5908e+05
1.5955e+05
1.5958e+05
1.6106e+05
1.611e+05
1.6603e+05
1.6661e+05
1.6665e+05
1.6715e+05
1.6719e+05
1.6741e+05
1.6768e+05
1.6772e+05
1.6821e+05
1.6848e+05
1.6854e+05
1.6874e+05
1.6879e+05
1.69e+05
1.6904e+05
1.6926e+05
1.693e+05
1.6952e+05
1.6979e+05
1.7004e+05
1.701e+05
1.703e+05
1.7034e+05
1.7055e+05
1.7082e+05
1.7107e+05
1.7133e+05
1.7139e+05
1.7159e+05
1.7164e+05
1.7211e+05
1.7218e+05
1.7236e+05
1.7243e+05
1.7264e+05
1.729e+05
1.7315e+05
1.7322e+05
1.7341e+05
1.7367e+05
1.7371e+05
1.7392e+05
1.7397e+05
1.7418e+05
1.7423e+05
1.7443e+05
1.7448e+05
1.7469e+05
1.752e+05
1.7524e+05
1.7572e+05
1.7577e+05
1.7623e+05
1.763e+05
1.7673e+05
1.7701e+05
1.7709e+05
1.7727e+05
1.7732e+05
1.7754e+05
1.776e+05
1.7796e+05
1.7828e+05
1.7832e+05
1.7858e+05
1.7865e+05
1.789e+05
1.7914e+05
1.7945e+05
1.7986e+05
1.8015e+05
1.8018e+05
1.8035e+05
1.804e+05
1.8611e+05
1.8613e+05
1.8636e+05
1.8638e+05
1.8708e+05
1.8785e+05
1.8789e+05
1.886e+05
1.8865e+05
1.8885e+05
1.8889e+05
1.891e+05
1.8913e+05
1.8935e+05
1.8941e+05
1.8959e+05
1.8963e+05
1.8984e+05
1.8987e+05
1.901e+05
1.9035e+05
1.9039e+05
1.9059e+05
1.9084e+05
1.9102e+05
1.913e+05
1.9135e+05
1.9155e+05
1.916e+05
1.918e+05
1.9205e+05
1.9208e+05
1.9231e+05
1.9234e+05
1.9255e+05
1.9258e+05
1.928e+05
1.9283e+05
1.9305e+05
1.9308e+05
1.933e+05
1.9352e+05
1.9356e+05
1.9379e+05
1.9383e+05
1.9405e+05
1.9409e+05
1.9432e+05
1.9435e+05
1.9457e+05
1.946e+05
1.9509e+05
1.9512e+05
1.9536e+05
1.9539e+05
1.9562e+05
1.9566e+05
1.9589e+05
1.9642e+05
1.9645e+05
1.9695e+05
1.9699e+05
1.975e+05
1.9777e+05
1.978e+05
1.9803e+05
1.9807e+05
1.9885e+05
1.9888e+05
1.9912e+05
1.9915e+05
1.994e+05
1.9967e+05
1.9969e+05
1.9987e+05
2.0017e+05
2.0021e+05
2.0046e+05
2.0065e+05
2.0069e+05
2.0096e+05
2.0124e+05
2.0128e+05
2.0152e+05
2.0155e+05
2.0179e+05
2.0207e+05
2.0235e+05
2.0263e+05
2.0291e+05
2.0319e+05
2.0348e+05
2.0351e+05
2.0376e+05
2.0404e+05
2.0407e+05
2.0432e+05
2.045e+05
2.0488e+05
2.0517e+05
2.052e+05
2.0545e+05
2.0573e+05
2.06e+05
2.0629e+05
2.0657e+05
2.0685e+05
2.0713e+05
2.0741e+05
2.0769e+05
2.0796e+05
2.08e+05
2.0825e+05
2.0829e+05
2.0852e+05
2.0856e+05
2.088e+05
2.0907e+05
2.0935e+05
2.0963e+05
2.099e+05
2.1018e+05
2.1046e+05
2.105e+05
2.1073e+05
2.1101e+05
2.1129e+05
2.1156e+05
2.116e+05
2.1183e+05
2.121e+05
2.1237e+05
2.1264e+05
2.1291e+05
2.1318e+05
2.1322e+05
2.1345e+05
2.1372e+05
2.14e+05
2.1427e+05
2.1431e+05
2.1454e+05
2.1482e+05
2.1486e+05
2.151e+05
2.1538e+05
2.1566e+05
2.1594e+05
2.1622e+05
2.165e+05
2.1678e+05
2.1682e+05
2.1705e+05
2.1708e+05
2.1726e+05
2.1756e+05
2.1784e+05
2.1788e+05
2.1812e+05
2.1816e+05
2.1839e+05
2.1843e+05
2.1867e+05
2.1894e+05
2.1921e+05
2.1948e+05
2.1952e+05
2.1976e+05
2.2004e+05
2.2009e+05
2.2031e+05
2.2058e+05
2.2086e+05
2.2114e+05
2.2141e+05
2.2168e+05
2.2196e+05
2.2223e+05
2.225e+05
2.2277e+05
2.2305e+05
2.2309e+05
2.2332e+05
2.2359e+05
2.2387e+05
2.2391e+05
2.2414e+05
2.2442e+05
2.2446e+05
2.2469e+05
2.2497e+05
2.2524e+05
2.2528e+05
2.2551e+05
2.2579e+05
2.2607e+05
2.2612e+05
2.2634e+05
2.2636e+05
2.2654e+05
2.2685e+05
2.2689e+05
2.2713e+05
2.274e+05
2.2745e+05
2.2767e+05
2.2794e+05
2.2798e+05
2.282e+05
2.2847e+05
2.2875e+05
2.2902e+05
2.2906e+05
2.293e+05
2.2957e+05
2.296e+05
2.2985e+05
2.3012e+05
2.3016e+05
2.3041e+05
2.3068e+05
2.3073e+05
2.3095e+05
2.3123e+05
2.315e+05
2.3178e+05
2.3182e+05
2.3206e+05
2.3233e+05
2.3237e+05
2.326e+05
2.3288e+05
2.3292e+05
2.3316e+05
2.332e+05
2.3343e+05
2.3348e+05
2.337e+05
2.3375e+05
2.3398e+05
2.3426e+05
2.3454e+05
2.3458e+05
2.3482e+05
2.3485e+05
2.3502e+05
2.3533e+05
2.3538e+05
2.3566e+05
2.359e+05
2.3594e+05
2.3617e+05
2.3622e+05
2.3645e+05
2.365e+05
2.3673e+05
2.3677e+05
2.3701e+05
2.3729e+05
2.3758e+05
2.3787e+05
2.3815e+05
2.3821e+05
2.3844e+05
2.3849e+05
2.3873e+05
2.3877e+05
2.3902e+05
2.3931e+05
2.3935e+05
2.395e+05
2.3953e+05
2.3982e+05
2.3988e+05
2.401e+05
2.4015e+05
2.4039e+05
2.4044e+05
2.406e+05
2.4096e+05
2.41e+05
2.4125e+05
2.4155e+05
2.4215e+05
2.4223e+05
2.4251e+05
2.4308e+05
2.4312e+05
2.4339e+05
2.44e+05
2.4406e+05
2.4432e+05
2.4463e+05
2.4466e+05
2.4494e+05
2.4525e+05
2.453e+05
2.4555e+05
2.4561e+05
2.4593e+05
2.4617e+05
2.4622e+05
2.4647e+05
2.4651e+05
2.4678e+05
2.4683e+05
2.4707e+05
2.4713e+05
2.4737e+05
2.4742e+05
2.4767e+05
2.4771e+05
2.4796e+05
2.4802e+05
2.4832e+05
2.4856e+05
2.4861e+05
2.4886e+05
2.4918e+05
2.4922e+05
2.4949e+05
2.498e+05
2.4985e+05
2.5013e+05
2.5018e+05
2.5044e+05
2.5114e+05
2.5139e+05
2.5171e+05
2.5177e+05
2.5202e+05
2.5208e+05
2.5233e+05
2.5264e+05
2.5275e+05
2.5295e+05
2.5299e+05
2.5345e+05
2.5385e+05
2.635e+05
2.6382e+05
2.6404e+05
2.6414e+05
2.6438e+05
2.6442e+05
2.6466e+05
2.6473e+05
2.6494e+05
2.6532e+05
2.6555e+05
2.6606e+05
2.6618e+05
2.6659e+05
2.6661e+05
2.6745e+05
2.6772e+05
2.6799e+05
2.6823e+05
2.6826e+05
2.6854e+05
2.6881e+05
2.6911e+05
2.6934e+05
2.6959e+05
2.6986e+05
2.6989e+05
2.7013e+05
2.704e+05
2.7044e+05
2.7074e+05
2.7098e+05
2.7121e+05
2.7127e+05
2.7147e+05
2.7153e+05
2.7175e+05
2.7206e+05
2.7227e+05
2.7232e+05
2.7249e+05
2.7279e+05
2.7284e+05
2.7305e+05
2.7309e+05
2.7331e+05
2.7339e+05
2.7359e+05
2.7385e+05
2.7389e+05
2.7404e+05
2.7408e+05
2.7435e+05
2.7443e+05
2.7462e+05
2.7468e+05
2.7489e+05
2.7492e+05
2.7514e+05
2.7547e+05
2.7563e+05
2.7569e+05
2.7598e+05
2.7625e+05
2.7629e+05
2.7646e+05
2.7648e+05
2.768e+05
2.77e+05
2.7705e+05
2.7728e+05
2.7753e+05
2.776e+05
2.7776e+05
2.778e+05
2.861e+05
2.8639e+05
2.8642e+05
2.8722e+05
2.8751e+05
2.881e+05
2.8839e+05
2.8898e+05
2.8927e+05
2.8957e+05
2.8961e+05
2.8987e+05
2.9046e+05
2.9076e+05
2.9136e+05
2.914e+05
2.9164e+05
2.9819e+05
2.9849e+05
2.9854e+05
2.9908e+05
2.9912e+05
2.9937e+05
2.9966e+05
3.0055e+05
3.0086e+05
3.0146e+05
3.0175e+05
3.0204e+05
3.0233e+05
3.0262e+05
3.0291e+05
3.0296e+05
3.0319e+05
3.0348e+05
3.0353e+05
3.0376e+05
3.0404e+05
3.041e+05
3.0433e+05
3.0488e+05
3.0516e+05
3.0544e+05
3.0566e+05
3.061e+05
3.064e+05
3.0668e+05
3.0697e+05
3.0701e+05
3.0718e+05
3.0748e+05
3.0776e+05
3.078e+05
3.0804e+05
3.0831e+05
3.0858e+05
3.0886e+05
3.0913e+05
3.0919e+05
3.094e+05
3.0962e+05
3.099e+05
3.1018e+05
3.1046e+05
3.1075e+05
3.1124e+05
3.1128e+05
3.1154e+05
3.1182e+05
3.121e+05
3.1237e+05
3.1264e+05
3.1268e+05
3.1293e+05
3.132e+05
3.1375e+05
3.1402e+05
3.1405e+05
3.1424e+05
3.1455e+05
3.1459e+05
3.1485e+05
3.1513e+05
3.1541e+05
3.157e+05
3.1575e+05
3.1598e+05
3.1627e+05
3.1655e+05
3.1683e+05
3.1712e+05
3.174e+05
3.1768e+05
3.1826e+05
3.1854e+05
3.1883e+05
3.1912e+05
3.1963e+05
3.2e+05
3.2005e+05
3.2032e+05
3.2064e+05
3.2094e+05
3.2124e+05
3.2154e+05
3.2184e+05
3.2213e+05
3.2241e+05
3.227e+05
3.2299e+05
3.2303e+05
3.2328e+05
3.2358e+05
3.2387e+05
3.2391e+05
3.2416e+05
3.2445e+05
3.2475e+05
3.2504e+05
3.2533e+05
3.2561e+05
3.2575e+05
3.2619e+05
3.2649e+05
3.2678e+05
3.2707e+05
3.2736e+05
3.2765e+05
3.278e+05
3.2824e+05
3.2829e+05
3.2853e+05
3.2858e+05
3.2881e+05
3.291e+05
3.2914e+05
3.2939e+05
3.2945e+05
3.2967e+05
3.2972e+05
3.2996e+05
3.3e+05
3.3019e+05
3.3024e+05
3.3059e+05
3.3094e+05
3.3125e+05
3.3156e+05
3.3161e+05
3.3214e+05
3.3219e+05
3.3243e+05
3.3247e+05
3.3297e+05
3.3328e+05
3.3333e+05
3.3387e+05
3.3415e+05
3.3421e+05
3.3443e+05
3.3447e+05
3.3472e+05
3.3497e+05
3.3526e+05
3.3558e+05
3.3586e+05
3.3615e+05
3.362e+05
3.364e+05
3.3673e+05
3.3701e+05
3.3754e+05
3.3786e+05
3.3843e+05
3.3849e+05
3.3872e+05
3.3876e+05
3.39e+05
3.3905e+05
3.3927e+05
3.3949e+05
3.3955e+05
3.3979e+05
3.4008e+05
3.4013e+05
3.4035e+05
3.404e+05
3.4063e+05
3.4068e+05
3.409e+05
3.4118e+05
3.4122e+05
3.4146e+05
3.4151e+05
3.4174e+05
3.4179e+05
3.4201e+05
3.4206e+05
3.423e+05
3.4237e+05
3.4258e+05
3.4262e+05
3.428e+05
3.4324e+05
3.433e+05
3.4354e+05
3.4378e+05
3.441e+05
3.4434e+05
3.4465e+05
3.4492e+05
3.4515e+05
3.4546e+05
3.4574e+05
3.4629e+05
3.4633e+05
3.4657e+05
3.4685e+05
3.469e+05
3.4713e+05
3.4741e+05
3.4745e+05
3.4768e+05
3.4796e+05
3.4801e+05
3.4824e+05
3.4829e+05
3.485e+05
3.4881e+05
3.4886e+05
3.4994e+05
3.5023e+05
3.5028e+05
3.5052e+05
3.5056e+05
3.5079e+05
3.5083e+05
3.5101e+05
3.5106e+05
3.5161e+05
3.5166e+05
3.5186e+05
3.5245e+05
3.525e+05
3.5273e+05
3.528e+05
3.5301e+05
3.533e+05
3.5333e+05
3.5358e+05
3.5385e+05
3.5389e+05
3.5413e+05
3.5419e+05
3.5437e+05
3.5468e+05
3.5498e+05
3.5502e+05
3.5527e+05
3.5531e+05
3.5554e+05
3.5558e+05
3.5582e+05
3.5588e+05
3.5611e+05
3.5638e+05
3.5642e+05
3.5663e+05
3.575e+05
3.5755e+05
3.5778e+05
3.5783e+05
3.5806e+05
3.5834e+05
3.589e+05
3.5927e+05
3.5975e+05
3.5979e+05
3.6003e+05
3.6008e+05
3.6032e+05
3.6036e+05
3.606e+05
3.6065e+05
3.6087e+05
3.6091e+05
3.6116e+05
3.6144e+05
3.6149e+05
3.6173e+05
3.6258e+05
3.6263e+05
3.6288e+05
3.6319e+05
3.6348e+05
3.6354e+05
3.6378e+05
3.6407e+05
3.6414e+05
3.6467e+05
3.6497e+05
3.6585e+05
3.6615e+05
3.6668e+05
3.6702e+05
3.6709e+05
3.6733e+05
3.6762e+05
3.6769e+05
3.6791e+05
3.6797e+05
3.6821e+05
3.685e+05
3.6856e+05
3.6878e+05
3.6884e+05
3.6908e+05
3.6914e+05
3.6936e+05
3.6942e+05
3.6965e+05
3.6994e+05
3.7023e+05
3.7052e+05
3.7057e+05
3.7081e+05
3.711e+05
3.7139e+05
3.7148e+05
3.7168e+05
3.7173e+05
3.7196e+05
3.7202e+05
3.7225e+05
3.7254e+05
3.7281e+05
3.7309e+05
3.7337e+05
3.7364e+05
3.7369e+05
3.7394e+05
3.7422e+05
3.7428e+05
3.7451e+05
3.7479e+05
3.7484e+05
3.7509e+05
3.7538e+05
3.7567e+05
3.7571e+05
3.7596e+05
3.7601e+05
3.7625e+05
3.7653e+05
3.7683e+05
3.7704e+05
3.7736e+05
3.7795e+05
3.8173e+05
3.8258e+05
3.8287e+05
3.8293e+05
3.8316e+05
3.8322e+05
3.8346e+05
3.8435e+05
3.8464e+05
3.8494e+05
3.8499e+05
3.8523e+05
3.8553e+05
3.8557e+05
3.8582e+05
3.8589e+05
3.8611e+05
3.8616e+05
3.8641e+05
3.867e+05
3.87e+05
3.873e+05
3.8734e+05
3.8758e+05
3.8788e+05
3.8817e+05
3.8822e+05
3.8846e+05
3.8876e+05
3.8905e+05
3.8919e+05
3.9047e+05
3.9132e+05
3.916e+05
3.9189e+05
3.9217e+05
3.9246e+05
3.9275e+05
3.9304e+05
3.9309e+05
3.9333e+05
3.9363e+05
3.9368e+05
3.9422e+05
3.9451e+05
3.9482e+05
3.9511e+05
3.9541e+05
3.9632e+05
3.9695e+05
3.9745e+05
3.9778e+05
3.9783e+05
3.9807e+05
3.9811e+05
3.9836e+05
3.9866e+05
3.987e+05
3.9893e+05
3.9899e+05
3.9923e+05
3.9945e+05
3.9975e+05
3.9979e+05
4.0006e+05
4.0011e+05
4.0034e+05
4.0039e+05
4.0095e+05
4.0121e+05
4.0155e+05
4.016e+05
4.0186e+05
4.019e+05
4.0212e+05
4.0275e+05
4.0305e+05
4.0309e+05
4.0361e+05
4.0422e+05
4.0453e+05
4.0483e+05
4.0509e+05
4.0539e+05
4.0572e+05
4.0602e+05
4.0632e+05
4.0658e+05
4.0683e+05
4.0715e+05
4.0741e+05
4.0776e+05
4.078e+05
4.0806e+05
4.0835e+05
4.0866e+05
4.0896e+05
4.0926e+05
4.093e+05
4.0955e+05
4.0961e+05
4.1011e+05
4.1043e+05
4.1073e+05
4.11e+05
4.1134e+05
4.1164e+05
4.1195e+05
4.1225e+05
4.1255e+05
4.1285e+05
4.1342e+05
4.1376e+05
4.1406e+05
4.1437e+05
4.1467e+05
4.1497e+05
4.1528e+05
4.1585e+05
4.1739e+05
4.1794e+05
4.1916e+05
4.1943e+05
4.1972e+05
4.2059e+05
4.2092e+05
4.2097e+05
4.2116e+05
4.2149e+05
4.2178e+05
4.2183e+05
4.2206e+05
4.2235e+05
4.2259e+05
4.229e+05
4.2323e+05
4.2347e+05
4.2375e+05
4.2404e+05
4.2423e+05
4.2456e+05
4.246e+05
4.2485e+05
4.2509e+05
4.254e+05
4.2567e+05
4.2573e+05
4.2594e+05
4.2599e+05
4.2618e+05
4.2702e+05
4.2736e+05
4.2818e+05
4.2876e+05
4.2904e+05
4.2937e+05
4.2965e+05
4.3023e+05
4.3027e+05
4.3136e+05
4.3223e+05
4.3228e+05
4.3249e+05
4.3308e+05
4.3338e+05
4.3397e+05
4.3457e+05
4.3635e+05
4.3664e+05
4.3695e+05
4.3728e+05
4.3733e+05
4.3785e+05
4.3815e+05
4.3845e+05
4.3907e+05
4.3937e+05
4.3971e+05
4.4118e+05
4.4295e+05
4.4383e+05
4.4416e+05
4.447e+05
4.4503e+05
4.4516e+05
4.4617e+05
4.4621e+05
4.4647e+05
4.4651e+05
4.4703e+05
4.4716e+05
4.4777e+05
4.4812e+05
4.4817e+05
4.4837e+05
4.4896e+05
4.4929e+05
4.4954e+05
4.4984e+05
4.5106e+05
4.5222e+05
4.5348e+05
4.5353e+05
4.5375e+05
4.5406e+05
4.5471e+05
4.5475e+05
4.5502e+05
4.5507e+05
4.6147e+05
4.6151e+05
4.6238e+05
4.6329e+05
4.6334e+05
4.6389e+05
4.6419e+05
4.6448e+05
4.6506e+05
4.6536e+05
4.6566e+05
4.6591e+05
4.6621e+05
4.6656e+05
4.6686e+05
4.6716e+05
4.6745e+05
4.6775e+05
4.6805e+05
4.6833e+05
4.6864e+05
4.6893e+05
4.6922e+05
4.6952e+05
4.6982e+05
4.7011e+05
4.7037e+05
4.7072e+05
4.7192e+05
4.7221e+05
4.7278e+05
4.7312e+05
4.7341e+05
4.7367e+05
4.7402e+05
4.7432e+05
4.7462e+05
4.7648e+05
4.8265e+05
4.8308e+05
4.8459e+05
4.8489e+05
4.8518e+05
4.8548e+05
4.8578e+05
4.8604e+05
4.8668e+05
4.8694e+05
4.8727e+05
4.8758e+05
4.8788e+05
4.8813e+05
4.8852e+05
4.8871e+05
4.8907e+05
4.8927e+05
4.8966e+05
4.8997e+05
4.9028e+05
4.9059e+05
4.9089e+05
4.9117e+05
4.9151e+05
4.9155e+05
4.9174e+05
4.9272e+05
4.9309e+05
4.9341e+05
4.9403e+05
4.9435e+05
4.9466e+05
4.9529e+05
4.9591e+05
4.9623e+05
4.9628e+05
4.9655e+05
4.9686e+05
4.9689e+05
4.9709e+05
4.9746e+05
4.9751e+05
4.979e+05
4.9791e+05
4.9843e+05
4.9875e+05
4.9907e+05
4.991e+05
4.993e+05
4.9967e+05
4.9999e+05
5.0032e+05
5.0064e+05
5.0096e+05
5.0129e+05
5.0161e+05
5.0193e+05
5.0225e+05
5.0256e+05
5.0287e+05
5.0319e+05
5.0322e+05
5.0342e+05
5.0379e+05
5.0413e+05
5.0444e+05
5.0476e+05
5.0509e+05
5.0541e+05
5.0572e+05
5.0603e+05
5.0634e+05
5.0665e+05
5.0696e+05
5.0699e+05
5.0718e+05
5.0754e+05
5.0785e+05
5.0816e+05
5.0847e+05
5.085e+05
5.0869e+05
5.0903e+05
5.0934e+05
5.0965e+05
5.0995e+05
5.0998e+05
5.1018e+05
5.1052e+05
5.1083e+05
5.1114e+05
5.1145e+05
5.1175e+05
5.1205e+05
5.1235e+05
5.1237e+05
5.1257e+05
5.1293e+05
5.1297e+05
5.1324e+05
5.1354e+05
5.1357e+05
5.1378e+05
5.1412e+05
5.1444e+05
5.1474e+05
5.1478e+05
5.1497e+05
5.1533e+05
5.1537e+05
5.1564e+05
5.1596e+05
5.1627e+05
5.1657e+05
5.1689e+05
5.172e+05
5.1724e+05
5.1749e+05
5.1781e+05
5.1811e+05
5.1842e+05
5.1874e+05
5.1905e+05
5.1936e+05
5.1967e+05
5.1998e+05
5.203e+05
5.2061e+05
5.2092e+05
5.2123e+05
5.2154e+05
5.2186e+05
5.2218e+05
5.2249e+05
5.2281e+05
5.2313e+05
5.2343e+05
5.2374e+05
5.2406e+05
5.2436e+05
5.2467e+05
5.2498e+05
5.2529e+05
5.256e+05
5.259e+05
5.2621e+05
5.2652e+05
5.2682e+05
5.2713e+05
5.2745e+05
5.2776e+05
5.2806e+05
5.2836e+05
5.2868e+05
5.2898e+05
5.2927e+05
5.2932e+05
5.2958e+05
5.2988e+05
5.3018e+05
5.3048e+05
5.3079e+05
5.3109e+05
5.3139e+05
5.317e+05
5.3188e+05
5.3229e+05
5.3234e+05
5.326e+05
5.329e+05
5.332e+05
5.335e+05
5.338e+05
5.341e+05
5.344e+05
5.3471e+05
5.3501e+05
5.3531e+05
5.3562e+05
5.3593e+05
5.3623e+05
5.3654e+05
5.3685e+05
5.3716e+05
5.3746e+05
5.3777e+05
5.3782e+05
5.3808e+05
5.3838e+05
5.3869e+05
5.39e+05
5.3931e+05
5.3936e+05
5.3962e+05
5.3993e+05
5.4025e+05
5.4057e+05
5.4088e+05
5.4119e+05
5.415e+05
5.4155e+05
5.4181e+05
5.4212e+05
5.4217e+05
5.4243e+05
5.4275e+05
5.4279e+05
5.4306e+05
5.4337e+05
5.4368e+05
5.4399e+05
5.443e+05
5.4461e+05
5.4492e+05
5.4523e+05
5.4554e+05
5.4584e+05
5.4614e+05
5.4646e+05
5.4676e+05
5.4707e+05
5.4737e+05
5.4768e+05
5.4798e+05
5.4829e+05
5.4834e+05
5.4859e+05
5.489e+05
5.492e+05
5.495e+05
5.4956e+05
5.4981e+05
5.5002e+05
5.5035e+05
5.5039e+05
5.5066e+05
5.5096e+05
5.5127e+05
5.5158e+05
5.5187e+05
5.6212e+05
5.641e+05
5.6442e+05
5.6447e+05
5.6471e+05
5.6484e+05
5.6531e+05
5.6544e+05
5.6591e+05
5.6596e+05
5.6683e+05
5.6714e+05
5.6745e+05
5.6775e+05
5.678e+05
5.6806e+05
5.6836e+05
5.6866e+05
5.6897e+05
5.6927e+05
5.6958e+05
5.702e+05
5.7052e+05
5.7114e+05
5.7134e+05
5.7299e+05
5.7303e+05
5.736e+05
5.7421e+05
5.7514e+05
5.7639e+05
5.7731e+05
5.7922e+05
5.7984e+05
5.8018e+05
5.8045e+05
5.8069e+05
5.8127e+05
5.8158e+05
5.8162e+05
5.8221e+05
5.8243e+05
5.8277e+05
5.83e+05
5.8338e+05
5.8358e+05
5.8386e+05
5.8394e+05
5.8411e+05
5.8451e+05
5.8472e+05
5.8497e+05
5.8503e+05
5.8525e+05
5.855e+05
5.8577e+05
5.8585e+05
5.8604e+05
5.8608e+05
5.8629e+05
5.8635e+05
5.8655e+05
5.8661e+05
5.8682e+05
5.8685e+05
5.8707e+05
5.8712e+05
5.8734e+05
5.8737e+05
5.8758e+05
5.8766e+05
5.8789e+05
5.8809e+05
5.8813e+05
5.8834e+05
5.8862e+05
5.8884e+05
5.8906e+05
5.8912e+05
5.8937e+05
5.8964e+05
5.8966e+05
5.8983e+05
5.9105e+05
5.9126e+05
5.9129e+05
5.9322e+05
5.9327e+05
5.9592e+05
5.9617e+05
5.9637e+05
5.9644e+05
5.9662e+05
5.9668e+05
5.971e+05
5.9735e+05
5.9739e+05
5.9759e+05
5.9809e+05
5.9813e+05
5.9832e+05
5.9836e+05
5.9857e+05
5.9862e+05
5.9881e+05
5.9905e+05
5.9908e+05
5.993e+05
5.9933e+05
5.9949e+05
5.9952e+05
5.9977e+05
5.9981e+05
6.0006e+05
6.0026e+05
6.0055e+05
6.008e+05
6.01e+05
6.0106e+05
6.0125e+05
6.015e+05
6.0155e+05
6.0174e+05
6.0179e+05
6.0199e+05
6.0224e+05
6.0228e+05
6.0254e+05
6.0274e+05
6.028e+05
6.0299e+05
6.0324e+05
6.0329e+05
6.0353e+05
6.0373e+05
6.0379e+05
6.0397e+05
6.0398e+05
6.0425e+05
6.043e+05
6.0449e+05
6.0454e+05
6.0474e+05
6.05e+05
6.0504e+05
6.0524e+05
6.0531e+05
6.0551e+05
6.0557e+05
6.0576e+05
6.0601e+05
6.0606e+05
6.0626e+05
6.063e+05
6.0651e+05
6.0655e+05
6.0676e+05
6.0681e+05
6.0701e+05
6.0706e+05
6.0727e+05
6.0731e+05
6.0752e+05
6.0756e+05
6.0777e+05
6.0781e+05
6.0802e+05
6.0807e+05
6.0828e+05
6.0833e+05
6.0854e+05
6.0856e+05
6.0879e+05
6.0886e+05
6.0908e+05
6.0931e+05
6.0937e+05
6.0955e+05
6.0959e+05
6.0981e+05
6.0986e+05
6.1005e+05
6.1031e+05
6.1037e+05
6.1057e+05
6.106e+05
6.1081e+05
6.1087e+05
6.1108e+05
6.1112e+05
6.1133e+05
6.1138e+05
6.1158e+05
6.1165e+05
6.1184e+05
6.1189e+05
6.1209e+05
6.1211e+05
6.1228e+05
6.127e+05
6.1276e+05
6.1297e+05
6.1302e+05
6.1323e+05
6.133e+05
6.1349e+05
6.1375e+05
6.1377e+05
6.1398e+05
6.1406e+05
6.1425e+05
6.1451e+05
6.1455e+05
6.1476e+05
6.1481e+05
6.1501e+05
6.1504e+05
6.152e+05
6.1525e+05
6.1547e+05
6.1573e+05
6.1576e+05
6.1598e+05
6.1604e+05
6.1624e+05
6.1627e+05
6.1643e+05
6.1672e+05
6.1677e+05
6.1698e+05
6.1701e+05
6.1723e+05
6.1749e+05
6.1774e+05
6.1778e+05
6.1799e+05
6.1805e+05
6.1825e+05
6.183e+05
6.185e+05
6.1876e+05
6.1881e+05
6.1902e+05
6.1906e+05
6.1927e+05
6.1956e+05
6.1978e+05
6.1983e+05
6.2002e+05
6.2033e+05
6.2053e+05
6.2058e+05
6.2078e+05
6.2082e+05
6.2103e+05
6.2109e+05
6.2128e+05
6.2132e+05
6.2158e+05
6.2183e+05
6.2203e+05
6.2204e+05
6.2229e+05
6.2237e+05
6.2254e+05
6.2259e+05
6.2278e+05
6.2284e+05
6.2303e+05
6.2328e+05
6.2333e+05
6.2353e+05
6.236e+05
6.2377e+05
6.2381e+05
6.2402e+05
6.2405e+05
6.242e+05
6.2449e+05
6.2475e+05
6.248e+05
6.2498e+05
6.25e+05
6.2526e+05
6.2529e+05
6.2551e+05
6.2554e+05
6.2576e+05
6.258e+05
6.2602e+05
6.2607e+05
6.2628e+05
6.2631e+05
6.2655e+05
6.2659e+05
6.2679e+05
6.2682e+05
6.2705e+05
6.273e+05
6.2733e+05
6.2749e+05
6.2767e+05
6.277e+05
6.2792e+05
6.2818e+05
6.2822e+05
6.2843e+05
6.2849e+05
6.2868e+05
6.2875e+05
6.2894e+05
6.29e+05
6.2919e+05
6.2923e+05
6.2945e+05
6.2948e+05
6.2969e+05
6.2973e+05
6.2995e+05
6.2999e+05
6.302e+05
6.3023e+05
6.3045e+05
6.3052e+05
6.3071e+05
6.3077e+05
6.3096e+05
6.3101e+05
6.3121e+05
6.3125e+05
6.3146e+05
6.3153e+05
6.3171e+05
6.3179e+05
6.3197e+05
6.3202e+05
6.3222e+05
6.3227e+05
6.3247e+05
6.3251e+05
6.3273e+05
6.3278e+05
6.3298e+05
6.3304e+05
6.3324e+05
6.3329e+05
6.3349e+05
6.3375e+05
6.338e+05
6.34e+05
6.3405e+05
6.3426e+05
6.3432e+05
6.3451e+05
6.3456e+05
6.3478e+05
6.3483e+05
6.3503e+05
6.351e+05
6.3529e+05
6.3534e+05
6.3554e+05
6.3581e+05
6.3586e+05
6.3607e+05
6.3611e+05
6.3632e+05
6.3638e+05
6.3659e+05
6.3662e+05
6.3685e+05
6.3689e+05
6.3711e+05
6.3715e+05
6.3736e+05
6.3739e+05
6.3756e+05
6.3798e+05
6.3804e+05
6.3825e+05
6.3829e+05
6.385e+05
6.3854e+05
6.3876e+05
6.3881e+05
6.3902e+05
6.3906e+05
6.3927e+05
6.3929e+05
6.3947e+05
6.3951e+05
6.3975e+05
6.3981e+05
6.4001e+05
6.4006e+05
6.4026e+05
6.403e+05
6.407e+05
6.4099e+05
6.4106e+05
6.4125e+05
6.413e+05
6.4175e+05
6.42e+05
6.4203e+05
6.4224e+05
6.423e+05
6.4251e+05
6.4256e+05
6.4277e+05
6.4302e+05
6.4309e+05
6.4326e+05
6.4352e+05
6.4359e+05
6.4379e+05
6.4386e+05
6.4403e+05
6.441e+05
6.443e+05
6.4436e+05
6.4456e+05
6.4462e+05
6.448e+05
6.4485e+05
6.4506e+05
6.4532e+05
6.4539e+05
6.4559e+05
6.4562e+05
6.4584e+05
6.4588e+05
6.461e+05
6.4614e+05
6.4636e+05
6.4662e+05
6.4665e+05
6.4688e+05
6.4692e+05
6.4714e+05
6.4721e+05
6.4739e+05
6.4741e+05
6.476e+05
6.4766e+05
6.4788e+05
6.4795e+05
6.4814e+05
6.4819e+05
6.484e+05
6.4845e+05
6.4867e+05
6.487e+05
6.4887e+05
6.493e+05
6.4951e+05
