252
929
1259
1594
1917
2236
2907
3243
3559
3866
4201
4855
5184
5497
5824
6153
6464
6808
7142
7453
8130
8295
8811
9481
10144
10818
11021
11497
11808
12133
12448
12749
12958
13415
14072
14740
15398
15715
16026
16346
16665
17343
17665
18341
18671
18874
19355
20056
20380
21054
21714
22362
22690
23007
23326
23667
23997
24345
24690
25011
25704
26019
26349
26674
26990
27310
27639
28322
28665
29000
29318
29649
30337
31015
31183
31680
32008
32318
32645
32969
33285
33611
33945
34270
34597
34937
35279
35609
35955
36296
36625
36968
37297
37624
37969
38296
38614
38959
39283
39600
39927
40242
40570
40896
41221
41551
41881
42546
42871
43194
43506
43826
44149
44459
44780
45442
45774
46106
46426
46756
47074
47748
48411
48620
49101
49436
49751
50421
50741
51413
51734
52059
52379
52693
53359
53696
54025
54340
54668
54989
55313
55641
55962
56281
56614
56929
57603
57917
58575
58887
59545
60209
60518
61158
61463
61789
62117
62434
62639
63144
63461
64162
64511
65200
65533
66202
66534
66735
67213
67886
68211
68866
69067
69536
70202
70881
71548
72216
72548
72872
73195
73536
73864
74548
74710
75230
75559
75879
76563
76729
77237
77401
77908
78238
78552
78884
79217
79534
79866
80207
80540
80914
81230
81577
82248
82587
82904
83582
83746
84255
84578
84883
85585
85718
86224
86535
87253
87517
88237
88517
88724
89192
89471
89948
90208
90936
91231
91605
91864
92206
92918
93262
93538
93918
94185
94433
94861
95245
95509
95826
96860
97160
97816
98066
98484
98727
2.3972e+05
2.534e+05
2.5602e+05
2.9819e+05
2.9885e+05
2.9952e+05
3.0083e+05
3.0189e+05
3.0351e+05
3.0383e+05
3.0447e+05
3.048e+05
3.0512e+05
3.0547e+05
3.0612e+05
3.0646e+05
3.0679e+05
3.0712e+05
3.0745e+05
3.0776e+05
3.0842e+05
3.0876e+05
3.0909e+05
3.0975e+05
3.1071e+05
3.1102e+05
3.1196e+05
3.1229e+05
3.126e+05
3.1324e+05
3.136e+05
3.1491e+05
3.1524e+05
3.1588e+05
3.1621e+05
3.1684e+05
3.1717e+05
3.175e+05
3.1782e+05
3.1815e+05
3.1879e+05
3.1982e+05
3.2015e+05
3.2078e+05
3.2116e+05
3.2214e+05
3.2246e+05
3.2279e+05
3.2312e+05
3.2344e+05
3.241e+05
3.248e+05
3.2544e+05
3.2608e+05
3.2643e+05
3.2739e+05
3.284e+05
3.286e+05
3.2905e+05
3.2973e+05
3.3005e+05
3.3039e+05
3.3136e+05
3.3168e+05
3.3234e+05
3.3328e+05
3.3362e+05
3.3591e+05
3.3625e+05
3.3655e+05
3.369e+05
3.3723e+05
3.3855e+05
3.3923e+05
3.3956e+05
3.3989e+05
3.4022e+05
3.4218e+05
3.4254e+05
3.4317e+05
3.4415e+05
3.4448e+05
3.4514e+05
3.4939e+05
3.5131e+05
3.5196e+05
3.5363e+05
3.5494e+05
3.5722e+05
3.5755e+05
3.6018e+05
3.6085e+05
3.631e+05
3.6502e+05
3.6535e+05
3.6633e+05
3.6925e+05
3.7025e+05
3.7127e+05
3.791e+05
3.8006e+05
5.093e+05
5.1034e+05
5.1166e+05
5.1234e+05
5.13e+05
5.1438e+05
5.154e+05
5.1913e+05
5.1985e+05
5.5931e+05
5.5983e+05
5.6112e+05
5.6423e+05
5.6583e+05
5.6711e+05
5.6776e+05
5.6992e+05
5.7094e+05
5.7272e+05
5.7301e+05
5.7551e+05
5.8574e+05
5.8717e+05
5.8837e+05
5.8901e+05
5.8939e+05
5.9165e+05
5.9366e+05
5.9638e+05
5.9668e+05
5.9739e+05
5.9768e+05
5.9833e+05
5.9865e+05
6.0004e+05
6.0186e+05
6.0259e+05
6.0363e+05
6.0562e+05
6.0664e+05
6.0694e+05
6.0757e+05
6.0853e+05
6.0885e+05
6.1085e+05
6.1154e+05
6.1184e+05
6.1319e+05
6.1447e+05
6.1828e+05
6.1861e+05
6.2102e+05
6.2139e+05
6.2241e+05
6.2277e+05
6.238e+05
6.2512e+05
6.2547e+05
6.2717e+05
6.2952e+05
6.3356e+05
6.3424e+05
6.355e+05
6.3582e+05
6.3613e+05
6.3644e+05
6.3707e+05
6.3738e+05
6.3803e+05
6.4203e+05
6.4374e+05
6.4514e+05
6.4615e+05
6.4744e+05
6.4775e+05
6.4938e+05
-1
360
602
1088
1430
1760
2073
2356
2585
3072
3404
3721
4036
4298
4545
5021
5346
5662
5990
6316
6633
6973
7305
7554
7805
8481
8911
9146
9642
9833
10313
10504
10926
11171
11660
11977
12294
12609
12851
13094
13513
13756
14170
14420
14834
15077
15568
15875
16192
16515
16767
17006
17504
17773
18008
18501
18779
19022
19520
19715
20218
20475
20724
21154
21393
21879
22064
22525
22852
23171
23491
23829
24163
24518
24855
25109
25369
25870
26181
26510
26837
27157
27475
27739
27985
28487
28826
29163
29482
29816
30008
30442
30680
31355
31841
32170
32486
32807
33131
33456
33775
34106
34439
34762
35104
35446
35773
36130
36462
36789
37137
37464
37795
38135
38460
38790
39123
39444
39768
40093
40409
40737
41062
41391
41716
41980
42221
42645
42709
43037
43360
43670
43990
44312
44629
44896
45125
45945
46269
46588
46925
47181
47422
47863
48086
48515
48793
49262
49599
49857
50096
50584
50842
51086
51509
51577
51895
52225
52545
52795
53038
53522
53864
54190
54502
54839
55157
55471
55805
56127
56448
56778
57034
57270
57768
58003
58258
58739
58986
59239
59642
59888
60618
60851
61320
61625
61956
62280
62532
62796
63307
63570
63819
64263
64328
64614
64863
65299
65628
65876
66303
66642
66879
67312
67561
67984
68312
68555
68983
69213
69628
69886
70364
70576
70992
71221
71644
71896
72383
72716
73037
73359
73701
73968
74206
74898
75397
75723
75971
76234
76903
77581
78075
78438
78714
79092
79383
79702
80076
80372
80754
81052
81440
81689
81925
82417
82748
83004
83254
83920
84421
84742
84992
85236
85899
86389
86660
86886
87368
87624
87867
88356
88617
88866
89361
89720
90061
90324
90560
91054
91393
91714
92031
92687
93039
93373
93704
94069
94559
95110
95394
95677
96071
96501
96993
97418
97659
97982
98331
98822
1.0014e+05
1.0278e+05
1.0865e+05
1.106e+05
1.1257e+05
1.1323e+05
1.1805e+05
1.1903e+05
1.2e+05
1.2192e+05
1.2287e+05
1.302e+05
1.3379e+05
1.3475e+05
1.3571e+05
1.3766e+05
1.394e+05
1.3972e+05
1.4004e+05
1.4037e+05
1.4069e+05
1.4103e+05
1.4135e+05
1.4167e+05
1.4196e+05
1.4219e+05
1.4268e+05
1.4302e+05
1.4334e+05
1.4364e+05
1.4397e+05
1.4428e+05
1.4461e+05
1.4493e+05
1.4524e+05
1.4557e+05
1.459e+05
1.4621e+05
1.4653e+05
1.4686e+05
1.4718e+05
1.4751e+05
1.4783e+05
1.4816e+05
1.4847e+05
1.488e+05
1.4911e+05
1.4942e+05
1.4976e+05
1.5008e+05
1.5039e+05
1.5071e+05
1.5104e+05
1.5134e+05
1.5159e+05
1.5184e+05
1.5231e+05
1.5265e+05
1.5297e+05
1.5327e+05
1.5353e+05
1.5378e+05
1.5427e+05
1.546e+05
1.5491e+05
1.5523e+05
1.5556e+05
1.5588e+05
1.5621e+05
1.5655e+05
1.5681e+05
1.5705e+05
1.5754e+05
1.5781e+05
1.5805e+05
1.5854e+05
1.5886e+05
1.5954e+05
1.598e+05
1.6003e+05
1.6051e+05
1.6079e+05
1.61e+05
1.6141e+05
1.6165e+05
1.627e+05
1.6293e+05
1.6342e+05
1.6373e+05
1.6406e+05
1.644e+05
1.6472e+05
1.6504e+05
1.6537e+05
1.6588e+05
1.6654e+05
1.6738e+05
1.6762e+05
1.6787e+05
1.6854e+05
1.6921e+05
1.697e+05
1.7115e+05
1.7262e+05
1.7313e+05
1.7362e+05
1.746e+05
1.7494e+05
1.7558e+05
1.7591e+05
1.7623e+05
1.7656e+05
1.7689e+05
1.7722e+05
1.7754e+05
1.7787e+05
1.7819e+05
1.7851e+05
1.7883e+05
1.7948e+05
1.7981e+05
1.8044e+05
1.8077e+05
1.814e+05
1.8172e+05
1.8236e+05
1.8268e+05
1.8301e+05
1.8333e+05
1.8366e+05
1.8398e+05
1.843e+05
1.8464e+05
1.8496e+05
1.8528e+05
1.8593e+05
1.8625e+05
1.8658e+05
1.8689e+05
1.8721e+05
1.8819e+05
1.8869e+05
1.8918e+05
1.8966e+05
1.9015e+05
1.9063e+05
1.9111e+05
1.9144e+05
1.9176e+05
1.9208e+05
1.924e+05
1.9273e+05
1.9305e+05
1.9338e+05
1.937e+05
1.9402e+05
1.9433e+05
1.9464e+05
1.9495e+05
1.9527e+05
1.9558e+05
1.9589e+05
1.9615e+05
1.964e+05
1.9689e+05
1.9722e+05
1.9787e+05
1.9813e+05
1.9888e+05
1.9921e+05
1.9954e+05
1.9986e+05
2.0028e+05
2.0088e+05
2.0137e+05
2.0187e+05
2.0213e+05
2.0237e+05
2.0466e+05
2.0767e+05
2.1035e+05
2.1329e+05
2.1587e+05
2.1688e+05
2.2603e+05
2.3892e+05
2.3925e+05
2.3958e+05
2.399e+05
2.4023e+05
2.4057e+05
2.4082e+05
2.4107e+05
2.4157e+05
2.4184e+05
2.4208e+05
2.4257e+05
2.4284e+05
2.4307e+05
2.4356e+05
2.4387e+05
2.442e+05
2.4453e+05
2.4479e+05
2.4501e+05
2.4551e+05
2.4579e+05
2.4601e+05
2.465e+05
2.4682e+05
2.4714e+05
2.4745e+05
2.477e+05
2.4795e+05
2.4844e+05
2.4871e+05
2.4894e+05
2.4943e+05
2.4976e+05
2.5008e+05
2.5039e+05
2.5071e+05
2.5103e+05
2.5135e+05
2.5166e+05
2.5199e+05
2.5231e+05
2.5264e+05
2.5296e+05
2.5327e+05
2.5359e+05
2.5392e+05
2.5424e+05
2.5455e+05
2.5482e+05
2.5506e+05
2.5555e+05
2.5588e+05
2.562e+05
2.5653e+05
2.568e+05
2.5703e+05
2.5753e+05
2.5787e+05
2.5818e+05
2.5849e+05
2.5875e+05
2.5898e+05
2.5947e+05
2.598e+05
2.6012e+05
2.6044e+05
2.6072e+05
2.6094e+05
2.6144e+05
2.6211e+05
2.6243e+05
2.6304e+05
2.6328e+05
2.6377e+05
2.6402e+05
2.6427e+05
2.6503e+05
2.6527e+05
2.6574e+05
2.6596e+05
2.6678e+05
2.6711e+05
2.6745e+05
2.677e+05
2.6795e+05
2.6862e+05
2.6968e+05
2.6993e+05
2.7059e+05
2.7109e+05
2.7173e+05
2.7206e+05
2.7264e+05
2.7289e+05
2.7365e+05
2.7389e+05
2.7462e+05
2.7487e+05
2.7586e+05
2.7632e+05
2.7654e+05
2.7721e+05
2.7832e+05
2.785e+05
2.7932e+05
2.7999e+05
2.8025e+05
2.805e+05
2.8099e+05
2.8125e+05
2.8149e+05
2.8197e+05
2.8224e+05
2.8247e+05
2.8314e+05
2.8379e+05
2.8428e+05
2.8496e+05
2.853e+05
2.8562e+05
2.8594e+05
2.8622e+05
2.8645e+05
2.8695e+05
2.8728e+05
2.8761e+05
2.8793e+05
2.8827e+05
2.8859e+05
2.8891e+05
2.8924e+05
2.8957e+05
2.8989e+05
2.9022e+05
2.9053e+05
2.9085e+05
2.9119e+05
2.9149e+05
2.9181e+05
2.9214e+05
2.9246e+05
2.9277e+05
2.931e+05
2.9341e+05
2.9374e+05
2.9399e+05
2.9424e+05
2.9473e+05
2.9506e+05
2.9538e+05
2.957e+05
2.9603e+05
2.963e+05
2.9654e+05
2.9696e+05
2.9721e+05
2.9804e+05
2.983e+05
2.9854e+05
2.9898e+05
2.9922e+05
2.9971e+05
3.0005e+05
3.0031e+05
3.0055e+05
3.0104e+05
3.0133e+05
3.0156e+05
3.0199e+05
3.0223e+05
3.0273e+05
3.0305e+05
3.0336e+05
3.0368e+05
3.0399e+05
3.0431e+05
3.0464e+05
3.0497e+05
3.0529e+05
3.0563e+05
3.0596e+05
3.0629e+05
3.0663e+05
3.0695e+05
3.0728e+05
3.0761e+05
3.0787e+05
3.0812e+05
3.0861e+05
3.0893e+05
3.0926e+05
3.0959e+05
3.0992e+05
3.1023e+05
3.1056e+05
3.1087e+05
3.1119e+05
3.115e+05
3.1181e+05
3.1213e+05
3.1246e+05
3.1271e+05
3.1295e+05
3.1344e+05
3.1371e+05
3.1394e+05
3.1444e+05
3.1475e+05
3.1508e+05
3.1541e+05
3.1571e+05
3.1605e+05
3.1638e+05
3.1668e+05
3.1701e+05
3.1734e+05
3.1767e+05
3.1799e+05
3.1825e+05
3.185e+05
3.19e+05
3.1933e+05
3.1967e+05
3.1998e+05
3.2025e+05
3.205e+05
3.2098e+05
3.2133e+05
3.2166e+05
3.2197e+05
3.2231e+05
3.2263e+05
3.2296e+05
3.2329e+05
3.2354e+05
3.2379e+05
3.2423e+05
3.2447e+05
3.2496e+05
3.2529e+05
3.2556e+05
3.2579e+05
3.2628e+05
3.2661e+05
3.2687e+05
3.2711e+05
3.2759e+05
3.2792e+05
3.2825e+05
3.2856e+05
3.2875e+05
3.2925e+05
3.2957e+05
3.2989e+05
3.3022e+05
3.3055e+05
3.3087e+05
3.312e+05
3.3153e+05
3.3179e+05
3.3204e+05
3.3252e+05
3.3284e+05
3.3315e+05
3.3347e+05
3.3379e+05
3.341e+05
3.3442e+05
3.346e+05
3.3509e+05
3.3543e+05
3.3576e+05
3.3608e+05
3.3642e+05
3.3675e+05
3.3706e+05
3.374e+05
3.3773e+05
3.3805e+05
3.3839e+05
3.3872e+05
3.3905e+05
3.3939e+05
3.3972e+05
3.4006e+05
3.4039e+05
3.4066e+05
3.4089e+05
3.4138e+05
3.4164e+05
3.4189e+05
3.4237e+05
3.4265e+05
3.4288e+05
3.4336e+05
3.4368e+05
3.4386e+05
3.4436e+05
3.4463e+05
3.4486e+05
3.4535e+05
3.4561e+05
3.4585e+05
3.4659e+05
3.4681e+05
3.4821e+05
3.4845e+05
3.4911e+05
3.4959e+05
3.5053e+05
3.5079e+05
3.5103e+05
3.5151e+05
3.5184e+05
3.5216e+05
3.5265e+05
3.5333e+05
3.5382e+05
3.5464e+05
3.5507e+05
3.553e+05
3.5642e+05
3.5739e+05
3.5772e+05
3.5822e+05
3.5892e+05
3.6037e+05
3.6102e+05
3.6134e+05
3.6199e+05
3.623e+05
3.6326e+05
3.6423e+05
3.6523e+05
3.6552e+05
3.6616e+05
3.6644e+05
3.6667e+05
3.6895e+05
3.6949e+05
3.7041e+05
3.7148e+05
3.7436e+05
3.7618e+05
3.7685e+05
3.7832e+05
3.7927e+05
3.8023e+05
3.8312e+05
3.9164e+05
3.9752e+05
3.9784e+05
3.981e+05
3.9835e+05
3.9988e+05
4.0087e+05
4.0226e+05
4.0433e+05
4.0979e+05
4.1045e+05
4.1514e+05
4.1637e+05
4.1696e+05
4.1757e+05
4.2116e+05
4.2213e+05
4.2494e+05
4.2743e+05
4.3405e+05
4.3444e+05
4.3472e+05
4.3499e+05
4.3517e+05
4.3574e+05
4.363e+05
4.3769e+05
4.3796e+05
4.3824e+05
4.3845e+05
4.3868e+05
4.391e+05
4.3939e+05
4.3957e+05
4.4004e+05
4.403e+05
4.4053e+05
4.4106e+05
4.4141e+05
4.4158e+05
4.4161e+05
4.4212e+05
4.4246e+05
4.428e+05
4.4314e+05
4.4341e+05
4.4365e+05
4.4411e+05
4.4436e+05
4.4479e+05
4.4502e+05
4.4548e+05
4.4571e+05
4.462e+05
4.4652e+05
4.4683e+05
4.4716e+05
4.474e+05
4.4766e+05
4.4814e+05
4.4842e+05
4.4865e+05
4.4908e+05
4.4932e+05
4.5029e+05
4.5109e+05
4.516e+05
4.5225e+05
4.5291e+05
4.5425e+05
4.556e+05
4.5628e+05
4.5728e+05
4.5795e+05
4.5896e+05
4.5947e+05
4.5998e+05
4.6098e+05
4.6263e+05
4.6326e+05
4.6519e+05
4.6592e+05
4.6735e+05
4.6806e+05
4.6873e+05
4.694e+05
4.7072e+05
4.7139e+05
4.7291e+05
4.7342e+05
4.7393e+05
4.7421e+05
4.7446e+05
4.7496e+05
4.753e+05
4.7559e+05
4.7582e+05
4.7625e+05
4.7649e+05
4.7716e+05
4.7767e+05
4.7801e+05
4.7853e+05
4.7897e+05
4.7919e+05
4.7989e+05
4.8058e+05
4.8125e+05
4.8191e+05
4.8259e+05
4.8929e+05
4.9001e+05
4.9069e+05
4.9232e+05
4.9653e+05
4.9677e+05
4.972e+05
4.9745e+05
4.9788e+05
4.9812e+05
4.9856e+05
4.9879e+05
4.9928e+05
4.9956e+05
4.9977e+05
5.0018e+05
5.0041e+05
5.0116e+05
5.0145e+05
5.0163e+05
5.0202e+05
5.0226e+05
5.027e+05
5.03e+05
5.0318e+05
5.0365e+05
5.0391e+05
5.0414e+05
5.0458e+05
5.0481e+05
5.0525e+05
5.0547e+05
5.0595e+05
5.0618e+05
5.0671e+05
5.0701e+05
5.0725e+05
5.0775e+05
5.0805e+05
5.0828e+05
5.0873e+05
5.0897e+05
5.0948e+05
5.0976e+05
5.1001e+05
5.1084e+05
5.1117e+05
5.1135e+05
5.1178e+05
5.1203e+05
5.1254e+05
5.1287e+05
5.1313e+05
5.1338e+05
5.1407e+05
5.1457e+05
5.1484e+05
5.1509e+05
5.1559e+05
5.1593e+05
5.1626e+05
5.1653e+05
5.1678e+05
5.1728e+05
5.1762e+05
5.1797e+05
5.183e+05
5.1858e+05
5.1882e+05
5.1926e+05
5.1951e+05
5.2001e+05
5.2028e+05
5.2052e+05
5.21e+05
5.2133e+05
5.2158e+05
5.2182e+05
5.2225e+05
5.2248e+05
5.2288e+05
5.2324e+05
5.2342e+05
5.2381e+05
5.2405e+05
5.2452e+05
5.2484e+05
5.251e+05
5.2534e+05
5.2578e+05
5.2603e+05
5.2648e+05
5.2671e+05
5.272e+05
5.2747e+05
5.277e+05
5.2817e+05
5.2843e+05
5.2867e+05
5.2913e+05
5.294e+05
5.2963e+05
5.3006e+05
5.3037e+05
5.3061e+05
5.3103e+05
5.3135e+05
5.3158e+05
5.3199e+05
5.3223e+05
5.3265e+05
5.3288e+05
5.3335e+05
5.3366e+05
5.3397e+05
5.3429e+05
5.3462e+05
5.3481e+05
5.3525e+05
5.355e+05
5.3595e+05
5.3619e+05
5.3687e+05
5.3736e+05
5.3756e+05
5.3796e+05
5.382e+05
5.3862e+05
5.3887e+05
5.3934e+05
5.3965e+05
5.3996e+05
5.4027e+05
5.4059e+05
5.4091e+05
5.4123e+05
5.4158e+05
5.4192e+05
5.4226e+05
5.4261e+05
5.4296e+05
5.4331e+05
5.4367e+05
5.4401e+05
5.4436e+05
5.4471e+05
5.4504e+05
5.4538e+05
5.4573e+05
5.4603e+05
5.4625e+05
5.4672e+05
5.4697e+05
5.4747e+05
5.4767e+05
5.4816e+05
5.4835e+05
5.4884e+05
5.4902e+05
5.4944e+05
5.495e+05
5.4976e+05
5.5e+05
5.5047e+05
5.5078e+05
5.5105e+05
5.5129e+05
5.5167e+05
5.5192e+05
5.5233e+05
5.5254e+05
5.5338e+05
5.5375e+05
5.5479e+05
5.5505e+05
5.5587e+05
5.5604e+05
5.5643e+05
5.57e+05
5.5727e+05
5.5748e+05
5.5773e+05
5.5812e+05
5.5833e+05
5.5872e+05
5.5901e+05
5.5949e+05
5.5997e+05
5.6025e+05
5.6051e+05
5.6075e+05
5.6129e+05
5.616e+05
5.6195e+05
5.6222e+05
5.6245e+05
5.6303e+05
5.6333e+05
5.6362e+05
5.6385e+05
5.6437e+05
5.6474e+05
5.6513e+05
5.6574e+05
5.6611e+05
5.6638e+05
5.6673e+05
5.6742e+05
5.6789e+05
5.6827e+05
5.6852e+05
5.688e+05
5.6932e+05
5.6984e+05
5.701e+05
5.7042e+05
5.7124e+05
5.7171e+05
5.7196e+05
5.7289e+05
5.7319e+05
5.7348e+05
5.7371e+05
5.7429e+05
5.7448e+05
5.7518e+05
5.7547e+05
5.7578e+05
5.7615e+05
5.7644e+05
5.7675e+05
5.7728e+05
5.7796e+05
5.7818e+05
5.7898e+05
5.7927e+05
5.7969e+05
5.8028e+05
5.8206e+05
5.8493e+05
5.8593e+05
5.8621e+05
5.8685e+05
5.8731e+05
5.8768e+05
5.8828e+05
5.8849e+05
5.8893e+05
5.8923e+05
5.8962e+05
5.8989e+05
5.9049e+05
5.9082e+05
5.9153e+05
5.9183e+05
5.9247e+05
5.928e+05
5.9328e+05
5.9388e+05
5.9417e+05
5.9446e+05
5.9491e+05
5.9535e+05
5.9578e+05
5.9604e+05
5.9654e+05
5.9681e+05
5.9706e+05
5.9755e+05
5.9786e+05
5.9819e+05
5.9852e+05
5.9885e+05
5.9919e+05
5.9939e+05
5.9991e+05
6.0025e+05
6.0061e+05
6.0095e+05
6.0125e+05
6.0148e+05
6.0197e+05
6.0221e+05
6.0276e+05
6.0303e+05
6.0326e+05
6.0379e+05
6.0413e+05
6.0446e+05
6.0479e+05
6.0512e+05
6.0531e+05
6.058e+05
6.0607e+05
6.0631e+05
6.0681e+05
6.0713e+05
6.0745e+05
6.0778e+05
6.0808e+05
6.0839e+05
6.0872e+05
6.0904e+05
6.0936e+05
6.0971e+05
6.1004e+05
6.103e+05
6.1054e+05
6.1097e+05
6.1121e+05
6.1171e+05
6.1205e+05
6.1237e+05
6.1263e+05
6.1286e+05
6.1329e+05
6.1352e+05
6.14e+05
6.142e+05
6.1468e+05
6.15e+05
6.1533e+05
6.1553e+05
6.1604e+05
6.1633e+05
6.1656e+05
6.1709e+05
6.1737e+05
6.1761e+05
6.1814e+05
6.1847e+05
6.1881e+05
6.1917e+05
6.195e+05
6.1983e+05
6.2019e+05
6.2054e+05
6.2089e+05
6.2125e+05
6.2159e+05
6.2194e+05
6.2228e+05
6.2263e+05
6.2297e+05
6.233e+05
6.2366e+05
6.24e+05
6.2433e+05
6.2465e+05
6.2499e+05
6.2534e+05
6.2567e+05
6.2601e+05
6.2636e+05
6.2669e+05
6.2703e+05
6.2737e+05
6.277e+05
6.2804e+05
6.2838e+05
6.2871e+05
6.2904e+05
6.2939e+05
6.2972e+05
6.3004e+05
6.3038e+05
6.3073e+05
6.3106e+05
6.3139e+05
6.3172e+05
6.3205e+05
6.3238e+05
6.3271e+05
6.3297e+05
6.3323e+05
6.3366e+05
6.339e+05
6.3475e+05
6.3507e+05
6.3538e+05
6.357e+05
6.3601e+05
6.3632e+05
6.3663e+05
6.3695e+05
6.3727e+05
6.3757e+05
6.379e+05
6.3822e+05
6.3847e+05
6.3873e+05
6.3921e+05
6.3954e+05
6.3987e+05
6.402e+05
6.4105e+05
6.4224e+05
6.4259e+05
6.4327e+05
6.4361e+05
6.4397e+05
6.443e+05
6.4464e+05
6.4499e+05
6.4533e+05
6.4561e+05
6.4585e+05
6.4634e+05
6.4667e+05
6.4699e+05
6.4731e+05
6.4763e+05
6.4794e+05
6.4826e+05
6.4858e+05
6.489e+05
6.4924e+05
6.4957e+05
