123
467
817
1170
1524
1875
2242
2596
2961
3330
3694
4063
4414
4775
5137
5499
5849
6217
6572
6935
7246
7653
8002
8352
8661
9049
9404
9754
10114
10465
10815
11179
11527
11889
12249
12607
12975
13348
13722
14095
14472
14848
15220
15589
15961
16339
16701
17061
17430
17790
18139
18492
18837
19193
19551
19902
20267
20636
21002
21374
21733
22100
22471
22824
23188
23560
23875
24265
24613
24955
25310
25666
26016
26384
26741
27099
27459
27828
28185
28564
28915
29251
29662
30043
30410
30784
31156
31530
31903
32267
32634
33009
33366
33733
34102
34471
34835
35201
35568
35948
36308
36678
37046
37415
37783
38166
38539
38909
39270
39630
39983
40340
40698
41046
41395
41760
42111
42465
42819
43169
43523
43880
44237
44590
44955
45316
45667
46025
46381
46734
47077
47425
47773
48106
48453
48790
49131
49473
49826
50164
50523
50867
51208
51552
51893
52227
52553
52843
53228
53573
53931
54295
54659
55021
55381
55738
56097
56442
56797
57149
57499
57836
58184
58536
58882
59231
59570
59929
60275
60619
60955
61299
61646
61985
62337
62675
63004
63344
63679
64004
64335
64666
64993
65340
65677
66029
66378
66719
67067
67408
67748
68091
68430
68770
69121
69472
69810
70150
70508
70860
71228
71577
71926
72299
72669
73029
73401
73776
74146
74510
74881
75242
75621
75976
76342
76696
77064
77427
77769
78124
78481
78826
79137
79514
79867
80211
80566
80914
81262
81608
81958
82293
82644
82968
83341
83693
83996
84390
84746
85092
85432
85777
86118
86469
86807
87149
87452
87822
88182
88519
88865
89215
89577
89934
90247
90659
91015
91325
92068
92362
92767
93073
93821
94165
94484
94850
95253
95645
95862
96312
96683
97012
97402
97745
98157
98519
98888
1.1842e+05
1.2501e+05
2.9836e+05
2.9873e+05
2.9917e+05
2.999e+05
3.0024e+05
3.0061e+05
3.0143e+05
3.0207e+05
3.0243e+05
3.0281e+05
3.0316e+05
3.0419e+05
3.0463e+05
3.0489e+05
3.0534e+05
3.0562e+05
3.0604e+05
3.0629e+05
3.0675e+05
3.071e+05
3.0739e+05
3.0783e+05
3.0808e+05
3.0852e+05
3.089e+05
3.0926e+05
3.0963e+05
3.1e+05
3.1073e+05
3.111e+05
3.1147e+05
3.1184e+05
3.122e+05
3.1257e+05
3.1367e+05
3.1405e+05
3.1442e+05
3.1479e+05
3.1515e+05
3.155e+05
3.1586e+05
3.1624e+05
3.166e+05
3.1697e+05
3.1734e+05
3.177e+05
3.1806e+05
3.1842e+05
3.1914e+05
3.1954e+05
3.1988e+05
3.203e+05
3.2104e+05
3.214e+05
3.2177e+05
3.2249e+05
3.2284e+05
3.2392e+05
3.2468e+05
3.2499e+05
3.2535e+05
3.2571e+05
3.2679e+05
3.2751e+05
3.278e+05
3.2824e+05
3.2894e+05
3.293e+05
3.2965e+05
3.3001e+05
3.3071e+05
3.3107e+05
3.3142e+05
3.3178e+05
3.3214e+05
3.325e+05
3.3285e+05
3.3321e+05
3.3465e+05
3.3501e+05
3.3537e+05
3.361e+05
3.3682e+05
3.3717e+05
3.3753e+05
3.3788e+05
3.3824e+05
3.3859e+05
3.3894e+05
3.393e+05
3.3964e+05
3.3999e+05
3.4019e+05
3.4053e+05
3.4088e+05
3.4123e+05
3.4159e+05
3.4194e+05
3.4229e+05
3.4264e+05
3.43e+05
3.4336e+05
3.4372e+05
3.4408e+05
3.4445e+05
3.4481e+05
3.4516e+05
3.4551e+05
3.4585e+05
3.462e+05
3.4654e+05
3.4688e+05
3.4721e+05
3.4754e+05
3.4789e+05
3.4819e+05
3.4857e+05
3.5075e+05
3.5112e+05
3.515e+05
3.5188e+05
3.5227e+05
3.5304e+05
3.5382e+05
3.542e+05
3.5457e+05
3.5571e+05
5.8073e+05
-1
258
356
604
694
967
1068
1308
1399
1653
1763
2016
2058
2375
2472
2734
2827
3107
3232
3475
3559
3835
3952
4194
4304
4558
4626
5278
5639
5718
5999
6090
6359
6438
6721
6794
7080
7166
7437
7555
7789
8140
8225
8491
8575
8837
8935
9193
9316
9543
9644
9890
10250
10350
10604
10701
10949
11060
11317
11434
11671
11768
12027
12121
12385
12488
12749
12899
13117
13246
13484
13585
13853
13952
14239
14319
14612
14724
14982
15081
15359
15454
15729
15872
16103
16227
16473
16547
16841
16920
17209
17306
17576
17663
17930
18047
18283
18380
18633
18756
18980
19070
19338
19428
19692
20045
20148
20415
20510
20777
20870
21142
21244
21512
21603
21871
21973
22249
22336
22610
22967
23095
23336
23425
23695
23811
24050
24147
24408
24511
24754
24845
25094
25187
25459
25565
25800
25900
26163
26310
26528
26619
26846
26990
27235
27355
27600
27713
27963
28119
28331
28696
28783
29064
29106
29436
29536
29808
29902
30178
30269
30552
30667
30926
31007
31287
31434
31671
31760
32044
32124
32405
32560
32780
32881
33150
33247
33521
33601
33877
33980
34242
34351
34613
34713
34980
35079
35346
35716
35807
36082
36201
36414
36549
36819
36945
37183
37295
37555
37646
37930
38038
38300
38394
38681
38797
38997
39134
39401
39513
39761
39854
40123
40207
40474
40561
40830
40921
41182
41280
41538
41627
41898
41984
42249
42374
42606
42691
42954
43035
43301
43396
43625
43760
44012
44104
44365
44452
44736
44822
45101
45191
45594
45812
45903
46161
46285
46516
46607
46872
46995
47219
47302
47564
47643
47904
48039
48248
48369
48577
48675
48924
49011
49264
49350
49608
49732
49963
50055
50312
50420
50661
50751
51014
51348
51453
51687
51788
52032
52132
52368
52448
52693
52794
53031
53128
53366
53479
53712
53811
54074
54175
54433
54531
54793
54892
55156
55244
55516
55603
55873
55954
56231
56332
56579
56706
56929
57021
57280
57381
57630
57709
57974
58065
58317
58412
58662
58764
59017
59156
59372
59456
59716
59812
60065
60154
60415
60502
60750
60838
61094
61175
61434
61527
61781
61883
62128
62230
62472
62599
62774
62901
63150
63227
63482
63575
63816
63923
64146
64239
64473
64570
64809
64905
65141
65240
65478
65567
65817
65953
66161
66275
66515
66603
66855
66959
67206
67286
67545
67639
67891
67991
68233
68318
68565
68655
68902
69024
69256
69364
69608
69942
70294
70394
70641
70777
71001
71100
71369
71476
71712
71845
72071
72171
72442
72543
72808
72905
73173
73545
73681
73916
74041
74292
74427
74661
74748
75019
75119
75391
75759
76115
76215
76484
76569
76838
76937
77205
77550
77610
77903
78022
78268
78356
78619
78734
78970
79073
79316
79420
79662
79792
80006
80110
80352
80453
80689
80813
81023
81156
81406
81521
81744
81853
82087
82204
82394
82526
82781
82884
83127
83253
83486
83580
83832
84170
84527
84600
84857
85005
85228
85325
85580
85682
85913
86016
86266
86346
86565
86704
86945
87046
87630
87742
87966
88073
88304
88652
88750
89002
89111
89310
89457
89695
89828
90062
90436
90540
90798
90902
91167
91254
92211
92341
92549
92649
92880
92978
93605
93720
93921
94070
94311
94418
94657
94770
95377
95556
95809
96451
96556
96772
96948
97187
97314
97657
97926
98009
98279
98658
98776
99027
99116
99395
99474
99759
99852
1.0012e+05
1.0023e+05
1.0048e+05
1.0058e+05
1.0085e+05
1.0095e+05
1.0121e+05
1.0133e+05
1.0158e+05
1.017e+05
1.0195e+05
1.0209e+05
1.0232e+05
1.0246e+05
1.027e+05
1.0281e+05
1.0308e+05
1.0322e+05
1.0345e+05
1.036e+05
1.0383e+05
1.0419e+05
1.0436e+05
1.0457e+05
1.0466e+05
1.0494e+05
1.0507e+05
1.0529e+05
1.0539e+05
1.0566e+05
1.0578e+05
1.0603e+05
1.0612e+05
1.0638e+05
1.0649e+05
1.0674e+05
1.0684e+05
1.071e+05
1.0721e+05
1.0746e+05
1.0757e+05
1.0782e+05
1.0791e+05
1.0817e+05
1.0827e+05
1.0853e+05
1.0889e+05
1.0903e+05
1.0925e+05
1.0932e+05
1.0996e+05
1.1008e+05
1.1032e+05
1.1044e+05
1.1068e+05
1.1081e+05
1.1105e+05
1.1142e+05
1.1151e+05
1.1177e+05
1.1192e+05
1.1215e+05
1.1251e+05
1.1262e+05
1.1288e+05
1.1298e+05
1.1325e+05
1.1335e+05
1.1362e+05
1.1376e+05
1.1399e+05
1.1408e+05
1.1435e+05
1.1472e+05
1.1483e+05
1.1509e+05
1.1546e+05
1.1556e+05
1.158e+05
1.159e+05
1.1617e+05
1.1625e+05
1.1652e+05
1.1664e+05
1.1687e+05
1.1696e+05
1.1723e+05
1.1731e+05
1.1757e+05
1.1768e+05
1.1792e+05
1.1804e+05
1.1827e+05
1.1837e+05
1.1862e+05
1.1871e+05
1.1897e+05
1.1909e+05
1.1932e+05
1.1949e+05
1.197e+05
1.1979e+05
1.2007e+05
1.2017e+05
1.2043e+05
1.2054e+05
1.208e+05
1.2094e+05
1.2119e+05
1.2128e+05
1.2155e+05
1.2166e+05
1.2192e+05
1.2201e+05
1.2229e+05
1.2238e+05
1.2265e+05
1.2274e+05
1.2302e+05
1.2315e+05
1.2338e+05
1.2349e+05
1.2374e+05
1.2384e+05
1.2411e+05
1.2421e+05
1.2448e+05
1.2484e+05
1.2496e+05
1.2519e+05
1.2527e+05
1.2554e+05
1.2564e+05
1.2589e+05
1.2625e+05
1.2636e+05
1.2661e+05
1.2671e+05
1.2697e+05
1.2708e+05
1.2735e+05
1.2745e+05
1.2772e+05
1.2783e+05
1.2808e+05
1.2822e+05
1.2846e+05
1.2854e+05
1.2919e+05
1.2957e+05
1.2967e+05
1.3e+05
1.3031e+05
1.3045e+05
1.3069e+05
1.3079e+05
1.3107e+05
1.3118e+05
1.3143e+05
1.3153e+05
1.3178e+05
1.3189e+05
1.3215e+05
1.3227e+05
1.3252e+05
1.3262e+05
1.3287e+05
1.3298e+05
1.3323e+05
1.3334e+05
1.336e+05
1.3396e+05
1.3408e+05
1.3432e+05
1.344e+05
1.3468e+05
1.3476e+05
1.3504e+05
1.3513e+05
1.354e+05
1.3551e+05
1.3577e+05
1.3586e+05
1.3613e+05
1.3623e+05
1.365e+05
1.3659e+05
1.3686e+05
1.3694e+05
1.3721e+05
1.3733e+05
1.3757e+05
1.377e+05
1.3792e+05
1.3803e+05
1.3827e+05
1.3831e+05
1.3863e+05
1.3872e+05
1.3899e+05
1.3934e+05
1.3948e+05
1.397e+05
1.3979e+05
1.4006e+05
1.4015e+05
1.404e+05
1.405e+05
1.4074e+05
1.411e+05
1.4119e+05
1.4144e+05
1.4155e+05
1.4179e+05
1.4189e+05
1.4212e+05
1.4221e+05
1.4245e+05
1.4255e+05
1.4279e+05
1.4288e+05
1.4311e+05
1.4322e+05
1.4343e+05
1.4354e+05
1.4375e+05
1.4386e+05
1.4406e+05
1.4415e+05
1.4437e+05
1.4441e+05
1.4468e+05
1.4472e+05
1.4498e+05
1.4503e+05
1.453e+05
1.4541e+05
1.4562e+05
1.4573e+05
1.4594e+05
1.4605e+05
1.4627e+05
1.4659e+05
1.4669e+05
1.4692e+05
1.4701e+05
1.4724e+05
1.4752e+05
1.4767e+05
1.4788e+05
1.482e+05
1.4829e+05
1.4914e+05
1.4941e+05
1.4954e+05
1.4976e+05
1.4986e+05
1.5175e+05
1.5183e+05
1.5343e+05
1.5353e+05
1.5378e+05
1.5387e+05
1.5482e+05
1.5491e+05
1.555e+05
1.5558e+05
1.5618e+05
1.5628e+05
1.5686e+05
1.5696e+05
1.572e+05
1.5733e+05
1.5753e+05
1.5768e+05
1.5788e+05
1.58e+05
1.5823e+05
1.5833e+05
1.5857e+05
1.587e+05
1.5892e+05
1.5903e+05
1.5928e+05
1.5944e+05
1.5964e+05
1.5977e+05
1.6e+05
1.6019e+05
1.607e+05
1.6082e+05
1.6106e+05
1.6118e+05
1.6141e+05
1.6149e+05
1.6175e+05
1.6187e+05
1.621e+05
1.6219e+05
1.6281e+05
1.6299e+05
1.6384e+05
1.6394e+05
1.6419e+05
1.6432e+05
1.6486e+05
1.6497e+05
1.652e+05
1.6534e+05
1.6589e+05
1.6599e+05
1.6623e+05
1.6634e+05
1.6658e+05
1.6693e+05
1.671e+05
1.6765e+05
1.6774e+05
1.68e+05
1.6808e+05
1.6841e+05
1.6871e+05
1.6881e+05
1.6906e+05
1.6915e+05
1.6941e+05
1.695e+05
1.6975e+05
1.6985e+05
1.7011e+05
1.702e+05
1.7047e+05
1.7062e+05
1.7117e+05
1.7127e+05
1.7153e+05
1.7161e+05
1.7189e+05
1.7207e+05
1.7259e+05
1.7269e+05
1.7374e+05
1.7428e+05
1.7437e+05
1.746e+05
1.7473e+05
1.7494e+05
1.7512e+05
1.7564e+05
1.7581e+05
1.7635e+05
1.7653e+05
1.7704e+05
1.7722e+05
1.7774e+05
1.7808e+05
1.7825e+05
1.7875e+05
1.7893e+05
1.7959e+05
1.8019e+05
1.8031e+05
1.8055e+05
1.8064e+05
1.8092e+05
1.8128e+05
1.8137e+05
1.8164e+05
1.8178e+05
1.82e+05
1.8219e+05
1.8308e+05
1.8323e+05
1.8378e+05
1.8396e+05
1.8448e+05
1.8458e+05
1.8482e+05
1.8494e+05
1.8516e+05
1.8551e+05
1.8561e+05
1.862e+05
1.8631e+05
1.8655e+05
1.8666e+05
1.869e+05
1.8726e+05
1.8762e+05
1.8774e+05
1.8798e+05
1.8833e+05
1.8844e+05
1.887e+05
1.8881e+05
1.8906e+05
1.894e+05
1.8951e+05
1.8976e+05
1.8993e+05
1.9047e+05
1.9063e+05
1.9117e+05
1.9134e+05
1.9189e+05
1.92e+05
1.9228e+05
1.9266e+05
1.9295e+05
1.9308e+05
1.9331e+05
1.9342e+05
1.9369e+05
1.9376e+05
1.9415e+05
1.9581e+05
1.96e+05
1.9873e+05
1.9882e+05
1.9909e+05
1.9922e+05
1.9946e+05
1.9982e+05
1.9991e+05
2.0018e+05
2.0027e+05
2.0055e+05
2.0065e+05
2.0092e+05
2.0101e+05
2.0128e+05
2.0137e+05
2.0165e+05
2.0175e+05
2.0201e+05
2.0212e+05
2.0236e+05
2.0247e+05
2.0272e+05
2.0281e+05
2.0307e+05
2.0318e+05
2.0343e+05
2.0356e+05
2.038e+05
2.0391e+05
2.0417e+05
2.0427e+05
2.0453e+05
2.0469e+05
2.049e+05
2.0504e+05
2.0527e+05
2.0536e+05
2.0564e+05
2.0574e+05
2.0599e+05
2.0609e+05
2.0636e+05
2.0646e+05
2.0673e+05
2.0686e+05
2.071e+05
2.072e+05
2.0746e+05
2.0755e+05
2.0782e+05
2.0818e+05
2.0827e+05
2.0854e+05
2.0861e+05
2.0891e+05
2.0927e+05
2.0938e+05
2.0964e+05
2.0976e+05
2.1002e+05
2.1016e+05
2.104e+05
2.1052e+05
2.1077e+05
2.1087e+05
2.1116e+05
2.1126e+05
2.1153e+05
2.1164e+05
2.1192e+05
2.1205e+05
2.123e+05
2.1242e+05
2.1268e+05
2.128e+05
2.1306e+05
2.1318e+05
2.1344e+05
2.1354e+05
2.1382e+05
2.1393e+05
2.1419e+05
2.1432e+05
2.1457e+05
2.1469e+05
2.1496e+05
2.1505e+05
2.1541e+05
2.157e+05
2.1586e+05
2.1608e+05
2.1616e+05
2.1644e+05
2.1652e+05
2.1679e+05
2.169e+05
2.1716e+05
2.1725e+05
2.1752e+05
2.1765e+05
2.1788e+05
2.1801e+05
2.1825e+05
2.1836e+05
2.1862e+05
2.19e+05
2.1909e+05
2.1938e+05
2.1975e+05
2.2013e+05
2.2029e+05
2.2051e+05
2.2061e+05
2.2088e+05
2.2099e+05
2.2127e+05
2.2138e+05
2.2163e+05
2.2174e+05
2.2201e+05
2.2211e+05
2.224e+05
2.2251e+05
2.2278e+05
2.2287e+05
2.2316e+05
2.2327e+05
2.2353e+05
2.2363e+05
2.2391e+05
2.2429e+05
2.2445e+05
2.2466e+05
2.2476e+05
2.2503e+05
2.2512e+05
2.254e+05
2.2551e+05
2.2576e+05
2.259e+05
2.2613e+05
2.2622e+05
2.265e+05
2.2659e+05
2.2685e+05
2.2723e+05
2.2736e+05
2.276e+05
2.2769e+05
2.2796e+05
2.2807e+05
2.2834e+05
2.2844e+05
2.2872e+05
2.2881e+05
2.2908e+05
2.292e+05
2.2945e+05
2.2955e+05
2.2982e+05
2.2992e+05
2.3019e+05
2.3036e+05
2.3057e+05
2.3068e+05
2.3093e+05
2.3131e+05
2.3141e+05
2.3168e+05
2.3177e+05
2.3204e+05
2.3214e+05
2.3242e+05
2.325e+05
2.3278e+05
2.3287e+05
2.3314e+05
2.3325e+05
2.3351e+05
2.3361e+05
2.3386e+05
2.3395e+05
2.3423e+05
2.3432e+05
2.346e+05
2.3469e+05
2.3497e+05
2.3504e+05
2.3533e+05
2.3543e+05
2.3569e+05
2.3579e+05
2.3605e+05
2.3615e+05
2.3642e+05
2.3653e+05
2.3678e+05
2.3687e+05
2.3714e+05
2.3726e+05
2.375e+05
2.376e+05
2.3787e+05
2.3799e+05
2.3822e+05
2.3834e+05
2.3859e+05
2.3895e+05
2.3905e+05
2.3933e+05
2.3943e+05
2.397e+05
2.3978e+05
2.4007e+05
2.4017e+05
2.4046e+05
2.4054e+05
2.4083e+05
2.4094e+05
2.412e+05
2.4129e+05
2.4157e+05
2.4168e+05
2.4195e+05
2.4233e+05
2.4242e+05
2.4269e+05
2.428e+05
2.4306e+05
2.4344e+05
2.4356e+05
2.4381e+05
2.4389e+05
2.4418e+05
2.4426e+05
2.4455e+05
2.4491e+05
2.4529e+05
2.454e+05
2.4566e+05
2.4582e+05
2.4602e+05
2.461e+05
2.4638e+05
2.4647e+05
2.4675e+05
2.4692e+05
2.4746e+05
2.4764e+05
2.4854e+05
2.487e+05
2.4925e+05
2.4936e+05
2.4962e+05
2.498e+05
2.5033e+05
2.5042e+05
2.5069e+05
2.5083e+05
2.5106e+05
2.5124e+05
2.5179e+05
2.5187e+05
2.5215e+05
2.5228e+05
2.5252e+05
2.536e+05
2.5377e+05
2.5431e+05
2.5441e+05
2.5503e+05
2.5511e+05
2.5539e+05
2.5555e+05
2.561e+05
2.5618e+05
2.5646e+05
2.5654e+05
2.5683e+05
2.5702e+05
2.5753e+05
2.5763e+05
2.579e+05
2.58e+05
2.5827e+05
2.5835e+05
2.5864e+05
2.5872e+05
2.5901e+05
2.5911e+05
2.5974e+05
2.5984e+05
2.6011e+05
2.602e+05
2.6157e+05
2.6231e+05
2.6266e+05
2.6304e+05
2.6314e+05
2.6378e+05
2.6388e+05
2.649e+05
2.6502e+05
2.6749e+05
2.6787e+05
2.68e+05
2.6862e+05
2.6873e+05
2.6898e+05
2.691e+05
2.6936e+05
2.6945e+05
2.7194e+05
2.7205e+05
2.7229e+05
2.7238e+05
2.7266e+05
2.7278e+05
2.7303e+05
2.7311e+05
2.7339e+05
2.7348e+05
2.7413e+05
2.7421e+05
2.7449e+05
2.7458e+05
2.7485e+05
2.7494e+05
2.7522e+05
2.753e+05
2.7559e+05
2.7572e+05
2.7667e+05
2.7684e+05
2.7738e+05
2.7749e+05
2.7772e+05
2.7806e+05
2.7816e+05
2.7841e+05
2.785e+05
2.7876e+05
2.7885e+05
2.7912e+05
2.7922e+05
2.7948e+05
2.7956e+05
2.7983e+05
2.7995e+05
2.8055e+05
2.8064e+05
2.809e+05
2.8099e+05
2.8126e+05
2.8143e+05
2.8308e+05
2.8417e+05
2.8587e+05
2.8599e+05
2.8623e+05
2.8633e+05
2.8731e+05
2.8748e+05
2.9086e+05
2.9099e+05
2.9269e+05
2.9343e+05
2.9352e+05
2.9379e+05
2.9396e+05
2.9452e+05
2.9488e+05
2.9507e+05
2.9646e+05
2.9742e+05
2.9779e+05
2.9805e+05
2.9852e+05
2.9862e+05
2.9888e+05
2.9902e+05
2.9951e+05
3.0022e+05
3.0043e+05
3.0056e+05
3.0098e+05
3.0171e+05
3.024e+05
3.0276e+05
3.0311e+05
3.0349e+05
3.0454e+05
3.0484e+05
3.0524e+05
3.0557e+05
3.0594e+05
3.0627e+05
3.0665e+05
3.0701e+05
3.0734e+05
3.0773e+05
3.0805e+05
3.0843e+05
3.088e+05
3.0917e+05
3.0953e+05
3.099e+05
3.1027e+05
3.1101e+05
3.1138e+05
3.1174e+05
3.1211e+05
3.1247e+05
3.1283e+05
3.1395e+05
3.1432e+05
3.1468e+05
3.1505e+05
3.1541e+05
3.1577e+05
3.1614e+05
3.165e+05
3.1687e+05
3.1724e+05
3.176e+05
3.1797e+05
3.1832e+05
3.1869e+05
3.1907e+05
3.1945e+05
3.1982e+05
3.202e+05
3.2057e+05
3.2131e+05
3.2167e+05
3.2204e+05
3.2274e+05
3.2312e+05
3.2347e+05
3.2419e+05
3.249e+05
3.2526e+05
3.2561e+05
3.2597e+05
3.2706e+05
3.2741e+05
3.2778e+05
3.2814e+05
3.285e+05
3.2921e+05
3.2956e+05
3.2991e+05
3.3027e+05
3.3097e+05
3.3132e+05
3.3168e+05
3.3204e+05
3.324e+05
3.3276e+05
3.3312e+05
3.3347e+05
3.3492e+05
3.3529e+05
3.3565e+05
3.36e+05
3.3637e+05
3.3672e+05
3.3708e+05
3.3744e+05
3.3779e+05
3.3815e+05
3.385e+05
3.3885e+05
3.392e+05
3.3955e+05
3.399e+05
3.4033e+05
3.4041e+05
3.4067e+05
3.4078e+05
3.4102e+05
3.4106e+05
3.4138e+05
3.4148e+05
3.4173e+05
3.4183e+05
3.4208e+05
3.4217e+05
3.4244e+05
3.4278e+05
3.4288e+05
3.4314e+05
3.4326e+05
3.435e+05
3.436e+05
3.4386e+05
3.4396e+05
3.4422e+05
3.4432e+05
3.446e+05
3.4468e+05
3.4496e+05
3.4505e+05
3.453e+05
3.454e+05
3.4566e+05
3.46e+05
3.4612e+05
3.4634e+05
3.4643e+05
3.4668e+05
3.4702e+05
3.4735e+05
3.4739e+05
3.4768e+05
3.4783e+05
3.4803e+05
3.4814e+05
3.4837e+05
3.4848e+05
3.4871e+05
3.4887e+05
3.509e+05
3.51e+05
3.5126e+05
3.5137e+05
3.5165e+05
3.5202e+05
3.522e+05
3.5241e+05
3.5254e+05
3.5317e+05
3.5396e+05
3.5406e+05
3.5434e+05
3.5446e+05
3.5472e+05
3.5484e+05
3.5585e+05
3.974e+05
3.9751e+05
3.9775e+05
3.9812e+05
3.9849e+05
3.9859e+05
3.9884e+05
3.9894e+05
3.992e+05
3.9958e+05
3.9967e+05
3.9993e+05
4.0006e+05
4.003e+05
4.0041e+05
4.0067e+05
4.0077e+05
4.0103e+05
4.0114e+05
4.014e+05
4.0153e+05
4.0176e+05
4.0185e+05
4.0212e+05
4.0222e+05
4.0249e+05
4.0262e+05
4.0286e+05
4.0298e+05
4.0322e+05
4.033e+05
4.0358e+05
4.0367e+05
4.0393e+05
4.043e+05
4.0466e+05
4.0477e+05
4.0503e+05
4.0511e+05
4.054e+05
4.0549e+05
4.0576e+05
4.0587e+05
4.0613e+05
4.0625e+05
4.0649e+05
4.0663e+05
4.0685e+05
4.0698e+05
4.0721e+05
4.073e+05
4.0758e+05
4.0767e+05
4.0794e+05
4.083e+05
4.0838e+05
4.0868e+05
4.0879e+05
4.0905e+05
4.0914e+05
4.0941e+05
4.095e+05
4.0979e+05
4.0989e+05
4.1016e+05
4.1026e+05
4.1053e+05
4.1064e+05
4.109e+05
4.1101e+05
4.1127e+05
4.1164e+05
4.1177e+05
4.1201e+05
4.1213e+05
4.1238e+05
4.1253e+05
4.1276e+05
4.129e+05
4.1313e+05
4.1328e+05
4.135e+05
4.1359e+05
4.1388e+05
4.1401e+05
4.1425e+05
4.1441e+05
4.1463e+05
4.1473e+05
4.1501e+05
4.1508e+05
4.1537e+05
4.1548e+05
4.1575e+05
4.1583e+05
4.1612e+05
4.1621e+05
4.1649e+05
4.1688e+05
4.1697e+05
4.1725e+05
4.1738e+05
4.1764e+05
4.1774e+05
4.1802e+05
4.1811e+05
4.184e+05
4.1856e+05
4.1877e+05
4.1891e+05
4.1914e+05
4.1927e+05
4.1951e+05
4.1988e+05
4.1999e+05
4.2025e+05
4.2039e+05
4.2062e+05
4.2076e+05
4.2099e+05
4.2112e+05
4.2136e+05
4.2172e+05
4.2185e+05
4.2209e+05
4.2221e+05
4.2246e+05
4.2256e+05
4.2283e+05
4.2293e+05
4.2321e+05
4.2329e+05
4.2358e+05
4.2368e+05
4.2396e+05
4.2409e+05
4.2433e+05
4.2444e+05
4.2471e+05
4.2481e+05
4.2508e+05
4.252e+05
4.2545e+05
4.2583e+05
4.2621e+05
4.2658e+05
4.2672e+05
4.2696e+05
4.2733e+05
4.2771e+05
4.2808e+05
4.2818e+05
4.2845e+05
4.2883e+05
4.2893e+05
4.2921e+05
4.293e+05
4.2958e+05
4.297e+05
4.2997e+05
4.3034e+05
4.3042e+05
4.3071e+05
4.308e+05
4.3109e+05
4.3124e+05
4.3146e+05
4.3156e+05
4.3184e+05
4.3194e+05
4.3221e+05
4.3233e+05
4.3258e+05
4.3296e+05
4.3308e+05
4.3333e+05
4.3346e+05
4.337e+05
4.3412e+05
4.3445e+05
4.3482e+05
4.352e+05
4.3538e+05
4.3558e+05
4.3569e+05
4.3597e+05
4.3604e+05
4.3635e+05
4.3643e+05
4.3673e+05
4.3685e+05
4.3711e+05
4.3721e+05
4.3748e+05
4.3758e+05
4.3786e+05
4.3799e+05
4.3825e+05
4.3862e+05
4.3901e+05
4.3915e+05
4.3939e+05
4.3948e+05
4.3977e+05
4.4016e+05
4.4054e+05
4.409e+05
4.41e+05
4.4165e+05
4.4173e+05
4.4202e+05
4.421e+05
4.4276e+05
4.4283e+05
4.4313e+05
4.4331e+05
4.4422e+05
4.4429e+05
4.4458e+05
4.4494e+05
4.4506e+05
4.4638e+05
4.4649e+05
4.489e+05
4.4908e+05
4.5141e+05
4.5176e+05
4.5195e+05
4.5322e+05
4.5336e+05
4.5546e+05
4.5557e+05
4.5808e+05
4.5816e+05
4.5845e+05
4.5858e+05
4.5958e+05
4.5967e+05
4.607e+05
4.608e+05
4.6108e+05
4.6126e+05
4.6195e+05
4.6258e+05
4.6269e+05
4.6295e+05
4.6331e+05
4.6368e+05
4.6404e+05
4.6422e+05
4.6476e+05
4.6512e+05
4.6549e+05
4.6586e+05
4.6597e+05
4.6622e+05
4.6659e+05
4.6671e+05
4.6696e+05
4.6707e+05
4.6733e+05
4.6742e+05
4.677e+05
4.6807e+05
4.6843e+05
4.6856e+05
4.688e+05
4.6917e+05
4.6928e+05
4.6963e+05
4.699e+05
4.7002e+05
4.7026e+05
4.7038e+05
4.7062e+05
4.7075e+05
4.7108e+05
4.7419e+05
4.743e+05
4.7456e+05
4.7465e+05
4.7492e+05
4.7509e+05
4.7643e+05
4.7681e+05
4.7719e+05
4.7758e+05
4.7835e+05
4.7848e+05
4.799e+05
4.8005e+05
4.8067e+05
4.8081e+05
4.8105e+05
4.8141e+05
4.8151e+05
4.818e+05
4.8189e+05
4.8218e+05
4.823e+05
4.8256e+05
4.8265e+05
4.8293e+05
4.8305e+05
4.8331e+05
4.8351e+05
4.8419e+05
4.8557e+05
4.8566e+05
4.8595e+05
4.8613e+05
4.9667e+05
4.9713e+05
4.9725e+05
4.9751e+05
4.9765e+05
4.9786e+05
4.9797e+05
4.9822e+05
4.9833e+05
4.9858e+05
4.9871e+05
4.9895e+05
4.9904e+05
4.9932e+05
4.9941e+05
4.9969e+05
4.9979e+05
5.0016e+05
5.0044e+05
5.0063e+05
5.0109e+05
5.0183e+05
5.0222e+05
5.0262e+05
5.0309e+05
5.0322e+05
5.0359e+05
5.0386e+05
5.0404e+05
5.0453e+05
5.0492e+05
5.0568e+05
5.0616e+05
5.0626e+05
5.0682e+05
5.072e+05
5.0834e+05
5.0871e+05
5.0985e+05
5.1024e+05
5.1062e+05
5.11e+05
5.1213e+05
5.1251e+05
5.1298e+05
5.1314e+05
5.1335e+05
5.1344e+05
5.1852e+05
5.1857e+05
5.3229e+05
5.3286e+05
5.334e+05
5.3352e+05
5.3607e+05
5.3622e+05
5.3675e+05
5.3684e+05
5.3707e+05
5.3716e+05
5.374e+05
5.3753e+05
5.3775e+05
5.3785e+05
5.3808e+05
5.3812e+05
5.3843e+05
5.3852e+05
5.3879e+05
5.3888e+05
5.3913e+05
5.3923e+05
5.3947e+05
5.3958e+05
5.3982e+05
5.3993e+05
5.4017e+05
5.4026e+05
5.4051e+05
5.4062e+05
5.4086e+05
5.4095e+05
5.412e+05
5.4128e+05
5.4156e+05
5.4165e+05
5.4226e+05
5.4236e+05
5.4261e+05
5.4269e+05
5.4297e+05
5.4306e+05
5.4333e+05
5.4344e+05
5.4368e+05
5.438e+05
5.4404e+05
5.4413e+05
5.444e+05
5.4449e+05
5.4477e+05
5.4487e+05
5.4513e+05
5.4521e+05
5.4547e+05
5.4556e+05
5.4583e+05
5.4593e+05
5.4653e+05
5.4663e+05
5.4689e+05
5.4701e+05
5.4723e+05
5.4739e+05
5.7469e+05
5.8101e+05
5.814e+05
5.8195e+05
5.825e+05
5.8415e+05
5.8419e+05
5.846e+05
5.8589e+05
5.8875e+05
5.8899e+05
5.8945e+05
5.8948e+05
5.9304e+05
5.9613e+05
5.9673e+05
5.9713e+05
5.9759e+05
5.9861e+05
5.9865e+05
5.9895e+05
5.9925e+05
5.994e+05
6.0167e+05
6.0171e+05
6.0361e+05
6.0674e+05
6.0965e+05
6.1127e+05
6.1131e+05
6.1177e+05
6.1276e+05
6.1289e+05
6.131e+05
6.1319e+05
6.134e+05
6.1344e+05
6.1368e+05
6.1373e+05
6.1399e+05
6.1408e+05
6.1447e+05
6.1529e+05
6.1607e+05
6.1618e+05
6.1638e+05
6.1668e+05
6.1671e+05
6.1787e+05
6.1794e+05
6.1878e+05
6.1893e+05
6.2561e+05
6.2573e+05
6.2592e+05
6.2597e+05
6.2687e+05
6.2696e+05
6.2749e+05
6.2762e+05
6.2842e+05
6.2935e+05
6.2945e+05
6.2998e+05
6.3008e+05
6.3029e+05
6.3033e+05
6.3059e+05
6.3064e+05
6.3572e+05
6.3576e+05
6.3598e+05
6.3612e+05
6.3659e+05
6.3663e+05
6.3687e+05
6.3698e+05
6.3717e+05
6.372e+05
6.375e+05
6.3776e+05
6.3784e+05
6.38e+05
6.3814e+05
6.3833e+05
6.3837e+05
6.3862e+05
6.3866e+05
6.3896e+05
6.3921e+05
6.3932e+05
6.3951e+05
6.3962e+05
6.3981e+05
6.3984e+05
6.4008e+05
6.402e+05
6.4042e+05
6.4072e+05
6.4081e+05
6.4098e+05
6.4111e+05
6.4131e+05
6.4135e+05
6.4162e+05
6.4193e+05
6.4202e+05
6.4223e+05
6.4227e+05
6.4254e+05
6.4265e+05
6.4285e+05
6.4295e+05
6.4316e+05
6.4344e+05
6.4357e+05
6.4377e+05
6.4381e+05
6.4406e+05
6.4414e+05
6.4437e+05
6.4442e+05
6.4465e+05
6.447e+05
6.4495e+05
6.4506e+05
6.4525e+05
6.4529e+05
6.4555e+05
6.4559e+05
6.4584e+05
6.4588e+05
6.4612e+05
6.4617e+05
6.4671e+05
6.4678e+05
6.4701e+05
6.471e+05
6.4731e+05
6.4741e+05
6.476e+05
6.4768e+05
6.4787e+05
6.48e+05
6.4849e+05
6.4859e+05
6.4907e+05
6.4916e+05
6.4941e+05
