272
505
742
966
1199
1433
1673
1914
2153
2394
2637
2881
3128
3379
3628
3880
4127
4373
4624
4878
5127
5373
5622
5873
6123
6363
6621
6870
7108
7349
7601
7850
8093
8323
8561
8806
9041
9278
9517
9763
10001
10244
10475
10731
10977
11225
11469
11724
11973
12225
12480
12736
12989
13240
13494
13749
13999
14247
14498
14749
14997
15249
15502
15755
16003
16255
16508
16763
17017
17266
17514
17770
18023
18276
18538
18801
19057
19303
19572
19829
20087
20343
20606
20849
21109
21363
21619
21858
22103
22348
22602
22845
23088
23324
23578
23822
24073
24320
24568
24819
25070
25318
25577
25822
26071
26317
26569
26815
27058
27303
27556
27801
28051
28302
28559
28810
29069
29320
29577
29833
30088
30347
30603
30847
31095
31345
31598
31847
32086
32329
32585
32832
33081
33338
33579
33832
34080
34334
34576
34817
35059
35306
35546
35785
36020
36259
36510
36753
37000
37247
37500
37743
37994
38244
38497
38748
39001
39264
39526
39785
40037
40303
40557
40818
41071
41335
41589
41845
42103
42365
42617
42875
43136
43397
43657
43912
44177
44443
44718
44984
45254
45517
45781
46043
46310
46565
46819
47076
47336
47589
47838
48101
48353
48604
48852
49103
49351
49603
49849
50102
50346
50591
50842
51094
51343
51590
51827
52081
52327
52573
52812
53059
53295
53542
53787
54038
54287
54529
54780
55035
55287
55537
55781
56028
56273
56521
56773
57026
57279
57529
57784
58050
58314
58580
58834
59103
59370
59640
59912
60180
60436
60693
60957
61221
61477
61729
61997
62264
62534
62803
63069
63328
63591
63853
64126
64394
64668
64948
65240
65540
65848
66167
66476
66797
67129
67442
67743
68046
68335
68615
68892
69168
69443
69710
69982
70248
70517
70778
71046
71302
71560
71819
72081
72336
72586
72838
73092
73345
73592
73846
74095
74338
74587
74842
75089
75336
75581
75835
76082
76333
76575
76821
77068
77314
77563
77816
78060
78309
78555
78814
79065
79324
79572
79836
80092
80351
80612
80874
81128
81382
81642
81898
82156
82408
82662
82912
83165
83419
83675
83923
84172
84419
84674
84924
85180
85422
85680
85932
86187
86444
86703
86955
87205
87460
87723
87978
88232
88489
88747
89002
89261
89522
89786
90049
90313
90581
90841
91111
91371
91637
91896
92154
92415
92681
92940
93197
93460
93726
93990
94255
94526
94790
95058
95330
95607
95871
96137
96405
96671
96933
97192
97447
97706
97969
98227
98488
98741
98998
2.0511e+05
2.2846e+05
2.3665e+05
2.4476e+05
2.5575e+05
2.5626e+05
2.5881e+05
2.5935e+05
2.5991e+05
2.6532e+05
2.6856e+05
2.6914e+05
2.7056e+05
2.7137e+05
2.739e+05
2.7677e+05
2.814e+05
2.8337e+05
2.8632e+05
2.9383e+05
2.981e+05
2.9838e+05
2.9865e+05
2.9891e+05
2.9918e+05
2.9945e+05
2.9971e+05
2.9997e+05
3.0024e+05
3.0051e+05
3.0077e+05
3.0103e+05
3.013e+05
3.0155e+05
3.0182e+05
3.0208e+05
3.0235e+05
3.0261e+05
3.0287e+05
3.0313e+05
3.0339e+05
3.0365e+05
3.0391e+05
3.0417e+05
3.0443e+05
3.047e+05
3.0496e+05
3.0524e+05
3.0552e+05
3.058e+05
3.0608e+05
3.0637e+05
3.0666e+05
3.0723e+05
3.0752e+05
3.0781e+05
3.081e+05
3.0838e+05
3.0866e+05
3.0894e+05
3.0923e+05
3.0951e+05
3.098e+05
3.1008e+05
3.1038e+05
3.1066e+05
3.1094e+05
3.1124e+05
3.1153e+05
3.118e+05
3.1208e+05
3.1237e+05
3.1264e+05
3.1291e+05
3.1319e+05
3.1346e+05
3.1373e+05
3.1399e+05
3.1427e+05
3.1453e+05
3.1479e+05
3.1505e+05
3.1532e+05
3.1558e+05
3.1585e+05
3.1611e+05
3.1638e+05
3.1664e+05
3.169e+05
3.1717e+05
3.1743e+05
3.1769e+05
3.1794e+05
3.1821e+05
3.1848e+05
3.1874e+05
3.1899e+05
3.1926e+05
3.1953e+05
3.1979e+05
3.2006e+05
3.2033e+05
3.2059e+05
3.2086e+05
3.2113e+05
3.2139e+05
3.2166e+05
3.2192e+05
3.2218e+05
3.2244e+05
3.227e+05
3.2297e+05
3.2324e+05
3.235e+05
3.2376e+05
3.2403e+05
3.2429e+05
3.2455e+05
3.248e+05
3.2506e+05
3.2531e+05
3.2556e+05
3.2582e+05
3.2607e+05
3.2632e+05
3.2657e+05
3.2682e+05
3.2707e+05
3.2732e+05
3.2756e+05
3.2781e+05
3.2805e+05
3.2829e+05
3.2854e+05
3.2878e+05
3.2903e+05
3.2927e+05
3.2952e+05
3.2977e+05
3.3003e+05
3.3028e+05
3.3054e+05
3.3079e+05
3.3105e+05
3.3131e+05
3.3157e+05
3.3184e+05
3.3211e+05
3.3237e+05
3.3263e+05
3.329e+05
3.3317e+05
3.337e+05
3.3396e+05
3.3423e+05
3.345e+05
3.3478e+05
3.3505e+05
3.3559e+05
3.3586e+05
3.3613e+05
3.3639e+05
3.3665e+05
3.3692e+05
3.3719e+05
3.3745e+05
3.3772e+05
3.3798e+05
3.3824e+05
3.385e+05
3.3877e+05
3.3903e+05
3.393e+05
3.3956e+05
3.3982e+05
3.4009e+05
3.4035e+05
3.4063e+05
3.409e+05
3.4116e+05
3.4142e+05
3.4169e+05
3.4195e+05
3.4222e+05
3.4247e+05
3.4273e+05
3.4299e+05
3.4325e+05
3.4352e+05
3.4378e+05
3.4405e+05
3.4432e+05
3.446e+05
3.4487e+05
3.4514e+05
3.4541e+05
3.4569e+05
3.4596e+05
3.4624e+05
3.4652e+05
3.468e+05
3.4707e+05
3.4735e+05
3.4764e+05
3.4792e+05
3.4819e+05
3.4846e+05
3.4874e+05
3.4901e+05
3.4928e+05
3.4955e+05
3.4983e+05
3.5011e+05
3.5039e+05
3.5067e+05
3.5121e+05
3.5147e+05
3.5174e+05
3.52e+05
3.5226e+05
3.5253e+05
3.5279e+05
3.5305e+05
3.5331e+05
3.5358e+05
3.5409e+05
3.546e+05
3.5562e+05
3.5587e+05
3.5663e+05
3.5689e+05
3.5714e+05
3.574e+05
3.5766e+05
3.5792e+05
3.5819e+05
3.5846e+05
3.5874e+05
3.5902e+05
3.593e+05
3.5959e+05
3.5989e+05
3.6017e+05
3.6046e+05
3.6075e+05
3.6103e+05
3.6246e+05
3.6275e+05
3.6302e+05
3.6387e+05
3.6442e+05
3.647e+05
3.6498e+05
3.6528e+05
3.6557e+05
3.6586e+05
3.6642e+05
3.6671e+05
3.6698e+05
3.6726e+05
3.6754e+05
3.6781e+05
3.6809e+05
3.6836e+05
3.6863e+05
3.689e+05
3.6917e+05
3.6945e+05
3.6971e+05
3.6998e+05
3.7025e+05
3.7051e+05
3.7077e+05
3.7129e+05
3.7155e+05
3.718e+05
3.7206e+05
3.7231e+05
3.7282e+05
3.7308e+05
3.7332e+05
3.7358e+05
3.7382e+05
3.7457e+05
3.7482e+05
3.7508e+05
3.7533e+05
3.7583e+05
3.7609e+05
3.7635e+05
3.766e+05
3.7686e+05
3.7712e+05
3.7738e+05
3.7764e+05
3.779e+05
3.7817e+05
3.7869e+05
3.7896e+05
3.7923e+05
3.7949e+05
3.7975e+05
3.8003e+05
3.8029e+05
3.8057e+05
3.8083e+05
3.8109e+05
3.8162e+05
3.8189e+05
3.8295e+05
3.8321e+05
3.8347e+05
3.84e+05
3.8426e+05
3.8453e+05
3.8506e+05
3.8533e+05
3.8559e+05
3.8587e+05
3.8613e+05
3.864e+05
3.8666e+05
3.8693e+05
3.872e+05
3.8801e+05
3.8828e+05
3.8854e+05
3.8881e+05
3.8908e+05
3.8934e+05
3.896e+05
3.8986e+05
3.909e+05
3.9116e+05
3.9193e+05
3.9219e+05
3.9245e+05
3.9296e+05
3.9321e+05
3.9372e+05
3.9398e+05
3.9438e+05
3.9499e+05
4.3615e+05
4.6658e+05
5.1345e+05
5.2493e+05
6.1638e+05
-1
420
661
902
1113
1344
1584
1826
2060
2306
2542
2789
3032
3279
3541
3782
4038
4278
4526
4779
5027
5278
5522
5775
6024
6280
6522
6775
7032
7276
7512
7772
8001
8248
8461
8710
8962
9187
9438
9664
9921
10158
10399
10628
10876
11128
11367
11625
11886
12121
12377
12634
12886
13140
13397
13654
13898
14147
14399
14652
14903
15149
15407
15655
15916
16157
16408
16663
16922
17171
17425
17675
17920
18174
18433
18700
18956
19005
19214
19455
19726
19983
20237
20500
20754
20998
21260
21515
21786
22002
22244
22516
22767
23013
23239
23468
23730
23973
24233
24479
24730
24971
25212
25476
25726
25991
26220
26482
26966
27221
27469
27711
27958
28200
28457
28708
28969
29218
29475
29733
29988
30254
30508
30715
30769
30998
31248
31498
31749
32005
32234
32477
32732
32981
33239
33442
33496
33738
33980
34228
34494
34730
34971
35215
35451
35936
36176
36408
36656
36898
37148
37401
37654
37904
38141
38394
38647
38900
39155
39418
39679
39945
40199
40452
40713
40965
41231
41485
41740
42019
42262
42517
42775
43025
43297
43549
43816
43861
44063
44326
44874
44922
45139
45407
45673
45928
46217
46471
46718
46774
46969
47228
47490
47741
47987
48260
48500
48764
49013
49258
49498
49752
50001
50265
50516
50741
50995
51247
51498
51737
51993
52232
52481
52721
52963
53217
53446
53694
53936
54192
54433
54683
54936
55188
55439
55692
55933
56180
56422
56671
56922
57187
57431
57687
57937
58204
58469
58730
58991
59251
59525
59578
59788
60071
60336
60587
60847
61123
61372
61638
61890
62150
62420
62686
62972
63223
63482
63750
64014
64281
64556
64599
64822
65099
65156
65401
65700
65751
66007
66064
66331
66378
66635
66906
66969
67295
67598
67897
68209
68261
69328
69602
69874
70141
70191
70406
70669
70947
71200
71462
71717
71989
72237
72497
72755
72998
73247
73501
73753
74011
74258
74489
74748
75001
75245
75495
75746
75991
76242
76486
76734
76975
77226
77472
77719
77974
78222
78466
78712
78970
79222
79476
79740
79988
80250
80506
80782
81029
81283
81533
81802
82054
82310
82572
82820
83069
83319
83589
83830
84081
84324
84576
84825
85084
85333
85583
85833
86088
86342
86607
86855
87106
87360
87620
87889
88135
88386
88640
88900
89163
89421
89684
89942
90205
90477
90742
91002
91268
91314
91529
91793
92052
92310
92574
92839
92888
93105
93351
93621
93672
93885
94144
94413
94687
94947
95219
95494
95765
95815
96033
96295
96564
96825
97094
97355
97606
97861
98135
98390
98653
98901
99157
99428
99685
99938
1.0019e+05
1.0044e+05
1.0069e+05
1.0095e+05
1.0121e+05
1.0146e+05
1.0171e+05
1.0196e+05
1.0222e+05
1.025e+05
1.0278e+05
1.0336e+05
1.0366e+05
1.0394e+05
1.0422e+05
1.0451e+05
1.0479e+05
1.0484e+05
1.0505e+05
1.0511e+05
1.0533e+05
1.056e+05
1.0588e+05
1.0615e+05
1.0641e+05
1.067e+05
1.0726e+05
1.0754e+05
1.0781e+05
1.0803e+05
1.0808e+05
1.0835e+05
1.0862e+05
1.0888e+05
1.0915e+05
1.0941e+05
1.0968e+05
1.0994e+05
1.1022e+05
1.105e+05
1.1078e+05
1.1104e+05
1.1131e+05
1.1159e+05
1.1187e+05
1.1208e+05
1.1213e+05
1.124e+05
1.1266e+05
1.1293e+05
1.132e+05
1.1346e+05
1.1372e+05
1.1397e+05
1.1423e+05
1.1449e+05
1.1476e+05
1.15e+05
1.1525e+05
1.155e+05
1.1575e+05
1.1601e+05
1.1626e+05
1.165e+05
1.1675e+05
1.17e+05
1.1725e+05
1.1749e+05
1.1773e+05
1.1797e+05
1.1821e+05
1.1845e+05
1.1869e+05
1.1893e+05
1.1917e+05
1.1942e+05
1.1966e+05
1.199e+05
1.2014e+05
1.2039e+05
1.2064e+05
1.2114e+05
1.2139e+05
1.2164e+05
1.219e+05
1.2216e+05
1.2241e+05
1.2267e+05
1.2293e+05
1.2319e+05
1.2345e+05
1.2372e+05
1.2398e+05
1.2424e+05
1.2451e+05
1.2478e+05
1.2504e+05
1.253e+05
1.2557e+05
1.2583e+05
1.2611e+05
1.2638e+05
1.2663e+05
1.2689e+05
1.2743e+05
1.2768e+05
1.2795e+05
1.28e+05
1.2822e+05
1.2848e+05
1.2874e+05
1.2901e+05
1.2928e+05
1.2954e+05
1.298e+05
1.3006e+05
1.3031e+05
1.3057e+05
1.3082e+05
1.3109e+05
1.3134e+05
1.316e+05
1.3185e+05
1.3211e+05
1.3236e+05
1.3262e+05
1.3286e+05
1.3312e+05
1.3337e+05
1.3361e+05
1.3386e+05
1.3411e+05
1.3435e+05
1.3459e+05
1.3483e+05
1.3508e+05
1.3531e+05
1.3555e+05
1.3577e+05
1.3602e+05
1.3624e+05
1.3649e+05
1.3666e+05
1.3671e+05
1.3696e+05
1.3743e+05
1.3765e+05
1.3789e+05
1.3811e+05
1.383e+05
1.3836e+05
1.3857e+05
1.3879e+05
1.3902e+05
1.3926e+05
1.3947e+05
1.3969e+05
1.3993e+05
1.4016e+05
1.4039e+05
1.406e+05
1.4083e+05
1.4106e+05
1.413e+05
1.4152e+05
1.4174e+05
1.4198e+05
1.422e+05
1.4244e+05
1.4267e+05
1.429e+05
1.4314e+05
1.4336e+05
1.4359e+05
1.4383e+05
1.4406e+05
1.4431e+05
1.4454e+05
1.4477e+05
1.45e+05
1.4525e+05
1.4548e+05
1.4572e+05
1.4596e+05
1.4621e+05
1.4644e+05
1.4668e+05
1.4692e+05
1.4717e+05
1.4741e+05
1.4764e+05
1.4811e+05
1.4835e+05
1.4859e+05
1.4885e+05
1.4908e+05
1.4931e+05
1.4957e+05
1.5006e+05
1.503e+05
1.5055e+05
1.5103e+05
1.5128e+05
1.5153e+05
1.5179e+05
1.5253e+05
1.5279e+05
1.5304e+05
1.5352e+05
1.5377e+05
1.5402e+05
1.5422e+05
1.5427e+05
1.5452e+05
1.5478e+05
1.5503e+05
1.5529e+05
1.5554e+05
1.558e+05
1.5605e+05
1.5632e+05
1.5659e+05
1.5685e+05
1.5711e+05
1.5765e+05
1.5791e+05
1.59e+05
1.5928e+05
1.5954e+05
1.598e+05
1.6008e+05
1.6013e+05
1.6036e+05
1.619e+05
1.6196e+05
1.6247e+05
1.6274e+05
1.63e+05
1.6326e+05
1.6353e+05
1.6378e+05
1.6403e+05
1.6429e+05
1.6455e+05
1.6481e+05
1.6506e+05
1.663e+05
1.6655e+05
1.668e+05
1.6731e+05
1.6759e+05
1.6788e+05
1.6815e+05
1.6866e+05
1.6871e+05
1.6899e+05
1.6926e+05
1.6948e+05
1.6955e+05
1.6982e+05
1.7005e+05
1.701e+05
1.7037e+05
1.7065e+05
1.7087e+05
1.7094e+05
1.712e+05
1.7148e+05
1.7175e+05
1.7204e+05
1.7225e+05
1.723e+05
1.7252e+05
1.7258e+05
1.7305e+05
1.731e+05
1.7338e+05
1.7365e+05
1.7391e+05
1.7417e+05
1.7443e+05
1.747e+05
1.7497e+05
1.7518e+05
1.7523e+05
1.7544e+05
1.755e+05
1.7575e+05
1.7602e+05
1.7628e+05
1.7655e+05
1.7681e+05
1.7707e+05
1.7734e+05
1.776e+05
1.7786e+05
1.7813e+05
1.7832e+05
1.7838e+05
1.7863e+05
1.789e+05
1.7916e+05
1.7943e+05
1.7968e+05
1.8019e+05
1.8044e+05
1.807e+05
1.8094e+05
1.8115e+05
1.812e+05
1.8195e+05
1.8219e+05
1.8245e+05
1.8271e+05
1.832e+05
1.8345e+05
1.8371e+05
1.8396e+05
1.8422e+05
1.8447e+05
1.8473e+05
1.8499e+05
1.8524e+05
1.8576e+05
1.8602e+05
1.8628e+05
1.8654e+05
1.8706e+05
1.8734e+05
1.876e+05
1.8782e+05
1.8786e+05
1.8836e+05
1.8842e+05
1.8869e+05
1.8896e+05
1.8924e+05
1.8952e+05
1.8975e+05
1.8981e+05
1.9009e+05
1.9034e+05
1.9039e+05
1.9062e+05
1.9067e+05
1.9095e+05
1.9124e+05
1.9151e+05
1.918e+05
1.9264e+05
1.9292e+05
1.932e+05
1.9407e+05
1.9458e+05
1.9462e+05
1.9484e+05
1.949e+05
1.9512e+05
1.952e+05
1.9546e+05
1.9572e+05
1.9599e+05
1.9627e+05
1.9654e+05
1.968e+05
1.9728e+05
1.9734e+05
1.9761e+05
1.9788e+05
1.9816e+05
1.9844e+05
1.9874e+05
1.99e+05
1.9924e+05
1.9928e+05
1.9957e+05
1.9984e+05
2.0012e+05
2.0068e+05
2.0096e+05
2.0117e+05
2.0123e+05
2.0145e+05
2.0151e+05
2.0177e+05
2.0205e+05
2.0228e+05
2.0233e+05
2.026e+05
2.028e+05
2.0287e+05
2.0308e+05
2.0316e+05
2.0335e+05
2.0341e+05
2.0364e+05
2.0369e+05
2.0396e+05
2.0423e+05
2.0444e+05
2.045e+05
2.0479e+05
2.0506e+05
2.0533e+05
2.0561e+05
2.0589e+05
2.0611e+05
2.0617e+05
2.0639e+05
2.0645e+05
2.0672e+05
2.07e+05
2.0722e+05
2.0727e+05
2.0755e+05
2.0782e+05
2.081e+05
2.0831e+05
2.0837e+05
2.0864e+05
2.0892e+05
2.092e+05
2.0944e+05
2.0948e+05
2.0978e+05
2.1007e+05
2.1037e+05
2.1065e+05
2.1089e+05
2.1095e+05
2.1123e+05
2.1151e+05
2.1181e+05
2.1208e+05
2.1236e+05
2.1262e+05
2.1291e+05
2.1318e+05
2.134e+05
2.1344e+05
2.1372e+05
2.1395e+05
2.1399e+05
2.1427e+05
2.1447e+05
2.1453e+05
2.1476e+05
2.1482e+05
2.1509e+05
2.1537e+05
2.1564e+05
2.1591e+05
2.1614e+05
2.1619e+05
2.1645e+05
2.1674e+05
2.1701e+05
2.1727e+05
2.1754e+05
2.1782e+05
2.1809e+05
2.1835e+05
2.1862e+05
2.1888e+05
2.1909e+05
2.1915e+05
2.1936e+05
2.1942e+05
2.1968e+05
2.1994e+05
2.2021e+05
2.2041e+05
2.2046e+05
2.2067e+05
2.2072e+05
2.2098e+05
2.2124e+05
2.2173e+05
2.2198e+05
2.2223e+05
2.2247e+05
2.2273e+05
2.2292e+05
2.2298e+05
2.2322e+05
2.2347e+05
2.2372e+05
2.2397e+05
2.2416e+05
2.2421e+05
2.2444e+05
2.2469e+05
2.2493e+05
2.2517e+05
2.2542e+05
2.2566e+05
2.2589e+05
2.2614e+05
2.2639e+05
2.2658e+05
2.2663e+05
2.2684e+05
2.2688e+05
2.2714e+05
2.2739e+05
2.2765e+05
2.279e+05
2.2815e+05
2.2841e+05
2.2868e+05
2.2893e+05
2.2919e+05
2.2944e+05
2.2971e+05
2.2995e+05
2.3021e+05
2.3046e+05
2.3072e+05
2.3097e+05
2.3124e+05
2.3149e+05
2.3175e+05
2.3201e+05
2.3227e+05
2.3249e+05
2.3254e+05
2.3275e+05
2.328e+05
2.3307e+05
2.3355e+05
2.336e+05
2.3387e+05
2.3409e+05
2.3413e+05
2.344e+05
2.3467e+05
2.3494e+05
2.3522e+05
2.3545e+05
2.3549e+05
2.3576e+05
2.3604e+05
2.363e+05
2.3658e+05
2.3685e+05
2.3712e+05
2.3739e+05
2.3766e+05
2.3792e+05
2.3819e+05
2.3841e+05
2.3847e+05
2.3873e+05
2.3899e+05
2.3924e+05
2.3951e+05
2.3971e+05
2.3977e+05
2.4003e+05
2.4029e+05
2.4055e+05
2.4075e+05
2.4082e+05
2.4103e+05
2.4107e+05
2.4129e+05
2.4133e+05
2.416e+05
2.4186e+05
2.4211e+05
2.4238e+05
2.4263e+05
2.4284e+05
2.4289e+05
2.4314e+05
2.4341e+05
2.4367e+05
2.4388e+05
2.4393e+05
2.4419e+05
2.4446e+05
2.4472e+05
2.4498e+05
2.4524e+05
2.4549e+05
2.4575e+05
2.4601e+05
2.4626e+05
2.4651e+05
2.4676e+05
2.4701e+05
2.4721e+05
2.4727e+05
2.4749e+05
2.4774e+05
2.4797e+05
2.4815e+05
2.482e+05
2.4843e+05
2.4866e+05
2.4889e+05
2.4913e+05
2.4937e+05
2.496e+05
2.4983e+05
2.5007e+05
2.5032e+05
2.5055e+05
2.5079e+05
2.5102e+05
2.5127e+05
2.5151e+05
2.5175e+05
2.52e+05
2.5224e+05
2.5247e+05
2.5272e+05
2.5296e+05
2.5322e+05
2.5346e+05
2.5371e+05
2.5394e+05
2.542e+05
2.5444e+05
2.5469e+05
2.5494e+05
2.5515e+05
2.552e+05
2.5545e+05
2.5596e+05
2.5647e+05
2.5667e+05
2.5671e+05
2.5696e+05
2.5722e+05
2.5747e+05
2.5773e+05
2.5799e+05
2.5851e+05
2.5876e+05
2.5899e+05
2.5903e+05
2.593e+05
2.5951e+05
2.5956e+05
2.6008e+05
2.6033e+05
2.6055e+05
2.6059e+05
2.6081e+05
2.6086e+05
2.6138e+05
2.6163e+05
2.619e+05
2.6267e+05
2.6293e+05
2.6314e+05
2.632e+05
2.6344e+05
2.637e+05
2.6422e+05
2.6448e+05
2.6474e+05
2.6496e+05
2.65e+05
2.6527e+05
2.6553e+05
2.6579e+05
2.6607e+05
2.6629e+05
2.6634e+05
2.6661e+05
2.6687e+05
2.6715e+05
2.6741e+05
2.6768e+05
2.6796e+05
2.6823e+05
2.6851e+05
2.6878e+05
2.6933e+05
2.6983e+05
2.6988e+05
2.7017e+05
2.7045e+05
2.7072e+05
2.7124e+05
2.7129e+05
2.7152e+05
2.7156e+05
2.7179e+05
2.7184e+05
2.7212e+05
2.7239e+05
2.7262e+05
2.7267e+05
2.7296e+05
2.7317e+05
2.7323e+05
2.7344e+05
2.735e+05
2.7379e+05
2.7409e+05
2.7433e+05
2.7439e+05
2.7467e+05
2.7491e+05
2.7497e+05
2.752e+05
2.7525e+05
2.7555e+05
2.7577e+05
2.7585e+05
2.7611e+05
2.764e+05
2.7662e+05
2.7668e+05
2.7691e+05
2.7696e+05
2.7749e+05
2.7803e+05
2.7829e+05
2.7883e+05
2.7911e+05
2.7932e+05
2.7939e+05
2.796e+05
2.7966e+05
2.8022e+05
2.805e+05
2.8073e+05
2.8077e+05
2.8104e+05
2.8127e+05
2.8133e+05
2.8162e+05
2.8211e+05
2.8217e+05
2.8244e+05
2.8295e+05
2.83e+05
2.8326e+05
2.8353e+05
2.8374e+05
2.838e+05
2.8408e+05
2.8435e+05
2.8484e+05
2.8489e+05
2.8542e+05
2.8569e+05
2.859e+05
2.8596e+05
2.8648e+05
2.8676e+05
2.8702e+05
2.873e+05
2.8784e+05
2.881e+05
2.8838e+05
2.8973e+05
2.8995e+05
2.9e+05
2.9082e+05
2.9109e+05
2.9132e+05
2.9137e+05
2.9218e+05
2.9272e+05
2.9299e+05
2.9325e+05
2.9379e+05
2.9406e+05
2.9432e+05
2.946e+05
2.9509e+05
2.9514e+05
2.9543e+05
2.9571e+05
2.96e+05
2.9628e+05
2.9657e+05
2.9686e+05
2.9708e+05
2.9715e+05
2.9738e+05
2.9743e+05
2.9772e+05
2.98e+05
2.9827e+05
2.9855e+05
2.9881e+05
2.9908e+05
2.9934e+05
2.9962e+05
2.9988e+05
3.0013e+05
3.0041e+05
3.0067e+05
3.0093e+05
3.0119e+05
3.0141e+05
3.0146e+05
3.0172e+05
3.0198e+05
3.0225e+05
3.0251e+05
3.0278e+05
3.0299e+05
3.0303e+05
3.033e+05
3.0355e+05
3.0381e+05
3.0407e+05
3.0427e+05
3.0433e+05
3.0459e+05
3.0486e+05
3.0513e+05
3.0541e+05
3.0569e+05
3.0597e+05
3.0625e+05
3.0649e+05
3.0654e+05
3.0676e+05
3.0682e+05
3.0734e+05
3.074e+05
3.0769e+05
3.0791e+05
3.0797e+05
3.0821e+05
3.0826e+05
3.0855e+05
3.0877e+05
3.0883e+05
3.091e+05
3.094e+05
3.0963e+05
3.0967e+05
3.099e+05
3.0996e+05
3.1026e+05
3.105e+05
3.1055e+05
3.1083e+05
3.1111e+05
3.1134e+05
3.114e+05
3.1164e+05
3.1169e+05
3.1197e+05
3.122e+05
3.1227e+05
3.1248e+05
3.1254e+05
3.1281e+05
3.1308e+05
3.1336e+05
3.1358e+05
3.1363e+05
3.1389e+05
3.1417e+05
3.1443e+05
3.1464e+05
3.147e+05
3.1495e+05
3.1523e+05
3.1549e+05
3.1575e+05
3.1601e+05
3.1623e+05
3.1628e+05
3.1649e+05
3.1654e+05
3.168e+05
3.1707e+05
3.1734e+05
3.1754e+05
3.176e+05
3.1785e+05
3.1812e+05
3.1838e+05
3.186e+05
3.1864e+05
3.1885e+05
3.189e+05
3.1916e+05
3.1943e+05
3.1969e+05
3.199e+05
3.1996e+05
3.2018e+05
3.2023e+05
3.2049e+05
3.207e+05
3.2076e+05
3.2103e+05
3.2124e+05
3.213e+05
3.2156e+05
3.216e+05
3.2182e+05
3.2208e+05
3.2229e+05
3.2234e+05
3.2261e+05
3.2288e+05
3.2315e+05
3.234e+05
3.2366e+05
3.2393e+05
3.242e+05
3.2446e+05
3.2471e+05
3.2497e+05
3.2522e+05
3.2548e+05
3.2573e+05
3.2598e+05
3.2623e+05
3.2649e+05
3.2674e+05
3.2693e+05
3.2698e+05
3.2723e+05
3.2748e+05
3.2772e+05
3.2798e+05
3.2817e+05
3.2821e+05
3.2845e+05
3.287e+05
3.2895e+05
3.2919e+05
3.2944e+05
3.2964e+05
3.2968e+05
3.2994e+05
3.3019e+05
3.3045e+05
3.307e+05
3.3096e+05
3.3117e+05
3.3121e+05
3.3147e+05
3.3174e+05
3.32e+05
3.3227e+05
3.3253e+05
3.328e+05
3.3306e+05
3.3333e+05
3.3386e+05
3.3413e+05
3.344e+05
3.3467e+05
3.349e+05
3.3495e+05
3.3521e+05
3.3576e+05
3.3598e+05
3.3602e+05
3.3624e+05
3.363e+05
3.3655e+05
3.3682e+05
3.3704e+05
3.3708e+05
3.3731e+05
3.3735e+05
3.3762e+05
3.3788e+05
3.3815e+05
3.3841e+05
3.3863e+05
3.3867e+05
3.3893e+05
3.392e+05
3.3945e+05
3.3973e+05
3.3993e+05
3.3999e+05
3.4025e+05
3.4053e+05
3.408e+05
3.4106e+05
3.4127e+05
3.4133e+05
3.4159e+05
3.4186e+05
3.4212e+05
3.4237e+05
3.4259e+05
3.4264e+05
3.4289e+05
3.4316e+05
3.4343e+05
3.4364e+05
3.4369e+05
3.4395e+05
3.4422e+05
3.4448e+05
3.4471e+05
3.4477e+05
3.4504e+05
3.4531e+05
3.4552e+05
3.4558e+05
3.4586e+05
3.4612e+05
3.4641e+05
3.4664e+05
3.4669e+05
3.4696e+05
3.4724e+05
3.4752e+05
3.478e+05
3.4808e+05
3.4835e+05
3.4857e+05
3.4864e+05
3.4884e+05
3.4891e+05
3.4917e+05
3.4945e+05
3.4972e+05
3.5e+05
3.5028e+05
3.5057e+05
3.5079e+05
3.5085e+05
3.5137e+05
3.5164e+05
3.5186e+05
3.519e+05
3.5217e+05
3.5237e+05
3.5243e+05
3.527e+05
3.5296e+05
3.5316e+05
3.5322e+05
3.5344e+05
3.5349e+05
3.5369e+05
3.5374e+05
3.5425e+05
3.5472e+05
3.5476e+05
3.5578e+05
3.5603e+05
3.5679e+05
3.5705e+05
3.573e+05
3.5751e+05
3.5756e+05
3.5783e+05
3.5809e+05
3.5836e+05
3.5858e+05
3.5863e+05
3.5891e+05
3.5918e+05
3.5947e+05
3.597e+05
3.5976e+05
3.6006e+05
3.6027e+05
3.6034e+05
3.6063e+05
3.6092e+05
3.6121e+05
3.6263e+05
3.6286e+05
3.6291e+05
3.6319e+05
3.6398e+05
3.6404e+05
3.6459e+05
3.6487e+05
3.6516e+05
3.6541e+05
3.6545e+05
3.6568e+05
3.6574e+05
3.6602e+05
3.6654e+05
3.6661e+05
3.6683e+05
3.6688e+05
3.6709e+05
3.6717e+05
3.6744e+05
3.6771e+05
3.6793e+05
3.6798e+05
3.6826e+05
3.6853e+05
3.688e+05
3.6907e+05
3.6929e+05
3.6935e+05
3.6956e+05
3.6961e+05
3.6987e+05
3.7015e+05
3.7041e+05
3.7068e+05
3.7089e+05
3.7094e+05
3.7145e+05
3.7172e+05
3.7197e+05
3.7223e+05
3.7242e+05
3.7248e+05
3.7299e+05
3.7324e+05
3.7349e+05
3.7375e+05
3.7399e+05
3.7473e+05
3.7498e+05
3.7519e+05
3.7524e+05
3.7549e+05
3.76e+05
3.7625e+05
3.7651e+05
3.7676e+05
3.7697e+05
3.7703e+05
3.7728e+05
3.7754e+05
3.778e+05
3.7807e+05
3.7832e+05
3.7885e+05
3.7913e+05
3.794e+05
3.7961e+05
3.7966e+05
3.7993e+05
3.8019e+05
3.8041e+05
3.8046e+05
3.8073e+05
3.8094e+05
3.81e+05
3.8125e+05
3.8178e+05
3.8205e+05
3.8311e+05
3.8338e+05
3.8359e+05
3.8363e+05
3.8416e+05
3.8438e+05
3.8443e+05
3.8469e+05
3.8523e+05
3.8549e+05
3.8571e+05
3.8577e+05
3.8598e+05
3.8603e+05
3.863e+05
3.8656e+05
3.8683e+05
3.871e+05
3.8731e+05
3.8737e+05
3.8818e+05
3.884e+05
3.8845e+05
3.8871e+05
3.8898e+05
3.8924e+05
3.895e+05
3.897e+05
3.8977e+05
3.9003e+05
3.9107e+05
3.9132e+05
3.921e+05
3.9236e+05
3.9261e+05
3.9312e+05
3.9338e+05
3.9363e+05
3.9389e+05
3.9414e+05
3.9463e+05
3.9489e+05
3.9515e+05
3.9541e+05
3.956e+05
3.9566e+05
3.9592e+05
3.9617e+05
3.9645e+05
3.9671e+05
3.9692e+05
3.9698e+05
3.9726e+05
3.9748e+05
3.9752e+05
3.9776e+05
3.978e+05
3.9808e+05
3.9835e+05
3.9863e+05
3.9885e+05
3.9891e+05
3.9919e+05
3.9947e+05
3.9975e+05
4.0003e+05
4.0031e+05
4.0058e+05
4.0086e+05
4.0109e+05
4.0114e+05
4.0142e+05
4.0164e+05
4.0169e+05
4.0191e+05
4.0196e+05
4.0224e+05
4.0252e+05
4.028e+05
4.0308e+05
4.0335e+05
4.0364e+05
4.0386e+05
4.0391e+05
4.0415e+05
4.0421e+05
4.0446e+05
4.0451e+05
4.0474e+05
4.048e+05
4.0505e+05
4.051e+05
4.054e+05
4.0627e+05
4.0657e+05
4.0678e+05
4.0684e+05
4.071e+05
4.0737e+05
4.0764e+05
4.0791e+05
4.0813e+05
4.0819e+05
4.0845e+05
4.0871e+05
4.0898e+05
4.0924e+05
4.0952e+05
4.0979e+05
4.1005e+05
4.1032e+05
4.1054e+05
4.1059e+05
4.1086e+05
4.1109e+05
4.1114e+05
4.1143e+05
4.117e+05
4.1199e+05
4.1226e+05
4.1254e+05
4.1281e+05
4.1308e+05
4.1331e+05
4.1336e+05
4.1363e+05
4.1389e+05
4.1416e+05
4.1443e+05
4.147e+05
4.1497e+05
4.1524e+05
4.1551e+05
4.1578e+05
4.1604e+05
4.1632e+05
4.1658e+05
4.1686e+05
4.1708e+05
4.1715e+05
4.1738e+05
4.1742e+05
4.1767e+05
4.1771e+05
4.1794e+05
4.1799e+05
4.1829e+05
4.1858e+05
4.1886e+05
4.1907e+05
4.1913e+05
4.1942e+05
4.1965e+05
4.1971e+05
4.1994e+05
4.1999e+05
4.2028e+05
4.2056e+05
4.2085e+05
4.2113e+05
4.2142e+05
4.2171e+05
4.2199e+05
4.2227e+05
4.2255e+05
4.2283e+05
4.2306e+05
4.2312e+05
4.2334e+05
4.234e+05
4.237e+05
4.2399e+05
4.2425e+05
4.243e+05
4.246e+05
4.2481e+05
4.2488e+05
4.2517e+05
4.2546e+05
4.2599e+05
4.2604e+05
4.2628e+05
4.2634e+05
4.269e+05
4.2721e+05
4.2752e+05
4.2776e+05
4.2782e+05
4.2835e+05
4.284e+05
4.2869e+05
4.2897e+05
4.2925e+05
4.2954e+05
4.2977e+05
4.2982e+05
4.301e+05
4.3039e+05
4.3063e+05
4.3067e+05
4.3095e+05
4.3123e+05
4.3151e+05
4.3174e+05
4.318e+05
4.3208e+05
4.323e+05
4.3236e+05
4.3258e+05
4.3264e+05
4.3292e+05
4.3313e+05
4.332e+05
4.3346e+05
4.3373e+05
4.3395e+05
4.3399e+05
4.3426e+05
4.3452e+05
4.3479e+05
4.3499e+05
4.3505e+05
4.3526e+05
4.353e+05
4.3556e+05
4.3582e+05
4.3608e+05
4.3628e+05
4.3633e+05
4.3659e+05
4.3684e+05
4.371e+05
4.3736e+05
4.3761e+05
4.3787e+05
4.3813e+05
4.3839e+05
4.3864e+05
4.3891e+05
4.3918e+05
4.3938e+05
4.3943e+05
4.397e+05
4.3997e+05
4.4024e+05
4.405e+05
4.4078e+05
4.4105e+05
4.4131e+05
4.4158e+05
4.4185e+05
4.4212e+05
4.4239e+05
4.4266e+05
4.4288e+05
4.4293e+05
4.4319e+05
4.4346e+05
4.4372e+05
4.44e+05
4.4422e+05
4.4427e+05
4.4453e+05
4.4481e+05
4.4508e+05
4.4529e+05
4.4535e+05
4.4561e+05
4.459e+05
4.4611e+05
4.4617e+05
4.4645e+05
4.4674e+05
4.4697e+05
4.4702e+05
4.4731e+05
4.4789e+05
4.4817e+05
4.4847e+05
4.4899e+05
4.4906e+05
4.4935e+05
4.4994e+05
4.5054e+05
4.5078e+05
4.5084e+05
4.5135e+05
4.514e+05
4.5191e+05
4.5195e+05
4.5222e+05
4.5305e+05
4.5331e+05
4.5413e+05
4.5434e+05
4.5438e+05
4.5517e+05
4.5544e+05
4.5622e+05
4.567e+05
4.5675e+05
4.5728e+05
4.5755e+05
4.5783e+05
4.581e+05
4.5838e+05
4.5862e+05
4.5866e+05
4.5888e+05
4.5894e+05
4.5915e+05
4.5921e+05
4.5975e+05
4.5996e+05
4.6003e+05
4.6024e+05
4.6029e+05
4.6056e+05
4.6076e+05
4.6082e+05
4.6109e+05
4.6137e+05
4.6218e+05
4.6247e+05
4.6274e+05
4.6303e+05
4.6325e+05
4.6331e+05
4.6386e+05
4.6441e+05
4.6461e+05
4.6467e+05
4.6494e+05
4.652e+05
4.6543e+05
4.6548e+05
4.6625e+05
4.6651e+05
4.6673e+05
4.6677e+05
4.6703e+05
4.673e+05
4.6803e+05
4.6807e+05
4.6861e+05
4.6913e+05
4.6991e+05
4.7017e+05
4.7044e+05
4.707e+05
4.7096e+05
4.7118e+05
4.7123e+05
4.7149e+05
4.7175e+05
4.7201e+05
4.7228e+05
4.7253e+05
4.7274e+05
4.7279e+05
4.7305e+05
4.7358e+05
4.7383e+05
4.7403e+05
4.7409e+05
4.7436e+05
4.7461e+05
4.7488e+05
4.7509e+05
4.7513e+05
4.7539e+05
4.7566e+05
4.7592e+05
4.7618e+05
4.7646e+05
4.7671e+05
4.7698e+05
4.7725e+05
4.7778e+05
4.7803e+05
4.783e+05
4.7857e+05
4.7877e+05
4.7883e+05
4.7909e+05
4.7937e+05
4.7961e+05
4.7982e+05
4.7988e+05
4.8041e+05
4.8067e+05
4.8092e+05
4.8113e+05
4.8118e+05
4.8169e+05
4.8195e+05
4.8221e+05
4.824e+05
4.8246e+05
4.8296e+05
4.8347e+05
4.8421e+05
4.8466e+05
4.8471e+05
4.8591e+05
4.8831e+05
4.8925e+05
4.8948e+05
4.897e+05
4.9018e+05
4.9041e+05
4.9065e+05
4.916e+05
4.9184e+05
4.9208e+05
4.926e+05
4.9305e+05
4.933e+05
4.9354e+05
4.9379e+05
4.9404e+05
4.9424e+05
4.9429e+05
4.9455e+05
4.9482e+05
4.9507e+05
4.9534e+05
4.9559e+05
4.9608e+05
4.9613e+05
4.9666e+05
4.9693e+05
4.9719e+05
4.9741e+05
4.9746e+05
4.9773e+05
4.9799e+05
4.9826e+05
4.9853e+05
4.988e+05
4.9907e+05
4.9929e+05
4.9934e+05
4.9962e+05
4.999e+05
5.0018e+05
5.0045e+05
5.0073e+05
5.0101e+05
5.0128e+05
5.0155e+05
5.0177e+05
5.0181e+05
5.0209e+05
5.0234e+05
5.0261e+05
5.0287e+05
5.0313e+05
5.0334e+05
5.034e+05
5.0366e+05
5.0391e+05
5.0417e+05
5.0444e+05
5.047e+05
5.0495e+05
5.0521e+05
5.0547e+05
5.0573e+05
5.0599e+05
5.062e+05
5.0624e+05
5.065e+05
5.0675e+05
5.07e+05
5.0726e+05
5.0752e+05
5.0772e+05
5.0777e+05
5.0803e+05
5.083e+05
5.0857e+05
5.0884e+05
5.091e+05
5.0932e+05
5.0937e+05
5.0965e+05
5.0991e+05
5.1018e+05
5.1043e+05
5.107e+05
5.1096e+05
5.1123e+05
5.115e+05
5.1176e+05
5.1203e+05
5.123e+05
5.1258e+05
5.1286e+05
5.1313e+05
5.1335e+05
5.134e+05
5.1367e+05
5.139e+05
5.1395e+05
5.1421e+05
5.1445e+05
5.1449e+05
5.1476e+05
5.1503e+05
5.153e+05
5.1557e+05
5.1578e+05
5.1584e+05
5.161e+05
5.1638e+05
5.166e+05
5.1665e+05
5.1692e+05
5.1714e+05
5.1718e+05
5.1741e+05
5.1746e+05
5.1773e+05
5.18e+05
5.1827e+05
5.1855e+05
5.1881e+05
5.1909e+05
5.1932e+05
5.1937e+05
5.1964e+05
5.1992e+05
5.2021e+05
5.2042e+05
5.2049e+05
5.2077e+05
5.2104e+05
5.2131e+05
5.2158e+05
5.2185e+05
5.2211e+05
5.2237e+05
5.2258e+05
5.2262e+05
5.2287e+05
5.2313e+05
5.2339e+05
5.2363e+05
5.2387e+05
5.2412e+05
5.2438e+05
5.2457e+05
5.2463e+05
5.2486e+05
5.2511e+05
5.2536e+05
5.256e+05
5.258e+05
5.2587e+05
5.261e+05
5.2636e+05
5.2662e+05
5.2686e+05
5.2706e+05
5.2712e+05
5.2737e+05
5.2762e+05
5.2788e+05
5.2813e+05
5.284e+05
5.2866e+05
5.2892e+05
5.2919e+05
5.2945e+05
5.2972e+05
5.2993e+05
5.2998e+05
5.3021e+05
5.3026e+05
5.3052e+05
5.3079e+05
5.3106e+05
5.3128e+05
5.3132e+05
5.3158e+05
5.318e+05
5.3185e+05
5.3212e+05
5.3234e+05
5.3238e+05
5.3266e+05
5.3286e+05
5.3291e+05
5.3319e+05
5.3345e+05
5.3372e+05
5.3399e+05
5.3421e+05
5.3426e+05
5.3452e+05
5.3479e+05
5.3506e+05
5.3533e+05
5.356e+05
5.3586e+05
5.3614e+05
5.3641e+05
5.3669e+05
5.3692e+05
5.3696e+05
5.3718e+05
5.3724e+05
5.3747e+05
5.3752e+05
5.3774e+05
5.3779e+05
5.3807e+05
5.3834e+05
5.3856e+05
5.3861e+05
5.3888e+05
5.3909e+05
5.3914e+05
5.3942e+05
5.3968e+05
5.3989e+05
5.3995e+05
5.402e+05
5.4048e+05
5.4074e+05
5.41e+05
5.412e+05
5.4125e+05
5.4152e+05
5.4177e+05
5.4204e+05
5.423e+05
5.425e+05
5.4255e+05
5.4281e+05
5.4306e+05
5.4333e+05
5.4354e+05
5.4359e+05
5.4385e+05
5.4412e+05
5.4438e+05
5.4464e+05
5.4512e+05
5.4517e+05
5.4543e+05
5.4569e+05
5.4594e+05
5.462e+05
5.4645e+05
5.4723e+05
5.4748e+05
5.4775e+05
5.4826e+05
5.4851e+05
5.4872e+05
5.4877e+05
5.4898e+05
5.4903e+05
5.4928e+05
5.4953e+05
5.5e+05
5.5004e+05
5.503e+05
5.5082e+05
5.5108e+05
5.5161e+05
5.5215e+05
5.5242e+05
5.5272e+05
5.5298e+05
5.5326e+05
5.5355e+05
5.5383e+05
5.544e+05
5.5468e+05
5.549e+05
5.5496e+05
5.5524e+05
5.5548e+05
5.5553e+05
5.5581e+05
5.5604e+05
5.5609e+05
5.5636e+05
5.5686e+05
5.5692e+05
5.5748e+05
5.5805e+05
5.5828e+05
5.5833e+05
5.5889e+05
5.5913e+05
5.5917e+05
5.5948e+05
5.5974e+05
5.5978e+05
5.6009e+05
5.604e+05
5.607e+05
5.6129e+05
5.6187e+05
5.6243e+05
5.6271e+05
5.6294e+05
5.63e+05
5.633e+05
5.6389e+05
5.6414e+05
5.6419e+05
5.65e+05
5.6505e+05
5.6528e+05
5.6533e+05
5.6561e+05
5.6588e+05
5.6616e+05
5.6643e+05
5.6665e+05
5.667e+05
5.6723e+05
5.6744e+05
5.6751e+05
5.677e+05
5.6776e+05
5.6802e+05
5.6822e+05
5.6829e+05
5.6855e+05
5.6877e+05
5.6882e+05
5.6908e+05
5.7012e+05
5.7064e+05
5.7091e+05
5.7118e+05
5.7146e+05
5.7197e+05
5.7223e+05
5.7249e+05
5.7275e+05
5.7301e+05
5.7327e+05
5.7353e+05
5.7379e+05
5.7399e+05
5.7404e+05
5.7456e+05
5.7481e+05
5.7506e+05
5.7531e+05
5.7606e+05
5.763e+05
5.7649e+05
5.7654e+05
5.7728e+05
5.7752e+05
5.7772e+05
5.7776e+05
5.7899e+05
5.7924e+05
5.7974e+05
5.8026e+05
5.8078e+05
5.813e+05
5.8155e+05
5.8259e+05
5.8278e+05
5.8284e+05
5.8335e+05
5.836e+05
5.8386e+05
5.8485e+05
5.8535e+05
5.8609e+05
5.8628e+05
5.8633e+05
5.8732e+05
5.8757e+05
5.8782e+05
5.8857e+05
5.8882e+05
5.8933e+05
5.8957e+05
5.9008e+05
5.9032e+05
5.9107e+05
5.9152e+05
5.9158e+05
5.9208e+05
5.9259e+05
5.9335e+05
5.9381e+05
5.9386e+05
5.946e+05
5.951e+05
5.9529e+05
5.9535e+05
5.9585e+05
5.9609e+05
5.9633e+05
5.9658e+05
5.9683e+05
5.9708e+05
5.9732e+05
5.9756e+05
5.9782e+05
5.9803e+05
5.9807e+05
5.9828e+05
5.9832e+05
5.9856e+05
5.9882e+05
5.9902e+05
5.9908e+05
5.9933e+05
5.9959e+05
5.9986e+05
6.0012e+05
6.0038e+05
6.006e+05
6.0064e+05
6.0091e+05
6.0117e+05
6.0142e+05
6.0168e+05
6.0194e+05
6.0213e+05
6.0218e+05
6.0239e+05
6.0244e+05
6.0269e+05
6.0294e+05
6.0319e+05
6.034e+05
6.0345e+05
6.0366e+05
6.0372e+05
6.0396e+05
6.0423e+05
6.0448e+05
6.047e+05
6.0475e+05
6.0496e+05
6.0501e+05
6.0526e+05
6.0552e+05
6.0577e+05
6.0603e+05
6.0628e+05
6.0655e+05
6.0676e+05
6.0681e+05
6.0707e+05
6.0762e+05
6.0788e+05
6.0816e+05
6.0842e+05
6.0871e+05
6.0893e+05
6.0898e+05
6.0925e+05
6.0952e+05
6.0979e+05
6.1005e+05
6.1054e+05
6.1058e+05
6.1083e+05
6.111e+05
6.1138e+05
6.1168e+05
6.1194e+05
6.1198e+05
6.1229e+05
6.1259e+05
6.1284e+05
6.1289e+05
6.1346e+05
6.1375e+05
6.1399e+05
6.1404e+05
6.1425e+05
6.1432e+05
6.1454e+05
6.146e+05
6.149e+05
6.1539e+05
6.1546e+05
6.1573e+05
6.1601e+05
6.1623e+05
6.1629e+05
6.1656e+05
6.1683e+05
6.171e+05
6.1738e+05
6.176e+05
6.1765e+05
6.1791e+05
6.1817e+05
6.1844e+05
6.1864e+05
6.187e+05
6.1892e+05
6.1896e+05
6.1922e+05
6.1944e+05
6.1948e+05
6.1974e+05
6.2001e+05
6.2022e+05
6.2027e+05
6.2052e+05
6.2078e+05
6.2103e+05
6.2129e+05
6.2156e+05
6.2182e+05
6.2207e+05
6.2232e+05
6.2259e+05
6.2283e+05
6.2309e+05
6.2334e+05
6.236e+05
6.2385e+05
6.241e+05
6.2436e+05
6.2461e+05
6.2486e+05
6.2512e+05
6.2537e+05
6.2557e+05
6.2563e+05
6.259e+05
6.2617e+05
6.2643e+05
6.267e+05
6.2691e+05
6.2697e+05
6.2725e+05
6.2752e+05
6.2779e+05
6.2805e+05
6.2833e+05
6.2859e+05
6.2887e+05
6.2914e+05
6.2941e+05
6.2963e+05
6.2967e+05
6.299e+05
6.2994e+05
6.3021e+05
6.3043e+05
6.3048e+05
6.3072e+05
6.3099e+05
6.312e+05
6.3125e+05
6.315e+05
6.317e+05
6.3176e+05
6.3202e+05
6.3227e+05
6.3252e+05
6.3277e+05
6.3303e+05
6.3329e+05
6.3354e+05
6.3379e+05
6.3405e+05
6.343e+05
6.3455e+05
6.3481e+05
6.3507e+05
6.3532e+05
6.3557e+05
6.3581e+05
6.3607e+05
6.3631e+05
6.3656e+05
6.3681e+05
6.3705e+05
6.373e+05
6.3755e+05
6.3781e+05
6.3807e+05
6.3827e+05
6.3831e+05
6.3856e+05
6.3882e+05
6.3908e+05
6.3934e+05
6.3958e+05
6.3978e+05
6.3984e+05
6.4008e+05
6.4033e+05
6.4058e+05
6.4083e+05
6.4107e+05
6.4132e+05
6.4156e+05
6.4181e+05
6.4206e+05
6.4231e+05
6.4255e+05
6.4281e+05
6.4306e+05
6.4331e+05
6.4356e+05
6.4382e+05
6.4408e+05
6.4434e+05
6.4461e+05
6.4487e+05
6.4508e+05
6.4512e+05
6.4538e+05
6.4563e+05
6.459e+05
6.4616e+05
6.464e+05
6.4666e+05
6.4692e+05
6.4718e+05
6.4744e+05
6.477e+05
6.4795e+05
6.4846e+05
6.4897e+05
6.4923e+05
6.4949e+05
