480
951
1428
1854
2265
2752
3187
3594
4081
4559
4997
5523
5999
6440
6917
7401
7844
8335
8820
9255
9720
10202
10640
11125
11608
12073
12562
13042
13459
13921
14369
14778
15201
15650
16039
16436
16872
17281
17667
18122
18551
18953
19420
19845
20244
20682
21090
21480
21926
22385
22802
23250
23688
24104
24546
24993
25392
25843
26279
26672
27050
27405
27770
28127
28466
28836
29215
29588
29991
30472
30928
31399
31864
32292
32727
33184
33602
34027
34477
34881
35301
35807
36234
36642
37148
37574
37964
38326
38668
39055
39407
39768
40151
40551
40947
41438
41938
42420
42912
43350
43793
44260
44683
45074
45488
45939
46354
46801
47258
47629
47996
48364
48738
49267
49736
50219
50698
51142
51611
52090
52516
53005
53475
53888
54325
54793
55226
55637
56113
56496
56875
57269
57687
58235
58739
59198
59677
60132
60568
61039
61469
61863
62283
62702
63095
63494
63989
64464
64868
65344
65802
66189
66550
66915
67273
67644
68156
68631
69135
69605
70081
70578
71025
71456
71940
72389
72812
73255
73670
74064
74530
74940
75307
75686
76054
76562
77033
77502
77997
78456
78911
79361
79767
80228
80656
81068
81486
81940
82333
82728
83100
83455
83832
84192
84579
85071
85539
86034
86517
86956
87380
87851
88276
88707
89156
89582
89999
90473
90905
91312
91757
92214
92629
93121
93558
93963
94418
94866
95274
95727
96173
96581
97034
97435
97808
98180
98536
98900
99611
99974
1.0034e+05
1.0084e+05
1.013e+05
1.0177e+05
1.0227e+05
1.0272e+05
1.032e+05
1.037e+05
1.0414e+05
1.0459e+05
1.0505e+05
1.0547e+05
1.0592e+05
1.064e+05
1.0684e+05
1.0729e+05
1.0777e+05
1.0821e+05
1.0867e+05
1.0916e+05
1.0959e+05
1.1006e+05
1.1052e+05
1.1094e+05
1.1139e+05
1.1182e+05
1.1218e+05
1.1254e+05
1.1291e+05
1.1326e+05
1.1368e+05
1.1421e+05
1.1469e+05
1.1517e+05
1.1563e+05
1.1608e+05
1.1657e+05
1.1701e+05
1.1745e+05
1.1791e+05
1.1832e+05
1.1878e+05
1.1925e+05
1.1967e+05
1.2013e+05
1.2059e+05
1.2101e+05
1.2148e+05
1.2195e+05
1.2237e+05
1.228e+05
1.2319e+05
1.2355e+05
1.2392e+05
1.2428e+05
1.2467e+05
1.2521e+05
1.257e+05
1.2619e+05
1.2668e+05
1.2712e+05
1.276e+05
1.2808e+05
1.285e+05
1.2895e+05
1.2941e+05
1.2983e+05
1.3024e+05
1.3069e+05
1.3112e+05
1.3152e+05
1.3194e+05
1.3233e+05
1.3276e+05
1.3321e+05
1.3364e+05
1.3409e+05
1.3455e+05
1.3496e+05
1.354e+05
1.358e+05
1.3623e+05
1.3668e+05
1.371e+05
1.3751e+05
1.3794e+05
1.383e+05
1.3866e+05
1.3902e+05
1.3938e+05
1.3976e+05
1.4025e+05
1.4072e+05
1.4116e+05
1.4166e+05
1.4212e+05
1.4258e+05
1.4304e+05
1.4345e+05
1.439e+05
1.4434e+05
1.4475e+05
1.452e+05
1.4565e+05
1.4603e+05
1.4646e+05
1.469e+05
1.473e+05
1.4768e+05
1.4808e+05
1.4844e+05
1.488e+05
1.4916e+05
1.4952e+05
1.4992e+05
1.5039e+05
1.5084e+05
1.5824e+05
1.5952e+05
1.6079e+05
1.6198e+05
1.6267e+05
1.63e+05
1.6335e+05
1.6374e+05
1.6412e+05
1.6449e+05
1.7091e+05
1.7127e+05
1.7711e+05
1.7844e+05
1.7986e+05
1.8033e+05
1.8127e+05
1.8174e+05
1.8265e+05
1.8397e+05
1.8475e+05
1.8512e+05
1.8549e+05
3.9795e+05
4.0056e+05
4.011e+05
4.0309e+05
4.0397e+05
4.0431e+05
4.0475e+05
4.0519e+05
4.0566e+05
4.0779e+05
4.0866e+05
4.091e+05
4.0955e+05
4.0998e+05
4.1045e+05
4.1129e+05
4.1173e+05
4.1211e+05
4.1252e+05
4.1301e+05
4.139e+05
4.1489e+05
4.1521e+05
4.165e+05
4.1698e+05
4.174e+05
4.1783e+05
4.1916e+05
4.2002e+05
4.2041e+05
4.2083e+05
4.2129e+05
4.217e+05
4.2215e+05
4.2267e+05
4.2308e+05
4.2342e+05
4.2385e+05
4.2465e+05
4.2507e+05
4.2549e+05
4.2587e+05
4.2713e+05
4.2802e+05
4.2842e+05
4.2964e+05
4.3164e+05
4.3255e+05
4.3354e+05
4.3445e+05
4.3523e+05
4.3569e+05
4.361e+05
4.3656e+05
4.3701e+05
4.3741e+05
4.3785e+05
4.383e+05
4.3869e+05
4.391e+05
4.3953e+05
4.3994e+05
4.4035e+05
4.4083e+05
4.4133e+05
4.4176e+05
4.4224e+05
4.4271e+05
4.4313e+05
4.4359e+05
4.4406e+05
4.4447e+05
4.4492e+05
4.4537e+05
4.4577e+05
4.4622e+05
4.4707e+05
4.4745e+05
4.4879e+05
4.5142e+05
4.5188e+05
4.5273e+05
4.5314e+05
4.5362e+05
4.5406e+05
4.5448e+05
4.5493e+05
4.5537e+05
4.5576e+05
4.57e+05
4.5741e+05
4.5783e+05
4.5822e+05
4.5862e+05
4.5949e+05
4.599e+05
4.6033e+05
4.6119e+05
4.6255e+05
4.6393e+05
4.6438e+05
4.6529e+05
4.657e+05
4.6616e+05
4.6662e+05
4.6703e+05
4.6833e+05
4.6959e+05
4.7092e+05
4.7257e+05
4.7387e+05
4.7514e+05
4.7555e+05
4.7637e+05
4.7673e+05
4.7708e+05
4.7742e+05
4.7777e+05
4.7812e+05
4.7847e+05
4.7882e+05
4.7916e+05
4.7954e+05
4.8007e+05
4.8054e+05
4.8099e+05
4.815e+05
4.8196e+05
4.8241e+05
4.8292e+05
4.8339e+05
4.838e+05
4.8489e+05
4.8524e+05
4.8558e+05
4.8592e+05
4.95e+05
4.9648e+05
4.9674e+05
4.9721e+05
4.9762e+05
4.9799e+05
4.9851e+05
4.9883e+05
4.9939e+05
4.9986e+05
5.0035e+05
5.0074e+05
5.0119e+05
5.0159e+05
5.0202e+05
5.0249e+05
5.0281e+05
5.032e+05
5.0372e+05
5.042e+05
5.0467e+05
5.0505e+05
5.0546e+05
5.0555e+05
5.0587e+05
5.0624e+05
5.0667e+05
5.0693e+05
5.0727e+05
5.077e+05
5.0793e+05
5.0805e+05
5.0856e+05
5.09e+05
5.0909e+05
5.0937e+05
5.1006e+05
5.1058e+05
5.1148e+05
5.1189e+05
5.1234e+05
5.1242e+05
5.1279e+05
5.1324e+05
5.1358e+05
5.1408e+05
5.1453e+05
5.1462e+05
5.1506e+05
5.1545e+05
5.1584e+05
5.1629e+05
5.1679e+05
5.1711e+05
5.1739e+05
5.1919e+05
5.1962e+05
5.2086e+05
5.2598e+05
5.2702e+05
5.2774e+05
5.3544e+05
5.3628e+05
5.3667e+05
5.3716e+05
5.3764e+05
5.3813e+05
5.3851e+05
5.3889e+05
5.3928e+05
5.3964e+05
5.4004e+05
5.4052e+05
5.4102e+05
5.4154e+05
5.4205e+05
5.4252e+05
5.4301e+05
5.4347e+05
5.4389e+05
5.4435e+05
5.4479e+05
5.452e+05
5.4561e+05
5.4608e+05
5.4641e+05
5.4679e+05
5.4717e+05
5.4753e+05
5.4789e+05
5.4826e+05
5.4863e+05
5.49e+05
5.4946e+05
5.4993e+05
5.5041e+05
5.5132e+05
5.5174e+05
5.5223e+05
5.527e+05
5.5312e+05
5.5358e+05
5.54e+05
5.544e+05
5.5528e+05
5.5569e+05
5.5615e+05
5.5664e+05
5.5702e+05
5.5738e+05
5.5775e+05
5.581e+05
5.5847e+05
5.5887e+05
5.5937e+05
5.5987e+05
5.6086e+05
5.6227e+05
5.6271e+05
5.6358e+05
5.6401e+05
5.6527e+05
5.6565e+05
5.6601e+05
5.6637e+05
5.6716e+05
5.6759e+05
5.686e+05
5.6906e+05
5.7e+05
5.7042e+05
5.713e+05
5.7171e+05
5.7216e+05
5.7308e+05
5.7357e+05
5.7401e+05
5.7536e+05
5.7586e+05
5.7635e+05
5.7677e+05
5.7722e+05
5.7767e+05
5.7804e+05
5.784e+05
5.7877e+05
5.7913e+05
5.7951e+05
5.8004e+05
5.805e+05
5.81e+05
5.8146e+05
5.8191e+05
5.8239e+05
5.8282e+05
5.8323e+05
5.8414e+05
5.8458e+05
5.8592e+05
5.8681e+05
5.8722e+05
5.8808e+05
5.8849e+05
5.8894e+05
5.8936e+05
5.8977e+05
5.9069e+05
5.9111e+05
5.9203e+05
5.9244e+05
5.9289e+05
5.933e+05
5.9369e+05
5.9412e+05
5.9455e+05
5.9495e+05
5.9631e+05
5.9676e+05
5.9716e+05
5.9767e+05
5.9809e+05
5.9857e+05
5.9893e+05
5.9937e+05
6.0005e+05
6.005e+05
6.0085e+05
6.0114e+05
6.017e+05
6.0211e+05
6.0259e+05
6.0309e+05
6.0367e+05
6.0471e+05
6.0503e+05
6.0563e+05
6.0598e+05
6.0643e+05
6.0686e+05
6.0722e+05
6.0771e+05
6.0824e+05
6.0858e+05
6.0906e+05
6.0942e+05
6.0993e+05
6.1036e+05
6.1117e+05
6.116e+05
6.121e+05
6.1235e+05
6.1287e+05
6.1331e+05
6.1366e+05
6.1415e+05
6.1455e+05
6.1501e+05
6.1545e+05
6.1585e+05
6.1634e+05
6.1662e+05
6.1702e+05
6.1745e+05
6.1825e+05
6.1853e+05
6.189e+05
6.1936e+05
6.1948e+05
6.1987e+05
6.2094e+05
6.2137e+05
6.2184e+05
6.223e+05
6.2272e+05
6.2304e+05
6.2355e+05
6.2398e+05
6.2427e+05
6.2482e+05
6.2518e+05
6.2565e+05
6.2618e+05
6.269e+05
6.2733e+05
6.2777e+05
6.2811e+05
6.2865e+05
6.2923e+05
6.2959e+05
6.3002e+05
6.3045e+05
6.3095e+05
6.3138e+05
6.3173e+05
6.3224e+05
6.3267e+05
6.3314e+05
6.3357e+05
6.3405e+05
6.3443e+05
6.3496e+05
6.3537e+05
6.3572e+05
6.3615e+05
6.3655e+05
6.3698e+05
6.3744e+05
6.3786e+05
6.3825e+05
6.3867e+05
6.3908e+05
6.3949e+05
6.399e+05
6.403e+05
6.4067e+05
6.4101e+05
6.4135e+05
6.4169e+05
6.4202e+05
6.4238e+05
6.4274e+05
6.4314e+05
6.4355e+05
6.4393e+05
6.4433e+05
6.4471e+05
6.4508e+05
6.4543e+05
6.4588e+05
6.4628e+05
6.4666e+05
-1
664
1134
1612
2036
2454
2935
3375
3778
4272
4743
5191
5710
6187
6625
7109
7589
8039
8526
9009
9443
9911
10389
10833
11314
11800
12261
12756
13229
13650
14106
14557
14962
15391
15834
16227
16629
17064
17470
17853
18310
18735
19140
19607
20025
20432
20870
21282
21665
22120
22571
22990
23436
23876
24288
24735
25177
25574
26026
26464
26860
27233
27593
27950
28309
28654
29023
29402
29771
30178
30659
31112
31585
32051
32482
32912
33376
33791
34218
34661
35070
35486
35996
36418
36825
37331
37761
38145
38508
38858
38960
39214
39280
39588
39952
40338
40740
41133
41631
42128
42611
43101
43539
43980
44452
44868
45252
45673
46124
46542
46989
47450
47815
48181
48543
48926
49450
49921
50401
50878
51326
51798
52276
52701
53192
53657
54073
54513
54985
55413
55832
56300
56682
57059
57456
57873
58421
58924
59383
59864
60321
60755
61226
61653
62044
62470
62886
63286
63683
64186
64654
65057
65533
65990
66369
66732
67103
67458
67832
68342
68825
69321
69798
70269
70765
71210
71646
72125
72581
73003
73447
73857
74252
74715
75122
75490
75869
76244
76750
77228
77691
78192
78644
79102
79545
79957
80413
80848
81253
81670
82123
82520
82918
83284
83640
84014
84377
84767
85262
85732
86222
86708
87141
87571
88035
88466
88893
89349
89769
90184
90658
91092
91497
91941
92399
92814
93306
93743
94154
94605
95057
95464
95916
96360
96766
97221
97618
97993
98367
98722
99084
99437
99801
1.0016e+05
1.0053e+05
1.0103e+05
1.0149e+05
1.0154e+05
1.0196e+05
1.0246e+05
1.0291e+05
1.0295e+05
1.0339e+05
1.0389e+05
1.0433e+05
1.0478e+05
1.0524e+05
1.0566e+05
1.0611e+05
1.0658e+05
1.0703e+05
1.0748e+05
1.0796e+05
1.084e+05
1.0886e+05
1.0935e+05
1.0978e+05
1.1025e+05
1.1071e+05
1.1113e+05
1.1158e+05
1.12e+05
1.1236e+05
1.1273e+05
1.1309e+05
1.1345e+05
1.1386e+05
1.144e+05
1.1487e+05
1.1536e+05
1.1581e+05
1.1627e+05
1.1675e+05
1.172e+05
1.1764e+05
1.1809e+05
1.1851e+05
1.1897e+05
1.1944e+05
1.1986e+05
1.2032e+05
1.2078e+05
1.212e+05
1.2167e+05
1.2214e+05
1.2255e+05
1.2299e+05
1.2338e+05
1.2373e+05
1.241e+05
1.2447e+05
1.2486e+05
1.254e+05
1.2589e+05
1.2637e+05
1.2686e+05
1.2731e+05
1.2779e+05
1.2826e+05
1.2869e+05
1.2914e+05
1.296e+05
1.3002e+05
1.3043e+05
1.3087e+05
1.313e+05
1.317e+05
1.3212e+05
1.3252e+05
1.3294e+05
1.334e+05
1.3382e+05
1.3428e+05
1.3473e+05
1.3515e+05
1.3558e+05
1.3599e+05
1.3641e+05
1.3687e+05
1.3728e+05
1.377e+05
1.3812e+05
1.3849e+05
1.3884e+05
1.3921e+05
1.3957e+05
1.3995e+05
1.4043e+05
1.4091e+05
1.4135e+05
1.4185e+05
1.423e+05
1.4277e+05
1.4323e+05
1.4364e+05
1.4409e+05
1.4453e+05
1.4494e+05
1.454e+05
1.4584e+05
1.4622e+05
1.4665e+05
1.4709e+05
1.4748e+05
1.4787e+05
1.4827e+05
1.4862e+05
1.4898e+05
1.4934e+05
1.4971e+05
1.5011e+05
1.5057e+05
1.5103e+05
1.5843e+05
1.5859e+05
1.597e+05
1.6098e+05
1.6215e+05
1.623e+05
1.6285e+05
1.6288e+05
1.6318e+05
1.6323e+05
1.6354e+05
1.6393e+05
1.643e+05
1.6468e+05
1.711e+05
1.7145e+05
1.716e+05
1.773e+05
1.7746e+05
1.7863e+05
1.8005e+05
1.8052e+05
1.8145e+05
1.8193e+05
1.8284e+05
1.8415e+05
1.8493e+05
1.853e+05
1.8568e+05
1.9908e+05
1.9978e+05
2.0046e+05
2.008e+05
2.0149e+05
2.0835e+05
2.0909e+05
2.0985e+05
2.1508e+05
2.1631e+05
2.1901e+05
2.1904e+05
2.1984e+05
2.2038e+05
2.2124e+05
2.2157e+05
2.2197e+05
2.2236e+05
2.2255e+05
2.2325e+05
2.2644e+05
2.2778e+05
2.2994e+05
2.3039e+05
2.3124e+05
2.3172e+05
2.3879e+05
2.3922e+05
2.3966e+05
2.4007e+05
2.4049e+05
2.4088e+05
2.4104e+05
2.4161e+05
2.4196e+05
2.4231e+05
2.4246e+05
2.4305e+05
2.4355e+05
2.4403e+05
2.4453e+05
2.4496e+05
2.4541e+05
2.4588e+05
2.4632e+05
2.4675e+05
2.4723e+05
2.4764e+05
2.4812e+05
2.486e+05
2.4901e+05
2.4947e+05
2.4994e+05
2.5036e+05
2.5082e+05
2.5131e+05
2.5173e+05
2.5219e+05
2.5263e+05
2.5305e+05
2.535e+05
2.5393e+05
2.5434e+05
2.5479e+05
2.5522e+05
2.5564e+05
2.5609e+05
2.5655e+05
2.5695e+05
2.5785e+05
2.5827e+05
2.5873e+05
2.5918e+05
2.5958e+05
2.6045e+05
2.6086e+05
2.6169e+05
2.6208e+05
2.6332e+05
2.6419e+05
2.646e+05
2.6552e+05
2.6594e+05
2.6728e+05
2.7415e+05
2.7451e+05
2.7485e+05
2.7519e+05
2.7554e+05
2.759e+05
2.7638e+05
2.7676e+05
2.7715e+05
2.7755e+05
2.78e+05
2.7845e+05
2.7888e+05
2.7933e+05
2.802e+05
2.8064e+05
2.8152e+05
2.82e+05
2.8295e+05
2.8438e+05
2.8485e+05
2.8578e+05
2.8713e+05
2.885e+05
2.898e+05
2.9094e+05
2.9129e+05
2.9142e+05
2.9199e+05
2.9236e+05
2.934e+05
2.9392e+05
2.9439e+05
2.9484e+05
2.9575e+05
2.958e+05
2.9619e+05
2.9707e+05
2.9799e+05
3.3812e+05
3.3858e+05
3.3905e+05
3.3947e+05
3.3994e+05
3.4039e+05
3.408e+05
3.4123e+05
3.4171e+05
3.4212e+05
3.4253e+05
3.4297e+05
3.434e+05
3.438e+05
3.4427e+05
3.4471e+05
3.4512e+05
3.4557e+05
3.4601e+05
3.464e+05
3.4681e+05
3.4723e+05
3.4761e+05
3.48e+05
3.4842e+05
3.4885e+05
3.4924e+05
3.4968e+05
3.5014e+05
3.5055e+05
3.5101e+05
3.5148e+05
3.519e+05
3.5236e+05
3.5283e+05
3.5324e+05
3.537e+05
3.5415e+05
3.5455e+05
3.5497e+05
3.5542e+05
3.5583e+05
3.5627e+05
3.5674e+05
3.5716e+05
3.5758e+05
3.5803e+05
3.5847e+05
3.5888e+05
3.5934e+05
3.598e+05
3.6021e+05
3.6067e+05
3.6113e+05
3.6153e+05
3.6196e+05
3.6238e+05
3.6278e+05
3.6319e+05
3.6362e+05
3.6405e+05
3.6443e+05
3.6485e+05
3.6566e+05
3.6702e+05
3.6833e+05
3.6963e+05
3.7129e+05
3.7258e+05
3.7388e+05
3.7431e+05
3.7517e+05
3.7562e+05
3.7609e+05
3.7651e+05
3.7695e+05
3.7735e+05
3.777e+05
3.7806e+05
3.7841e+05
3.7874e+05
3.7907e+05
3.7941e+05
3.798e+05
3.802e+05
3.8121e+05
3.8125e+05
3.8266e+05
3.827e+05
3.8313e+05
3.8406e+05
3.845e+05
3.9792e+05
3.9833e+05
3.9869e+05
3.9904e+05
3.994e+05
3.9972e+05
4.0011e+05
4.0049e+05
4.0085e+05
4.0136e+05
4.0159e+05
4.0192e+05
4.0228e+05
4.0236e+05
4.0257e+05
4.039e+05
4.0416e+05
4.045e+05
4.0495e+05
4.0538e+05
4.0625e+05
4.0694e+05
4.0734e+05
4.0772e+05
4.0818e+05
4.0858e+05
4.0891e+05
4.0928e+05
4.0974e+05
4.0978e+05
4.1017e+05
4.1064e+05
4.1094e+05
4.1149e+05
4.1192e+05
4.123e+05
4.1271e+05
4.132e+05
4.1366e+05
4.141e+05
4.1456e+05
4.154e+05
4.1572e+05
4.1617e+05
4.1669e+05
4.1717e+05
4.1759e+05
4.1802e+05
4.1849e+05
4.188e+05
4.1935e+05
4.198e+05
4.2022e+05
4.206e+05
4.2102e+05
4.2148e+05
4.2189e+05
4.2234e+05
4.2305e+05
4.2334e+05
4.2361e+05
4.2404e+05
4.2445e+05
4.2483e+05
4.2526e+05
4.2567e+05
4.2605e+05
4.2649e+05
4.2693e+05
4.2733e+05
4.2776e+05
4.2821e+05
4.2861e+05
4.2903e+05
4.2941e+05
4.3e+05
4.3035e+05
4.307e+05
4.3124e+05
4.3194e+05
4.3218e+05
4.3241e+05
4.3267e+05
4.3341e+05
4.3432e+05
4.3475e+05
4.3492e+05
4.3505e+05
4.3536e+05
4.3559e+05
4.3581e+05
4.3596e+05
4.3622e+05
4.3644e+05
4.3669e+05
4.3682e+05
4.3689e+05
4.3719e+05
4.376e+05
4.3804e+05
4.3849e+05
4.3888e+05
4.393e+05
4.3972e+05
4.4013e+05
4.4054e+05
4.4102e+05
4.4151e+05
4.4195e+05
4.4243e+05
4.4289e+05
4.4332e+05
4.4378e+05
4.4425e+05
4.4465e+05
4.4511e+05
4.4556e+05
4.4596e+05
4.4641e+05
4.4725e+05
4.4765e+05
4.4897e+05
4.5161e+05
4.5207e+05
4.5292e+05
4.5334e+05
4.5381e+05
4.5425e+05
4.5468e+05
4.5513e+05
4.5555e+05
4.5595e+05
4.5719e+05
4.576e+05
4.5803e+05
4.5841e+05
4.5881e+05
4.5967e+05
4.6008e+05
4.6052e+05
4.6138e+05
4.6274e+05
4.6411e+05
4.6457e+05
4.6548e+05
4.6589e+05
4.6636e+05
4.6681e+05
4.6723e+05
4.6852e+05
4.6978e+05
4.7111e+05
4.7276e+05
4.7406e+05
4.7533e+05
4.7574e+05
4.7656e+05
4.7691e+05
4.7727e+05
4.7761e+05
4.7796e+05
4.7831e+05
4.7866e+05
4.79e+05
4.7936e+05
4.7973e+05
4.8027e+05
4.8073e+05
4.8076e+05
4.8119e+05
4.8169e+05
4.8215e+05
4.822e+05
4.826e+05
4.8311e+05
4.8358e+05
4.8362e+05
4.8399e+05
4.8508e+05
4.8542e+05
4.8576e+05
4.861e+05
4.8625e+05
4.952e+05
4.9668e+05
4.9694e+05
4.974e+05
4.9781e+05
4.9815e+05
4.9869e+05
4.991e+05
4.9958e+05
4.9994e+05
5.0054e+05
5.0067e+05
5.0093e+05
5.0138e+05
5.0178e+05
5.0221e+05
5.0275e+05
5.0299e+05
5.0331e+05
5.0333e+05
5.0363e+05
5.0391e+05
5.0459e+05
5.0485e+05
5.0498e+05
5.0524e+05
5.0574e+05
5.0605e+05
5.0643e+05
5.0656e+05
5.0687e+05
5.0712e+05
5.0745e+05
5.0757e+05
5.0787e+05
5.0875e+05
5.0927e+05
5.0934e+05
5.0954e+05
5.1036e+05
5.1094e+05
5.1167e+05
5.1182e+05
5.1208e+05
5.126e+05
5.1274e+05
5.1298e+05
5.1343e+05
5.1374e+05
5.1395e+05
5.1427e+05
5.1497e+05
5.1529e+05
5.1538e+05
5.1565e+05
5.1578e+05
5.1596e+05
5.161e+05
5.1648e+05
5.1698e+05
5.1724e+05
5.1758e+05
5.1954e+05
5.2001e+05
5.2117e+05
5.2633e+05
5.2737e+05
5.2809e+05
5.3583e+05
5.3647e+05
5.3656e+05
5.3686e+05
5.3735e+05
5.3782e+05
5.3831e+05
5.387e+05
5.3908e+05
5.3946e+05
5.3984e+05
5.4023e+05
5.4071e+05
5.4121e+05
5.4173e+05
5.4224e+05
5.4271e+05
5.432e+05
5.4366e+05
5.4409e+05
5.4454e+05
5.4498e+05
5.4539e+05
5.4588e+05
5.4624e+05
5.466e+05
5.4698e+05
5.4737e+05
5.4772e+05
5.4808e+05
5.4845e+05
5.4881e+05
5.4919e+05
5.4964e+05
5.5012e+05
5.5059e+05
5.5151e+05
5.5194e+05
5.5242e+05
5.529e+05
5.5331e+05
5.5377e+05
5.5419e+05
5.5459e+05
5.5547e+05
5.5588e+05
5.5634e+05
5.5682e+05
5.5721e+05
5.5758e+05
5.5793e+05
5.5829e+05
5.5866e+05
5.5906e+05
5.5956e+05
5.6006e+05
5.6105e+05
5.6246e+05
5.629e+05
5.6377e+05
5.6421e+05
5.6547e+05
5.6583e+05
5.662e+05
5.6656e+05
5.667e+05
5.6735e+05
5.6778e+05
5.6879e+05
5.6924e+05
5.7019e+05
5.7023e+05
5.7062e+05
5.715e+05
5.719e+05
5.7236e+05
5.7328e+05
5.7376e+05
5.742e+05
5.7554e+05
5.7605e+05
5.7654e+05
5.7696e+05
5.7741e+05
5.7785e+05
5.7823e+05
5.7859e+05
5.7896e+05
5.7932e+05
5.797e+05
5.8022e+05
5.8069e+05
5.8119e+05
5.8166e+05
5.821e+05
5.8258e+05
5.8301e+05
5.8306e+05
5.8342e+05
5.8434e+05
5.8477e+05
5.8611e+05
5.87e+05
5.8741e+05
5.8827e+05
5.8868e+05
5.8913e+05
5.8955e+05
5.8997e+05
5.9088e+05
5.913e+05
5.9222e+05
5.9262e+05
5.9308e+05
5.9349e+05
5.9388e+05
5.9431e+05
5.9474e+05
5.9514e+05
5.9609e+05
5.965e+05
5.9695e+05
5.9744e+05
5.9786e+05
5.9828e+05
5.9875e+05
5.9906e+05
5.9956e+05
6.0026e+05
6.0069e+05
6.0104e+05
6.0129e+05
6.019e+05
6.0223e+05
6.0272e+05
6.0323e+05
6.0385e+05
6.0432e+05
6.0495e+05
6.0518e+05
6.0581e+05
6.0589e+05
6.0617e+05
6.0662e+05
6.0705e+05
6.0735e+05
6.0791e+05
6.0878e+05
6.0925e+05
6.0971e+05
6.1012e+05
6.1055e+05
6.1097e+05
6.1136e+05
6.1179e+05
6.1229e+05
6.1249e+05
6.1306e+05
6.135e+05
6.1392e+05
6.1438e+05
6.1481e+05
6.152e+05
6.1564e+05
6.1605e+05
6.1651e+05
6.166e+05
6.1686e+05
6.1727e+05
6.1764e+05
6.18e+05
6.1841e+05
6.1871e+05
6.1909e+05
6.1973e+05
6.2006e+05
6.2056e+05
6.2132e+05
6.2176e+05
6.2222e+05
6.2265e+05
6.2292e+05
6.2327e+05
6.2374e+05
6.2416e+05
6.2421e+05
6.2456e+05
6.2501e+05
6.2533e+05
6.2584e+05
6.2637e+05
6.2641e+05
6.2657e+05
6.2709e+05
6.2753e+05
6.2796e+05
6.2825e+05
6.2884e+05
6.2942e+05
6.2952e+05
6.2977e+05
6.302e+05
6.3064e+05
6.3129e+05
6.3166e+05
6.3197e+05
6.3243e+05
6.3287e+05
6.3333e+05
6.3377e+05
6.3425e+05
6.3463e+05
6.3529e+05
6.3532e+05
6.3557e+05
6.3567e+05
6.3591e+05
6.3634e+05
6.3674e+05
6.3717e+05
6.3764e+05
6.3805e+05
6.3844e+05
6.3886e+05
6.3928e+05
6.3968e+05
6.4009e+05
6.4049e+05
6.4086e+05
6.412e+05
6.4154e+05
6.4187e+05
6.4222e+05
6.4257e+05
6.4293e+05
6.4333e+05
6.4374e+05
6.4412e+05
6.4427e+05
6.4452e+05
6.4468e+05
6.4491e+05
6.4526e+05
6.4531e+05
6.4562e+05
6.4567e+05
6.4607e+05
6.4647e+05
6.4685e+05
