184
1063
1494
2825
3685
6265
6693
8435
8877
10594
11459
11895
13171
14037
14461
14922
15351
16244
17582
18921
19358
19802
21588
22931
24308
24751
25629
28221
28666
29082
29517
30395
31703
32131
33451
34328
38302
38758
40116
41895
42766
45795
47999
49726
51475
54461
55337
59236
62676
63093
63949
64364
64816
65231
66080
66512
68255
68705
70882
72201
73074
74373
78804
79240
85887
86767
87630
88953
90258
91543
93718
94158
94576
95831
1.64e+05
1.6439e+05
1.8165e+05
2.4913e+05
2.5349e+05
2.5587e+05
2.7124e+05
2.991e+05
2.9953e+05
3.0288e+05
3.0566e+05
3.0778e+05
3.0866e+05
3.0983e+05
3.1103e+05
3.1599e+05
3.4466e+05
3.4503e+05
3.5048e+05
3.5128e+05
3.5177e+05
3.5887e+05
3.6428e+05
3.6551e+05
3.7309e+05
3.7892e+05
3.801e+05
3.8093e+05
3.8738e+05
3.8784e+05
3.8946e+05
3.9248e+05
4.199e+05
4.3891e+05
4.3943e+05
4.4361e+05
4.4612e+05
4.4699e+05
4.4909e+05
4.5074e+05
4.532e+05
4.5477e+05
4.5525e+05
4.5568e+05
4.5778e+05
4.5904e+05
4.5987e+05
4.6195e+05
4.6285e+05
4.6447e+05
4.6624e+05
4.7205e+05
4.7367e+05
4.7441e+05
4.7697e+05
4.7809e+05
4.7889e+05
4.7927e+05
4.7966e+05
4.8002e+05
4.8081e+05
4.8163e+05
4.8328e+05
4.8371e+05
4.8413e+05
4.8449e+05
4.8491e+05
4.8607e+05
4.8685e+05
4.8725e+05
4.8761e+05
4.884e+05
4.8921e+05
4.8957e+05
4.9001e+05
4.904e+05
4.912e+05
4.9237e+05
4.9276e+05
4.9315e+05
4.9353e+05
4.9393e+05
4.9433e+05
4.947e+05
4.9551e+05
4.9592e+05
5.0219e+05
5.1203e+05
5.1434e+05
5.1471e+05
5.3032e+05
5.3874e+05
6.3788e+05
6.394e+05
6.4092e+05
6.4905e+05
6.4943e+05
-1
346
388
785
823
1219
1257
1655
1695
2088
2126
2541
2581
2988
3029
3406
3444
3842
3880
4257
4297
4694
4733
5109
5149
5556
5599
5976
6014
6426
6465
6852
6892
7298
7336
7732
7771
8168
8210
8601
8641
9034
9071
9455
9496
9892
9931
10325
10366
10755
10793
11186
11225
11621
11661
12052
12088
12482
12520
12912
12952
13332
13374
13764
13807
14201
14244
14628
14670
15079
15120
15518
15564
15963
16004
16415
16454
16864
16905
17300
17338
17747
17786
18189
18231
18638
18678
19080
19120
19517
19558
19968
20008
20423
20462
20865
20907
21319
21359
21752
21793
22187
22227
22632
22673
23093
23129
23520
23562
23998
24039
24465
24506
24909
24948
25350
25388
25794
25833
26204
26243
26633
26675
27057
27097
27493
27534
27948
27989
28381
28425
28824
28863
29235
29273
29676
29717
30121
30157
30553
30590
30982
31022
31421
31459
31857
31896
32296
32336
32747
32786
33185
33224
33616
33654
34058
34097
34503
34540
34936
34974
35365
35404
35794
35834
36224
36266
36686
36730
37139
37176
37581
37620
38031
38071
38476
38518
38919
38956
39375
39412
39822
39862
40271
40312
40740
40779
41188
41226
41617
41658
42058
42097
42487
42526
42917
42953
43346
43386
43784
43826
44205
44245
44656
44696
45077
45118
45521
45562
45959
46002
46401
46443
46845
46883
47266
47308
47708
47751
48153
48194
48590
48630
49026
49066
49447
49484
49887
49926
50310
50350
50745
50786
51182
51219
51609
51646
52047
52088
52488
52531
52927
52964
53341
53381
53765
53806
54204
54243
54636
54677
55070
55111
55495
55534
55934
55975
56375
56413
56807
56849
57247
57286
57665
57707
58111
58151
58540
58585
58971
59010
59392
59430
59823
59863
60261
60300
60686
60727
61113
61153
61527
61568
61971
62009
62396
62436
62831
62872
63256
63296
63673
63713
64102
64144
64526
64569
64962
65000
65382
65421
65810
65852
66242
66282
66676
66717
67108
67151
67541
67583
67988
68029
68423
68467
68862
68904
69294
69335
69719
69761
70165
70207
70611
70650
71036
71078
71481
71520
71934
71974
72362
72403
72819
72860
73245
73285
73674
73716
74104
74142
74539
74580
74976
75012
75405
75444
75854
75896
76302
76341
76760
76800
77204
77247
77644
77685
78086
78125
78526
78567
78974
79013
79407
79448
79871
79912
80329
80368
80776
80816
81215
81259
81659
81700
82105
82142
82540
82584
82980
83020
83414
83454
83848
83890
84296
84336
84742
84783
85175
85216
85610
85650
86051
86092
86480
86517
86920
86959
87355
87395
87787
87825
88232
88271
88685
88727
89118
89156
89556
89596
89988
90032
90417
90455
90854
90893
91282
91322
91704
91745
92145
92185
92577
92621
93025
93065
93452
93494
93876
93918
94308
94346
94739
94778
95152
95192
95564
95605
95991
96033
96398
96437
96830
96872
97245
97287
97671
97712
98101
98139
98509
98551
98930
98971
99731
99773
1.0014e+05
1.0018e+05
1.0052e+05
1.0058e+05
1.0093e+05
1.0097e+05
1.0135e+05
1.0172e+05
1.0205e+05
1.0209e+05
1.0245e+05
1.0275e+05
1.0282e+05
1.0313e+05
1.0318e+05
1.0355e+05
1.0386e+05
1.039e+05
1.0425e+05
1.0432e+05
1.0461e+05
1.0492e+05
1.0496e+05
1.053e+05
1.0563e+05
1.0597e+05
1.063e+05
1.0664e+05
1.0698e+05
1.0732e+05
1.0766e+05
1.0801e+05
1.0829e+05
1.0871e+05
1.0906e+05
1.0936e+05
1.0958e+05
1.1002e+05
1.1037e+05
1.1073e+05
1.1109e+05
1.1144e+05
1.1181e+05
1.1219e+05
1.1254e+05
1.1292e+05
1.1901e+05
1.1984e+05
1.2022e+05
1.2059e+05
1.2098e+05
1.2136e+05
1.2175e+05
1.2214e+05
1.2252e+05
1.229e+05
1.2328e+05
1.2366e+05
1.2406e+05
1.2445e+05
1.2484e+05
1.2523e+05
1.256e+05
1.2599e+05
1.2637e+05
1.2676e+05
1.2714e+05
1.2747e+05
1.2752e+05
1.2791e+05
1.2824e+05
1.2829e+05
1.2868e+05
1.2906e+05
1.2944e+05
1.2981e+05
1.3019e+05
1.3057e+05
1.3091e+05
1.3096e+05
1.3134e+05
1.3172e+05
1.3212e+05
1.3246e+05
1.325e+05
1.3291e+05
1.3324e+05
1.3329e+05
1.3369e+05
1.3408e+05
1.3448e+05
1.3487e+05
1.3529e+05
1.3569e+05
1.361e+05
1.365e+05
1.3691e+05
1.373e+05
1.3769e+05
1.3809e+05
1.3848e+05
1.3888e+05
1.3927e+05
1.3966e+05
1.3999e+05
1.4003e+05
1.4043e+05
1.4084e+05
1.4123e+05
1.4163e+05
1.4203e+05
1.4243e+05
1.4282e+05
1.4322e+05
1.4362e+05
1.4404e+05
1.4444e+05
1.4488e+05
1.4528e+05
1.4735e+05
1.4775e+05
1.4816e+05
1.4891e+05
1.4895e+05
1.4934e+05
1.4975e+05
1.5015e+05
1.5054e+05
1.5098e+05
1.5134e+05
1.5138e+05
1.5178e+05
1.5218e+05
1.5329e+05
1.5334e+05
1.5412e+05
1.545e+05
1.5485e+05
1.549e+05
1.5528e+05
1.5569e+05
1.561e+05
1.565e+05
1.5687e+05
1.5691e+05
1.5893e+05
1.5933e+05
1.5972e+05
1.6014e+05
1.6047e+05
1.6095e+05
1.6133e+05
1.6137e+05
1.6179e+05
1.622e+05
1.6261e+05
1.6303e+05
1.6343e+05
1.6383e+05
1.6424e+05
1.6464e+05
1.6506e+05
1.6546e+05
1.6588e+05
1.6631e+05
1.6675e+05
1.6716e+05
1.6799e+05
1.6842e+05
1.7092e+05
1.7132e+05
1.7171e+05
1.7175e+05
1.7216e+05
1.7256e+05
1.7292e+05
1.7296e+05
1.7337e+05
1.7377e+05
1.7456e+05
1.7686e+05
1.769e+05
1.7934e+05
1.7975e+05
1.8017e+05
1.8059e+05
1.8103e+05
1.8146e+05
1.8187e+05
1.823e+05
1.8316e+05
1.8359e+05
1.8404e+05
1.8446e+05
1.849e+05
1.8534e+05
1.8577e+05
1.862e+05
1.8663e+05
1.8705e+05
1.8741e+05
1.8746e+05
1.8788e+05
1.9045e+05
1.9163e+05
1.9325e+05
1.9365e+05
1.94e+05
1.9405e+05
1.9443e+05
1.9962e+05
1.9966e+05
2.0264e+05
2.0268e+05
2.0425e+05
2.0428e+05
2.0511e+05
2.0711e+05
2.0715e+05
2.079e+05
2.0795e+05
2.0952e+05
2.0956e+05
2.1233e+05
2.1236e+05
2.2062e+05
2.2152e+05
2.2446e+05
2.2449e+05
2.2528e+05
2.2563e+05
2.2567e+05
2.2607e+05
2.2646e+05
2.3045e+05
2.3049e+05
2.3162e+05
2.3166e+05
2.3359e+05
2.3363e+05
2.3594e+05
2.3599e+05
2.3754e+05
2.3758e+05
2.3875e+05
2.3879e+05
2.3914e+05
2.3918e+05
2.3955e+05
2.3959e+05
2.3995e+05
2.3999e+05
2.4037e+05
2.404e+05
2.4078e+05
2.4082e+05
2.4118e+05
2.4122e+05
2.4159e+05
2.4163e+05
2.4201e+05
2.4206e+05
2.4243e+05
2.4246e+05
2.4285e+05
2.4288e+05
2.4326e+05
2.433e+05
2.4367e+05
2.4371e+05
2.4411e+05
2.4415e+05
2.4453e+05
2.4458e+05
2.4538e+05
2.4542e+05
2.4701e+05
2.4705e+05
2.4777e+05
2.4781e+05
2.4816e+05
2.482e+05
2.4896e+05
2.49e+05
2.4934e+05
2.4938e+05
2.4974e+05
2.4978e+05
2.5014e+05
2.5018e+05
2.5054e+05
2.5058e+05
2.5094e+05
2.5098e+05
2.5132e+05
2.5136e+05
2.5172e+05
2.5176e+05
2.5211e+05
2.5215e+05
2.5249e+05
2.5253e+05
2.5289e+05
2.5293e+05
2.5326e+05
2.533e+05
2.5366e+05
2.537e+05
2.5407e+05
2.5411e+05
2.5447e+05
2.5451e+05
2.5487e+05
2.5491e+05
2.5526e+05
2.553e+05
2.5565e+05
2.5569e+05
2.5604e+05
2.5608e+05
2.5643e+05
2.5647e+05
2.5687e+05
2.5723e+05
2.5727e+05
2.5764e+05
2.5768e+05
2.5846e+05
2.585e+05
2.5929e+05
2.5933e+05
2.597e+05
2.5974e+05
2.6052e+05
2.6056e+05
2.6133e+05
2.6137e+05
2.6173e+05
2.6177e+05
2.6214e+05
2.6218e+05
2.6254e+05
2.6258e+05
2.6299e+05
2.6335e+05
2.6339e+05
2.6373e+05
2.6377e+05
2.6454e+05
2.6458e+05
2.6495e+05
2.6499e+05
2.6535e+05
2.6539e+05
2.6575e+05
2.6579e+05
2.6617e+05
2.6621e+05
2.6656e+05
2.666e+05
2.6776e+05
2.678e+05
2.6816e+05
2.682e+05
2.6856e+05
2.6861e+05
2.6897e+05
2.6901e+05
2.6938e+05
2.6942e+05
2.6978e+05
2.6982e+05
2.7019e+05
2.7023e+05
2.706e+05
2.7065e+05
2.7101e+05
2.7105e+05
2.7142e+05
2.7145e+05
2.7181e+05
2.7185e+05
2.7223e+05
2.7227e+05
2.7264e+05
2.7268e+05
2.7306e+05
2.731e+05
2.7345e+05
2.7349e+05
2.7427e+05
2.7431e+05
2.7511e+05
2.7515e+05
2.7552e+05
2.7556e+05
2.7593e+05
2.7597e+05
2.7634e+05
2.7638e+05
2.7675e+05
2.7679e+05
2.7716e+05
2.7719e+05
2.7756e+05
2.776e+05
2.7838e+05
2.7842e+05
2.7923e+05
2.7959e+05
2.7963e+05
2.8e+05
2.8004e+05
2.808e+05
2.8084e+05
2.8118e+05
2.8122e+05
2.8198e+05
2.8202e+05
2.8321e+05
2.8325e+05
2.8362e+05
2.8365e+05
2.8403e+05
2.8407e+05
2.8444e+05
2.8448e+05
2.8485e+05
2.8489e+05
2.8526e+05
2.853e+05
2.8567e+05
2.857e+05
2.8609e+05
2.8613e+05
2.8649e+05
2.8653e+05
2.8731e+05
2.8736e+05
2.8775e+05
2.8779e+05
2.8818e+05
2.8822e+05
2.8901e+05
2.8905e+05
2.8981e+05
2.8985e+05
2.9022e+05
2.9026e+05
2.9063e+05
2.9067e+05
2.9105e+05
2.9109e+05
2.9145e+05
2.9149e+05
2.9186e+05
2.919e+05
2.9228e+05
2.9232e+05
2.9312e+05
2.9316e+05
2.9353e+05
2.9357e+05
2.9397e+05
2.9433e+05
2.9437e+05
2.9475e+05
2.9479e+05
2.9516e+05
2.952e+05
2.9558e+05
2.9562e+05
2.9686e+05
2.9723e+05
2.9727e+05
2.9811e+05
2.9847e+05
2.9851e+05
2.9889e+05
2.9893e+05
2.9928e+05
2.9932e+05
2.9969e+05
2.9973e+05
3.001e+05
3.0014e+05
3.0051e+05
3.0055e+05
3.0094e+05
3.0098e+05
3.0137e+05
3.0141e+05
3.0179e+05
3.0184e+05
3.0222e+05
3.0225e+05
3.0264e+05
3.0268e+05
3.0304e+05
3.0308e+05
3.0345e+05
3.0349e+05
3.0384e+05
3.0388e+05
3.0425e+05
3.0428e+05
3.0464e+05
3.0468e+05
3.0504e+05
3.0507e+05
3.0542e+05
3.0546e+05
3.0582e+05
3.0586e+05
3.0624e+05
3.0628e+05
3.0664e+05
3.0669e+05
3.0706e+05
3.071e+05
3.0775e+05
3.0816e+05
3.0857e+05
3.0899e+05
3.0937e+05
3.098e+05
3.1021e+05
3.1064e+05
3.1118e+05
3.1122e+05
3.1241e+05
3.1245e+05
3.1324e+05
3.1328e+05
3.1616e+05
3.162e+05
3.237e+05
3.2374e+05
3.2538e+05
3.2542e+05
3.377e+05
3.3802e+05
3.3806e+05
3.3848e+05
3.3852e+05
3.3892e+05
3.3896e+05
3.3934e+05
3.3938e+05
3.3978e+05
3.3983e+05
3.4021e+05
3.4025e+05
3.4064e+05
3.4068e+05
3.4105e+05
3.4109e+05
3.4147e+05
3.4151e+05
3.4189e+05
3.4193e+05
3.423e+05
3.4234e+05
3.4272e+05
3.4276e+05
3.4313e+05
3.4317e+05
3.4354e+05
3.4358e+05
3.4396e+05
3.44e+05
3.4437e+05
3.4442e+05
3.4479e+05
3.4484e+05
3.4522e+05
3.4526e+05
3.4564e+05
3.4568e+05
3.4606e+05
3.461e+05
3.4647e+05
3.4651e+05
3.469e+05
3.4694e+05
3.473e+05
3.4734e+05
3.4771e+05
3.4775e+05
3.4812e+05
3.4817e+05
3.4896e+05
3.49e+05
3.4938e+05
3.4942e+05
3.4984e+05
3.5021e+05
3.5025e+05
3.5063e+05
3.5067e+05
3.5105e+05
3.511e+05
3.5146e+05
3.515e+05
3.519e+05
3.5194e+05
3.5231e+05
3.5235e+05
3.5276e+05
3.528e+05
3.5319e+05
3.5323e+05
3.5362e+05
3.5366e+05
3.5404e+05
3.5408e+05
3.5489e+05
3.5493e+05
3.5571e+05
3.5575e+05
3.5613e+05
3.5617e+05
3.5655e+05
3.5659e+05
3.5696e+05
3.57e+05
3.5743e+05
3.5781e+05
3.5786e+05
3.5822e+05
3.5826e+05
3.5865e+05
3.5869e+05
3.5921e+05
3.599e+05
3.5993e+05
3.6026e+05
3.603e+05
3.6074e+05
3.6112e+05
3.6116e+05
3.6153e+05
3.6157e+05
3.6195e+05
3.6199e+05
3.6236e+05
3.624e+05
3.6278e+05
3.6283e+05
3.632e+05
3.6324e+05
3.6361e+05
3.6365e+05
3.6406e+05
3.6443e+05
3.6446e+05
3.6487e+05
3.6523e+05
3.6527e+05
3.6568e+05
3.6605e+05
3.6609e+05
3.6648e+05
3.6653e+05
3.669e+05
3.6693e+05
3.6732e+05
3.6736e+05
3.6774e+05
3.6778e+05
3.6817e+05
3.6821e+05
3.6859e+05
3.6863e+05
3.69e+05
3.6905e+05
3.6942e+05
3.6946e+05
3.699e+05
3.7027e+05
3.7031e+05
3.7072e+05
3.7076e+05
3.7113e+05
3.7117e+05
3.7155e+05
3.7159e+05
3.7198e+05
3.7201e+05
3.7238e+05
3.7243e+05
3.7322e+05
3.7326e+05
3.7406e+05
3.741e+05
3.745e+05
3.7454e+05
3.7491e+05
3.7495e+05
3.7586e+05
3.7661e+05
3.7665e+05
3.7781e+05
3.7785e+05
3.782e+05
3.7824e+05
3.7906e+05
3.791e+05
3.7956e+05
3.8034e+05
3.8071e+05
3.8075e+05
3.8111e+05
3.8115e+05
3.8152e+05
3.8157e+05
3.8428e+05
3.8511e+05
3.8546e+05
3.855e+05
3.8587e+05
3.8591e+05
3.8629e+05
3.8633e+05
3.8677e+05
3.8714e+05
3.8719e+05
3.8756e+05
3.876e+05
3.8797e+05
3.8801e+05
3.884e+05
3.8845e+05
3.8882e+05
3.8885e+05
3.8923e+05
3.8927e+05
3.8964e+05
3.8968e+05
3.9006e+05
3.901e+05
3.9048e+05
3.9052e+05
3.9091e+05
3.9095e+05
3.9133e+05
3.9137e+05
3.9181e+05
3.9185e+05
3.9224e+05
3.9228e+05
3.9269e+05
3.9274e+05
3.931e+05
3.9314e+05
3.9352e+05
3.9356e+05
3.9392e+05
3.9396e+05
3.9481e+05
3.9562e+05
3.9566e+05
3.9646e+05
3.965e+05
3.9687e+05
3.9691e+05
3.9732e+05
3.9893e+05
3.9898e+05
4.0312e+05
4.0317e+05
4.0485e+05
4.049e+05
4.1682e+05
4.1686e+05
4.1928e+05
4.1932e+05
4.201e+05
4.2014e+05
4.2809e+05
4.2814e+05
4.3466e+05
4.347e+05
4.3718e+05
4.3721e+05
4.3761e+05
4.3765e+05
4.3801e+05
4.3805e+05
4.3844e+05
4.3848e+05
4.3884e+05
4.3889e+05
4.391e+05
4.3913e+05
4.3962e+05
4.4001e+05
4.4006e+05
4.4045e+05
4.4049e+05
4.4087e+05
4.4091e+05
4.4129e+05
4.4133e+05
4.4171e+05
4.4175e+05
4.4214e+05
4.4218e+05
4.4255e+05
4.4258e+05
4.4296e+05
4.43e+05
4.4337e+05
4.4341e+05
4.4379e+05
4.4383e+05
4.4421e+05
4.4425e+05
4.4464e+05
4.4468e+05
4.4505e+05
4.4509e+05
4.4548e+05
4.4552e+05
4.4589e+05
4.4592e+05
4.4631e+05
4.4635e+05
4.4672e+05
4.4676e+05
4.4714e+05
4.4717e+05
4.4756e+05
4.476e+05
4.4798e+05
4.4802e+05
4.4841e+05
4.4845e+05
4.4922e+05
4.4926e+05
4.5006e+05
4.501e+05
4.5048e+05
4.5052e+05
4.5088e+05
4.5092e+05
4.5129e+05
4.5133e+05
4.517e+05
4.5174e+05
4.5251e+05
4.5255e+05
4.5291e+05
4.5295e+05
4.5332e+05
4.5337e+05
4.5374e+05
4.5378e+05
4.542e+05
4.5456e+05
4.546e+05
4.5498e+05
4.5502e+05
4.554e+05
4.5544e+05
4.5581e+05
4.5585e+05
4.5622e+05
4.5627e+05
4.5665e+05
4.5669e+05
4.5706e+05
4.571e+05
4.5749e+05
4.5753e+05
4.5791e+05
4.5795e+05
4.5834e+05
4.5838e+05
4.5875e+05
4.5879e+05
4.5917e+05
4.5921e+05
4.6001e+05
4.6005e+05
4.6086e+05
4.6091e+05
4.6172e+05
4.6176e+05
4.6214e+05
4.6218e+05
4.6257e+05
4.6262e+05
4.6299e+05
4.6303e+05
4.6382e+05
4.6386e+05
4.6466e+05
4.647e+05
4.6552e+05
4.6555e+05
4.6637e+05
4.6641e+05
4.6679e+05
4.6683e+05
4.6721e+05
4.6725e+05
4.6763e+05
4.6767e+05
4.6806e+05
4.681e+05
4.6847e+05
4.6852e+05
4.6889e+05
4.6893e+05
4.6972e+05
4.6976e+05
4.7014e+05
4.7017e+05
4.7055e+05
4.7059e+05
4.7096e+05
4.7099e+05
4.7141e+05
4.722e+05
4.7224e+05
4.73e+05
4.7304e+05
4.7341e+05
4.7345e+05
4.7379e+05
4.7396e+05
4.7419e+05
4.7455e+05
4.746e+05
4.7714e+05
4.7828e+05
4.7905e+05
4.7944e+05
4.7982e+05
4.8021e+05
4.8099e+05
4.818e+05
4.8347e+05
4.8388e+05
4.8429e+05
4.8467e+05
4.8508e+05
4.8624e+05
4.8702e+05
4.8741e+05
4.878e+05
4.8858e+05
4.8938e+05
4.8977e+05
4.9018e+05
4.9056e+05
4.9136e+05
4.9254e+05
4.9293e+05
4.9331e+05
4.937e+05
4.941e+05
4.945e+05
4.9489e+05
4.957e+05
4.9609e+05
4.9731e+05
4.977e+05
4.981e+05
4.9961e+05
4.9966e+05
5.0005e+05
5.0044e+05
5.0083e+05
5.0159e+05
5.0198e+05
5.0236e+05
5.0273e+05
5.0348e+05
5.0419e+05
5.0424e+05
5.0462e+05
5.073e+05
5.078e+05
5.0883e+05
5.096e+05
5.0999e+05
5.1037e+05
5.115e+05
5.1188e+05
5.1227e+05
5.142e+05
5.1458e+05
5.1496e+05
5.1533e+05
5.161e+05
5.1647e+05
5.1681e+05
5.1686e+05
5.1801e+05
5.1839e+05
5.1875e+05
5.1913e+05
5.195e+05
5.2063e+05
5.2135e+05
5.214e+05
5.2173e+05
5.2179e+05
5.2213e+05
5.2217e+05
5.2251e+05
5.2255e+05
5.2331e+05
5.2407e+05
5.2441e+05
5.2446e+05
5.271e+05
5.2715e+05
5.2753e+05
5.279e+05
5.2823e+05
5.2827e+05
5.2942e+05
5.2981e+05
5.3019e+05
5.3057e+05
5.3135e+05
5.3206e+05
5.321e+05
5.3244e+05
5.3248e+05
5.3286e+05
5.3325e+05
5.3436e+05
5.3441e+05
5.3517e+05
5.3594e+05
5.3668e+05
5.3706e+05
5.3737e+05
5.3742e+05
5.3775e+05
5.3781e+05
5.3818e+05
5.385e+05
5.3855e+05
5.3891e+05
5.3928e+05
5.3966e+05
5.4034e+05
5.4038e+05
5.9598e+05
5.9665e+05
5.9669e+05
5.9774e+05
5.9803e+05
5.9807e+05
5.9878e+05
5.9922e+05
5.9925e+05
6.0047e+05
6.0052e+05
6.0188e+05
6.0252e+05
6.0256e+05
6.039e+05
6.0395e+05
6.043e+05
6.0501e+05
6.0536e+05
6.0571e+05
6.0603e+05
6.0608e+05
6.0639e+05
6.0643e+05
6.0747e+05
6.0752e+05
6.1032e+05
6.1067e+05
6.1097e+05
6.1102e+05
6.1136e+05
6.1167e+05
6.1171e+05
6.1235e+05
6.124e+05
6.1274e+05
6.1303e+05
6.1308e+05
6.1342e+05
6.1412e+05
6.1446e+05
6.1673e+05
6.1685e+05
6.193e+05
6.1997e+05
6.2001e+05
6.2136e+05
6.2248e+05
6.2281e+05
6.2285e+05
6.2317e+05
6.2322e+05
6.2358e+05
6.2577e+05
6.2644e+05
6.2651e+05
6.276e+05
6.2836e+05
6.2876e+05
6.2918e+05
6.3159e+05
6.3163e+05
6.3242e+05
6.3355e+05
6.336e+05
6.3472e+05
6.3477e+05
6.351e+05
6.3516e+05
6.3549e+05
6.3553e+05
6.3592e+05
6.3623e+05
6.3628e+05
6.3666e+05
6.3698e+05
6.3702e+05
6.3734e+05
6.3739e+05
6.377e+05
6.3777e+05
6.3814e+05
6.3845e+05
6.385e+05
6.3885e+05
6.3889e+05
6.3921e+05
6.3925e+05
6.3957e+05
6.3961e+05
6.3998e+05
6.4035e+05
6.4073e+05
6.4104e+05
6.4109e+05
6.4145e+05
6.4182e+05
6.4217e+05
6.4399e+05
6.4404e+05
6.444e+05
6.4472e+05
6.4478e+05
6.4516e+05
6.4549e+05
6.4553e+05
6.4584e+05
6.4589e+05
6.4622e+05
6.4627e+05
6.4667e+05
6.4699e+05
6.4704e+05
6.4742e+05
6.4812e+05
6.4817e+05
6.4854e+05
6.4891e+05
6.4922e+05
6.4927e+05
6.4964e+05
