646
1107
1573
2474
2909
3447
3917
4579
4838
5326
5539
5757
6031
6482
7218
7847
8331
9099
9341
9636
9891
10369
11061
11308
12100
12660
12866
13443
13648
14033
14296
14479
14838
15345
15864
16294
16599
16837
17104
17605
18131
18874
19048
19364
19847
20359
20884
21806
22326
22588
22826
23250
23552
23791
24033
24281
24543
24775
25042
25266
25526
25761
26323
26799
27064
27429
27619
27962
28166
28464
29048
29276
29590
29845
30219
30526
30748
31034
31555
31758
32033
32534
32731
33027
33314
33568
33849
34096
34604
34872
35163
35459
35820
36375
36591
36943
37488
38060
38571
38779
39070
39281
40137
40339
40611
40838
41105
41310
41670
41884
42210
42472
42971
43400
43674
43990
44518
44997
45181
45503
45720
46028
46205
46548
47292
47794
48001
48302
48653
48952
49208
49778
50044
50340
50597
50864
51126
51388
51663
51891
52109
52401
52722
52992
53229
53486
53738
53974
54218
54492
54754
54998
55241
55529
55772
56027
56271
56512
56738
57029
57301
57553
58046
58542
58808
59063
59305
59618
59842
60107
60340
60561
60815
61070
61374
61633
61884
62121
62359
62571
63128
63370
64136
64358
64872
65073
65376
65599
65918
66140
66418
66612
66885
67117
67410
67636
67931
68156
68459
68669
68985
69179
69486
70017
70556
70760
70987
71227
71521
72051
72235
72571
72758
73063
73270
73540
73711
74056
74242
74513
74783
75484
75671
75998
76296
76503
76745
77048
77302
77505
78307
78530
78882
79099
79348
79868
80108
80379
80608
80896
81110
81379
81595
81876
82106
82386
83106
83311
83612
83841
84057
84306
84547
84777
85240
85489
85738
85907
86165
86627
86854
87117
87261
87595
88073
88302
88501
88759
88998
89206
89470
89725
89928
90166
90418
90649
90889
91101
91376
91828
92072
92523
92755
92968
93225
93450
93758
94221
94477
94685
94896
95127
95597
95845
96065
96297
96569
96774
97014
97252
97442
97677
97910
98143
98412
98619
98835
99055
99936
1.0012e+05
1.0046e+05
1.0444e+05
1.0619e+05
1.0849e+05
1.0978e+05
1.1027e+05
1.1064e+05
1.1092e+05
1.1116e+05
1.1143e+05
1.1291e+05
1.1312e+05
1.1375e+05
1.1505e+05
1.1531e+05
1.1594e+05
1.1676e+05
1.1854e+05
1.1997e+05
1.2166e+05
1.2304e+05
1.2448e+05
1.249e+05
1.2537e+05
1.2613e+05
1.2656e+05
1.2679e+05
1.2812e+05
1.2892e+05
1.293e+05
1.2958e+05
1.3139e+05
1.3301e+05
1.3352e+05
1.3881e+05
1.3931e+05
1.3957e+05
1.3981e+05
1.4006e+05
1.4026e+05
1.4051e+05
1.4077e+05
1.4102e+05
1.415e+05
1.42e+05
1.4248e+05
1.429e+05
1.4359e+05
1.4435e+05
1.4488e+05
1.4515e+05
1.4543e+05
1.4569e+05
1.4594e+05
1.4621e+05
1.4637e+05
1.4669e+05
1.4715e+05
1.4764e+05
1.4815e+05
1.4842e+05
1.4864e+05
1.4931e+05
1.4958e+05
1.503e+05
1.5055e+05
1.5103e+05
1.5204e+05
1.5286e+05
1.531e+05
1.5327e+05
1.5357e+05
1.5419e+05
1.5474e+05
1.5495e+05
1.5527e+05
1.5544e+05
1.5574e+05
1.5593e+05
1.5645e+05
1.5677e+05
1.5727e+05
1.5787e+05
1.5824e+05
1.5873e+05
1.5921e+05
1.5987e+05
1.6017e+05
1.6081e+05
1.6149e+05
1.6432e+05
1.6485e+05
1.6537e+05
1.6584e+05
1.6765e+05
1.6814e+05
1.686e+05
1.6912e+05
1.6984e+05
1.7244e+05
1.7298e+05
1.7359e+05
1.7416e+05
1.7469e+05
1.7528e+05
1.7984e+05
1.8136e+05
1.8241e+05
1.8359e+05
1.8737e+05
1.8795e+05
1.9875e+05
1.9897e+05
1.9923e+05
1.9954e+05
1.998e+05
2.0006e+05
2.0034e+05
2.0056e+05
2.008e+05
2.0103e+05
2.0129e+05
2.0159e+05
2.0185e+05
2.021e+05
2.0238e+05
2.0291e+05
2.031e+05
2.034e+05
2.0361e+05
2.0392e+05
2.0415e+05
2.0445e+05
2.0469e+05
2.0494e+05
2.0541e+05
2.0565e+05
2.0594e+05
2.0619e+05
2.0644e+05
2.0665e+05
2.0693e+05
2.0712e+05
2.0739e+05
2.0758e+05
2.0814e+05
2.0836e+05
2.0868e+05
2.0887e+05
2.0915e+05
2.0935e+05
2.0958e+05
2.0978e+05
2.1009e+05
2.1033e+05
2.1066e+05
2.1085e+05
2.1111e+05
2.116e+05
2.1181e+05
2.1209e+05
2.1234e+05
2.126e+05
2.1282e+05
2.1313e+05
2.1332e+05
2.1365e+05
2.138e+05
2.1412e+05
2.147e+05
2.1496e+05
2.1524e+05
2.1546e+05
2.1575e+05
2.1595e+05
2.1625e+05
2.1648e+05
2.1673e+05
2.1707e+05
2.1738e+05
2.1784e+05
2.1829e+05
2.1855e+05
2.1882e+05
2.1909e+05
2.1933e+05
2.1962e+05
2.1978e+05
2.1993e+05
2.2006e+05
2.2023e+05
2.2057e+05
2.2111e+05
2.2128e+05
2.216e+05
2.2182e+05
2.2208e+05
2.2233e+05
2.2259e+05
2.2279e+05
2.2308e+05
2.2331e+05
2.2361e+05
2.2385e+05
2.2409e+05
2.2429e+05
2.2452e+05
2.2481e+05
2.2504e+05
2.253e+05
2.2559e+05
2.2611e+05
2.2663e+05
2.2713e+05
2.2754e+05
2.2776e+05
2.2814e+05
2.3085e+05
2.3133e+05
2.3161e+05
2.3183e+05
2.3211e+05
2.323e+05
2.3258e+05
2.3283e+05
2.3306e+05
2.3327e+05
2.335e+05
2.3371e+05
2.3394e+05
2.3471e+05
2.3489e+05
2.3516e+05
2.3539e+05
2.3563e+05
2.3613e+05
2.3634e+05
2.3659e+05
2.3686e+05
2.3705e+05
2.3727e+05
2.3753e+05
2.3797e+05
2.3819e+05
2.3847e+05
2.3869e+05
2.3885e+05
2.392e+05
2.3939e+05
2.3962e+05
2.3981e+05
2.4004e+05
2.4056e+05
2.4078e+05
2.4101e+05
2.4147e+05
2.4191e+05
2.4286e+05
2.4308e+05
2.4351e+05
2.4381e+05
2.44e+05
2.4494e+05
2.4581e+05
2.4629e+05
2.4724e+05
2.4774e+05
2.486e+05
2.4907e+05
2.5138e+05
2.5184e+05
2.5527e+05
2.5574e+05
2.5715e+05
2.5761e+05
2.5907e+05
2.5955e+05
2.6102e+05
2.6151e+05
2.63e+05
2.6344e+05
2.6681e+05
2.6738e+05
2.6782e+05
2.6887e+05
2.6939e+05
2.6982e+05
2.7036e+05
2.8058e+05
2.8109e+05
2.8165e+05
2.8408e+05
2.8458e+05
2.8504e+05
2.8553e+05
2.8704e+05
2.8746e+05
2.8895e+05
2.9209e+05
2.989e+05
3.0134e+05
3.0222e+05
3.0311e+05
3.0397e+05
3.0482e+05
3.0576e+05
3.1557e+05
3.1649e+05
3.1716e+05
3.1956e+05
3.2195e+05
3.2216e+05
3.2394e+05
3.3069e+05
3.3167e+05
3.3256e+05
3.3441e+05
3.372e+05
3.377e+05
3.3823e+05
3.4056e+05
3.409e+05
3.4273e+05
3.4514e+05
3.4555e+05
3.4605e+05
3.4651e+05
3.4708e+05
3.4795e+05
3.4895e+05
3.4943e+05
3.5184e+05
3.523e+05
3.5471e+05
3.5526e+05
3.5753e+05
3.5808e+05
3.6055e+05
3.6104e+05
3.6226e+05
3.6272e+05
3.6313e+05
3.6421e+05
3.6661e+05
3.798e+05
3.8045e+05
3.8108e+05
3.8222e+05
3.8275e+05
3.8338e+05
3.8387e+05
3.849e+05
3.8544e+05
3.8624e+05
3.8722e+05
3.883e+05
3.8991e+05
3.9091e+05
3.9141e+05
3.9199e+05
3.9253e+05
3.9473e+05
3.9552e+05
3.9765e+05
3.9822e+05
3.9968e+05
4.0089e+05
4.0148e+05
4.0241e+05
4.0328e+05
4.0428e+05
4.0463e+05
4.0481e+05
4.0555e+05
4.0609e+05
4.0653e+05
4.0808e+05
4.0907e+05
4.101e+05
4.1115e+05
4.1149e+05
4.1219e+05
4.1268e+05
4.1315e+05
4.1374e+05
4.1677e+05
4.1722e+05
4.1872e+05
4.1921e+05
4.2053e+05
4.2206e+05
4.226e+05
4.2387e+05
4.2441e+05
4.2535e+05
4.2595e+05
4.2674e+05
4.2725e+05
4.2971e+05
4.3024e+05
4.308e+05
4.313e+05
4.3254e+05
4.3358e+05
4.3406e+05
4.3455e+05
4.3511e+05
4.3611e+05
4.366e+05
4.3712e+05
4.3744e+05
4.3761e+05
4.3794e+05
4.384e+05
4.3886e+05
4.3938e+05
4.3959e+05
4.3992e+05
4.4038e+05
4.4088e+05
4.4141e+05
4.4193e+05
4.4241e+05
4.4292e+05
4.436e+05
4.4416e+05
4.4446e+05
4.4509e+05
4.4561e+05
4.4614e+05
4.4661e+05
4.471e+05
4.4757e+05
4.4809e+05
4.4858e+05
4.4906e+05
4.4951e+05
4.5056e+05
4.5103e+05
4.5251e+05
4.5346e+05
4.5399e+05
4.5443e+05
4.5499e+05
4.56e+05
4.5706e+05
4.5755e+05
4.5805e+05
4.5853e+05
4.5966e+05
4.6351e+05
4.6423e+05
4.6523e+05
4.6574e+05
4.6764e+05
4.6863e+05
4.7013e+05
4.7059e+05
4.7159e+05
4.7208e+05
4.7305e+05
4.7352e+05
4.7454e+05
4.7504e+05
4.7715e+05
4.7766e+05
4.7818e+05
4.7868e+05
4.7924e+05
4.8115e+05
4.8211e+05
4.8322e+05
4.8375e+05
4.8528e+05
4.8573e+05
4.8622e+05
4.8677e+05
4.8775e+05
4.9044e+05
4.9147e+05
4.9198e+05
4.925e+05
4.9297e+05
4.9349e+05
4.9396e+05
4.9445e+05
4.9488e+05
4.9542e+05
4.9592e+05
4.9642e+05
4.9688e+05
4.9739e+05
4.9766e+05
4.979e+05
4.9863e+05
4.9905e+05
4.9957e+05
5.0009e+05
5.0059e+05
5.0101e+05
5.0153e+05
5.0211e+05
5.0305e+05
5.0354e+05
5.0403e+05
5.0456e+05
5.0506e+05
5.0548e+05
5.0594e+05
5.0654e+05
5.07e+05
5.0746e+05
5.082e+05
5.0869e+05
5.0913e+05
5.0942e+05
5.1273e+05
5.1321e+05
5.137e+05
5.1418e+05
5.146e+05
5.1513e+05
5.1559e+05
5.1608e+05
5.1653e+05
5.1706e+05
5.1752e+05
5.1803e+05
5.185e+05
5.1901e+05
5.1947e+05
5.2003e+05
5.2048e+05
5.2095e+05
5.22e+05
5.2245e+05
5.2292e+05
5.2348e+05
5.2399e+05
5.2445e+05
5.2494e+05
5.2541e+05
5.2595e+05
5.2645e+05
5.2689e+05
5.2735e+05
5.2783e+05
5.2836e+05
5.2884e+05
5.2927e+05
5.2974e+05
5.3026e+05
5.3076e+05
5.3121e+05
5.3161e+05
5.3217e+05
5.3267e+05
5.3746e+05
5.3797e+05
5.3895e+05
5.3997e+05
5.4043e+05
5.409e+05
5.4145e+05
5.4194e+05
5.424e+05
5.4581e+05
5.4638e+05
5.4907e+05
5.5126e+05
5.5262e+05
5.531e+05
5.5389e+05
5.5441e+05
5.5486e+05
5.5539e+05
5.5591e+05
5.5648e+05
5.5696e+05
5.5746e+05
5.5987e+05
5.6123e+05
5.6179e+05
5.6604e+05
5.6655e+05
5.6772e+05
5.7091e+05
5.7135e+05
5.7194e+05
5.729e+05
5.7344e+05
5.7398e+05
5.7454e+05
5.7774e+05
5.7835e+05
5.7885e+05
5.8322e+05
5.8384e+05
5.8523e+05
5.8672e+05
5.8748e+05
5.8799e+05
5.8856e+05
5.9146e+05
5.9201e+05
5.9571e+05
5.9599e+05
5.9623e+05
5.965e+05
5.968e+05
5.9704e+05
5.9741e+05
5.9764e+05
5.9798e+05
5.9815e+05
5.9851e+05
5.9879e+05
5.9914e+05
5.9943e+05
5.9966e+05
5.9991e+05
6.0015e+05
6.0039e+05
6.0098e+05
6.0118e+05
6.016e+05
6.0188e+05
6.0217e+05
6.0238e+05
6.0267e+05
6.0326e+05
6.0347e+05
6.0386e+05
6.0416e+05
6.0453e+05
6.049e+05
6.0514e+05
6.0548e+05
6.0582e+05
6.0607e+05
6.0629e+05
6.0659e+05
6.0682e+05
6.0722e+05
6.0745e+05
6.078e+05
6.081e+05
6.084e+05
6.0866e+05
6.0891e+05
6.0913e+05
6.0946e+05
6.0967e+05
6.1003e+05
6.1062e+05
6.1088e+05
6.1115e+05
6.1144e+05
6.1172e+05
6.12e+05
6.1232e+05
6.1257e+05
6.1284e+05
6.1309e+05
6.1334e+05
6.136e+05
6.1382e+05
6.1407e+05
6.1435e+05
6.1497e+05
6.1517e+05
6.1549e+05
6.1576e+05
6.1596e+05
6.1628e+05
6.1657e+05
6.1677e+05
6.1706e+05
6.1758e+05
6.1784e+05
6.1816e+05
6.1858e+05
6.1876e+05
6.1911e+05
6.1937e+05
6.1962e+05
6.1983e+05
6.2006e+05
6.2034e+05
6.2063e+05
6.2092e+05
6.2113e+05
6.2142e+05
6.2167e+05
6.2194e+05
6.2219e+05
6.2246e+05
6.2271e+05
6.2303e+05
6.2327e+05
6.2364e+05
6.2387e+05
6.2417e+05
6.2443e+05
6.2471e+05
6.2494e+05
6.2529e+05
6.2588e+05
6.2608e+05
6.264e+05
6.2664e+05
6.2699e+05
6.2727e+05
6.2754e+05
6.2783e+05
6.2808e+05
6.2832e+05
6.2861e+05
6.2911e+05
6.2934e+05
6.297e+05
6.2994e+05
6.3023e+05
6.3044e+05
6.3069e+05
6.312e+05
6.3148e+05
6.3174e+05
6.3201e+05
6.3224e+05
6.325e+05
6.3275e+05
6.3299e+05
6.3325e+05
6.3352e+05
6.338e+05
6.3406e+05
6.3431e+05
6.3467e+05
6.3488e+05
6.3521e+05
6.3553e+05
6.3583e+05
6.3616e+05
6.3641e+05
6.3664e+05
6.3695e+05
6.3715e+05
6.3768e+05
6.3806e+05
6.3829e+05
6.404e+05
6.4091e+05
6.414e+05
6.4202e+05
6.4726e+05
-1
760
867
1219
1682
2139
2572
3071
3555
4063
4742
4979
5469
5692
5912
6178
6229
7178
7336
7520
7976
8031
8454
8604
8793
9243
9464
9789
9825
10058
10289
10525
10771
10988
11221
11452
11724
11957
12263
12798
12973
13110
13586
13810
14222
14416
14454
14637
15018
15525
16050
16476
16791
16955
17275
17791
18307
18645
18778
18812
19017
19027
19219
19498
19661
19727
20513
20552
21509
21974
22466
22758
22971
23216
23444
23719
23939
24190
24446
24699
24910
25203
25386
25731
25860
26057
26500
26682
26964
27179
27537
27733
28101
28274
28671
28829
29205
29387
29712
29773
29987
30365
30660
30874
31179
31206
31403
31869
32165
32360
32851
33229
33470
33735
34008
34252
34495
34756
35055
35338
35625
35986
36166
36508
36710
37060
37261
37652
37687
37877
38201
38398
38712
38883
39213
39356
39590
39867
40253
40453
40784
40968
41242
41427
41831
42008
42360
42396
42646
42818
43114
43283
43566
43815
44139
44177
44338
44673
44834
45316
45646
45835
45914
46145
46354
46693
46704
46927
47130
47422
47623
47956
48125
48515
48756
48809
49124
49370
49658
49935
50213
50486
50770
51030
51300
51526
51558
51795
52038
52072
52321
52581
52891
53145
53400
53631
53835
53890
54118
54169
54398
54672
54917
55178
55448
55706
55736
55921
56168
56424
56670
56926
57210
57470
57719
57947
58195
58463
58708
58965
59251
59493
59817
59983
60071
60246
60308
60496
60743
60984
61262
61540
61804
62043
62275
62509
63024
63280
63496
63723
63929
64269
64474
64689
64991
65202
65499
65723
66065
66252
66722
67233
67560
67749
68079
68275
68594
68784
69103
69294
69608
69640
69847
70194
70385
70681
70870
71337
71711
71910
72172
72398
72690
72887
73204
73229
73387
73861
74172
74368
74417
74719
74949
75000
75225
75408
75610
75895
76176
76419
76687
76939
77214
77442
77669
77947
78125
78470
78654
79036
79210
79282
79538
79725
80060
80266
80540
80767
80838
81066
81248
81555
81567
81728
81780
81995
82220
82546
82857
83235
83289
83435
83723
83784
84000
84219
84426
84493
84737
84897
84947
85197
85404
85415
85643
85872
86077
86338
86570
86786
87017
87029
87209
87423
87719
87926
88203
88253
88443
88672
88944
89148
89363
89385
89651
89842
90096
90318
90567
90801
91002
91048
91267
91505
91763
91996
92237
92280
92478
92645
92907
93114
93344
93399
93604
93928
94120
94377
94404
94615
94825
95064
95296
95483
95732
95808
95999
96224
96439
96453
96697
96897
97186
97377
97612
97833
98070
98120
98346
98561
98736
98976
99210
1.0006e+05
1.0029e+05
1.0075e+05
1.0479e+05
1.0653e+05
1.0878e+05
1.1012e+05
1.1014e+05
1.1054e+05
1.1056e+05
1.108e+05
1.1108e+05
1.1109e+05
1.113e+05
1.117e+05
1.1304e+05
1.1333e+05
1.134e+05
1.1409e+05
1.1521e+05
1.1561e+05
1.1626e+05
1.1712e+05
1.1758e+05
1.1888e+05
1.2025e+05
1.2155e+05
1.2183e+05
1.2339e+05
1.2479e+05
1.2522e+05
1.2568e+05
1.2641e+05
1.2672e+05
1.2708e+05
1.2849e+05
1.2921e+05
1.295e+05
1.2987e+05
1.3154e+05
1.3317e+05
1.3324e+05
1.3388e+05
1.3912e+05
1.3948e+05
1.3973e+05
1.3996e+05
1.4043e+05
1.4068e+05
1.4085e+05
1.409e+05
1.4114e+05
1.4133e+05
1.4177e+05
1.4223e+05
1.4274e+05
1.4316e+05
1.4383e+05
1.4384e+05
1.441e+05
1.4459e+05
1.4461e+05
1.4499e+05
1.4532e+05
1.4533e+05
1.456e+05
1.4585e+05
1.4611e+05
1.4632e+05
1.4635e+05
1.4653e+05
1.4694e+05
1.4738e+05
1.474e+05
1.4792e+05
1.4834e+05
1.4857e+05
1.4877e+05
1.4886e+05
1.495e+05
1.497e+05
1.4975e+05
1.5048e+05
1.507e+05
1.5076e+05
1.5119e+05
1.5222e+05
1.5301e+05
1.5306e+05
1.5323e+05
1.5343e+05
1.5371e+05
1.5374e+05
1.5437e+05
1.5488e+05
1.5509e+05
1.5558e+05
1.5608e+05
1.5659e+05
1.5692e+05
1.5694e+05
1.571e+05
1.5742e+05
1.5757e+05
1.5804e+05
1.5836e+05
1.5858e+05
1.5889e+05
1.589e+05
1.5907e+05
1.5934e+05
1.5935e+05
1.5952e+05
1.5998e+05
1.6004e+05
1.6038e+05
1.6099e+05
1.6164e+05
1.6449e+05
1.6499e+05
1.6551e+05
1.6602e+05
1.678e+05
1.683e+05
1.6876e+05
1.6928e+05
1.7002e+05
1.7259e+05
1.7315e+05
1.7372e+05
1.7431e+05
1.7487e+05
1.7543e+05
1.8004e+05
1.815e+05
1.8256e+05
1.8378e+05
1.8749e+05
1.8809e+05
1.9889e+05
1.9913e+05
1.9919e+05
1.9939e+05
1.9962e+05
1.9963e+05
1.9997e+05
2.0024e+05
2.0047e+05
2.0072e+05
2.0095e+05
2.012e+05
2.0146e+05
2.0176e+05
2.0203e+05
2.0205e+05
2.0226e+05
2.023e+05
2.0253e+05
2.0257e+05
2.0323e+05
2.0355e+05
2.0375e+05
2.0409e+05
2.041e+05
2.0427e+05
2.046e+05
2.0482e+05
2.051e+05
2.0526e+05
2.0556e+05
2.0578e+05
2.0609e+05
2.063e+05
2.0678e+05
2.0704e+05
2.0724e+05
2.0773e+05
2.0796e+05
2.0825e+05
2.0831e+05
2.085e+05
2.0878e+05
2.0899e+05
2.0946e+05
2.0972e+05
2.0973e+05
2.0991e+05
2.1046e+05
2.1053e+05
2.1078e+05
2.1097e+05
2.1126e+05
2.1144e+05
2.1176e+05
2.1193e+05
2.1229e+05
2.1249e+05
2.1276e+05
2.1294e+05
2.1327e+05
2.1347e+05
2.1396e+05
2.1427e+05
2.1449e+05
2.1488e+05
2.1492e+05
2.1511e+05
2.1541e+05
2.1558e+05
2.1591e+05
2.1605e+05
2.1612e+05
2.1638e+05
2.1644e+05
2.1664e+05
2.1689e+05
2.172e+05
2.1721e+05
2.1734e+05
2.1753e+05
2.18e+05
2.1817e+05
2.1848e+05
2.187e+05
2.1894e+05
2.19e+05
2.1928e+05
2.1945e+05
2.1951e+05
2.1974e+05
2.202e+05
2.2038e+05
2.2073e+05
2.2074e+05
2.2091e+05
2.2145e+05
2.2174e+05
2.2192e+05
2.2221e+05
2.2225e+05
2.2249e+05
2.2273e+05
2.2297e+05
2.2323e+05
2.2346e+05
2.2351e+05
2.2378e+05
2.2399e+05
2.2401e+05
2.2425e+05
2.2426e+05
2.2443e+05
2.2446e+05
2.2471e+05
2.2495e+05
2.2521e+05
2.2549e+05
2.2571e+05
2.2576e+05
2.2599e+05
2.2627e+05
2.2643e+05
2.265e+05
2.2707e+05
2.2729e+05
2.2772e+05
2.2791e+05
2.284e+05
2.3099e+05
2.3145e+05
2.3177e+05
2.3179e+05
2.3197e+05
2.3226e+05
2.3245e+05
2.3276e+05
2.33e+05
2.332e+05
2.3339e+05
2.3361e+05
2.3382e+05
2.3429e+05
2.3452e+05
2.3484e+05
2.3505e+05
2.3555e+05
2.358e+05
2.36e+05
2.3626e+05
2.3647e+05
2.3672e+05
2.3678e+05
2.3697e+05
2.3722e+05
2.374e+05
2.3769e+05
2.3785e+05
2.3835e+05
2.3856e+05
2.3877e+05
2.3898e+05
2.3903e+05
2.3932e+05
2.3954e+05
2.3977e+05
2.3993e+05
2.4023e+05
2.4041e+05
2.407e+05
2.4095e+05
2.4117e+05
2.4134e+05
2.4167e+05
2.4208e+05
2.4224e+05
2.4302e+05
2.4321e+05
2.4365e+05
2.4395e+05
2.4415e+05
2.4457e+05
2.4507e+05
2.4598e+05
2.464e+05
2.4738e+05
2.4744e+05
2.4785e+05
2.4872e+05
2.4919e+05
2.515e+05
2.5196e+05
2.5545e+05
2.5592e+05
2.5731e+05
2.5777e+05
2.5919e+05
2.5968e+05
2.6115e+05
2.6161e+05
2.6312e+05
2.6354e+05
2.6695e+05
2.675e+05
2.6798e+05
2.6901e+05
2.6949e+05
2.6996e+05
2.7047e+05
2.8074e+05
2.8127e+05
2.8179e+05
2.8377e+05
2.8422e+05
2.8469e+05
2.8515e+05
2.8565e+05
2.8716e+05
2.8762e+05
2.8911e+05
2.9225e+05
2.9879e+05
2.9923e+05
3.0169e+05
3.0254e+05
3.0344e+05
3.0428e+05
3.0516e+05
3.0602e+05
3.1586e+05
3.1678e+05
3.174e+05
3.1983e+05
3.221e+05
3.2214e+05
3.2245e+05
3.2423e+05
3.2966e+05
3.3102e+05
3.32e+05
3.3287e+05
3.3473e+05
3.3753e+05
3.3784e+05
3.3855e+05
3.4067e+05
3.4072e+05
3.4101e+05
3.4143e+05
3.4308e+05
3.4545e+05
3.4593e+05
3.464e+05
3.4669e+05
3.4683e+05
3.4741e+05
3.4833e+05
3.4932e+05
3.4977e+05
3.5216e+05
3.5262e+05
3.5488e+05
3.556e+05
3.5766e+05
3.5786e+05
3.5842e+05
3.6089e+05
3.6129e+05
3.6147e+05
3.6259e+05
3.6304e+05
3.633e+05
3.6453e+05
3.6696e+05
3.7334e+05
3.7345e+05
3.7998e+05
3.8057e+05
3.812e+05
3.8238e+05
3.8288e+05
3.8354e+05
3.8424e+05
3.8503e+05
3.8515e+05
3.8568e+05
3.857e+05
3.874e+05
3.8866e+05
3.9001e+05
3.9024e+05
3.9102e+05
3.9157e+05
3.9211e+05
3.9268e+05
3.9491e+05
3.9493e+05
3.9564e+05
3.9779e+05
3.9843e+05
3.9874e+05
3.9984e+05
4.0046e+05
4.0107e+05
4.0176e+05
4.0258e+05
4.0283e+05
4.0344e+05
4.0442e+05
4.0476e+05
4.0498e+05
4.0593e+05
4.0621e+05
4.0682e+05
4.0832e+05
4.086e+05
4.0925e+05
4.1024e+05
4.1131e+05
4.1174e+05
4.1232e+05
4.1333e+05
4.1398e+05
4.1399e+05
4.1713e+05
4.175e+05
4.1751e+05
4.1906e+05
4.1937e+05
4.2032e+05
4.2042e+05
4.2069e+05
4.2117e+05
4.2221e+05
4.2237e+05
4.2288e+05
4.2289e+05
4.2351e+05
4.2403e+05
4.2459e+05
4.2557e+05
4.2621e+05
4.2623e+05
4.2741e+05
4.2838e+05
4.2893e+05
4.2987e+05
4.3041e+05
4.3097e+05
4.3155e+05
4.3157e+05
4.3242e+05
4.3284e+05
4.332e+05
4.3373e+05
4.3443e+05
4.3473e+05
4.3531e+05
4.3639e+05
4.3677e+05
4.3725e+05
4.3756e+05
4.378e+05
4.3806e+05
4.3828e+05
4.3853e+05
4.3872e+05
4.3901e+05
4.3922e+05
4.3952e+05
4.3977e+05
4.4016e+05
4.4018e+05
4.4052e+05
4.4072e+05
4.4101e+05
4.4124e+05
4.4157e+05
4.4176e+05
4.4207e+05
4.4228e+05
4.4254e+05
4.4275e+05
4.4326e+05
4.4378e+05
4.4432e+05
4.446e+05
4.4478e+05
4.4525e+05
4.4578e+05
4.4629e+05
4.4677e+05
4.4726e+05
4.4774e+05
4.4824e+05
4.4875e+05
4.4921e+05
4.4967e+05
4.5071e+05
4.5117e+05
4.5266e+05
4.5361e+05
4.5411e+05
4.546e+05
4.5514e+05
4.5615e+05
4.572e+05
4.577e+05
4.5821e+05
4.5869e+05
4.598e+05
4.6265e+05
4.6368e+05
4.644e+05
4.654e+05
4.6589e+05
4.678e+05
4.6877e+05
4.7027e+05
4.7073e+05
4.7176e+05
4.7224e+05
4.732e+05
4.7368e+05
4.7422e+05
4.747e+05
4.7519e+05
4.7733e+05
4.7783e+05
4.7836e+05
4.7884e+05
4.7938e+05
4.7988e+05
4.8128e+05
4.8174e+05
4.8227e+05
4.8337e+05
4.839e+05
4.8491e+05
4.8542e+05
4.8587e+05
4.8639e+05
4.8692e+05
4.879e+05
4.9062e+05
4.9114e+05
4.9164e+05
4.9214e+05
4.9265e+05
4.9314e+05
4.9365e+05
4.9413e+05
4.946e+05
4.9504e+05
4.9559e+05
4.9608e+05
4.9672e+05
4.9722e+05
4.9751e+05
4.9782e+05
4.9809e+05
4.981e+05
4.9895e+05
4.994e+05
4.9984e+05
5.0045e+05
5.009e+05
5.0134e+05
5.0166e+05
5.0243e+05
5.0289e+05
5.0338e+05
5.0378e+05
5.0388e+05
5.0437e+05
5.049e+05
5.0533e+05
5.0582e+05
5.0611e+05
5.0685e+05
5.0731e+05
5.0755e+05
5.0775e+05
5.0853e+05
5.0901e+05
5.0925e+05
5.0972e+05
5.1307e+05
5.1352e+05
5.1402e+05
5.1448e+05
5.1497e+05
5.1547e+05
5.1594e+05
5.1637e+05
5.174e+05
5.1789e+05
5.1834e+05
5.1884e+05
5.1934e+05
5.1977e+05
5.2035e+05
5.2079e+05
5.2119e+05
5.2231e+05
5.2279e+05
5.2321e+05
5.2382e+05
5.2429e+05
5.2526e+05
5.2561e+05
5.2577e+05
5.263e+05
5.2674e+05
5.2719e+05
5.2769e+05
5.2812e+05
5.2868e+05
5.2916e+05
5.2962e+05
5.3011e+05
5.3059e+05
5.3107e+05
5.315e+05
5.3185e+05
5.3198e+05
5.3238e+05
5.3252e+05
5.329e+05
5.3298e+05
5.3771e+05
5.3809e+05
5.3843e+05
5.3845e+05
5.3933e+05
5.4029e+05
5.4071e+05
5.411e+05
5.418e+05
5.4226e+05
5.4594e+05
5.4614e+05
5.4664e+05
5.4928e+05
5.4929e+05
5.5138e+05
5.5155e+05
5.5293e+05
5.5331e+05
5.5333e+05
5.5416e+05
5.5471e+05
5.5498e+05
5.5566e+05
5.5604e+05
5.562e+05
5.573e+05
5.5758e+05
5.5775e+05
5.6136e+05
5.619e+05
5.6614e+05
5.6633e+05
5.6673e+05
5.6736e+05
5.6795e+05
5.6904e+05
5.6918e+05
5.7124e+05
5.7154e+05
5.7169e+05
5.7226e+05
5.7316e+05
5.7356e+05
5.737e+05
5.7411e+05
5.7425e+05
5.7477e+05
5.7787e+05
5.7846e+05
5.7863e+05
5.79e+05
5.7921e+05
5.8334e+05
5.8398e+05
5.8541e+05
5.8696e+05
5.8697e+05
5.876e+05
5.8782e+05
5.8812e+05
5.8828e+05
5.8871e+05
5.9158e+05
5.9213e+05
5.9227e+05
5.959e+05
5.9614e+05
5.9636e+05
5.9643e+05
5.9662e+05
5.9697e+05
5.9719e+05
5.9754e+05
5.9777e+05
5.9812e+05
5.9833e+05
5.986e+05
5.9869e+05
5.9898e+05
5.9925e+05
5.9937e+05
5.9955e+05
5.996e+05
5.9979e+05
5.9982e+05
6.0009e+05
6.0027e+05
6.0034e+05
6.0054e+05
6.0074e+05
6.0111e+05
6.0116e+05
6.0136e+05
6.0178e+05
6.0206e+05
6.0234e+05
6.0256e+05
6.0277e+05
6.0301e+05
6.0343e+05
6.0365e+05
6.0407e+05
6.0432e+05
6.0468e+05
6.0501e+05
6.0529e+05
6.0564e+05
6.0572e+05
6.0597e+05
6.0624e+05
6.0646e+05
6.0652e+05
6.0676e+05
6.0695e+05
6.0736e+05
6.0758e+05
6.0801e+05
6.0829e+05
6.0857e+05
6.0884e+05
6.0907e+05
6.0926e+05
6.093e+05
6.0956e+05
6.0981e+05
6.1023e+05
6.1041e+05
6.1081e+05
6.1104e+05
6.1134e+05
6.1161e+05
6.119e+05
6.1219e+05
6.1248e+05
6.1274e+05
6.13e+05
6.1327e+05
6.135e+05
6.1375e+05
6.1399e+05
6.1423e+05
6.1453e+05
6.1475e+05
6.1508e+05
6.1529e+05
6.1565e+05
6.1591e+05
6.1616e+05
6.1646e+05
6.1674e+05
6.1689e+05
6.1725e+05
6.1745e+05
6.1776e+05
6.1803e+05
6.183e+05
6.1872e+05
6.1895e+05
6.1927e+05
6.1953e+05
6.1977e+05
6.1996e+05
6.1998e+05
6.2021e+05
6.2054e+05
6.2081e+05
6.2108e+05
6.213e+05
6.2158e+05
6.2183e+05
6.2209e+05
6.2237e+05
6.2263e+05
6.2285e+05
6.2315e+05
6.2341e+05
6.2378e+05
6.2399e+05
6.2434e+05
6.2461e+05
6.2489e+05
6.2512e+05
6.2544e+05
6.2566e+05
6.26e+05
6.2619e+05
6.2656e+05
6.2677e+05
6.2719e+05
6.2746e+05
6.2767e+05
6.2774e+05
6.2796e+05
6.2826e+05
6.2846e+05
6.2874e+05
6.2896e+05
6.2923e+05
6.2948e+05
6.2989e+05
6.3007e+05
6.3035e+05
6.3054e+05
6.3083e+05
6.3103e+05
6.314e+05
6.3167e+05
6.3191e+05
6.3216e+05
6.3241e+05
6.3266e+05
6.3291e+05
6.3316e+05
6.3343e+05
6.337e+05
6.3397e+05
6.3425e+05
6.3448e+05
6.348e+05
6.3501e+05
6.354e+05
6.3564e+05
6.3571e+05
6.3602e+05
6.363e+05
6.3653e+05
6.3657e+05
6.3676e+05
6.3705e+05
6.3728e+05
6.3784e+05
6.382e+05
6.3844e+05
6.4056e+05
6.4108e+05
6.4156e+05
6.4216e+05
6.4629e+05
6.4738e+05
