86
366
1130
1558
1896
2176
2454
2670
3125
3728
4006
4298
5148
5404
6317
7255
7759
8014
8851
9054
9305
9573
10207
10467
10709
10966
11258
11435
11714
11949
12619
12861
13173
13501
13737
13974
14268
14576
14825
15191
15393
16305
16757
16981
17164
17358
17713
17908
18616
18870
19529
19993
20534
20847
21104
21335
21670
21914
22181
22463
22875
23466
23809
24086
24347
24559
24818
25042
25293
25540
25792
26069
26301
26975
27196
27377
27819
28066
28322
28571
28834
29104
29637
29881
30097
30508
30720
30971
31236
31950
32586
32776
33604
33851
34525
34821
34960
35171
35819
36193
36402
36636
36962
37531
37766
37997
38784
39115
39340
39732
40022
40242
40533
40768
41193
41434
42078
42330
42651
42959
43419
43880
44234
44562
44823
46152
46371
46680
46948
47172
47457
47671
47903
48107
48607
48876
49629
50040
50266
50557
50887
51169
51594
51843
52085
52349
52615
53184
53783
54011
54334
54581
54805
55052
55438
55974
56206
56395
56625
56879
57113
57642
57972
58185
58387
58521
58692
59273
59516
60014
60545
60837
61062
61331
61578
62032
62228
62629
62881
63108
63304
63557
63780
64028
64261
64823
65060
65286
65888
66135
66769
66965
67474
67724
68232
68507
69114
69410
69842
70481
71006
71215
71735
72003
72145
72440
72670
72910
73201
73465
73968
74429
74642
74936
75629
75889
76161
76401
76671
76927
77278
77693
77899
78047
78289
78679
78895
79111
79348
79591
80154
80493
80781
81045
81330
81627
81865
82092
82361
82656
82979
83242
83495
83774
84098
84342
84662
84856
85272
85515
85796
86143
86538
86810
87031
87288
87453
87718
87905
88153
88511
88674
88925
89218
89427
89977
90271
90519
90781
90995
91218
91421
91664
91960
92286
92524
92749
92992
93192
93507
93883
94334
94569
94820
95037
95194
95519
95790
96116
96405
96666
97054
97491
97725
98451
98673
98954
99282
1.0009e+05
1.0102e+05
1.0128e+05
1.02e+05
1.0224e+05
1.0244e+05
1.0261e+05
1.0284e+05
1.0313e+05
1.0359e+05
1.0427e+05
1.0453e+05
1.0489e+05
1.0576e+05
1.0597e+05
1.0613e+05
1.0636e+05
1.0686e+05
1.0757e+05
1.079e+05
1.0838e+05
1.0885e+05
1.0937e+05
1.0974e+05
1.1008e+05
1.1028e+05
1.105e+05
1.1074e+05
1.1132e+05
1.1182e+05
1.1207e+05
1.1238e+05
1.1262e+05
1.1304e+05
1.1331e+05
1.1371e+05
1.1401e+05
1.1433e+05
1.1463e+05
1.1507e+05
1.1577e+05
1.1623e+05
1.1649e+05
1.1662e+05
1.1683e+05
1.1708e+05
1.1743e+05
1.1783e+05
1.1849e+05
1.1891e+05
1.1921e+05
1.1945e+05
1.1981e+05
1.2036e+05
1.2087e+05
1.2107e+05
1.214e+05
1.2163e+05
1.2185e+05
1.2213e+05
1.2277e+05
1.2318e+05
1.2374e+05
1.2398e+05
1.2468e+05
1.2482e+05
1.2507e+05
1.2535e+05
1.2571e+05
1.2614e+05
1.2643e+05
1.2672e+05
1.272e+05
1.2741e+05
1.276e+05
1.2792e+05
1.2814e+05
1.2874e+05
1.2901e+05
1.2921e+05
1.2948e+05
1.3004e+05
1.3035e+05
1.3053e+05
1.3074e+05
1.3093e+05
1.3117e+05
1.317e+05
1.3217e+05
1.3249e+05
1.3276e+05
1.3308e+05
1.3336e+05
1.3371e+05
1.3402e+05
1.3426e+05
1.3453e+05
1.3504e+05
1.3528e+05
1.3553e+05
1.358e+05
1.3864e+05
1.402e+05
1.4068e+05
1.419e+05
1.4237e+05
1.4283e+05
1.4328e+05
1.4375e+05
1.4426e+05
1.4469e+05
1.4551e+05
1.4595e+05
1.4638e+05
1.468e+05
1.4721e+05
1.4763e+05
1.4807e+05
1.4853e+05
1.4896e+05
1.4941e+05
1.4986e+05
1.5035e+05
1.5083e+05
1.5128e+05
1.5172e+05
1.5216e+05
1.5264e+05
1.5308e+05
1.5351e+05
1.5418e+05
1.5488e+05
1.5558e+05
1.5622e+05
1.5668e+05
1.5737e+05
1.5781e+05
1.585e+05
1.5922e+05
1.5989e+05
1.6054e+05
1.6122e+05
1.6165e+05
1.6231e+05
1.6275e+05
1.6322e+05
1.6372e+05
1.6417e+05
1.6464e+05
1.6509e+05
1.6581e+05
1.6625e+05
1.6736e+05
1.6782e+05
1.6826e+05
1.6936e+05
1.7007e+05
1.7098e+05
1.7295e+05
1.7364e+05
1.7447e+05
1.7805e+05
1.8253e+05
1.832e+05
1.8397e+05
1.8851e+05
1.9265e+05
1.9333e+05
1.9468e+05
1.9535e+05
1.9607e+05
1.9715e+05
1.9939e+05
2.0027e+05
2.0194e+05
2.0279e+05
2.032e+05
2.0402e+05
2.0447e+05
2.0531e+05
2.0571e+05
2.0658e+05
2.0702e+05
2.0784e+05
2.0825e+05
2.0898e+05
2.094e+05
2.1007e+05
2.1052e+05
2.1114e+05
2.117e+05
2.1214e+05
2.1259e+05
2.1322e+05
2.1374e+05
2.1417e+05
2.146e+05
2.152e+05
2.1576e+05
2.1618e+05
2.1661e+05
2.1722e+05
2.178e+05
2.1826e+05
2.1869e+05
2.1959e+05
2.2003e+05
2.2086e+05
2.2127e+05
2.2212e+05
2.2255e+05
2.2338e+05
2.2385e+05
2.243e+05
2.2474e+05
2.2519e+05
2.2564e+05
2.261e+05
2.2655e+05
2.2697e+05
2.2738e+05
2.2783e+05
2.2826e+05
2.2911e+05
2.2975e+05
2.3019e+05
2.3064e+05
2.3148e+05
2.3192e+05
2.328e+05
2.3322e+05
2.3403e+05
2.3448e+05
2.3533e+05
2.3574e+05
2.3634e+05
2.3687e+05
2.3733e+05
2.3774e+05
2.3859e+05
2.3905e+05
2.3989e+05
2.4029e+05
2.4113e+05
2.4158e+05
2.4238e+05
2.428e+05
2.4367e+05
2.441e+05
2.4492e+05
2.4537e+05
2.4619e+05
2.466e+05
2.4743e+05
2.4787e+05
2.4866e+05
2.4907e+05
2.4989e+05
2.5033e+05
2.5116e+05
2.5158e+05
2.5245e+05
2.5287e+05
2.5369e+05
2.5411e+05
2.5495e+05
2.5538e+05
2.5627e+05
2.567e+05
2.5752e+05
2.5795e+05
2.5877e+05
2.592e+05
2.5997e+05
2.6041e+05
2.6123e+05
2.6165e+05
2.6247e+05
2.6291e+05
2.6374e+05
2.6415e+05
2.6501e+05
2.6543e+05
2.6621e+05
2.6685e+05
2.6729e+05
2.6808e+05
2.6873e+05
2.6917e+05
2.696e+05
2.7043e+05
2.7086e+05
2.717e+05
2.7232e+05
2.7273e+05
2.7315e+05
2.7399e+05
2.7463e+05
2.7504e+05
2.755e+05
2.7638e+05
2.7681e+05
2.7748e+05
2.7792e+05
2.7837e+05
2.7918e+05
2.7962e+05
2.8032e+05
2.8075e+05
2.8117e+05
2.8186e+05
2.8232e+05
2.8318e+05
2.8362e+05
2.8431e+05
2.8475e+05
2.8519e+05
2.8603e+05
2.8649e+05
2.8693e+05
2.8777e+05
2.8819e+05
2.8862e+05
2.8989e+05
2.9032e+05
2.9092e+05
2.9147e+05
2.9231e+05
2.944e+05
2.9609e+05
3.9724e+05
3.9759e+05
3.9775e+05
3.9821e+05
3.9882e+05
3.9928e+05
3.9964e+05
4.0001e+05
4.0034e+05
4.007e+05
4.0104e+05
4.0144e+05
4.0229e+05
4.0303e+05
4.0352e+05
4.0397e+05
4.0441e+05
4.0488e+05
4.0537e+05
4.0611e+05
4.0686e+05
4.0755e+05
4.0786e+05
4.0822e+05
4.0861e+05
4.0904e+05
4.0949e+05
4.0993e+05
4.1036e+05
4.1077e+05
4.1118e+05
4.1163e+05
4.1206e+05
4.1247e+05
4.1279e+05
4.1312e+05
4.1355e+05
4.1467e+05
4.1508e+05
4.155e+05
4.1638e+05
4.1679e+05
4.1733e+05
4.1787e+05
4.183e+05
4.1914e+05
4.198e+05
4.2024e+05
4.2107e+05
4.2148e+05
4.2231e+05
4.2276e+05
4.2357e+05
4.2397e+05
4.2511e+05
4.2553e+05
4.2594e+05
4.2636e+05
4.2725e+05
4.2791e+05
4.2833e+05
4.2918e+05
4.2962e+05
4.3026e+05
4.3068e+05
4.3155e+05
4.3197e+05
4.328e+05
4.3322e+05
4.3367e+05
4.3432e+05
4.3472e+05
4.3558e+05
4.3601e+05
4.3642e+05
4.3724e+05
4.3797e+05
4.3838e+05
4.388e+05
4.3937e+05
4.3994e+05
4.4079e+05
4.4119e+05
4.4206e+05
4.4271e+05
4.4312e+05
4.4397e+05
4.444e+05
4.4494e+05
4.4546e+05
4.459e+05
4.4634e+05
4.4693e+05
4.4745e+05
4.4786e+05
4.4829e+05
4.4916e+05
4.4956e+05
4.5042e+05
4.5086e+05
4.5154e+05
4.5194e+05
4.5264e+05
4.5309e+05
4.5392e+05
4.5435e+05
4.5549e+05
4.559e+05
4.5673e+05
4.5718e+05
4.576e+05
4.5841e+05
4.5952e+05
4.5993e+05
4.6117e+05
4.6201e+05
4.6351e+05
4.6434e+05
4.6543e+05
4.6586e+05
4.6709e+05
4.6792e+05
4.6834e+05
4.6914e+05
4.6953e+05
4.7079e+05
4.716e+05
4.733e+05
4.7412e+05
4.758e+05
4.7665e+05
4.7953e+05
4.8034e+05
4.8204e+05
4.8291e+05
4.8456e+05
4.8542e+05
4.8582e+05
4.8705e+05
4.879e+05
4.8959e+05
4.9081e+05
4.9164e+05
4.933e+05
4.9425e+05
4.9507e+05
4.9645e+05
4.9686e+05
4.972e+05
4.9771e+05
4.9814e+05
4.9858e+05
4.99e+05
4.9941e+05
4.9983e+05
5.0028e+05
5.0072e+05
5.0109e+05
5.0151e+05
5.0201e+05
5.0245e+05
5.0289e+05
5.033e+05
5.0371e+05
5.0414e+05
5.0459e+05
5.0496e+05
5.0619e+05
5.1041e+05
5.1378e+05
5.1544e+05
5.1626e+05
5.1668e+05
5.2218e+05
5.2867e+05
5.3365e+05
5.3631e+05
5.3707e+05
5.3779e+05
5.3847e+05
5.3922e+05
5.3994e+05
5.4063e+05
5.4138e+05
5.4216e+05
5.4286e+05
5.4362e+05
5.4434e+05
5.4508e+05
5.4582e+05
5.4654e+05
5.4723e+05
5.4797e+05
5.4868e+05
5.4897e+05
5.4941e+05
5.5019e+05
5.5091e+05
5.5163e+05
5.5238e+05
5.5308e+05
5.5349e+05
5.5393e+05
5.5456e+05
5.5508e+05
5.5651e+05
5.5721e+05
5.5788e+05
5.5821e+05
5.5857e+05
5.5879e+05
5.5926e+05
5.5943e+05
5.5992e+05
5.601e+05
5.6065e+05
5.6206e+05
5.6285e+05
5.6331e+05
5.6402e+05
5.6474e+05
5.6618e+05
5.6692e+05
5.6765e+05
5.6834e+05
5.6903e+05
5.6977e+05
5.7095e+05
5.7152e+05
5.7228e+05
5.7442e+05
5.7473e+05
5.7545e+05
5.7626e+05
5.7648e+05
5.7683e+05
5.7723e+05
5.775e+05
5.7803e+05
5.7863e+05
5.7892e+05
5.7957e+05
5.7986e+05
5.8048e+05
5.8132e+05
5.8175e+05
5.8306e+05
5.8366e+05
5.8467e+05
5.8545e+05
5.8584e+05
5.8622e+05
5.8652e+05
5.8702e+05
5.8729e+05
5.8748e+05
5.876e+05
5.8797e+05
5.8895e+05
5.8974e+05
5.9046e+05
5.9136e+05
5.9157e+05
5.9207e+05
5.9229e+05
5.9387e+05
5.9412e+05
5.948e+05
5.9582e+05
5.968e+05
6.0002e+05
6.003e+05
6.0187e+05
6.0639e+05
6.0801e+05
6.0827e+05
6.1009e+05
6.2018e+05
6.226e+05
6.2451e+05
6.2566e+05
6.2861e+05
6.2909e+05
6.327e+05
6.3539e+05
6.3563e+05
6.3606e+05
6.3626e+05
6.3658e+05
6.3687e+05
6.3721e+05
6.3747e+05
6.3781e+05
6.3803e+05
6.3822e+05
6.3846e+05
6.3887e+05
6.3909e+05
6.3933e+05
6.3958e+05
6.3979e+05
6.402e+05
6.4074e+05
6.4096e+05
6.4149e+05
6.4177e+05
6.42e+05
6.4266e+05
6.4293e+05
6.4577e+05
6.4598e+05
6.4645e+05
6.4718e+05
6.479e+05
6.4836e+05
6.4904e+05
-1
229
498
774
817
1016
1281
1312
1705
2081
2319
2575
2606
2802
2854
3039
3060
3335
3614
3893
3943
4197
4258
4437
4672
4929
5079
5296
5564
6011
6189
6482
6716
6916
6944
7157
7190
7415
7442
7707
7909
7943
8164
8386
8593
8787
9005
9197
9406
9444
9715
10107
10356
10613
10659
10856
11124
11379
11558
11898
12130
12348
12768
13313
13341
13638
13664
13889
14105
14142
14451
14704
14950
15096
15335
15557
15600
15776
15803
15985
16240
16494
16663
16891
16911
17112
17519
17545
17861
18065
18081
18322
18519
18545
18781
18976
19385
19409
19682
19906
19933
20134
20355
20674
20992
21286
21481
21641
21842
22042
22072
22386
22419
22631
22811
23246
23558
23742
23962
24279
24469
24724
24967
25208
25443
25711
25940
25965
26220
26447
26498
26698
26888
27138
27304
27527
27685
27711
27973
28212
28243
28446
28709
28745
29009
29044
29246
29537
29580
29800
29837
30019
30056
30251
30399
30664
31111
31145
31395
31819
31845
32117
32333
32512
32703
32725
32945
32972
33263
33452
33485
33748
33788
33982
34019
34288
34435
34476
34718
35104
35314
35460
35503
35716
36017
36344
36371
36569
36768
36811
37122
37278
37423
37453
37654
37684
37921
38161
38405
38443
38634
38668
38949
39249
39280
39539
39575
39864
40171
40393
40697
40893
40940
41120
41342
41611
41779
42025
42258
42505
42786
43116
43327
43352
43555
43699
44028
44434
44741
44779
45006
45281
45311
45512
45678
45851
46082
46546
46568
46848
47089
47118
47370
47579
47617
47835
48036
48063
48288
48504
48748
49007
49049
49225
49268
49462
49488
49791
49815
50176
50204
50395
50427
50732
51023
51344
51391
51761
51996
52230
52486
52753
52800
52995
53326
53531
53704
53729
53929
54162
54489
54739
54976
55157
55350
55377
55566
56138
56325
56352
56497
56539
56762
57047
57240
57408
57829
58130
58338
58659
58897
58921
59169
59422
59686
59720
59919
60167
60200
60667
60981
61225
61262
61487
61713
61764
61948
61977
62162
62380
62549
62791
62998
63024
63252
63426
63711
63915
63948
64177
64202
64391
64425
64604
64772
64981
65016
65199
65414
65722
66036
66073
66284
66722
67123
67154
67327
67573
67603
67863
68392
68707
69037
69261
69315
69558
69735
69975
70269
70301
70572
70763
71162
71364
71553
71577
71869
71907
72291
72326
72551
72578
72818
72848
73059
73102
73340
73371
73610
73795
74143
74170
74570
74790
74823
75062
75288
75508
75804
75833
76075
76302
76324
76531
76840
77059
77101
77466
77487
77820
77992
78191
78387
78582
78808
79037
79069
79285
79518
79748
79775
79964
79989
80331
80644
80675
80926
81208
81473
81771
81810
82011
82045
82244
82832
82872
83118
83170
83396
83421
83667
83706
83931
83963
84240
84269
84536
84570
84802
85013
85207
85413
85438
85668
85935
86088
86303
86469
86488
86706
86764
87198
87237
87421
87637
87854
88083
88287
88417
88458
88813
89099
89367
89586
89867
89896
90127
90693
90719
90923
91130
91365
91601
91845
92113
92142
92477
92672
92692
92908
93130
93458
93697
94052
94243
94481
94735
94764
94958
95145
95327
95695
95931
96249
96563
96822
96993
97203
97439
97652
97890
97928
98305
98334
98605
98810
98846
99104
99131
99612
99982
1.0002e+05
1.0041e+05
1.0083e+05
1.0091e+05
1.0115e+05
1.0141e+05
1.016e+05
1.0184e+05
1.0215e+05
1.0218e+05
1.0239e+05
1.0275e+05
1.0301e+05
1.0328e+05
1.0353e+05
1.0374e+05
1.0377e+05
1.0399e+05
1.042e+05
1.0423e+05
1.0442e+05
1.047e+05
1.0474e+05
1.0536e+05
1.0557e+05
1.0592e+05
1.0627e+05
1.0653e+05
1.0672e+05
1.0704e+05
1.074e+05
1.0773e+05
1.0806e+05
1.0825e+05
1.0853e+05
1.0877e+05
1.0903e+05
1.0909e+05
1.0927e+05
1.0961e+05
1.0996e+05
1.1019e+05
1.1023e+05
1.1041e+05
1.1045e+05
1.1064e+05
1.1086e+05
1.112e+05
1.1124e+05
1.1148e+05
1.1152e+05
1.1172e+05
1.1197e+05
1.122e+05
1.1224e+05
1.1253e+05
1.1256e+05
1.1277e+05
1.128e+05
1.132e+05
1.1325e+05
1.1342e+05
1.1361e+05
1.1387e+05
1.1417e+05
1.1448e+05
1.1477e+05
1.1498e+05
1.1521e+05
1.1546e+05
1.1567e+05
1.1571e+05
1.1593e+05
1.1613e+05
1.1638e+05
1.1642e+05
1.1659e+05
1.1678e+05
1.1694e+05
1.1697e+05
1.1724e+05
1.1739e+05
1.1758e+05
1.18e+05
1.182e+05
1.1839e+05
1.1864e+05
1.1883e+05
1.1906e+05
1.1908e+05
1.1937e+05
1.1961e+05
1.1997e+05
1.205e+05
1.2075e+05
1.21e+05
1.2123e+05
1.2152e+05
1.2157e+05
1.2176e+05
1.2198e+05
1.2202e+05
1.2228e+05
1.2251e+05
1.2272e+05
1.2293e+05
1.2295e+05
1.2333e+05
1.2364e+05
1.2388e+05
1.2412e+05
1.2415e+05
1.2435e+05
1.2438e+05
1.2459e+05
1.2497e+05
1.2501e+05
1.2523e+05
1.255e+05
1.2587e+05
1.261e+05
1.2634e+05
1.2657e+05
1.2686e+05
1.2705e+05
1.2707e+05
1.2733e+05
1.2754e+05
1.2805e+05
1.2826e+05
1.2829e+05
1.2846e+05
1.2864e+05
1.2885e+05
1.2889e+05
1.2916e+05
1.2934e+05
1.2938e+05
1.2985e+05
1.2988e+05
1.3018e+05
1.3045e+05
1.3066e+05
1.3069e+05
1.3107e+05
1.3131e+05
1.3162e+05
1.3188e+05
1.3209e+05
1.3212e+05
1.3232e+05
1.3235e+05
1.3265e+05
1.327e+05
1.329e+05
1.3326e+05
1.3351e+05
1.3388e+05
1.3391e+05
1.342e+05
1.3445e+05
1.3449e+05
1.3469e+05
1.3473e+05
1.3518e+05
1.3521e+05
1.3569e+05
1.3596e+05
1.3598e+05
1.3617e+05
1.3754e+05
1.3827e+05
1.3879e+05
1.3939e+05
1.3979e+05
1.4035e+05
1.4087e+05
1.4155e+05
1.4206e+05
1.4253e+05
1.4298e+05
1.4347e+05
1.4393e+05
1.4442e+05
1.4484e+05
1.4567e+05
1.4611e+05
1.4654e+05
1.4696e+05
1.4737e+05
1.4779e+05
1.4823e+05
1.487e+05
1.4912e+05
1.4957e+05
1.5003e+05
1.5051e+05
1.5099e+05
1.5144e+05
1.5188e+05
1.5234e+05
1.5281e+05
1.5324e+05
1.5365e+05
1.5504e+05
1.5571e+05
1.5639e+05
1.5685e+05
1.5754e+05
1.5797e+05
1.5866e+05
1.5937e+05
1.6004e+05
1.607e+05
1.6139e+05
1.6181e+05
1.6247e+05
1.6291e+05
1.634e+05
1.6389e+05
1.6433e+05
1.648e+05
1.6524e+05
1.6598e+05
1.664e+05
1.6753e+05
1.6799e+05
1.6841e+05
1.6952e+05
1.7025e+05
1.7114e+05
1.7311e+05
1.738e+05
1.7462e+05
1.7467e+05
1.7828e+05
1.7917e+05
1.7994e+05
1.7997e+05
1.8269e+05
1.8336e+05
1.8412e+05
1.8416e+05
1.8441e+05
1.8867e+05
1.928e+05
1.935e+05
1.9484e+05
1.9552e+05
1.9624e+05
1.9731e+05
1.9956e+05
2.0044e+05
2.0211e+05
2.0296e+05
2.0336e+05
2.042e+05
2.0465e+05
2.0546e+05
2.0588e+05
2.0675e+05
2.0719e+05
2.08e+05
2.0852e+05
2.0855e+05
2.0915e+05
2.0955e+05
2.1024e+05
2.1069e+05
2.1132e+05
2.1187e+05
2.123e+05
2.1276e+05
2.1337e+05
2.1391e+05
2.1433e+05
2.1476e+05
2.154e+05
2.1592e+05
2.1634e+05
2.1677e+05
2.1741e+05
2.1797e+05
2.1842e+05
2.1885e+05
2.1977e+05
2.2019e+05
2.2038e+05
2.2103e+05
2.2145e+05
2.2229e+05
2.227e+05
2.2356e+05
2.2402e+05
2.2447e+05
2.249e+05
2.2535e+05
2.2581e+05
2.2628e+05
2.2672e+05
2.2713e+05
2.2755e+05
2.28e+05
2.2843e+05
2.2877e+05
2.2937e+05
2.2993e+05
2.3037e+05
2.3081e+05
2.3115e+05
2.3165e+05
2.3209e+05
2.3297e+05
2.3339e+05
2.3421e+05
2.3465e+05
2.3549e+05
2.3591e+05
2.365e+05
2.3706e+05
2.3749e+05
2.3789e+05
2.3877e+05
2.3922e+05
2.4005e+05
2.4045e+05
2.413e+05
2.4174e+05
2.4255e+05
2.4298e+05
2.4383e+05
2.4426e+05
2.451e+05
2.4554e+05
2.4635e+05
2.4677e+05
2.476e+05
2.4804e+05
2.4881e+05
2.4923e+05
2.5006e+05
2.5049e+05
2.5131e+05
2.5176e+05
2.5262e+05
2.5302e+05
2.5387e+05
2.5428e+05
2.5512e+05
2.5555e+05
2.5644e+05
2.5686e+05
2.5769e+05
2.5812e+05
2.5895e+05
2.5936e+05
2.6014e+05
2.6059e+05
2.6139e+05
2.6181e+05
2.6198e+05
2.6264e+05
2.6309e+05
2.639e+05
2.6432e+05
2.6518e+05
2.6559e+05
2.6646e+05
2.6704e+05
2.6746e+05
2.6832e+05
2.6891e+05
2.6934e+05
2.6977e+05
2.706e+05
2.7103e+05
2.7195e+05
2.725e+05
2.729e+05
2.7332e+05
2.7424e+05
2.7479e+05
2.7521e+05
2.7567e+05
2.7654e+05
2.7696e+05
2.7765e+05
2.781e+05
2.7935e+05
2.7989e+05
2.7992e+05
2.8049e+05
2.8091e+05
2.815e+05
2.8204e+05
2.825e+05
2.8267e+05
2.8297e+05
2.8335e+05
2.8389e+05
2.8449e+05
2.8492e+05
2.8535e+05
2.8553e+05
2.8621e+05
2.8666e+05
2.8719e+05
2.8794e+05
2.8836e+05
2.888e+05
2.9005e+05
2.9049e+05
2.9112e+05
2.9164e+05
2.9247e+05
2.9457e+05
2.9833e+05
2.9876e+05
2.9906e+05
3.0039e+05
3.0167e+05
3.0289e+05
3.0413e+05
3.0458e+05
3.0534e+05
3.0662e+05
3.0785e+05
3.0911e+05
3.1034e+05
3.1155e+05
3.1278e+05
3.14e+05
3.1529e+05
3.1644e+05
3.1768e+05
3.1822e+05
3.1896e+05
3.202e+05
3.2146e+05
3.2271e+05
3.2397e+05
3.2519e+05
3.264e+05
3.2769e+05
3.2884e+05
3.3055e+05
3.3226e+05
3.3391e+05
3.3559e+05
3.3723e+05
3.3823e+05
3.3905e+05
3.3994e+05
3.407e+05
3.4164e+05
3.4237e+05
3.4333e+05
3.4458e+05
3.4501e+05
3.4626e+05
3.467e+05
3.4712e+05
3.4795e+05
3.4836e+05
3.4879e+05
3.4967e+05
3.5049e+05
3.5135e+05
3.5261e+05
3.5266e+05
3.5324e+05
3.5451e+05
3.5493e+05
3.5512e+05
3.5577e+05
3.5617e+05
3.5694e+05
3.5738e+05
3.5825e+05
3.5831e+05
3.5885e+05
3.5924e+05
3.6007e+05
3.605e+05
3.6127e+05
3.6171e+05
3.6207e+05
3.6226e+05
3.623e+05
3.6276e+05
3.6314e+05
3.6331e+05
3.6392e+05
3.6433e+05
3.6472e+05
3.6509e+05
3.6586e+05
3.6629e+05
3.671e+05
3.6833e+05
3.6875e+05
3.6957e+05
3.6998e+05
3.7084e+05
3.7125e+05
3.7204e+05
3.7246e+05
3.7329e+05
3.7371e+05
3.7427e+05
3.7687e+05
3.7769e+05
3.7937e+05
3.8018e+05
3.8059e+05
3.8139e+05
3.8182e+05
3.8301e+05
3.8385e+05
3.8549e+05
3.8635e+05
3.8675e+05
3.8732e+05
3.8784e+05
3.8828e+05
3.8996e+05
3.9078e+05
3.9265e+05
3.9305e+05
3.9387e+05
3.974e+05
3.9768e+05
3.9792e+05
3.9843e+05
3.9849e+05
3.9901e+05
3.9944e+05
3.998e+05
4.0016e+05
4.0059e+05
4.0085e+05
4.0121e+05
4.0159e+05
4.0245e+05
4.0318e+05
4.0368e+05
4.0377e+05
4.0413e+05
4.0457e+05
4.0505e+05
4.0563e+05
4.0567e+05
4.0628e+05
4.0647e+05
4.0701e+05
4.077e+05
4.0777e+05
4.0804e+05
4.0838e+05
4.0878e+05
4.0919e+05
4.0966e+05
4.101e+05
4.1052e+05
4.1093e+05
4.1135e+05
4.1181e+05
4.1222e+05
4.127e+05
4.1295e+05
4.1329e+05
4.1373e+05
4.1433e+05
4.1444e+05
4.1484e+05
4.1524e+05
4.1567e+05
4.1654e+05
4.1695e+05
4.1748e+05
4.1768e+05
4.1804e+05
4.1848e+05
4.1939e+05
4.1942e+05
4.1998e+05
4.2041e+05
4.2124e+05
4.2164e+05
4.2248e+05
4.2293e+05
4.2372e+05
4.2413e+05
4.2469e+05
4.249e+05
4.2529e+05
4.257e+05
4.261e+05
4.2653e+05
4.2751e+05
4.2754e+05
4.2808e+05
4.2849e+05
4.2936e+05
4.2987e+05
4.299e+05
4.3043e+05
4.3085e+05
4.3171e+05
4.3213e+05
4.3296e+05
4.334e+05
4.3393e+05
4.3396e+05
4.3448e+05
4.3489e+05
4.3575e+05
4.3618e+05
4.3658e+05
4.375e+05
4.3755e+05
4.3814e+05
4.3854e+05
4.3897e+05
4.3962e+05
4.4011e+05
4.4095e+05
4.4136e+05
4.4227e+05
4.4231e+05
4.4287e+05
4.4329e+05
4.4414e+05
4.4456e+05
4.4514e+05
4.4563e+05
4.4608e+05
4.4651e+05
4.471e+05
4.476e+05
4.4803e+05
4.4847e+05
4.4931e+05
4.4973e+05
4.5059e+05
4.5106e+05
4.5112e+05
4.517e+05
4.5219e+05
4.5223e+05
4.5282e+05
4.5325e+05
4.5408e+05
4.5452e+05
4.5566e+05
4.5606e+05
4.5624e+05
4.5691e+05
4.5735e+05
4.5776e+05
4.5866e+05
4.587e+05
4.5969e+05
4.6009e+05
4.6134e+05
4.6216e+05
4.6368e+05
4.6454e+05
4.6458e+05
4.656e+05
4.6604e+05
4.6725e+05
4.6809e+05
4.685e+05
4.693e+05
4.6971e+05
4.7094e+05
4.7176e+05
4.7346e+05
4.743e+05
4.7597e+05
4.7682e+05
4.797e+05
4.805e+05
4.822e+05
4.8308e+05
4.8472e+05
4.8559e+05
4.8598e+05
4.8722e+05
4.8806e+05
4.8976e+05
4.9098e+05
4.9181e+05
4.9348e+05
4.9523e+05
4.9737e+05
4.9807e+05
4.9842e+05
4.9976e+05
5.001e+05
5.0053e+05
5.006e+05
5.0125e+05
5.0167e+05
5.0227e+05
5.027e+05
5.0397e+05
5.0449e+05
5.0477e+05
5.0513e+05
5.0636e+05
5.1056e+05
5.1395e+05
5.156e+05
5.1642e+05
5.1684e+05
5.2242e+05
5.2884e+05
5.3382e+05
5.3648e+05
5.3718e+05
5.3741e+05
5.3798e+05
5.3803e+05
5.3873e+05
5.3939e+05
5.4017e+05
5.4019e+05
5.409e+05
5.4163e+05
5.424e+05
5.4308e+05
5.4315e+05
5.438e+05
5.446e+05
5.4517e+05
5.4542e+05
5.4611e+05
5.4669e+05
5.4748e+05
5.4751e+05
5.4822e+05
5.4883e+05
5.4888e+05
5.4916e+05
5.4964e+05
5.4969e+05
5.5037e+05
5.5116e+05
5.5179e+05
5.5191e+05
5.5262e+05
5.5264e+05
5.5325e+05
5.5366e+05
5.541e+05
5.5471e+05
5.5523e+05
5.5668e+05
5.5746e+05
5.5748e+05
5.5804e+05
5.5838e+05
5.5868e+05
5.5888e+05
5.5937e+05
5.5963e+05
5.6003e+05
5.6027e+05
5.6082e+05
5.6231e+05
5.6303e+05
5.6357e+05
5.6426e+05
5.6428e+05
5.6492e+05
5.6635e+05
5.6716e+05
5.6719e+05
5.678e+05
5.6849e+05
5.6929e+05
5.6931e+05
5.6992e+05
5.7112e+05
5.7169e+05
5.7173e+05
5.7203e+05
5.7249e+05
5.7254e+05
5.7458e+05
5.7463e+05
5.7489e+05
5.7504e+05
5.7535e+05
5.7558e+05
5.7575e+05
5.7605e+05
5.7644e+05
5.7659e+05
5.7678e+05
5.7708e+05
5.774e+05
5.7784e+05
5.7825e+05
5.7874e+05
5.7879e+05
5.7914e+05
5.7973e+05
5.7977e+05
5.8016e+05
5.8071e+05
5.8152e+05
5.8186e+05
5.821e+05
5.8336e+05
5.8392e+05
5.8497e+05
5.8569e+05
5.8595e+05
5.8613e+05
5.8684e+05
5.8717e+05
5.8721e+05
5.8741e+05
5.8783e+05
5.8829e+05
5.8928e+05
5.9e+05
5.9061e+05
5.9065e+05
5.91e+05
5.9189e+05
5.9223e+05
5.9243e+05
5.9255e+05
5.9404e+05
5.9423e+05
5.9494e+05
5.9496e+05
5.9603e+05
5.9707e+05
6.0021e+05
6.0056e+05
6.0218e+05
6.0663e+05
6.0816e+05
6.0855e+05
6.104e+05
6.2046e+05
6.2285e+05
6.2483e+05
6.2593e+05
6.2891e+05
6.2932e+05
6.3301e+05
6.3558e+05
6.3575e+05
6.3593e+05
6.3617e+05
6.3644e+05
6.3647e+05
6.3673e+05
6.3699e+05
6.3705e+05
6.3736e+05
6.376e+05
6.3777e+05
6.3796e+05
6.3819e+05
6.3838e+05
6.3862e+05
6.388e+05
6.3901e+05
6.3922e+05
6.3925e+05
6.3945e+05
6.3947e+05
6.3972e+05
6.3992e+05
6.4008e+05
6.4011e+05
6.4052e+05
6.4087e+05
6.409e+05
6.412e+05
6.4163e+05
6.4167e+05
6.419e+05
6.4193e+05
6.4231e+05
6.4324e+05
6.4469e+05
6.4589e+05
6.4613e+05
6.4665e+05
6.467e+05
6.4733e+05
6.4805e+05
6.4859e+05
6.4918e+05
