301
693
1102
1526
1932
2320
2709
3117
3539
3957
4352
4752
5150
5562
6357
6749
7144
7557
7988
8411
8810
9211
10057
10313
10854
11241
12037
12443
12839
13230
13627
14045
14473
14901
15307
15709
16555
16975
17359
17743
18141
18562
18954
19353
19742
20141
20560
21413
21812
22209
22630
23057
23480
23883
24281
24706
25129
25541
25936
26328
26730
27148
27565
27983
28776
29195
29625
30441
30838
31703
32099
32487
33257
33660
34454
34840
35228
35641
36061
36473
36861
37242
37648
38062
38474
38876
39677
40102
40522
40929
41321
41711
42114
42529
42944
43341
43731
44138
44567
44984
45377
45772
46177
46609
47030
47441
47843
48246
48659
49083
49493
49889
50683
51114
51528
51922
52312
52719
53156
53584
53995
54406
54821
55251
55673
56077
56469
56858
57689
58096
58486
59299
59735
60156
60551
60948
61355
61776
62192
62595
63400
63821
64246
64654
65041
65827
66255
66663
67056
67449
67872
68305
69122
69462
69927
70348
70767
71180
71568
71963
72380
72809
73226
73624
74455
74892
75315
76127
76552
77395
77785
78171
78567
78990
79411
79816
80200
80594
81429
81833
82057
82604
83013
83429
83837
84239
84629
85033
85455
86292
86683
87073
87503
87926
88137
88705
89081
89483
89882
90282
90677
91067
91465
91888
92313
93121
93505
93917
94759
95546
95744
96349
96748
97129
97508
97894
98302
99566
99909
1.008e+05
1.0122e+05
1.0161e+05
1.0201e+05
1.0242e+05
1.0286e+05
1.0328e+05
1.0368e+05
1.0408e+05
1.0449e+05
1.0491e+05
1.0533e+05
1.0574e+05
1.0613e+05
1.0653e+05
1.0695e+05
1.0738e+05
1.078e+05
1.0819e+05
1.0859e+05
1.09e+05
1.0942e+05
1.0983e+05
1.1021e+05
1.11e+05
1.1142e+05
1.1183e+05
1.1224e+05
1.1264e+05
1.1305e+05
1.1348e+05
1.1391e+05
1.1433e+05
1.1473e+05
1.1514e+05
1.1556e+05
1.1599e+05
1.1641e+05
1.168e+05
1.172e+05
1.1763e+05
1.1806e+05
1.1849e+05
1.189e+05
1.1931e+05
1.1973e+05
1.2016e+05
1.2101e+05
1.4019e+05
1.4064e+05
1.4105e+05
1.4147e+05
1.4189e+05
1.4231e+05
1.4271e+05
1.431e+05
1.435e+05
1.4394e+05
1.4435e+05
1.4475e+05
1.45e+05
1.4544e+05
1.4588e+05
1.4633e+05
1.4676e+05
1.4719e+05
1.4761e+05
1.4805e+05
1.4929e+05
1.4965e+05
1.5004e+05
1.5043e+05
1.5656e+05
1.5896e+05
1.5938e+05
1.6017e+05
1.6058e+05
1.6101e+05
1.6184e+05
1.6223e+05
1.6263e+05
1.6304e+05
1.6346e+05
1.6388e+05
1.6507e+05
1.6593e+05
1.6633e+05
1.6673e+05
1.6715e+05
1.6758e+05
1.68e+05
1.6958e+05
1.6992e+05
1.7114e+05
1.719e+05
1.7229e+05
1.7269e+05
1.7342e+05
1.7383e+05
1.7423e+05
1.7463e+05
1.7501e+05
1.758e+05
1.7662e+05
1.7703e+05
1.7742e+05
1.7781e+05
1.7823e+05
1.7865e+05
1.7907e+05
1.7947e+05
1.7986e+05
1.8028e+05
1.807e+05
1.8111e+05
1.815e+05
1.8188e+05
1.8229e+05
1.827e+05
1.8311e+05
1.8352e+05
1.8391e+05
1.8431e+05
1.8515e+05
1.8557e+05
1.8597e+05
1.8636e+05
1.8678e+05
1.8721e+05
1.8762e+05
1.8802e+05
1.8841e+05
1.8922e+05
1.8963e+05
1.9041e+05
1.908e+05
1.9205e+05
1.9244e+05
1.9365e+05
1.9406e+05
1.9483e+05
1.9564e+05
1.9927e+05
1.9965e+05
2.0005e+05
2.0039e+05
2.0081e+05
2.0117e+05
2.0153e+05
2.0191e+05
2.0225e+05
2.0266e+05
2.0302e+05
2.0338e+05
2.0375e+05
2.0416e+05
2.074e+05
2.0779e+05
2.0818e+05
2.0857e+05
2.0933e+05
2.1042e+05
2.1081e+05
2.1117e+05
2.1186e+05
2.1254e+05
2.1288e+05
2.1323e+05
2.1357e+05
2.139e+05
2.1419e+05
2.1524e+05
2.1556e+05
2.1658e+05
2.1725e+05
2.1791e+05
2.1824e+05
2.1887e+05
2.1921e+05
2.1954e+05
2.1988e+05
2.2021e+05
2.2053e+05
2.2083e+05
2.2116e+05
2.215e+05
2.2184e+05
2.2217e+05
2.2281e+05
2.2315e+05
2.2349e+05
2.2383e+05
2.2417e+05
2.2482e+05
2.2516e+05
2.255e+05
2.2584e+05
2.2619e+05
2.2687e+05
2.272e+05
2.2752e+05
2.2786e+05
2.2821e+05
2.289e+05
2.2921e+05
2.2954e+05
2.2988e+05
2.3023e+05
2.3056e+05
2.3089e+05
2.3121e+05
2.3152e+05
2.3184e+05
2.3217e+05
2.3285e+05
2.3318e+05
2.335e+05
2.3381e+05
2.3413e+05
2.3446e+05
2.348e+05
2.3515e+05
2.3547e+05
2.358e+05
2.3612e+05
2.3647e+05
2.3682e+05
2.3716e+05
2.3749e+05
2.3781e+05
2.3813e+05
2.3881e+05
2.3913e+05
2.3948e+05
2.3981e+05
2.4012e+05
2.4043e+05
2.4107e+05
2.4141e+05
2.4173e+05
2.4204e+05
2.4234e+05
2.4266e+05
2.4299e+05
2.4334e+05
2.4367e+05
2.4527e+05
2.4592e+05
2.4624e+05
2.4688e+05
2.479e+05
2.4857e+05
2.4889e+05
2.4924e+05
2.4959e+05
2.4998e+05
2.5032e+05
2.5066e+05
2.51e+05
2.5137e+05
2.5174e+05
2.5212e+05
2.5249e+05
2.5285e+05
2.5322e+05
2.536e+05
2.5398e+05
2.5437e+05
2.5474e+05
2.5512e+05
2.5548e+05
2.5586e+05
2.5626e+05
2.5666e+05
2.5703e+05
2.574e+05
2.5778e+05
2.5818e+05
2.5859e+05
2.5898e+05
2.5935e+05
2.5973e+05
2.6052e+05
2.613e+05
2.6169e+05
2.6207e+05
2.6245e+05
2.6325e+05
2.6362e+05
2.6399e+05
2.6437e+05
2.6477e+05
2.6497e+05
2.6579e+05
2.6614e+05
2.6651e+05
2.7247e+05
2.7776e+05
2.7879e+05
2.7958e+05
2.7999e+05
2.8055e+05
2.8141e+05
2.8429e+05
2.8507e+05
2.9185e+05
2.9262e+05
2.9342e+05
2.9416e+05
2.9535e+05
2.9574e+05
2.9613e+05
2.965e+05
2.9688e+05
2.9728e+05
2.9807e+05
2.9844e+05
2.9881e+05
2.9921e+05
2.9962e+05
3e+05
3.0037e+05
3.0075e+05
3.0113e+05
3.0155e+05
3.0195e+05
3.0233e+05
3.0295e+05
3.0335e+05
3.0375e+05
3.0414e+05
3.0453e+05
3.049e+05
3.0527e+05
3.0567e+05
3.0609e+05
3.0649e+05
3.0686e+05
3.0723e+05
3.0762e+05
3.0803e+05
3.0842e+05
3.0879e+05
3.0917e+05
3.0954e+05
3.1076e+05
3.119e+05
3.1231e+05
3.1273e+05
3.1312e+05
3.1389e+05
3.143e+05
3.1472e+05
3.1512e+05
3.155e+05
3.1669e+05
3.1709e+05
3.1749e+05
3.1786e+05
3.1825e+05
3.1864e+05
3.1905e+05
3.1945e+05
3.1983e+05
3.2021e+05
3.206e+05
3.2101e+05
3.2141e+05
3.218e+05
3.2218e+05
3.2257e+05
3.2297e+05
3.2337e+05
3.2378e+05
3.2455e+05
3.2495e+05
3.2537e+05
3.2578e+05
3.2617e+05
3.2655e+05
3.2695e+05
3.2736e+05
3.2777e+05
3.2817e+05
3.2856e+05
3.2895e+05
3.2977e+05
3.3018e+05
3.3056e+05
3.3096e+05
3.3135e+05
3.3176e+05
3.3256e+05
3.3293e+05
3.3331e+05
3.337e+05
3.3411e+05
3.345e+05
3.3488e+05
3.3525e+05
3.3566e+05
3.3606e+05
3.3646e+05
3.3685e+05
3.3723e+05
3.3761e+05
3.3801e+05
3.3841e+05
3.3881e+05
3.392e+05
3.3958e+05
3.3997e+05
3.4038e+05
3.4079e+05
3.4118e+05
3.4156e+05
3.4194e+05
3.4237e+05
3.4279e+05
3.4318e+05
3.4357e+05
3.4396e+05
3.4478e+05
3.4518e+05
3.4559e+05
3.4597e+05
3.4636e+05
3.4677e+05
3.4718e+05
3.4758e+05
3.4876e+05
3.4916e+05
3.4994e+05
3.5031e+05
3.5069e+05
3.5108e+05
3.5147e+05
3.5185e+05
3.5221e+05
3.5259e+05
3.5296e+05
3.5336e+05
3.5414e+05
3.5452e+05
3.5489e+05
3.557e+05
3.5641e+05
3.5683e+05
3.5719e+05
3.5759e+05
3.5797e+05
3.5833e+05
3.587e+05
3.5906e+05
3.5943e+05
3.6062e+05
3.6099e+05
3.6222e+05
3.6261e+05
3.63e+05
3.6339e+05
3.6381e+05
3.6423e+05
3.6465e+05
3.6505e+05
3.6544e+05
3.6585e+05
3.6709e+05
3.6787e+05
3.6829e+05
3.6871e+05
3.6913e+05
3.6951e+05
3.6991e+05
3.7032e+05
3.7074e+05
3.7115e+05
3.7156e+05
3.7195e+05
3.7236e+05
3.7278e+05
3.732e+05
3.7361e+05
3.74e+05
3.7441e+05
3.7483e+05
3.7525e+05
3.7568e+05
3.7607e+05
3.7647e+05
3.7689e+05
3.7733e+05
3.7775e+05
3.7815e+05
3.7857e+05
3.7899e+05
3.7942e+05
3.7984e+05
3.8025e+05
3.8066e+05
3.8194e+05
3.8235e+05
3.8315e+05
3.8444e+05
3.8527e+05
3.8615e+05
3.8739e+05
3.8827e+05
3.8869e+05
3.8909e+05
3.8992e+05
3.9115e+05
3.9156e+05
3.9199e+05
3.9242e+05
3.9285e+05
3.9325e+05
3.9366e+05
3.9408e+05
3.9451e+05
3.9495e+05
3.9536e+05
3.9576e+05
3.9618e+05
3.966e+05
3.9752e+05
3.9792e+05
3.9835e+05
3.988e+05
3.9922e+05
3.9963e+05
4.0003e+05
4.0045e+05
4.0089e+05
4.0132e+05
4.0174e+05
4.0214e+05
4.0255e+05
4.0298e+05
4.0341e+05
4.0383e+05
4.0441e+05
4.0494e+05
4.0566e+05
4.0633e+05
4.0702e+05
4.0773e+05
4.0842e+05
4.0909e+05
4.1052e+05
4.1119e+05
4.1154e+05
4.1979e+05
4.2124e+05
4.2193e+05
4.2283e+05
4.2508e+05
4.258e+05
4.2624e+05
4.3709e+05
4.3759e+05
4.3779e+05
4.3869e+05
4.3894e+05
4.3918e+05
4.4003e+05
4.4059e+05
4.4073e+05
4.4165e+05
4.4202e+05
4.4223e+05
4.4264e+05
4.4287e+05
4.4326e+05
4.4366e+05
4.4391e+05
4.4416e+05
4.4458e+05
4.4481e+05
4.4497e+05
4.4519e+05
4.469e+05
4.4721e+05
4.4744e+05
4.4783e+05
4.4809e+05
4.4874e+05
4.4936e+05
4.5065e+05
4.5145e+05
4.5181e+05
4.52e+05
4.524e+05
4.5446e+05
4.5512e+05
4.5605e+05
4.572e+05
4.5783e+05
4.5891e+05
4.5974e+05
4.6078e+05
4.6624e+05
4.6717e+05
4.6888e+05
4.7098e+05
4.7143e+05
4.7167e+05
4.7475e+05
5.0077e+05
5.0125e+05
5.0487e+05
5.1016e+05
5.1119e+05
5.1352e+05
5.1437e+05
5.1493e+05
5.1541e+05
5.1788e+05
5.2027e+05
5.2327e+05
5.294e+05
5.3091e+05
5.328e+05
5.3308e+05
5.3382e+05
5.8798e+05
5.965e+05
5.9919e+05
6.0493e+05
-1
444
838
1259
1675
2074
2460
2851
3270
3690
4102
4495
4894
5299
5713
6112
6500
6892
7290
7710
8144
8557
8953
9358
9780
10211
10450
10999
11390
11786
12189
12597
12982
13377
13774
14196
14626
15045
15445
15856
16280
16712
17121
17502
17892
18296
18709
19104
19493
19885
20289
20712
21138
21555
21952
22353
22783
23211
23627
24023
24430
24857
25281
25688
26077
26472
26879
27299
27718
28122
28516
28921
29347
29778
30186
30581
30987
31427
31851
32245
32626
33015
33406
33807
34206
34596
34982
35374
35790
36212
36617
37002
37388
37806
38218
38621
39019
39413
39834
40256
40672
41074
41466
41857
42270
42682
43092
43481
43874
44292
44719
45125
45521
45914
46333
46759
47177
47585
47984
48391
48810
49232
49637
50030
50422
50837
51264
51672
52061
52454
52871
53308
53731
54138
54551
54976
55402
55820
56218
56610
57007
57420
57841
58241
58630
59029
59456
59891
60304
60691
61095
61510
61929
62342
62741
63143
63554
63974
64402
64798
65183
65573
65983
66410
66812
67196
67600
68028
68455
68870
69267
69667
70081
70500
70923
71323
71709
72116
72536
72964
73370
73763
74174
74612
75046
75464
75866
76281
76707
77129
77545
77930
78313
78723
79147
79566
79959
80342
80748
81167
81578
81979
82203
82757
83167
83581
83987
84379
84770
85183
85608
86032
86433
86824
87225
87658
88073
88311
88846
89229
89638
90035
90431
90825
91211
91618
92044
92467
92872
93265
93653
94075
94500
94904
95300
95692
95930
96504
96898
97275
97650
98044
98454
98859
1.0005e+05
1.0047e+05
1.0158e+05
1.0196e+05
1.0281e+05
1.0363e+05
1.0401e+05
1.0444e+05
1.0468e+05
1.0486e+05
1.0528e+05
1.0571e+05
1.0609e+05
1.0635e+05
1.0648e+05
1.0684e+05
1.069e+05
1.0717e+05
1.073e+05
1.0775e+05
1.0817e+05
1.0856e+05
1.0882e+05
1.0895e+05
1.098e+05
1.1018e+05
1.1056e+05
1.1164e+05
1.1178e+05
1.1219e+05
1.1259e+05
1.1343e+05
1.1379e+05
1.1456e+05
1.1469e+05
1.1509e+05
1.1594e+05
1.1636e+05
1.1677e+05
1.1712e+05
1.1745e+05
1.1758e+05
1.1785e+05
1.1801e+05
1.1871e+05
1.1885e+05
1.1953e+05
1.1968e+05
1.1998e+05
1.2044e+05
1.2115e+05
1.2136e+05
1.3952e+05
1.3995e+05
1.4037e+05
1.4079e+05
1.412e+05
1.4162e+05
1.4205e+05
1.4246e+05
1.4285e+05
1.4324e+05
1.4366e+05
1.4409e+05
1.445e+05
1.4489e+05
1.4516e+05
1.4559e+05
1.4604e+05
1.4648e+05
1.469e+05
1.4733e+05
1.4777e+05
1.482e+05
1.4943e+05
1.498e+05
1.4984e+05
1.5019e+05
1.5059e+05
1.5099e+05
1.5671e+05
1.5912e+05
1.5953e+05
1.5992e+05
1.6032e+05
1.6074e+05
1.6116e+05
1.6198e+05
1.6238e+05
1.6278e+05
1.6319e+05
1.6362e+05
1.6402e+05
1.6441e+05
1.6522e+05
1.6607e+05
1.6647e+05
1.6687e+05
1.673e+05
1.6773e+05
1.6815e+05
1.6854e+05
1.6973e+05
1.6988e+05
1.7029e+05
1.7091e+05
1.7128e+05
1.7167e+05
1.717e+05
1.7205e+05
1.7244e+05
1.7281e+05
1.7318e+05
1.7357e+05
1.7398e+05
1.7438e+05
1.7478e+05
1.7516e+05
1.7595e+05
1.7677e+05
1.7717e+05
1.7756e+05
1.7796e+05
1.7838e+05
1.7881e+05
1.7921e+05
1.7961e+05
1.8001e+05
1.8043e+05
1.8085e+05
1.8125e+05
1.8164e+05
1.8203e+05
1.8244e+05
1.8285e+05
1.8326e+05
1.8366e+05
1.8405e+05
1.8445e+05
1.853e+05
1.8571e+05
1.8611e+05
1.8651e+05
1.8694e+05
1.8736e+05
1.8777e+05
1.8816e+05
1.8855e+05
1.8937e+05
1.8977e+05
1.9056e+05
1.9095e+05
1.9219e+05
1.9258e+05
1.938e+05
1.942e+05
1.9497e+05
1.9579e+05
1.9941e+05
1.998e+05
2.0021e+05
2.006e+05
2.0095e+05
2.0131e+05
2.0168e+05
2.0172e+05
2.0206e+05
2.0219e+05
2.0245e+05
2.0252e+05
2.0281e+05
2.0316e+05
2.0352e+05
2.0391e+05
2.0432e+05
2.0473e+05
2.0632e+05
2.0754e+05
2.0793e+05
2.0833e+05
2.0851e+05
2.0873e+05
2.0911e+05
2.0955e+05
2.1059e+05
2.1096e+05
2.1132e+05
2.1148e+05
2.12e+05
2.1217e+05
2.1268e+05
2.1273e+05
2.1303e+05
2.1338e+05
2.1371e+05
2.1376e+05
2.1403e+05
2.1409e+05
2.1435e+05
2.1453e+05
2.1504e+05
2.1507e+05
2.154e+05
2.1547e+05
2.1573e+05
2.1673e+05
2.1685e+05
2.1741e+05
2.1754e+05
2.1807e+05
2.1853e+05
2.1903e+05
2.1906e+05
2.1937e+05
2.1941e+05
2.1971e+05
2.2004e+05
2.2036e+05
2.2067e+05
2.2071e+05
2.2099e+05
2.2132e+05
2.2166e+05
2.22e+05
2.2204e+05
2.2246e+05
2.2297e+05
2.23e+05
2.2331e+05
2.2365e+05
2.2399e+05
2.2447e+05
2.2449e+05
2.2498e+05
2.2502e+05
2.2532e+05
2.2535e+05
2.2566e+05
2.2578e+05
2.2601e+05
2.2651e+05
2.2702e+05
2.2705e+05
2.2735e+05
2.2768e+05
2.2803e+05
2.2807e+05
2.2854e+05
2.2905e+05
2.2936e+05
2.297e+05
2.3004e+05
2.3038e+05
2.3072e+05
2.3105e+05
2.3136e+05
2.3167e+05
2.32e+05
2.3248e+05
2.3249e+05
2.3301e+05
2.3305e+05
2.3333e+05
2.3365e+05
2.3396e+05
2.3429e+05
2.3462e+05
2.3496e+05
2.3531e+05
2.3563e+05
2.3595e+05
2.3628e+05
2.3663e+05
2.3698e+05
2.3732e+05
2.3764e+05
2.3796e+05
2.3843e+05
2.3845e+05
2.3898e+05
2.3907e+05
2.3929e+05
2.3964e+05
2.397e+05
2.3996e+05
2.4005e+05
2.4027e+05
2.4059e+05
2.413e+05
2.4132e+05
2.4152e+05
2.4157e+05
2.4188e+05
2.4219e+05
2.4249e+05
2.4252e+05
2.4282e+05
2.4316e+05
2.435e+05
2.4382e+05
2.4543e+05
2.4608e+05
2.4639e+05
2.4648e+05
2.4703e+05
2.4805e+05
2.4819e+05
2.4872e+05
2.4904e+05
2.494e+05
2.4976e+05
2.5014e+05
2.5018e+05
2.5047e+05
2.5081e+05
2.5115e+05
2.5153e+05
2.5191e+05
2.5228e+05
2.5264e+05
2.5301e+05
2.5305e+05
2.5337e+05
2.5376e+05
2.5379e+05
2.5414e+05
2.5453e+05
2.5489e+05
2.5527e+05
2.5563e+05
2.5603e+05
2.5643e+05
2.5682e+05
2.5719e+05
2.5756e+05
2.5795e+05
2.5835e+05
2.5875e+05
2.5913e+05
2.5951e+05
2.5989e+05
2.6069e+05
2.6146e+05
2.6184e+05
2.6222e+05
2.6262e+05
2.6341e+05
2.6345e+05
2.6378e+05
2.6415e+05
2.6454e+05
2.6487e+05
2.6507e+05
2.6524e+05
2.6537e+05
2.6629e+05
2.6633e+05
2.6667e+05
2.668e+05
2.7262e+05
2.7792e+05
2.7895e+05
2.7898e+05
2.7975e+05
2.8016e+05
2.8072e+05
2.8158e+05
2.8446e+05
2.8522e+05
2.854e+05
2.92e+05
2.9279e+05
2.9282e+05
2.9367e+05
2.9394e+05
2.9399e+05
2.9432e+05
2.9551e+05
2.959e+05
2.9628e+05
2.9666e+05
2.9705e+05
2.9745e+05
2.9753e+05
2.9822e+05
2.9859e+05
2.9898e+05
2.9939e+05
2.9979e+05
3.0016e+05
3.0053e+05
3.0091e+05
3.0131e+05
3.0172e+05
3.0211e+05
3.0245e+05
3.0266e+05
3.0312e+05
3.0352e+05
3.0391e+05
3.043e+05
3.0468e+05
3.0505e+05
3.0544e+05
3.0585e+05
3.0625e+05
3.0664e+05
3.0702e+05
3.0739e+05
3.0779e+05
3.0819e+05
3.0858e+05
3.0895e+05
3.0932e+05
3.097e+05
3.1011e+05
3.1051e+05
3.1091e+05
3.1097e+05
3.1129e+05
3.1168e+05
3.1207e+05
3.1216e+05
3.1248e+05
3.1266e+05
3.1289e+05
3.1328e+05
3.1366e+05
3.1406e+05
3.1409e+05
3.1447e+05
3.1488e+05
3.1527e+05
3.1565e+05
3.1571e+05
3.1605e+05
3.1617e+05
3.1645e+05
3.1686e+05
3.1725e+05
3.1765e+05
3.1802e+05
3.1841e+05
3.1881e+05
3.1922e+05
3.196e+05
3.1998e+05
3.2036e+05
3.2077e+05
3.2082e+05
3.2118e+05
3.2157e+05
3.2195e+05
3.2212e+05
3.2234e+05
3.2274e+05
3.2314e+05
3.2354e+05
3.2394e+05
3.2432e+05
3.2471e+05
3.2511e+05
3.2554e+05
3.2594e+05
3.2632e+05
3.2671e+05
3.2684e+05
3.2711e+05
3.2727e+05
3.2752e+05
3.2794e+05
3.2833e+05
3.2871e+05
3.2912e+05
3.2953e+05
3.2994e+05
3.3034e+05
3.3072e+05
3.3112e+05
3.3152e+05
3.3193e+05
3.3233e+05
3.3271e+05
3.3309e+05
3.3347e+05
3.3387e+05
3.3427e+05
3.3466e+05
3.3503e+05
3.3541e+05
3.3582e+05
3.3623e+05
3.3663e+05
3.3701e+05
3.3738e+05
3.3778e+05
3.3818e+05
3.3858e+05
3.3898e+05
3.3936e+05
3.3974e+05
3.4013e+05
3.4055e+05
3.4095e+05
3.4134e+05
3.4171e+05
3.4211e+05
3.4254e+05
3.4295e+05
3.4334e+05
3.4372e+05
3.4412e+05
3.4494e+05
3.4535e+05
3.4574e+05
3.4613e+05
3.4653e+05
3.4693e+05
3.4734e+05
3.4773e+05
3.4812e+05
3.4893e+05
3.4933e+05
3.4945e+05
3.4972e+05
3.501e+05
3.5047e+05
3.5086e+05
3.5125e+05
3.5163e+05
3.5201e+05
3.5237e+05
3.5274e+05
3.5312e+05
3.5315e+05
3.5352e+05
3.5391e+05
3.543e+05
3.5467e+05
3.5505e+05
3.5586e+05
3.5662e+05
3.5698e+05
3.5736e+05
3.5776e+05
3.5812e+05
3.5849e+05
3.5885e+05
3.5921e+05
3.5959e+05
3.6e+05
3.6038e+05
3.6077e+05
3.6115e+05
3.6154e+05
3.6197e+05
3.6238e+05
3.6277e+05
3.6316e+05
3.6355e+05
3.6398e+05
3.644e+05
3.6481e+05
3.6521e+05
3.656e+05
3.6602e+05
3.6643e+05
3.6726e+05
3.6764e+05
3.6804e+05
3.6846e+05
3.6888e+05
3.6928e+05
3.6967e+05
3.7007e+05
3.7049e+05
3.709e+05
3.7132e+05
3.7172e+05
3.7211e+05
3.7252e+05
3.7295e+05
3.7336e+05
3.7377e+05
3.7416e+05
3.7457e+05
3.75e+05
3.7542e+05
3.7583e+05
3.7622e+05
3.7663e+05
3.7706e+05
3.7749e+05
3.7791e+05
3.7831e+05
3.7873e+05
3.7916e+05
3.7959e+05
3.8001e+05
3.8042e+05
3.8082e+05
3.821e+05
3.825e+05
3.8332e+05
3.846e+05
3.8544e+05
3.8632e+05
3.8757e+05
3.8844e+05
3.8886e+05
3.8925e+05
3.9009e+05
3.9131e+05
3.9173e+05
3.9216e+05
3.9259e+05
3.9301e+05
3.9342e+05
3.9383e+05
3.9425e+05
3.9468e+05
3.9512e+05
3.9552e+05
3.9592e+05
3.9635e+05
3.9677e+05
3.9742e+05
3.9785e+05
3.9828e+05
3.9873e+05
3.9915e+05
3.9996e+05
4.0039e+05
4.0082e+05
4.0111e+05
4.0125e+05
4.0208e+05
4.0233e+05
4.0248e+05
4.0291e+05
4.0335e+05
4.0417e+05
4.0479e+05
4.0529e+05
4.0585e+05
4.0652e+05
4.0654e+05
4.0722e+05
4.0807e+05
4.0809e+05
4.086e+05
4.0944e+05
4.0946e+05
4.107e+05
4.1139e+05
4.1141e+05
4.1171e+05
4.1185e+05
4.2014e+05
4.2142e+05
4.2226e+05
4.2299e+05
4.2526e+05
4.2601e+05
4.2642e+05
4.2654e+05
4.3619e+05
4.3626e+05
4.3725e+05
4.3741e+05
4.3757e+05
4.3776e+05
4.3794e+05
4.3812e+05
4.3829e+05
4.3862e+05
4.3886e+05
4.3889e+05
4.391e+05
4.3913e+05
4.3933e+05
4.395e+05
4.3967e+05
4.3983e+05
4.3985e+05
4.4e+05
4.4018e+05
4.4035e+05
4.4051e+05
4.4054e+05
4.409e+05
4.4105e+05
4.4121e+05
4.4138e+05
4.4155e+05
4.4181e+05
4.4197e+05
4.4215e+05
4.4239e+05
4.4254e+05
4.4278e+05
4.4299e+05
4.4318e+05
4.4321e+05
4.4342e+05
4.4361e+05
4.4382e+05
4.4386e+05
4.4408e+05
4.443e+05
4.4449e+05
4.4474e+05
4.4512e+05
4.455e+05
4.4565e+05
4.4581e+05
4.4606e+05
4.468e+05
4.4713e+05
4.4735e+05
4.4759e+05
4.4761e+05
4.4779e+05
4.4799e+05
4.4824e+05
4.484e+05
4.4843e+05
4.4861e+05
4.489e+05
4.4905e+05
4.4929e+05
4.4951e+05
4.4976e+05
4.5062e+05
4.509e+05
4.5159e+05
4.5176e+05
4.5192e+05
4.5195e+05
4.5225e+05
4.5264e+05
4.5438e+05
4.5441e+05
4.547e+05
4.5526e+05
4.5552e+05
4.5621e+05
4.5652e+05
4.568e+05
4.5736e+05
4.5773e+05
4.5807e+05
4.5819e+05
4.5877e+05
4.5914e+05
4.6004e+05
4.6006e+05
4.6032e+05
4.6044e+05
4.6062e+05
4.6068e+05
4.612e+05
4.6534e+05
4.6591e+05
4.6639e+05
4.6655e+05
4.6712e+05
4.6731e+05
4.675e+05
4.6796e+05
4.6812e+05
4.6869e+05
4.6885e+05
4.6901e+05
4.6957e+05
4.6959e+05
4.6985e+05
4.7007e+05
4.7024e+05
4.7043e+05
4.7068e+05
4.7072e+05
4.7115e+05
4.714e+05
4.7159e+05
4.7181e+05
4.7211e+05
4.7227e+05
4.7244e+05
4.7275e+05
4.7306e+05
4.7322e+05
4.7325e+05
4.7352e+05
4.7354e+05
4.738e+05
4.7399e+05
4.7416e+05
4.7491e+05
4.7522e+05
4.9693e+05
4.9741e+05
4.9794e+05
4.9859e+05
4.992e+05
5.0098e+05
5.0155e+05
5.0172e+05
5.0221e+05
5.0243e+05
5.0261e+05
5.0287e+05
5.0344e+05
5.046e+05
5.0515e+05
5.0584e+05
5.0603e+05
5.0621e+05
5.0653e+05
5.075e+05
5.0774e+05
5.08e+05
5.0824e+05
5.0897e+05
5.0937e+05
5.1032e+05
5.1056e+05
5.1081e+05
5.1134e+05
5.1162e+05
5.1184e+05
5.1196e+05
5.1242e+05
5.1293e+05
5.1296e+05
5.1326e+05
5.1383e+05
5.1464e+05
5.1486e+05
5.1506e+05
5.1526e+05
5.1569e+05
5.159e+05
5.1612e+05
5.1664e+05
5.1731e+05
5.1774e+05
5.1777e+05
5.1813e+05
5.1816e+05
5.1841e+05
5.1885e+05
5.1955e+05
5.2049e+05
5.2267e+05
5.2316e+05
5.2344e+05
5.2402e+05
5.2425e+05
5.2471e+05
5.2638e+05
5.264e+05
5.2965e+05
5.2968e+05
5.3115e+05
5.3139e+05
5.3158e+05
5.3242e+05
5.3326e+05
5.3337e+05
5.3412e+05
5.3651e+05
5.3683e+05
5.3729e+05
5.3731e+05
5.3748e+05
5.3776e+05
5.3798e+05
5.3817e+05
5.3839e+05
5.3857e+05
5.3884e+05
5.3906e+05
5.3937e+05
5.394e+05
5.3967e+05
5.3971e+05
5.3992e+05
5.4027e+05
5.406e+05
5.4088e+05
5.4091e+05
5.4123e+05
5.4127e+05
5.4145e+05
5.415e+05
5.4176e+05
5.4203e+05
5.4232e+05
5.4251e+05
5.4255e+05
5.4289e+05
5.4293e+05
5.4312e+05
5.4338e+05
5.4355e+05
5.4376e+05
5.4398e+05
5.4419e+05
5.4442e+05
5.4468e+05
5.4471e+05
5.4497e+05
5.4537e+05
5.454e+05
5.4564e+05
5.4587e+05
5.4613e+05
5.4617e+05
5.4637e+05
5.4662e+05
5.4667e+05
5.4685e+05
5.4687e+05
5.4716e+05
5.4719e+05
5.4744e+05
5.4747e+05
5.4789e+05
5.4817e+05
5.4835e+05
5.4906e+05
5.4909e+05
5.4925e+05
5.5003e+05
5.5025e+05
5.5059e+05
5.5175e+05
5.5178e+05
5.5193e+05
5.5196e+05
5.6773e+05
5.6841e+05
5.6844e+05
5.6867e+05
5.6914e+05
5.694e+05
5.6997e+05
5.708e+05
5.7099e+05
5.7134e+05
5.716e+05
5.7188e+05
5.7213e+05
5.7233e+05
5.7248e+05
5.7271e+05
5.7274e+05
5.7292e+05
5.733e+05
5.7351e+05
5.7375e+05
5.7378e+05
5.7399e+05
5.742e+05
5.7492e+05
5.7495e+05
5.7518e+05
5.7555e+05
5.7579e+05
5.7607e+05
5.7647e+05
5.7679e+05
5.7701e+05
5.7772e+05
5.7775e+05
5.7796e+05
5.7853e+05
5.7856e+05
5.7886e+05
5.7905e+05
5.7908e+05
5.7984e+05
5.7987e+05
5.8017e+05
5.8021e+05
5.8073e+05
5.8108e+05
5.811e+05
5.8148e+05
5.8201e+05
5.857e+05
5.8635e+05
5.8639e+05
5.8661e+05
5.8727e+05
5.8793e+05
5.8813e+05
5.8847e+05
5.888e+05
5.8912e+05
5.8939e+05
5.8943e+05
5.8962e+05
5.8983e+05
5.9004e+05
5.9011e+05
5.904e+05
5.9044e+05
5.9066e+05
5.9113e+05
5.913e+05
5.9184e+05
5.9206e+05
5.9209e+05
5.9231e+05
5.9234e+05
5.9297e+05
5.9323e+05
5.9375e+05
5.9418e+05
5.948e+05
5.9515e+05
5.9628e+05
5.9671e+05
5.9714e+05
5.9766e+05
5.9843e+05
5.9939e+05
6.0007e+05
6.0061e+05
6.008e+05
6.01e+05
6.0126e+05
6.0196e+05
6.0215e+05
6.0233e+05
6.0266e+05
6.0297e+05
6.0299e+05
6.0335e+05
6.0374e+05
6.0416e+05
6.0433e+05
6.0458e+05
6.0489e+05
6.0526e+05
6.3585e+05
6.3589e+05
6.3622e+05
6.3641e+05
6.3669e+05
6.3705e+05
6.3733e+05
6.3756e+05
6.3774e+05
6.3789e+05
6.3817e+05
6.3846e+05
6.3849e+05
6.3873e+05
6.39e+05
6.3916e+05
6.3938e+05
6.3995e+05
6.4022e+05
6.4029e+05
6.4058e+05
6.4083e+05
6.4103e+05
6.4106e+05
6.4144e+05
6.4171e+05
6.4196e+05
6.4216e+05
6.422e+05
6.4267e+05
6.427e+05
6.4299e+05
6.4319e+05
6.4347e+05
6.4353e+05
6.4372e+05
6.4391e+05
6.441e+05
6.4412e+05
6.444e+05
6.4442e+05
6.4461e+05
6.4512e+05
6.4537e+05
6.4569e+05
6.4598e+05
6.4635e+05
6.4659e+05
6.4741e+05
6.4744e+05
6.4773e+05
6.4842e+05
6.4881e+05
6.4919e+05
