342
590
810
1199
1428
1669
2022
2321
2574
2739
3059
3282
3380
3927
4151
4454
4781
5375
5581
6335
6621
7149
9880
10665
10759
11813
12196
12476
12663
13129
13440
13702
14530
14866
15172
15570
15851
16232
16492
16786
16953
17209
17330
17591
17850
18170
18355
18581
18846
19196
19332
19972
20220
20527
20655
21580
22052
22333
22460
22587
23162
24647
24815
24951
25263
25368
26524
26758
27139
27450
27757
28151
28382
28590
28793
28944
29719
29935
30504
31141
31518
31963
32446
32876
33333
33647
34181
34526
34932
35466
35741
36022
36226
36496
36854
37219
37463
37699
37834
38332
38574
38773
38935
39203
39393
39722
39990
40194
40603
40773
41166
41578
41733
42051
42380
42581
42825
42986
43626
43767
43909
44376
44684
44823
45235
45638
45917
46060
46670
46797
46991
47301
47543
47971
48104
48666
49002
49130
49343
49493
50044
50369
50675
50971
51122
51376
51572
51825
52111
52402
52884
53118
53643
54069
54275
54402
54671
54869
55369
55746
55903
56141
56792
58034
58261
58501
58990
59296
59833
60032
60367
60553
60924
61126
61419
61827
62727
63021
63203
63479
64076
64266
64525
64787
65247
65544
66381
66820
67415
68321
68525
68774
70181
70460
70942
71308
71869
72661
73108
73578
73731
73975
75404
75629
76927
77496
78054
78249
78487
78776
79416
79730
80521
80931
81122
81311
82070
82344
82592
83608
83812
84230
84492
84713
85254
85404
85781
86174
86434
86747
86971
87234
87816
88045
88264
88714
89194
89441
90469
90714
91035
91318
91551
91832
92038
92520
93595
93867
94165
94410
95218
95753
95890
96163
96647
96799
97334
97815
98314
98923
1.4932e+05
1.5601e+05
1.8018e+05
2.809e+05
3.9761e+05
3.9984e+05
4.0389e+05
4.0538e+05
4.0903e+05
4.0985e+05
4.1102e+05
4.134e+05
4.1399e+05
4.1466e+05
4.1516e+05
4.1838e+05
4.2834e+05
4.3675e+05
4.3725e+05
4.3754e+05
4.3837e+05
4.39e+05
4.3931e+05
4.3963e+05
4.4004e+05
4.406e+05
4.4104e+05
4.4215e+05
4.4469e+05
4.4586e+05
4.485e+05
4.502e+05
4.5255e+05
4.5552e+05
4.5579e+05
4.5704e+05
4.5861e+05
4.6946e+05
4.6995e+05
4.7825e+05
4.8689e+05
4.8939e+05
4.8997e+05
4.9023e+05
4.9217e+05
4.9316e+05
4.9426e+05
4.9528e+05
4.9642e+05
4.9699e+05
4.9722e+05
4.9741e+05
4.9764e+05
4.9792e+05
4.9829e+05
4.9882e+05
4.9908e+05
4.9981e+05
5.0022e+05
5.0067e+05
5.0094e+05
5.0122e+05
5.0195e+05
5.0244e+05
5.0275e+05
5.03e+05
5.0371e+05
5.0394e+05
5.0423e+05
5.0446e+05
5.0465e+05
5.049e+05
5.0533e+05
5.058e+05
5.0598e+05
5.0623e+05
5.07e+05
5.074e+05
5.0765e+05
5.0781e+05
5.0892e+05
5.0916e+05
5.1003e+05
5.1063e+05
5.1103e+05
5.1119e+05
5.1133e+05
5.1157e+05
5.1194e+05
5.1215e+05
5.1243e+05
5.1288e+05
5.1323e+05
5.1361e+05
5.1389e+05
5.1406e+05
5.1474e+05
5.1551e+05
5.1586e+05
5.1668e+05
5.1698e+05
5.1803e+05
5.1822e+05
5.1844e+05
5.1877e+05
5.1931e+05
5.1979e+05
5.1999e+05
5.2027e+05
5.2049e+05
5.2103e+05
5.2147e+05
5.2169e+05
5.2216e+05
5.227e+05
5.232e+05
5.2344e+05
5.2369e+05
5.2399e+05
5.2426e+05
5.2456e+05
5.2503e+05
5.2521e+05
5.2521e+05
5.2554e+05
5.2585e+05
5.2624e+05
5.2676e+05
5.2702e+05
5.2733e+05
5.2775e+05
5.2801e+05
5.2838e+05
5.2878e+05
5.2923e+05
5.2956e+05
5.2993e+05
5.3013e+05
5.3043e+05
5.3082e+05
5.3128e+05
5.3193e+05
5.3215e+05
5.3236e+05
5.3259e+05
5.328e+05
5.3312e+05
5.3341e+05
5.3386e+05
5.3454e+05
5.3555e+05
5.3583e+05
5.3697e+05
5.3818e+05
5.3887e+05
5.4804e+05
5.4905e+05
5.4966e+05
5.5189e+05
5.5256e+05
5.538e+05
5.563e+05
5.5673e+05
5.5726e+05
5.5794e+05
5.5824e+05
5.6014e+05
5.6061e+05
5.6104e+05
5.6125e+05
5.6207e+05
5.6231e+05
5.627e+05
5.6288e+05
5.6381e+05
5.6493e+05
5.6532e+05
5.6607e+05
5.6734e+05
5.6752e+05
5.69e+05
5.6976e+05
5.7071e+05
5.7116e+05
5.7196e+05
5.7221e+05
5.7316e+05
5.733e+05
5.7343e+05
5.7433e+05
5.7455e+05
5.7554e+05
5.758e+05
5.7648e+05
5.7688e+05
5.7738e+05
5.7795e+05
5.7842e+05
5.8159e+05
5.8237e+05
5.8265e+05
5.8435e+05
5.8574e+05
5.8685e+05
5.8706e+05
5.8728e+05
5.8819e+05
5.8849e+05
5.8877e+05
5.9003e+05
5.907e+05
5.9259e+05
5.9659e+05
5.9934e+05
5.9982e+05
6.0042e+05
6.0085e+05
6.0168e+05
6.019e+05
6.0211e+05
6.029e+05
6.0361e+05
6.0782e+05
6.0868e+05
6.1045e+05
6.1096e+05
6.1228e+05
6.1639e+05
6.1698e+05
6.1782e+05
6.1974e+05
6.2084e+05
6.2185e+05
6.2216e+05
6.2248e+05
6.2353e+05
6.239e+05
6.2429e+05
6.2521e+05
6.2544e+05
6.2579e+05
6.2602e+05
6.2653e+05
6.2685e+05
6.2735e+05
6.2854e+05
6.2884e+05
6.2964e+05
6.3011e+05
6.3075e+05
6.31e+05
6.3121e+05
6.3194e+05
6.3221e+05
6.3242e+05
6.3272e+05
6.3372e+05
6.3399e+05
6.3498e+05
6.3525e+05
6.3614e+05
6.3638e+05
6.3764e+05
6.3793e+05
6.3906e+05
6.3996e+05
6.4124e+05
6.4144e+05
6.4239e+05
6.4267e+05
6.4355e+05
6.4379e+05
6.4555e+05
6.4585e+05
6.4615e+05
6.468e+05
6.4706e+05
6.4736e+05
6.4762e+05
6.48e+05
6.4823e+05
6.4858e+05
6.4919e+05
6.4941e+05
-1
484
746
773
945
1097
1375
1585
1808
1938
1985
2214
2476
2895
3233
3537
3564
3817
4074
4372
4587
4929
4988
5115
5319
5524
5728
5893
5930
6076
6278
6493
6804
7023
7359
7669
7825
8207
8584
8982
9201
9375
9513
9754
10048
10249
10551
10910
10990
11168
11434
11738
11939
12093
12376
12605
12839
13086
13286
13653
13858
14096
14375
14671
14973
15305
15483
15721
15977
16141
16372
16387
16723
16745
16926
17142
17504
17724
17994
18310
18506
18767
19010
19475
19894
20189
20346
20800
20943
21319
21451
21763
21931
22221
22975
23481
23844
24127
24303
24440
25128
25506
25731
26085
26386
26648
26908
27040
27254
27595
27871
28048
28266
28533
28718
29097
29425
29622
29870
30141
30350
30673
30823
31092
31382
31665
31683
31931
32128
32298
32602
32814
33036
33203
33472
33850
33978
34400
34657
34821
35059
35210
35617
35874
36393
36611
36976
37028
37399
37645
38182
38224
38476
38494
39340
39579
39818
40108
40329
40462
40925
41328
41473
41882
42204
42525
42775
43126
43508
44101
44327
44949
45153
45800
46189
46399
46560
46928
47127
47454
47711
48265
48509
48854
49258
49640
49767
50232
50816
51254
51500
51731
52028
52318
52561
53010
53238
53463
53872
54213
54519
54549
54797
55000
55238
55466
56068
56280
56407
56577
56894
57074
57322
57605
57897
58175
58429
58668
58897
59184
59465
59711
59988
60179
60468
60701
60887
61295
61589
61785
62011
62163
62358
62601
62863
63159
63360
63644
63822
63996
64009
64446
64686
64959
65146
65423
65746
65954
66121
66289
66582
66769
66966
67136
67312
67574
67868
68029
68179
68467
68704
68957
69274
69496
69713
70026
70371
70609
70819
71075
71211
71450
71700
71960
72218
72405
72615
73038
73250
73476
73900
74138
74303
74807
75294
75564
75841
75868
75988
76188
76334
76594
76784
77072
77660
77799
78162
78433
78673
78895
79025
79612
79894
79938
80152
80440
80716
81498
81729
81949
82238
82474
82751
83247
83447
83773
83966
84388
84650
84920
85190
85528
85714
86130
86369
86573
86909
87206
87416
87705
87961
88207
88461
88902
89101
89323
89694
89875
89977
90148
90304
90626
90827
91179
91464
91715
91947
92178
92344
92666
92860
93254
93512
93750
93809
94054
94331
94574
94748
95113
95379
95694
96013
96338
96484
96911
97106
97527
97723
98037
98229
98491
98739
99896
1.0152e+05
1.0402e+05
1.0533e+05
1.0892e+05
1.0938e+05
1.0978e+05
1.0989e+05
1.1122e+05
1.2208e+05
1.2336e+05
1.3596e+05
1.3661e+05
1.3964e+05
1.399e+05
1.4029e+05
1.4098e+05
1.4104e+05
1.4129e+05
1.4145e+05
1.4253e+05
1.4345e+05
1.4385e+05
1.4493e+05
1.4605e+05
1.4614e+05
1.4685e+05
1.4726e+05
1.4796e+05
1.4801e+05
1.4886e+05
1.49e+05
1.4927e+05
1.4957e+05
1.5022e+05
1.5046e+05
1.507e+05
1.5101e+05
1.5129e+05
1.5155e+05
1.5191e+05
1.5218e+05
1.5222e+05
1.5239e+05
1.5258e+05
1.5261e+05
1.5286e+05
1.5332e+05
1.5427e+05
1.5467e+05
1.5509e+05
1.5532e+05
1.5557e+05
1.5593e+05
1.5618e+05
1.5654e+05
1.5679e+05
1.5703e+05
1.5736e+05
1.5803e+05
1.5869e+05
1.5901e+05
1.5924e+05
1.5951e+05
1.5986e+05
1.6068e+05
1.616e+05
1.6333e+05
1.7006e+05
1.7023e+05
1.7141e+05
1.7234e+05
1.7385e+05
1.7388e+05
1.7923e+05
1.8037e+05
1.8412e+05
1.9927e+05
2.1141e+05
2.1361e+05
2.237e+05
2.2374e+05
2.2409e+05
2.2585e+05
2.2819e+05
2.2856e+05
2.2859e+05
2.2982e+05
2.3119e+05
2.3125e+05
2.3319e+05
2.3437e+05
2.3511e+05
2.4559e+05
2.4593e+05
2.4782e+05
2.5194e+05
2.5199e+05
2.533e+05
2.5334e+05
2.5589e+05
2.5829e+05
2.5913e+05
2.5928e+05
2.6715e+05
2.6928e+05
2.6933e+05
2.716e+05
2.7162e+05
2.722e+05
2.7221e+05
2.7328e+05
2.7559e+05
2.756e+05
2.7646e+05
2.8106e+05
2.9905e+05
2.9908e+05
3.0057e+05
3.0097e+05
3.0148e+05
3.015e+05
3.0189e+05
3.0228e+05
3.0243e+05
3.0352e+05
3.0354e+05
3.047e+05
3.0737e+05
3.0743e+05
3.0782e+05
3.0797e+05
3.0828e+05
3.1e+05
3.101e+05
3.1075e+05
3.1203e+05
3.1206e+05
3.1326e+05
3.1328e+05
3.1412e+05
3.1507e+05
3.1508e+05
3.1548e+05
3.1662e+05
3.1793e+05
3.1893e+05
3.2091e+05
3.221e+05
3.2247e+05
3.2268e+05
3.2323e+05
3.2553e+05
3.2554e+05
3.2936e+05
3.2973e+05
3.2977e+05
3.3691e+05
3.3694e+05
3.4095e+05
3.4107e+05
3.4831e+05
3.5126e+05
3.5943e+05
3.6597e+05
3.6921e+05
3.7201e+05
3.7311e+05
3.7315e+05
3.7397e+05
3.7402e+05
3.7482e+05
3.8133e+05
3.8465e+05
3.8847e+05
3.9774e+05
4.0003e+05
4.0004e+05
4.0402e+05
4.0435e+05
4.0562e+05
4.0684e+05
4.0849e+05
4.0932e+05
4.1002e+05
4.1069e+05
4.1126e+05
4.1363e+05
4.1412e+05
4.1494e+05
4.1533e+05
4.1614e+05
4.1618e+05
4.1792e+05
4.1851e+05
4.1862e+05
4.1948e+05
4.1997e+05
4.2001e+05
4.2147e+05
4.2534e+05
4.2791e+05
4.2862e+05
4.3711e+05
4.3745e+05
4.3767e+05
4.3779e+05
4.3793e+05
4.3807e+05
4.3827e+05
4.3848e+05
4.386e+05
4.3886e+05
4.3914e+05
4.3951e+05
4.3985e+05
4.4015e+05
4.4043e+05
4.4074e+05
4.4097e+05
4.4115e+05
4.4119e+05
4.4182e+05
4.4207e+05
4.4229e+05
4.4248e+05
4.4308e+05
4.4426e+05
4.4452e+05
4.4491e+05
4.4524e+05
4.4534e+05
4.461e+05
4.4809e+05
4.4868e+05
4.5052e+05
4.5276e+05
4.5336e+05
4.5566e+05
4.5571e+05
4.5599e+05
4.5735e+05
4.5825e+05
4.5858e+05
4.5885e+05
4.5931e+05
4.5969e+05
4.6033e+05
4.6058e+05
4.6209e+05
4.6266e+05
4.6348e+05
4.6455e+05
4.6545e+05
4.6606e+05
4.662e+05
4.6724e+05
4.6751e+05
4.6776e+05
4.6806e+05
4.6808e+05
4.6856e+05
4.6886e+05
4.6907e+05
4.691e+05
4.6933e+05
4.6961e+05
4.6987e+05
4.7021e+05
4.7152e+05
4.7841e+05
4.8286e+05
4.8618e+05
4.8705e+05
4.8741e+05
4.8842e+05
4.8847e+05
4.8969e+05
4.8972e+05
4.9018e+05
4.9073e+05
4.9234e+05
4.9274e+05
4.9353e+05
4.9437e+05
4.9446e+05
4.9472e+05
4.9489e+05
4.9494e+05
4.9547e+05
4.9577e+05
4.9656e+05
4.9682e+05
4.9713e+05
4.9733e+05
4.9754e+05
4.9784e+05
4.9805e+05
4.9825e+05
4.985e+05
4.9871e+05
4.9896e+05
4.9923e+05
4.9946e+05
4.9974e+05
4.9994e+05
5.0016e+05
5.0039e+05
5.0055e+05
5.0078e+05
5.0113e+05
5.0142e+05
5.0152e+05
5.0172e+05
5.0188e+05
5.0192e+05
5.0215e+05
5.0216e+05
5.0234e+05
5.0235e+05
5.0262e+05
5.0264e+05
5.0288e+05
5.0292e+05
5.0315e+05
5.0331e+05
5.0335e+05
5.0358e+05
5.036e+05
5.0383e+05
5.0387e+05
5.041e+05
5.0413e+05
5.0442e+05
5.0462e+05
5.0484e+05
5.0505e+05
5.0525e+05
5.0547e+05
5.0557e+05
5.0577e+05
5.0589e+05
5.0594e+05
5.0615e+05
5.0643e+05
5.0661e+05
5.069e+05
5.0718e+05
5.0731e+05
5.0737e+05
5.0753e+05
5.0757e+05
5.0777e+05
5.0797e+05
5.0817e+05
5.0869e+05
5.0885e+05
5.0946e+05
5.0992e+05
5.1016e+05
5.1033e+05
5.1054e+05
5.108e+05
5.1094e+05
5.1148e+05
5.1172e+05
5.1208e+05
5.1227e+05
5.1257e+05
5.128e+05
5.1305e+05
5.1308e+05
5.1335e+05
5.1349e+05
5.1354e+05
5.1372e+05
5.1403e+05
5.1422e+05
5.149e+05
5.1494e+05
5.1568e+05
5.1605e+05
5.165e+05
5.1681e+05
5.1711e+05
5.1733e+05
5.1755e+05
5.1771e+05
5.1797e+05
5.1817e+05
5.184e+05
5.1863e+05
5.1891e+05
5.1906e+05
5.1929e+05
5.1952e+05
5.1969e+05
5.2019e+05
5.204e+05
5.2067e+05
5.2096e+05
5.212e+05
5.2137e+05
5.2142e+05
5.2159e+05
5.2189e+05
5.2234e+05
5.2284e+05
5.2301e+05
5.2335e+05
5.2359e+05
5.2384e+05
5.2415e+05
5.2445e+05
5.2467e+05
5.2487e+05
5.2513e+05
5.2543e+05
5.2572e+05
5.2599e+05
5.2618e+05
5.2639e+05
5.2664e+05
5.2685e+05
5.2718e+05
5.2754e+05
5.2793e+05
5.2815e+05
5.2859e+05
5.2892e+05
5.2894e+05
5.2911e+05
5.2938e+05
5.2971e+05
5.3008e+05
5.303e+05
5.306e+05
5.3096e+05
5.3111e+05
5.3124e+05
5.3152e+05
5.317e+05
5.3208e+05
5.3228e+05
5.325e+05
5.3276e+05
5.3295e+05
5.3327e+05
5.3357e+05
5.3361e+05
5.34e+05
5.3404e+05
5.343e+05
5.3435e+05
5.3477e+05
5.3504e+05
5.3508e+05
5.353e+05
5.3571e+05
5.3593e+05
5.3713e+05
5.3809e+05
5.3831e+05
5.3909e+05
5.3915e+05
5.4816e+05
5.4921e+05
5.4988e+05
5.5205e+05
5.5269e+05
5.5289e+05
5.5392e+05
5.5648e+05
5.5692e+05
5.574e+05
5.5761e+05
5.5786e+05
5.5808e+05
5.5841e+05
5.5856e+05
5.5859e+05
5.5898e+05
5.597e+05
5.6034e+05
5.6083e+05
5.6116e+05
5.614e+05
5.6157e+05
5.6188e+05
5.622e+05
5.6246e+05
5.6281e+05
5.6304e+05
5.6365e+05
5.6398e+05
5.6431e+05
5.6455e+05
5.6508e+05
5.6524e+05
5.6546e+05
5.6567e+05
5.6623e+05
5.6713e+05
5.6746e+05
5.6771e+05
5.6847e+05
5.6861e+05
5.6914e+05
5.6992e+05
5.7085e+05
5.7129e+05
5.7216e+05
5.7236e+05
5.7355e+05
5.7447e+05
5.7473e+05
5.7569e+05
5.7574e+05
5.7663e+05
5.7709e+05
5.7751e+05
5.7813e+05
5.7826e+05
5.785e+05
5.7863e+05
5.788e+05
5.8169e+05
5.8184e+05
5.8252e+05
5.8284e+05
5.8302e+05
5.839e+05
5.8471e+05
5.8594e+05
5.8699e+05
5.8722e+05
5.8746e+05
5.8777e+05
5.8797e+05
5.8839e+05
5.8868e+05
5.8888e+05
5.8975e+05
5.8985e+05
5.9015e+05
5.9086e+05
5.9273e+05
5.9669e+05
5.9702e+05
5.9705e+05
5.9952e+05
5.9996e+05
6.0017e+05
6.0065e+05
6.0066e+05
6.0119e+05
6.0181e+05
6.0203e+05
6.0243e+05
6.0321e+05
6.0393e+05
6.0807e+05
6.0905e+05
6.1074e+05
6.1076e+05
6.1122e+05
6.1264e+05
6.1376e+05
6.1653e+05
6.1724e+05
6.1795e+05
6.1899e+05
6.1965e+05
6.2002e+05
6.2062e+05
6.2102e+05
6.2129e+05
6.2207e+05
6.224e+05
6.2263e+05
6.2295e+05
6.2298e+05
6.2381e+05
6.2399e+05
6.242e+05
6.2459e+05
6.2541e+05
6.2561e+05
6.2594e+05
6.2625e+05
6.2671e+05
6.2707e+05
6.2708e+05
6.2836e+05
6.2872e+05
6.2921e+05
6.2977e+05
6.2996e+05
6.3029e+05
6.3032e+05
6.3116e+05
6.3152e+05
6.3156e+05
6.3208e+05
6.3235e+05
6.3262e+05
6.3297e+05
6.3392e+05
6.3413e+05
6.3452e+05
6.3512e+05
6.3537e+05
6.3555e+05
6.3574e+05
6.3632e+05
6.3672e+05
6.3757e+05
6.3782e+05
6.3812e+05
6.3923e+05
6.402e+05
6.4135e+05
6.4139e+05
6.4158e+05
6.4181e+05
6.4189e+05
6.4251e+05
6.4281e+05
6.437e+05
6.44e+05
6.4505e+05
6.4573e+05
6.4607e+05
6.463e+05
6.4663e+05
6.4697e+05
6.4722e+05
6.4752e+05
6.4756e+05
6.4776e+05
6.4815e+05
6.4839e+05
6.4871e+05
6.4881e+05
6.491e+05
6.4932e+05
6.4953e+05
