180
416
656
893
1134
1381
1620
1853
2093
2343
2584
2824
3064
3304
3542
3788
4034
4274
4511
4753
5009
5250
5492
5731
5977
6214
6461
6703
6943
7177
7420
7660
7897
8130
8369
8606
8847
9088
9325
9561
9799
10045
10289
10526
10760
10993
11229
11470
11716
11950
12187
12424
12670
12911
13155
13392
13634
13872
14119
14369
14612
14852
15095
15344
15588
15828
16068
16307
16547
16789
17038
17276
17512
17752
17999
18241
18479
18719
18961
19199
19447
19688
19931
20165
20412
20658
20902
21141
21382
21623
21876
22124
22368
22609
22851
23097
23343
23583
23823
24059
24295
24538
24784
25019
25257
25494
25740
25976
26218
26454
26696
26932
27175
27417
27655
27894
28137
28388
28629
28864
29102
29342
29582
29824
30067
30302
30545
30787
31037
31279
31517
31752
31994
32234
32479
32719
32960
33192
33432
33674
33914
34147
34382
34621
34860
35102
35346
35584
35819
36060
36304
36544
36777
37012
37252
37488
37731
37967
38206
38436
38677
38916
39156
39388
39621
39858
40096
40336
40575
40810
41045
41282
41524
41760
41992
42224
42459
42693
42931
43168
43407
43637
43877
44120
44361
44598
44837
45079
45323
45567
45808
46050
46290
46535
46777
47017
47256
47493
47733
47974
48218
48454
48696
48939
49187
49426
49666
49902
50147
50384
50628
50872
51109
51343
51583
51829
52068
52304
52541
52781
53023
53271
53517
53755
53991
54231
54480
54718
54954
55188
55428
55665
55906
56146
56387
56624
56866
57112
57354
57593
57836
58076
58320
58560
58797
59037
59272
59514
59751
59988
60221
60456
60693
60935
61176
61412
61650
61887
62134
62377
62616
62850
63084
63321
63562
63806
64039
64271
64509
64756
64999
65239
65476
65715
65953
66196
66441
66676
66913
67148
67390
67628
67865
68096
68327
68559
68798
69040
69275
69510
69744
69987
70229
70470
70706
70938
71174
71413
71656
71891
72124
72359
72595
72836
73073
73307
73541
73779
74018
74259
74493
74736
74971
75218
75458
75697
75930
76171
76414
76658
76907
77147
77386
77627
77878
78121
78362
78603
78844
79084
79326
79576
79816
80055
80296
80545
80788
81028
81267
81515
81762
82006
82249
82492
82732
82984
83231
83474
83712
83948
84186
84427
84676
84914
85152
85393
85641
85881
86125
86364
86607
86843
87085
87332
87575
87812
88049
88294
88532
88767
88969
89244
89480
89718
89961
90196
90427
90665
90909
91145
91375
91607
91850
92088
92327
92567
92802
93038
93279
93525
93761
93990
94223
94462
94696
94933
95165
95403
95632
95877
96115
96355
96584
96819
97057
97288
97526
97762
97994
98219
98450
98690
98919
99151
3.516e+05
4.0542e+05
4.2888e+05
4.3705e+05
4.3731e+05
4.3756e+05
4.3783e+05
4.3808e+05
4.3834e+05
4.386e+05
4.3886e+05
4.3912e+05
4.3937e+05
4.3963e+05
4.3988e+05
4.4014e+05
4.4039e+05
4.4065e+05
4.409e+05
4.4116e+05
4.4142e+05
4.4168e+05
4.4193e+05
4.4219e+05
4.4245e+05
4.4271e+05
4.4296e+05
4.4322e+05
4.4348e+05
4.4374e+05
4.44e+05
4.4426e+05
4.4451e+05
4.4477e+05
4.4503e+05
4.4529e+05
4.4555e+05
4.458e+05
4.4605e+05
4.4632e+05
4.4658e+05
4.4684e+05
4.4709e+05
4.4734e+05
4.476e+05
4.4787e+05
4.4812e+05
4.4838e+05
4.489e+05
4.4916e+05
4.4968e+05
4.4993e+05
4.5019e+05
4.5151e+05
4.6308e+05
4.6441e+05
4.6467e+05
4.6807e+05
4.6833e+05
4.686e+05
4.6886e+05
4.6912e+05
4.6938e+05
4.6965e+05
4.6991e+05
4.7016e+05
4.7042e+05
4.7068e+05
4.7094e+05
4.712e+05
4.7147e+05
4.7172e+05
4.7198e+05
4.7225e+05
4.7251e+05
4.7277e+05
4.7302e+05
4.7328e+05
4.7354e+05
4.738e+05
4.7406e+05
4.7431e+05
4.7457e+05
4.7483e+05
4.7509e+05
4.7534e+05
4.756e+05
4.7586e+05
4.7611e+05
4.7637e+05
4.7663e+05
4.7715e+05
4.774e+05
4.7767e+05
4.7818e+05
4.7843e+05
4.7869e+05
4.792e+05
4.797e+05
4.7996e+05
4.8022e+05
4.8048e+05
4.81e+05
4.8125e+05
4.8151e+05
4.8177e+05
4.8203e+05
4.8228e+05
4.8331e+05
4.8382e+05
4.8408e+05
4.8434e+05
4.8459e+05
4.8485e+05
4.8511e+05
4.8562e+05
4.8588e+05
4.8613e+05
4.8638e+05
4.8664e+05
4.869e+05
4.8715e+05
4.874e+05
4.8819e+05
4.8844e+05
4.8896e+05
4.8923e+05
4.8976e+05
4.9002e+05
4.9028e+05
4.9107e+05
4.9133e+05
4.9211e+05
4.934e+05
4.9417e+05
4.9469e+05
4.9495e+05
4.9651e+05
4.9677e+05
4.9703e+05
4.9729e+05
4.9755e+05
4.978e+05
4.9807e+05
4.9833e+05
4.986e+05
4.9885e+05
4.9911e+05
4.9937e+05
4.9963e+05
4.9989e+05
5.0015e+05
5.004e+05
5.0066e+05
5.0092e+05
5.0118e+05
5.0144e+05
5.017e+05
5.0196e+05
5.0222e+05
5.0248e+05
5.0274e+05
5.0299e+05
5.0326e+05
5.0352e+05
5.0378e+05
5.0404e+05
5.0431e+05
5.0457e+05
5.0484e+05
5.0511e+05
5.0537e+05
5.0564e+05
5.0592e+05
5.0618e+05
5.0645e+05
5.0671e+05
5.0698e+05
5.0725e+05
5.0753e+05
5.0779e+05
5.0806e+05
5.0833e+05
5.086e+05
5.0887e+05
5.0913e+05
5.0939e+05
5.0966e+05
5.0992e+05
5.1019e+05
5.1046e+05
5.1072e+05
5.1099e+05
5.1125e+05
5.1152e+05
5.1178e+05
5.1204e+05
5.123e+05
5.1256e+05
5.1282e+05
5.1308e+05
5.1333e+05
5.136e+05
5.1386e+05
5.1412e+05
5.1437e+05
5.1489e+05
5.1505e+05
5.1541e+05
5.1567e+05
5.1592e+05
5.1618e+05
5.1645e+05
5.167e+05
5.1695e+05
5.1721e+05
5.1746e+05
5.1772e+05
5.1798e+05
5.1824e+05
5.185e+05
5.1877e+05
5.1903e+05
5.1929e+05
5.1956e+05
5.1982e+05
5.2009e+05
5.2036e+05
5.2062e+05
5.2088e+05
5.2114e+05
5.2141e+05
5.2168e+05
5.2193e+05
5.2219e+05
5.2245e+05
5.2272e+05
5.2298e+05
5.2324e+05
5.235e+05
5.2377e+05
5.2404e+05
5.2458e+05
5.2484e+05
5.251e+05
5.2537e+05
5.2564e+05
5.258e+05
5.2678e+05
5.2699e+05
5.272e+05
5.282e+05
5.3041e+05
5.3049e+05
5.3085e+05
5.3104e+05
5.3134e+05
5.318e+05
5.3214e+05
5.324e+05
5.3266e+05
5.3292e+05
5.3319e+05
5.3346e+05
5.3372e+05
5.3398e+05
5.3452e+05
5.3479e+05
5.3504e+05
5.3531e+05
5.3557e+05
5.3583e+05
5.3609e+05
5.3636e+05
5.3661e+05
5.3688e+05
5.3715e+05
5.3741e+05
5.3767e+05
5.3793e+05
5.3819e+05
5.3845e+05
5.3871e+05
5.3896e+05
5.3922e+05
5.3948e+05
5.3975e+05
5.4e+05
5.4026e+05
5.4053e+05
5.4079e+05
5.4106e+05
5.4132e+05
5.4159e+05
5.4185e+05
5.4212e+05
5.4239e+05
5.4265e+05
5.4291e+05
5.4317e+05
5.4344e+05
5.437e+05
5.4396e+05
5.4422e+05
5.4448e+05
5.4476e+05
5.4502e+05
5.4528e+05
5.4554e+05
5.458e+05
5.4607e+05
5.4634e+05
5.466e+05
5.4685e+05
5.4712e+05
5.4739e+05
5.4765e+05
5.4791e+05
5.4817e+05
5.4844e+05
5.487e+05
5.4898e+05
5.4924e+05
5.495e+05
5.4978e+05
5.5005e+05
5.5032e+05
5.5059e+05
5.5086e+05
5.5112e+05
5.514e+05
5.5167e+05
5.5194e+05
5.522e+05
5.5248e+05
5.5275e+05
5.5301e+05
5.5328e+05
5.5355e+05
5.5382e+05
5.5462e+05
5.5489e+05
5.5516e+05
5.5594e+05
5.562e+05
5.5647e+05
5.5724e+05
5.5751e+05
5.5778e+05
5.5831e+05
5.5857e+05
5.5884e+05
5.5911e+05
5.5938e+05
5.5991e+05
5.6018e+05
5.6044e+05
5.6071e+05
5.6123e+05
5.6149e+05
5.6202e+05
5.6254e+05
5.6281e+05
5.6307e+05
5.6333e+05
5.6359e+05
5.6386e+05
5.6413e+05
5.6439e+05
5.6465e+05
5.6518e+05
5.6545e+05
5.6571e+05
5.6624e+05
5.665e+05
5.6677e+05
5.6704e+05
5.6731e+05
5.6757e+05
5.6784e+05
5.6839e+05
5.6865e+05
5.6892e+05
5.6918e+05
5.6945e+05
5.6972e+05
5.6998e+05
5.7024e+05
5.7051e+05
5.7078e+05
5.7104e+05
5.713e+05
5.7156e+05
5.7183e+05
5.721e+05
5.7236e+05
5.7262e+05
5.7289e+05
5.7316e+05
5.7581e+05
5.7608e+05
5.7634e+05
5.7661e+05
5.7714e+05
5.7741e+05
5.7767e+05
5.7793e+05
5.782e+05
5.7846e+05
5.7873e+05
5.7898e+05
5.7925e+05
5.7951e+05
5.7977e+05
5.8004e+05
5.803e+05
5.8056e+05
5.8083e+05
5.811e+05
5.8136e+05
5.8162e+05
5.8188e+05
5.8214e+05
5.8241e+05
5.8266e+05
5.8293e+05
5.8318e+05
5.8345e+05
5.8371e+05
5.8397e+05
5.8423e+05
5.845e+05
5.8476e+05
5.8502e+05
5.8529e+05
5.8555e+05
5.8581e+05
5.8608e+05
5.8634e+05
5.866e+05
5.8686e+05
5.8713e+05
5.8739e+05
5.8766e+05
5.8979e+05
5.9588e+05
5.9614e+05
5.9642e+05
5.9668e+05
5.9694e+05
5.9721e+05
5.9747e+05
5.9775e+05
5.9802e+05
5.9828e+05
5.9854e+05
5.9881e+05
5.9908e+05
5.9935e+05
5.996e+05
5.9986e+05
6.0013e+05
6.004e+05
6.0066e+05
6.0093e+05
6.0119e+05
6.0146e+05
6.0173e+05
6.02e+05
6.0226e+05
6.0254e+05
6.028e+05
6.0307e+05
6.0334e+05
6.036e+05
6.0386e+05
6.0414e+05
6.044e+05
6.0466e+05
6.0493e+05
6.0519e+05
6.0546e+05
6.0599e+05
6.0625e+05
6.0641e+05
6.0678e+05
6.0704e+05
6.073e+05
6.0755e+05
6.0781e+05
6.0807e+05
6.0859e+05
6.0885e+05
6.0911e+05
6.0938e+05
6.0965e+05
6.099e+05
6.1016e+05
6.1042e+05
6.1068e+05
6.1095e+05
6.1121e+05
6.1147e+05
6.1173e+05
6.12e+05
6.1226e+05
6.1252e+05
6.1278e+05
6.1304e+05
6.133e+05
6.1357e+05
6.1383e+05
6.1409e+05
6.1435e+05
6.1462e+05
6.1489e+05
6.1515e+05
6.154e+05
6.1566e+05
6.1593e+05
6.1646e+05
6.1671e+05
6.1698e+05
6.1724e+05
6.175e+05
6.1776e+05
6.1802e+05
6.1828e+05
6.1854e+05
6.1881e+05
6.1908e+05
6.1934e+05
6.1961e+05
6.1988e+05
6.2014e+05
6.204e+05
6.2067e+05
6.2094e+05
6.212e+05
6.2147e+05
6.2173e+05
6.2199e+05
6.2227e+05
6.2253e+05
6.228e+05
6.2306e+05
6.2333e+05
6.236e+05
6.2387e+05
6.2414e+05
6.244e+05
6.2467e+05
6.2494e+05
6.2521e+05
6.2547e+05
6.2573e+05
6.2599e+05
6.2626e+05
6.2653e+05
6.2679e+05
6.2705e+05
6.2732e+05
6.2758e+05
6.2785e+05
6.2811e+05
6.2837e+05
6.2864e+05
6.289e+05
6.2917e+05
6.2943e+05
6.2969e+05
6.2996e+05
6.3022e+05
6.3048e+05
6.3074e+05
6.3101e+05
6.3128e+05
6.3154e+05
6.318e+05
6.3206e+05
6.3233e+05
6.326e+05
6.3286e+05
6.3312e+05
6.3338e+05
6.3364e+05
6.3391e+05
6.3417e+05
6.3443e+05
6.3469e+05
6.3495e+05
6.3522e+05
6.3548e+05
6.3574e+05
6.36e+05
6.3626e+05
6.3653e+05
6.368e+05
6.3707e+05
6.3733e+05
6.376e+05
6.3786e+05
6.3813e+05
6.3839e+05
6.3865e+05
6.3891e+05
6.3917e+05
6.3944e+05
6.3995e+05
6.4022e+05
6.4049e+05
6.4075e+05
6.4102e+05
6.4129e+05
6.4156e+05
6.4183e+05
6.421e+05
6.4236e+05
6.4263e+05
6.429e+05
6.4317e+05
6.4343e+05
6.4369e+05
6.4395e+05
6.4422e+05
6.4449e+05
6.4476e+05
6.4502e+05
6.4529e+05
6.4557e+05
6.4584e+05
6.461e+05
6.4636e+05
6.4663e+05
6.469e+05
6.4716e+05
6.4769e+05
6.4796e+05
6.4822e+05
6.4849e+05
6.4875e+05
6.4901e+05
6.4928e+05
6.4955e+05
-1
333
569
809
1052
1296
1533
1773
2008
2255
2497
2743
2978
3218
3457
3700
3949
4188
4427
4670
4920
5165
5408
5649
5891
6130
6375
6623
6862
7097
7335
7580
7816
8051
8287
8528
8764
9004
9246
9483
9717
9960
10207
10444
10677
10912
11153
11386
11627
11870
12105
12340
12583
12829
13070
13306
13545
13788
14035
14281
14526
14768
15008
15256
15500
15745
15983
16221
16459
16705
16954
17194
17430
17667
17916
18154
18398
18637
18842
18877
19116
19357
19606
19845
20082
20326
20572
20816
21054
21295
21542
21785
22036
22280
22524
22766
23012
23256
23501
23737
23972
24213
24455
24699
24937
25176
25410
25654
25895
26136
26371
26611
26847
27092
27334
27572
27809
28053
28297
28543
28785
29021
29257
29495
29738
29985
30222
30457
30703
30951
31192
31435
31674
31913
32147
32393
32637
32876
33112
33349
33592
33830
34068
34303
34540
34777
35018
35263
35500
35738
35977
36224
36460
36698
36931
37173
37408
37647
37888
38124
38357
38595
38838
39073
39308
39541
39780
40017
40255
40497
40733
40963
41202
41446
41678
41915
42146
42380
42613
42851
43090
43325
43557
43793
44040
44276
44515
44752
44997
45235
45482
45723
45965
46205
46449
46694
46936
47170
47409
47649
47890
48132
48372
48611
48852
49100
49342
49585
49821
50056
50301
50544
50786
51024
51264
51499
51742
51983
52223
52458
52697
52935
53181
53432
53669
53909
54148
54392
54634
54872
55108
55346
55580
55820
56063
56302
56540
56781
57030
57269
57507
57750
57993
58234
58475
58718
58955
59189
59430
59670
59907
60140
60373
60613
60852
61090
61330
61571
61803
62046
62294
62535
62767
63001
63240
63479
63719
63957
64194
64424
64670
64916
65159
65391
65634
65873
66118
66358
66598
66834
67067
67309
67551
67789
68015
68249
68484
68720
68960
69195
69433
69665
69906
70150
70391
70622
70860
71096
71334
71572
71812
72047
72277
72515
72756
72993
73224
73459
73700
73936
74175
74414
74655
74887
75131
75374
75614
75846
76084
76325
76573
76816
77059
77301
77542
77785
78034
78278
78517
78757
78999
79242
79487
79730
79969
80209
80457
80700
80940
81181
81427
81667
81918
82165
82409
82644
82893
83146
83391
83625
83864
84103
84344
84584
84829
85067
85306
85552
85798
86040
86279
86519
86759
87000
87249
87487
87730
87965
88210
88448
88688
88925
89088
89399
89640
89879
90116
90349
90583
90826
91062
91297
91533
91766
92003
92243
92485
92724
92954
93196
93442
93677
93912
94145
94382
94613
94851
95091
95321
95554
95791
96032
96270
96508
96741
96974
97205
97442
97686
97915
98144
98373
98609
98842
99075
99258
99884
1.008e+05
1.0127e+05
1.0327e+05
1.0782e+05
1.0811e+05
1.0823e+05
1.0837e+05
1.0854e+05
1.0879e+05
1.0914e+05
1.0926e+05
1.0946e+05
1.096e+05
1.0971e+05
1.0982e+05
1.0991e+05
1.1006e+05
1.103e+05
1.1745e+05
1.1956e+05
1.2799e+05
1.2837e+05
1.3083e+05
1.3224e+05
1.3318e+05
1.3414e+05
1.3862e+05
1.3943e+05
1.3967e+05
1.399e+05
1.4013e+05
1.4037e+05
1.4061e+05
1.4084e+05
1.4107e+05
1.4144e+05
1.4178e+05
1.4202e+05
1.4225e+05
1.4261e+05
1.4309e+05
1.4343e+05
1.4366e+05
1.439e+05
1.4414e+05
1.4451e+05
1.4508e+05
1.4532e+05
1.4569e+05
1.4602e+05
1.4639e+05
1.4696e+05
1.4733e+05
1.4851e+05
1.5071e+05
1.5107e+05
1.5164e+05
1.52e+05
1.5303e+05
1.534e+05
1.542e+05
1.5456e+05
1.5769e+05
1.5792e+05
1.5829e+05
1.5885e+05
1.5908e+05
1.5944e+05
1.6001e+05
1.6036e+05
1.614e+05
1.6175e+05
1.6269e+05
1.6348e+05
1.6384e+05
1.6498e+05
1.6615e+05
1.6718e+05
1.6754e+05
1.6835e+05
1.687e+05
1.6951e+05
1.6987e+05
1.7067e+05
1.7103e+05
1.7184e+05
1.7207e+05
1.7229e+05
1.7252e+05
1.7276e+05
1.7299e+05
1.7322e+05
1.7358e+05
1.7416e+05
1.744e+05
1.7475e+05
1.7533e+05
1.7556e+05
1.7579e+05
1.7603e+05
1.7625e+05
1.7649e+05
1.7673e+05
1.7708e+05
1.7765e+05
1.7788e+05
1.7825e+05
1.7859e+05
1.7882e+05
1.7918e+05
1.8229e+05
1.8264e+05
1.8321e+05
1.8344e+05
1.838e+05
1.8436e+05
1.846e+05
1.8495e+05
1.8575e+05
1.8599e+05
1.8635e+05
1.8854e+05
1.8889e+05
1.9024e+05
1.9114e+05
1.9204e+05
1.9317e+05
1.9885e+05
1.9922e+05
1.998e+05
2.0005e+05
2.0042e+05
2.0088e+05
2.0135e+05
2.0322e+05
2.0427e+05
2.0464e+05
2.1571e+05
2.1688e+05
2.1758e+05
2.2823e+05
2.2859e+05
2.3021e+05
2.3061e+05
2.3137e+05
2.3746e+05
2.3853e+05
2.3877e+05
2.3902e+05
2.3927e+05
2.3951e+05
2.3974e+05
2.3999e+05
2.4023e+05
2.4047e+05
2.4071e+05
2.4095e+05
2.4118e+05
2.4142e+05
2.4166e+05
2.419e+05
2.4214e+05
2.4238e+05
2.4261e+05
2.4286e+05
2.431e+05
2.4334e+05
2.4358e+05
2.4382e+05
2.4406e+05
2.443e+05
2.4454e+05
2.4477e+05
2.4501e+05
2.4524e+05
2.4549e+05
2.4573e+05
2.4596e+05
2.462e+05
2.4644e+05
2.4668e+05
2.4692e+05
2.4716e+05
2.474e+05
2.4764e+05
2.4787e+05
2.4812e+05
2.4836e+05
2.486e+05
2.4884e+05
2.4907e+05
2.4932e+05
2.4956e+05
2.4979e+05
2.5003e+05
2.5027e+05
2.5051e+05
2.5075e+05
2.51e+05
2.5123e+05
2.516e+05
2.5243e+05
2.5267e+05
2.5291e+05
2.5314e+05
2.5339e+05
2.5363e+05
2.5387e+05
2.5411e+05
2.5435e+05
2.546e+05
2.5484e+05
2.5507e+05
2.5531e+05
2.5555e+05
2.5579e+05
2.5603e+05
2.5627e+05
2.5651e+05
2.5675e+05
2.5699e+05
2.5723e+05
2.5747e+05
2.5771e+05
2.5794e+05
2.5818e+05
2.5842e+05
2.5866e+05
2.589e+05
2.5927e+05
2.5962e+05
2.5986e+05
2.601e+05
2.6034e+05
2.6058e+05
2.6082e+05
2.6107e+05
2.6131e+05
2.6155e+05
2.6179e+05
2.6203e+05
2.6227e+05
2.6252e+05
2.6276e+05
2.6299e+05
2.6337e+05
2.6457e+05
2.66e+05
2.6683e+05
2.6719e+05
2.684e+05
2.6959e+05
2.9211e+05
2.9326e+05
2.9627e+05
2.9679e+05
2.976e+05
2.9868e+05
3.0047e+05
3.0083e+05
3.0703e+05
3.0775e+05
3.0823e+05
3.0919e+05
3.1015e+05
3.1121e+05
3.116e+05
3.1207e+05
3.1256e+05
3.1425e+05
3.1472e+05
3.1593e+05
3.169e+05
3.2084e+05
3.2367e+05
3.2405e+05
3.3251e+05
3.3387e+05
3.3415e+05
3.3416e+05
3.3702e+05
3.381e+05
3.3834e+05
3.3858e+05
3.3881e+05
3.3884e+05
3.3907e+05
3.3931e+05
3.3956e+05
3.398e+05
3.4005e+05
3.4027e+05
3.4029e+05
3.4053e+05
3.4076e+05
3.4098e+05
3.41e+05
3.4125e+05
3.4128e+05
3.4146e+05
3.4149e+05
3.4173e+05
3.4196e+05
3.4245e+05
3.4269e+05
3.4342e+05
3.4389e+05
3.4438e+05
3.4462e+05
3.4485e+05
3.4508e+05
3.4534e+05
3.4557e+05
3.458e+05
3.4604e+05
3.4627e+05
3.4652e+05
3.4676e+05
3.4698e+05
3.4701e+05
3.4724e+05
3.4747e+05
3.4772e+05
3.4796e+05
3.4821e+05
3.4844e+05
3.4893e+05
3.4916e+05
3.494e+05
3.4988e+05
3.5011e+05
3.5035e+05
3.506e+05
3.5084e+05
3.5105e+05
3.5131e+05
3.5155e+05
3.518e+05
3.5204e+05
3.5227e+05
3.5249e+05
3.5254e+05
3.5274e+05
3.5299e+05
3.5323e+05
3.5346e+05
3.537e+05
3.5391e+05
3.5416e+05
3.5441e+05
3.5464e+05
3.5488e+05
3.5511e+05
3.5532e+05
3.5534e+05
3.5559e+05
3.5583e+05
3.5607e+05
3.5631e+05
3.5654e+05
3.5678e+05
3.57e+05
3.5722e+05
3.5749e+05
3.5769e+05
3.5772e+05
3.5792e+05
3.5796e+05
3.582e+05
3.584e+05
3.5843e+05
3.5961e+05
3.5985e+05
3.6055e+05
3.6079e+05
3.6102e+05
3.6125e+05
3.615e+05
3.6173e+05
3.6196e+05
3.622e+05
3.6244e+05
3.6268e+05
3.629e+05
3.6292e+05
3.6315e+05
3.634e+05
3.6365e+05
3.6389e+05
3.6412e+05
3.6437e+05
3.6461e+05
3.6486e+05
3.651e+05
3.6534e+05
3.6558e+05
3.6583e+05
3.6608e+05
3.6632e+05
3.6656e+05
3.6681e+05
3.6706e+05
3.673e+05
3.6755e+05
3.678e+05
3.6805e+05
3.6829e+05
3.6854e+05
3.688e+05
3.6905e+05
3.6929e+05
3.6953e+05
3.6978e+05
3.7003e+05
3.7028e+05
3.7052e+05
3.7076e+05
3.7101e+05
3.7126e+05
3.72e+05
3.7226e+05
3.7251e+05
3.7276e+05
3.7301e+05
3.7326e+05
3.7402e+05
3.7427e+05
3.7525e+05
3.7598e+05
3.7623e+05
3.9739e+05
4.0572e+05
4.2919e+05
4.372e+05
4.3746e+05
4.3773e+05
4.3798e+05
4.3824e+05
4.385e+05
4.3876e+05
4.3902e+05
4.3927e+05
4.3953e+05
4.3978e+05
4.4003e+05
4.403e+05
4.4055e+05
4.408e+05
4.4106e+05
4.4132e+05
4.4158e+05
4.4183e+05
4.4209e+05
4.4234e+05
4.426e+05
4.4287e+05
4.4312e+05
4.4337e+05
4.4363e+05
4.439e+05
4.4416e+05
4.4441e+05
4.4467e+05
4.4492e+05
4.4519e+05
4.4545e+05
4.457e+05
4.4595e+05
4.4621e+05
4.4648e+05
4.4673e+05
4.4698e+05
4.4724e+05
4.475e+05
4.4776e+05
4.4802e+05
4.4828e+05
4.4869e+05
4.4906e+05
4.4947e+05
4.4983e+05
4.5008e+05
4.505e+05
4.5182e+05
4.634e+05
4.6457e+05
4.6498e+05
4.6822e+05
4.6848e+05
4.6876e+05
4.6902e+05
4.6928e+05
4.6954e+05
4.6981e+05
4.7007e+05
4.7032e+05
4.7058e+05
4.7084e+05
4.711e+05
4.7137e+05
4.7162e+05
4.7188e+05
4.7214e+05
4.7241e+05
4.7267e+05
4.7292e+05
4.7318e+05
4.7344e+05
4.737e+05
4.7396e+05
4.7422e+05
4.7447e+05
4.7473e+05
4.7499e+05
4.7524e+05
4.755e+05
4.7575e+05
4.7601e+05
4.7627e+05
4.7654e+05
4.7694e+05
4.773e+05
4.7756e+05
4.7797e+05
4.7833e+05
4.7858e+05
4.7895e+05
4.795e+05
4.7986e+05
4.8013e+05
4.8038e+05
4.8078e+05
4.8115e+05
4.8141e+05
4.8167e+05
4.8193e+05
4.8218e+05
4.826e+05
4.8351e+05
4.8399e+05
4.8424e+05
4.845e+05
4.8475e+05
4.8501e+05
4.8542e+05
4.8578e+05
4.8603e+05
4.8629e+05
4.8654e+05
4.868e+05
4.8705e+05
4.8731e+05
4.8772e+05
4.8834e+05
4.8875e+05
4.8912e+05
4.8954e+05
4.8991e+05
4.9018e+05
4.906e+05
4.9122e+05
4.9163e+05
4.9229e+05
4.937e+05
4.9449e+05
4.9485e+05
4.9526e+05
4.9666e+05
4.9693e+05
4.9719e+05
4.9745e+05
4.977e+05
4.9797e+05
4.9823e+05
4.9849e+05
4.9875e+05
4.9901e+05
4.9926e+05
4.9952e+05
4.9979e+05
5.0004e+05
5.003e+05
5.0056e+05
5.0082e+05
5.0108e+05
5.0134e+05
5.0159e+05
5.0185e+05
5.0211e+05
5.0238e+05
5.0264e+05
5.0289e+05
5.0315e+05
5.0342e+05
5.0368e+05
5.0394e+05
5.042e+05
5.0446e+05
5.0473e+05
5.05e+05
5.0527e+05
5.0553e+05
5.058e+05
5.0607e+05
5.0634e+05
5.0661e+05
5.0687e+05
5.0714e+05
5.0741e+05
5.0768e+05
5.0795e+05
5.0822e+05
5.0849e+05
5.0876e+05
5.0902e+05
5.0928e+05
5.0955e+05
5.0982e+05
5.1008e+05
5.1035e+05
5.1061e+05
5.1088e+05
5.1115e+05
5.1141e+05
5.1167e+05
5.1193e+05
5.1219e+05
5.1245e+05
5.1272e+05
5.1298e+05
5.1323e+05
5.1349e+05
5.1376e+05
5.1401e+05
5.1427e+05
5.1452e+05
5.1468e+05
5.1516e+05
5.1558e+05
5.1583e+05
5.1608e+05
5.1635e+05
5.1661e+05
5.1685e+05
5.1711e+05
5.1736e+05
5.1762e+05
5.1788e+05
5.1814e+05
5.1839e+05
5.1866e+05
5.1893e+05
5.1919e+05
5.1945e+05
5.1971e+05
5.1998e+05
5.2025e+05
5.2052e+05
5.2078e+05
5.2104e+05
5.2131e+05
5.2157e+05
5.2183e+05
5.2209e+05
5.2235e+05
5.2261e+05
5.2287e+05
5.2314e+05
5.234e+05
5.2366e+05
5.2393e+05
5.2431e+05
5.2474e+05
5.25e+05
5.2527e+05
5.2553e+05
5.2592e+05
5.2659e+05
5.2662e+05
5.2695e+05
5.2716e+05
5.2737e+05
5.2758e+05
5.2761e+05
5.2808e+05
5.2833e+05
5.2857e+05
5.2882e+05
5.2905e+05
5.2933e+05
5.2961e+05
5.2987e+05
5.3015e+05
5.3037e+05
5.3069e+05
5.3096e+05
5.3117e+05
5.3119e+05
5.315e+05
5.3168e+05
5.3201e+05
5.3229e+05
5.3255e+05
5.3281e+05
5.3308e+05
5.3335e+05
5.3361e+05
5.3387e+05
5.3425e+05
5.3469e+05
5.3494e+05
5.352e+05
5.3546e+05
5.3572e+05
5.3599e+05
5.3625e+05
5.3651e+05
5.3677e+05
5.3704e+05
5.3731e+05
5.3756e+05
5.3782e+05
5.3808e+05
5.3834e+05
5.3861e+05
5.3886e+05
5.3911e+05
5.3938e+05
5.3964e+05
5.399e+05
5.4016e+05
5.4042e+05
5.4068e+05
5.4094e+05
5.4121e+05
5.4148e+05
5.4174e+05
5.4201e+05
5.4228e+05
5.4255e+05
5.4281e+05
5.4307e+05
5.4333e+05
5.4359e+05
5.4386e+05
5.4412e+05
5.4438e+05
5.4464e+05
5.4491e+05
5.4517e+05
5.4543e+05
5.457e+05
5.4596e+05
5.4623e+05
5.4649e+05
5.4675e+05
5.4701e+05
5.4728e+05
5.4754e+05
5.478e+05
5.4806e+05
5.4833e+05
5.486e+05
5.4887e+05
5.4913e+05
5.494e+05
5.4966e+05
5.4994e+05
5.5021e+05
5.5047e+05
5.5074e+05
5.5101e+05
5.5128e+05
5.5156e+05
5.5182e+05
5.5209e+05
5.5236e+05
5.5263e+05
5.5291e+05
5.5317e+05
5.5344e+05
5.5371e+05
5.5398e+05
5.5478e+05
5.5505e+05
5.5532e+05
5.561e+05
5.5636e+05
5.5663e+05
5.574e+05
5.5767e+05
5.5794e+05
5.5846e+05
5.5873e+05
5.59e+05
5.5927e+05
5.5954e+05
5.6007e+05
5.6034e+05
5.606e+05
5.6086e+05
5.6138e+05
5.6165e+05
5.6217e+05
5.627e+05
5.6297e+05
5.6323e+05
5.6349e+05
5.6375e+05
5.6402e+05
5.6428e+05
5.6455e+05
5.6481e+05
5.6534e+05
5.656e+05
5.6587e+05
5.6639e+05
5.6666e+05
5.6693e+05
5.672e+05
5.6747e+05
5.6773e+05
5.6801e+05
5.6854e+05
5.6881e+05
5.6907e+05
5.6934e+05
5.6961e+05
5.6987e+05
5.7013e+05
5.704e+05
5.7067e+05
5.7094e+05
5.7119e+05
5.7146e+05
5.7172e+05
5.7199e+05
5.7226e+05
5.7252e+05
5.7278e+05
5.7305e+05
5.7332e+05
5.7597e+05
5.7623e+05
5.7649e+05
5.7676e+05
5.773e+05
5.7757e+05
5.7782e+05
5.7809e+05
5.7836e+05
5.7862e+05
5.7888e+05
5.7914e+05
5.794e+05
5.7967e+05
5.7994e+05
5.802e+05
5.8046e+05
5.8072e+05
5.8099e+05
5.8126e+05
5.8151e+05
5.8177e+05
5.8203e+05
5.823e+05
5.8256e+05
5.8282e+05
5.8308e+05
5.8334e+05
5.8361e+05
5.8387e+05
5.8413e+05
5.8439e+05
5.8465e+05
5.8492e+05
5.8518e+05
5.8544e+05
5.857e+05
5.8597e+05
5.8624e+05
5.865e+05
5.8676e+05
5.8702e+05
5.8728e+05
5.8755e+05
5.8781e+05
5.8995e+05
5.9603e+05
5.963e+05
5.9657e+05
5.9684e+05
5.971e+05
5.9737e+05
5.9764e+05
5.9791e+05
5.9817e+05
5.9844e+05
5.987e+05
5.9897e+05
5.9924e+05
5.995e+05
5.9976e+05
6.0002e+05
6.0029e+05
6.0056e+05
6.0082e+05
6.0108e+05
6.0135e+05
6.0163e+05
6.0189e+05
6.0216e+05
6.0242e+05
6.0269e+05
6.0296e+05
6.0323e+05
6.035e+05
6.0376e+05
6.0402e+05
6.0429e+05
6.0456e+05
6.0482e+05
6.0509e+05
6.0535e+05
6.0573e+05
6.0615e+05
6.0636e+05
6.0654e+05
6.0694e+05
6.072e+05
6.0745e+05
6.0772e+05
6.0797e+05
6.0822e+05
6.0838e+05
6.0876e+05
6.0901e+05
6.0928e+05
6.0954e+05
6.098e+05
6.1005e+05
6.1032e+05
6.1058e+05
6.1085e+05
6.1111e+05
6.1137e+05
6.1163e+05
6.119e+05
6.1216e+05
6.1242e+05
6.1267e+05
6.1294e+05
6.132e+05
6.1347e+05
6.1373e+05
6.1399e+05
6.1425e+05
6.1452e+05
6.1478e+05
6.1504e+05
6.153e+05
6.1556e+05
6.1582e+05
6.162e+05
6.1662e+05
6.1688e+05
6.1714e+05
6.174e+05
6.1765e+05
6.1791e+05
6.1817e+05
6.1844e+05
6.1871e+05
6.1897e+05
6.1923e+05
6.195e+05
6.1977e+05
6.2004e+05
6.203e+05
6.2056e+05
6.2083e+05
6.2109e+05
6.2136e+05
6.2163e+05
6.2188e+05
6.2216e+05
6.2242e+05
6.2269e+05
6.2295e+05
6.2322e+05
6.2349e+05
6.2376e+05
6.2403e+05
6.243e+05
6.2456e+05
6.2483e+05
6.251e+05
6.2536e+05
6.2562e+05
6.2589e+05
6.2615e+05
6.2642e+05
6.2668e+05
6.2695e+05
6.2721e+05
6.2748e+05
6.2775e+05
6.28e+05
6.2826e+05
6.2853e+05
6.288e+05
6.2906e+05
6.2933e+05
6.2958e+05
6.2985e+05
6.3012e+05
6.3038e+05
6.3064e+05
6.3091e+05
6.3117e+05
6.3143e+05
6.3169e+05
6.3196e+05
6.3222e+05
6.3249e+05
6.3276e+05
6.3302e+05
6.3328e+05
6.3354e+05
6.3381e+05
6.3407e+05
6.3433e+05
6.3459e+05
6.3485e+05
6.3512e+05
6.3538e+05
6.3564e+05
6.3589e+05
6.3616e+05
6.3642e+05
6.367e+05
6.3696e+05
6.3722e+05
6.3749e+05
6.3776e+05
6.3803e+05
6.3828e+05
6.3854e+05
6.388e+05
6.3907e+05
6.3933e+05
6.3959e+05
6.4011e+05
6.4038e+05
6.4065e+05
6.4091e+05
6.4118e+05
6.4145e+05
6.4172e+05
6.4199e+05
6.4225e+05
6.4252e+05
6.4279e+05
6.4306e+05
6.4332e+05
6.4358e+05
6.4385e+05
6.4411e+05
6.4438e+05
6.4465e+05
6.4491e+05
6.4518e+05
6.4546e+05
6.4573e+05
6.4599e+05
6.4625e+05
6.4652e+05
6.4679e+05
6.4706e+05
6.4732e+05
6.4785e+05
6.4812e+05
6.4838e+05
6.4864e+05
6.489e+05
6.4917e+05
6.4943e+05
6.4971e+05
