1046
1529
1757
6375
8402
8619
9384
10165
10860
11663
12354
13126
14443
14690
15226
15517
16121
16441
17165
17356
17485
19497
19964
20488
20937
21563
22051
22575
22811
23434
24086
24415
25088
25653
26104
26398
27703
27937
28685
28938
29415
30770
31184
31521
33915
35013
35652
35989
36369
37028
37734
38406
39821
40165
41550
41903
42233
43225
43583
43917
44251
44586
44905
45292
45622
45917
46187
46577
46840
47265
47591
48161
48585
49249
49510
49941
50213
50644
50902
51311
52005
52707
53395
54077
54788
55055
55481
55731
56182
56893
57590
58289
59010
59708
60409
61143
61353
61836
62526
63251
63962
64653
65387
66085
66783
67093
67515
68227
68488
68917
69199
69655
69928
70356
71055
71784
72010
72503
72770
73194
73484
73939
74237
74645
75345
76085
76808
77501
78245
78553
78964
79667
80406
80692
81137
81830
82116
82568
82838
83281
83989
84266
84734
85449
86148
86368
86574
87013
87221
87449
87617
89044
89371
89823
90135
91494
91987
92206
92517
92840
93875
94375
95836
96075
96160
96879
97180
97900
98377
1.0327e+05
1.9906e+05
1.9935e+05
1.9992e+05
2.0019e+05
2.005e+05
2.02e+05
2.0228e+05
2.0372e+05
2.0431e+05
2.0457e+05
2.0486e+05
2.0515e+05
2.0542e+05
2.0575e+05
2.0779e+05
2.0808e+05
2.0839e+05
2.0981e+05
2.1011e+05
2.1069e+05
2.1247e+05
2.1274e+05
2.1479e+05
2.174e+05
2.1801e+05
2.1983e+05
2.2192e+05
2.2217e+05
2.2252e+05
2.231e+05
2.237e+05
2.2429e+05
2.2459e+05
2.2522e+05
2.2587e+05
2.264e+05
2.2708e+05
2.274e+05
2.2858e+05
2.2885e+05
2.2919e+05
2.2952e+05
2.2982e+05
2.3007e+05
2.304e+05
2.3097e+05
2.3133e+05
2.319e+05
2.3223e+05
2.325e+05
2.331e+05
2.3342e+05
2.3464e+05
2.3497e+05
2.3524e+05
2.359e+05
2.3647e+05
2.3709e+05
2.3803e+05
2.3861e+05
2.3895e+05
2.392e+05
2.4016e+05
2.4138e+05
2.4232e+05
2.4413e+05
2.445e+05
2.4511e+05
2.4537e+05
2.4572e+05
2.4597e+05
2.4629e+05
2.4661e+05
2.4693e+05
2.4784e+05
2.4815e+05
2.488e+05
2.491e+05
2.4941e+05
2.5034e+05
2.5131e+05
2.5162e+05
2.5257e+05
2.5292e+05
2.5323e+05
2.5384e+05
2.5418e+05
2.5481e+05
2.5609e+05
2.567e+05
2.57e+05
2.5733e+05
2.5768e+05
2.5793e+05
2.5831e+05
2.5856e+05
2.5887e+05
2.5923e+05
2.6943e+05
2.6968e+05
2.7002e+05
2.7041e+05
2.7071e+05
2.713e+05
2.7166e+05
2.7193e+05
2.7225e+05
2.726e+05
2.7295e+05
2.7325e+05
2.7361e+05
2.7455e+05
2.7554e+05
2.7585e+05
2.8832e+05
2.8865e+05
2.8968e+05
2.9003e+05
2.9037e+05
2.9104e+05
2.9242e+05
2.931e+05
2.9343e+05
2.9415e+05
2.9453e+05
2.9483e+05
2.9898e+05
2.9975e+05
3.0042e+05
3.008e+05
3.0146e+05
3.0182e+05
3.0258e+05
3.0322e+05
3.036e+05
3.0423e+05
3.0493e+05
3.0836e+05
3.0976e+05
3.1077e+05
3.1183e+05
3.1217e+05
3.1284e+05
3.1391e+05
3.1463e+05
3.1526e+05
3.1603e+05
3.1663e+05
3.1769e+05
3.1911e+05
3.2011e+05
3.2084e+05
3.2178e+05
3.2216e+05
3.2286e+05
3.2351e+05
3.242e+05
3.2447e+05
3.2588e+05
3.27e+05
3.2733e+05
3.2771e+05
3.2798e+05
3.2877e+05
3.2912e+05
3.2946e+05
3.3084e+05
3.3219e+05
3.3325e+05
3.3389e+05
3.3427e+05
3.36e+05
3.3634e+05
3.3668e+05
3.3704e+05
3.3739e+05
3.3894e+05
3.393e+05
3.3965e+05
3.4033e+05
3.4066e+05
3.41e+05
3.4138e+05
3.4173e+05
3.421e+05
3.4243e+05
3.4276e+05
3.4311e+05
3.4345e+05
3.4385e+05
3.4416e+05
3.4454e+05
3.4485e+05
3.4519e+05
3.4557e+05
3.4591e+05
3.4631e+05
3.4661e+05
3.4699e+05
3.4735e+05
3.4769e+05
3.4805e+05
3.4838e+05
3.4871e+05
3.4905e+05
3.4938e+05
3.4966e+05
3.504e+05
3.5076e+05
3.5111e+05
3.5145e+05
3.5179e+05
3.5252e+05
3.5355e+05
3.5426e+05
3.5461e+05
3.553e+05
3.5564e+05
3.5598e+05
3.5633e+05
3.5705e+05
3.574e+05
3.5774e+05
3.6303e+05
3.6336e+05
3.6374e+05
3.6405e+05
3.644e+05
3.6551e+05
3.6581e+05
3.6616e+05
3.6649e+05
3.6685e+05
3.672e+05
3.6761e+05
3.6791e+05
3.686e+05
3.6893e+05
3.6929e+05
3.6966e+05
3.7035e+05
3.7069e+05
3.7138e+05
3.7243e+05
3.7278e+05
3.7311e+05
3.7346e+05
3.9734e+05
3.9768e+05
3.9809e+05
3.9878e+05
3.9895e+05
3.9948e+05
3.9982e+05
4.002e+05
4.0054e+05
4.0093e+05
4.0199e+05
4.0303e+05
4.0331e+05
4.0402e+05
4.0546e+05
4.0607e+05
4.1024e+05
4.1133e+05
4.1384e+05
4.1417e+05
4.1488e+05
4.1554e+05
4.176e+05
4.2004e+05
4.2057e+05
4.2116e+05
4.2146e+05
4.2178e+05
4.2214e+05
4.225e+05
4.2281e+05
4.2318e+05
4.2639e+05
4.2673e+05
4.2699e+05
4.2883e+05
4.2979e+05
4.3058e+05
4.3198e+05
4.3339e+05
4.3411e+05
4.3447e+05
4.3546e+05
4.3585e+05
4.3688e+05
4.3815e+05
4.3888e+05
4.3957e+05
4.3991e+05
4.4026e+05
4.4061e+05
4.4133e+05
4.4168e+05
4.4201e+05
4.4236e+05
4.4271e+05
4.4307e+05
4.4342e+05
4.438e+05
4.4412e+05
4.4445e+05
4.4481e+05
4.4588e+05
4.4656e+05
4.4764e+05
4.48e+05
4.4835e+05
4.5012e+05
4.5081e+05
4.5291e+05
4.5399e+05
4.5502e+05
4.6517e+05
4.6552e+05
4.6585e+05
4.6831e+05
4.6868e+05
4.6975e+05
4.7009e+05
4.7084e+05
4.7117e+05
4.7152e+05
4.7187e+05
4.7222e+05
4.7256e+05
4.7369e+05
4.74e+05
4.7435e+05
4.7508e+05
4.7541e+05
4.7611e+05
4.7715e+05
4.7822e+05
4.8243e+05
4.8312e+05
4.8383e+05
4.842e+05
4.8455e+05
4.849e+05
5.4438e+05
5.5239e+05
6.0012e+05
6.2825e+05
6.3083e+05
6.3109e+05
6.3168e+05
6.3253e+05
6.3376e+05
6.3537e+05
6.3626e+05
6.3659e+05
6.3752e+05
6.3874e+05
6.3929e+05
6.4285e+05
6.4362e+05
6.4632e+05
-1
552
917
1138
1650
1878
2487
2678
3263
4001
4792
5556
6306
7098
7842
8153
8589
8919
9356
9993
10097
10283
10760
11092
11526
11904
12278
12575
13003
13344
14261
14579
14893
14912
15100
15417
15679
15912
16275
16794
17075
17630
17923
18129
18345
18970
19900
20823
21099
21502
21687
22474
22705
22990
23216
23622
23829
24218
24574
24898
25289
26214
26480
26866
27113
27586
27838
28078
28259
28850
29076
29580
29951
30889
31315
31718
32043
32393
32684
33089
33442
33668
34043
34451
34816
35520
35865
36206
36546
36901
37255
37607
37952
38285
38538
39347
39683
40030
40372
40648
41358
41765
42109
42434
43026
43451
43793
44125
44463
44794
45118
45453
45792
46062
46347
46794
46962
47806
48057
48992
49390
49662
50363
51037
51435
52140
52420
53114
53788
54498
55199
55611
55875
56609
57252
57991
58708
59421
59838
60829
61542
62233
62943
63374
63654
64339
65000
65815
66478
67663
67924
68352
68621
69341
70062
70707
71183
71476
71945
72211
72720
72902
73632
74346
75056
75476
75780
76515
77937
78669
79382
79797
80010
80840
81481
82264
82741
83000
83689
84113
85153
85771
86303
86482
86784
87372
87791
87972
88220
88735
89629
89965
90356
90783
91189
91414
91692
91799
91911
92192
92733
93290
93502
94015
94536
94831
95377
95605
95962
96349
97089
97277
97799
98136
98308
98547
98856
99025
99162
99762
1.0005e+05
1.0039e+05
1.0085e+05
1.0115e+05
1.0168e+05
1.0219e+05
1.0257e+05
1.029e+05
1.0318e+05
1.0349e+05
1.0383e+05
1.0411e+05
1.0441e+05
1.0469e+05
1.0497e+05
1.0506e+05
1.0528e+05
1.0554e+05
1.0584e+05
1.0622e+05
1.0645e+05
1.067e+05
1.0704e+05
1.0729e+05
1.0755e+05
1.0784e+05
1.0814e+05
1.0897e+05
1.0921e+05
1.0948e+05
1.0975e+05
1.1001e+05
1.1029e+05
1.1058e+05
1.1084e+05
1.1111e+05
1.1138e+05
1.1163e+05
1.1188e+05
1.1216e+05
1.1245e+05
1.1272e+05
1.1299e+05
1.1325e+05
1.1352e+05
1.1377e+05
1.1404e+05
1.1431e+05
1.1459e+05
1.1487e+05
1.1514e+05
1.1544e+05
1.157e+05
1.1595e+05
1.1596e+05
1.1621e+05
1.1646e+05
1.1655e+05
1.1675e+05
1.1705e+05
1.1728e+05
1.1755e+05
1.1783e+05
1.1808e+05
1.1831e+05
1.1852e+05
1.1854e+05
1.1876e+05
1.1883e+05
1.1903e+05
1.193e+05
1.1953e+05
1.1978e+05
1.1981e+05
1.2002e+05
1.2024e+05
1.2028e+05
1.2051e+05
1.2076e+05
1.2102e+05
1.2129e+05
1.2155e+05
1.218e+05
1.2206e+05
1.2231e+05
1.2259e+05
1.2283e+05
1.2313e+05
1.2341e+05
1.2373e+05
1.2397e+05
1.2427e+05
1.2452e+05
1.2479e+05
1.2507e+05
1.2536e+05
1.2568e+05
1.2591e+05
1.2619e+05
1.2646e+05
1.2674e+05
1.27e+05
1.2727e+05
1.2756e+05
1.2784e+05
1.2812e+05
1.284e+05
1.2866e+05
1.2893e+05
1.292e+05
1.2948e+05
1.2976e+05
1.3005e+05
1.3032e+05
1.306e+05
1.3087e+05
1.3114e+05
1.314e+05
1.3168e+05
1.3197e+05
1.3225e+05
1.3254e+05
1.3281e+05
1.3308e+05
1.3335e+05
1.3363e+05
1.3391e+05
1.3419e+05
1.3447e+05
1.3475e+05
1.3503e+05
1.3531e+05
1.3558e+05
1.3585e+05
1.3614e+05
1.3644e+05
1.3672e+05
1.3701e+05
1.3728e+05
1.3756e+05
1.3782e+05
1.3811e+05
1.3841e+05
1.3871e+05
1.3898e+05
1.3928e+05
1.3956e+05
1.3984e+05
1.4011e+05
1.4041e+05
1.407e+05
1.41e+05
1.4129e+05
1.4158e+05
1.4185e+05
1.4213e+05
1.4243e+05
1.4273e+05
1.4303e+05
1.4331e+05
1.4829e+05
1.4856e+05
1.5107e+05
1.5259e+05
1.5429e+05
1.5511e+05
1.5994e+05
1.6351e+05
1.6628e+05
1.6714e+05
1.6742e+05
1.6769e+05
1.6795e+05
1.6804e+05
1.6824e+05
1.688e+05
1.6936e+05
1.6966e+05
1.699e+05
1.7017e+05
1.7043e+05
1.7073e+05
1.7106e+05
1.713e+05
1.7158e+05
1.7184e+05
1.721e+05
1.7264e+05
1.727e+05
1.7293e+05
1.7321e+05
1.7349e+05
1.7378e+05
1.7404e+05
1.7431e+05
1.7457e+05
1.7486e+05
1.7514e+05
1.7571e+05
1.7625e+05
1.7653e+05
1.7658e+05
1.7682e+05
1.7709e+05
1.7821e+05
1.7849e+05
1.9891e+05
1.9921e+05
1.9951e+05
1.998e+05
2.0008e+05
2.0036e+05
2.0064e+05
2.0095e+05
2.0126e+05
2.0154e+05
2.0183e+05
2.0213e+05
2.0241e+05
2.0269e+05
2.0299e+05
2.0329e+05
2.0359e+05
2.0388e+05
2.0417e+05
2.0446e+05
2.0473e+05
2.0502e+05
2.0533e+05
2.0563e+05
2.0592e+05
2.0621e+05
2.0649e+05
2.0678e+05
2.0706e+05
2.071e+05
2.0736e+05
2.0765e+05
2.0795e+05
2.0824e+05
2.0853e+05
2.0881e+05
2.0908e+05
2.0937e+05
2.0968e+05
2.0998e+05
2.1027e+05
2.1056e+05
2.1085e+05
2.1114e+05
2.1142e+05
2.1172e+05
2.1202e+05
2.1232e+05
2.1261e+05
2.1289e+05
2.1318e+05
2.1346e+05
2.1376e+05
2.1407e+05
2.1436e+05
2.1465e+05
2.1495e+05
2.1523e+05
2.1552e+05
2.1582e+05
2.1612e+05
2.1642e+05
2.1673e+05
2.1702e+05
2.1731e+05
2.1759e+05
2.1788e+05
2.1819e+05
2.185e+05
2.1881e+05
2.191e+05
2.194e+05
2.1969e+05
2.1998e+05
2.2028e+05
2.2059e+05
2.209e+05
2.212e+05
2.2149e+05
2.2179e+05
2.2207e+05
2.2239e+05
2.227e+05
2.23e+05
2.2331e+05
2.236e+05
2.239e+05
2.2419e+05
2.2449e+05
2.248e+05
2.2512e+05
2.2543e+05
2.2573e+05
2.2602e+05
2.2631e+05
2.2661e+05
2.2694e+05
2.2724e+05
2.2755e+05
2.2785e+05
2.2815e+05
2.2844e+05
2.2874e+05
2.2901e+05
2.2936e+05
2.2966e+05
2.2997e+05
2.3027e+05
2.3056e+05
2.3086e+05
2.3118e+05
2.3149e+05
2.3179e+05
2.3209e+05
2.3239e+05
2.327e+05
2.3299e+05
2.333e+05
2.3362e+05
2.3394e+05
2.3425e+05
2.3454e+05
2.3483e+05
2.3513e+05
2.3544e+05
2.3576e+05
2.3606e+05
2.3637e+05
2.3667e+05
2.3697e+05
2.3725e+05
2.3756e+05
2.3788e+05
2.3819e+05
2.385e+05
2.388e+05
2.391e+05
2.3939e+05
2.3971e+05
2.4002e+05
2.4033e+05
2.4063e+05
2.4153e+05
2.4185e+05
2.4217e+05
2.4249e+05
2.428e+05
2.434e+05
2.437e+05
2.4434e+05
2.4465e+05
2.4496e+05
2.4527e+05
2.4557e+05
2.4586e+05
2.4618e+05
2.465e+05
2.4682e+05
2.4714e+05
2.4744e+05
2.4773e+05
2.4804e+05
2.4836e+05
2.4868e+05
2.4899e+05
2.493e+05
2.4962e+05
2.4992e+05
2.5023e+05
2.5055e+05
2.5088e+05
2.512e+05
2.5151e+05
2.5181e+05
2.5212e+05
2.5243e+05
2.5276e+05
2.5308e+05
2.5339e+05
2.5403e+05
2.5433e+05
2.5497e+05
2.5624e+05
2.5686e+05
2.5696e+05
2.5719e+05
2.5751e+05
2.5783e+05
2.5814e+05
2.5846e+05
2.5875e+05
2.5907e+05
2.5941e+05
2.6956e+05
2.6989e+05
2.7023e+05
2.7055e+05
2.7087e+05
2.712e+05
2.7151e+05
2.7182e+05
2.7214e+05
2.7248e+05
2.7281e+05
2.7313e+05
2.7344e+05
2.7376e+05
2.7476e+05
2.7573e+05
2.7605e+05
2.7801e+05
2.8033e+05
2.8852e+05
2.8885e+05
2.899e+05
2.9024e+05
2.9057e+05
2.9091e+05
2.9125e+05
2.9137e+05
2.9159e+05
2.9194e+05
2.9206e+05
2.9229e+05
2.9263e+05
2.9275e+05
2.9297e+05
2.933e+05
2.9365e+05
2.9436e+05
2.9448e+05
2.947e+05
2.9504e+05
2.985e+05
2.9885e+05
2.9908e+05
2.9941e+05
2.9965e+05
3.0007e+05
3.0039e+05
3.0068e+05
3.0112e+05
3.0137e+05
3.0176e+05
3.0213e+05
3.025e+05
3.0285e+05
3.0309e+05
3.0355e+05
3.0387e+05
3.041e+05
3.0455e+05
3.0481e+05
3.0526e+05
3.056e+05
3.0593e+05
3.0626e+05
3.0662e+05
3.07e+05
3.0732e+05
3.0766e+05
3.0803e+05
3.0868e+05
3.0906e+05
3.0938e+05
3.0964e+05
3.1008e+05
3.1041e+05
3.1071e+05
3.1111e+05
3.1146e+05
3.1177e+05
3.1205e+05
3.1248e+05
3.1278e+05
3.1317e+05
3.1352e+05
3.1378e+05
3.1423e+05
3.1458e+05
3.1489e+05
3.1518e+05
3.156e+05
3.1597e+05
3.1631e+05
3.1696e+05
3.173e+05
3.1767e+05
3.1804e+05
3.1839e+05
3.187e+05
3.1903e+05
3.1937e+05
3.1973e+05
3.1999e+05
3.2042e+05
3.2078e+05
3.211e+05
3.2146e+05
3.2174e+05
3.2207e+05
3.2252e+05
3.2274e+05
3.2316e+05
3.234e+05
3.2383e+05
3.241e+05
3.2445e+05
3.2478e+05
3.2523e+05
3.2557e+05
3.2587e+05
3.2626e+05
3.2664e+05
3.2727e+05
3.2766e+05
3.2794e+05
3.2824e+05
3.2872e+05
3.2906e+05
3.294e+05
3.2972e+05
3.3005e+05
3.3031e+05
3.3078e+05
3.3111e+05
3.3145e+05
3.3213e+05
3.3248e+05
3.3282e+05
3.3319e+05
3.3354e+05
3.3422e+05
3.3456e+05
3.3527e+05
3.3595e+05
3.3629e+05
3.3662e+05
3.3698e+05
3.3733e+05
3.3768e+05
3.3799e+05
3.3824e+05
3.3847e+05
3.388e+05
3.3915e+05
3.3952e+05
3.3987e+05
3.402e+05
3.4054e+05
3.4087e+05
3.4123e+05
3.4159e+05
3.4194e+05
3.4206e+05
3.4229e+05
3.4263e+05
3.4296e+05
3.4331e+05
3.4367e+05
3.4403e+05
3.4438e+05
3.4471e+05
3.4505e+05
3.4541e+05
3.4577e+05
3.4612e+05
3.4648e+05
3.4682e+05
3.4716e+05
3.4728e+05
3.4751e+05
3.4786e+05
3.4799e+05
3.4823e+05
3.4858e+05
3.4892e+05
3.4926e+05
3.496e+05
3.4989e+05
3.5026e+05
3.5061e+05
3.5097e+05
3.5132e+05
3.5165e+05
3.5201e+05
3.5273e+05
3.5375e+05
3.5447e+05
3.5482e+05
3.5551e+05
3.5584e+05
3.5618e+05
3.5655e+05
3.5691e+05
3.5726e+05
3.576e+05
3.5794e+05
3.6322e+05
3.6357e+05
3.6369e+05
3.6392e+05
3.6427e+05
3.646e+05
3.6568e+05
3.6603e+05
3.6637e+05
3.6671e+05
3.6706e+05
3.6742e+05
3.6777e+05
3.6813e+05
3.6847e+05
3.688e+05
3.6915e+05
3.6951e+05
3.6987e+05
3.6999e+05
3.7022e+05
3.7055e+05
3.709e+05
3.7159e+05
3.7264e+05
3.7298e+05
3.7331e+05
3.7368e+05
3.9767e+05
3.9797e+05
3.9842e+05
3.9866e+05
3.989e+05
3.9923e+05
3.9972e+05
4.0008e+05
4.0042e+05
4.0088e+05
4.0119e+05
4.0145e+05
4.0193e+05
4.0229e+05
4.0261e+05
4.0297e+05
4.0323e+05
4.0365e+05
4.0395e+05
4.0437e+05
4.0472e+05
4.0541e+05
4.0572e+05
4.0598e+05
4.0634e+05
4.0749e+05
4.0889e+05
4.0924e+05
4.0958e+05
4.0992e+05
4.102e+05
4.1051e+05
4.1096e+05
4.1122e+05
4.1167e+05
4.12e+05
4.1306e+05
4.1343e+05
4.1378e+05
4.1412e+05
4.1444e+05
4.148e+05
4.1518e+05
4.1585e+05
4.1693e+05
4.1756e+05
4.1832e+05
4.1935e+05
4.2e+05
4.2074e+05
4.2111e+05
4.2144e+05
4.2163e+05
4.2205e+05
4.2244e+05
4.2278e+05
4.2307e+05
4.2351e+05
4.2379e+05
4.2425e+05
4.2459e+05
4.2492e+05
4.2525e+05
4.2561e+05
4.2599e+05
4.2634e+05
4.2668e+05
4.2691e+05
4.2724e+05
4.2771e+05
4.2806e+05
4.2831e+05
4.2877e+05
4.2909e+05
4.2945e+05
4.3006e+05
4.3053e+05
4.3088e+05
4.3122e+05
4.3192e+05
4.3229e+05
4.3334e+05
4.3368e+05
4.3441e+05
4.3476e+05
4.3511e+05
4.358e+05
4.3615e+05
4.3649e+05
4.3676e+05
4.372e+05
4.3745e+05
4.3767e+05
4.3801e+05
4.385e+05
4.3873e+05
4.3909e+05
4.3921e+05
4.3944e+05
4.3978e+05
4.4011e+05
4.4023e+05
4.4047e+05
4.4096e+05
4.4119e+05
4.4154e+05
4.4187e+05
4.4222e+05
4.4257e+05
4.4293e+05
4.4329e+05
4.4376e+05
4.4398e+05
4.4432e+05
4.4466e+05
4.4516e+05
4.4552e+05
4.4579e+05
4.4609e+05
4.4621e+05
4.4643e+05
4.469e+05
4.4727e+05
4.475e+05
4.4786e+05
4.4821e+05
4.4867e+05
4.5032e+05
4.5101e+05
4.5311e+05
4.542e+05
4.5432e+05
4.5534e+05
4.6538e+05
4.6572e+05
4.6605e+05
4.6618e+05
4.6654e+05
4.6691e+05
4.6726e+05
4.6761e+05
4.6796e+05
4.6817e+05
4.6853e+05
4.6902e+05
4.6938e+05
4.6961e+05
4.6996e+05
4.7042e+05
4.7065e+05
4.7102e+05
4.7138e+05
4.7173e+05
4.7208e+05
4.7242e+05
4.7296e+05
4.7351e+05
4.7387e+05
4.742e+05
4.7467e+05
4.7489e+05
4.7526e+05
4.7574e+05
4.7645e+05
4.7678e+05
4.7736e+05
4.7842e+05
4.7854e+05
4.8264e+05
4.8276e+05
4.8332e+05
4.8405e+05
4.8441e+05
4.8476e+05
4.8523e+05
4.9677e+05
4.9713e+05
4.9748e+05
4.9783e+05
4.9817e+05
4.9851e+05
4.9887e+05
4.9924e+05
4.9959e+05
4.9994e+05
5.0029e+05
5.0062e+05
5.01e+05
5.0136e+05
5.0171e+05
5.0207e+05
5.0219e+05
5.0241e+05
5.0275e+05
5.031e+05
5.0347e+05
5.0383e+05
5.0418e+05
5.0452e+05
5.0487e+05
5.0523e+05
5.0559e+05
5.0596e+05
5.0631e+05
5.0666e+05
5.07e+05
5.0736e+05
5.0774e+05
5.0787e+05
5.0811e+05
5.0846e+05
5.0881e+05
5.0915e+05
5.0952e+05
5.0989e+05
5.1001e+05
5.1024e+05
5.1061e+05
5.1097e+05
5.113e+05
5.1165e+05
5.1202e+05
5.1215e+05
5.1239e+05
5.1274e+05
5.1308e+05
5.1343e+05
5.1378e+05
5.1414e+05
5.1427e+05
5.145e+05
5.1485e+05
5.1521e+05
5.1554e+05
5.1589e+05
5.1627e+05
5.1639e+05
5.1663e+05
5.1698e+05
5.1732e+05
5.1766e+05
5.1802e+05
5.1837e+05
5.1874e+05
5.191e+05
5.1922e+05
5.1945e+05
5.1979e+05
5.2013e+05
5.205e+05
5.2087e+05
5.2122e+05
5.2156e+05
5.2169e+05
5.2191e+05
5.2226e+05
5.2262e+05
5.2298e+05
5.2311e+05
5.2334e+05
5.2369e+05
5.2382e+05
5.2404e+05
5.2438e+05
5.2475e+05
5.2489e+05
5.2511e+05
5.2547e+05
5.2582e+05
5.2617e+05
5.2651e+05
5.2687e+05
5.2724e+05
5.2761e+05
5.2796e+05
5.2831e+05
5.2865e+05
5.2902e+05
5.2914e+05
5.2938e+05
5.2974e+05
5.3008e+05
5.3043e+05
5.3077e+05
5.3112e+05
5.3149e+05
5.3185e+05
5.3221e+05
5.3255e+05
5.3288e+05
5.3324e+05
5.3361e+05
5.3397e+05
5.3432e+05
5.3467e+05
5.3501e+05
5.3536e+05
5.3572e+05
5.3609e+05
5.3645e+05
5.368e+05
5.3714e+05
5.3749e+05
5.3785e+05
5.3822e+05
5.3857e+05
5.3892e+05
5.3927e+05
5.3962e+05
5.3998e+05
5.4034e+05
5.4071e+05
5.4106e+05
5.4248e+05
5.4283e+05
5.4318e+05
5.4354e+05
5.4366e+05
5.4388e+05
5.4401e+05
5.4425e+05
5.4462e+05
5.4474e+05
5.4498e+05
5.4532e+05
5.4783e+05
5.4817e+05
5.4892e+05
5.5033e+05
5.5066e+05
5.5105e+05
5.5117e+05
5.5139e+05
5.5154e+05
5.5179e+05
5.5199e+05
5.5258e+05
5.5262e+05
5.5406e+05
5.5478e+05
5.5534e+05
5.5996e+05
5.6035e+05
5.6041e+05
5.9583e+05
5.9591e+05
5.9626e+05
5.9667e+05
5.9677e+05
5.9707e+05
5.9719e+05
5.9746e+05
5.9757e+05
5.9786e+05
5.9797e+05
5.9828e+05
5.9836e+05
5.987e+05
5.9887e+05
5.9911e+05
5.9922e+05
5.9951e+05
5.9958e+05
5.9989e+05
5.9996e+05
6.0031e+05
6.004e+05
6.0072e+05
6.0087e+05
6.0113e+05
6.0128e+05
6.0152e+05
6.0166e+05
6.0189e+05
6.0227e+05
6.0246e+05
6.0266e+05
6.0285e+05
6.0305e+05
6.0341e+05
6.0348e+05
6.0377e+05
6.041e+05
6.0426e+05
6.0454e+05
6.0457e+05
6.0482e+05
6.0517e+05
6.0552e+05
6.0585e+05
6.0593e+05
6.0619e+05
6.0627e+05
6.0652e+05
6.066e+05
6.0685e+05
6.0698e+05
6.072e+05
6.0753e+05
6.0767e+05
6.0785e+05
6.0794e+05
6.0816e+05
6.0827e+05
6.0847e+05
6.0853e+05
6.0878e+05
6.0911e+05
6.0943e+05
6.0974e+05
6.1006e+05
6.1046e+05
6.1066e+05
6.1074e+05
6.1097e+05
6.1131e+05
6.1162e+05
6.1193e+05
6.1201e+05
6.1223e+05
6.1229e+05
6.1265e+05
6.1314e+05
6.1357e+05
6.1394e+05
6.1438e+05
6.1478e+05
6.1509e+05
6.1556e+05
6.159e+05
6.1622e+05
6.1656e+05
6.1687e+05
6.1722e+05
6.1749e+05
6.1757e+05
6.1783e+05
6.1797e+05
6.1818e+05
6.1826e+05
6.1863e+05
6.1888e+05
6.1934e+05
6.196e+05
6.1969e+05
6.1998e+05
6.2016e+05
6.2036e+05
6.2043e+05
6.2073e+05
6.2081e+05
6.2108e+05
6.2117e+05
6.2146e+05
6.2197e+05
6.2221e+05
6.2265e+05
6.2302e+05
6.2331e+05
6.2372e+05
6.2402e+05
6.2409e+05
6.2442e+05
6.2483e+05
6.2511e+05
6.2518e+05
6.2552e+05
6.2585e+05
6.2614e+05
6.2622e+05
6.2648e+05
6.269e+05
6.2716e+05
6.2722e+05
6.2748e+05
6.2754e+05
6.2779e+05
6.2786e+05
6.2818e+05
6.2852e+05
6.2877e+05
6.2892e+05
6.2915e+05
6.2947e+05
6.2969e+05
6.3001e+05
6.3023e+05
6.3055e+05
6.3074e+05
6.3099e+05
6.3127e+05
6.3145e+05
6.3164e+05
6.3182e+05
6.3199e+05
6.3215e+05
6.3232e+05
6.3249e+05
6.3267e+05
6.3285e+05
6.3302e+05
6.332e+05
6.3337e+05
6.3355e+05
6.3372e+05
6.3389e+05
6.3406e+05
6.3423e+05
6.3441e+05
6.3458e+05
6.3477e+05
6.3495e+05
6.3515e+05
6.3532e+05
6.355e+05
6.3569e+05
6.3587e+05
6.3604e+05
6.3621e+05
6.3638e+05
6.3655e+05
6.3673e+05
6.3692e+05
6.3714e+05
6.3732e+05
6.3748e+05
6.377e+05
6.3837e+05
6.3854e+05
6.387e+05
6.3891e+05
6.3926e+05
6.3944e+05
6.3965e+05
6.3983e+05
6.4037e+05
6.4053e+05
6.4071e+05
6.4087e+05
6.4123e+05
6.4157e+05
6.4175e+05
6.4197e+05
6.4215e+05
6.4232e+05
6.4249e+05
6.4267e+05
6.4302e+05
6.4316e+05
6.4337e+05
6.4356e+05
6.4374e+05
6.441e+05
6.4429e+05
6.4446e+05
6.4464e+05
6.4481e+05
6.4498e+05
6.4515e+05
6.4533e+05
6.4551e+05
6.457e+05
6.4585e+05
6.4607e+05
6.4626e+05
6.4644e+05
6.466e+05
6.4697e+05
6.4712e+05
6.4731e+05
