438
649
1134
1811
1995
2515
2676
3153
3838
4520
5154
5366
5853
6242
6533
6730
7123
7317
7502
7701
7902
8097
8478
8675
8874
9251
9427
9604
9984
10181
10372
10743
10927
11112
11479
11655
11840
12229
12420
12635
12848
13055
13441
13626
13805
13996
14201
14400
14797
14987
15383
15581
15785
15986
16194
16627
16849
17028
17268
17469
17632
17873
18065
18258
18474
18679
18883
19286
19490
19874
20059
20251
20674
20882
21314
21513
21902
22100
22294
22691
22896
23333
23544
23955
24159
24811
25020
25466
25667
26075
26272
26678
26870
27342
27578
27754
28268
28435
28921
29530
29729
29936
30140
30351
30516
31022
31653
31865
32272
32468
32672
32880
33081
33271
33474
33685
33909
34360
34565
34977
35176
35586
35791
36199
36402
36603
36997
37191
37383
37566
37759
37989
38484
39143
39336
39476
39742
39956
40460
40651
41188
41868
42022
42521
42736
43201
43382
43862
44054
44490
44703
45181
45385
45809
46016
46443
46654
47099
47301
47721
47925
48335
48527
48972
49187
49611
49816
49975
50273
50456
50959
51666
51833
52286
52495
52931
53105
53590
53787
54213
54414
54824
55033
55519
55751
56219
56888
57505
57718
58185
58399
58833
59029
59158
59457
59663
60099
60302
60716
60922
61359
61570
62047
62271
62704
62906
63318
63513
63681
63930
64141
64352
64807
65010
65403
65594
65968
66367
66526
66745
66928
67120
67512
67701
67887
68083
68291
68508
68646
68933
69145
69575
69769
70183
70392
70531
70837
71040
71465
71666
72089
72275
72705
72920
73334
73532
73949
74149
74553
74753
75160
76158
76354
76546
76745
77195
77402
77825
78025
78420
78602
78791
78993
79215
79408
79890
80085
80481
80674
80873
81060
81261
81458
81848
82029
82227
82603
82782
82959
83348
83556
83756
83957
84146
84348
84768
84965
85354
85557
85760
85966
86177
86389
86842
87018
87442
87644
88058
88262
88667
88881
89039
89322
89522
89951
90163
90586
90786
91178
91378
91585
91796
92007
92186
92679
92868
93305
93498
93878
94080
94490
94687
94888
95314
95514
95907
96104
96523
96737
96909
97416
97721
98059
98701
98906
2.0672e+05
2.3837e+05
3.1055e+05
3.1123e+05
5.0294e+05
5.0334e+05
5.041e+05
5.0473e+05
5.0542e+05
5.0681e+05
5.0766e+05
5.1051e+05
5.1115e+05
5.1348e+05
5.158e+05
5.1934e+05
5.2104e+05
5.217e+05
5.224e+05
5.2357e+05
5.2909e+05
5.2929e+05
5.3717e+05
5.3803e+05
5.3845e+05
5.3905e+05
5.3971e+05
5.4142e+05
5.4743e+05
5.4846e+05
5.501e+05
5.5095e+05
5.5338e+05
5.5534e+05
5.5921e+05
5.5971e+05
5.7412e+05
5.8437e+05
5.8875e+05
5.9682e+05
5.9713e+05
5.9752e+05
6.0605e+05
6.1072e+05
6.4151e+05
6.4318e+05
-1
274
567
757
924
1271
1451
1655
1941
2134
2315
2641
2818
2995
3289
3489
3679
3971
4156
4335
4645
4827
5017
5277
5472
5639
5991
6183
6376
6414
6660
6694
6870
7043
7248
7402
7433
7647
7837
8038
8234
8388
8617
8814
9007
9157
9374
9547
9737
9899
10126
10318
10506
10664
10873
11055
11238
11397
11607
11775
11971
12130
12358
12558
12765
12979
12999
13186
13352
13566
13750
13933
14134
14334
14537
14691
14928
15120
15288
15513
15710
15885
16117
16319
16495
16768
16982
17164
17392
17593
17774
17994
18186
18397
18603
18812
18980
19019
19168
19424
19621
19786
19992
20184
20341
20525
20812
21018
21180
21443
21638
21798
22031
22228
22389
22563
22826
23028
23201
23471
23672
23855
24083
24281
24314
24467
24628
24942
25130
25305
25599
25799
25942
26204
26401
26569
26795
26994
27191
27487
27713
27915
28084
28401
28574
28744
29050
29228
29419
29661
29863
30066
30269
30482
30668
30834
31144
31320
31791
31996
32148
32398
32596
32778
33006
33207
33395
33601
33822
34015
34195
34493
34665
34842
35103
35301
35449
35718
35922
36099
36327
36530
36738
36884
37129
37313
37507
37685
37891
38095
38278
38621
38792
38963
39267
39619
39871
40091
40257
40599
40794
40972
41319
41487
41661
41985
42168
42361
42652
42841
43009
43332
43516
43690
43988
44158
44333
44622
44813
44992
45310
45491
45665
45937
46117
46281
46577
46756
46937
47231
47435
47580
47855
48048
48197
48454
48661
48829
49108
49320
49482
49736
49940
50117
50406
50585
50747
51096
51282
51470
51796
51974
52153
52413
52592
52753
53066
53258
53445
53719
53915
54074
54340
54542
54701
54942
55167
55347
55657
55863
56021
56350
56490
56700
57008
57185
57370
57637
57855
58005
58318
58504
58677
58957
59290
59591
59801
59952
60233
60434
60585
60847
61053
61224
61487
61700
61859
62189
62402
62550
62835
63033
63183
63448
63643
63825
64064
64272
64460
64634
64939
65142
65284
65529
65712
65878
65925
66104
66310
66501
66662
66872
67054
67251
67401
67640
67818
68008
68215
68428
68794
69067
69272
69414
69699
69898
70033
70316
70673
70968
71142
71312
71593
71800
71932
72209
72409
72557
72847
73057
73202
73459
73655
73809
74076
74239
74409
74681
74886
75039
75296
75815
76281
76474
76669
76880
77041
77325
77499
77675
77957
78159
78300
78546
78720
78921
79127
79342
79543
79707
80015
80186
80350
80609
80797
80968
81192
81390
81592
81749
81972
82160
82356
82507
82562
82727
82903
83084
83240
83488
83686
83889
84075
84273
84479
84617
84898
85085
85237
85486
85685
85892
86099
86303
86524
86658
86967
87141
87288
87574
87780
87936
88193
88384
88559
88795
89005
89197
89236
89438
89618
89788
90087
90298
90446
90715
90911
91069
91304
91506
91708
91924
92137
92335
92520
92811
92992
93157
93431
93621
93754
94010
94215
94393
94618
94812
94983
95168
95443
95642
95785
96032
96232
96407
96658
96872
97055
97235
97549
97704
97880
98189
98373
98551
98835
99035
99182
1.0034e+05
1.0041e+05
1.0077e+05
1.0125e+05
1.0208e+05
1.0329e+05
1.0393e+05
1.0453e+05
1.0501e+05
1.0537e+05
1.0575e+05
1.0631e+05
1.0666e+05
1.0726e+05
1.0876e+05
1.0913e+05
1.1007e+05
1.1068e+05
1.1131e+05
1.1198e+05
1.132e+05
1.1385e+05
1.1512e+05
1.1835e+05
1.2041e+05
1.2138e+05
1.2175e+05
1.2232e+05
1.2294e+05
1.2557e+05
1.2586e+05
1.263e+05
1.2652e+05
1.268e+05
1.2682e+05
1.272e+05
1.2775e+05
1.2811e+05
1.2818e+05
1.287e+05
1.2977e+05
1.2978e+05
1.2998e+05
1.3006e+05
1.3061e+05
1.3145e+05
1.3174e+05
1.318e+05
1.3219e+05
1.3246e+05
1.3281e+05
1.3326e+05
1.3353e+05
1.3356e+05
1.3396e+05
1.3398e+05
1.3471e+05
1.3593e+05
1.3739e+05
1.3746e+05
1.3924e+05
1.3979e+05
1.4011e+05
1.4018e+05
1.4042e+05
1.4075e+05
1.4137e+05
1.4172e+05
1.4193e+05
1.4223e+05
1.4312e+05
1.4348e+05
1.4355e+05
1.4396e+05
1.4435e+05
1.4442e+05
1.4474e+05
1.4503e+05
1.4509e+05
1.454e+05
1.4567e+05
1.4603e+05
1.4624e+05
1.4655e+05
1.4661e+05
1.4691e+05
1.4722e+05
1.4729e+05
1.4754e+05
1.4775e+05
1.4806e+05
1.4812e+05
1.4846e+05
1.4876e+05
1.4883e+05
1.4927e+05
1.4987e+05
1.5039e+05
1.5075e+05
1.5182e+05
1.5203e+05
1.5234e+05
1.5289e+05
1.5357e+05
1.5422e+05
1.5492e+05
1.5562e+05
1.5614e+05
1.5641e+05
1.5678e+05
1.5709e+05
1.5778e+05
1.5845e+05
1.5912e+05
1.605e+05
1.612e+05
1.6189e+05
1.6254e+05
1.6393e+05
1.6458e+05
1.6521e+05
1.7454e+05
1.8876e+05
1.8906e+05
1.9181e+05
1.9654e+05
1.9736e+05
1.9762e+05
1.987e+05
1.9891e+05
1.9922e+05
1.9959e+05
2.0003e+05
2.0024e+05
2.0056e+05
2.0074e+05
2.0127e+05
2.0194e+05
2.0211e+05
2.0231e+05
2.0303e+05
2.0357e+05
2.0412e+05
2.0431e+05
2.0504e+05
2.057e+05
2.0613e+05
2.0634e+05
2.0666e+05
2.0706e+05
2.0774e+05
2.0837e+05
2.0883e+05
2.0902e+05
2.095e+05
2.0971e+05
2.1041e+05
2.1096e+05
2.1177e+05
2.1242e+05
2.1285e+05
2.1305e+05
2.1377e+05
2.1433e+05
2.151e+05
2.1578e+05
2.1641e+05
2.1707e+05
2.1762e+05
2.1841e+05
2.1904e+05
2.1959e+05
2.21e+05
2.2164e+05
2.2228e+05
2.2292e+05
2.2422e+05
2.2522e+05
2.2538e+05
2.2557e+05
2.2624e+05
2.2856e+05
2.2923e+05
2.2984e+05
2.3049e+05
2.3112e+05
2.3198e+05
2.3261e+05
2.3303e+05
2.3363e+05
2.3405e+05
2.3471e+05
2.3604e+05
2.3665e+05
2.3734e+05
2.3779e+05
2.3799e+05
2.3831e+05
2.3869e+05
2.3936e+05
2.4001e+05
2.4065e+05
2.4132e+05
2.4195e+05
2.4259e+05
2.4312e+05
2.4393e+05
2.4458e+05
2.459e+05
2.4656e+05
2.4718e+05
2.4783e+05
2.4847e+05
2.491e+05
2.4953e+05
2.4994e+05
2.5018e+05
2.5065e+05
2.5086e+05
2.5115e+05
2.5142e+05
2.5191e+05
2.5246e+05
2.5274e+05
2.5325e+05
2.5376e+05
2.5407e+05
2.5447e+05
2.5476e+05
2.5526e+05
2.559e+05
2.5646e+05
2.5677e+05
2.5729e+05
2.5735e+05
2.5794e+05
2.5864e+05
2.5934e+05
2.6e+05
2.6067e+05
2.6123e+05
2.6152e+05
2.6201e+05
2.6268e+05
2.6336e+05
2.6403e+05
2.6469e+05
2.6541e+05
2.6548e+05
2.6609e+05
2.6676e+05
2.6815e+05
2.6882e+05
2.6938e+05
2.6967e+05
2.7036e+05
2.7074e+05
2.7102e+05
2.7172e+05
2.7224e+05
2.7486e+05
2.7514e+05
2.7581e+05
2.7647e+05
2.7781e+05
2.785e+05
2.8186e+05
2.8254e+05
2.8457e+05
2.8524e+05
2.8723e+05
2.8787e+05
2.8989e+05
2.9054e+05
2.9253e+05
2.9321e+05
2.9385e+05
2.9585e+05
2.9649e+05
2.9922e+05
2.9941e+05
3.0013e+05
3.0099e+05
3.0142e+05
3.0208e+05
3.0263e+05
3.0341e+05
3.0406e+05
3.0453e+05
3.0473e+05
3.0541e+05
3.0586e+05
3.0606e+05
3.0657e+05
3.0677e+05
3.0709e+05
3.0749e+05
3.0792e+05
3.0811e+05
3.0861e+05
3.0881e+05
3.0953e+05
3.0996e+05
3.1016e+05
3.1088e+05
3.1157e+05
3.1221e+05
3.1278e+05
3.1355e+05
3.1417e+05
3.1486e+05
3.1532e+05
3.1603e+05
3.1623e+05
3.1673e+05
3.17e+05
3.172e+05
3.1751e+05
3.1852e+05
3.1942e+05
3.1982e+05
3.2063e+05
3.2168e+05
3.2208e+05
3.2255e+05
3.2286e+05
3.2356e+05
3.2372e+05
3.2408e+05
3.2446e+05
3.253e+05
3.2533e+05
3.2573e+05
3.2581e+05
3.2664e+05
3.2796e+05
3.2884e+05
3.2971e+05
3.2995e+05
3.3039e+05
3.3111e+05
3.315e+05
3.3183e+05
3.3204e+05
3.3226e+05
3.3245e+05
3.3278e+05
3.332e+05
3.3389e+05
3.3459e+05
3.3504e+05
3.3526e+05
3.3548e+05
3.3606e+05
3.3628e+05
3.3649e+05
3.367e+05
3.3689e+05
3.3748e+05
3.3771e+05
3.3789e+05
3.3809e+05
3.3845e+05
3.3876e+05
3.3883e+05
3.393e+05
3.3964e+05
3.3997e+05
3.4054e+05
3.4085e+05
3.4093e+05
3.4141e+05
3.4177e+05
3.4212e+05
3.4266e+05
3.4298e+05
3.4305e+05
3.4331e+05
3.4365e+05
3.4414e+05
3.4434e+05
3.4457e+05
3.4482e+05
3.4519e+05
3.4592e+05
3.4662e+05
3.4718e+05
3.4749e+05
3.48e+05
3.5017e+05
3.5024e+05
3.5066e+05
3.5284e+05
3.5467e+05
3.5595e+05
3.5675e+05
3.5679e+05
3.5716e+05
3.579e+05
3.5945e+05
3.5997e+05
3.6281e+05
3.6288e+05
3.6317e+05
3.6352e+05
3.6437e+05
3.6444e+05
3.6544e+05
3.6576e+05
3.6673e+05
3.6772e+05
3.6982e+05
3.7695e+05
3.7791e+05
3.789e+05
3.8112e+05
3.8119e+05
3.864e+05
3.8914e+05
3.9804e+05
3.9839e+05
3.9862e+05
3.9903e+05
3.9936e+05
3.9973e+05
4.0044e+05
4.0077e+05
4.0203e+05
4.0261e+05
4.0332e+05
4.0365e+05
4.0405e+05
4.0472e+05
4.0488e+05
4.0516e+05
4.0535e+05
4.0611e+05
4.068e+05
4.0731e+05
4.0763e+05
4.08e+05
4.0897e+05
4.0941e+05
4.1014e+05
4.1062e+05
4.1089e+05
4.1117e+05
4.1152e+05
4.1255e+05
4.1291e+05
4.1298e+05
4.1346e+05
4.1386e+05
4.1456e+05
4.1535e+05
4.1558e+05
4.1597e+05
4.1668e+05
4.1718e+05
4.1722e+05
4.1746e+05
4.1768e+05
4.1787e+05
4.179e+05
4.1817e+05
4.1841e+05
4.1888e+05
4.1912e+05
4.1958e+05
4.1964e+05
4.2027e+05
4.2051e+05
4.2071e+05
4.2076e+05
4.214e+05
4.2193e+05
4.2199e+05
4.2237e+05
4.2259e+05
4.2264e+05
4.2387e+05
4.2424e+05
4.2427e+05
4.246e+05
4.2479e+05
4.2494e+05
4.2497e+05
4.2515e+05
4.2518e+05
4.2553e+05
4.2586e+05
4.2588e+05
4.262e+05
4.2635e+05
4.2652e+05
4.2668e+05
4.267e+05
4.2704e+05
4.2722e+05
4.2755e+05
4.2772e+05
4.2822e+05
4.2841e+05
4.3006e+05
4.305e+05
4.3228e+05
4.3246e+05
4.3266e+05
4.3283e+05
4.3319e+05
4.3322e+05
4.3361e+05
4.3418e+05
4.3456e+05
4.3671e+05
4.3728e+05
4.3732e+05
4.3752e+05
4.3773e+05
4.3977e+05
4.408e+05
4.4119e+05
4.4199e+05
4.4241e+05
4.4323e+05
4.4326e+05
4.4387e+05
4.4405e+05
4.441e+05
4.4447e+05
4.445e+05
4.451e+05
4.4588e+05
4.4746e+05
4.4825e+05
4.4956e+05
4.5138e+05
4.5251e+05
4.5273e+05
4.5381e+05
4.5405e+05
4.5485e+05
4.5487e+05
4.5552e+05
4.5615e+05
4.5678e+05
4.5868e+05
4.5923e+05
4.5946e+05
4.5968e+05
4.5972e+05
4.6037e+05
4.6039e+05
4.612e+05
4.6187e+05
4.6312e+05
4.6405e+05
4.6514e+05
4.6575e+05
4.6657e+05
4.6677e+05
4.6697e+05
4.6717e+05
4.6736e+05
4.6755e+05
4.6885e+05
4.6889e+05
4.6953e+05
4.7032e+05
4.7496e+05
4.7899e+05
4.7937e+05
4.7956e+05
4.8131e+05
4.8136e+05
4.8816e+05
4.9044e+05
4.9103e+05
4.9122e+05
4.9181e+05
4.9718e+05
4.9741e+05
4.9771e+05
5.026e+05
5.0326e+05
5.0353e+05
5.0398e+05
5.0442e+05
5.0512e+05
5.0562e+05
5.0583e+05
5.0613e+05
5.0631e+05
5.0649e+05
5.0667e+05
5.0716e+05
5.0799e+05
5.0908e+05
5.0942e+05
5.1023e+05
5.1085e+05
5.1156e+05
5.1201e+05
5.1246e+05
5.1317e+05
5.1337e+05
5.1377e+05
5.1502e+05
5.1559e+05
5.1599e+05
5.1643e+05
5.167e+05
5.1694e+05
5.1715e+05
5.175e+05
5.1792e+05
5.1863e+05
5.1883e+05
5.1923e+05
5.193e+05
5.1965e+05
5.2141e+05
5.2208e+05
5.2279e+05
5.2345e+05
5.2381e+05
5.2434e+05
5.2472e+05
5.2514e+05
5.2555e+05
5.2601e+05
5.2623e+05
5.2655e+05
5.2718e+05
5.2768e+05
5.2833e+05
5.2864e+05
5.2897e+05
5.2924e+05
5.295e+05
5.296e+05
5.3024e+05
5.3108e+05
5.3152e+05
5.3216e+05
5.3284e+05
5.3491e+05
5.3522e+05
5.356e+05
5.3613e+05
5.3647e+05
5.3688e+05
5.3696e+05
5.3733e+05
5.3769e+05
5.3797e+05
5.3829e+05
5.3857e+05
5.389e+05
5.3923e+05
5.3945e+05
5.3949e+05
5.3988e+05
5.401e+05
5.4013e+05
5.4052e+05
5.4073e+05
5.4076e+05
5.4112e+05
5.4133e+05
5.4223e+05
5.4386e+05
5.4478e+05
5.4581e+05
5.4585e+05
5.4602e+05
5.4605e+05
5.4668e+05
5.4764e+05
5.4769e+05
5.481e+05
5.4866e+05
5.487e+05
5.5006e+05
5.503e+05
5.5108e+05
5.5127e+05
5.5148e+05
5.5168e+05
5.5209e+05
5.5313e+05
5.5316e+05
5.5353e+05
5.5356e+05
5.5552e+05
5.5557e+05
5.5596e+05
5.56e+05
5.5644e+05
5.5646e+05
5.5687e+05
5.5691e+05
5.5776e+05
5.5897e+05
5.5902e+05
5.5941e+05
5.5962e+05
5.5984e+05
5.6006e+05
5.6028e+05
5.6071e+05
5.6095e+05
5.6142e+05
5.6164e+05
5.6232e+05
5.6276e+05
5.635e+05
5.6372e+05
5.6442e+05
5.6514e+05
5.6562e+05
5.6633e+05
5.6656e+05
5.6702e+05
5.6725e+05
5.6775e+05
5.6798e+05
5.6868e+05
5.6914e+05
5.7064e+05
5.7157e+05
5.7231e+05
5.7352e+05
5.7427e+05
5.7475e+05
5.7545e+05
5.7618e+05
5.7641e+05
5.7714e+05
5.7834e+05
5.7858e+05
5.7927e+05
5.8e+05
5.8103e+05
5.8253e+05
5.8306e+05
5.8428e+05
5.8451e+05
5.8576e+05
5.8655e+05
5.8732e+05
5.8781e+05
5.8893e+05
5.8919e+05
5.8973e+05
5.9046e+05
5.9122e+05
5.9174e+05
5.9197e+05
5.9201e+05
5.9649e+05
5.9701e+05
5.9704e+05
5.9743e+05
5.9772e+05
5.9817e+05
5.9864e+05
5.9935e+05
6.0112e+05
6.0142e+05
6.0177e+05
6.0303e+05
6.031e+05
6.0355e+05
6.0626e+05
6.0646e+05
6.0669e+05
6.07e+05
6.0746e+05
6.0853e+05
6.1105e+05
6.1112e+05
6.1163e+05
6.117e+05
6.119e+05
6.1211e+05
6.1307e+05
6.1376e+05
6.1383e+05
6.1454e+05
6.1461e+05
6.1746e+05
6.182e+05
6.2166e+05
6.2456e+05
6.2645e+05
6.296e+05
6.358e+05
6.3614e+05
6.3621e+05
6.369e+05
6.3697e+05
6.3726e+05
6.3762e+05
6.3769e+05
6.3832e+05
6.3887e+05
6.3922e+05
6.3958e+05
6.3993e+05
6.4028e+05
6.4104e+05
6.4141e+05
6.4173e+05
6.4249e+05
6.4309e+05
6.4346e+05
6.4381e+05
6.4417e+05
6.4454e+05
6.4488e+05
6.4524e+05
6.4561e+05
6.4607e+05
6.4676e+05
6.4823e+05
6.4941e+05
6.4979e+05
