127
361
595
827
1051
1277
1492
1715
1936
2175
2413
2646
2874
3104
3331
3560
3785
3998
4232
4468
4703
4946
5188
5419
5644
5871
6092
6314
6555
6801
7045
7279
7511
7745
7977
8208
8431
8664
8904
9137
9372
9605
9843
10079
10315
10539
10780
11035
11288
11537
11772
12008
12244
12471
12697
12939
13183
13428
13658
13891
14125
14354
14581
14787
15016
15252
15483
15723
15962
16186
16411
16633
16854
17080
17317
17553
17790
18014
18241
18464
18690
18908
19096
19353
19576
19813
20042
20275
20498
20718
20937
21155
21374
21606
21846
22099
22329
22560
22780
23002
23231
23442
23669
23895
24114
24357
24578
24812
25037
25256
25445
25678
25905
26144
26379
26614
26831
27060
27280
27495
27703
27921
28155
28390
28617
28842
29071
29298
29516
29734
29942
30161
30398
30627
30863
31093
31322
31553
31776
32002
32239
32480
32727
32964
33200
33435
33658
33866
34114
34328
34559
34795
35034
35274
35501
35726
35943
36353
36577
36816
37052
37281
37516
37738
37957
38182
38405
38615
38838
39070
39301
39533
39762
39980
40199
40416
40634
40848
41082
41316
41551
41784
41995
42217
42656
42871
43113
43352
43588
43828
44061
44298
44520
44746
44958
45175
45410
45636
45872
46108
46332
46552
46767
46993
47211
47438
47676
47908
48138
48366
48598
48826
49052
49271
49491
49719
49955
50193
50428
50656
50879
51103
51323
51538
51774
52018
52259
52498
52750
52944
53175
53348
53599
53807
54025
54248
54499
54715
54939
55171
55387
55623
55818
56022
56285
56513
56929
57153
57373
57593
57808
58028
58258
58487
58722
58952
59175
59409
59628
59853
60069
60287
60521
60754
60992
61230
61455
61680
61904
62135
62362
62599
62848
63087
63324
63564
63799
64047
64267
64490
64717
64951
65191
65439
65666
65893
66112
66337
66561
66775
67016
67261
67490
67720
67948
68177
68410
68632
68849
69075
69306
69498
69760
69984
70215
70437
70655
70868
71085
71325
71573
71812
72042
72278
72510
72734
72964
73183
73417
73645
73895
74126
74354
74582
74807
75030
75244
75468
75704
75955
76184
76421
76653
76879
77098
77328
77555
77786
78014
78251
78483
78733
78937
79144
79370
79584
79789
80015
80239
80462
80684
80905
81115
81326
81543
81741
81970
82207
82429
82657
82873
83086
83306
83534
83736
83940
84148
84376
84602
84829
85058
85282
85486
85701
85913
86122
86361
86581
86813
87034
87250
87468
87687
87902
88125
88332
88589
88814
89003
89236
89461
89714
89875
90099
90314
90526
90763
90937
91173
91374
91606
91810
92014
92227
92418
92839
93232
93447
93652
94265
94469
94860
95040
95274
95491
95695
95899
96286
96697
96867
97072
97275
97487
97694
97897
98092
98291
98492
98690
98887
99468
1.0008e+05
1.0087e+05
1.0106e+05
1.0145e+05
1.0166e+05
1.0206e+05
1.0303e+05
1.0338e+05
1.0379e+05
1.0399e+05
1.042e+05
1.044e+05
1.0499e+05
1.0537e+05
1.0595e+05
1.0616e+05
1.0636e+05
1.0676e+05
1.0695e+05
1.0808e+05
1.0848e+05
1.0868e+05
1.0888e+05
1.0908e+05
1.0946e+05
1.0965e+05
1.0983e+05
1.0995e+05
1.1038e+05
1.106e+05
1.1099e+05
1.1116e+05
1.1156e+05
1.129e+05
1.1329e+05
1.1368e+05
1.1388e+05
1.1407e+05
1.1604e+05
1.1726e+05
1.1746e+05
1.1767e+05
1.1827e+05
1.1866e+05
1.1887e+05
1.1908e+05
1.1929e+05
1.1951e+05
1.1971e+05
1.2091e+05
1.2112e+05
1.2133e+05
1.2154e+05
1.2213e+05
1.225e+05
1.2351e+05
1.247e+05
1.2489e+05
1.2501e+05
1.2643e+05
1.2874e+05
1.3492e+05
1.3588e+05
1.3827e+05
1.3868e+05
1.4104e+05
1.4178e+05
1.4276e+05
1.4337e+05
1.4436e+05
1.4477e+05
1.46e+05
1.4641e+05
1.4661e+05
1.4704e+05
1.4791e+05
1.4918e+05
1.4963e+05
1.5111e+05
1.5169e+05
1.5237e+05
1.5401e+05
1.5593e+05
1.5746e+05
1.5768e+05
1.5886e+05
1.5999e+05
1.6023e+05
1.6047e+05
1.607e+05
1.6092e+05
1.6115e+05
1.6137e+05
1.6278e+05
1.63e+05
1.6324e+05
1.644e+05
1.6465e+05
1.6489e+05
1.6513e+05
1.6536e+05
1.6603e+05
1.6676e+05
1.6746e+05
1.6861e+05
1.6909e+05
1.7047e+05
1.7072e+05
1.7097e+05
1.712e+05
1.7143e+05
1.7167e+05
1.7212e+05
1.7234e+05
1.7257e+05
1.728e+05
1.7304e+05
1.7328e+05
1.7375e+05
1.7487e+05
1.7511e+05
1.7535e+05
1.7558e+05
1.7582e+05
1.7604e+05
1.7694e+05
1.7717e+05
1.7738e+05
1.781e+05
1.7833e+05
1.7901e+05
1.7924e+05
1.7997e+05
1.813e+05
1.8177e+05
1.82e+05
1.826e+05
1.8372e+05
1.8442e+05
1.8714e+05
1.8945e+05
1.9036e+05
1.906e+05
1.9106e+05
1.922e+05
1.9239e+05
1.9268e+05
1.9339e+05
1.9662e+05
1.9709e+05
1.9755e+05
1.9778e+05
1.9874e+05
1.9895e+05
1.9922e+05
1.9946e+05
1.997e+05
1.9993e+05
2.0016e+05
2.0078e+05
2.0152e+05
2.018e+05
2.0287e+05
2.0439e+05
2.0491e+05
2.0816e+05
2.091e+05
2.0992e+05
2.1574e+05
2.1645e+05
2.1782e+05
2.188e+05
2.1934e+05
2.204e+05
2.2323e+05
2.2639e+05
2.3865e+05
2.3887e+05
2.3906e+05
2.393e+05
2.3952e+05
2.3975e+05
2.3998e+05
2.4018e+05
2.4044e+05
2.4065e+05
2.4088e+05
2.4111e+05
2.4133e+05
2.4155e+05
2.4176e+05
2.4198e+05
2.422e+05
2.4243e+05
2.4265e+05
2.4287e+05
2.4308e+05
2.433e+05
2.4351e+05
2.4372e+05
2.4394e+05
2.4416e+05
2.4438e+05
2.4463e+05
2.4507e+05
2.4528e+05
2.4551e+05
2.4573e+05
2.4617e+05
2.4639e+05
2.4663e+05
2.4707e+05
2.4731e+05
2.4753e+05
2.4775e+05
2.4818e+05
2.484e+05
2.4863e+05
2.4887e+05
2.491e+05
2.4932e+05
2.4954e+05
2.4999e+05
2.502e+05
2.5041e+05
2.511e+05
2.5132e+05
2.5155e+05
2.52e+05
2.5222e+05
2.5242e+05
2.5264e+05
2.5311e+05
2.5335e+05
2.5357e+05
2.538e+05
2.5402e+05
2.5423e+05
2.5558e+05
2.5578e+05
2.5647e+05
2.5685e+05
2.5709e+05
2.5733e+05
2.5756e+05
2.578e+05
2.5803e+05
2.5825e+05
2.589e+05
2.5912e+05
2.5936e+05
2.596e+05
2.5982e+05
2.6005e+05
2.6027e+05
2.605e+05
2.6095e+05
2.6117e+05
2.614e+05
2.6187e+05
2.621e+05
2.6233e+05
2.6256e+05
2.6279e+05
2.63e+05
2.6345e+05
2.6369e+05
2.6411e+05
2.6445e+05
2.6462e+05
2.6478e+05
2.6489e+05
2.6502e+05
2.6515e+05
2.6541e+05
2.6555e+05
2.657e+05
2.6584e+05
2.6626e+05
2.6641e+05
2.6654e+05
2.6817e+05
2.6859e+05
2.6872e+05
2.6899e+05
2.6912e+05
2.6925e+05
2.7055e+05
2.7113e+05
2.7173e+05
2.7214e+05
2.7259e+05
2.7367e+05
2.7671e+05
2.7693e+05
2.7735e+05
2.7757e+05
2.7776e+05
2.7818e+05
2.7837e+05
2.7858e+05
2.788e+05
2.7902e+05
2.7916e+05
2.7943e+05
2.7964e+05
2.8006e+05
2.8046e+05
2.8067e+05
2.809e+05
2.8114e+05
2.8138e+05
2.8161e+05
2.8199e+05
2.8231e+05
2.8253e+05
2.8275e+05
2.8321e+05
2.8345e+05
2.8369e+05
2.8391e+05
2.8459e+05
2.848e+05
2.8517e+05
2.8547e+05
2.858e+05
2.8605e+05
2.8687e+05
2.8699e+05
2.8753e+05
2.8771e+05
2.88e+05
2.8838e+05
2.8951e+05
2.8973e+05
2.9036e+05
2.9059e+05
2.9081e+05
2.9124e+05
2.9214e+05
2.9238e+05
2.9263e+05
2.9286e+05
2.933e+05
2.9351e+05
2.9375e+05
2.9399e+05
2.949e+05
2.9511e+05
2.9534e+05
2.9647e+05
2.967e+05
2.9692e+05
2.9714e+05
2.9826e+05
2.9875e+05
2.9898e+05
2.992e+05
2.9943e+05
2.9965e+05
2.9988e+05
3.001e+05
3.0034e+05
3.0057e+05
3.0082e+05
3.0105e+05
3.0128e+05
3.0151e+05
3.0173e+05
3.0197e+05
3.0219e+05
3.0243e+05
3.0267e+05
3.0292e+05
3.0315e+05
3.0339e+05
3.0362e+05
3.0383e+05
3.0409e+05
3.0431e+05
3.0455e+05
3.0477e+05
3.0502e+05
3.0526e+05
3.057e+05
3.0593e+05
3.0637e+05
3.0682e+05
3.0705e+05
3.0728e+05
3.0751e+05
3.0775e+05
3.0815e+05
3.0841e+05
3.088e+05
3.0908e+05
3.0931e+05
3.0953e+05
3.0975e+05
3.0997e+05
3.1019e+05
3.1074e+05
3.1098e+05
3.1295e+05
3.1339e+05
3.1361e+05
3.1404e+05
3.1426e+05
3.1446e+05
3.1467e+05
3.1488e+05
3.1508e+05
3.1531e+05
3.1553e+05
3.1576e+05
3.1596e+05
3.162e+05
3.1641e+05
3.1685e+05
3.1705e+05
3.1724e+05
3.1747e+05
3.1771e+05
3.179e+05
3.1817e+05
3.1839e+05
3.1861e+05
3.1883e+05
3.1903e+05
3.1927e+05
3.1945e+05
3.1971e+05
3.1994e+05
3.2038e+05
3.2081e+05
3.2101e+05
3.2125e+05
3.2147e+05
3.2167e+05
3.2212e+05
3.2235e+05
3.2258e+05
3.228e+05
3.2303e+05
3.2325e+05
3.2346e+05
3.2368e+05
3.2412e+05
3.2432e+05
3.2458e+05
3.248e+05
3.2521e+05
3.2544e+05
3.2568e+05
3.2587e+05
3.2605e+05
3.2627e+05
3.2652e+05
3.2674e+05
3.2696e+05
3.2718e+05
3.2738e+05
3.2758e+05
3.2779e+05
3.28e+05
3.2821e+05
3.2866e+05
3.289e+05
3.2913e+05
3.2935e+05
3.2957e+05
3.2975e+05
3.3022e+05
3.3042e+05
3.3089e+05
3.3113e+05
3.3138e+05
3.3163e+05
3.3185e+05
3.3208e+05
3.3229e+05
3.325e+05
3.3298e+05
3.341e+05
3.3431e+05
3.3452e+05
3.3474e+05
3.3499e+05
3.3521e+05
3.3544e+05
3.3566e+05
3.359e+05
3.3612e+05
3.3635e+05
3.3657e+05
3.3678e+05
3.3702e+05
3.3725e+05
3.3749e+05
3.3773e+05
3.3796e+05
3.3819e+05
3.3839e+05
3.3882e+05
3.3928e+05
3.3951e+05
3.3974e+05
3.3996e+05
3.4019e+05
3.4041e+05
3.4063e+05
3.4086e+05
3.4106e+05
3.4129e+05
3.4152e+05
3.4176e+05
3.42e+05
3.4223e+05
3.4245e+05
3.4269e+05
3.4291e+05
3.4313e+05
3.4335e+05
3.4385e+05
3.4408e+05
3.4432e+05
3.4455e+05
3.4502e+05
3.4548e+05
3.4571e+05
3.462e+05
3.4641e+05
3.4661e+05
3.4688e+05
3.471e+05
3.4733e+05
3.4825e+05
3.4891e+05
3.4934e+05
3.4982e+05
3.5007e+05
3.5055e+05
3.5079e+05
3.5149e+05
3.5195e+05
3.5219e+05
3.5239e+05
3.5291e+05
3.5312e+05
3.5338e+05
3.536e+05
3.5383e+05
3.5406e+05
3.5429e+05
3.5476e+05
3.5499e+05
3.5521e+05
3.5543e+05
3.5563e+05
3.561e+05
3.5655e+05
3.568e+05
3.5705e+05
3.5728e+05
3.5752e+05
3.5775e+05
3.5799e+05
3.5822e+05
3.5844e+05
3.587e+05
3.5895e+05
3.5919e+05
3.5941e+05
3.5967e+05
3.599e+05
3.6015e+05
3.6082e+05
3.6107e+05
3.6201e+05
3.6223e+05
3.6245e+05
3.6266e+05
3.629e+05
3.6314e+05
3.6337e+05
3.6361e+05
3.6384e+05
3.6474e+05
3.6521e+05
3.6593e+05
3.6663e+05
3.6708e+05
3.6731e+05
3.6753e+05
3.6779e+05
3.6799e+05
3.6847e+05
3.6888e+05
3.6936e+05
3.696e+05
3.7032e+05
3.7076e+05
3.7097e+05
3.7141e+05
3.7164e+05
3.7301e+05
3.7343e+05
3.7414e+05
3.7458e+05
3.7704e+05
3.7726e+05
3.7745e+05
3.7995e+05
3.8087e+05
3.8112e+05
3.8176e+05
3.8223e+05
3.8246e+05
3.8315e+05
3.8337e+05
3.8403e+05
3.8515e+05
3.9732e+05
3.9776e+05
3.9803e+05
3.9825e+05
3.9846e+05
3.9868e+05
3.989e+05
3.9912e+05
3.9934e+05
3.9956e+05
3.9979e+05
4.0002e+05
4.0026e+05
4.0049e+05
4.0071e+05
4.0094e+05
4.0117e+05
4.0139e+05
4.016e+05
4.0184e+05
4.0208e+05
4.0232e+05
4.0255e+05
4.0277e+05
4.0295e+05
4.0321e+05
4.0344e+05
4.0405e+05
4.0611e+05
4.0701e+05
4.0769e+05
4.0883e+05
4.0952e+05
4.0975e+05
4.2317e+05
4.2729e+05
4.3709e+05
4.3729e+05
4.3755e+05
4.3778e+05
4.38e+05
4.3822e+05
4.3846e+05
4.3869e+05
4.3892e+05
4.3963e+05
4.3985e+05
4.4009e+05
4.4031e+05
4.4076e+05
4.4167e+05
4.4191e+05
4.4233e+05
4.4256e+05
4.4279e+05
4.4348e+05
4.437e+05
4.4393e+05
4.4416e+05
4.4438e+05
4.4461e+05
4.4481e+05
4.4504e+05
4.4528e+05
4.4551e+05
4.4574e+05
4.4597e+05
4.462e+05
4.4641e+05
4.4662e+05
4.4706e+05
4.473e+05
4.4753e+05
4.4777e+05
4.4798e+05
4.482e+05
4.4843e+05
4.4863e+05
4.4888e+05
4.4931e+05
4.4954e+05
4.4978e+05
4.5001e+05
4.5024e+05
4.5046e+05
4.5068e+05
4.5086e+05
4.5111e+05
4.5132e+05
4.5153e+05
4.5179e+05
4.5202e+05
4.5224e+05
4.5247e+05
4.527e+05
4.5291e+05
4.5331e+05
4.538e+05
4.5403e+05
4.5427e+05
4.5445e+05
4.5471e+05
4.5494e+05
4.5515e+05
4.5538e+05
4.5556e+05
4.5582e+05
4.5606e+05
4.5629e+05
4.5653e+05
4.5675e+05
4.5697e+05
4.572e+05
4.5741e+05
4.5763e+05
4.5786e+05
4.5809e+05
4.5856e+05
4.5879e+05
4.5902e+05
4.5924e+05
4.5947e+05
4.5968e+05
4.5989e+05
4.6012e+05
4.6035e+05
4.6058e+05
4.6081e+05
4.612e+05
4.6164e+05
4.6207e+05
4.623e+05
4.6253e+05
4.6274e+05
4.6298e+05
4.632e+05
4.6343e+05
4.6366e+05
4.6388e+05
4.6407e+05
4.6433e+05
4.6457e+05
4.648e+05
4.6527e+05
4.655e+05
4.6596e+05
4.6618e+05
4.6639e+05
4.6663e+05
4.6687e+05
4.6709e+05
4.6734e+05
4.6778e+05
4.68e+05
4.6823e+05
4.6845e+05
4.6867e+05
4.6891e+05
4.6916e+05
4.6939e+05
4.6985e+05
4.7004e+05
4.703e+05
4.7052e+05
4.7074e+05
4.7098e+05
4.7122e+05
4.7145e+05
4.7168e+05
4.7191e+05
4.7213e+05
4.7236e+05
4.7259e+05
4.728e+05
4.7304e+05
4.7328e+05
4.7352e+05
4.7375e+05
4.74e+05
4.7445e+05
4.7467e+05
4.749e+05
4.7512e+05
4.7535e+05
4.756e+05
4.7584e+05
4.7608e+05
4.763e+05
4.7653e+05
4.7676e+05
4.7699e+05
4.7721e+05
4.7743e+05
4.7767e+05
4.779e+05
4.7813e+05
4.7836e+05
4.7856e+05
4.79e+05
4.7925e+05
4.7992e+05
4.8041e+05
4.8064e+05
4.8109e+05
4.8127e+05
4.8151e+05
4.8176e+05
4.82e+05
4.8242e+05
4.8268e+05
4.8291e+05
4.8314e+05
4.8336e+05
4.8358e+05
4.8381e+05
4.8404e+05
4.8428e+05
4.8453e+05
4.8475e+05
4.8499e+05
4.8522e+05
4.8545e+05
4.8568e+05
4.859e+05
4.8614e+05
4.8638e+05
4.8662e+05
4.8685e+05
4.8705e+05
4.8753e+05
4.8777e+05
4.8799e+05
4.8822e+05
4.8846e+05
4.887e+05
4.8895e+05
4.8918e+05
4.8941e+05
4.8964e+05
4.8986e+05
4.9007e+05
4.9031e+05
4.9054e+05
4.9078e+05
4.9103e+05
4.9126e+05
4.9149e+05
4.917e+05
4.9218e+05
4.9241e+05
4.9264e+05
4.9288e+05
4.9312e+05
4.9335e+05
4.9359e+05
4.9382e+05
4.9405e+05
4.9427e+05
4.9448e+05
4.9472e+05
4.9496e+05
4.9521e+05
4.9544e+05
4.9566e+05
4.9589e+05
4.9612e+05
5.0705e+05
5.3701e+05
5.3724e+05
5.3767e+05
5.3814e+05
5.3837e+05
5.3861e+05
5.3884e+05
5.3906e+05
5.3928e+05
5.3951e+05
5.3973e+05
5.3997e+05
5.4045e+05
5.4068e+05
5.4136e+05
5.4159e+05
5.4249e+05
5.4298e+05
5.4365e+05
5.4387e+05
5.4432e+05
5.448e+05
5.4526e+05
5.4592e+05
5.4616e+05
5.4638e+05
5.4662e+05
5.471e+05
5.4734e+05
5.492e+05
5.4944e+05
5.5035e+05
5.5072e+05
5.5103e+05
5.5118e+05
5.5133e+05
5.5282e+05
5.5305e+05
5.5441e+05
5.5462e+05
5.5486e+05
5.5555e+05
5.5739e+05
5.5762e+05
5.5856e+05
5.5878e+05
5.5969e+05
5.6061e+05
5.615e+05
5.6174e+05
5.6198e+05
5.6269e+05
5.6796e+05
5.6891e+05
5.6914e+05
5.6937e+05
5.7004e+05
5.7027e+05
5.7051e+05
5.7098e+05
5.7121e+05
5.7234e+05
5.7328e+05
5.7463e+05
5.7625e+05
5.9682e+05
6.0136e+05
6.0589e+05
6.0682e+05
6.1742e+05
6.1758e+05
6.1909e+05
6.3251e+05
6.3577e+05
6.36e+05
6.3663e+05
6.3692e+05
6.3714e+05
6.3739e+05
6.3762e+05
6.3786e+05
6.3834e+05
6.3903e+05
6.3971e+05
6.3996e+05
6.4114e+05
6.4186e+05
6.4236e+05
6.4305e+05
6.4328e+05
6.4351e+05
6.4374e+05
6.4469e+05
6.4555e+05
6.4698e+05
6.4721e+05
6.4766e+05
6.4789e+05
6.4838e+05
6.4885e+05
6.4909e+05
-1
269
508
738
967
1197
1412
1632
1850
2084
2318
2561
2787
3014
3245
3470
3696
3923
4140
4375
4612
4850
5092
5325
5558
5780
6003
6225
6457
6702
6946
7185
7418
7650
7885
8118
8336
8575
8811
9046
9284
9512
9746
9985
10216
10443
10678
10928
11187
11435
11673
11913
12146
12375
12604
12842
13086
13332
13569
13798
14033
14268
14492
14713
14924
15158
15397
15634
15860
16101
16324
16548
16768
16989
17230
17463
17699
17931
18152
18380
18602
18827
19053
19222
19492
19723
19954
20191
20412
20638
20856
21074
21285
21513
21755
21997
22240
22473
22694
22919
23145
23368
23583
23810
24041
24251
24497
24724
24952
25175
25393
25564
25820
26051
26295
26748
26973
27196
27417
27629
27662
27839
28070
28301
28534
28760
28988
29214
29434
29653
29857
30078
30307
30538
30773
31004
31233
31461
31687
31911
32138
32381
32630
32867
33108
33343
33571
33798
33999
34241
34469
34702
34940
35183
35409
35640
35857
36081
36246
36281
36488
36722
36961
37196
37420
37649
37873
38096
38323
38531
38753
38974
39214
39442
39474
39663
39895
40121
40330
40553
40762
40992
41227
41457
41691
41911
42135
42356
42523
42792
43013
43056
43253
43500
43723
43970
44202
44436
44662
44877
45090
45321
45549
45784
46020
46243
46466
46685
46905
47127
47351
47582
47819
48051
48275
48507
48736
48963
49189
49400
49632
49863
50102
50343
50565
50794
51015
51239
51459
51678
51919
52166
52395
52634
52858
53087
53310
53463
53520
53732
53937
54180
54224
54403
54629
54855
55083
55305
55734
55936
55983
56173
56428
56661
56827
57069
57290
57514
57728
57938
58170
58401
58635
58863
59089
59321
59546
59767
59984
60196
60430
60665
60900
61141
61369
61595
61814
62037
62270
62500
62744
62987
63232
63465
63700
63939
64176
64403
64632
64858
65101
65322
65371
65579
65811
66029
66252
66477
66688
66923
67166
67402
67633
67860
68091
68321
68548
68764
68985
69219
69449
69632
69899
70122
70355
70574
70785
70998
71231
71478
71718
71956
72187
72418
72645
72875
73094
73325
73559
73798
74033
74260
74494
74721
74946
75166
75208
75380
75609
75853
76092
76333
76564
76786
77017
77244
77465
77693
77929
78163
78399
78621
78662
78847
79064
79293
79330
79503
79538
79708
79932
79961
80157
80382
80611
80831
81041
81252
81469
81677
81891
82117
82345
82568
82792
83010
83232
83454
83664
83868
84074
84293
84521
84744
84781
84970
85193
85237
85410
85625
85821
86042
86262
86499
86718
86953
87170
87386
87609
87824
88041
88251
88475
88708
88926
89152
89397
89593
89802
90047
90238
90433
90643
90700
90903
91103
91286
91321
91526
91739
91944
92149
92362
92555
92593
92762
92974
93125
93376
93576
93785
93820
93999
94037
94193
94402
94428
94601
94639
94792
94995
95165
95418
95628
95832
96032
96199
96421
96451
96616
96809
97002
97210
97417
97626
97830
98026
98227
98428
98631
98826
99008
99043
99203
99406
99618
99652
99822
1.0003e+05
1.0022e+05
1.0042e+05
1.0062e+05
1.0081e+05
1.01e+05
1.0119e+05
1.0123e+05
1.0138e+05
1.0159e+05
1.0179e+05
1.0182e+05
1.02e+05
1.0219e+05
1.0238e+05
1.0257e+05
1.0277e+05
1.0296e+05
1.0315e+05
1.0334e+05
1.0353e+05
1.0373e+05
1.0391e+05
1.0413e+05
1.0433e+05
1.0453e+05
1.0473e+05
1.0477e+05
1.0493e+05
1.0512e+05
1.0531e+05
1.0549e+05
1.0553e+05
1.0569e+05
1.0572e+05
1.0589e+05
1.0609e+05
1.063e+05
1.065e+05
1.0669e+05
1.0689e+05
1.0708e+05
1.0727e+05
1.0742e+05
1.0762e+05
1.0765e+05
1.0781e+05
1.0802e+05
1.0822e+05
1.0825e+05
1.0842e+05
1.0862e+05
1.0881e+05
1.0901e+05
1.092e+05
1.0924e+05
1.094e+05
1.0959e+05
1.0977e+05
1.101e+05
1.1031e+05
1.1052e+05
1.1073e+05
1.1093e+05
1.1112e+05
1.1131e+05
1.115e+05
1.1169e+05
1.1188e+05
1.1206e+05
1.1226e+05
1.1246e+05
1.1262e+05
1.1283e+05
1.1303e+05
1.1323e+05
1.1342e+05
1.1362e+05
1.1381e+05
1.14e+05
1.1418e+05
1.1421e+05
1.1437e+05
1.1457e+05
1.1477e+05
1.1498e+05
1.1518e+05
1.1522e+05
1.1538e+05
1.1542e+05
1.1558e+05
1.1578e+05
1.1597e+05
1.1616e+05
1.1635e+05
1.1656e+05
1.1677e+05
1.1698e+05
1.1718e+05
1.1739e+05
1.1759e+05
1.1779e+05
1.18e+05
1.1816e+05
1.1839e+05
1.1843e+05
1.1859e+05
1.188e+05
1.19e+05
1.1922e+05
1.1943e+05
1.1964e+05
1.1968e+05
1.1985e+05
1.2005e+05
1.2024e+05
1.2044e+05
1.2047e+05
1.2063e+05
1.2067e+05
1.2084e+05
1.2104e+05
1.2126e+05
1.2147e+05
1.2167e+05
1.2187e+05
1.2206e+05
1.224e+05
1.2265e+05
1.2283e+05
1.2287e+05
1.2303e+05
1.2322e+05
1.2344e+05
1.2365e+05
1.2384e+05
1.2405e+05
1.2421e+05
1.2444e+05
1.2463e+05
1.2483e+05
1.2516e+05
1.2519e+05
1.2538e+05
1.2559e+05
1.2563e+05
1.258e+05
1.2585e+05
1.2597e+05
1.2614e+05
1.2619e+05
1.2636e+05
1.2655e+05
1.2659e+05
1.2694e+05
1.2714e+05
1.2733e+05
1.2754e+05
1.2775e+05
1.2791e+05
1.2795e+05
1.2815e+05
1.2834e+05
1.2855e+05
1.2887e+05
1.2911e+05
1.2929e+05
1.2948e+05
1.2968e+05
1.2972e+05
1.2989e+05
1.3009e+05
1.3014e+05
1.3032e+05
1.3035e+05
1.305e+05
1.3067e+05
1.309e+05
1.3093e+05
1.3108e+05
1.3112e+05
1.3128e+05
1.3131e+05
1.3147e+05
1.3166e+05
1.3188e+05
1.3207e+05
1.3228e+05
1.3248e+05
1.3268e+05
1.3287e+05
1.3303e+05
1.3326e+05
1.3329e+05
1.3346e+05
1.3348e+05
1.3364e+05
1.3384e+05
1.3404e+05
1.3425e+05
1.3443e+05
1.3446e+05
1.3465e+05
1.3469e+05
1.3486e+05
1.3506e+05
1.3526e+05
1.3529e+05
1.3544e+05
1.3561e+05
1.3582e+05
1.3601e+05
1.3624e+05
1.3665e+05
1.3686e+05
1.3689e+05
1.3705e+05
1.3708e+05
1.3724e+05
1.3744e+05
1.3764e+05
1.3783e+05
1.3798e+05
1.3821e+05
1.384e+05
1.3861e+05
1.3877e+05
1.3896e+05
1.3918e+05
1.3958e+05
1.3961e+05
1.3976e+05
1.3996e+05
1.4014e+05
1.4034e+05
1.4054e+05
1.4075e+05
1.4077e+05
1.4095e+05
1.4115e+05
1.4119e+05
1.4134e+05
1.415e+05
1.4172e+05
1.4191e+05
1.4194e+05
1.4211e+05
1.4229e+05
1.4244e+05
1.4269e+05
1.429e+05
1.431e+05
1.433e+05
1.4351e+05
1.4371e+05
1.4391e+05
1.4409e+05
1.4429e+05
1.4449e+05
1.4469e+05
1.449e+05
1.4511e+05
1.4532e+05
1.4553e+05
1.4573e+05
1.4593e+05
1.4613e+05
1.4633e+05
1.4653e+05
1.4674e+05
1.4696e+05
1.4718e+05
1.4739e+05
1.4743e+05
1.4761e+05
1.4783e+05
1.4804e+05
1.4846e+05
1.4932e+05
1.4954e+05
1.4977e+05
1.5019e+05
1.506e+05
1.5101e+05
1.5124e+05
1.5147e+05
1.5182e+05
1.5222e+05
1.5262e+05
1.5277e+05
1.5385e+05
1.5415e+05
1.5428e+05
1.5554e+05
1.5577e+05
1.5606e+05
1.5627e+05
1.5649e+05
1.5671e+05
1.5759e+05
1.5782e+05
1.5806e+05
1.5877e+05
1.59e+05
1.5919e+05
1.5965e+05
1.5989e+05
1.6013e+05
1.6037e+05
1.606e+05
1.6083e+05
1.6105e+05
1.6128e+05
1.615e+05
1.6196e+05
1.6219e+05
1.6242e+05
1.6267e+05
1.629e+05
1.6314e+05
1.6337e+05
1.6383e+05
1.6405e+05
1.6429e+05
1.6454e+05
1.6479e+05
1.6503e+05
1.6526e+05
1.6549e+05
1.6594e+05
1.6617e+05
1.6641e+05
1.6689e+05
1.6712e+05
1.6735e+05
1.6759e+05
1.6827e+05
1.6876e+05
1.688e+05
1.6923e+05
1.7061e+05
1.7086e+05
1.711e+05
1.7134e+05
1.7157e+05
1.718e+05
1.7225e+05
1.7247e+05
1.727e+05
1.7294e+05
1.7318e+05
1.7342e+05
1.7366e+05
1.7389e+05
1.7406e+05
1.7433e+05
1.7478e+05
1.7501e+05
1.7525e+05
1.7549e+05
1.7572e+05
1.7595e+05
1.7617e+05
1.7636e+05
1.7663e+05
1.7708e+05
1.7731e+05
1.7754e+05
1.7824e+05
1.7847e+05
1.7892e+05
1.7914e+05
1.7938e+05
1.801e+05
1.8078e+05
1.8097e+05
1.8122e+05
1.8144e+05
1.8191e+05
1.8213e+05
1.8236e+05
1.8276e+05
1.829e+05
1.8311e+05
1.8338e+05
1.8386e+05
1.8456e+05
1.8613e+05
1.8728e+05
1.882e+05
1.8843e+05
1.8868e+05
1.8891e+05
1.8914e+05
1.8935e+05
1.8958e+05
1.9026e+05
1.9051e+05
1.9074e+05
1.9097e+05
1.912e+05
1.9142e+05
1.9165e+05
1.9188e+05
1.9191e+05
1.9211e+05
1.9234e+05
1.9258e+05
1.9283e+05
1.9306e+05
1.9353e+05
1.9376e+05
1.9444e+05
1.9469e+05
1.9493e+05
1.9516e+05
1.9539e+05
1.9583e+05
1.9607e+05
1.9652e+05
1.9676e+05
1.9681e+05
1.97e+05
1.9723e+05
1.9746e+05
1.975e+05
1.9769e+05
1.9792e+05
1.9815e+05
1.9836e+05
1.989e+05
1.992e+05
1.9944e+05
1.9964e+05
2.0008e+05
2.0035e+05
2.0101e+05
2.0172e+05
2.0199e+05
2.0307e+05
2.0458e+05
2.051e+05
2.0836e+05
2.0922e+05
2.0936e+05
2.0956e+05
2.1007e+05
2.1596e+05
2.1666e+05
2.1796e+05
2.1813e+05
2.1893e+05
2.1907e+05
2.191e+05
2.2054e+05
2.2336e+05
2.2351e+05
2.2365e+05
2.2651e+05
2.3878e+05
2.39e+05
2.3918e+05
2.3943e+05
2.3965e+05
2.3989e+05
2.4011e+05
2.4031e+05
2.4057e+05
2.4061e+05
2.4079e+05
2.4101e+05
2.4123e+05
2.4146e+05
2.4167e+05
2.4189e+05
2.4211e+05
2.4234e+05
2.4256e+05
2.4278e+05
2.43e+05
2.4322e+05
2.4342e+05
2.4364e+05
2.4385e+05
2.4406e+05
2.4429e+05
2.4453e+05
2.4476e+05
2.452e+05
2.4542e+05
2.4564e+05
2.4587e+05
2.463e+05
2.4652e+05
2.4676e+05
2.4721e+05
2.4744e+05
2.4766e+05
2.4788e+05
2.483e+05
2.4854e+05
2.4877e+05
2.4901e+05
2.4923e+05
2.4945e+05
2.4967e+05
2.5011e+05
2.5032e+05
2.5055e+05
2.5124e+05
2.5146e+05
2.5168e+05
2.5213e+05
2.5234e+05
2.5256e+05
2.5278e+05
2.5325e+05
2.5348e+05
2.5371e+05
2.5393e+05
2.5415e+05
2.5437e+05
2.5571e+05
2.559e+05
2.5659e+05
2.5697e+05
2.5724e+05
2.5747e+05
2.5771e+05
2.5794e+05
2.5816e+05
2.5838e+05
2.5903e+05
2.5926e+05
2.595e+05
2.5973e+05
2.5996e+05
2.6018e+05
2.6041e+05
2.6063e+05
2.6107e+05
2.613e+05
2.6154e+05
2.6201e+05
2.6224e+05
2.6247e+05
2.627e+05
2.6292e+05
2.6312e+05
2.6359e+05
2.6384e+05
2.6421e+05
2.6438e+05
2.6459e+05
2.6473e+05
2.6499e+05
2.6529e+05
2.6598e+05
2.6611e+05
2.6829e+05
2.6845e+05
2.6883e+05
2.6935e+05
2.6948e+05
2.6963e+05
2.7126e+05
2.7186e+05
2.7226e+05
2.7273e+05
2.7384e+05
2.7684e+05
2.7702e+05
2.7748e+05
2.777e+05
2.779e+05
2.783e+05
2.785e+05
2.7872e+05
2.7894e+05
2.7931e+05
2.7955e+05
2.7976e+05
2.8018e+05
2.8034e+05
2.8058e+05
2.808e+05
2.8104e+05
2.8128e+05
2.8152e+05
2.8175e+05
2.8218e+05
2.8243e+05
2.8266e+05
2.8288e+05
2.8335e+05
2.8359e+05
2.8382e+05
2.8405e+05
2.8472e+05
2.8493e+05
2.8509e+05
2.8531e+05
2.8562e+05
2.8591e+05
2.8616e+05
2.863e+05
2.8646e+05
2.8657e+05
2.8671e+05
2.8766e+05
2.878e+05
2.8794e+05
2.8811e+05
2.8825e+05
2.885e+05
2.886e+05
2.8876e+05
2.8965e+05
2.8987e+05
2.905e+05
2.9072e+05
2.9095e+05
2.9139e+05
2.9231e+05
2.9253e+05
2.9277e+05
2.9299e+05
2.9343e+05
2.9365e+05
2.9389e+05
2.9412e+05
2.9503e+05
2.9524e+05
2.9547e+05
2.966e+05
2.9683e+05
2.9706e+05
2.9728e+05
2.9793e+05
2.9816e+05
2.9841e+05
2.9865e+05
2.9888e+05
2.9911e+05
2.9933e+05
2.9956e+05
2.9978e+05
3.0001e+05
3.0024e+05
3.0048e+05
3.0072e+05
3.0096e+05
3.0118e+05
3.0142e+05
3.0165e+05
3.0185e+05
3.0209e+05
3.0232e+05
3.0257e+05
3.0281e+05
3.0306e+05
3.0329e+05
3.0352e+05
3.0375e+05
3.0396e+05
3.0422e+05
3.0445e+05
3.0469e+05
3.0474e+05
3.0493e+05
3.0516e+05
3.0522e+05
3.0538e+05
3.0561e+05
3.0584e+05
3.0606e+05
3.063e+05
3.0653e+05
3.0672e+05
3.0675e+05
3.0696e+05
3.07e+05
3.0718e+05
3.0721e+05
3.0766e+05
3.0789e+05
3.0792e+05
3.081e+05
3.0853e+05
3.0875e+05
3.0898e+05
3.0921e+05
3.0945e+05
3.0967e+05
3.0988e+05
3.1011e+05
3.1032e+05
3.1048e+05
3.105e+05
3.1068e+05
3.1084e+05
3.1124e+05
3.1137e+05
3.1151e+05
3.1182e+05
3.1193e+05
3.1209e+05
3.122e+05
3.1237e+05
3.125e+05
3.1264e+05
3.1283e+05
3.1309e+05
3.133e+05
3.1353e+05
3.1375e+05
3.1397e+05
3.1418e+05
3.1439e+05
3.1459e+05
3.148e+05
3.1502e+05
3.1522e+05
3.1544e+05
3.1566e+05
3.1588e+05
3.1611e+05
3.1633e+05
3.1655e+05
3.1677e+05
3.168e+05
3.1698e+05
3.1717e+05
3.1739e+05
3.1761e+05
3.1785e+05
3.1807e+05
3.183e+05
3.1853e+05
3.1874e+05
3.1896e+05
3.1916e+05
3.1939e+05
3.1962e+05
3.1965e+05
3.1984e+05
3.2007e+05
3.2024e+05
3.2051e+05
3.2071e+05
3.2073e+05
3.2096e+05
3.2114e+05
3.2118e+05
3.2139e+05
3.2158e+05
3.2181e+05
3.2184e+05
3.2204e+05
3.2227e+05
3.225e+05
3.2272e+05
3.2277e+05
3.2295e+05
3.2316e+05
3.2338e+05
3.236e+05
3.2381e+05
3.2402e+05
3.2426e+05
3.2449e+05
3.2472e+05
3.2493e+05
3.2513e+05
3.2536e+05
3.2558e+05
3.2579e+05
3.2599e+05
3.2621e+05
3.2644e+05
3.2665e+05
3.2688e+05
3.2709e+05
3.273e+05
3.2751e+05
3.2772e+05
3.2792e+05
3.2813e+05
3.2835e+05
3.2857e+05
3.2881e+05
3.2904e+05
3.2926e+05
3.2948e+05
3.297e+05
3.2995e+05
3.3014e+05
3.3037e+05
3.306e+05
3.3079e+05
3.3106e+05
3.3129e+05
3.3153e+05
3.3176e+05
3.3198e+05
3.3221e+05
3.3242e+05
3.3246e+05
3.3265e+05
3.3283e+05
3.3312e+05
3.3316e+05
3.3335e+05
3.3357e+05
3.3379e+05
3.3401e+05
3.3423e+05
3.3445e+05
3.3466e+05
3.3488e+05
3.3513e+05
3.3535e+05
3.3558e+05
3.358e+05
3.3603e+05
3.3626e+05
3.3648e+05
3.3669e+05
3.3692e+05
3.3716e+05
3.374e+05
3.3764e+05
3.3787e+05
3.3809e+05
3.3831e+05
3.3853e+05
3.387e+05
3.3895e+05
3.3918e+05
3.3942e+05
3.3965e+05
3.3988e+05
3.4011e+05
3.4032e+05
3.4055e+05
3.4077e+05
3.4099e+05
3.412e+05
3.4143e+05
3.4167e+05
3.4191e+05
3.4214e+05
3.4237e+05
3.4258e+05
3.4282e+05
3.4304e+05
3.4326e+05
3.435e+05
3.4368e+05
3.4398e+05
3.4422e+05
3.4446e+05
3.4469e+05
3.4492e+05
3.4516e+05
3.4539e+05
3.4562e+05
3.4586e+05
3.461e+05
3.4633e+05
3.4654e+05
3.4679e+05
3.4701e+05
3.4723e+05
3.4745e+05
3.4761e+05
3.4789e+05
3.4814e+05
3.4839e+05
3.4857e+05
3.4883e+05
3.4906e+05
3.491e+05
3.4951e+05
3.4972e+05
3.4996e+05
3.5021e+05
3.5069e+05
3.5093e+05
3.5163e+05
3.5209e+05
3.5232e+05
3.5257e+05
3.5282e+05
3.5305e+05
3.5329e+05
3.5351e+05
3.5375e+05
3.5396e+05
3.542e+05
3.5444e+05
3.5467e+05
3.549e+05
3.5513e+05
3.5535e+05
3.5557e+05
3.5576e+05
3.5602e+05
3.5623e+05
3.5646e+05
3.567e+05
3.5695e+05
3.5719e+05
3.5743e+05
3.5766e+05
3.5789e+05
3.5812e+05
3.5834e+05
3.5858e+05
3.5884e+05
3.5909e+05
3.5934e+05
3.5954e+05
3.5981e+05
3.6005e+05
3.6029e+05
3.6069e+05
3.6097e+05
3.6121e+05
3.6214e+05
3.6236e+05
3.6258e+05
3.628e+05
3.6304e+05
3.6328e+05
3.6352e+05
3.6374e+05
3.6397e+05
3.6488e+05
3.6536e+05
3.656e+05
3.6608e+05
3.6677e+05
3.6681e+05
3.6721e+05
3.6745e+05
3.6769e+05
3.6794e+05
3.6812e+05
3.686e+05
3.6906e+05
3.6952e+05
3.6975e+05
3.6978e+05
3.6998e+05
3.7044e+05
3.7089e+05
3.711e+05
3.7116e+05
3.7155e+05
3.7157e+05
3.7177e+05
3.7201e+05
3.7229e+05
3.7292e+05
3.7295e+05
3.7314e+05
3.7358e+05
3.7362e+05
3.7428e+05
3.7432e+05
3.7451e+05
3.7473e+05
3.7515e+05
3.7522e+05
3.7538e+05
3.7627e+05
3.7672e+05
3.7695e+05
3.7717e+05
3.7739e+05
3.776e+05
3.801e+05
3.81e+05
3.8125e+05
3.8128e+05
3.8148e+05
3.8152e+05
3.8192e+05
3.8236e+05
3.826e+05
3.8329e+05
3.8351e+05
3.8417e+05
3.8529e+05
3.9726e+05
3.9755e+05
3.98e+05
3.9823e+05
3.984e+05
3.9862e+05
3.9932e+05
3.9996e+05
4.0019e+05
4.0065e+05
4.0178e+05
4.0202e+05
4.0226e+05
4.0249e+05
4.0289e+05
4.0312e+05
4.0315e+05
4.0359e+05
4.0373e+05
4.042e+05
4.0625e+05
4.0715e+05
4.0783e+05
4.0898e+05
4.0966e+05
4.0988e+05
4.2331e+05
4.2741e+05
4.3723e+05
4.3746e+05
4.3769e+05
4.3791e+05
4.3795e+05
4.3815e+05
4.3836e+05
4.386e+05
4.3883e+05
4.3905e+05
4.393e+05
4.3953e+05
4.3976e+05
4.3999e+05
4.4022e+05
4.4043e+05
4.4067e+05
4.4091e+05
4.4106e+05
4.4109e+05
4.4137e+05
4.4161e+05
4.418e+05
4.4182e+05
4.4204e+05
4.4227e+05
4.4248e+05
4.427e+05
4.429e+05
4.4311e+05
4.4339e+05
4.4362e+05
4.4384e+05
4.4407e+05
4.443e+05
4.4452e+05
4.4473e+05
4.4495e+05
4.4519e+05
4.4542e+05
4.4565e+05
4.4588e+05
4.4611e+05
4.4614e+05
4.4633e+05
4.4654e+05
4.4676e+05
4.4697e+05
4.4721e+05
4.4744e+05
4.4767e+05
4.479e+05
4.4812e+05
4.4835e+05
4.4857e+05
4.4875e+05
4.4901e+05
4.4923e+05
4.4946e+05
4.4969e+05
4.4992e+05
4.5015e+05
4.5037e+05
4.506e+05
4.5081e+05
4.5103e+05
4.5124e+05
4.5146e+05
4.517e+05
4.5193e+05
4.5216e+05
4.5239e+05
4.5261e+05
4.5283e+05
4.5305e+05
4.5327e+05
4.5349e+05
4.5368e+05
4.5394e+05
4.5417e+05
4.544e+05
4.5463e+05
4.5485e+05
4.5507e+05
4.5529e+05
4.555e+05
4.5573e+05
4.5596e+05
4.562e+05
4.5644e+05
4.5666e+05
4.5689e+05
4.5711e+05
4.5714e+05
4.5732e+05
4.5755e+05
4.5777e+05
4.58e+05
4.5824e+05
4.5847e+05
4.587e+05
4.5893e+05
4.5916e+05
4.5938e+05
4.596e+05
4.5981e+05
4.6003e+05
4.6026e+05
4.6049e+05
4.6072e+05
4.6094e+05
4.611e+05
4.6134e+05
4.6155e+05
4.6178e+05
4.6199e+05
4.6221e+05
4.6244e+05
4.6266e+05
4.6289e+05
4.6312e+05
4.6334e+05
4.6357e+05
4.6379e+05
4.6402e+05
4.6424e+05
4.6447e+05
4.647e+05
4.6495e+05
4.6514e+05
4.6541e+05
4.6564e+05
4.6587e+05
4.6609e+05
4.6631e+05
4.6654e+05
4.6677e+05
4.6701e+05
4.6723e+05
4.6747e+05
4.677e+05
4.6792e+05
4.6815e+05
4.6837e+05
4.6858e+05
4.6881e+05
4.6906e+05
4.6929e+05
4.6953e+05
4.697e+05
4.6999e+05
4.7021e+05
4.7043e+05
4.7065e+05
4.7088e+05
4.7113e+05
4.7136e+05
4.7159e+05
4.7182e+05
4.7204e+05
4.7227e+05
4.725e+05
4.7272e+05
4.7295e+05
4.7318e+05
4.7342e+05
4.7366e+05
4.739e+05
4.7414e+05
4.7433e+05
4.7459e+05
4.7481e+05
4.7503e+05
4.7526e+05
4.755e+05
4.7574e+05
4.7599e+05
4.7621e+05
4.7644e+05
4.7667e+05
4.7689e+05
4.7711e+05
4.7734e+05
4.7757e+05
4.7781e+05
4.7804e+05
4.7827e+05
4.785e+05
4.7869e+05
4.7895e+05
4.7917e+05
4.7939e+05
4.7956e+05
4.7984e+05
4.8009e+05
4.8033e+05
4.8055e+05
4.8077e+05
4.81e+05
4.8123e+05
4.8144e+05
4.8167e+05
4.8191e+05
4.8214e+05
4.8237e+05
4.8259e+05
4.8282e+05
4.8305e+05
4.8328e+05
4.835e+05
4.8371e+05
4.8395e+05
4.8418e+05
4.8442e+05
4.8466e+05
4.849e+05
4.8513e+05
4.8536e+05
4.8559e+05
4.858e+05
4.8604e+05
4.8628e+05
4.8652e+05
4.8676e+05
4.8699e+05
4.8722e+05
4.8744e+05
4.8767e+05
4.8789e+05
4.8812e+05
4.8836e+05
4.886e+05
4.8884e+05
4.8908e+05
4.8932e+05
4.8955e+05
4.896e+05
4.8977e+05
4.8999e+05
4.9021e+05
4.9044e+05
4.9068e+05
4.9093e+05
4.9117e+05
4.914e+05
4.9163e+05
4.9183e+05
4.9209e+05
4.9231e+05
4.9255e+05
4.9279e+05
4.9302e+05
4.9326e+05
4.9349e+05
4.9373e+05
4.9396e+05
4.9418e+05
4.944e+05
4.9462e+05
4.9486e+05
4.9511e+05
4.9535e+05
4.9557e+05
4.958e+05
4.9603e+05
4.9625e+05
4.9709e+05
4.9868e+05
5.0733e+05
5.0734e+05
5.334e+05
5.3647e+05
5.3669e+05
5.3692e+05
5.3715e+05
5.3737e+05
5.3758e+05
5.3781e+05
5.3804e+05
5.3828e+05
5.3852e+05
5.3875e+05
5.3897e+05
5.392e+05
5.3942e+05
5.3964e+05
5.3987e+05
5.4011e+05
5.4035e+05
5.4058e+05
5.4082e+05
5.4102e+05
5.4127e+05
5.415e+05
5.4188e+05
5.424e+05
5.4264e+05
5.4288e+05
5.4311e+05
5.4334e+05
5.4357e+05
5.4379e+05
5.4401e+05
5.4423e+05
5.4446e+05
5.4471e+05
5.4494e+05
5.4517e+05
5.454e+05
5.4563e+05
5.4581e+05
5.4607e+05
5.4629e+05
5.4652e+05
5.4676e+05
5.47e+05
5.4724e+05
5.4748e+05
5.4771e+05
5.4809e+05
5.4811e+05
5.4838e+05
5.4862e+05
5.4886e+05
5.491e+05
5.4935e+05
5.4957e+05
5.4995e+05
5.5026e+05
5.503e+05
5.5048e+05
5.5064e+05
5.5086e+05
5.5096e+05
5.5145e+05
5.516e+05
5.5178e+05
5.518e+05
5.52e+05
5.5207e+05
5.5229e+05
5.5232e+05
5.5251e+05
5.5273e+05
5.5296e+05
5.5334e+05
5.5365e+05
5.5388e+05
5.5425e+05
5.5455e+05
5.5477e+05
5.5499e+05
5.5522e+05
5.5526e+05
5.5542e+05
5.5585e+05
5.5654e+05
5.5753e+05
5.5793e+05
5.5847e+05
5.5869e+05
5.5905e+05
5.5936e+05
5.596e+05
5.5984e+05
5.5992e+05
5.6052e+05
5.6075e+05
5.6098e+05
5.6102e+05
5.6164e+05
5.6188e+05
5.6212e+05
5.6216e+05
5.6236e+05
5.626e+05
5.6283e+05
5.64e+05
5.647e+05
5.6583e+05
5.6606e+05
5.6623e+05
5.6674e+05
5.6698e+05
5.672e+05
5.6743e+05
5.681e+05
5.6832e+05
5.6858e+05
5.6882e+05
5.6904e+05
5.6928e+05
5.695e+05
5.6996e+05
5.7018e+05
5.7042e+05
5.7065e+05
5.7088e+05
5.7112e+05
5.7135e+05
5.7158e+05
5.7225e+05
5.7248e+05
5.7272e+05
5.7342e+05
5.7364e+05
5.7454e+05
5.7478e+05
5.757e+05
5.7594e+05
5.7616e+05
5.7639e+05
5.7684e+05
5.7687e+05
5.7753e+05
5.7758e+05
5.7775e+05
5.7792e+05
5.7814e+05
5.7858e+05
5.786e+05
5.7924e+05
5.7929e+05
5.797e+05
5.8036e+05
5.8057e+05
5.8078e+05
5.841e+05
5.8432e+05
5.8562e+05
5.8585e+05
5.8652e+05
5.8694e+05
5.8761e+05
5.8786e+05
5.879e+05
5.8832e+05
5.9032e+05
5.9053e+05
5.9058e+05
5.9076e+05
5.912e+05
5.9142e+05
5.9205e+05
5.9275e+05
5.9278e+05
5.936e+05
5.9365e+05
5.9382e+05
5.9427e+05
5.9473e+05
5.959e+05
5.9616e+05
5.9646e+05
5.965e+05
5.9676e+05
5.9698e+05
5.9725e+05
5.9787e+05
5.99e+05
5.9934e+05
6.0168e+05
6.0423e+05
6.0624e+05
6.0653e+05
6.0674e+05
6.0695e+05
6.0735e+05
6.078e+05
6.1018e+05
6.1261e+05
6.178e+05
6.1932e+05
6.1945e+05
6.1988e+05
6.252e+05
6.3272e+05
6.3591e+05
6.3614e+05
6.3637e+05
6.3659e+05
6.3683e+05
6.3704e+05
6.3729e+05
6.3753e+05
6.3757e+05
6.3776e+05
6.38e+05
6.3823e+05
6.3847e+05
6.387e+05
6.3893e+05
6.3915e+05
6.3939e+05
6.3957e+05
6.3986e+05
6.401e+05
6.4034e+05
6.4058e+05
6.4081e+05
6.4104e+05
6.4126e+05
6.415e+05
6.4175e+05
6.42e+05
6.4225e+05
6.4249e+05
6.4269e+05
6.4274e+05
6.4296e+05
6.4319e+05
6.4341e+05
6.4365e+05
6.4389e+05
6.4412e+05
6.4436e+05
6.4455e+05
6.4482e+05
6.4504e+05
6.4527e+05
6.4543e+05
6.4568e+05
6.4572e+05
6.4616e+05
6.464e+05
6.4665e+05
6.4688e+05
6.4711e+05
6.4734e+05
6.4752e+05
6.4779e+05
6.4803e+05
6.4827e+05
6.4852e+05
6.4876e+05
6.4899e+05
6.4923e+05
