798
1506
1764
1953
2441
2701
2899
3184
3426
3607
3788
4088
4294
5793
6002
6886
7102
7372
7778
8054
8318
8592
8828
9049
9361
9627
10203
10440
10695
11332
11610
12332
12416
12708
13404
13637
13916
14396
14606
14866
15134
15566
15816
16081
16297
16773
17211
17471
17658
17985
18462
18931
19071
19298
20208
20456
20616
20947
21569
21794
22569
22806
23392
23630
24138
24647
24923
25132
25316
25764
26046
26720
27055
27294
28011
28544
28808
29593
29832
30122
31378
31582
31855
32293
33021
33292
33561
33822
34043
34553
34730
35023
35631
35848
36107
36586
36836
37541
37817
38306
38534
39016
39262
39789
39984
40709
40931
41215
41493
41767
41987
42228
42393
42886
43073
43487
43708
44082
44998
45932
46169
46375
46614
46808
47289
47495
47775
48257
48458
48762
49443
49946
50216
50762
51009
51750
52002
52303
52864
53128
53617
54455
54709
54933
55197
55482
55748
55997
56525
56816
57080
57793
58290
58518
58794
59009
59545
59808
60297
60970
61227
61478
61697
61965
62178
62646
62916
63127
63386
63658
63911
64170
64393
64721
64961
65184
65463
65736
66237
66565
66760
67046
67290
67518
67773
68042
68286
68517
68737
69007
69252
69446
69698
69971
70205
70468
70741
70966
71203
71465
72725
72972
73150
73354
73889
75601
76130
76391
76636
77295
77743
78458
79650
79904
80147
80834
81117
81333
81605
81810
82032
82310
82571
82836
83079
83330
83579
83842
84001
84240
84477
84737
84991
85248
85499
85745
86012
86238
86442
86668
87070
87292
87609
87824
88065
88327
88554
88808
89026
89843
90073
90331
90775
91065
91789
92065
92337
92751
93331
93823
94147
94440
94633
95500
95788
96041
96736
97030
97279
97521
97768
98316
99027
99317
99570
99830
1.001e+05
1.005e+05
1.0078e+05
1.0097e+05
1.0146e+05
1.0163e+05
1.0191e+05
1.0365e+05
1.0472e+05
1.0496e+05
1.0542e+05
1.057e+05
1.0595e+05
1.0646e+05
1.0819e+05
1.1585e+05
1.3921e+05
1.3943e+05
1.3972e+05
1.3996e+05
1.4018e+05
1.405e+05
1.4077e+05
1.4104e+05
1.4129e+05
1.4157e+05
1.4187e+05
1.4235e+05
1.433e+05
1.4361e+05
1.439e+05
1.4412e+05
1.4485e+05
1.4508e+05
1.4534e+05
1.4585e+05
1.4614e+05
1.4697e+05
1.4717e+05
1.4776e+05
1.4804e+05
1.4873e+05
1.4895e+05
1.4918e+05
1.495e+05
1.4978e+05
1.5051e+05
1.5078e+05
1.5096e+05
1.514e+05
1.5302e+05
1.5323e+05
1.5344e+05
1.537e+05
1.54e+05
1.5423e+05
1.5449e+05
1.5472e+05
1.556e+05
1.5583e+05
1.5611e+05
1.5636e+05
1.5664e+05
1.5689e+05
1.5713e+05
1.5732e+05
1.5778e+05
1.5915e+05
1.5941e+05
1.5969e+05
1.6012e+05
1.6065e+05
1.6093e+05
1.6142e+05
1.6164e+05
1.6189e+05
1.621e+05
1.6236e+05
1.6265e+05
1.6327e+05
1.6353e+05
1.638e+05
1.644e+05
1.6468e+05
1.6494e+05
1.6523e+05
1.6565e+05
1.6586e+05
1.6643e+05
1.6662e+05
1.6685e+05
1.6756e+05
1.6815e+05
1.6837e+05
1.6862e+05
1.689e+05
1.7041e+05
1.7107e+05
1.7153e+05
1.7178e+05
1.7205e+05
1.7232e+05
1.7253e+05
1.7271e+05
1.7298e+05
1.7378e+05
1.7476e+05
1.7505e+05
1.7533e+05
1.7554e+05
1.761e+05
1.7631e+05
1.7691e+05
1.7789e+05
1.7867e+05
1.7944e+05
1.8013e+05
1.8063e+05
1.8091e+05
1.8116e+05
1.8235e+05
1.8263e+05
1.8315e+05
1.8363e+05
1.8436e+05
1.8465e+05
1.8502e+05
1.8641e+05
1.8667e+05
1.8714e+05
1.8736e+05
1.8759e+05
1.8782e+05
1.8805e+05
1.8834e+05
1.8885e+05
1.8912e+05
1.8939e+05
1.8961e+05
1.9015e+05
1.9036e+05
1.9063e+05
1.9086e+05
1.9114e+05
1.9142e+05
1.9171e+05
1.9199e+05
1.9218e+05
1.9246e+05
1.9274e+05
1.9298e+05
1.9349e+05
1.9374e+05
1.9393e+05
1.9486e+05
1.9512e+05
1.9559e+05
1.9586e+05
1.9607e+05
1.9626e+05
1.9654e+05
1.968e+05
1.9755e+05
1.9804e+05
1.9874e+05
1.9896e+05
2.0045e+05
2.0069e+05
2.0204e+05
2.1941e+05
2.3149e+05
2.385e+05
2.3872e+05
2.3897e+05
2.4085e+05
2.4309e+05
2.4359e+05
2.4406e+05
2.4435e+05
2.4452e+05
2.4483e+05
2.4505e+05
2.4529e+05
2.4554e+05
2.4622e+05
2.4786e+05
2.4859e+05
2.4944e+05
2.4994e+05
2.5042e+05
2.5064e+05
2.5114e+05
2.5139e+05
2.5194e+05
2.5243e+05
2.5388e+05
2.5413e+05
2.561e+05
2.5639e+05
2.5735e+05
2.5758e+05
2.5786e+05
2.5856e+05
2.5906e+05
2.5933e+05
2.5978e+05
2.5998e+05
2.6098e+05
2.6143e+05
2.6247e+05
2.647e+05
2.6495e+05
2.6558e+05
2.6646e+05
2.6664e+05
2.6716e+05
2.6775e+05
2.6856e+05
2.698e+05
2.7031e+05
2.7135e+05
2.7203e+05
2.7273e+05
2.7414e+05
2.7438e+05
2.7466e+05
2.7699e+05
2.7724e+05
2.7745e+05
2.7816e+05
2.8068e+05
2.8263e+05
2.8289e+05
2.8311e+05
2.8335e+05
2.8415e+05
2.85e+05
2.8524e+05
2.8546e+05
2.8624e+05
2.865e+05
2.8701e+05
2.8756e+05
2.8779e+05
2.8804e+05
2.887e+05
2.8955e+05
2.9034e+05
2.9058e+05
2.9077e+05
2.9109e+05
2.9186e+05
2.9239e+05
2.9298e+05
2.9324e+05
2.9342e+05
2.937e+05
2.9394e+05
2.9421e+05
2.9443e+05
2.955e+05
2.9594e+05
2.9748e+05
3.2603e+05
3.9781e+05
3.991e+05
4.0034e+05
4.0124e+05
4.1847e+05
4.3634e+05
4.3709e+05
4.3759e+05
4.378e+05
4.3808e+05
4.3832e+05
4.3861e+05
4.3884e+05
4.3905e+05
4.3965e+05
4.3987e+05
4.4011e+05
4.407e+05
4.4096e+05
4.412e+05
4.4149e+05
4.4171e+05
4.4226e+05
4.4297e+05
4.4343e+05
4.4368e+05
4.4392e+05
4.4421e+05
4.4446e+05
4.4469e+05
4.451e+05
4.4567e+05
4.4611e+05
4.4675e+05
4.4693e+05
4.4715e+05
4.4766e+05
4.4791e+05
4.4816e+05
4.4848e+05
4.4872e+05
4.4901e+05
4.4926e+05
4.4944e+05
4.4976e+05
4.5001e+05
4.5029e+05
4.5054e+05
4.5143e+05
4.5166e+05
4.5187e+05
4.5213e+05
4.5238e+05
4.5266e+05
4.5313e+05
4.5386e+05
4.5418e+05
4.544e+05
4.549e+05
4.5513e+05
4.5539e+05
4.5604e+05
4.5668e+05
4.569e+05
4.5717e+05
4.5738e+05
4.5806e+05
4.5828e+05
4.5851e+05
4.5876e+05
4.5899e+05
4.592e+05
4.5946e+05
4.5965e+05
4.5987e+05
4.6008e+05
4.6051e+05
4.6072e+05
4.612e+05
4.622e+05
4.6248e+05
4.6289e+05
4.6362e+05
4.6391e+05
4.6416e+05
4.644e+05
4.6471e+05
4.65e+05
4.6526e+05
4.6577e+05
4.6604e+05
4.663e+05
4.665e+05
4.667e+05
4.6695e+05
4.6741e+05
4.6767e+05
4.6834e+05
4.6856e+05
4.6878e+05
4.691e+05
4.6937e+05
4.6966e+05
4.702e+05
4.7039e+05
4.7063e+05
4.7102e+05
4.7129e+05
4.7149e+05
4.7181e+05
4.7216e+05
4.7236e+05
4.7256e+05
4.7301e+05
4.7346e+05
4.7366e+05
4.74e+05
4.742e+05
4.7444e+05
4.7489e+05
4.756e+05
4.7611e+05
4.7636e+05
4.7657e+05
4.7789e+05
4.7842e+05
4.7863e+05
4.789e+05
4.7934e+05
4.796e+05
4.8061e+05
4.8122e+05
4.8207e+05
4.8494e+05
4.8574e+05
4.86e+05
4.8623e+05
4.872e+05
4.8771e+05
4.8796e+05
4.8871e+05
4.8895e+05
4.8919e+05
4.8945e+05
4.8973e+05
4.9e+05
4.9018e+05
4.9043e+05
4.907e+05
4.9095e+05
4.9126e+05
4.9184e+05
4.9211e+05
4.9238e+05
4.9296e+05
4.9345e+05
4.9376e+05
4.9402e+05
4.9423e+05
4.9467e+05
4.9495e+05
4.9513e+05
4.9581e+05
4.9614e+05
4.967e+05
4.9793e+05
5.1219e+05
5.1549e+05
5.2477e+05
5.3646e+05
5.3675e+05
5.3697e+05
5.3723e+05
5.375e+05
5.3775e+05
5.3803e+05
5.3826e+05
5.3855e+05
5.3877e+05
5.3925e+05
5.3952e+05
5.3975e+05
5.4004e+05
5.4025e+05
5.4049e+05
5.4072e+05
5.4098e+05
5.4125e+05
5.4155e+05
5.4176e+05
5.4196e+05
5.4219e+05
5.4246e+05
5.4283e+05
5.4309e+05
5.4331e+05
5.4355e+05
5.4379e+05
5.4405e+05
5.4461e+05
5.4532e+05
5.4557e+05
5.4582e+05
5.4605e+05
5.4636e+05
5.4666e+05
5.469e+05
5.4718e+05
5.4746e+05
5.4773e+05
5.4792e+05
5.482e+05
5.4844e+05
5.4872e+05
5.4897e+05
5.4917e+05
5.4944e+05
5.4983e+05
5.501e+05
5.5035e+05
5.5117e+05
5.5147e+05
5.5176e+05
5.5202e+05
5.5248e+05
5.5282e+05
5.5304e+05
5.533e+05
5.5358e+05
5.5377e+05
5.5404e+05
5.5434e+05
5.5462e+05
5.5487e+05
5.5509e+05
5.5534e+05
5.5566e+05
5.5594e+05
5.5622e+05
5.5644e+05
5.5671e+05
5.5699e+05
5.5751e+05
5.5847e+05
5.595e+05
5.6011e+05
5.6089e+05
5.6117e+05
5.6188e+05
5.6291e+05
5.6366e+05
5.639e+05
5.6412e+05
5.6441e+05
5.6463e+05
5.6484e+05
5.6509e+05
5.6531e+05
5.6636e+05
5.6667e+05
5.6691e+05
5.6718e+05
5.6738e+05
5.6759e+05
5.678e+05
5.6819e+05
5.6848e+05
5.691e+05
5.6934e+05
5.6957e+05
5.6983e+05
5.7009e+05
5.7033e+05
5.7055e+05
5.708e+05
5.7107e+05
5.7134e+05
5.7156e+05
5.7184e+05
5.7241e+05
5.734e+05
5.7458e+05
5.7483e+05
5.7503e+05
5.7624e+05
5.7672e+05
5.7697e+05
5.7804e+05
5.7879e+05
5.7944e+05
5.7996e+05
5.8016e+05
5.807e+05
5.8086e+05
5.8107e+05
5.8133e+05
5.816e+05
5.8187e+05
5.8283e+05
5.8307e+05
5.8369e+05
5.8396e+05
5.8448e+05
5.8496e+05
5.8516e+05
5.8546e+05
5.8564e+05
5.8594e+05
5.8665e+05
5.869e+05
5.8718e+05
5.8742e+05
5.8763e+05
5.8784e+05
5.8805e+05
5.8835e+05
5.8881e+05
5.8949e+05
5.9037e+05
5.9057e+05
5.9085e+05
5.9107e+05
5.9152e+05
5.9184e+05
5.9203e+05
5.9229e+05
5.9273e+05
5.9294e+05
5.932e+05
5.9351e+05
5.9376e+05
5.9402e+05
5.9426e+05
5.9457e+05
5.948e+05
5.9504e+05
5.9645e+05
5.9683e+05
5.9719e+05
5.9779e+05
5.9863e+05
6.0325e+05
6.0841e+05
6.0895e+05
6.1516e+05
6.3274e+05
6.3422e+05
6.3575e+05
6.3604e+05
6.3623e+05
6.3652e+05
6.3675e+05
6.3728e+05
6.3776e+05
6.3797e+05
6.3832e+05
6.385e+05
6.3877e+05
6.393e+05
6.3951e+05
6.3977e+05
6.4026e+05
6.4047e+05
6.4073e+05
6.4099e+05
6.412e+05
6.417e+05
6.4223e+05
6.4245e+05
6.427e+05
6.4328e+05
6.4375e+05
6.4396e+05
6.4421e+05
6.4477e+05
6.4494e+05
6.4525e+05
6.4551e+05
6.4575e+05
6.4595e+05
6.4621e+05
6.4641e+05
6.4674e+05
6.4691e+05
6.4719e+05
6.4745e+05
6.4793e+05
6.4819e+05
6.487e+05
6.489e+05
6.4915e+05
6.4969e+05
-1
314
517
708
920
1200
1416
1650
1696
1916
2139
2352
2620
2853
3109
3351
3515
3560
3730
3915
4200
4257
4428
4505
4706
4884
4948
5175
5256
5478
5698
5880
5954
6234
6428
6594
6808
6851
7004
7048
7246
7287
7478
7674
7711
7974
8188
8458
8497
8724
8933
8976
9153
9236
9462
9560
9732
10000
10365
10625
11150
11542
11720
11799
11982
12063
12278
12585
12913
13113
13308
13555
13833
14042
14314
14497
14785
15054
15232
15307
15515
15692
15751
15934
16243
16460
16723
16898
17046
17357
17573
17622
17894
18118
18154
18372
18568
18649
18858
19401
19606
19677
19816
20099
20139
20322
20751
21111
21291
21493
21695
21729
21946
22206
22406
22455
22681
22717
22940
22976
23294
23509
23550
23795
24066
24252
24548
24757
24801
25027
25064
25236
25450
25603
25954
26164
26411
26634
26836
26915
27164
27246
27417
27463
27675
27926
28158
28233
28445
28722
28996
29193
29271
29469
29540
29757
30030
30316
30564
30805
31027
31209
31473
31695
31735
32040
32201
32245
32441
32606
32657
32859
33141
33223
33394
33668
33749
33930
33968
34253
34480
34659
34691
34852
34936
35184
35446
35760
36033
36276
36521
36696
36775
36987
37236
37376
37460
37745
37922
38016
38192
38235
38479
38652
38737
38906
38948
39128
39168
39399
39446
39611
39887
40212
40393
40432
40638
40882
41143
41355
41407
41683
41882
41918
42157
42354
42537
42788
43023
43228
43402
43437
43600
43654
43855
44257
44491
44638
44822
45104
45277
45749
46097
46287
46515
46722
46763
46928
47226
47450
47652
47888
47935
48154
48208
48371
48596
48893
48936
49138
49182
49365
49576
49725
49770
50046
50105
50413
50687
50874
50912
51178
51383
51920
52135
52229
52426
52515
52734
52975
53059
53273
53538
53719
53794
54017
54098
54366
54658
54891
55051
55353
55673
55849
55939
56173
56361
56447
56725
56932
57022
57261
57481
57716
57974
58191
58419
58456
58628
58676
58895
58940
59124
59173
59453
59498
59710
59930
60016
60191
60226
60407
60814
60876
61136
61396
61590
61641
61901
62131
62307
62351
62592
62821
63036
63087
63321
63536
63581
63824
64063
64334
64583
64817
64901
65108
65349
65589
65630
65863
65948
66145
66725
67135
67222
67444
67622
67683
68462
68630
68664
68934
69156
69193
69366
69642
69887
70134
70594
70635
70855
70893
71074
71155
71336
71382
71631
71775
72136
72299
72678
72893
73114
73277
73558
73836
74068
74303
74351
74591
74892
75184
75324
75551
75730
76074
76273
76503
76586
76797
77005
77208
77405
77449
77642
77894
78083
78157
78328
78383
78575
78886
79049
79228
79262
79542
79579
79832
80013
80091
80271
80311
80660
81038
81299
81475
81740
81988
82509
82768
82782
82974
83221
83509
83766
83794
83975
84116
84433
84602
84836
84896
85167
85403
85956
86192
86406
86620
86827
86880
87231
87512
87776
87976
88014
88209
88248
88503
88684
88755
88973
89204
89372
89415
89651
89701
89944
90031
90258
90421
90645
90721
90965
91238
91480
91709
91900
91942
92261
92642
92873
93068
93467
93736
93774
94044
94309
94544
94584
94821
95146
95410
95701
95905
95990
96159
96205
96447
96525
97208
97402
97684
97888
97977
98127
98205
98451
98484
98689
98927
99193
1.0003e+05
1.0027e+05
1.0073e+05
1.0117e+05
1.0136e+05
1.0162e+05
1.0181e+05
1.0211e+05
1.0231e+05
1.0386e+05
1.0519e+05
1.0616e+05
1.0661e+05
1.0838e+05
1.16e+05
1.2908e+05
1.3937e+05
1.396e+05
1.3965e+05
1.3989e+05
1.4008e+05
1.4012e+05
1.403e+05
1.4037e+05
1.406e+05
1.4069e+05
1.4088e+05
1.4121e+05
1.4149e+05
1.4177e+05
1.4197e+05
1.4204e+05
1.423e+05
1.4251e+05
1.4273e+05
1.4298e+05
1.4318e+05
1.4321e+05
1.435e+05
1.4379e+05
1.4404e+05
1.443e+05
1.4457e+05
1.4477e+05
1.4503e+05
1.4525e+05
1.4555e+05
1.4605e+05
1.4625e+05
1.465e+05
1.4668e+05
1.4675e+05
1.4693e+05
1.4713e+05
1.4731e+05
1.4735e+05
1.4789e+05
1.4816e+05
1.4821e+05
1.4843e+05
1.4865e+05
1.4883e+05
1.4888e+05
1.4908e+05
1.4936e+05
1.4968e+05
1.4989e+05
1.4994e+05
1.501e+05
1.5015e+05
1.5043e+05
1.5062e+05
1.5092e+05
1.5108e+05
1.5113e+05
1.5129e+05
1.5158e+05
1.5272e+05
1.5316e+05
1.5336e+05
1.5362e+05
1.5382e+05
1.5387e+05
1.5416e+05
1.5444e+05
1.5466e+05
1.5483e+05
1.5488e+05
1.5512e+05
1.5576e+05
1.5603e+05
1.5622e+05
1.5627e+05
1.5652e+05
1.5656e+05
1.5675e+05
1.5684e+05
1.5705e+05
1.5727e+05
1.5752e+05
1.5773e+05
1.5788e+05
1.5809e+05
1.5817e+05
1.5867e+05
1.5932e+05
1.5959e+05
1.5985e+05
1.6004e+05
1.6029e+05
1.6049e+05
1.6057e+05
1.6077e+05
1.6085e+05
1.611e+05
1.6135e+05
1.6153e+05
1.6157e+05
1.6181e+05
1.6202e+05
1.6228e+05
1.6256e+05
1.6284e+05
1.6342e+05
1.6346e+05
1.6371e+05
1.6398e+05
1.6456e+05
1.6485e+05
1.6514e+05
1.6534e+05
1.6538e+05
1.6554e+05
1.6559e+05
1.6575e+05
1.6579e+05
1.6604e+05
1.6651e+05
1.6674e+05
1.6694e+05
1.6768e+05
1.6774e+05
1.6831e+05
1.6855e+05
1.6881e+05
1.6907e+05
1.6956e+05
1.706e+05
1.7117e+05
1.7125e+05
1.7165e+05
1.717e+05
1.7193e+05
1.722e+05
1.7246e+05
1.7267e+05
1.7292e+05
1.7309e+05
1.7317e+05
1.734e+05
1.739e+05
1.7398e+05
1.7497e+05
1.7522e+05
1.7543e+05
1.7547e+05
1.7571e+05
1.7605e+05
1.7627e+05
1.7652e+05
1.7672e+05
1.7703e+05
1.7725e+05
1.7804e+05
1.7808e+05
1.7828e+05
1.7837e+05
1.7859e+05
1.7885e+05
1.7898e+05
1.7906e+05
1.8025e+05
1.8052e+05
1.8055e+05
1.8079e+05
1.8101e+05
1.8109e+05
1.8131e+05
1.815e+05
1.8174e+05
1.8199e+05
1.8229e+05
1.8258e+05
1.8285e+05
1.8308e+05
1.8325e+05
1.833e+05
1.8354e+05
1.838e+05
1.84e+05
1.8407e+05
1.8451e+05
1.846e+05
1.8478e+05
1.8483e+05
1.8519e+05
1.8561e+05
1.863e+05
1.8658e+05
1.8678e+05
1.8686e+05
1.8709e+05
1.8726e+05
1.8751e+05
1.877e+05
1.8774e+05
1.8795e+05
1.8799e+05
1.8826e+05
1.8844e+05
1.885e+05
1.8896e+05
1.8904e+05
1.8927e+05
1.8931e+05
1.895e+05
1.898e+05
1.9031e+05
1.9049e+05
1.9054e+05
1.9074e+05
1.9078e+05
1.9106e+05
1.9126e+05
1.9134e+05
1.916e+05
1.9189e+05
1.9214e+05
1.9239e+05
1.9257e+05
1.926e+05
1.9283e+05
1.929e+05
1.9315e+05
1.9319e+05
1.9341e+05
1.9366e+05
1.9388e+05
1.941e+05
1.9505e+05
1.9523e+05
1.9528e+05
1.9552e+05
1.9579e+05
1.9601e+05
1.962e+05
1.9639e+05
1.9646e+05
1.9664e+05
1.9672e+05
1.9691e+05
1.9695e+05
1.9718e+05
1.9722e+05
1.9749e+05
1.9773e+05
1.9818e+05
1.9835e+05
1.989e+05
1.9921e+05
2.0092e+05
2.0129e+05
2.0224e+05
2.1687e+05
2.1961e+05
2.3178e+05
2.3861e+05
2.3887e+05
2.3891e+05
2.3928e+05
2.4098e+05
2.4104e+05
2.4143e+05
2.4176e+05
2.4196e+05
2.4202e+05
2.4224e+05
2.4269e+05
2.4289e+05
2.4299e+05
2.432e+05
2.4326e+05
2.4347e+05
2.4351e+05
2.4375e+05
2.4395e+05
2.4417e+05
2.4423e+05
2.4448e+05
2.4472e+05
2.4494e+05
2.4502e+05
2.4519e+05
2.4524e+05
2.4544e+05
2.4571e+05
2.4593e+05
2.4635e+05
2.4663e+05
2.4689e+05
2.4724e+05
2.4747e+05
2.478e+05
2.4805e+05
2.4833e+05
2.4868e+05
2.4878e+05
2.4901e+05
2.4926e+05
2.4933e+05
2.4954e+05
2.4983e+05
2.5003e+05
2.5013e+05
2.5028e+05
2.5058e+05
2.5082e+05
2.5107e+05
2.5134e+05
2.5163e+05
2.5186e+05
2.5205e+05
2.521e+05
2.5236e+05
2.5253e+05
2.5259e+05
2.5277e+05
2.531e+05
2.5326e+05
2.5335e+05
2.5358e+05
2.5382e+05
2.5397e+05
2.5404e+05
2.5424e+05
2.5431e+05
2.5454e+05
2.5475e+05
2.5503e+05
2.552e+05
2.5602e+05
2.565e+05
2.5656e+05
2.5683e+05
2.57e+05
2.5727e+05
2.5748e+05
2.5754e+05
2.5772e+05
2.5777e+05
2.5796e+05
2.5801e+05
2.5851e+05
2.5871e+05
2.5875e+05
2.5893e+05
2.5924e+05
2.5949e+05
2.5992e+05
2.6012e+05
2.6017e+05
2.6069e+05
2.6112e+05
2.6164e+05
2.6178e+05
2.6182e+05
2.62e+05
2.6205e+05
2.6228e+05
2.6259e+05
2.6265e+05
2.6351e+05
2.6481e+05
2.6488e+05
2.6507e+05
2.6531e+05
2.6577e+05
2.6661e+05
2.6683e+05
2.6728e+05
2.6732e+05
2.679e+05
2.6845e+05
2.685e+05
2.6872e+05
2.6926e+05
2.6952e+05
2.6969e+05
2.6993e+05
2.6998e+05
2.7023e+05
2.7041e+05
2.7062e+05
2.7149e+05
2.7172e+05
2.7195e+05
2.722e+05
2.7242e+05
2.7266e+05
2.7287e+05
2.7309e+05
2.7315e+05
2.7369e+05
2.7427e+05
2.743e+05
2.7457e+05
2.7482e+05
2.7486e+05
2.7514e+05
2.7537e+05
2.7563e+05
2.7589e+05
2.7594e+05
2.7615e+05
2.7637e+05
2.7665e+05
2.7719e+05
2.7742e+05
2.7759e+05
2.7809e+05
2.7826e+05
2.7852e+05
2.7878e+05
2.7928e+05
2.795e+05
2.8087e+05
2.8235e+05
2.8282e+05
2.8303e+05
2.8329e+05
2.8351e+05
2.8435e+05
2.8518e+05
2.854e+05
2.8559e+05
2.8563e+05
2.8637e+05
2.864e+05
2.8667e+05
2.8717e+05
2.8767e+05
2.879e+05
2.8799e+05
2.8816e+05
2.8843e+05
2.8881e+05
2.8885e+05
2.8972e+05
2.9046e+05
2.905e+05
2.9073e+05
2.909e+05
2.9094e+05
2.9124e+05
2.9198e+05
2.9202e+05
2.9257e+05
2.9309e+05
2.9317e+05
2.9334e+05
2.9338e+05
2.9363e+05
2.9385e+05
2.9388e+05
2.9406e+05
2.941e+05
2.9434e+05
2.9438e+05
2.946e+05
2.9483e+05
2.9487e+05
2.9566e+05
2.9613e+05
2.9669e+05
2.9764e+05
2.982e+05
2.9824e+05
2.9843e+05
2.9867e+05
2.9896e+05
2.9898e+05
2.9954e+05
2.998e+05
3.0007e+05
3.0027e+05
3.0033e+05
3.0057e+05
3.0078e+05
3.0082e+05
3.0104e+05
3.0124e+05
3.0128e+05
3.0155e+05
3.0174e+05
3.0182e+05
3.02e+05
3.0208e+05
3.023e+05
3.0253e+05
3.0256e+05
3.0279e+05
3.0298e+05
3.0315e+05
3.0345e+05
3.035e+05
3.0368e+05
3.0401e+05
3.0409e+05
3.0428e+05
3.0447e+05
3.0451e+05
3.0477e+05
3.0501e+05
3.0505e+05
3.0524e+05
3.0532e+05
3.0554e+05
3.0573e+05
3.0581e+05
3.0688e+05
3.0714e+05
3.0733e+05
3.0738e+05
3.0764e+05
3.0792e+05
3.0817e+05
3.0844e+05
3.0865e+05
3.0896e+05
3.0913e+05
3.092e+05
3.0939e+05
3.0943e+05
3.0971e+05
3.0994e+05
3.102e+05
3.1043e+05
3.1046e+05
3.1073e+05
3.1099e+05
3.114e+05
3.1201e+05
3.1222e+05
3.1245e+05
3.1267e+05
3.127e+05
3.1295e+05
3.1313e+05
3.1322e+05
3.1339e+05
3.1342e+05
3.1368e+05
3.1394e+05
3.1423e+05
3.145e+05
3.1473e+05
3.1489e+05
3.1498e+05
3.1515e+05
3.1519e+05
3.1543e+05
3.1561e+05
3.1568e+05
3.1591e+05
3.1609e+05
3.164e+05
3.1679e+05
3.1701e+05
3.1726e+05
3.1753e+05
3.1757e+05
3.1781e+05
3.18e+05
3.1827e+05
3.1847e+05
3.1873e+05
3.1901e+05
3.192e+05
3.1924e+05
3.195e+05
3.1974e+05
3.1999e+05
3.2026e+05
3.2045e+05
3.2049e+05
3.2078e+05
3.2101e+05
3.2104e+05
3.2124e+05
3.2146e+05
3.2176e+05
3.2194e+05
3.2198e+05
3.2222e+05
3.2255e+05
3.2257e+05
3.2274e+05
3.2296e+05
3.23e+05
3.2326e+05
3.2358e+05
3.2384e+05
3.2386e+05
3.2405e+05
3.2427e+05
3.243e+05
3.2448e+05
3.2497e+05
3.25e+05
3.2522e+05
3.2551e+05
3.2571e+05
3.2596e+05
3.2614e+05
3.2635e+05
3.2644e+05
3.2665e+05
3.2683e+05
3.2714e+05
3.2739e+05
3.2762e+05
3.2781e+05
3.2785e+05
3.2807e+05
3.2811e+05
3.2833e+05
3.2863e+05
3.2893e+05
3.2914e+05
3.2922e+05
3.2939e+05
3.2943e+05
3.2961e+05
3.2991e+05
3.3012e+05
3.3032e+05
3.3053e+05
3.3078e+05
3.31e+05
3.3123e+05
3.3151e+05
3.3178e+05
3.3195e+05
3.32e+05
3.3221e+05
3.3225e+05
3.3251e+05
3.3272e+05
3.3294e+05
3.3301e+05
3.3323e+05
3.3348e+05
3.3366e+05
3.3396e+05
3.3417e+05
3.3468e+05
3.3495e+05
3.3531e+05
3.3553e+05
3.358e+05
3.3609e+05
3.3627e+05
3.3636e+05
3.3652e+05
3.3656e+05
3.3681e+05
3.3706e+05
3.3749e+05
3.3767e+05
3.3771e+05
3.3802e+05
3.3821e+05
3.383e+05
3.3853e+05
3.387e+05
3.3878e+05
3.3898e+05
3.3924e+05
3.3948e+05
3.3999e+05
3.4025e+05
3.4048e+05
3.4086e+05
3.4089e+05
3.4111e+05
3.4133e+05
3.4151e+05
3.4154e+05
3.4176e+05
3.4203e+05
3.4222e+05
3.4252e+05
3.4273e+05
3.429e+05
3.4294e+05
3.432e+05
3.4348e+05
3.4352e+05
3.4375e+05
3.4393e+05
3.4398e+05
3.4415e+05
3.4424e+05
3.4446e+05
3.4465e+05
3.4469e+05
3.4495e+05
3.4498e+05
3.4514e+05
3.4521e+05
3.4546e+05
3.4566e+05
3.4569e+05
3.4587e+05
3.4589e+05
3.4608e+05
3.4639e+05
3.4675e+05
3.4728e+05
3.4793e+05
3.4865e+05
3.491e+05
3.4997e+05
3.5045e+05
3.5127e+05
3.5149e+05
3.5196e+05
3.5216e+05
3.5224e+05
3.5246e+05
3.5272e+05
3.5303e+05
3.5306e+05
3.5327e+05
3.5328e+05
3.5345e+05
3.5349e+05
3.5376e+05
3.6677e+05
3.6727e+05
3.6789e+05
3.6831e+05
3.6835e+05
3.6906e+05
3.6949e+05
3.6997e+05
3.7731e+05
3.7801e+05
3.7807e+05
3.8994e+05
3.9068e+05
3.9185e+05
3.9288e+05
3.9338e+05
3.9397e+05
3.955e+05
3.976e+05
3.9773e+05
3.9795e+05
3.9831e+05
3.9868e+05
3.9929e+05
4.0058e+05
4.0157e+05
4.1863e+05
4.2829e+05
4.2833e+05
4.3664e+05
4.3725e+05
4.3745e+05
4.3774e+05
4.38e+05
4.3827e+05
4.3845e+05
4.3853e+05
4.3871e+05
4.3875e+05
4.39e+05
4.3921e+05
4.3952e+05
4.3977e+05
4.4006e+05
4.4027e+05
4.4049e+05
4.409e+05
4.4106e+05
4.4114e+05
4.4132e+05
4.4136e+05
4.4163e+05
4.4187e+05
4.4218e+05
4.4236e+05
4.4263e+05
4.4281e+05
4.4284e+05
4.431e+05
4.4334e+05
4.4338e+05
4.4359e+05
4.4387e+05
4.4405e+05
4.4409e+05
4.4436e+05
4.4462e+05
4.4487e+05
4.4502e+05
4.4527e+05
4.4578e+05
4.4582e+05
4.463e+05
4.4667e+05
4.4685e+05
4.4688e+05
4.4705e+05
4.4709e+05
4.4733e+05
4.4758e+05
4.4786e+05
4.4808e+05
4.4835e+05
4.4858e+05
4.4861e+05
4.4893e+05
4.4918e+05
4.494e+05
4.4963e+05
4.4991e+05
4.5014e+05
4.5019e+05
4.5047e+05
4.5064e+05
4.5068e+05
4.5094e+05
4.5161e+05
4.5178e+05
4.5182e+05
4.5208e+05
4.5231e+05
4.5257e+05
4.5286e+05
4.5307e+05
4.5334e+05
4.5353e+05
4.5381e+05
4.5407e+05
4.5434e+05
4.5462e+05
4.5502e+05
4.5506e+05
4.5524e+05
4.5563e+05
4.5618e+05
4.5622e+05
4.565e+05
4.5709e+05
4.5727e+05
4.5731e+05
4.5749e+05
4.5752e+05
4.5773e+05
4.5798e+05
4.5816e+05
4.5823e+05
4.5841e+05
4.5845e+05
4.5868e+05
4.5891e+05
4.5913e+05
4.5939e+05
4.596e+05
4.5978e+05
4.5982e+05
4.6003e+05
4.6024e+05
4.6061e+05
4.6082e+05
4.6086e+05
4.6115e+05
4.6135e+05
4.6143e+05
4.616e+05
4.6163e+05
4.6191e+05
4.6233e+05
4.6237e+05
4.6305e+05
4.633e+05
4.6333e+05
4.6357e+05
4.6384e+05
4.6409e+05
4.6436e+05
4.6457e+05
4.6484e+05
4.6488e+05
4.6517e+05
4.652e+05
4.6542e+05
4.6592e+05
4.6618e+05
4.6644e+05
4.6664e+05
4.6689e+05
4.6711e+05
4.6752e+05
4.6757e+05
4.6785e+05
4.6848e+05
4.6872e+05
4.6891e+05
4.6899e+05
4.692e+05
4.6924e+05
4.6949e+05
4.6959e+05
4.6981e+05
4.7008e+05
4.7034e+05
4.7052e+05
4.7077e+05
4.7121e+05
4.7139e+05
4.7144e+05
4.7166e+05
4.717e+05
4.7199e+05
4.7231e+05
4.7248e+05
4.7252e+05
4.7268e+05
4.7272e+05
4.7293e+05
4.7311e+05
4.7319e+05
4.734e+05
4.736e+05
4.7387e+05
4.7415e+05
4.7437e+05
4.7463e+05
4.7509e+05
4.7555e+05
4.7577e+05
4.7599e+05
4.7603e+05
4.7622e+05
4.763e+05
4.7652e+05
4.7673e+05
4.7717e+05
4.772e+05
4.78e+05
4.7803e+05
4.7836e+05
4.7858e+05
4.7884e+05
4.7905e+05
4.7953e+05
4.797e+05
4.7973e+05
4.7995e+05
4.7998e+05
4.8046e+05
4.8051e+05
4.8077e+05
4.8132e+05
4.8136e+05
4.8153e+05
4.8162e+05
4.8182e+05
4.8202e+05
4.8222e+05
4.8306e+05
4.8394e+05
4.8397e+05
4.8511e+05
4.8542e+05
4.8595e+05
4.8612e+05
4.8617e+05
4.8641e+05
4.8669e+05
4.8691e+05
4.8732e+05
4.8789e+05
4.8809e+05
4.8865e+05
4.8889e+05
4.8911e+05
4.8938e+05
4.8959e+05
4.8988e+05
4.9014e+05
4.9039e+05
4.9055e+05
4.9063e+05
4.9084e+05
4.9112e+05
4.9145e+05
4.9177e+05
4.9203e+05
4.923e+05
4.9251e+05
4.9318e+05
4.9359e+05
4.9368e+05
4.939e+05
4.9412e+05
4.9416e+05
4.9433e+05
4.9442e+05
4.9462e+05
4.9489e+05
4.9508e+05
4.953e+05
4.9562e+05
4.9596e+05
4.9624e+05
4.9633e+05
4.9687e+05
4.9823e+05
5.1256e+05
5.1582e+05
5.2489e+05
5.2498e+05
5.3667e+05
5.3686e+05
5.369e+05
5.3716e+05
5.3742e+05
5.3763e+05
5.3791e+05
5.3813e+05
5.3817e+05
5.3841e+05
5.3869e+05
5.3889e+05
5.392e+05
5.3943e+05
5.3947e+05
5.3967e+05
5.3994e+05
5.402e+05
5.4038e+05
5.4042e+05
5.4067e+05
5.409e+05
5.4116e+05
5.4136e+05
5.414e+05
5.4168e+05
5.4171e+05
5.4192e+05
5.421e+05
5.4237e+05
5.4259e+05
5.4302e+05
5.4324e+05
5.435e+05
5.4371e+05
5.4398e+05
5.4415e+05
5.4423e+05
5.4476e+05
5.4479e+05
5.4502e+05
5.455e+05
5.4576e+05
5.4597e+05
5.462e+05
5.4623e+05
5.4654e+05
5.4656e+05
5.4684e+05
5.4701e+05
5.471e+05
5.4729e+05
5.4734e+05
5.4757e+05
5.4766e+05
5.4787e+05
5.4813e+05
5.4839e+05
5.4865e+05
5.4882e+05
5.489e+05
5.4907e+05
5.4936e+05
5.4938e+05
5.4963e+05
5.5002e+05
5.5028e+05
5.5049e+05
5.5075e+05
5.5132e+05
5.5136e+05
5.5159e+05
5.5163e+05
5.5196e+05
5.5221e+05
5.5263e+05
5.5266e+05
5.5297e+05
5.5322e+05
5.5349e+05
5.537e+05
5.5394e+05
5.5417e+05
5.542e+05
5.5445e+05
5.5454e+05
5.5481e+05
5.5498e+05
5.5501e+05
5.5527e+05
5.5554e+05
5.5585e+05
5.5605e+05
5.5614e+05
5.5636e+05
5.5663e+05
5.5691e+05
5.5718e+05
5.5768e+05
5.5771e+05
5.5863e+05
5.5964e+05
5.6033e+05
5.6133e+05
5.6209e+05
5.6302e+05
5.6307e+05
5.6377e+05
5.6385e+05
5.6407e+05
5.6427e+05
5.6455e+05
5.6475e+05
5.6496e+05
5.65e+05
5.6525e+05
5.6547e+05
5.6568e+05
5.6602e+05
5.6653e+05
5.6656e+05
5.668e+05
5.6684e+05
5.6707e+05
5.6711e+05
5.6733e+05
5.675e+05
5.6754e+05
5.6774e+05
5.6796e+05
5.68e+05
5.6828e+05
5.6837e+05
5.6858e+05
5.6863e+05
5.6924e+05
5.695e+05
5.6976e+05
5.6997e+05
5.702e+05
5.7023e+05
5.7048e+05
5.7073e+05
5.7095e+05
5.7126e+05
5.7147e+05
5.715e+05
5.7172e+05
5.7203e+05
5.7259e+05
5.7355e+05
5.7446e+05
5.7467e+05
5.7475e+05
5.7492e+05
5.7514e+05
5.7523e+05
5.7616e+05
5.7643e+05
5.7658e+05
5.7689e+05
5.7709e+05
5.7715e+05
5.7729e+05
5.7767e+05
5.7796e+05
5.7822e+05
5.7839e+05
5.7864e+05
5.7869e+05
5.7896e+05
5.7917e+05
5.7936e+05
5.7965e+05
5.8011e+05
5.8029e+05
5.8052e+05
5.8058e+05
5.8078e+05
5.8098e+05
5.8126e+05
5.8154e+05
5.8178e+05
5.8203e+05
5.8222e+05
5.823e+05
5.8256e+05
5.8273e+05
5.8294e+05
5.8297e+05
5.8328e+05
5.8382e+05
5.8386e+05
5.8412e+05
5.8457e+05
5.8465e+05
5.8514e+05
5.8531e+05
5.8537e+05
5.8557e+05
5.8584e+05
5.8604e+05
5.8608e+05
5.8636e+05
5.8661e+05
5.8679e+05
5.8685e+05
5.8704e+05
5.871e+05
5.8729e+05
5.8734e+05
5.8756e+05
5.8778e+05
5.8797e+05
5.8817e+05
5.8821e+05
5.8853e+05
5.8855e+05
5.8892e+05
5.891e+05
5.894e+05
5.8969e+05
5.8996e+05
5.8997e+05
5.9047e+05
5.9072e+05
5.9077e+05
5.9095e+05
5.9101e+05
5.9125e+05
5.9145e+05
5.9171e+05
5.9195e+05
5.9198e+05
5.9215e+05
5.922e+05
5.9245e+05
5.929e+05
5.9305e+05
5.9314e+05
5.9339e+05
5.9362e+05
5.937e+05
5.9394e+05
5.9421e+05
5.9446e+05
5.9472e+05
5.9493e+05
5.9499e+05
5.9517e+05
5.9543e+05
5.955e+05
5.9628e+05
5.9659e+05
5.9676e+05
5.97e+05
5.9729e+05
5.9749e+05
5.9796e+05
6.0341e+05
6.0861e+05
6.091e+05
6.1534e+05
6.3305e+05
6.3334e+05
6.3437e+05
6.3586e+05
6.3618e+05
6.3641e+05
6.3665e+05
6.3706e+05
6.3758e+05
6.3787e+05
6.382e+05
6.384e+05
6.387e+05
6.3908e+05
6.3944e+05
6.3968e+05
6.4009e+05
6.4041e+05
6.4064e+05
6.4084e+05
6.4088e+05
6.4115e+05
6.4152e+05
6.4201e+05
6.4234e+05
6.4238e+05
6.4256e+05
6.4261e+05
6.4303e+05
6.4356e+05
6.4385e+05
6.4389e+05
6.4406e+05
6.4413e+05
6.4441e+05
6.4488e+05
6.4507e+05
6.4539e+05
6.4567e+05
6.4585e+05
6.4614e+05
6.463e+05
6.4656e+05
6.4666e+05
6.4684e+05
6.4704e+05
6.4712e+05
6.473e+05
6.4738e+05
6.4756e+05
6.4759e+05
6.4807e+05
6.4829e+05
6.4838e+05
6.4881e+05
6.4885e+05
6.4907e+05
6.4934e+05
6.4981e+05
