167
406
647
876
1116
1386
1652
1906
2138
2350
2560
2779
3000
3234
3493
3739
3979
4226
4468
4705
4928
5151
5390
5627
5866
6111
6348
6582
6807
7041
7285
7520
7761
8019
8279
8522
8757
9002
9233
9458
9691
9939
10182
10427
10666
10897
11123
11353
11588
11820
12045
12284
12522
12758
12996
13227
13453
13684
13922
14168
14416
14676
14931
15177
15410
15650
15892
16127
16365
16618
16876
17115
17366
17615
17852
18071
18295
18539
18786
19027
19252
19468
19680
19887
20101
20336
20579
20829
21070
21312
21553
21780
22002
22216
22450
22712
22974
23223
23470
23722
23965
24206
24440
24669
24917
25180
25431
25675
25929
26175
26406
26643
26890
27136
27385
27638
27889
28131
28368
28601
28836
29070
29300
29539
29779
30028
30266
30494
30725
30947
31174
31414
31669
31918
32152
32377
32598
32821
33040
33263
33493
33733
33969
34210
34449
34681
34909
35140
35377
35607
35848
36100
36578
36801
37022
37250
37483
37714
37959
38183
38407
38630
38855
39080
39300
39519
39759
40023
40294
40570
40833
41067
41290
41507
41722
41952
42214
42481
42730
42977
43203
43432
43659
43888
44143
44376
44625
44872
45117
45355
45576
45794
46016
46247
46485
46725
46962
47195
47418
47627
47864
48112
48353
48598
48839
49078
49315
49544
49760
49976
50189
50418
50668
50910
51155
51399
51642
51874
52106
52342
52561
52783
53008
53244
53479
53706
53934
54150
54365
54576
54796
55023
55251
55472
55691
55910
56124
56335
56537
56742
56939
57139
57343
57558
57781
58006
58230
58442
58649
58863
59083
59314
59536
59760
59984
60212
60433
60648
60861
61075
61293
61516
61744
61978
62214
62440
62664
62883
63101
63320
63549
63775
64007
64246
64476
64702
64926
65144
65360
65567
65788
66027
66267
66502
66735
66964
67183
67400
67631
67878
68123
68365
68610
68858
69098
69337
69584
69821
70056
70302
70553
70801
71048
71294
71533
71763
71997
72233
72467
72710
72959
73203
73442
73672
73896
74114
74333
74562
74801
75042
75290
75535
75768
75997
76221
76454
76695
76930
77168
77413
77645
77870
78096
78323
78548
78771
79004
79249
79490
79729
79963
80188
80413
80640
80866
81098
81334
81565
81796
82027
82248
82473
82701
82934
83157
83403
83659
83917
84159
84389
84618
84835
85052
85274
85509
85746
85982
86212
86442
86669
86898
87125
87363
87614
87857
88104
88354
88593
88818
89038
89257
89487
89722
89962
90204
90455
90693
90923
91156
91385
91620
91853
92094
92341
92589
92820
93051
93282
93511
93732
93962
94201
94444
94671
94904
95136
95354
95573
95802
96033
96266
96501
96739
96982
97214
97433
97648
97859
98074
98299
98528
98761
99005
99691
99916
1.0014e+05
1.0083e+05
1.0152e+05
1.0174e+05
1.0305e+05
1.0372e+05
1.0393e+05
1.0414e+05
1.0437e+05
1.0616e+05
1.0797e+05
1.1424e+05
1.1664e+05
1.2128e+05
1.2287e+05
1.231e+05
1.2689e+05
1.2751e+05
1.2915e+05
1.2941e+05
1.2986e+05
1.3425e+05
1.3592e+05
1.3636e+05
1.3679e+05
1.3936e+05
1.3956e+05
1.4077e+05
1.4477e+05
1.4545e+05
1.4571e+05
1.4736e+05
1.4758e+05
1.5466e+05
1.5581e+05
1.5614e+05
1.5955e+05
1.5978e+05
1.6082e+05
1.6308e+05
1.6354e+05
1.639e+05
1.6601e+05
1.6733e+05
1.6806e+05
1.6941e+05
1.7127e+05
1.7148e+05
1.717e+05
1.7193e+05
1.7219e+05
1.7376e+05
1.747e+05
1.7566e+05
1.7892e+05
1.7987e+05
1.8034e+05
1.8262e+05
1.8309e+05
1.8445e+05
1.8466e+05
1.8577e+05
1.8601e+05
1.8651e+05
1.8676e+05
1.8724e+05
1.8749e+05
1.8774e+05
1.8797e+05
1.8821e+05
1.8843e+05
1.8866e+05
1.8946e+05
1.8972e+05
1.8997e+05
1.9023e+05
2.1101e+05
2.1896e+05
2.2243e+05
2.2316e+05
2.3438e+05
2.3693e+05
2.3831e+05
2.5151e+05
2.768e+05
2.98e+05
2.9823e+05
2.9845e+05
2.9867e+05
2.989e+05
2.9913e+05
2.9938e+05
2.996e+05
2.9984e+05
3.0007e+05
3.003e+05
3.0052e+05
3.0075e+05
3.0097e+05
3.0119e+05
3.0142e+05
3.0166e+05
3.0189e+05
3.0213e+05
3.0236e+05
3.0257e+05
3.0279e+05
3.0301e+05
3.0323e+05
3.0347e+05
3.0373e+05
3.0399e+05
3.0422e+05
3.0445e+05
3.0467e+05
3.0489e+05
3.0511e+05
3.0532e+05
3.0556e+05
3.0581e+05
3.0607e+05
3.0633e+05
3.0658e+05
3.0683e+05
3.0706e+05
3.0729e+05
3.0752e+05
3.0776e+05
3.08e+05
3.0824e+05
3.0848e+05
3.0872e+05
3.0895e+05
3.0919e+05
3.0942e+05
3.0965e+05
3.0988e+05
3.1012e+05
3.1036e+05
3.106e+05
3.1084e+05
3.1107e+05
3.113e+05
3.1153e+05
3.1175e+05
3.1197e+05
3.1221e+05
3.1244e+05
3.1267e+05
3.129e+05
3.1314e+05
3.1336e+05
3.1358e+05
3.138e+05
3.1403e+05
3.1426e+05
3.1449e+05
3.1474e+05
3.1499e+05
3.1523e+05
3.1545e+05
3.1566e+05
3.1588e+05
3.161e+05
3.1633e+05
3.1656e+05
3.168e+05
3.1705e+05
3.1731e+05
3.1755e+05
3.1779e+05
3.1802e+05
3.1824e+05
3.1846e+05
3.1868e+05
3.1891e+05
3.1916e+05
3.194e+05
3.1964e+05
3.1985e+05
3.2007e+05
3.203e+05
3.2054e+05
3.2079e+05
3.2105e+05
3.213e+05
3.2154e+05
3.2177e+05
3.2201e+05
3.2225e+05
3.2249e+05
3.2273e+05
3.2297e+05
3.2321e+05
3.2344e+05
3.2367e+05
3.2391e+05
3.2414e+05
3.2436e+05
3.2458e+05
3.248e+05
3.2504e+05
3.253e+05
3.2556e+05
3.258e+05
3.2603e+05
3.2626e+05
3.2648e+05
3.2671e+05
3.2694e+05
3.2719e+05
3.2743e+05
3.2768e+05
3.2794e+05
3.2819e+05
3.2843e+05
3.2865e+05
3.2887e+05
3.291e+05
3.2934e+05
3.2959e+05
3.2985e+05
3.301e+05
3.3034e+05
3.3057e+05
3.308e+05
3.3102e+05
3.3124e+05
3.3147e+05
3.3171e+05
3.3197e+05
3.3223e+05
3.3249e+05
3.3272e+05
3.3295e+05
3.3318e+05
3.3341e+05
3.3365e+05
3.3389e+05
3.3412e+05
3.3435e+05
3.3459e+05
3.3481e+05
3.3504e+05
3.3527e+05
3.355e+05
3.3573e+05
3.3597e+05
3.3623e+05
3.365e+05
3.3675e+05
3.3698e+05
3.3721e+05
3.3743e+05
3.3764e+05
3.3786e+05
3.3808e+05
3.3831e+05
3.3854e+05
3.3878e+05
3.3903e+05
3.3929e+05
3.3953e+05
3.3976e+05
3.3999e+05
3.4023e+05
3.4047e+05
3.4072e+05
3.4097e+05
3.4122e+05
3.4144e+05
3.4166e+05
3.4188e+05
3.4212e+05
3.4236e+05
3.4261e+05
3.4286e+05
3.4311e+05
3.4336e+05
3.436e+05
3.4384e+05
3.4407e+05
3.443e+05
3.4452e+05
3.4475e+05
3.45e+05
3.4525e+05
3.455e+05
3.4574e+05
3.4597e+05
3.4621e+05
3.4645e+05
3.467e+05
3.4693e+05
3.4717e+05
3.4741e+05
3.4765e+05
3.4788e+05
3.481e+05
3.4833e+05
3.4858e+05
3.4884e+05
3.491e+05
3.4936e+05
3.4961e+05
3.4985e+05
3.5009e+05
3.5031e+05
3.5054e+05
3.5078e+05
3.5104e+05
3.5131e+05
3.5159e+05
3.5185e+05
3.5209e+05
3.5234e+05
3.5259e+05
3.5281e+05
3.5303e+05
3.5326e+05
3.5351e+05
3.5376e+05
3.5401e+05
3.5426e+05
3.5453e+05
3.548e+05
3.5506e+05
3.553e+05
3.5555e+05
3.5578e+05
3.5672e+05
3.5697e+05
3.5775e+05
3.5802e+05
3.5829e+05
3.5972e+05
3.602e+05
3.6141e+05
3.6166e+05
3.6191e+05
3.6216e+05
3.6243e+05
3.6339e+05
3.6409e+05
3.6433e+05
3.6458e+05
3.6505e+05
3.6527e+05
3.6551e+05
3.6576e+05
3.6599e+05
3.6622e+05
3.6646e+05
3.6669e+05
3.7171e+05
3.7195e+05
3.7219e+05
3.7426e+05
3.7543e+05
3.7569e+05
3.7701e+05
3.7909e+05
3.8029e+05
3.8094e+05
3.8297e+05
3.8319e+05
3.8365e+05
3.8389e+05
3.8413e+05
3.8437e+05
3.8462e+05
3.8705e+05
3.8728e+05
3.8797e+05
3.8821e+05
3.9253e+05
3.9276e+05
3.96e+05
3.9649e+05
3.9727e+05
3.9751e+05
3.9776e+05
3.9799e+05
3.9822e+05
3.9974e+05
3.9998e+05
4.0041e+05
4.0065e+05
4.009e+05
4.0139e+05
4.0165e+05
4.0237e+05
4.0453e+05
4.0522e+05
4.0595e+05
4.0736e+05
4.0761e+05
4.081e+05
4.0835e+05
4.0951e+05
4.1023e+05
4.1046e+05
4.1263e+05
4.1332e+05
4.143e+05
4.1549e+05
4.1646e+05
4.1671e+05
4.1816e+05
4.1932e+05
4.2145e+05
4.2325e+05
4.2347e+05
4.2392e+05
4.2416e+05
4.2561e+05
4.2584e+05
4.2774e+05
4.3208e+05
4.325e+05
4.3441e+05
4.3463e+05
4.3651e+05
4.3675e+05
4.3723e+05
4.3749e+05
4.3774e+05
4.38e+05
4.3825e+05
4.385e+05
4.3874e+05
4.3898e+05
4.3921e+05
4.3945e+05
4.3968e+05
4.3994e+05
4.402e+05
4.4045e+05
4.4069e+05
4.4093e+05
4.4117e+05
4.414e+05
4.4164e+05
4.4189e+05
4.4214e+05
4.4238e+05
4.4263e+05
4.4288e+05
4.4311e+05
4.4334e+05
4.4358e+05
4.4382e+05
4.4407e+05
4.4432e+05
4.4458e+05
4.4484e+05
4.4507e+05
4.4531e+05
4.4553e+05
4.4575e+05
4.4642e+05
4.4666e+05
4.469e+05
4.4736e+05
4.4758e+05
4.4781e+05
4.4827e+05
4.4852e+05
4.4878e+05
4.4902e+05
4.4926e+05
4.495e+05
4.4974e+05
4.502e+05
4.5044e+05
4.5068e+05
4.5093e+05
4.5117e+05
4.5141e+05
4.5188e+05
4.5259e+05
4.5283e+05
4.5423e+05
4.5447e+05
4.5471e+05
4.552e+05
4.5545e+05
4.5616e+05
4.571e+05
4.5759e+05
4.5876e+05
4.6019e+05
4.6041e+05
4.6064e+05
4.6298e+05
4.6321e+05
4.6346e+05
4.6394e+05
4.6419e+05
4.6467e+05
4.649e+05
4.6513e+05
4.6536e+05
4.6561e+05
4.6587e+05
4.6612e+05
4.6637e+05
4.6683e+05
4.6728e+05
4.6751e+05
4.6775e+05
4.68e+05
4.6824e+05
4.6849e+05
4.6875e+05
4.6922e+05
4.6946e+05
4.6969e+05
4.6993e+05
4.7018e+05
4.7043e+05
4.7069e+05
4.7093e+05
4.7116e+05
4.714e+05
4.7165e+05
4.7189e+05
4.7214e+05
4.724e+05
4.7265e+05
4.7289e+05
4.7361e+05
4.7483e+05
4.7532e+05
4.763e+05
4.7655e+05
4.7705e+05
4.773e+05
4.7754e+05
4.78e+05
4.7824e+05
4.7873e+05
4.7899e+05
4.7924e+05
4.7972e+05
4.7995e+05
4.8019e+05
4.8044e+05
4.8094e+05
4.8144e+05
4.8168e+05
4.8193e+05
4.8242e+05
4.8291e+05
4.8317e+05
4.8392e+05
4.8416e+05
4.8464e+05
4.8488e+05
4.859e+05
4.8765e+05
4.8892e+05
4.9016e+05
4.9065e+05
4.9116e+05
4.9142e+05
4.917e+05
4.9196e+05
4.9247e+05
4.9315e+05
4.9363e+05
4.947e+05
4.9489e+05
4.9585e+05
5.6595e+05
5.79e+05
6.3603e+05
6.3729e+05
-1
297
535
780
1009
1262
1528
1801
2037
2273
2477
2684
2908
3137
3367
3635
3876
4119
4364
4598
4835
5057
5284
5525
5769
6006
6246
6483
6710
6937
7174
7416
7656
7902
8155
8418
8654
8890
9130
9362
9588
9831
10082
10320
10562
10803
11025
11249
11486
11723
11951
12184
12421
12661
12894
13126
13356
13580
13811
14057
14309
14555
14813
15066
15305
15539
15783
16022
16260
16504
16758
17010
17249
17499
17742
17979
18200
18433
18680
18924
19166
19388
19597
19807
20018
20233
20470
20717
20967
21209
21451
21685
21913
22127
22342
22584
22845
23108
23359
23395
23604
23848
24091
24334
24567
24601
24798
25050
25315
25563
25595
25809
26056
26299
26529
26768
27022
27273
27310
27517
27775
28017
28257
28492
28729
28964
29199
29434
29671
29914
30163
30391
30620
30848
31073
31306
31549
31804
32056
32284
32504
32543
32723
32949
33169
33392
33626
33869
34101
34342
34581
34808
35034
35268
35505
35741
35775
35984
36238
36489
36708
36748
36926
36965
37147
37370
37405
37616
37648
37847
38090
38129
38322
38539
38577
38766
38992
39211
39433
39644
39893
40159
40189
40432
40465
40707
40749
40964
41197
41420
41629
41666
41850
42092
42361
42608
42885
43108
43327
43557
43786
43824
44022
44070
44269
44511
44766
44800
45012
45247
45480
45519
45702
45732
45920
46140
46176
46378
46622
46653
46857
47096
47141
47327
47533
47755
47992
48242
48483
48522
48728
48974
49215
49449
49673
49888
50100
50315
50548
50798
50841
51046
51287
51335
51529
51775
52001
52231
52467
52507
52689
52721
52911
53142
53380
53617
53839
53876
54062
54275
54313
54492
54701
54930
55162
55389
55609
55829
56048
56257
56464
56666
56871
57069
57270
57483
57697
57920
58146
58362
58571
58773
58991
59218
59448
59676
59894
60120
60349
60564
60777
60990
61201
61423
61648
61885
62118
62349
62573
62794
63010
63229
63453
63683
63914
64146
64383
64424
64612
64835
65057
65272
65486
65698
65923
66163
66408
66641
66870
67094
67309
67527
67763
68012
68263
68500
68748
68994
69229
69467
69714
69950
70187
70442
70694
70940
71185
71420
71660
71892
72128
72366
72607
72849
73095
73338
73575
73803
74024
74243
74468
74700
74937
75184
75429
75668
75900
76126
76352
76589
76831
77069
77306
77547
77780
78000
78223
78454
78676
78906
79140
79389
79632
79864
80090
80317
80542
80767
81002
81238
81474
81701
81932
82156
82381
82604
82833
83062
83299
83541
83792
84055
84295
84515
84748
84964
85184
85415
85646
85885
86118
86344
86572
86800
87027
87256
87498
87748
87996
88246
88488
88723
88944
89164
89390
89621
89860
90104
90343
90590
90828
91055
91285
91518
91753
91989
92236
92481
92724
92955
93180
93410
93639
93867
94102
94342
94580
94810
95040
95262
95484
95705
95931
96167
96403
96641
96881
97115
97346
97563
97774
97989
98209
98437
98668
98898
99141
99821
1.0004e+05
1.0027e+05
1.0096e+05
1.0165e+05
1.0187e+05
1.0319e+05
1.0385e+05
1.0406e+05
1.0427e+05
1.0449e+05
1.0629e+05
1.081e+05
1.0813e+05
1.1059e+05
1.1082e+05
1.1177e+05
1.1228e+05
1.1231e+05
1.1277e+05
1.1392e+05
1.1396e+05
1.1416e+05
1.1439e+05
1.1486e+05
1.1509e+05
1.1556e+05
1.1581e+05
1.1654e+05
1.1677e+05
1.1699e+05
1.1703e+05
1.1769e+05
1.1774e+05
1.1866e+05
1.187e+05
1.2024e+05
1.2049e+05
1.207e+05
1.2072e+05
1.2096e+05
1.2099e+05
1.2141e+05
1.2145e+05
1.2183e+05
1.2189e+05
1.2231e+05
1.2234e+05
1.2277e+05
1.2281e+05
1.2301e+05
1.2305e+05
1.2322e+05
1.2326e+05
1.2366e+05
1.2369e+05
1.2389e+05
1.2394e+05
1.2413e+05
1.2416e+05
1.2459e+05
1.2462e+05
1.2528e+05
1.2532e+05
1.2549e+05
1.2553e+05
1.2571e+05
1.2591e+05
1.2595e+05
1.2612e+05
1.2658e+05
1.2681e+05
1.2706e+05
1.2773e+05
1.2776e+05
1.2794e+05
1.2799e+05
1.2885e+05
1.2909e+05
1.2932e+05
1.2955e+05
1.2998e+05
1.3064e+05
1.3299e+05
1.3438e+05
1.3605e+05
1.3649e+05
1.3692e+05
1.3835e+05
1.3858e+05
1.3926e+05
1.395e+05
1.3954e+05
1.3973e+05
1.3998e+05
1.4023e+05
1.4045e+05
1.4049e+05
1.4068e+05
1.409e+05
1.4113e+05
1.4136e+05
1.416e+05
1.4185e+05
1.421e+05
1.4234e+05
1.4258e+05
1.4263e+05
1.4282e+05
1.4307e+05
1.433e+05
1.4334e+05
1.4353e+05
1.4376e+05
1.438e+05
1.4424e+05
1.4429e+05
1.4448e+05
1.447e+05
1.4492e+05
1.4537e+05
1.456e+05
1.4585e+05
1.4611e+05
1.4728e+05
1.475e+05
1.4753e+05
1.4773e+05
1.4797e+05
1.4821e+05
1.4845e+05
1.4849e+05
1.4869e+05
1.4873e+05
1.509e+05
1.5154e+05
1.516e+05
1.5241e+05
1.5262e+05
1.5266e+05
1.5306e+05
1.5311e+05
1.5329e+05
1.5351e+05
1.5371e+05
1.5376e+05
1.5456e+05
1.546e+05
1.548e+05
1.5484e+05
1.5504e+05
1.5528e+05
1.5532e+05
1.5594e+05
1.5635e+05
1.5699e+05
1.5721e+05
1.5725e+05
1.5788e+05
1.5792e+05
1.5854e+05
1.5876e+05
1.5923e+05
1.5926e+05
1.5946e+05
1.595e+05
1.5968e+05
1.5991e+05
1.6012e+05
1.6033e+05
1.6037e+05
1.6076e+05
1.6099e+05
1.6121e+05
1.6144e+05
1.6168e+05
1.6212e+05
1.6234e+05
1.6238e+05
1.6255e+05
1.6321e+05
1.6366e+05
1.6411e+05
1.6477e+05
1.6481e+05
1.6499e+05
1.6503e+05
1.6569e+05
1.6573e+05
1.6615e+05
1.6681e+05
1.6702e+05
1.6725e+05
1.6748e+05
1.6752e+05
1.6771e+05
1.6775e+05
1.6792e+05
1.68e+05
1.682e+05
1.6843e+05
1.691e+05
1.6914e+05
1.6932e+05
1.6955e+05
1.698e+05
1.7004e+05
1.7008e+05
1.7097e+05
1.7101e+05
1.7118e+05
1.7139e+05
1.7161e+05
1.7183e+05
1.7207e+05
1.7233e+05
1.7237e+05
1.7325e+05
1.733e+05
1.739e+05
1.7414e+05
1.7418e+05
1.7462e+05
1.7467e+05
1.7487e+05
1.7511e+05
1.7516e+05
1.7534e+05
1.7578e+05
1.7582e+05
1.7602e+05
1.7607e+05
1.7697e+05
1.7722e+05
1.7885e+05
1.7909e+05
1.7913e+05
1.7954e+05
1.7958e+05
1.7976e+05
1.8e+05
1.8023e+05
1.8048e+05
1.8051e+05
1.8073e+05
1.812e+05
1.8143e+05
1.8147e+05
1.8208e+05
1.8214e+05
1.8275e+05
1.828e+05
1.8299e+05
1.8323e+05
1.8458e+05
1.8479e+05
1.859e+05
1.8614e+05
1.8664e+05
1.8689e+05
1.8738e+05
1.8761e+05
1.8787e+05
1.881e+05
1.8833e+05
1.8856e+05
1.8879e+05
1.8959e+05
1.8985e+05
1.901e+05
1.9035e+05
1.906e+05
1.9083e+05
1.9087e+05
1.9107e+05
1.9134e+05
1.9153e+05
1.9159e+05
1.9203e+05
1.9228e+05
1.9232e+05
1.9277e+05
1.9282e+05
1.9301e+05
1.9304e+05
1.9324e+05
1.9328e+05
1.9347e+05
1.9352e+05
1.9373e+05
1.9398e+05
1.9401e+05
1.9421e+05
1.9424e+05
1.9442e+05
1.9444e+05
1.9467e+05
1.9471e+05
1.9493e+05
1.9498e+05
1.9611e+05
1.9615e+05
1.9702e+05
1.9708e+05
1.987e+05
1.9892e+05
1.9913e+05
1.9918e+05
1.9934e+05
1.9937e+05
1.9956e+05
1.9976e+05
1.9979e+05
2.0001e+05
2.0005e+05
2.0024e+05
2.0028e+05
2.0048e+05
2.0073e+05
2.0077e+05
2.0097e+05
2.012e+05
2.0143e+05
2.0164e+05
2.0185e+05
2.0206e+05
2.0228e+05
2.0251e+05
2.0274e+05
2.0295e+05
2.0317e+05
2.0322e+05
2.0339e+05
2.0343e+05
2.0362e+05
2.0386e+05
2.0409e+05
2.0415e+05
2.0433e+05
2.0437e+05
2.0458e+05
2.0482e+05
2.0486e+05
2.0505e+05
2.0509e+05
2.0528e+05
2.0533e+05
2.055e+05
2.0572e+05
2.0576e+05
2.0594e+05
2.0598e+05
2.0616e+05
2.064e+05
2.0665e+05
2.0689e+05
2.0713e+05
2.0735e+05
2.0756e+05
2.076e+05
2.0777e+05
2.0781e+05
2.0798e+05
2.0819e+05
2.084e+05
2.0863e+05
2.0886e+05
2.089e+05
2.091e+05
2.0934e+05
2.0939e+05
2.0959e+05
2.0963e+05
2.0981e+05
2.1003e+05
2.1008e+05
2.1025e+05
2.1047e+05
2.1051e+05
2.107e+05
2.1093e+05
2.1117e+05
2.114e+05
2.1163e+05
2.1184e+05
2.1205e+05
2.1208e+05
2.1227e+05
2.1249e+05
2.1271e+05
2.1276e+05
2.1294e+05
2.1318e+05
2.1341e+05
2.1345e+05
2.1364e+05
2.1387e+05
2.1409e+05
2.1413e+05
2.1429e+05
2.1431e+05
2.1453e+05
2.1458e+05
2.1477e+05
2.1482e+05
2.1501e+05
2.1524e+05
2.1547e+05
2.157e+05
2.1592e+05
2.1613e+05
2.1635e+05
2.1657e+05
2.1681e+05
2.1704e+05
2.1728e+05
2.1752e+05
2.1775e+05
2.1799e+05
2.1822e+05
2.1826e+05
2.1844e+05
2.1865e+05
2.187e+05
2.1887e+05
2.191e+05
2.1933e+05
2.1958e+05
2.1982e+05
2.2007e+05
2.2011e+05
2.203e+05
2.2052e+05
2.2058e+05
2.2075e+05
2.2097e+05
2.2101e+05
2.2119e+05
2.2123e+05
2.2142e+05
2.2146e+05
2.2166e+05
2.219e+05
2.2215e+05
2.2219e+05
2.2239e+05
2.2262e+05
2.2286e+05
2.229e+05
2.2308e+05
2.2312e+05
2.233e+05
2.2353e+05
2.2379e+05
2.2383e+05
2.2403e+05
2.2409e+05
2.2429e+05
2.2451e+05
2.2456e+05
2.2474e+05
2.2478e+05
2.2496e+05
2.25e+05
2.2517e+05
2.2521e+05
2.254e+05
2.2564e+05
2.2587e+05
2.2611e+05
2.2615e+05
2.2634e+05
2.2638e+05
2.2657e+05
2.2681e+05
2.2702e+05
2.2724e+05
2.2728e+05
2.2746e+05
2.2752e+05
2.2769e+05
2.2773e+05
2.2792e+05
2.2815e+05
2.2819e+05
2.2838e+05
2.2859e+05
2.2866e+05
2.2884e+05
2.2906e+05
2.2926e+05
2.293e+05
2.2947e+05
2.2969e+05
2.2991e+05
2.3016e+05
2.3039e+05
2.3044e+05
2.3062e+05
2.3087e+05
2.3112e+05
2.3135e+05
2.3157e+05
2.3178e+05
2.3199e+05
2.3203e+05
2.3221e+05
2.3243e+05
2.3265e+05
2.3286e+05
2.3306e+05
2.3326e+05
2.3345e+05
2.3366e+05
2.3386e+05
2.3408e+05
2.3431e+05
2.3454e+05
2.3477e+05
2.3501e+05
2.3524e+05
2.3547e+05
2.3569e+05
2.3591e+05
2.3613e+05
2.3637e+05
2.3661e+05
2.3685e+05
2.3709e+05
2.3733e+05
2.3756e+05
2.376e+05
2.3778e+05
2.38e+05
2.3823e+05
2.3846e+05
2.3869e+05
2.3873e+05
2.3893e+05
2.3917e+05
2.3942e+05
2.3966e+05
2.3988e+05
2.401e+05
2.4033e+05
2.4055e+05
2.4076e+05
2.4099e+05
2.4122e+05
2.4146e+05
2.4169e+05
2.4191e+05
2.4214e+05
2.4235e+05
2.4239e+05
2.4256e+05
2.4261e+05
2.428e+05
2.4303e+05
2.4328e+05
2.4334e+05
2.4354e+05
2.4378e+05
2.4445e+05
2.4466e+05
2.447e+05
2.4507e+05
2.4511e+05
2.4551e+05
2.4555e+05
2.4576e+05
2.4581e+05
2.46e+05
2.4605e+05
2.4623e+05
2.4627e+05
2.4646e+05
2.465e+05
2.4669e+05
2.4693e+05
2.4717e+05
2.4722e+05
2.4789e+05
2.4834e+05
2.484e+05
2.4901e+05
2.4922e+05
2.4945e+05
2.5042e+05
2.5063e+05
2.5067e+05
2.5103e+05
2.5123e+05
2.5144e+05
2.5166e+05
2.5193e+05
2.522e+05
2.5223e+05
2.5269e+05
2.5273e+05
2.5292e+05
2.5315e+05
2.5337e+05
2.534e+05
2.5358e+05
2.5381e+05
2.5404e+05
2.543e+05
2.5454e+05
2.5479e+05
2.5504e+05
2.5529e+05
2.5554e+05
2.558e+05
2.5605e+05
2.5629e+05
2.5653e+05
2.5677e+05
2.57e+05
2.5724e+05
2.5727e+05
2.5746e+05
2.5769e+05
2.5794e+05
2.5818e+05
2.5822e+05
2.5842e+05
2.5867e+05
2.5892e+05
2.5915e+05
2.5937e+05
2.5959e+05
2.5981e+05
2.5984e+05
2.6003e+05
2.6026e+05
2.605e+05
2.6073e+05
2.6076e+05
2.6095e+05
2.6119e+05
2.6123e+05
2.6143e+05
2.6168e+05
2.6173e+05
2.619e+05
2.6193e+05
2.6213e+05
2.6217e+05
2.6236e+05
2.624e+05
2.6261e+05
2.6264e+05
2.6287e+05
2.6314e+05
2.6361e+05
2.6365e+05
2.6384e+05
2.6407e+05
2.6473e+05
2.6831e+05
2.6834e+05
2.7161e+05
2.7463e+05
2.7489e+05
2.7514e+05
2.7518e+05
2.7561e+05
2.7586e+05
2.759e+05
2.7609e+05
2.7632e+05
2.7654e+05
2.7676e+05
2.7698e+05
2.7702e+05
2.772e+05
2.7723e+05
2.7742e+05
2.7767e+05
2.7794e+05
2.7821e+05
2.7846e+05
2.785e+05
2.7935e+05
2.7957e+05
2.7961e+05
2.8002e+05
2.8027e+05
2.8054e+05
2.8059e+05
2.808e+05
2.8083e+05
2.8104e+05
2.8128e+05
2.8153e+05
2.8177e+05
2.8202e+05
2.8227e+05
2.8252e+05
2.8256e+05
2.8276e+05
2.83e+05
2.8324e+05
2.8348e+05
2.8352e+05
2.8371e+05
2.8394e+05
2.8418e+05
2.8468e+05
2.8492e+05
2.8516e+05
2.856e+05
2.8584e+05
2.8631e+05
2.8655e+05
2.8678e+05
2.8724e+05
2.8747e+05
2.8771e+05
2.8839e+05
2.8862e+05
2.8908e+05
2.8932e+05
2.8955e+05
2.9025e+05
2.9049e+05
2.9073e+05
2.9097e+05
2.91e+05
2.912e+05
2.9143e+05
2.9165e+05
2.9169e+05
2.9187e+05
2.9191e+05
2.9514e+05
2.9537e+05
2.9629e+05
2.9652e+05
2.9696e+05
2.9719e+05
2.9743e+05
2.9767e+05
2.9813e+05
2.9836e+05
2.9858e+05
2.988e+05
2.9903e+05
2.9927e+05
2.9951e+05
2.9975e+05
2.9998e+05
3.002e+05
3.0043e+05
3.0066e+05
3.0087e+05
3.011e+05
3.0133e+05
3.0156e+05
3.018e+05
3.0203e+05
3.0227e+05
3.0249e+05
3.027e+05
3.0292e+05
3.0314e+05
3.0336e+05
3.0361e+05
3.0387e+05
3.0412e+05
3.0436e+05
3.0459e+05
3.048e+05
3.0502e+05
3.0523e+05
3.0545e+05
3.057e+05
3.0595e+05
3.0621e+05
3.0647e+05
3.0671e+05
3.0696e+05
3.0719e+05
3.0742e+05
3.0765e+05
3.0789e+05
3.0813e+05
3.0838e+05
3.0862e+05
3.0885e+05
3.0908e+05
3.0933e+05
3.0955e+05
3.0978e+05
3.1001e+05
3.1026e+05
3.105e+05
3.1074e+05
3.1098e+05
3.112e+05
3.1143e+05
3.1165e+05
3.1188e+05
3.1211e+05
3.1235e+05
3.1258e+05
3.1281e+05
3.1304e+05
3.1327e+05
3.1349e+05
3.1371e+05
3.1393e+05
3.1416e+05
3.144e+05
3.1463e+05
3.1488e+05
3.1513e+05
3.1536e+05
3.1558e+05
3.1579e+05
3.1601e+05
3.1623e+05
3.1646e+05
3.167e+05
3.1693e+05
3.1718e+05
3.1744e+05
3.1768e+05
3.1792e+05
3.1815e+05
3.1837e+05
3.1859e+05
3.1881e+05
3.1905e+05
3.193e+05
3.1954e+05
3.1977e+05
3.1998e+05
3.202e+05
3.2043e+05
3.2068e+05
3.2093e+05
3.2119e+05
3.2144e+05
3.2168e+05
3.2191e+05
3.2214e+05
3.2238e+05
3.2262e+05
3.2286e+05
3.2291e+05
3.2311e+05
3.2335e+05
3.2358e+05
3.2381e+05
3.2404e+05
3.2427e+05
3.2449e+05
3.2471e+05
3.2493e+05
3.2518e+05
3.2544e+05
3.257e+05
3.2594e+05
3.2617e+05
3.2639e+05
3.2661e+05
3.2684e+05
3.2708e+05
3.2732e+05
3.2757e+05
3.2782e+05
3.2808e+05
3.2833e+05
3.2856e+05
3.2878e+05
3.29e+05
3.2923e+05
3.2947e+05
3.2974e+05
3.2999e+05
3.3024e+05
3.3047e+05
3.3071e+05
3.3093e+05
3.3115e+05
3.3137e+05
3.316e+05
3.3185e+05
3.3211e+05
3.3237e+05
3.3262e+05
3.3285e+05
3.3308e+05
3.3331e+05
3.3354e+05
3.3379e+05
3.3403e+05
3.3425e+05
3.3449e+05
3.3454e+05
3.3472e+05
3.3494e+05
3.3517e+05
3.3541e+05
3.3564e+05
3.3586e+05
3.3611e+05
3.3637e+05
3.3664e+05
3.3688e+05
3.3711e+05
3.3734e+05
3.3756e+05
3.3777e+05
3.38e+05
3.3823e+05
3.3845e+05
3.3868e+05
3.3891e+05
3.3917e+05
3.3942e+05
3.3966e+05
3.3989e+05
3.4012e+05
3.4037e+05
3.4061e+05
3.4086e+05
3.4111e+05
3.4135e+05
3.4157e+05
3.4179e+05
3.4201e+05
3.4225e+05
3.425e+05
3.4275e+05
3.4299e+05
3.4325e+05
3.4349e+05
3.4373e+05
3.4397e+05
3.4421e+05
3.4443e+05
3.4465e+05
3.4489e+05
3.4514e+05
3.4539e+05
3.4563e+05
3.4587e+05
3.461e+05
3.4634e+05
3.4659e+05
3.4684e+05
3.4708e+05
3.4731e+05
3.4755e+05
3.4779e+05
3.4801e+05
3.4823e+05
3.4846e+05
3.4871e+05
3.4897e+05
3.4924e+05
3.495e+05
3.4975e+05
3.4979e+05
3.4998e+05
3.5022e+05
3.5044e+05
3.5067e+05
3.5091e+05
3.5118e+05
3.5145e+05
3.5173e+05
3.5198e+05
3.5223e+05
3.5247e+05
3.5271e+05
3.5275e+05
3.5294e+05
3.5316e+05
3.534e+05
3.5365e+05
3.539e+05
3.5414e+05
3.5439e+05
3.5465e+05
3.5492e+05
3.5519e+05
3.5544e+05
3.5568e+05
3.5592e+05
3.5685e+05
3.5709e+05
3.5788e+05
3.5815e+05
3.5843e+05
3.5986e+05
3.6034e+05
3.6154e+05
3.6179e+05
3.6205e+05
3.623e+05
3.6257e+05
3.6352e+05
3.6423e+05
3.6447e+05
3.6471e+05
3.6518e+05
3.654e+05
3.6564e+05
3.6588e+05
3.6593e+05
3.6613e+05
3.6636e+05
3.6641e+05
3.666e+05
3.6683e+05
3.7184e+05
3.7208e+05
3.7232e+05
3.7439e+05
3.7557e+05
3.7561e+05
3.7582e+05
3.7716e+05
3.772e+05
3.7922e+05
3.8042e+05
3.8108e+05
3.831e+05
3.8333e+05
3.8379e+05
3.8403e+05
3.8427e+05
3.8451e+05
3.8475e+05
3.8718e+05
3.874e+05
3.8745e+05
3.8811e+05
3.8836e+05
3.9267e+05
3.929e+05
3.9294e+05
3.9612e+05
3.9663e+05
3.974e+05
3.9764e+05
3.9789e+05
3.9812e+05
3.9835e+05
3.9987e+05
4.0011e+05
4.0015e+05
4.0056e+05
4.0079e+05
4.0084e+05
4.0101e+05
4.0108e+05
4.0153e+05
4.0178e+05
4.0182e+05
4.025e+05
4.0465e+05
4.0537e+05
4.0608e+05
4.0612e+05
4.075e+05
4.0754e+05
4.0775e+05
4.0824e+05
4.0828e+05
4.0849e+05
4.0965e+05
4.1036e+05
4.1039e+05
4.1059e+05
4.1063e+05
4.1276e+05
4.1281e+05
4.1344e+05
4.1444e+05
4.1449e+05
4.1562e+05
4.1565e+05
4.166e+05
4.1664e+05
4.1684e+05
4.1687e+05
4.1829e+05
4.1945e+05
4.1949e+05
4.2168e+05
4.2338e+05
4.236e+05
4.2405e+05
4.2429e+05
4.2574e+05
4.2597e+05
4.2787e+05
4.322e+05
4.3263e+05
4.3454e+05
4.3475e+05
4.3664e+05
4.3688e+05
4.3737e+05
4.3762e+05
4.3788e+05
4.3813e+05
4.3838e+05
4.3863e+05
4.3887e+05
4.3911e+05
4.3934e+05
4.3958e+05
4.3982e+05
4.4008e+05
4.4034e+05
4.4059e+05
4.4082e+05
4.4106e+05
4.413e+05
4.4153e+05
4.4178e+05
4.4203e+05
4.4228e+05
4.4252e+05
4.4277e+05
4.4301e+05
4.4324e+05
4.4347e+05
4.4371e+05
4.4396e+05
4.4421e+05
4.4446e+05
4.4472e+05
4.4497e+05
4.4521e+05
4.4543e+05
4.4566e+05
4.4589e+05
4.4656e+05
4.468e+05
4.4704e+05
4.4749e+05
4.4772e+05
4.4795e+05
4.4841e+05
4.4866e+05
4.4892e+05
4.4916e+05
4.4939e+05
4.4963e+05
4.4987e+05
4.5034e+05
4.5058e+05
4.5083e+05
4.5106e+05
4.513e+05
4.5154e+05
4.5201e+05
4.5273e+05
4.5297e+05
4.5437e+05
4.5461e+05
4.5485e+05
4.5534e+05
4.5559e+05
4.5629e+05
4.5724e+05
4.5773e+05
4.589e+05
4.6032e+05
4.6055e+05
4.6077e+05
4.6311e+05
4.6335e+05
4.6359e+05
4.6409e+05
4.6433e+05
4.648e+05
4.6502e+05
4.6526e+05
4.655e+05
4.6575e+05
4.6601e+05
4.6626e+05
4.665e+05
4.6696e+05
4.6741e+05
4.6764e+05
4.6788e+05
4.6814e+05
4.6838e+05
4.6863e+05
4.6888e+05
4.6935e+05
4.6959e+05
4.6983e+05
4.7007e+05
4.7032e+05
4.7057e+05
4.7082e+05
4.7106e+05
4.7129e+05
4.7153e+05
4.7178e+05
4.7203e+05
4.7228e+05
4.7254e+05
4.7279e+05
4.7303e+05
4.7374e+05
4.7497e+05
4.7545e+05
4.7643e+05
4.7669e+05
4.7719e+05
4.7743e+05
4.7767e+05
4.7813e+05
4.7837e+05
4.7887e+05
4.7913e+05
4.7938e+05
4.7985e+05
4.8009e+05
4.8033e+05
4.8066e+05
4.8082e+05
4.8108e+05
4.8158e+05
4.8182e+05
4.8206e+05
4.8255e+05
4.8305e+05
4.8331e+05
4.8335e+05
4.8405e+05
4.8429e+05
4.8477e+05
4.8503e+05
4.853e+05
4.8557e+05
4.8582e+05
4.8586e+05
4.8609e+05
4.8634e+05
4.8659e+05
4.8683e+05
4.8708e+05
4.8734e+05
4.8761e+05
4.8786e+05
4.8812e+05
4.8837e+05
4.8861e+05
4.8864e+05
4.8885e+05
4.8911e+05
4.8938e+05
4.8987e+05
4.9011e+05
4.9036e+05
4.9061e+05
4.9084e+05
4.9088e+05
4.9109e+05
4.9113e+05
4.9135e+05
4.9162e+05
4.9166e+05
4.9189e+05
4.9215e+05
4.9241e+05
4.9264e+05
4.9268e+05
4.9287e+05
4.9291e+05
4.9311e+05
4.9333e+05
4.9337e+05
4.9383e+05
4.9482e+05
4.9487e+05
4.9505e+05
4.9528e+05
4.9531e+05
4.955e+05
4.9598e+05
4.9692e+05
4.9715e+05
4.9718e+05
4.981e+05
4.9814e+05
4.9834e+05
4.9859e+05
4.9883e+05
4.9889e+05
4.9931e+05
4.9978e+05
4.9982e+05
5.0026e+05
5.0031e+05
5.0054e+05
5.0059e+05
5.0104e+05
5.0107e+05
5.0152e+05
5.0157e+05
5.0175e+05
5.0179e+05
5.0276e+05
5.028e+05
5.0298e+05
5.0306e+05
5.0327e+05
5.0331e+05
5.0353e+05
5.0357e+05
5.038e+05
5.0564e+05
5.0655e+05
5.0658e+05
5.0822e+05
5.1018e+05
5.1023e+05
5.1257e+05
5.1425e+05
5.1497e+05
5.1671e+05
5.1695e+05
5.1898e+05
5.2073e+05
5.2274e+05
5.2278e+05
5.2297e+05
5.2301e+05
5.2535e+05
5.2582e+05
5.2758e+05
5.3177e+05
5.3439e+05
5.367e+05
5.3696e+05
5.37e+05
5.3723e+05
5.3749e+05
5.3775e+05
5.3799e+05
5.3823e+05
5.3847e+05
5.387e+05
5.3893e+05
5.3917e+05
5.394e+05
5.3965e+05
5.3988e+05
5.401e+05
5.4032e+05
5.4055e+05
5.4077e+05
5.41e+05
5.4124e+05
5.415e+05
5.4176e+05
5.42e+05
5.4223e+05
5.4246e+05
5.4269e+05
5.4291e+05
5.4314e+05
5.4338e+05
5.4364e+05
5.4389e+05
5.4413e+05
5.4438e+05
5.4461e+05
5.4484e+05
5.4507e+05
5.453e+05
5.4554e+05
5.4578e+05
5.4602e+05
5.4628e+05
5.4652e+05
5.4675e+05
5.4699e+05
5.4723e+05
5.4746e+05
5.4771e+05
5.4797e+05
5.4846e+05
5.487e+05
5.4895e+05
5.4919e+05
5.4944e+05
5.497e+05
5.4995e+05
5.5021e+05
5.5048e+05
5.5074e+05
5.5098e+05
5.5122e+05
5.5169e+05
5.5194e+05
5.5222e+05
5.5247e+05
5.5272e+05
5.5296e+05
5.5342e+05
5.5365e+05
5.5389e+05
5.5414e+05
5.5438e+05
5.5464e+05
5.5491e+05
5.5515e+05
5.5539e+05
5.5563e+05
5.5588e+05
5.5612e+05
5.5638e+05
5.5664e+05
5.5713e+05
5.5738e+05
5.5785e+05
5.5809e+05
5.5833e+05
5.5859e+05
5.5883e+05
5.5909e+05
5.5958e+05
5.5982e+05
5.6006e+05
5.6029e+05
5.6054e+05
5.608e+05
5.6105e+05
5.611e+05
5.6129e+05
5.6153e+05
5.6176e+05
5.6219e+05
5.6242e+05
5.6265e+05
5.629e+05
5.6315e+05
5.634e+05
5.6365e+05
5.6389e+05
5.6414e+05
5.6437e+05
5.6461e+05
5.6486e+05
5.6511e+05
5.6536e+05
5.6562e+05
5.6587e+05
5.661e+05
5.6634e+05
5.6659e+05
5.6684e+05
5.6708e+05
5.6734e+05
5.6761e+05
5.6786e+05
5.6811e+05
5.6837e+05
5.6861e+05
5.6885e+05
5.6909e+05
5.6935e+05
5.6961e+05
5.6986e+05
5.7011e+05
5.7059e+05
5.7083e+05
5.7107e+05
5.7133e+05
5.716e+05
5.7186e+05
5.7212e+05
5.7239e+05
5.7285e+05
5.7309e+05
5.7334e+05
5.736e+05
5.7386e+05
5.7411e+05
5.7435e+05
5.746e+05
5.7483e+05
5.7508e+05
5.7535e+05
5.7561e+05
5.7565e+05
5.7615e+05
5.764e+05
5.7664e+05
5.7688e+05
5.7692e+05
5.771e+05
5.7782e+05
5.781e+05
5.7838e+05
5.7866e+05
5.7869e+05
5.789e+05
5.7894e+05
5.7913e+05
5.7918e+05
5.7941e+05
5.7946e+05
5.7969e+05
5.7973e+05
5.7996e+05
5.8022e+05
5.8046e+05
5.8072e+05
5.812e+05
5.8142e+05
5.8148e+05
5.8165e+05
5.8242e+05
5.827e+05
5.8322e+05
5.8326e+05
5.8374e+05
5.8645e+05
5.8696e+05
5.8721e+05
5.8725e+05
5.8745e+05
5.877e+05
5.8795e+05
5.8819e+05
5.8843e+05
5.8868e+05
5.8893e+05
5.8918e+05
5.8922e+05
5.8967e+05
5.899e+05
5.8993e+05
5.9012e+05
5.9036e+05
5.904e+05
5.906e+05
5.9111e+05
5.9137e+05
5.9162e+05
5.9208e+05
5.9277e+05
5.9301e+05
5.9305e+05
5.9325e+05
5.9353e+05
5.9356e+05
5.938e+05
5.9409e+05
5.946e+05
5.9463e+05
5.9485e+05
5.949e+05
5.9585e+05
5.9608e+05
5.963e+05
5.9634e+05
5.9653e+05
5.9676e+05
5.9679e+05
5.97e+05
5.9726e+05
5.9753e+05
5.9756e+05
5.9778e+05
5.9806e+05
5.9833e+05
5.9858e+05
5.9882e+05
5.9907e+05
5.9931e+05
5.9957e+05
5.9982e+05
5.9986e+05
6.0008e+05
6.0033e+05
6.0059e+05
6.0082e+05
6.0107e+05
6.0148e+05
6.0935e+05
6.1749e+05
6.2162e+05
6.2471e+05
6.2473e+05
6.2515e+05
6.2563e+05
6.2565e+05
6.2633e+05
6.2635e+05
6.313e+05
6.3132e+05
6.3174e+05
6.3176e+05
6.3389e+05
6.3391e+05
6.3595e+05
6.3637e+05
6.3697e+05
6.3701e+05
6.3722e+05
6.3759e+05
6.3761e+05
6.3789e+05
6.3818e+05
6.3848e+05
6.3877e+05
6.3906e+05
6.3933e+05
6.3957e+05
6.398e+05
6.4004e+05
6.4035e+05
6.411e+05
6.4138e+05
6.4143e+05
6.4167e+05
6.417e+05
6.4192e+05
6.4218e+05
6.4244e+05
6.4248e+05
6.427e+05
6.4297e+05
6.4324e+05
6.435e+05
6.4375e+05
6.4401e+05
6.4426e+05
6.4451e+05
6.4456e+05
6.4478e+05
6.45e+05
6.4505e+05
6.4527e+05
6.4553e+05
6.4579e+05
6.4606e+05
6.463e+05
6.4653e+05
6.4678e+05
6.4703e+05
6.4729e+05
6.4753e+05
6.4777e+05
6.4799e+05
6.4822e+05
6.4825e+05
6.4845e+05
6.4868e+05
6.4894e+05
6.4922e+05
6.4976e+05
