186
431
623
822
1027
1223
1418
1606
1803
1997
2187
2384
2581
2781
2974
3170
3360
3553
3755
3957
4151
4352
4543
4736
4926
5125
5323
5520
5721
5914
6107
6298
6494
6692
6891
7086
7286
7473
7668
7864
8059
8252
8446
8649
8850
9045
9236
9431
9630
9831
10026
10225
10414
10609
10801
10996
11185
11384
11587
11778
11972
12166
12360
12557
12757
12958
13153
13345
13538
13731
13931
14123
14321
14519
14715
14907
15098
15290
15485
15685
15880
16076
16273
16463
16656
16857
17045
17247
17449
17647
17838
18032
18224
18422
18621
18817
19009
19208
19397
19587
19785
19976
20174
20368
20566
20761
20955
21145
21338
21540
21746
21940
22137
22325
22523
22906
23103
23300
23505
23695
23888
24079
24277
24476
24675
24872
25069
25254
25450
25646
25844
26040
26237
26435
26632
26831
27020
27214
27413
27612
27805
28002
28193
28386
28578
28778
28969
29166
29367
29569
29763
29957
30156
30356
30558
30754
30955
31145
31341
31536
31734
31926
32128
32327
32521
32715
32913
33104
33297
33499
33700
33895
34089
34285
34479
34680
34877
35073
35271
35474
35670
35864
36057
36254
36455
36650
36849
37039
37232
37427
37627
37821
38019
38217
38420
38611
38807
39001
39200
39397
39593
39792
39990
40180
40372
40573
40761
40959
41156
41353
41545
41744
41932
42127
42330
42533
42727
42923
43116
43315
43511
43703
43903
44109
44307
44500
44700
44890
45084
45282
45481
45677
45875
46072
46256
46458
46652
46855
47052
47246
47440
47635
47828
48024
48219
48420
48617
48812
49003
49196
49395
49585
49782
50183
50375
50570
50767
50960
51158
51361
51555
51752
51945
52142
52335
52526
52728
52924
53122
53315
53512
53702
53892
54091
54292
54485
54874
55066
55260
55457
55650
55843
56049
56240
56435
56628
56821
57018
57219
57610
57797
57994
58188
58378
58575
58772
58974
59165
59359
59556
59746
59945
60129
60346
60545
60736
60935
61126
61323
61520
61717
61915
62109
62306
62501
62692
62889
63091
63488
63678
63874
64068
64263
64449
64657
64856
65053
65247
65439
65635
65834
66032
66230
66428
66619
66812
67001
67194
67388
67588
67783
67981
68181
68373
68566
68766
68967
69165
69361
69556
69755
69947
70146
70339
70541
70736
70938
71129
71324
71714
71914
72113
72311
72508
72697
72893
73092
73284
73487
73686
73890
74083
74280
74477
74671
74872
75073
75273
75464
75653
75852
76050
76241
76440
76636
76836
77027
77227
77415
77612
77798
78016
78208
78408
78603
78796
78993
79190
79385
79582
79781
79974
80169
80362
80556
80752
80956
81345
81535
81731
81930
82132
82332
82527
82730
82926
83122
83312
83511
83707
83909
84102
84301
84490
84686
84883
85075
85273
85475
85672
85867
86065
86256
86455
86657
86856
87051
87627
87833
88030
88224
88419
88619
88810
89003
89193
89389
89586
89789
90184
90372
90570
90772
90961
91160
91360
91563
91756
91955
92153
92347
92540
92739
92934
93119
93330
93521
93717
93916
94117
94311
94511
94704
94904
95099
95291
95486
95685
95882
96079
96265
96459
96852
97043
97237
97441
97632
97827
98021
98215
98412
98612
98811
99010
1.1217e+05
1.2081e+05
1.431e+05
1.6418e+05
1.6615e+05
1.6912e+05
1.7034e+05
1.7112e+05
1.7546e+05
1.7627e+05
1.7866e+05
1.7943e+05
1.7982e+05
1.8505e+05
1.8809e+05
1.8847e+05
1.9005e+05
1.9242e+05
1.9518e+05
2.9831e+05
2.9913e+05
3.0072e+05
3.0153e+05
3.0587e+05
3.0752e+05
3.0833e+05
3.0871e+05
3.1153e+05
3.1592e+05
3.1633e+05
3.1752e+05
3.182e+05
3.2703e+05
3.2743e+05
3.2846e+05
3.2947e+05
3.3281e+05
3.3388e+05
3.3789e+05
3.3809e+05
3.3829e+05
3.3848e+05
3.3869e+05
3.3889e+05
3.3908e+05
3.3928e+05
3.3949e+05
3.3969e+05
3.4008e+05
3.4029e+05
3.4048e+05
3.4069e+05
3.409e+05
3.411e+05
3.413e+05
3.415e+05
3.4169e+05
3.419e+05
3.421e+05
3.423e+05
3.425e+05
3.4271e+05
3.429e+05
3.431e+05
3.433e+05
3.435e+05
3.437e+05
3.439e+05
3.4411e+05
3.443e+05
3.4449e+05
3.447e+05
3.4489e+05
3.4509e+05
3.4529e+05
3.455e+05
3.457e+05
3.459e+05
3.461e+05
3.463e+05
3.465e+05
3.4671e+05
3.469e+05
3.4711e+05
3.473e+05
3.475e+05
3.477e+05
3.4789e+05
3.481e+05
3.4903e+05
3.497e+05
3.5008e+05
3.5087e+05
3.5109e+05
3.5169e+05
3.5189e+05
3.5248e+05
3.5267e+05
3.5287e+05
3.5325e+05
3.5346e+05
3.5365e+05
3.5385e+05
3.5406e+05
3.5426e+05
3.5446e+05
3.5466e+05
3.5485e+05
3.5504e+05
3.5524e+05
3.5545e+05
3.5565e+05
3.5782e+05
3.5842e+05
3.5882e+05
3.5902e+05
3.5921e+05
3.594e+05
3.5978e+05
3.5999e+05
3.6019e+05
3.6058e+05
3.6077e+05
3.6096e+05
3.6134e+05
3.6156e+05
3.6176e+05
3.6195e+05
3.6234e+05
3.6254e+05
3.6334e+05
3.6393e+05
3.6413e+05
3.6434e+05
3.6474e+05
3.6494e+05
3.6513e+05
3.6554e+05
3.6573e+05
3.6593e+05
3.6614e+05
3.6635e+05
3.6654e+05
3.6674e+05
3.6694e+05
3.6715e+05
3.6736e+05
3.6756e+05
3.6777e+05
3.6796e+05
3.6816e+05
3.6836e+05
3.6857e+05
3.6877e+05
3.6897e+05
3.6918e+05
3.6938e+05
3.6957e+05
3.6995e+05
3.7018e+05
3.7038e+05
3.7077e+05
3.7098e+05
3.7118e+05
3.7159e+05
3.7179e+05
3.7221e+05
3.7241e+05
3.728e+05
3.7301e+05
3.7322e+05
3.7363e+05
3.7382e+05
3.7402e+05
3.7422e+05
3.7443e+05
3.7463e+05
3.7504e+05
3.7524e+05
3.7544e+05
3.7564e+05
3.7584e+05
3.7623e+05
3.7646e+05
3.7664e+05
3.7686e+05
3.7726e+05
3.7767e+05
3.7787e+05
3.7807e+05
3.7827e+05
3.7847e+05
3.7866e+05
3.7886e+05
3.7907e+05
3.8008e+05
3.8048e+05
3.8068e+05
3.8088e+05
3.8108e+05
3.8128e+05
3.8168e+05
3.8188e+05
3.8208e+05
3.8267e+05
3.8287e+05
3.8307e+05
3.8327e+05
3.8347e+05
3.8367e+05
3.8408e+05
3.8428e+05
3.8529e+05
3.8549e+05
3.8588e+05
3.8609e+05
3.8628e+05
3.8648e+05
3.8688e+05
3.8708e+05
3.8728e+05
3.8748e+05
3.8768e+05
3.8789e+05
3.8809e+05
3.8829e+05
3.8867e+05
3.8928e+05
3.8949e+05
3.8969e+05
3.8989e+05
3.9009e+05
3.9029e+05
3.9049e+05
3.9069e+05
3.9108e+05
3.913e+05
3.9148e+05
3.9187e+05
3.9209e+05
3.9249e+05
3.927e+05
3.9309e+05
3.933e+05
3.935e+05
3.937e+05
3.9391e+05
3.9411e+05
3.9431e+05
3.9451e+05
3.9471e+05
3.949e+05
3.951e+05
3.9531e+05
3.9551e+05
3.9571e+05
3.9591e+05
3.9672e+05
3.9713e+05
3.9733e+05
3.9757e+05
3.9793e+05
3.9797e+05
3.9832e+05
3.9893e+05
3.9898e+05
3.9917e+05
3.9932e+05
4.0194e+05
4.0293e+05
4.0514e+05
4.0616e+05
4.0757e+05
4.0898e+05
4.1218e+05
4.1462e+05
4.1523e+05
4.2387e+05
4.2425e+05
4.2627e+05
4.2729e+05
4.2868e+05
4.3638e+05
4.3719e+05
4.374e+05
4.376e+05
4.378e+05
4.3801e+05
4.3821e+05
4.3841e+05
4.3861e+05
4.3881e+05
4.3901e+05
4.3921e+05
4.3941e+05
4.3962e+05
4.3982e+05
4.4002e+05
4.4022e+05
4.4043e+05
4.4062e+05
4.4083e+05
4.4104e+05
4.4125e+05
4.4185e+05
4.4206e+05
4.4225e+05
4.4267e+05
4.4347e+05
4.4408e+05
4.4429e+05
4.4489e+05
4.451e+05
4.453e+05
4.455e+05
4.4572e+05
4.4591e+05
4.4632e+05
4.4652e+05
4.4672e+05
4.4693e+05
4.4714e+05
4.4734e+05
4.4773e+05
4.4794e+05
4.4876e+05
4.4896e+05
4.4978e+05
4.5059e+05
4.5099e+05
4.5119e+05
4.514e+05
4.5221e+05
4.5241e+05
4.528e+05
4.5303e+05
4.5323e+05
4.5343e+05
4.5364e+05
4.5384e+05
4.5404e+05
4.5446e+05
4.5467e+05
4.5487e+05
4.5527e+05
4.5548e+05
4.5568e+05
4.5588e+05
4.5629e+05
4.5649e+05
4.569e+05
4.5711e+05
4.5731e+05
4.5792e+05
4.5854e+05
4.5955e+05
4.5976e+05
4.5995e+05
4.6037e+05
4.6057e+05
4.6077e+05
4.6118e+05
4.6138e+05
4.6159e+05
4.6179e+05
4.6201e+05
4.6221e+05
4.6261e+05
4.6282e+05
4.6344e+05
4.6425e+05
4.6446e+05
4.6486e+05
4.6507e+05
4.6527e+05
4.6588e+05
4.6608e+05
4.6649e+05
4.667e+05
4.669e+05
4.6752e+05
4.6773e+05
4.6793e+05
4.6813e+05
4.6832e+05
4.6853e+05
4.6873e+05
4.6893e+05
4.6914e+05
4.6935e+05
4.6955e+05
4.6975e+05
4.6995e+05
4.7015e+05
4.7037e+05
4.7057e+05
4.7119e+05
4.7139e+05
4.72e+05
4.7221e+05
4.7262e+05
4.7282e+05
4.7302e+05
4.7343e+05
4.7364e+05
4.7383e+05
4.7424e+05
4.7444e+05
4.7464e+05
4.7485e+05
4.7506e+05
4.7526e+05
4.7546e+05
4.7566e+05
4.7587e+05
4.7608e+05
4.7629e+05
4.7649e+05
4.767e+05
4.769e+05
4.771e+05
4.773e+05
4.775e+05
4.7771e+05
4.7792e+05
4.7812e+05
4.7832e+05
4.7853e+05
4.7873e+05
4.7935e+05
4.7955e+05
4.7994e+05
4.8016e+05
4.8036e+05
4.8098e+05
4.8139e+05
4.8159e+05
4.8178e+05
4.8198e+05
4.822e+05
4.8241e+05
4.826e+05
4.828e+05
4.83e+05
4.8341e+05
4.8361e+05
4.8382e+05
4.8423e+05
4.8443e+05
4.8482e+05
4.8505e+05
4.8525e+05
4.8563e+05
4.8586e+05
4.8605e+05
4.8666e+05
4.8686e+05
4.8727e+05
4.8747e+05
4.8766e+05
4.8808e+05
4.8829e+05
4.8849e+05
4.8869e+05
4.8889e+05
4.8909e+05
4.8929e+05
4.895e+05
4.897e+05
4.8989e+05
4.901e+05
4.9031e+05
4.9051e+05
4.9071e+05
4.9113e+05
4.9152e+05
4.9173e+05
4.9193e+05
4.9213e+05
4.9254e+05
4.9275e+05
4.9315e+05
4.9335e+05
4.9397e+05
4.9497e+05
4.9537e+05
4.9598e+05
4.9618e+05
5.37e+05
5.7763e+05
5.7933e+05
6.3646e+05
6.3764e+05
-1
336
573
765
965
1165
1365
1552
1744
1939
2136
2323
2523
2725
2919
3108
3305
3498
3693
3899
4097
4292
4488
4684
4873
5065
5263
5466
5662
5856
6054
6243
6433
6633
6833
7030
7225
7418
7612
7803
8005
8197
8392
8590
8789
8990
9182
9370
9571
9774
9971
10163
10360
10553
10740
10939
11130
11327
11525
11726
11916
12108
12302
12501
12697
12898
13095
13289
13480
13670
13873
14066
14266
14457
14660
14852
15045
15232
15428
15629
15829
16017
16214
16409
16600
16797
16991
17188
17385
17593
17781
17976
18170
18362
18564
18765
18955
19149
19339
19535
19723
19921
20118
20310
20510
20700
20900
21093
21282
21480
21684
21881
22083
22270
22463
22608
22814
23050
23243
23441
23640
23833
24021
24217
24419
24619
24812
25011
25203
25397
25585
25788
25984
26183
26380
26571
26771
26969
27158
27352
27554
27751
27944
28136
28333
28523
28718
28912
29112
29309
29506
29708
29903
30094
30297
30501
30699
30891
31093
31285
31476
31678
31870
32068
32267
32467
32659
32852
33048
33241
33440
33639
33840
34034
34223
34425
34623
34814
35019
35213
35414
35611
35810
35997
36196
36398
36596
36785
36990
37177
37374
37565
37763
37966
38161
38358
38555
38755
38946
39138
39341
39539
39731
39936
40126
40317
40510
40709
40903
41094
41299
41489
41684
41877
42071
42272
42471
42674
42869
43018
43065
43253
43414
43463
43649
43800
44043
44211
44261
44444
44645
44836
45034
45227
45427
45622
45820
46010
46215
46399
46598
46791
46996
47199
47389
47580
47775
47965
48167
48363
48563
48757
48953
49141
49340
49531
49684
49732
49920
50079
50321
50475
50523
50706
50912
51101
51305
51497
51697
51886
52084
52279
52472
52665
52867
53066
53263
53451
53655
53837
53991
54038
54235
54389
54436
54627
54777
54822
55014
55208
55397
55598
55790
55990
56189
56385
56570
56770
56963
57119
57168
57354
57506
57747
57945
58128
58332
58517
58716
58916
59114
59303
59500
59691
59893
60031
60244
60293
60490
60641
60688
60875
61032
61079
61268
61459
61660
61860
62058
62249
62442
62636
62834
62990
63040
63231
63376
63426
63627
63814
64009
64213
64396
64597
64801
65001
65191
65347
65392
65575
65737
65785
65976
66175
66370
66568
66753
66945
67141
67333
67531
67687
67735
67924
68080
68128
68321
68517
68704
68866
68916
69115
69307
69502
69695
69894
70092
70278
70481
70681
70881
71073
71229
71276
71459
71611
71659
71858
72063
72249
72457
72642
72839
73033
73236
73428
73632
73831
73988
74035
74225
74421
74617
74817
75017
75214
75412
75605
75791
75948
75998
76187
76381
76578
76780
76970
77166
77361
77556
77698
77918
77967
78154
78310
78356
78545
78750
78933
79134
79330
79527
79722
79918
80115
80309
80500
80702
80895
81056
81104
81277
81489
81679
81878
82070
82277
82474
82675
82869
83075
83256
83456
83651
83854
84045
84245
84438
84636
84823
85028
85211
85376
85423
85616
85809
86003
86202
86395
86595
86802
86998
87194
87349
87526
87774
87973
88169
88364
88558
88755
88950
89139
89330
89529
89689
89739
89925
90084
90320
90515
90710
90912
91101
91299
91506
91704
91898
92099
92289
92497
92687
92837
92886
93021
93228
93276
93476
93663
93860
94053
94258
94456
94651
94841
95041
95234
95434
95630
95822
95983
96030
96215
96364
96415
96596
96749
96796
96991
97185
97378
97579
97770
97962
98156
98358
98557
98750
98951
99148
99494
99539
99739
1.0013e+05
1.0033e+05
1.0052e+05
1.0073e+05
1.0092e+05
1.0111e+05
1.0131e+05
1.0151e+05
1.0171e+05
1.0191e+05
1.021e+05
1.0249e+05
1.0269e+05
1.0288e+05
1.0308e+05
1.0328e+05
1.0348e+05
1.0368e+05
1.0388e+05
1.0407e+05
1.0426e+05
1.0447e+05
1.0468e+05
1.0487e+05
1.0506e+05
1.0526e+05
1.0546e+05
1.0565e+05
1.0584e+05
1.0604e+05
1.0624e+05
1.0644e+05
1.0658e+05
1.0663e+05
1.0683e+05
1.0703e+05
1.0723e+05
1.0742e+05
1.0762e+05
1.0782e+05
1.0802e+05
1.0821e+05
1.0841e+05
1.0857e+05
1.0861e+05
1.088e+05
1.0896e+05
1.0901e+05
1.092e+05
1.0939e+05
1.0959e+05
1.0979e+05
1.0997e+05
1.1016e+05
1.1037e+05
1.1057e+05
1.1076e+05
1.1096e+05
1.1115e+05
1.1135e+05
1.1154e+05
1.1169e+05
1.1174e+05
1.1194e+05
1.1209e+05
1.1235e+05
1.1254e+05
1.1274e+05
1.1294e+05
1.1313e+05
1.1332e+05
1.1353e+05
1.1373e+05
1.1392e+05
1.1411e+05
1.143e+05
1.1449e+05
1.1468e+05
1.1485e+05
1.149e+05
1.1503e+05
1.1524e+05
1.1529e+05
1.1548e+05
1.1564e+05
1.1569e+05
1.1587e+05
1.1606e+05
1.1627e+05
1.1647e+05
1.1666e+05
1.1686e+05
1.1706e+05
1.1725e+05
1.1739e+05
1.176e+05
1.1764e+05
1.1784e+05
1.18e+05
1.1804e+05
1.1824e+05
1.1843e+05
1.1862e+05
1.1882e+05
1.1902e+05
1.1921e+05
1.1941e+05
1.196e+05
1.1981e+05
1.2e+05
1.2019e+05
1.2039e+05
1.2059e+05
1.2074e+05
1.2099e+05
1.2119e+05
1.2139e+05
1.2159e+05
1.2177e+05
1.2197e+05
1.2218e+05
1.2238e+05
1.2257e+05
1.2277e+05
1.2296e+05
1.233e+05
1.2355e+05
1.2374e+05
1.2394e+05
1.2415e+05
1.2434e+05
1.2453e+05
1.2473e+05
1.2487e+05
1.2508e+05
1.2534e+05
1.2553e+05
1.2573e+05
1.2591e+05
1.2611e+05
1.2632e+05
1.2651e+05
1.2671e+05
1.2691e+05
1.2711e+05
1.273e+05
1.2749e+05
1.2769e+05
1.2789e+05
1.2808e+05
1.2829e+05
1.2849e+05
1.2869e+05
1.2887e+05
1.2907e+05
1.2928e+05
1.296e+05
1.2986e+05
1.3006e+05
1.3026e+05
1.3045e+05
1.3065e+05
1.3084e+05
1.3104e+05
1.3124e+05
1.3144e+05
1.3163e+05
1.3182e+05
1.3202e+05
1.3221e+05
1.3241e+05
1.3261e+05
1.3281e+05
1.3301e+05
1.332e+05
1.334e+05
1.3359e+05
1.3379e+05
1.34e+05
1.3419e+05
1.3433e+05
1.3454e+05
1.3479e+05
1.3497e+05
1.3517e+05
1.3537e+05
1.3552e+05
1.3571e+05
1.3597e+05
1.3616e+05
1.3635e+05
1.3654e+05
1.3674e+05
1.3695e+05
1.3714e+05
1.3733e+05
1.3753e+05
1.3773e+05
1.3792e+05
1.3812e+05
1.3831e+05
1.3851e+05
1.3871e+05
1.3891e+05
1.3911e+05
1.393e+05
1.3949e+05
1.3969e+05
1.399e+05
1.401e+05
1.4029e+05
1.4049e+05
1.4068e+05
1.4087e+05
1.4107e+05
1.4127e+05
1.4146e+05
1.4166e+05
1.4187e+05
1.4206e+05
1.4246e+05
1.4265e+05
1.4301e+05
1.4326e+05
1.4365e+05
1.4384e+05
1.4404e+05
1.4423e+05
1.4444e+05
1.4463e+05
1.4483e+05
1.4502e+05
1.4522e+05
1.4541e+05
1.456e+05
1.4581e+05
1.4602e+05
1.4621e+05
1.464e+05
1.4659e+05
1.468e+05
1.4699e+05
1.4719e+05
1.4739e+05
1.476e+05
1.4798e+05
1.4838e+05
1.4857e+05
1.4877e+05
1.4897e+05
1.4917e+05
1.4937e+05
1.4956e+05
1.4995e+05
1.5014e+05
1.5034e+05
1.5053e+05
1.5074e+05
1.5093e+05
1.5113e+05
1.5132e+05
1.5152e+05
1.5172e+05
1.5192e+05
1.5212e+05
1.5251e+05
1.527e+05
1.529e+05
1.5309e+05
1.5349e+05
1.5369e+05
1.5431e+05
1.5453e+05
1.5507e+05
1.5526e+05
1.5566e+05
1.5585e+05
1.5608e+05
1.5629e+05
1.5649e+05
1.567e+05
1.5727e+05
1.5748e+05
1.5806e+05
1.5829e+05
1.5861e+05
1.5884e+05
1.5897e+05
1.5905e+05
1.5944e+05
1.5999e+05
1.6017e+05
1.6037e+05
1.6063e+05
1.6097e+05
1.6122e+05
1.6146e+05
1.6175e+05
1.6194e+05
1.6213e+05
1.6249e+05
1.6254e+05
1.6272e+05
1.6288e+05
1.6293e+05
1.6311e+05
1.6332e+05
1.6351e+05
1.6371e+05
1.6391e+05
1.6412e+05
1.6428e+05
1.645e+05
1.6463e+05
1.6467e+05
1.647e+05
1.6485e+05
1.649e+05
1.6509e+05
1.6525e+05
1.653e+05
1.6549e+05
1.6564e+05
1.6569e+05
1.6589e+05
1.6609e+05
1.6642e+05
1.6648e+05
1.6668e+05
1.6688e+05
1.6798e+05
1.6846e+05
1.6895e+05
1.6934e+05
1.699e+05
1.7014e+05
1.7053e+05
1.7132e+05
1.721e+05
1.7331e+05
1.7379e+05
1.7407e+05
1.7467e+05
1.7583e+05
1.7586e+05
1.7661e+05
1.7696e+05
1.7736e+05
1.78e+05
1.7885e+05
1.7962e+05
1.8002e+05
1.8056e+05
1.8095e+05
1.819e+05
1.8214e+05
1.8239e+05
1.8523e+05
1.8602e+05
1.8686e+05
1.878e+05
1.8828e+05
1.8868e+05
1.8902e+05
1.8946e+05
1.8985e+05
1.9026e+05
1.9058e+05
1.908e+05
1.9261e+05
1.9498e+05
1.9538e+05
1.957e+05
1.9592e+05
1.9735e+05
1.9873e+05
1.9897e+05
1.993e+05
1.9963e+05
1.9992e+05
2.0016e+05
2.005e+05
2.0075e+05
2.008e+05
2.0392e+05
2.0397e+05
2.043e+05
2.0435e+05
2.0608e+05
2.0613e+05
2.0688e+05
2.0693e+05
2.0854e+05
2.0931e+05
2.1166e+05
2.1246e+05
2.166e+05
2.1993e+05
2.2002e+05
2.2032e+05
2.2036e+05
2.2269e+05
2.2274e+05
2.2505e+05
2.251e+05
2.255e+05
2.2585e+05
2.259e+05
2.2652e+05
2.2821e+05
2.2826e+05
2.2863e+05
2.2868e+05
2.2911e+05
2.31e+05
2.3105e+05
2.3879e+05
2.3899e+05
2.392e+05
2.394e+05
2.3959e+05
2.3979e+05
2.3999e+05
2.4019e+05
2.4039e+05
2.4059e+05
2.4079e+05
2.4098e+05
2.4118e+05
2.4137e+05
2.4158e+05
2.4177e+05
2.4198e+05
2.4217e+05
2.4238e+05
2.4258e+05
2.4277e+05
2.4297e+05
2.4317e+05
2.4338e+05
2.4357e+05
2.4377e+05
2.4397e+05
2.4416e+05
2.4436e+05
2.4456e+05
2.4476e+05
2.4495e+05
2.4516e+05
2.4536e+05
2.4555e+05
2.4575e+05
2.4595e+05
2.4615e+05
2.4635e+05
2.4655e+05
2.4676e+05
2.4695e+05
2.4714e+05
2.4734e+05
2.4754e+05
2.4774e+05
2.4794e+05
2.4814e+05
2.4834e+05
2.4853e+05
2.4873e+05
2.4893e+05
2.4933e+05
2.4953e+05
2.4973e+05
2.4992e+05
2.5013e+05
2.5032e+05
2.5052e+05
2.5092e+05
2.5113e+05
2.5132e+05
2.5152e+05
2.5172e+05
2.5191e+05
2.5211e+05
2.5232e+05
2.5252e+05
2.5271e+05
2.529e+05
2.5311e+05
2.533e+05
2.535e+05
2.537e+05
2.5389e+05
2.541e+05
2.5429e+05
2.5449e+05
2.5468e+05
2.5488e+05
2.5509e+05
2.5529e+05
2.5549e+05
2.5569e+05
2.5589e+05
2.5608e+05
2.5628e+05
2.5648e+05
2.5668e+05
2.5688e+05
2.5708e+05
2.5727e+05
2.5767e+05
2.5787e+05
2.5847e+05
2.5866e+05
2.5886e+05
2.5906e+05
2.5946e+05
2.6007e+05
2.6026e+05
2.6066e+05
2.6085e+05
2.6126e+05
2.6145e+05
2.6165e+05
2.6185e+05
2.6244e+05
2.6305e+05
2.6325e+05
2.6344e+05
2.6365e+05
2.6384e+05
2.6425e+05
2.6445e+05
2.6464e+05
2.6484e+05
2.6504e+05
2.6524e+05
2.6544e+05
2.6564e+05
2.6583e+05
2.6604e+05
2.6623e+05
2.6643e+05
2.6662e+05
2.6704e+05
2.6723e+05
2.6743e+05
2.6763e+05
2.6783e+05
2.6823e+05
2.6843e+05
2.6903e+05
2.6923e+05
2.6962e+05
2.6982e+05
2.7002e+05
2.7022e+05
2.7043e+05
2.7061e+05
2.7081e+05
2.7101e+05
2.7121e+05
2.7161e+05
2.7182e+05
2.7201e+05
2.7221e+05
2.7241e+05
2.7261e+05
2.7281e+05
2.7302e+05
2.7321e+05
2.7342e+05
2.7361e+05
2.738e+05
2.74e+05
2.742e+05
2.744e+05
2.7501e+05
2.752e+05
2.7539e+05
2.7576e+05
2.7581e+05
2.7616e+05
2.7621e+05
2.766e+05
2.778e+05
2.7816e+05
2.7821e+05
2.7839e+05
2.7855e+05
2.786e+05
2.788e+05
2.7895e+05
2.79e+05
2.7919e+05
2.7959e+05
2.7974e+05
2.7979e+05
2.8014e+05
2.8019e+05
2.8039e+05
2.8059e+05
2.81e+05
2.8119e+05
2.8139e+05
2.8176e+05
2.8181e+05
2.8199e+05
2.8215e+05
2.8219e+05
2.8278e+05
2.8293e+05
2.8298e+05
2.8334e+05
2.8339e+05
2.8357e+05
2.8377e+05
2.8537e+05
2.8572e+05
2.8577e+05
2.8597e+05
2.8612e+05
2.8617e+05
2.8677e+05
2.8692e+05
2.8697e+05
2.8715e+05
2.8731e+05
2.8736e+05
2.8756e+05
2.8815e+05
2.8834e+05
2.8894e+05
2.8913e+05
2.8929e+05
2.8934e+05
2.8994e+05
2.9013e+05
2.9033e+05
2.9113e+05
2.9133e+05
2.9191e+05
2.9211e+05
2.9247e+05
2.9252e+05
2.927e+05
2.9286e+05
2.929e+05
2.9309e+05
2.933e+05
2.9349e+05
2.939e+05
2.941e+05
2.9429e+05
2.9449e+05
2.9469e+05
2.9488e+05
2.9503e+05
2.9523e+05
2.9548e+05
2.9588e+05
2.9608e+05
2.9627e+05
2.9648e+05
2.9668e+05
2.9687e+05
2.9706e+05
2.9727e+05
2.9747e+05
2.9767e+05
2.9857e+05
2.9937e+05
3.0096e+05
3.0177e+05
3.0617e+05
3.0777e+05
3.0858e+05
3.0897e+05
3.0937e+05
3.1178e+05
3.1536e+05
3.1617e+05
3.1657e+05
3.1776e+05
3.1838e+05
3.1844e+05
3.225e+05
3.273e+05
3.277e+05
3.2871e+05
3.2972e+05
3.3311e+05
3.3413e+05
3.3803e+05
3.3818e+05
3.3842e+05
3.3862e+05
3.3882e+05
3.3902e+05
3.3922e+05
3.3942e+05
3.3963e+05
3.3998e+05
3.4023e+05
3.4042e+05
3.4062e+05
3.4083e+05
3.4104e+05
3.4124e+05
3.4143e+05
3.4164e+05
3.4183e+05
3.4203e+05
3.4224e+05
3.4244e+05
3.4264e+05
3.4284e+05
3.4304e+05
3.4323e+05
3.4344e+05
3.4364e+05
3.4384e+05
3.4404e+05
3.4424e+05
3.4443e+05
3.4463e+05
3.4484e+05
3.4503e+05
3.4523e+05
3.4544e+05
3.4564e+05
3.4584e+05
3.4604e+05
3.4624e+05
3.4643e+05
3.4664e+05
3.4684e+05
3.4705e+05
3.4724e+05
3.4744e+05
3.4764e+05
3.4783e+05
3.4803e+05
3.4824e+05
3.4864e+05
3.4922e+05
3.4982e+05
3.5023e+05
3.5103e+05
3.5123e+05
3.5183e+05
3.5202e+05
3.5262e+05
3.5281e+05
3.5301e+05
3.534e+05
3.5359e+05
3.5379e+05
3.5399e+05
3.5419e+05
3.544e+05
3.5459e+05
3.5479e+05
3.5499e+05
3.5518e+05
3.5539e+05
3.5559e+05
3.5579e+05
3.5795e+05
3.5835e+05
3.5857e+05
3.5876e+05
3.5896e+05
3.5916e+05
3.5935e+05
3.5955e+05
3.5994e+05
3.6013e+05
3.603e+05
3.6048e+05
3.6073e+05
3.6091e+05
3.6111e+05
3.6151e+05
3.6171e+05
3.619e+05
3.6209e+05
3.6248e+05
3.6268e+05
3.6348e+05
3.6407e+05
3.6428e+05
3.6448e+05
3.6488e+05
3.6508e+05
3.6527e+05
3.6567e+05
3.6588e+05
3.6608e+05
3.6628e+05
3.6648e+05
3.6668e+05
3.6688e+05
3.6708e+05
3.673e+05
3.675e+05
3.677e+05
3.679e+05
3.681e+05
3.683e+05
3.685e+05
3.6871e+05
3.6891e+05
3.6911e+05
3.6931e+05
3.6952e+05
3.6971e+05
3.7011e+05
3.7033e+05
3.7052e+05
3.7092e+05
3.7113e+05
3.7132e+05
3.7174e+05
3.7194e+05
3.7235e+05
3.7255e+05
3.7295e+05
3.7316e+05
3.7336e+05
3.7377e+05
3.7396e+05
3.7415e+05
3.7436e+05
3.7457e+05
3.7477e+05
3.7518e+05
3.7538e+05
3.7558e+05
3.7577e+05
3.7599e+05
3.7634e+05
3.7639e+05
3.7654e+05
3.7675e+05
3.7679e+05
3.77e+05
3.774e+05
3.7781e+05
3.7797e+05
3.7802e+05
3.782e+05
3.7841e+05
3.7861e+05
3.7876e+05
3.7881e+05
3.7901e+05
3.7921e+05
3.7996e+05
3.8001e+05
3.8022e+05
3.8037e+05
3.8041e+05
3.8062e+05
3.8083e+05
3.8102e+05
3.8118e+05
3.8123e+05
3.8142e+05
3.8158e+05
3.8162e+05
3.8183e+05
3.8198e+05
3.8203e+05
3.8222e+05
3.8237e+05
3.8257e+05
3.8282e+05
3.83e+05
3.8322e+05
3.8341e+05
3.8361e+05
3.8381e+05
3.8422e+05
3.8438e+05
3.8443e+05
3.8543e+05
3.8563e+05
3.8598e+05
3.8603e+05
3.8622e+05
3.8638e+05
3.8643e+05
3.8662e+05
3.8702e+05
3.8722e+05
3.8742e+05
3.8758e+05
3.8763e+05
3.8782e+05
3.8799e+05
3.8803e+05
3.8823e+05
3.8843e+05
3.8879e+05
3.8896e+05
3.8943e+05
3.8963e+05
3.8983e+05
3.9004e+05
3.9024e+05
3.9043e+05
3.9063e+05
3.9083e+05
3.9123e+05
3.9144e+05
3.9163e+05
3.9203e+05
3.9223e+05
3.9264e+05
3.9284e+05
3.9323e+05
3.9344e+05
3.9364e+05
3.9384e+05
3.9405e+05
3.9425e+05
3.9444e+05
3.9465e+05
3.9485e+05
3.9504e+05
3.9524e+05
3.9546e+05
3.9565e+05
3.9584e+05
3.9605e+05
3.9687e+05
3.9726e+05
3.9742e+05
3.9777e+05
3.9817e+05
3.9858e+05
3.9878e+05
3.9915e+05
3.9958e+05
4.0218e+05
4.032e+05
4.0528e+05
4.0552e+05
4.0626e+05
4.0636e+05
4.0771e+05
4.0908e+05
4.0917e+05
4.1229e+05
4.1234e+05
4.1472e+05
4.1482e+05
4.154e+05
4.2405e+05
4.2452e+05
4.2654e+05
4.2754e+05
4.2896e+05
4.3663e+05
4.3727e+05
4.3753e+05
4.3774e+05
4.3794e+05
4.3815e+05
4.3836e+05
4.3855e+05
4.3874e+05
4.3895e+05
4.3915e+05
4.3935e+05
4.3955e+05
4.3976e+05
4.3996e+05
4.4016e+05
4.4036e+05
4.4057e+05
4.4077e+05
4.4098e+05
4.4118e+05
4.414e+05
4.4199e+05
4.422e+05
4.4239e+05
4.4281e+05
4.4361e+05
4.4423e+05
4.4443e+05
4.4504e+05
4.4524e+05
4.4544e+05
4.4565e+05
4.4586e+05
4.4606e+05
4.4646e+05
4.4667e+05
4.4687e+05
4.4707e+05
4.4728e+05
4.4748e+05
4.4787e+05
4.4808e+05
4.489e+05
4.491e+05
4.4992e+05
4.5073e+05
4.5112e+05
4.5133e+05
4.5154e+05
4.5235e+05
4.5256e+05
4.5296e+05
4.5318e+05
4.5337e+05
4.5357e+05
4.5379e+05
4.5398e+05
4.5419e+05
4.5461e+05
4.5481e+05
4.5501e+05
4.5541e+05
4.5563e+05
4.5583e+05
4.5603e+05
4.5644e+05
4.5664e+05
4.5704e+05
4.5725e+05
4.5746e+05
4.5806e+05
4.5869e+05
4.597e+05
4.599e+05
4.601e+05
4.6051e+05
4.6072e+05
4.6092e+05
4.6132e+05
4.6154e+05
4.6173e+05
4.6194e+05
4.6215e+05
4.6235e+05
4.6275e+05
4.6296e+05
4.6358e+05
4.644e+05
4.646e+05
4.65e+05
4.6521e+05
4.6541e+05
4.6602e+05
4.6623e+05
4.6663e+05
4.6684e+05
4.6705e+05
4.6766e+05
4.6787e+05
4.6807e+05
4.6827e+05
4.6846e+05
4.6867e+05
4.6888e+05
4.6908e+05
4.6928e+05
4.6949e+05
4.697e+05
4.6989e+05
4.7009e+05
4.703e+05
4.7052e+05
4.7072e+05
4.7133e+05
4.7153e+05
4.7215e+05
4.7235e+05
4.7275e+05
4.7296e+05
4.7316e+05
4.7357e+05
4.7378e+05
4.7398e+05
4.7438e+05
4.7458e+05
4.7479e+05
4.7499e+05
4.7521e+05
4.7541e+05
4.7561e+05
4.758e+05
4.7601e+05
4.7623e+05
4.7643e+05
4.7663e+05
4.7684e+05
4.7705e+05
4.7724e+05
4.7744e+05
4.776e+05
4.7765e+05
4.7786e+05
4.7802e+05
4.7807e+05
4.7826e+05
4.7847e+05
4.7867e+05
4.7883e+05
4.7888e+05
4.7949e+05
4.797e+05
4.801e+05
4.8031e+05
4.8046e+05
4.8051e+05
4.8113e+05
4.8153e+05
4.8174e+05
4.8192e+05
4.8214e+05
4.8234e+05
4.8251e+05
4.8256e+05
4.8274e+05
4.829e+05
4.8295e+05
4.8314e+05
4.8356e+05
4.8371e+05
4.8377e+05
4.8396e+05
4.8413e+05
4.8418e+05
4.8438e+05
4.8458e+05
4.8494e+05
4.8499e+05
4.8519e+05
4.8539e+05
4.8575e+05
4.858e+05
4.8599e+05
4.8615e+05
4.862e+05
4.8681e+05
4.8697e+05
4.8702e+05
4.8738e+05
4.8742e+05
4.8761e+05
4.8782e+05
4.8823e+05
4.8844e+05
4.8863e+05
4.8883e+05
4.8899e+05
4.8904e+05
4.8923e+05
4.8939e+05
4.8943e+05
4.8964e+05
4.8981e+05
4.8986e+05
4.9004e+05
4.9025e+05
4.9045e+05
4.9065e+05
4.9085e+05
4.9127e+05
4.9166e+05
4.9187e+05
4.9207e+05
4.9222e+05
4.9228e+05
4.9269e+05
4.929e+05
4.9329e+05
4.935e+05
4.9411e+05
4.9512e+05
4.9551e+05
4.9613e+05
4.9632e+05
4.9726e+05
4.9766e+05
4.9994e+05
5.0018e+05
5.0049e+05
5.009e+05
5.0131e+05
5.0172e+05
5.0333e+05
5.0374e+05
5.0404e+05
5.0415e+05
5.0456e+05
5.0578e+05
5.0638e+05
5.0699e+05
5.0943e+05
5.1045e+05
5.1187e+05
5.143e+05
5.1511e+05
5.1755e+05
5.1829e+05
5.2038e+05
5.2079e+05
5.224e+05
5.2445e+05
5.2485e+05
5.2566e+05
5.273e+05
5.2934e+05
5.3096e+05
5.3137e+05
5.3505e+05
5.3587e+05
5.3658e+05
5.3678e+05
5.3695e+05
5.3718e+05
5.3739e+05
5.3759e+05
5.3778e+05
5.3799e+05
5.382e+05
5.384e+05
5.3859e+05
5.388e+05
5.39e+05
5.392e+05
5.3961e+05
5.3982e+05
5.4002e+05
5.4023e+05
5.4043e+05
5.4063e+05
5.4084e+05
5.4106e+05
5.4125e+05
5.4146e+05
5.4167e+05
5.4186e+05
5.4206e+05
5.4227e+05
5.4247e+05
5.4267e+05
5.4308e+05
5.4329e+05
5.4348e+05
5.439e+05
5.4431e+05
5.4451e+05
5.4471e+05
5.4492e+05
5.4513e+05
5.4575e+05
5.4595e+05
5.4635e+05
5.4655e+05
5.4676e+05
5.4717e+05
5.4737e+05
5.4757e+05
5.4778e+05
5.4799e+05
5.4818e+05
5.4861e+05
5.4881e+05
5.4922e+05
5.4943e+05
5.4963e+05
5.5004e+05
5.5026e+05
5.5045e+05
5.5106e+05
5.5208e+05
5.529e+05
5.5312e+05
5.5331e+05
5.5392e+05
5.5413e+05
5.5433e+05
5.5474e+05
5.5496e+05
5.5515e+05
5.5535e+05
5.5556e+05
5.5577e+05
5.5597e+05
5.5617e+05
5.5638e+05
5.5659e+05
5.5678e+05
5.5699e+05
5.572e+05
5.5783e+05
5.5802e+05
5.5843e+05
5.5865e+05
5.5885e+05
5.5945e+05
5.5966e+05
5.5996e+05
5.6027e+05
5.6049e+05
5.6068e+05
5.6088e+05
5.6129e+05
5.617e+05
5.6192e+05
5.6212e+05
5.6232e+05
5.6252e+05
5.6293e+05
5.6314e+05
5.6366e+05
5.6389e+05
5.6414e+05
5.6429e+05
5.6451e+05
5.6472e+05
5.6492e+05
5.6531e+05
5.6552e+05
5.6573e+05
5.6599e+05
5.6624e+05
5.6655e+05
5.6675e+05
5.6706e+05
5.6736e+05
5.6758e+05
5.6778e+05
5.6818e+05
5.6838e+05
5.6858e+05
5.6878e+05
5.69e+05
5.6931e+05
5.696e+05
5.6981e+05
5.7021e+05
5.7043e+05
5.7064e+05
5.7095e+05
5.7124e+05
5.7145e+05
5.7176e+05
5.7206e+05
5.7253e+05
5.7267e+05
5.7288e+05
5.7314e+05
5.7334e+05
5.7349e+05
5.737e+05
5.739e+05
5.7416e+05
5.7436e+05
5.7451e+05
5.7472e+05
5.7493e+05
5.7519e+05
5.7553e+05
5.7574e+05
5.7595e+05
5.7621e+05
5.7642e+05
5.7656e+05
5.7677e+05
5.7698e+05
5.7738e+05
5.7757e+05
5.7785e+05
5.7809e+05
5.784e+05
5.7882e+05
5.7913e+05
5.7944e+05
5.7948e+05
5.7965e+05
5.7995e+05
5.8028e+05
5.8046e+05
5.8072e+05
5.8097e+05
5.8127e+05
5.8153e+05
5.8172e+05
5.8188e+05
5.8209e+05
5.8233e+05
5.8274e+05
5.8291e+05
5.8314e+05
5.8332e+05
5.8357e+05
5.8372e+05
5.8399e+05
5.8414e+05
5.8435e+05
5.8517e+05
5.8578e+05
5.8608e+05
5.8741e+05
5.8803e+05
5.8823e+05
5.8853e+05
5.891e+05
5.8924e+05
5.9006e+05
5.9026e+05
5.9108e+05
5.9148e+05
5.9169e+05
5.9188e+05
5.9229e+05
5.925e+05
5.929e+05
5.9311e+05
5.9371e+05
5.9432e+05
5.9453e+05
5.9492e+05
5.9667e+05
5.9748e+05
5.9789e+05
5.9829e+05
5.995e+05
6.0094e+05
6.0278e+05
6.0343e+05
6.0379e+05
6.0532e+05
6.0564e+05
6.0646e+05
6.0686e+05
6.0737e+05
6.0768e+05
6.0808e+05
6.0932e+05
6.1014e+05
6.1055e+05
6.1268e+05
6.1299e+05
6.1379e+05
6.1412e+05
6.1443e+05
6.1505e+05
6.1626e+05
6.1707e+05
6.175e+05
6.2117e+05
6.2259e+05
6.2321e+05
6.2443e+05
6.2771e+05
6.2872e+05
6.3056e+05
6.3302e+05
6.3344e+05
6.3466e+05
6.3575e+05
6.3609e+05
6.364e+05
6.3661e+05
6.3681e+05
6.3702e+05
6.3722e+05
6.3742e+05
6.3756e+05
6.3782e+05
6.3804e+05
6.3824e+05
6.3844e+05
6.3863e+05
6.3885e+05
6.3906e+05
6.3925e+05
6.3942e+05
6.3968e+05
6.3984e+05
6.3989e+05
6.4009e+05
6.4029e+05
6.406e+05
6.4112e+05
6.4133e+05
6.4146e+05
6.4172e+05
6.4193e+05
6.4223e+05
6.4254e+05
6.4275e+05
6.4295e+05
6.4315e+05
6.4345e+05
6.4377e+05
6.4397e+05
6.4418e+05
6.4438e+05
6.4458e+05
6.4478e+05
6.4499e+05
6.452e+05
6.454e+05
6.456e+05
6.4581e+05
6.4602e+05
6.4621e+05
6.4641e+05
6.4662e+05
6.4684e+05
6.4703e+05
6.4724e+05
6.4744e+05
6.476e+05
6.4764e+05
6.4784e+05
6.4804e+05
6.4826e+05
6.484e+05
6.4856e+05
6.4861e+05
6.4886e+05
6.4907e+05
6.4937e+05
