280
1543
1843
2422
2695
3005
3910
4175
4434
4711
4980
5254
5894
6175
6430
6692
6972
7265
7557
7848
8143
8428
8688
8950
9233
9524
9838
10134
10411
10690
10958
11229
11800
12103
12407
13207
13493
13780
14066
14365
14657
14934
15206
15469
15754
16064
16663
17218
17488
18022
18321
18628
18928
19210
19480
19761
20055
20346
20640
20946
21227
21490
21751
22016
22304
22613
22913
23200
23472
23730
23986
24251
24529
24825
25216
25488
25745
26017
26288
26559
26837
27129
27431
28149
28504
28774
29017
29345
29659
30184
31222
31429
31788
32038
32277
32508
32754
33003
33260
34163
34409
34684
34960
35245
35530
35809
36098
36388
36658
36919
37176
37458
37753
38027
38298
38564
38821
39067
39324
39592
39869
40179
41025
41304
41588
41868
42171
42386
43347
43643
45429
45701
45894
46307
46609
46920
47475
47739
48023
48304
48588
48900
49192
49450
49699
49956
50223
50515
50816
51114
51411
52213
52478
52760
53049
53608
53863
54129
54375
54930
55223
55522
55809
56662
56901
58022
58647
58926
59221
59789
60334
61171
61476
61794
62398
62665
63230
63513
63822
64143
64437
64979
65570
65891
66526
66814
67092
68307
68593
68872
69140
69669
69947
70224
70524
70801
71045
71295
71803
72051
72324
72596
72814
73050
73356
73589
73831
74084
74349
74602
74862
75111
75570
75796
76687
76982
77275
77553
78093
78650
78955
79456
79809
80064
80335
80615
81196
81489
81773
82034
82289
82434
83140
83442
83716
83994
84272
84538
84811
85412
86035
86860
87429
87739
88033
88311
88582
88842
89124
89420
89712
90000
90281
90538
90794
91043
91564
91849
91995
92388
92638
92780
93138
93544
93964
94261
94572
94841
95101
95372
95660
95974
96281
96435
96503
96912
97194
97477
98101
98421
98733
99026
99175
1.0324e+05
1.0378e+05
1.0524e+05
1.061e+05
1.0656e+05
1.0986e+05
1.1037e+05
1.1186e+05
1.1257e+05
1.1536e+05
1.1656e+05
1.2318e+05
1.2966e+05
1.3943e+05
1.4553e+05
1.4646e+05
1.4746e+05
1.4827e+05
1.5317e+05
1.5955e+05
1.6489e+05
1.7138e+05
1.7276e+05
1.7874e+05
1.8129e+05
1.9889e+05
1.9894e+05
1.9937e+05
2.0001e+05
2.012e+05
2.0151e+05
2.0252e+05
2.0318e+05
2.2356e+05
2.2537e+05
2.2661e+05
2.3136e+05
2.3339e+05
2.3851e+05
2.3915e+05
2.3943e+05
2.3971e+05
2.4027e+05
2.4088e+05
2.4152e+05
2.4196e+05
2.4242e+05
2.4308e+05
2.4462e+05
2.4644e+05
2.4702e+05
2.4796e+05
2.4824e+05
2.4937e+05
2.4966e+05
2.5051e+05
2.5078e+05
2.51e+05
2.5134e+05
2.5165e+05
2.5194e+05
2.5225e+05
2.5281e+05
2.5339e+05
2.5402e+05
2.5584e+05
2.5682e+05
2.5862e+05
2.6382e+05
2.7439e+05
2.7627e+05
2.7783e+05
2.8067e+05
2.8355e+05
2.9018e+05
2.9194e+05
2.9843e+05
3.0149e+05
3.0187e+05
3.0664e+05
3.089e+05
3.1045e+05
3.1379e+05
3.1978e+05
3.2524e+05
3.2774e+05
3.289e+05
3.3369e+05
3.3804e+05
3.3852e+05
3.3997e+05
3.4182e+05
3.4804e+05
3.4968e+05
3.5099e+05
3.5454e+05
3.5595e+05
3.5627e+05
3.579e+05
3.5846e+05
3.5926e+05
3.6171e+05
3.6222e+05
3.6755e+05
3.6858e+05
3.6904e+05
3.7267e+05
3.7423e+05
3.8012e+05
3.815e+05
3.82e+05
3.8254e+05
3.8282e+05
3.8859e+05
3.9529e+05
5.479e+05
5.5205e+05
5.5851e+05
5.7216e+05
5.9127e+05
6.0341e+05
6.0498e+05
-1
435
748
1061
1383
1693
1991
2234
2563
2849
3090
3352
3786
4059
4317
4580
4853
5126
5415
5754
6051
6311
6575
6839
6882
7123
7413
7706
8003
8296
8570
8826
9099
9384
9683
9989
10281
10556
10836
11105
11376
11664
11959
12261
12548
12754
13087
13363
13648
13929
14222
14517
14801
15072
15341
15613
15917
16230
16526
16820
17093
17362
17623
17892
18176
18488
18790
19075
19356
19628
19916
20206
20497
20802
21102
21373
21630
21896
22168
22469
22772
23068
23347
23617
23873
24132
24405
24686
24997
25307
25388
25622
25665
25888
25933
26164
26434
26712
26763
27001
27290
27588
27649
27852
27915
28114
28278
28315
28660
28948
28995
29176
29528
29594
29765
29966
30315
30556
30737
31098
31149
31305
31588
31927
32172
32225
32414
32651
32898
33151
33190
33415
33469
33599
33780
34047
34086
34328
34559
34598
34823
34864
35109
35389
35427
35681
35718
35966
36004
36254
36293
36530
36567
36793
37058
37094
37324
37364
37616
37902
38180
38445
38712
38958
39203
39463
39734
40027
40292
40507
40895
40935
41169
41447
41725
42017
42322
42633
42948
42983
43217
43494
43534
43798
44103
44405
44670
44881
45299
45566
45824
46129
46467
46773
47028
47239
47616
47654
47897
48175
48453
48493
48751
49062
49334
49590
49838
50098
50151
50377
50665
50962
51265
51713
52091
52358
52626
52913
53197
53398
53751
54005
54268
54517
54796
55078
55374
55667
55939
56104
56527
56564
56820
57043
57433
57731
58132
58344
58791
58831
59080
59381
59657
59941
60213
60479
60736
60904
61324
61368
61632
61951
62201
62533
62801
63011
63378
63667
63993
64300
64576
64844
65123
65418
65724
66040
66370
66672
66712
66954
67233
67378
67692
68151
68454
68743
69019
69270
69436
69817
70101
70384
70459
70671
70716
70978
71182
71435
71616
71939
71998
72204
72473
72746
72972
73192
73490
73728
73983
74240
74492
74749
75004
75255
75499
75733
75971
76424
76844
76890
77132
77167
77423
77462
77700
77970
78236
78467
78809
79118
79160
79371
79574
79952
80205
80484
80762
80937
81356
81646
81918
82170
82394
82592
82999
83042
83294
83333
83592
83864
84141
84179
84406
84676
84958
85256
85579
85894
86180
86279
86510
87009
87052
87294
87341
87609
87646
87893
87933
88176
88213
88450
88486
88712
88748
88987
89068
89283
89320
89574
89859
89902
90146
90191
90419
90676
90753
90934
91005
91158
91345
91722
92179
92533
92926
93288
93722
94123
94429
94720
94976
95246
95518
95822
96132
96763
97053
97088
97331
97362
97622
97812
98259
98305
98578
98887
1.0055e+05
1.0353e+05
1.0405e+05
1.0521e+05
1.0553e+05
1.0638e+05
1.0675e+05
1.0701e+05
1.0813e+05
1.0983e+05
1.1011e+05
1.1064e+05
1.1216e+05
1.1271e+05
1.1372e+05
1.1553e+05
1.1672e+05
1.2328e+05
1.2362e+05
1.2981e+05
1.3424e+05
1.3436e+05
1.3959e+05
1.3974e+05
1.4043e+05
1.4063e+05
1.4115e+05
1.4233e+05
1.4263e+05
1.4292e+05
1.4322e+05
1.4353e+05
1.4357e+05
1.4384e+05
1.4417e+05
1.4448e+05
1.4482e+05
1.4484e+05
1.4537e+05
1.4541e+05
1.4569e+05
1.46e+05
1.4631e+05
1.4661e+05
1.4709e+05
1.4769e+05
1.4842e+05
1.4878e+05
1.488e+05
1.4927e+05
1.4931e+05
1.4955e+05
1.5004e+05
1.5097e+05
1.515e+05
1.5226e+05
1.5231e+05
1.5259e+05
1.5265e+05
1.5333e+05
1.5595e+05
1.5612e+05
1.5631e+05
1.5971e+05
1.6222e+05
1.6249e+05
1.6252e+05
1.6276e+05
1.6296e+05
1.6507e+05
1.7157e+05
1.7292e+05
1.7687e+05
1.7737e+05
1.7827e+05
1.7896e+05
1.8144e+05
1.9919e+05
1.9972e+05
2.0027e+05
2.0145e+05
2.0178e+05
2.0283e+05
2.0311e+05
2.0335e+05
2.2374e+05
2.2554e+05
2.2677e+05
2.3152e+05
2.336e+05
2.3863e+05
2.3887e+05
2.393e+05
2.3933e+05
2.3957e+05
2.3985e+05
2.4012e+05
2.4042e+05
2.4073e+05
2.4104e+05
2.4137e+05
2.4176e+05
2.4211e+05
2.4257e+05
2.4291e+05
2.4324e+05
2.4341e+05
2.4448e+05
2.4476e+05
2.4495e+05
2.4545e+05
2.456e+05
2.4631e+05
2.4679e+05
2.4713e+05
2.4735e+05
2.4781e+05
2.481e+05
2.4837e+05
2.484e+05
2.4865e+05
2.4902e+05
2.4953e+05
2.4999e+05
2.504e+05
2.5065e+05
2.5091e+05
2.512e+05
2.515e+05
2.5154e+05
2.518e+05
2.5209e+05
2.5213e+05
2.5239e+05
2.5244e+05
2.5267e+05
2.5289e+05
2.5312e+05
2.5354e+05
2.537e+05
2.5413e+05
2.5435e+05
2.5493e+05
2.5601e+05
2.5713e+05
2.588e+05
2.5939e+05
2.6399e+05
2.7455e+05
2.7514e+05
2.7661e+05
2.7801e+05
2.8082e+05
2.8372e+05
2.9036e+05
2.9209e+05
2.9836e+05
2.9865e+05
2.9902e+05
2.993e+05
3.0177e+05
3.0202e+05
3.0696e+05
3.091e+05
3.1062e+05
3.1396e+05
3.1994e+05
3.2546e+05
3.2792e+05
3.2907e+05
3.3386e+05
3.3818e+05
3.3869e+05
3.3916e+05
3.3947e+05
3.3979e+05
3.4019e+05
3.4021e+05
3.4078e+05
3.4109e+05
3.4138e+05
3.4167e+05
3.4215e+05
3.4288e+05
3.4335e+05
3.457e+05
3.4633e+05
3.4662e+05
3.4821e+05
3.5001e+05
3.5117e+05
3.5415e+05
3.5417e+05
3.5469e+05
3.5507e+05
3.5564e+05
3.5615e+05
3.5642e+05
3.5668e+05
3.5714e+05
3.5778e+05
3.5826e+05
3.5877e+05
3.5913e+05
3.5917e+05
3.5958e+05
3.6191e+05
3.6254e+05
3.634e+05
3.6675e+05
3.6743e+05
3.679e+05
3.6876e+05
3.6937e+05
3.7021e+05
3.7106e+05
3.7189e+05
3.73e+05
3.744e+05
3.7672e+05
3.7688e+05
3.7818e+05
3.7977e+05
3.8045e+05
3.8087e+05
3.8119e+05
3.8135e+05
3.8168e+05
3.8234e+05
3.8269e+05
3.8314e+05
3.8813e+05
3.8888e+05
3.9544e+05
3.9726e+05
4.025e+05
4.1248e+05
4.1268e+05
4.3095e+05
4.3719e+05
4.3752e+05
4.3793e+05
4.3795e+05
4.3849e+05
4.3852e+05
4.3879e+05
4.391e+05
4.3913e+05
4.3941e+05
4.3976e+05
4.398e+05
4.4018e+05
4.4072e+05
4.4075e+05
4.4101e+05
4.4105e+05
4.4133e+05
4.4164e+05
4.4196e+05
4.423e+05
4.4235e+05
4.4261e+05
4.429e+05
4.432e+05
4.435e+05
4.4354e+05
4.4379e+05
4.4406e+05
4.4458e+05
4.4507e+05
4.4534e+05
4.4562e+05
4.4566e+05
4.4608e+05
4.464e+05
4.4698e+05
4.4733e+05
4.476e+05
4.4764e+05
4.4786e+05
4.4833e+05
4.4873e+05
4.4918e+05
4.497e+05
4.4995e+05
4.5648e+05
4.5742e+05
4.5797e+05
4.582e+05
4.5902e+05
4.6754e+05
4.6926e+05
4.7321e+05
4.8928e+05
4.9733e+05
5.0179e+05
5.0499e+05
5.0528e+05
5.1275e+05
5.244e+05
5.3088e+05
5.3263e+05
5.3436e+05
5.3647e+05
5.3652e+05
5.3676e+05
5.3682e+05
5.3704e+05
5.3708e+05
5.3735e+05
5.3741e+05
5.3763e+05
5.3771e+05
5.3789e+05
5.3794e+05
5.3816e+05
5.3842e+05
5.3871e+05
5.3902e+05
5.3932e+05
5.3962e+05
5.3992e+05
5.402e+05
5.4036e+05
5.4097e+05
5.414e+05
5.4192e+05
5.4216e+05
5.4307e+05
5.4334e+05
5.438e+05
5.4416e+05
5.442e+05
5.4457e+05
5.4491e+05
5.4495e+05
5.4519e+05
5.4523e+05
5.4548e+05
5.4552e+05
5.4577e+05
5.4627e+05
5.4667e+05
5.4683e+05
5.4726e+05
5.4768e+05
5.4808e+05
5.4872e+05
5.4905e+05
5.4926e+05
5.5134e+05
5.5222e+05
5.5868e+05
5.7232e+05
5.7288e+05
5.7372e+05
5.7487e+05
5.7564e+05
5.773e+05
5.7867e+05
5.7909e+05
5.795e+05
5.7953e+05
5.8327e+05
5.8456e+05
5.8506e+05
5.8548e+05
5.8588e+05
5.8595e+05
5.8648e+05
5.9025e+05
5.9146e+05
5.9626e+05
5.9658e+05
5.9887e+05
5.9923e+05
6.0161e+05
6.0276e+05
6.0367e+05
6.0494e+05
6.0522e+05
6.0554e+05
6.082e+05
6.0897e+05
6.097e+05
6.1107e+05
6.1159e+05
6.1448e+05
6.1468e+05
6.1758e+05
6.2087e+05
6.2462e+05
6.2717e+05
6.3572e+05
6.3576e+05
6.36e+05
6.3605e+05
6.3631e+05
6.3661e+05
6.369e+05
6.3717e+05
6.3744e+05
6.3747e+05
6.3769e+05
6.3805e+05
6.3812e+05
6.385e+05
6.3879e+05
6.3908e+05
6.3951e+05
6.3977e+05
6.4013e+05
6.4038e+05
6.4067e+05
6.4071e+05
6.4095e+05
6.4123e+05
6.4127e+05
6.4156e+05
6.4158e+05
6.4203e+05
6.4207e+05
6.423e+05
6.4234e+05
6.4278e+05
6.4328e+05
6.4375e+05
6.4379e+05
6.4403e+05
6.4448e+05
6.4526e+05
