251
440
638
836
1035
1228
1421
1605
1793
1981
2162
2345
2530
2720
2920
3127
3330
3538
3728
3910
4092
4282
4458
4647
4843
5048
5241
5437
5834
6003
6199
6572
6755
6949
7148
7348
7549
7751
7955
8333
8511
8693
8882
9101
9486
9682
9911
10423
10815
11386
11578
11803
11980
12183
12373
12765
12918
13124
13279
13464
13664
13866
14070
14455
14638
14823
15202
15589
15781
16178
16372
16571
16946
17121
17303
17664
17859
18062
18260
18398
18654
18839
19022
19205
19380
19504
19750
19948
20141
20338
20528
20727
20929
21120
21298
21478
21655
21842
22033
22219
22418
22617
22825
23219
23399
23579
23758
23950
24139
24338
24536
24737
24939
25140
25330
25514
25697
25878
26246
26434
26636
26851
27059
27261
27452
27652
28003
28181
28370
28562
28761
28956
29149
29337
29526
29716
29899
30076
30254
30428
30615
31002
31200
31400
31605
31795
31980
32159
32336
32519
32717
32912
33115
33307
33508
33922
34084
34267
34454
34641
35022
35213
35418
35631
36221
36406
36613
36770
37146
37342
37545
37743
37941
38132
38506
38687
38867
39049
39256
39413
39609
39804
40009
40206
40405
40588
40767
40948
41129
41318
41515
41727
41913
42115
42305
42521
42683
42869
43051
43242
43428
43620
43810
44008
44214
44422
44812
44994
45568
45722
45920
46104
46326
46526
46722
46906
47089
47272
47457
47641
47832
48015
48205
48404
48600
48795
48986
49175
49356
49537
49714
49889
50077
50277
50481
50683
50884
51079
51270
51451
51630
51815
52002
52198
52391
52592
52790
52991
53191
53390
53762
53934
54116
54299
54496
54686
54887
55089
55296
55490
55672
55847
56028
56213
56406
56591
56787
56982
57174
57561
57930
58108
58651
59236
59436
59632
59818
59997
60360
60534
60716
60903
61107
61294
61502
61691
61882
62069
62261
62625
62995
63189
63385
63577
63781
63989
64178
64385
64574
64719
65235
65500
65702
65894
66089
66286
66464
66642
66819
67026
67180
67376
67548
67767
67948
68189
68380
68562
68757
68915
69261
69439
69649
69846
70047
70248
70464
70598
70834
71010
71192
71351
71485
71928
72123
72325
72524
72718
73083
73281
73436
73614
73803
74026
74190
74393
74583
74780
74963
75151
76062
76262
76456
76664
77416
77764
77947
78129
78323
78521
78724
78921
79122
79323
79481
79668
79854
80044
80237
80613
80806
81000
81195
81391
81605
81961
82123
82698
82900
83099
83298
83488
83666
83848
84022
84585
84779
84981
85182
85373
85593
85943
86127
86297
86484
86680
86863
87048
87216
87416
87626
87847
88178
88371
88557
88720
88940
89107
89501
89697
89889
90454
90608
90788
90974
91161
91358
91562
91773
91994
92195
92341
92547
92720
93064
93280
93454
93867
94050
94247
94437
94630
95179
95363
95553
95754
95956
96171
96362
96565
96783
96937
97141
97301
97488
97692
97889
98099
98313
98674
98865
99051
1.443e+05
2.0046e+05
2.0099e+05
2.0121e+05
2.0138e+05
2.018e+05
2.0199e+05
2.0218e+05
2.0236e+05
2.0274e+05
2.0293e+05
2.0347e+05
2.0367e+05
2.0386e+05
2.0464e+05
2.0501e+05
2.3422e+05
2.4554e+05
2.64e+05
2.9786e+05
2.9823e+05
2.984e+05
2.9906e+05
2.9943e+05
2.9961e+05
3.0016e+05
3.0053e+05
3.0076e+05
3.0113e+05
3.0133e+05
3.0151e+05
3.0171e+05
3.0188e+05
3.0207e+05
3.0226e+05
3.0244e+05
3.0281e+05
3.0304e+05
3.032e+05
3.0341e+05
3.0362e+05
3.0382e+05
3.04e+05
3.0418e+05
3.0437e+05
3.0455e+05
3.0475e+05
3.0557e+05
3.0577e+05
3.0597e+05
3.0616e+05
3.0634e+05
3.0652e+05
3.0672e+05
3.0691e+05
3.073e+05
3.0813e+05
3.0851e+05
3.0887e+05
3.0925e+05
3.0946e+05
3.0988e+05
3.1007e+05
3.1027e+05
3.1045e+05
3.1084e+05
3.1121e+05
3.1142e+05
3.118e+05
3.122e+05
3.1258e+05
3.1277e+05
3.1312e+05
3.1348e+05
3.1407e+05
3.1448e+05
3.1467e+05
3.152e+05
3.1539e+05
3.156e+05
3.1596e+05
3.1619e+05
3.168e+05
3.1699e+05
3.1754e+05
3.1773e+05
3.1793e+05
3.1834e+05
3.1854e+05
3.1875e+05
3.1895e+05
3.195e+05
3.197e+05
3.1988e+05
3.201e+05
3.2029e+05
3.205e+05
3.209e+05
3.2109e+05
3.2128e+05
3.2148e+05
3.2185e+05
3.2205e+05
3.2223e+05
3.2244e+05
3.2266e+05
3.2328e+05
3.2348e+05
3.2363e+05
3.2381e+05
3.2409e+05
3.2459e+05
3.2499e+05
3.2519e+05
3.2539e+05
3.2558e+05
3.2576e+05
3.2632e+05
3.2671e+05
3.2692e+05
3.2712e+05
3.2754e+05
3.2773e+05
3.281e+05
3.2829e+05
3.2889e+05
3.2911e+05
3.293e+05
3.295e+05
3.2989e+05
3.3009e+05
3.3029e+05
3.3045e+05
3.3084e+05
3.3104e+05
3.3147e+05
3.3167e+05
3.3186e+05
3.3242e+05
3.3278e+05
3.3297e+05
3.332e+05
3.3336e+05
3.3357e+05
3.3377e+05
3.3395e+05
3.3414e+05
3.3469e+05
3.3506e+05
3.3525e+05
3.3564e+05
3.3644e+05
3.37e+05
3.3798e+05
3.3818e+05
3.3838e+05
3.3894e+05
3.3952e+05
3.3972e+05
3.3992e+05
3.4012e+05
3.4033e+05
3.4127e+05
3.4146e+05
3.4165e+05
3.4185e+05
3.4246e+05
3.4302e+05
3.4395e+05
3.4415e+05
3.4455e+05
3.4474e+05
3.4493e+05
3.4512e+05
3.4603e+05
3.4624e+05
3.4645e+05
3.4681e+05
3.4722e+05
3.4814e+05
3.5154e+05
3.5487e+05
3.6433e+05
3.6493e+05
3.6668e+05
3.7237e+05
3.7926e+05
3.8396e+05
3.9899e+05
3.9918e+05
3.9937e+05
3.9956e+05
4.9654e+05
4.9674e+05
4.9692e+05
4.9731e+05
4.9773e+05
4.9814e+05
4.9872e+05
4.9891e+05
4.9926e+05
4.9946e+05
4.9965e+05
4.9983e+05
5.0005e+05
5.0026e+05
5.0045e+05
5.0081e+05
5.0102e+05
5.0118e+05
5.0137e+05
5.0156e+05
5.0176e+05
5.0238e+05
5.0259e+05
5.028e+05
5.0295e+05
5.0313e+05
5.0333e+05
5.0353e+05
5.0372e+05
5.0392e+05
5.0432e+05
5.0452e+05
5.0472e+05
5.0491e+05
5.0527e+05
5.0546e+05
5.0564e+05
5.0584e+05
5.0607e+05
5.0628e+05
5.0669e+05
5.0689e+05
5.0708e+05
5.0726e+05
5.0744e+05
5.0764e+05
5.0782e+05
5.0804e+05
5.0824e+05
5.0844e+05
5.0863e+05
5.0883e+05
5.0903e+05
5.0941e+05
5.0976e+05
5.0997e+05
5.1026e+05
5.1073e+05
5.114e+05
5.1174e+05
5.1192e+05
5.1211e+05
5.123e+05
5.127e+05
5.1309e+05
5.1328e+05
5.1345e+05
5.1365e+05
5.1382e+05
5.1419e+05
5.1438e+05
5.1457e+05
5.1521e+05
5.1558e+05
5.1577e+05
5.1597e+05
5.1634e+05
5.1653e+05
5.1736e+05
5.1755e+05
5.1811e+05
5.183e+05
5.1849e+05
5.187e+05
5.1889e+05
5.1907e+05
5.1925e+05
5.1947e+05
5.1966e+05
5.1987e+05
5.2026e+05
5.2076e+05
5.2101e+05
5.216e+05
5.2181e+05
5.22e+05
5.2218e+05
5.2237e+05
5.2255e+05
5.2275e+05
5.2294e+05
5.2333e+05
5.2355e+05
5.2397e+05
5.2418e+05
5.2437e+05
5.2455e+05
5.2491e+05
5.251e+05
5.2596e+05
5.265e+05
5.2688e+05
5.2711e+05
5.2726e+05
5.2745e+05
5.2768e+05
5.2784e+05
5.2804e+05
5.2827e+05
5.2864e+05
5.2918e+05
5.2934e+05
5.2993e+05
5.3018e+05
5.3034e+05
5.3063e+05
5.3094e+05
5.3149e+05
5.3165e+05
5.3208e+05
5.3227e+05
5.3254e+05
5.3267e+05
5.3302e+05
5.334e+05
5.3357e+05
5.3374e+05
5.3396e+05
5.3416e+05
5.3436e+05
5.3468e+05
5.364e+05
5.3683e+05
5.3699e+05
5.3718e+05
5.3736e+05
5.3754e+05
5.3774e+05
5.3791e+05
5.3829e+05
5.3849e+05
5.3871e+05
5.3892e+05
5.3912e+05
5.3968e+05
5.4004e+05
5.4044e+05
5.4064e+05
5.4095e+05
5.4162e+05
5.4295e+05
5.4315e+05
5.4411e+05
5.4527e+05
5.473e+05
5.6678e+05
5.7289e+05
5.7378e+05
5.7933e+05
5.8486e+05
5.8643e+05
5.8794e+05
5.8929e+05
5.9569e+05
5.9602e+05
5.9618e+05
5.9636e+05
5.9655e+05
5.9675e+05
5.9695e+05
5.9716e+05
5.9736e+05
5.9754e+05
5.9773e+05
5.9811e+05
5.9867e+05
5.9906e+05
5.995e+05
5.9971e+05
5.9988e+05
6.0007e+05
6.0025e+05
6.0045e+05
6.0085e+05
6.0108e+05
6.0209e+05
6.0284e+05
6.0325e+05
6.0362e+05
6.0409e+05
6.0445e+05
6.0464e+05
6.0483e+05
6.0523e+05
6.0562e+05
6.0584e+05
6.0603e+05
6.0622e+05
6.064e+05
6.0659e+05
6.0676e+05
6.0694e+05
6.0714e+05
6.0733e+05
6.0753e+05
6.0774e+05
6.0793e+05
6.0833e+05
6.0852e+05
6.087e+05
6.0908e+05
6.0925e+05
6.1029e+05
6.1068e+05
6.1087e+05
6.1105e+05
6.1125e+05
6.1164e+05
6.1203e+05
6.1246e+05
6.1267e+05
6.1286e+05
6.1322e+05
6.1341e+05
6.1379e+05
6.1462e+05
6.1483e+05
6.1501e+05
6.152e+05
6.1538e+05
6.1597e+05
6.1616e+05
6.1636e+05
6.1658e+05
6.1695e+05
6.1715e+05
6.1751e+05
6.1778e+05
6.1825e+05
6.1872e+05
6.1891e+05
6.191e+05
6.195e+05
6.1984e+05
6.2002e+05
6.2102e+05
6.2121e+05
6.2141e+05
6.2178e+05
6.2232e+05
6.2254e+05
6.2338e+05
6.2356e+05
6.2375e+05
6.2411e+05
6.2452e+05
6.2494e+05
6.2534e+05
6.2574e+05
6.2593e+05
6.2611e+05
6.2629e+05
6.2648e+05
6.2668e+05
6.2686e+05
6.2709e+05
6.273e+05
6.2767e+05
6.2807e+05
6.2841e+05
6.2858e+05
6.2881e+05
6.2896e+05
6.2916e+05
6.2957e+05
6.2975e+05
6.2994e+05
6.3013e+05
6.3033e+05
6.3051e+05
6.307e+05
6.3088e+05
6.3125e+05
6.3167e+05
6.3208e+05
6.3245e+05
6.3282e+05
6.3303e+05
6.3385e+05
6.3446e+05
6.3462e+05
6.3481e+05
6.3522e+05
6.354e+05
6.3557e+05
6.358e+05
6.3617e+05
6.3639e+05
6.3658e+05
6.3676e+05
6.3693e+05
6.3711e+05
6.3729e+05
6.3748e+05
6.3787e+05
6.3807e+05
6.3828e+05
6.3848e+05
6.3867e+05
6.3885e+05
6.3903e+05
6.3921e+05
6.394e+05
6.3959e+05
6.3979e+05
6.4019e+05
6.404e+05
6.408e+05
6.4173e+05
6.4418e+05
6.4467e+05
-1
377
572
770
970
1163
1362
1543
1732
1917
2102
2282
2469
2658
2853
3059
3269
3467
3669
3849
4031
4216
4396
4583
4774
4979
5176
5374
5566
5607
5753
5788
5940
6132
6318
6469
6694
6883
7076
7282
7479
7682
7885
8081
8125
8268
8450
8630
8816
9014
9290
9613
9812
9862
10008
10048
10201
10240
10384
10943
10984
11124
11168
11322
11514
11711
11755
11909
12120
12311
12500
12543
12678
12858
13036
13069
13221
13404
13599
13802
14004
14204
14244
14396
14578
14761
14948
15101
15325
15366
15521
15712
15912
15953
16111
16308
16504
16697
16849
17066
17242
17423
17464
17603
17795
17998
18195
18541
18782
18961
19147
19323
19618
19885
20073
20277
20465
20662
20862
21059
21240
21421
21596
21781
21967
22160
22349
22552
22759
22958
23002
23152
23339
23519
23701
23887
24078
24273
24471
24670
24869
25075
25265
25456
25637
25819
26001
26218
26371
26567
26777
26988
27193
27391
27575
27847
28116
28307
28496
28697
28891
29087
29277
29466
29654
29840
30017
30200
30375
30554
30741
30914
31136
31332
31541
31734
31920
32100
32277
32460
32649
32847
33049
33246
33443
33639
33679
33838
33882
34024
34207
34391
34578
34765
34928
35147
35345
35556
35772
35814
35972
36142
36343
36524
36562
36710
36891
36932
37084
37279
37480
37675
37878
38068
38260
38438
38631
38803
38991
39170
39210
39357
39546
39741
39936
40141
40341
40526
40707
40890
41069
41255
41452
41645
41689
41848
42040
42242
42436
42479
42626
42805
42992
43180
43368
43557
43751
43942
44145
44351
44557
44599
44749
44937
45114
45151
45295
45340
45484
45521
45664
45857
46054
46254
46461
46657
46846
47031
47214
47397
47579
47771
47953
48147
48338
48537
48731
48927
49114
49297
49476
49659
49833
50015
50211
50416
50615
50820
51013
51394
51571
51754
51937
52132
52326
52525
52726
52923
53125
53328
53515
53559
53701
53879
54056
54237
54433
54623
54825
55022
55232
55424
55615
55791
55969
56151
56344
56532
56724
56913
57111
57304
57482
57689
57728
57872
58053
58229
58265
58405
58536
58776
58815
58966
59158
59375
59567
59761
59938
60119
60279
60479
60656
60843
61038
61235
61432
61628
61820
62008
62198
62415
62567
62745
62783
62928
63120
63323
63512
63717
63918
64122
64302
64337
64856
65030
65076
65379
65632
65828
66027
66221
66407
66587
66761
66941
66981
67122
67305
67498
67686
67889
68139
68317
68355
68507
68715
68862
69027
69069
69208
69390
69587
69780
69984
70179
70375
70783
70932
70974
71112
71153
71294
71763
72063
72259
72460
72653
72848
73007
73207
73245
73378
73557
73741
73939
74132
74330
74525
74718
74905
75090
75312
75488
75676
75823
75865
76009
76203
76390
76588
76624
76788
76827
76986
77025
77170
77208
77355
77530
77570
77706
77887
78067
78259
78454
78657
78855
79056
79243
79283
79423
79607
79792
79976
80170
80357
80399
80549
80741
80938
81127
81330
81514
81561
81698
81741
81876
82057
82090
82237
82425
82471
82623
82827
83027
83230
83425
83610
83793
83968
84148
84357
84525
84714
84912
85110
85308
85506
85547
85704
85744
85886
86065
86102
86238
86416
86599
86787
86821
86965
87158
87358
87562
87751
87798
87945
87993
88121
88301
88335
88475
88512
88664
88847
88892
89038
89237
89278
89431
89624
89830
90012
90048
90195
90234
90408
90553
90727
90916
90952
91100
91291
91497
91710
91907
92104
92150
92283
92467
92513
92649
92688
92831
92865
93004
93192
93230
93388
93592
93995
94180
94371
94564
94755
94800
94934
94975
95120
95299
95492
95682
95886
96091
96291
96502
96688
96732
96872
97052
97096
97238
97427
97628
97825
98033
98228
98426
98469
98614
98804
98987
99173
99218
99497
99510
1.0974e+05
1.0976e+05
1.1013e+05
1.3773e+05
1.3804e+05
1.3805e+05
1.3946e+05
1.3966e+05
1.3984e+05
1.4002e+05
1.4021e+05
1.4039e+05
1.4042e+05
1.4058e+05
1.4077e+05
1.4082e+05
1.4097e+05
1.4117e+05
1.4122e+05
1.4137e+05
1.4157e+05
1.4161e+05
1.4177e+05
1.4196e+05
1.42e+05
1.4215e+05
1.4233e+05
1.4252e+05
1.427e+05
1.4289e+05
1.4309e+05
1.4329e+05
1.4349e+05
1.4384e+05
1.4385e+05
1.4422e+05
1.4423e+05
1.4458e+05
1.4459e+05
1.4503e+05
1.4523e+05
1.4544e+05
1.4564e+05
1.4584e+05
1.4617e+05
1.4619e+05
1.473e+05
1.4731e+05
1.4755e+05
1.4759e+05
1.4789e+05
1.479e+05
1.4867e+05
1.5418e+05
1.542e+05
1.5608e+05
1.5819e+05
1.5821e+05
1.5882e+05
1.6243e+05
1.6245e+05
1.7362e+05
1.7835e+05
1.7837e+05
1.7891e+05
1.7893e+05
1.7979e+05
1.8012e+05
1.8046e+05
1.8047e+05
1.8314e+05
1.8315e+05
1.8989e+05
1.8991e+05
1.9204e+05
1.9886e+05
1.9924e+05
1.9963e+05
2.0011e+05
2.0024e+05
2.0042e+05
2.006e+05
2.0078e+05
2.0115e+05
2.0254e+05
2.0307e+05
2.0328e+05
2.0383e+05
2.048e+05
2.0537e+05
2.0557e+05
2.0595e+05
2.0616e+05
2.0635e+05
2.1175e+05
2.1176e+05
2.3456e+05
2.3669e+05
2.3671e+05
2.387e+05
2.389e+05
2.3895e+05
2.391e+05
2.3928e+05
2.3946e+05
2.3965e+05
2.3985e+05
2.4004e+05
2.4008e+05
2.4024e+05
2.4029e+05
2.4044e+05
2.4048e+05
2.4064e+05
2.4084e+05
2.4088e+05
2.4104e+05
2.4123e+05
2.4128e+05
2.4143e+05
2.4162e+05
2.418e+05
2.4199e+05
2.4218e+05
2.4234e+05
2.4258e+05
2.428e+05
2.4302e+05
2.4323e+05
2.4342e+05
2.4345e+05
2.436e+05
2.439e+05
2.4392e+05
2.4454e+05
2.4459e+05
2.4474e+05
2.4508e+05
2.451e+05
2.4585e+05
2.4586e+05
2.6049e+05
2.6084e+05
2.6085e+05
2.6138e+05
2.614e+05
2.6433e+05
2.6434e+05
2.6795e+05
2.6797e+05
2.7991e+05
2.7992e+05
2.9801e+05
2.9857e+05
2.9877e+05
2.9977e+05
2.9979e+05
2.9998e+05
3.0034e+05
3.007e+05
3.0072e+05
3.0093e+05
3.0262e+05
3.0298e+05
3.0338e+05
3.034e+05
3.0492e+05
3.0512e+05
3.0516e+05
3.0533e+05
3.0538e+05
3.0668e+05
3.0707e+05
3.0747e+05
3.0752e+05
3.0767e+05
3.0773e+05
3.0789e+05
3.0829e+05
3.0866e+05
3.0869e+05
3.0903e+05
3.0906e+05
3.0942e+05
3.0963e+05
3.1065e+05
3.1101e+05
3.1156e+05
3.1159e+05
3.124e+05
3.1295e+05
3.1327e+05
3.133e+05
3.1364e+05
3.1369e+05
3.1384e+05
3.1484e+05
3.1505e+05
3.1556e+05
3.158e+05
3.1636e+05
3.1639e+05
3.1657e+05
3.1661e+05
3.1715e+05
3.1738e+05
3.1809e+05
3.185e+05
3.191e+05
3.1931e+05
3.2163e+05
3.2167e+05
3.2239e+05
3.2262e+05
3.2283e+05
3.2304e+05
3.2422e+05
3.2594e+05
3.2615e+05
3.2648e+05
3.2688e+05
3.273e+05
3.2735e+05
3.2789e+05
3.2793e+05
3.2845e+05
3.2848e+05
3.2867e+05
3.2906e+05
3.297e+05
3.3064e+05
3.31e+05
3.312e+05
3.3142e+05
3.3204e+05
3.3225e+05
3.3257e+05
3.3313e+05
3.3317e+05
3.3431e+05
3.345e+05
3.3484e+05
3.3544e+05
3.3581e+05
3.3602e+05
3.3606e+05
3.3622e+05
3.3625e+05
3.3659e+05
3.368e+05
3.3716e+05
3.3737e+05
3.3757e+05
3.3777e+05
3.3791e+05
3.3812e+05
3.3831e+05
3.3851e+05
3.3855e+05
3.387e+05
3.3874e+05
3.3888e+05
3.3907e+05
3.3926e+05
3.393e+05
3.3945e+05
3.3965e+05
3.3985e+05
3.4006e+05
3.4027e+05
3.4047e+05
3.4051e+05
3.4066e+05
3.407e+05
3.4085e+05
3.4089e+05
3.4103e+05
3.4107e+05
3.4121e+05
3.414e+05
3.4159e+05
3.4179e+05
3.4199e+05
3.422e+05
3.424e+05
3.4259e+05
3.4278e+05
3.4281e+05
3.4296e+05
3.4314e+05
3.4333e+05
3.4337e+05
3.4351e+05
3.4355e+05
3.4371e+05
3.4389e+05
3.4409e+05
3.4429e+05
3.4449e+05
3.4468e+05
3.4487e+05
3.4506e+05
3.4524e+05
3.4542e+05
3.456e+05
3.4578e+05
3.4596e+05
3.4616e+05
3.4638e+05
3.4658e+05
3.4672e+05
3.4698e+05
3.4716e+05
3.4719e+05
3.4734e+05
3.4738e+05
3.477e+05
3.4788e+05
3.4807e+05
3.4827e+05
3.483e+05
3.4846e+05
3.4866e+05
3.4942e+05
3.4946e+05
3.496e+05
3.4977e+05
3.5013e+05
3.5017e+05
3.5032e+05
3.505e+05
3.507e+05
3.513e+05
3.5148e+05
3.5166e+05
3.517e+05
3.5201e+05
3.5205e+05
3.5221e+05
3.5238e+05
3.5505e+05
3.5524e+05
3.6453e+05
3.6512e+05
3.6685e+05
3.7245e+05
3.7943e+05
3.8412e+05
3.976e+05
3.9762e+05
3.9821e+05
3.9822e+05
3.9856e+05
3.9876e+05
3.9879e+05
3.9998e+05
4e+05
4.3724e+05
4.3745e+05
4.3749e+05
4.3765e+05
4.3785e+05
4.3789e+05
4.3804e+05
4.3822e+05
4.3842e+05
4.386e+05
4.3865e+05
4.388e+05
4.3884e+05
4.3901e+05
4.3921e+05
4.3939e+05
4.3963e+05
4.3997e+05
4.3998e+05
4.4058e+05
4.4078e+05
4.4111e+05
4.4112e+05
4.416e+05
4.4181e+05
4.4185e+05
4.42e+05
4.4218e+05
4.4249e+05
4.425e+05
4.4293e+05
4.4309e+05
4.433e+05
4.4367e+05
4.4369e+05
4.443e+05
4.4431e+05
4.4983e+05
4.4984e+05
4.5272e+05
4.5319e+05
4.5337e+05
4.5367e+05
4.5368e+05
4.5446e+05
4.5448e+05
4.5816e+05
4.5817e+05
4.6032e+05
4.6034e+05
4.6976e+05
4.8039e+05
4.8041e+05
4.8232e+05
4.8233e+05
4.9829e+05
4.9852e+05
4.9904e+05
4.9908e+05
5.0001e+05
5.006e+05
5.0172e+05
5.0193e+05
5.0217e+05
5.0408e+05
5.0506e+05
5.0602e+05
5.0704e+05
5.0919e+05
5.0924e+05
5.0958e+05
5.1039e+05
5.1118e+05
5.1133e+05
5.1152e+05
5.1156e+05
5.1247e+05
5.125e+05
5.1289e+05
5.1398e+05
5.1402e+05
5.1474e+05
5.1495e+05
5.1611e+05
5.1616e+05
5.1669e+05
5.1672e+05
5.1687e+05
5.171e+05
5.1751e+05
5.1773e+05
5.1791e+05
5.1883e+05
5.1885e+05
5.1902e+05
5.1942e+05
5.2004e+05
5.2024e+05
5.2042e+05
5.206e+05
5.2094e+05
5.2114e+05
5.2119e+05
5.2135e+05
5.2313e+05
5.2372e+05
5.2394e+05
5.2433e+05
5.2469e+05
5.2473e+05
5.2526e+05
5.2547e+05
5.2569e+05
5.2613e+05
5.267e+05
5.2843e+05
5.2876e+05
5.2879e+05
5.2899e+05
5.2912e+05
5.2951e+05
5.2968e+05
5.2989e+05
5.301e+05
5.3014e+05
5.308e+05
5.3111e+05
5.3112e+05
5.3136e+05
5.314e+05
5.3183e+05
5.3247e+05
5.3287e+05
5.332e+05
5.3353e+05
5.339e+05
5.3393e+05
5.345e+05
5.3454e+05
5.3481e+05
5.3653e+05
5.3658e+05
5.3673e+05
5.3678e+05
5.3692e+05
5.3712e+05
5.3731e+05
5.3749e+05
5.3766e+05
5.377e+05
5.3785e+05
5.3804e+05
5.3807e+05
5.3822e+05
5.3843e+05
5.3864e+05
5.3885e+05
5.3906e+05
5.3925e+05
5.3929e+05
5.3943e+05
5.396e+05
5.398e+05
5.3984e+05
5.3998e+05
5.4017e+05
5.4021e+05
5.4037e+05
5.4057e+05
5.4078e+05
5.4105e+05
5.4108e+05
5.4175e+05
5.4309e+05
5.4329e+05
5.4424e+05
5.454e+05
5.4747e+05
5.6695e+05
5.73e+05
5.7321e+05
5.7391e+05
5.7943e+05
5.7958e+05
5.85e+05
5.8659e+05
5.881e+05
5.8945e+05
5.9596e+05
5.9789e+05
5.9792e+05
5.9827e+05
5.9831e+05
5.985e+05
5.9883e+05
5.9888e+05
5.9924e+05
5.9929e+05
6.0058e+05
6.0078e+05
6.0102e+05
6.0124e+05
6.0145e+05
6.015e+05
6.0166e+05
6.0169e+05
6.019e+05
6.0223e+05
6.0228e+05
6.0247e+05
6.0262e+05
6.0301e+05
6.0344e+05
6.0425e+05
6.0502e+05
6.0518e+05
6.0521e+05
6.0536e+05
6.0769e+05
6.0886e+05
6.089e+05
6.0942e+05
6.0945e+05
6.0964e+05
6.0984e+05
6.1006e+05
6.105e+05
6.1141e+05
6.1146e+05
6.118e+05
6.1183e+05
6.122e+05
6.1242e+05
6.1301e+05
6.1305e+05
6.1356e+05
6.1395e+05
6.1437e+05
6.1498e+05
6.1516e+05
6.1553e+05
6.1573e+05
6.1652e+05
6.1656e+05
6.1676e+05
6.173e+05
6.1734e+05
6.1769e+05
6.1794e+05
6.1842e+05
6.1928e+05
6.1965e+05
6.2018e+05
6.202e+05
6.2043e+05
6.2061e+05
6.2078e+05
6.2083e+05
6.2158e+05
6.2193e+05
6.2214e+05
6.2269e+05
6.2271e+05
6.229e+05
6.2312e+05
6.2392e+05
6.2427e+05
6.2468e+05
6.2513e+05
6.255e+05
6.2554e+05
6.2703e+05
6.2723e+05
6.2744e+05
6.2784e+05
6.2787e+05
6.2819e+05
6.2822e+05
6.2877e+05
6.291e+05
6.2933e+05
6.3103e+05
6.3108e+05
6.3143e+05
6.3184e+05
6.3227e+05
6.3261e+05
6.3264e+05
6.3318e+05
6.3343e+05
6.336e+05
6.3399e+05
6.3422e+05
6.357e+05
6.3595e+05
6.361e+05
6.3632e+05
6.3652e+05
6.367e+05
6.3688e+05
6.3705e+05
6.3723e+05
6.3742e+05
6.3761e+05
6.3778e+05
6.3801e+05
6.3822e+05
6.3841e+05
6.3861e+05
6.3879e+05
6.3897e+05
6.3916e+05
6.3934e+05
6.3953e+05
6.3972e+05
6.3992e+05
6.4033e+05
6.4053e+05
6.4071e+05
6.4093e+05
6.4097e+05
6.4186e+05
6.419e+05
6.4433e+05
6.4444e+05
6.448e+05
