727
1055
1958
2859
3775
4362
4898
5288
5871
6184
6791
7024
7994
8903
9126
10414
11295
12830
13110
14569
14880
15436
15675
16383
17545
17833
18160
18473
19374
19610
20884
21201
21422
22058
22363
23858
24470
25087
27506
28685
29802
30084
30655
30958
33106
33762
34383
34620
34954
35217
35863
37960
38296
38562
40407
40905
41224
42145
42471
42758
43287
43627
44901
45810
46731
47334
47611
47890
48508
49422
50306
50953
51227
52695
53917
54856
57570
58125
58382
58963
59592
60229
61092
61371
61730
62011
62359
62619
64741
66744
67027
67302
67713
68084
68379
68660
68971
69243
72255
72520
72838
73175
74038
74327
76230
76524
76894
77136
77488
78338
80163
80462
81111
81963
82589
83231
83486
83823
84414
85030
85533
86411
87032
87365
87652
88845
89175
89432
89786
90675
92204
92733
93070
94399
94732
96404
97286
97575
97866
99688
1.0001e+05
1.0032e+05
1.0061e+05
1.0126e+05
1.0153e+05
1.0183e+05
1.0213e+05
1.0241e+05
1.0279e+05
1.0308e+05
1.0339e+05
1.0393e+05
1.0426e+05
1.0459e+05
1.049e+05
1.052e+05
1.055e+05
1.0601e+05
1.0712e+05
1.0797e+05
1.0856e+05
1.0888e+05
1.0917e+05
1.0948e+05
1.0978e+05
1.1006e+05
1.1035e+05
1.1065e+05
1.1097e+05
1.1296e+05
1.1353e+05
1.1472e+05
1.15e+05
1.153e+05
1.1565e+05
1.1625e+05
1.1654e+05
1.1682e+05
1.1738e+05
1.1776e+05
1.1804e+05
1.1836e+05
1.1866e+05
1.1894e+05
1.1922e+05
1.1983e+05
1.2019e+05
1.2045e+05
1.207e+05
1.2106e+05
1.2135e+05
1.2164e+05
1.2198e+05
1.2229e+05
1.2255e+05
1.2288e+05
1.2317e+05
1.2408e+05
1.2471e+05
1.2499e+05
1.2529e+05
1.2616e+05
1.2674e+05
1.2705e+05
1.2736e+05
1.2765e+05
1.2794e+05
1.2825e+05
1.2857e+05
1.2948e+05
1.2976e+05
1.3094e+05
1.3131e+05
1.3156e+05
1.3189e+05
1.322e+05
1.325e+05
1.3312e+05
1.3346e+05
1.3374e+05
1.3402e+05
1.3428e+05
1.3455e+05
1.3518e+05
1.3595e+05
1.3622e+05
1.3655e+05
1.3681e+05
1.3716e+05
1.3748e+05
1.3781e+05
1.381e+05
1.3835e+05
1.3868e+05
1.3896e+05
1.3981e+05
1.401e+05
1.4041e+05
1.4067e+05
1.4098e+05
1.4128e+05
1.4166e+05
1.42e+05
1.4228e+05
1.4257e+05
1.4284e+05
1.4319e+05
1.4351e+05
1.4383e+05
1.4411e+05
1.4442e+05
1.4501e+05
1.453e+05
1.4596e+05
1.4626e+05
1.4655e+05
1.4683e+05
1.4713e+05
1.4741e+05
1.4816e+05
1.4854e+05
1.4939e+05
1.5046e+05
1.5105e+05
1.5133e+05
1.516e+05
1.529e+05
1.5342e+05
1.5408e+05
1.5561e+05
1.5588e+05
1.5675e+05
1.5738e+05
1.5765e+05
1.5792e+05
1.5883e+05
1.5942e+05
1.5994e+05
1.6028e+05
1.6057e+05
1.6088e+05
1.612e+05
1.6151e+05
1.618e+05
1.6234e+05
1.6298e+05
1.6349e+05
1.6413e+05
1.6445e+05
1.6474e+05
1.6575e+05
1.6601e+05
1.6632e+05
1.6661e+05
1.6713e+05
1.6777e+05
1.6808e+05
1.6864e+05
1.689e+05
1.6923e+05
1.7012e+05
1.704e+05
1.7095e+05
1.7132e+05
1.7162e+05
1.7192e+05
1.7222e+05
1.728e+05
1.7784e+05
1.782e+05
1.7908e+05
1.7938e+05
1.8155e+05
1.8583e+05
1.8672e+05
1.8824e+05
1.8853e+05
1.895e+05
1.9007e+05
1.9034e+05
1.9128e+05
1.9432e+05
1.9668e+05
2.0016e+05
2.0083e+05
2.0138e+05
2.0286e+05
2.0532e+05
2.0622e+05
2.0654e+05
2.0714e+05
2.0767e+05
2.0832e+05
2.0893e+05
2.1075e+05
2.1136e+05
2.1168e+05
2.1227e+05
2.1257e+05
2.1314e+05
2.1351e+05
2.1381e+05
2.1402e+05
2.1488e+05
2.1551e+05
2.1722e+05
2.1758e+05
2.1786e+05
2.1815e+05
2.184e+05
2.1964e+05
2.1998e+05
2.2031e+05
2.2059e+05
2.2121e+05
2.2147e+05
2.2216e+05
2.2242e+05
2.243e+05
2.2455e+05
2.2486e+05
2.2547e+05
2.2732e+05
2.2823e+05
2.2879e+05
2.2939e+05
2.2971e+05
2.3031e+05
2.3091e+05
2.3122e+05
2.321e+05
2.3309e+05
2.3458e+05
2.3637e+05
2.3754e+05
2.3813e+05
2.3847e+05
2.3966e+05
2.4118e+05
2.4148e+05
2.4636e+05
2.4662e+05
2.4818e+05
2.4872e+05
2.4901e+05
2.5031e+05
2.5053e+05
2.5138e+05
2.5177e+05
2.522e+05
2.5266e+05
2.5301e+05
2.5343e+05
2.5399e+05
2.5455e+05
2.5665e+05
2.5848e+05
2.5873e+05
2.5905e+05
2.5965e+05
2.6138e+05
2.6677e+05
2.6847e+05
2.6906e+05
2.6994e+05
2.707e+05
2.7426e+05
2.7641e+05
2.7877e+05
2.7962e+05
2.8261e+05
2.8292e+05
2.8816e+05
2.934e+05
2.9456e+05
2.9538e+05
2.9568e+05
2.9806e+05
2.9884e+05
2.9906e+05
2.9938e+05
2.996e+05
3.0021e+05
3.0044e+05
3.0153e+05
3.0206e+05
3.0235e+05
3.0261e+05
3.0289e+05
3.0327e+05
3.0377e+05
3.0427e+05
3.0542e+05
3.0573e+05
3.0605e+05
3.0631e+05
3.0664e+05
3.0734e+05
3.0792e+05
3.0854e+05
3.0977e+05
3.1009e+05
3.1039e+05
3.1069e+05
3.1119e+05
3.118e+05
3.1264e+05
3.129e+05
3.1355e+05
3.1384e+05
3.1413e+05
3.1441e+05
3.1477e+05
3.1508e+05
3.1538e+05
3.1567e+05
3.1597e+05
3.1632e+05
3.1662e+05
3.172e+05
3.1748e+05
3.1804e+05
3.1834e+05
3.1861e+05
3.1889e+05
3.1923e+05
3.195e+05
3.2027e+05
3.208e+05
3.214e+05
3.2198e+05
3.2224e+05
3.2289e+05
3.2321e+05
3.2351e+05
3.2379e+05
3.2407e+05
3.244e+05
3.253e+05
3.2545e+05
3.2581e+05
3.2609e+05
3.2638e+05
3.2662e+05
3.2688e+05
3.2716e+05
3.2744e+05
3.2772e+05
3.2802e+05
3.2825e+05
3.2847e+05
3.2878e+05
3.2906e+05
3.2934e+05
3.2967e+05
3.2997e+05
3.3024e+05
3.3066e+05
3.3101e+05
3.3131e+05
3.3159e+05
3.3194e+05
3.3239e+05
3.3273e+05
3.3299e+05
3.3325e+05
3.3354e+05
3.3387e+05
3.3417e+05
3.347e+05
3.3546e+05
3.357e+05
3.3598e+05
3.3624e+05
3.3674e+05
3.3695e+05
3.3723e+05
3.3751e+05
3.3776e+05
3.3832e+05
3.3856e+05
3.3909e+05
3.3951e+05
3.4009e+05
3.4092e+05
3.4114e+05
3.4207e+05
3.4237e+05
3.4263e+05
3.4288e+05
3.4318e+05
3.4343e+05
3.4375e+05
3.4402e+05
3.4435e+05
3.4495e+05
3.457e+05
3.4636e+05
3.4667e+05
3.4789e+05
3.4841e+05
3.4868e+05
3.4929e+05
3.5005e+05
3.5034e+05
3.5095e+05
3.5124e+05
3.5206e+05
3.5234e+05
3.5311e+05
3.5335e+05
3.5388e+05
3.5412e+05
3.5438e+05
3.5459e+05
3.5485e+05
3.5515e+05
3.5551e+05
3.5576e+05
3.5612e+05
3.5633e+05
3.5657e+05
3.5708e+05
3.573e+05
3.5788e+05
3.581e+05
3.5833e+05
3.5862e+05
3.5887e+05
3.5937e+05
3.5958e+05
3.5994e+05
3.6052e+05
3.6074e+05
3.61e+05
3.6125e+05
3.6153e+05
3.6182e+05
3.6236e+05
3.6256e+05
3.6311e+05
3.6434e+05
3.6776e+05
3.6996e+05
3.7065e+05
3.7263e+05
4.8452e+05
5.4939e+05
6.0049e+05
6.1345e+05
-1
311
622
933
1253
1554
1868
2149
2442
2744
3048
3358
3666
3973
4264
4548
4842
5142
5463
5785
6086
6372
6664
6968
7275
7588
7893
8197
8496
8782
9074
9371
9681
10005
10312
10604
10890
11179
11477
11807
12118
12417
12719
13011
13298
13544
13783
14140
14448
14756
15042
15333
15620
15925
16247
16557
16856
17156
17437
17731
18040
18347
18656
18964
19262
19553
19840
20138
20445
20763
21072
21369
21653
21942
22255
22570
22882
23191
23488
23780
24080
24370
24675
24989
25302
25605
25884
26168
26476
26780
27095
27402
27706
27994
28288
28575
28821
29064
29362
29622
29971
30266
30551
30848
31091
31330
31701
31910
32251
32445
32771
32985
33339
33657
33959
34261
34554
34841
35139
35433
35743
36050
36355
36648
36938
37222
37523
37848
38159
38460
38756
39038
39338
39647
39956
40266
40573
40788
41125
41409
41705
42022
42337
42647
42948
43234
43520
43835
44156
44484
44788
45089
45378
45676
45982
46299
46617
46928
47230
47519
47800
48096
48399
48717
49032
49334
49621
49915
50215
50527
50841
51145
51446
51745
52033
52331
52631
52947
53261
53570
53857
54144
54430
54733
55061
55371
55671
55973
56266
56559
56856
57160
57466
57712
57953
58294
58537
58844
59171
59493
59801
60100
60399
60684
60981
61288
61603
61904
62219
62511
62799
63092
63385
63705
64023
64320
64626
64908
65176
65426
65648
66015
66325
66629
66921
67201
67449
67895
68247
68560
68863
69146
69430
69724
70031
70347
70657
70955
71244
71539
71834
72135
72450
72756
73056
73344
73643
73931
74210
74243
74435
74703
75055
75340
75582
75803
76137
76445
76767
77077
77376
77675
77963
78247
78560
78869
79176
79488
79785
80073
80361
80661
80987
81301
81599
81898
82188
82482
82790
83106
83417
83722
84026
84321
84617
84909
85150
85391
85741
85777
85976
86298
86597
86695
86896
87216
87541
87842
88151
88442
88731
89039
89331
89642
89957
90270
90567
90849
91138
91446
91767
92084
92388
92683
92974
93204
93415
93771
93981
94344
94600
94885
95168
95460
95664
95899
96269
96576
96882
97168
97455
97753
98059
98391
98701
98997
99586
99887
1.0019e+05
1.0051e+05
1.0082e+05
1.0113e+05
1.0142e+05
1.0171e+05
1.02e+05
1.0231e+05
1.0264e+05
1.0296e+05
1.0325e+05
1.0355e+05
1.0383e+05
1.0412e+05
1.0444e+05
1.0476e+05
1.0506e+05
1.0537e+05
1.0577e+05
1.0618e+05
1.073e+05
1.0813e+05
1.0842e+05
1.0873e+05
1.0906e+05
1.0936e+05
1.0966e+05
1.0995e+05
1.1024e+05
1.1053e+05
1.1083e+05
1.1113e+05
1.1144e+05
1.1175e+05
1.1205e+05
1.1321e+05
1.137e+05
1.1489e+05
1.1519e+05
1.155e+05
1.1581e+05
1.1611e+05
1.1641e+05
1.1671e+05
1.1699e+05
1.1729e+05
1.176e+05
1.1792e+05
1.1823e+05
1.1853e+05
1.1881e+05
1.191e+05
1.194e+05
1.1971e+05
1.2004e+05
1.2035e+05
1.2064e+05
1.2094e+05
1.2123e+05
1.2153e+05
1.2184e+05
1.2215e+05
1.2246e+05
1.2276e+05
1.2306e+05
1.2334e+05
1.2364e+05
1.2394e+05
1.2428e+05
1.246e+05
1.2489e+05
1.2518e+05
1.2547e+05
1.2628e+05
1.2693e+05
1.2723e+05
1.2752e+05
1.2782e+05
1.2811e+05
1.2842e+05
1.2874e+05
1.2964e+05
1.2992e+05
1.3117e+05
1.3148e+05
1.3176e+05
1.3205e+05
1.3237e+05
1.3268e+05
1.333e+05
1.3361e+05
1.339e+05
1.3418e+05
1.3447e+05
1.3485e+05
1.3548e+05
1.361e+05
1.364e+05
1.3671e+05
1.3703e+05
1.3735e+05
1.3766e+05
1.3796e+05
1.3825e+05
1.3855e+05
1.3884e+05
1.3915e+05
1.3963e+05
1.3999e+05
1.4029e+05
1.4057e+05
1.4086e+05
1.4117e+05
1.415e+05
1.4185e+05
1.4215e+05
1.4244e+05
1.4274e+05
1.4304e+05
1.4336e+05
1.4368e+05
1.44e+05
1.443e+05
1.446e+05
1.4518e+05
1.4548e+05
1.4612e+05
1.4643e+05
1.4672e+05
1.4701e+05
1.4729e+05
1.4754e+05
1.4778e+05
1.4835e+05
1.487e+05
1.4893e+05
1.4926e+05
1.4964e+05
1.5062e+05
1.5094e+05
1.5122e+05
1.5151e+05
1.518e+05
1.5276e+05
1.5306e+05
1.5335e+05
1.5363e+05
1.5393e+05
1.5424e+05
1.5577e+05
1.5607e+05
1.5689e+05
1.5753e+05
1.5778e+05
1.5806e+05
1.5834e+05
1.59e+05
1.593e+05
1.5956e+05
1.598e+05
1.6014e+05
1.6043e+05
1.6074e+05
1.6106e+05
1.6137e+05
1.6168e+05
1.6192e+05
1.6217e+05
1.6247e+05
1.6314e+05
1.6341e+05
1.6367e+05
1.6429e+05
1.646e+05
1.6491e+05
1.6507e+05
1.6527e+05
1.6589e+05
1.6619e+05
1.6646e+05
1.6677e+05
1.6697e+05
1.6732e+05
1.6796e+05
1.6825e+05
1.6845e+05
1.6879e+05
1.6908e+05
1.694e+05
1.6964e+05
1.7029e+05
1.7055e+05
1.7115e+05
1.7146e+05
1.7176e+05
1.7206e+05
1.7238e+05
1.7269e+05
1.7297e+05
1.7327e+05
1.7356e+05
1.7802e+05
1.7838e+05
1.7927e+05
1.7933e+05
1.7956e+05
1.8172e+05
1.8299e+05
1.8597e+05
1.8693e+05
1.8842e+05
1.8872e+05
1.8966e+05
1.8995e+05
1.9024e+05
1.9053e+05
1.9148e+05
1.9237e+05
1.9449e+05
1.9682e+05
1.9706e+05
1.9888e+05
1.9917e+05
1.9947e+05
2.001e+05
2.0041e+05
2.0071e+05
2.0099e+05
2.0128e+05
2.0159e+05
2.0222e+05
2.0306e+05
2.0336e+05
2.0365e+05
2.0398e+05
2.043e+05
2.0461e+05
2.0492e+05
2.0521e+05
2.055e+05
2.0579e+05
2.061e+05
2.0642e+05
2.0673e+05
2.0703e+05
2.0732e+05
2.0761e+05
2.0791e+05
2.0822e+05
2.0855e+05
2.0885e+05
2.0915e+05
2.0944e+05
2.0973e+05
2.1003e+05
2.1033e+05
2.1064e+05
2.1096e+05
2.1127e+05
2.1157e+05
2.1185e+05
2.1214e+05
2.1244e+05
2.1276e+05
2.1308e+05
2.1338e+05
2.1367e+05
2.1396e+05
2.1426e+05
2.147e+05
2.1507e+05
2.1533e+05
2.1572e+05
2.1745e+05
2.1776e+05
2.1804e+05
2.1833e+05
2.1862e+05
2.1893e+05
2.1926e+05
2.1957e+05
2.1987e+05
2.2017e+05
2.2046e+05
2.2076e+05
2.2106e+05
2.2138e+05
2.217e+05
2.2201e+05
2.2231e+05
2.226e+05
2.2289e+05
2.232e+05
2.2353e+05
2.2387e+05
2.2417e+05
2.2447e+05
2.2475e+05
2.2504e+05
2.2536e+05
2.2568e+05
2.26e+05
2.263e+05
2.2661e+05
2.2689e+05
2.2718e+05
2.2748e+05
2.2779e+05
2.2811e+05
2.2842e+05
2.2872e+05
2.29e+05
2.2929e+05
2.296e+05
2.2992e+05
2.3025e+05
2.3055e+05
2.3085e+05
2.3114e+05
2.3143e+05
2.3173e+05
2.3203e+05
2.3234e+05
2.3266e+05
2.3296e+05
2.3325e+05
2.3353e+05
2.3383e+05
2.3413e+05
2.3445e+05
2.3476e+05
2.3507e+05
2.3535e+05
2.3564e+05
2.3595e+05
2.3626e+05
2.3657e+05
2.3688e+05
2.3717e+05
2.3747e+05
2.3776e+05
2.3806e+05
2.3836e+05
2.3867e+05
2.3899e+05
2.393e+05
2.3959e+05
2.3987e+05
2.4016e+05
2.4047e+05
2.4079e+05
2.4111e+05
2.4141e+05
2.4171e+05
2.42e+05
2.423e+05
2.426e+05
2.4291e+05
2.4323e+05
2.4354e+05
2.4384e+05
2.4413e+05
2.4442e+05
2.4471e+05
2.4535e+05
2.4565e+05
2.4595e+05
2.4624e+05
2.4653e+05
2.4682e+05
2.4714e+05
2.4776e+05
2.4806e+05
2.4836e+05
2.4865e+05
2.4894e+05
2.4924e+05
2.4955e+05
2.5047e+05
2.5086e+05
2.5161e+05
2.5192e+05
2.5245e+05
2.5287e+05
2.5315e+05
2.5362e+05
2.5419e+05
2.5474e+05
2.5507e+05
2.5683e+05
2.5772e+05
2.5867e+05
2.5896e+05
2.5925e+05
2.5948e+05
2.5982e+05
2.6013e+05
2.6045e+05
2.6131e+05
2.616e+05
2.6171e+05
2.6287e+05
2.6324e+05
2.6373e+05
2.6403e+05
2.6434e+05
2.6466e+05
2.6509e+05
2.6553e+05
2.6582e+05
2.6611e+05
2.6696e+05
2.6788e+05
2.6822e+05
2.6823e+05
2.6865e+05
2.6877e+05
2.6898e+05
2.6929e+05
2.6971e+05
2.7014e+05
2.7035e+05
2.7091e+05
2.7149e+05
2.7212e+05
2.7447e+05
2.7543e+05
2.7605e+05
2.7635e+05
2.7663e+05
2.7692e+05
2.7776e+05
2.7812e+05
2.7841e+05
2.787e+05
2.79e+05
2.7982e+05
2.8048e+05
2.8077e+05
2.8107e+05
2.8166e+05
2.8282e+05
2.8312e+05
2.8462e+05
2.8723e+05
2.8828e+05
2.8832e+05
2.9275e+05
2.9299e+05
2.9357e+05
2.9384e+05
2.9414e+05
2.9441e+05
2.9467e+05
2.949e+05
2.9525e+05
2.9556e+05
2.9586e+05
2.9614e+05
2.9675e+05
2.9816e+05
2.9838e+05
2.9872e+05
2.9899e+05
2.9925e+05
2.9952e+05
2.9976e+05
3.0007e+05
3.0033e+05
3.0054e+05
3.0076e+05
3.0111e+05
3.0133e+05
3.0169e+05
3.0189e+05
3.0224e+05
3.025e+05
3.0283e+05
3.0308e+05
3.0341e+05
3.0368e+05
3.0391e+05
3.0412e+05
3.0444e+05
3.0559e+05
3.0592e+05
3.0622e+05
3.065e+05
3.0676e+05
3.0693e+05
3.0726e+05
3.0754e+05
3.0784e+05
3.081e+05
3.0842e+05
3.0871e+05
3.0902e+05
3.093e+05
3.0962e+05
3.0994e+05
3.1027e+05
3.1057e+05
3.1083e+05
3.1104e+05
3.1135e+05
3.1139e+05
3.1159e+05
3.1196e+05
3.1222e+05
3.1278e+05
3.1312e+05
3.1341e+05
3.1372e+05
3.1402e+05
3.1434e+05
3.1465e+05
3.1496e+05
3.1526e+05
3.1555e+05
3.1584e+05
3.1616e+05
3.1649e+05
3.1676e+05
3.1704e+05
3.1735e+05
3.1764e+05
3.1792e+05
3.1822e+05
3.1849e+05
3.1878e+05
3.1908e+05
3.194e+05
3.1961e+05
3.1983e+05
3.2013e+05
3.2037e+05
3.2061e+05
3.2096e+05
3.2127e+05
3.2159e+05
3.2187e+05
3.2217e+05
3.2248e+05
3.227e+05
3.2307e+05
3.234e+05
3.2366e+05
3.2397e+05
3.2427e+05
3.2453e+05
3.2477e+05
3.2513e+05
3.2542e+05
3.2564e+05
3.2594e+05
3.2625e+05
3.2651e+05
3.2678e+05
3.2701e+05
3.2733e+05
3.276e+05
3.2786e+05
3.2816e+05
3.2841e+05
3.2861e+05
3.2895e+05
3.2921e+05
3.2952e+05
3.2982e+05
3.3012e+05
3.3033e+05
3.3054e+05
3.3088e+05
3.3118e+05
3.3149e+05
3.3181e+05
3.3206e+05
3.3228e+05
3.3258e+05
3.3287e+05
3.3313e+05
3.3339e+05
3.3371e+05
3.3403e+05
3.3431e+05
3.3459e+05
3.3478e+05
3.3501e+05
3.3561e+05
3.3586e+05
3.3612e+05
3.3639e+05
3.3666e+05
3.3689e+05
3.3713e+05
3.3737e+05
3.3769e+05
3.3792e+05
3.3817e+05
3.3846e+05
3.3871e+05
3.3895e+05
3.3919e+05
3.394e+05
3.3967e+05
3.3989e+05
3.4026e+05
3.403e+05
3.4055e+05
3.4106e+05
3.4131e+05
3.4163e+05
3.4193e+05
3.4224e+05
3.4251e+05
3.4279e+05
3.4306e+05
3.4334e+05
3.4359e+05
3.4391e+05
3.4417e+05
3.4452e+05
3.4484e+05
3.4506e+05
3.4527e+05
3.4591e+05
3.4622e+05
3.4653e+05
3.468e+05
3.4705e+05
3.4803e+05
3.4829e+05
3.4858e+05
3.4884e+05
3.4912e+05
3.4943e+05
3.5021e+05
3.5052e+05
3.5112e+05
3.5137e+05
3.5223e+05
3.5244e+05
3.5266e+05
3.5325e+05
3.5352e+05
3.5377e+05
3.5403e+05
3.5427e+05
3.5452e+05
3.5478e+05
3.5502e+05
3.5531e+05
3.5567e+05
3.5596e+05
3.5625e+05
3.5649e+05
3.5673e+05
3.5697e+05
3.5723e+05
3.5749e+05
3.5778e+05
3.5804e+05
3.5826e+05
3.5849e+05
3.5879e+05
3.5899e+05
3.592e+05
3.5949e+05
3.5972e+05
3.6009e+05
3.6066e+05
3.6092e+05
3.6113e+05
3.6139e+05
3.6168e+05
3.6194e+05
3.6219e+05
3.6249e+05
3.6273e+05
3.6327e+05
3.6453e+05
3.6487e+05
3.679e+05
3.6811e+05
3.7004e+05
3.7024e+05
3.7081e+05
3.7281e+05
3.973e+05
3.976e+05
3.9789e+05
3.9819e+05
3.991e+05
3.9937e+05
3.994e+05
3.9968e+05
3.9997e+05
4.0029e+05
4.0063e+05
4.0157e+05
4.0186e+05
4.0217e+05
4.0248e+05
4.0281e+05
4.0313e+05
4.0344e+05
4.0374e+05
4.0402e+05
4.0431e+05
4.0461e+05
4.0493e+05
4.0526e+05
4.0556e+05
4.0585e+05
4.0614e+05
4.0645e+05
4.0674e+05
4.0706e+05
4.0738e+05
4.0768e+05
4.0798e+05
4.0827e+05
4.0856e+05
4.0886e+05
4.0917e+05
4.0949e+05
4.098e+05
4.101e+05
4.1039e+05
4.1068e+05
4.1097e+05
4.1127e+05
4.1161e+05
4.1192e+05
4.1221e+05
4.1251e+05
4.128e+05
4.131e+05
4.134e+05
4.1372e+05
4.1403e+05
4.1434e+05
4.1463e+05
4.1492e+05
4.152e+05
4.1551e+05
4.1585e+05
4.1616e+05
4.1646e+05
4.1676e+05
4.1704e+05
4.1734e+05
4.1765e+05
4.1856e+05
4.1859e+05
4.1912e+05
4.1975e+05
4.2007e+05
4.2039e+05
4.207e+05
4.2099e+05
4.2128e+05
4.2157e+05
4.2188e+05
4.2222e+05
4.2255e+05
4.2285e+05
4.2315e+05
4.2343e+05
4.2373e+05
4.2404e+05
4.2436e+05
4.2467e+05
4.2498e+05
4.2528e+05
4.2558e+05
4.2586e+05
4.2616e+05
4.2647e+05
4.2679e+05
4.271e+05
4.274e+05
4.2768e+05
4.2798e+05
4.2829e+05
4.286e+05
4.2892e+05
4.2921e+05
4.2952e+05
4.2982e+05
4.3012e+05
4.3041e+05
4.3072e+05
4.3103e+05
4.3338e+05
4.3368e+05
4.3397e+05
4.3518e+05
4.355e+05
4.358e+05
4.361e+05
4.364e+05
4.3669e+05
4.3699e+05
4.373e+05
4.3765e+05
4.3796e+05
4.3824e+05
4.3853e+05
4.3883e+05
4.3913e+05
4.3947e+05
4.3978e+05
4.4069e+05
4.41e+05
4.4128e+05
4.4161e+05
4.4195e+05
4.4226e+05
4.4256e+05
4.4285e+05
4.4314e+05
4.4345e+05
4.4378e+05
4.4411e+05
4.4441e+05
4.4471e+05
4.45e+05
4.4528e+05
4.4593e+05
4.4625e+05
4.4655e+05
4.4686e+05
4.4715e+05
4.4744e+05
4.4774e+05
4.4827e+05
4.485e+05
4.4883e+05
4.4913e+05
4.4942e+05
4.4972e+05
4.5035e+05
4.5095e+05
4.5183e+05
4.5214e+05
4.5244e+05
4.5277e+05
4.5307e+05
4.5337e+05
4.5366e+05
4.5395e+05
4.5425e+05
4.5457e+05
4.549e+05
4.552e+05
4.555e+05
4.5578e+05
4.5609e+05
4.5639e+05
4.5669e+05
4.5701e+05
4.5732e+05
4.5762e+05
4.5791e+05
4.5862e+05
4.5897e+05
4.5961e+05
4.599e+05
4.6019e+05
4.6048e+05
4.6172e+05
4.6233e+05
4.6355e+05
4.6445e+05
4.6686e+05
4.6717e+05
4.6781e+05
4.6811e+05
4.6871e+05
4.69e+05
4.6929e+05
4.696e+05
4.6991e+05
4.7082e+05
4.711e+05
4.7204e+05
4.7294e+05
4.7323e+05
4.7416e+05
4.7507e+05
4.7566e+05
4.766e+05
4.772e+05
4.7749e+05
4.778e+05
4.7811e+05
4.7878e+05
4.7908e+05
4.7938e+05
4.7967e+05
4.7997e+05
4.8028e+05
4.806e+05
4.8093e+05
4.8124e+05
4.8153e+05
4.8181e+05
4.8212e+05
4.824e+05
4.8308e+05
4.8339e+05
4.8368e+05
4.8397e+05
4.8423e+05
4.8469e+05
4.8477e+05
4.8522e+05
4.8935e+05
4.9507e+05
4.9663e+05
4.9692e+05
4.9721e+05
4.9752e+05
4.9783e+05
4.9816e+05
4.9846e+05
4.9876e+05
4.9904e+05
4.9935e+05
4.9966e+05
5.003e+05
5.0055e+05
5.0091e+05
5.0119e+05
5.015e+05
5.018e+05
5.0211e+05
5.0243e+05
5.0274e+05
5.0304e+05
5.0331e+05
5.0362e+05
5.0673e+05
5.0703e+05
5.0733e+05
5.0763e+05
5.0792e+05
5.0821e+05
5.0852e+05
5.0884e+05
5.0915e+05
5.0945e+05
5.0974e+05
5.1002e+05
5.1032e+05
5.1063e+05
5.1095e+05
5.1126e+05
5.1215e+05
5.1244e+05
5.1274e+05
5.1306e+05
5.1336e+05
5.1367e+05
5.1396e+05
5.1425e+05
5.1454e+05
5.1485e+05
5.1517e+05
5.1549e+05
5.1579e+05
5.1609e+05
5.1637e+05
5.1667e+05
5.1698e+05
5.173e+05
5.1761e+05
5.1792e+05
5.1822e+05
5.1851e+05
5.188e+05
5.1911e+05
5.1941e+05
5.1974e+05
5.2014e+05
5.2071e+05
5.212e+05
5.2155e+05
5.2188e+05
5.2218e+05
5.2259e+05
5.2301e+05
5.2331e+05
5.2363e+05
5.2394e+05
5.2433e+05
5.248e+05
5.2509e+05
5.2539e+05
5.2577e+05
5.263e+05
5.2659e+05
5.2689e+05
5.2718e+05
5.2753e+05
5.2804e+05
5.2835e+05
5.2866e+05
5.2906e+05
5.2948e+05
5.2978e+05
5.3008e+05
5.3042e+05
5.3127e+05
5.3156e+05
5.3186e+05
5.3222e+05
5.3229e+05
5.3275e+05
5.3305e+05
5.3335e+05
5.3364e+05
5.3405e+05
5.3444e+05
5.3482e+05
5.3512e+05
5.3543e+05
5.3572e+05
5.36e+05
5.3631e+05
5.3663e+05
5.3696e+05
5.3726e+05
5.3748e+05
5.3781e+05
5.3811e+05
5.3842e+05
5.3873e+05
5.3905e+05
5.3927e+05
5.3962e+05
5.3992e+05
5.402e+05
5.405e+05
5.4082e+05
5.4104e+05
5.4141e+05
5.4172e+05
5.4201e+05
5.4225e+05
5.4249e+05
5.4285e+05
5.4318e+05
5.4349e+05
5.438e+05
5.4409e+05
5.4431e+05
5.4465e+05
5.4495e+05
5.4525e+05
5.4557e+05
5.4583e+05
5.4609e+05
5.4643e+05
5.4671e+05
5.4701e+05
5.4731e+05
5.4785e+05
5.4849e+05
5.4879e+05
5.4909e+05
5.496e+05
5.4996e+05
5.5026e+05
5.5085e+05
5.5233e+05
5.5263e+05
5.5283e+05
5.5312e+05
5.5345e+05
5.5376e+05
5.5435e+05
5.5459e+05
5.5494e+05
5.5523e+05
5.5582e+05
5.5613e+05
5.5645e+05
5.5706e+05
5.5735e+05
5.7012e+05
5.7314e+05
5.7379e+05
5.741e+05
5.7439e+05
5.7467e+05
5.7497e+05
5.7527e+05
5.7593e+05
5.7623e+05
5.7654e+05
5.7683e+05
5.7743e+05
5.7775e+05
5.7806e+05
5.7837e+05
5.7867e+05
5.7896e+05
5.7925e+05
5.7955e+05
5.8052e+05
5.8082e+05
5.8119e+05
5.814e+05
5.8171e+05
5.8234e+05
5.8324e+05
5.8353e+05
5.8382e+05
5.8413e+05
5.8507e+05
5.8535e+05
5.8616e+05
5.8679e+05
5.8708e+05
5.8769e+05
5.8798e+05
5.8829e+05
5.8859e+05
5.8892e+05
5.8922e+05
5.8952e+05
5.898e+05
5.9009e+05
5.9038e+05
5.9102e+05
5.9132e+05
5.9162e+05
5.9191e+05
5.9251e+05
5.9282e+05
5.9344e+05
5.9374e+05
5.9403e+05
5.9432e+05
5.9462e+05
5.9493e+05
5.9587e+05
5.9615e+05
5.9645e+05
5.9675e+05
5.9706e+05
5.9739e+05
5.977e+05
5.9795e+05
5.9859e+05
5.9889e+05
5.992e+05
5.9952e+05
5.9983e+05
6.0013e+05
6.0043e+05
6.0072e+05
6.0101e+05
6.0132e+05
6.0226e+05
6.023e+05
6.0271e+05
6.03e+05
6.031e+05
6.0331e+05
6.0363e+05
6.0395e+05
6.0425e+05
6.0456e+05
6.0485e+05
6.0514e+05
6.0544e+05
6.0575e+05
6.0607e+05
6.0638e+05
6.0668e+05
6.0697e+05
6.0726e+05
6.0756e+05
6.0788e+05
6.0821e+05
6.0851e+05
6.0881e+05
6.0911e+05
6.094e+05
6.097e+05
6.1001e+05
6.1032e+05
6.1064e+05
6.1094e+05
6.1123e+05
6.1152e+05
6.1181e+05
6.1212e+05
6.1245e+05
6.1276e+05
6.1306e+05
6.1336e+05
6.1364e+05
6.1395e+05
6.1427e+05
6.1458e+05
6.149e+05
6.152e+05
6.155e+05
6.1579e+05
6.1609e+05
6.1639e+05
6.1672e+05
6.1705e+05
6.1735e+05
6.1764e+05
6.1793e+05
6.1822e+05
6.1854e+05
6.1887e+05
6.1919e+05
6.195e+05
6.1979e+05
6.2008e+05
6.2039e+05
6.207e+05
6.2102e+05
6.2134e+05
6.2164e+05
6.2194e+05
6.2223e+05
6.2251e+05
6.2282e+05
6.2316e+05
6.2347e+05
6.2378e+05
6.2407e+05
6.2436e+05
6.2465e+05
6.2496e+05
6.2528e+05
6.2559e+05
6.259e+05
6.262e+05
6.2649e+05
6.2677e+05
6.2707e+05
6.2738e+05
6.2831e+05
6.2859e+05
6.2888e+05
6.2982e+05
6.3013e+05
6.3043e+05
6.3072e+05
6.3102e+05
6.3131e+05
6.3161e+05
6.3226e+05
6.3256e+05
6.3284e+05
6.3313e+05
6.3343e+05
6.3374e+05
6.3407e+05
6.3438e+05
6.3468e+05
6.3497e+05
6.3527e+05
6.3556e+05
6.3587e+05
6.3619e+05
6.365e+05
6.368e+05
6.3709e+05
6.3738e+05
6.3768e+05
6.3798e+05
6.3831e+05
6.3863e+05
6.3894e+05
6.3923e+05
6.3952e+05
6.3981e+05
6.4012e+05
6.4046e+05
6.4077e+05
6.4108e+05
6.4138e+05
6.4167e+05
6.4197e+05
6.4227e+05
6.4258e+05
6.429e+05
6.432e+05
6.435e+05
6.4379e+05
6.4408e+05
6.4438e+05
6.4471e+05
6.4502e+05
6.4532e+05
6.4562e+05
6.4591e+05
6.462e+05
6.4682e+05
6.4714e+05
6.4775e+05
6.4804e+05
