832
1645
2409
2942
3398
4224
5120
5508
5786
5989
6625
8159
8684
9498
10456
10717
12046
12312
12950
13256
13545
14043
14379
14887
15135
16046
16301
16533
17136
17375
17682
18214
18498
19409
19790
19996
22005
22226
22504
24136
24332
24657
25717
26052
26876
27109
27639
27911
28455
29300
29544
30316
30611
30887
31350
32542
33757
34010
35142
36730
37576
37832
38135
39125
40230
40574
41179
41854
43329
43624
44788
45156
45400
45635
45842
46723
47391
47581
48183
49296
53228
54265
54835
55080
55369
55645
56226
56817
58892
59183
59826
60392
60657
60947
63580
64104
65379
65637
65961
66314
66547
66834
67420
68720
68970
69169
69467
69760
70029
70551
70912
71249
71560
71751
72111
72396
73079
73321
74093
74648
74911
75222
75492
75732
76106
76403
76690
76885
77179
77486
77957
78192
78438
78778
79366
79594
79858
80725
80992
81379
81724
82000
82285
82494
83160
83623
84279
84555
85074
85354
85566
85841
86467
86693
87365
87667
87896
88462
88659
88986
89280
89567
89855
90171
90535
90869
91229
91412
91647
92295
92777
94099
94305
94581
94928
95254
95475
95815
96369
96829
97050
97353
97605
97887
98176
98376
98669
1.3445e+05
1.9153e+05
1.9251e+05
1.9301e+05
1.9574e+05
2.0026e+05
2.0059e+05
2.0261e+05
2.0292e+05
2.0323e+05
2.0348e+05
2.0501e+05
2.0527e+05
2.0575e+05
2.0797e+05
2.0923e+05
2.1234e+05
2.1429e+05
2.1619e+05
2.1721e+05
2.1747e+05
2.2173e+05
2.2202e+05
2.2228e+05
2.2255e+05
2.2278e+05
2.2375e+05
2.2413e+05
2.2435e+05
2.2466e+05
2.2521e+05
2.26e+05
2.2652e+05
2.2703e+05
2.2731e+05
2.2816e+05
2.2841e+05
2.2889e+05
2.297e+05
2.3015e+05
2.3102e+05
2.3124e+05
2.3214e+05
2.3372e+05
2.342e+05
2.3507e+05
2.3533e+05
2.3574e+05
2.3613e+05
2.3746e+05
2.3772e+05
2.3794e+05
2.3814e+05
2.3853e+05
2.4124e+05
2.4149e+05
2.4237e+05
2.4376e+05
2.4436e+05
2.4485e+05
2.4512e+05
2.4543e+05
2.4668e+05
2.4736e+05
2.5016e+05
2.5066e+05
2.51e+05
2.5159e+05
2.5207e+05
2.5401e+05
2.5553e+05
2.5573e+05
2.5809e+05
2.5861e+05
2.5937e+05
2.6226e+05
2.6249e+05
2.6319e+05
2.651e+05
2.6538e+05
2.6561e+05
2.6745e+05
2.677e+05
2.6935e+05
2.7042e+05
2.7072e+05
2.7127e+05
2.7153e+05
2.7317e+05
2.7365e+05
2.7457e+05
2.7485e+05
2.7543e+05
2.7667e+05
2.811e+05
2.8161e+05
2.8199e+05
2.8349e+05
2.8484e+05
2.8512e+05
2.866e+05
2.8784e+05
2.9098e+05
2.9339e+05
2.944e+05
2.9475e+05
2.9528e+05
2.9561e+05
3.9743e+05
3.9798e+05
3.9827e+05
3.988e+05
3.9911e+05
3.994e+05
3.9969e+05
4.0023e+05
4.0077e+05
4.0132e+05
4.0183e+05
4.0215e+05
4.0248e+05
4.032e+05
4.0368e+05
4.0415e+05
4.0442e+05
4.0543e+05
4.0568e+05
4.0593e+05
4.0614e+05
4.0638e+05
4.0685e+05
4.098e+05
4.1006e+05
4.1028e+05
4.1061e+05
4.1097e+05
4.1268e+05
4.1323e+05
4.1354e+05
4.1383e+05
4.1414e+05
4.1444e+05
4.1475e+05
4.1507e+05
4.1538e+05
4.1574e+05
4.1603e+05
4.1635e+05
4.1668e+05
4.1699e+05
4.1731e+05
4.1789e+05
4.1845e+05
4.1876e+05
4.1907e+05
4.1937e+05
4.1968e+05
4.1999e+05
4.203e+05
4.2088e+05
4.2145e+05
4.22e+05
4.2256e+05
4.2309e+05
4.2339e+05
4.237e+05
4.2399e+05
4.2453e+05
4.2484e+05
4.2513e+05
4.2544e+05
4.2574e+05
4.2604e+05
4.2636e+05
4.2691e+05
4.2748e+05
4.2802e+05
4.2858e+05
4.2912e+05
4.2967e+05
4.2996e+05
4.3025e+05
4.3054e+05
4.3084e+05
4.3114e+05
4.3144e+05
4.3175e+05
4.3207e+05
4.324e+05
4.3297e+05
4.3355e+05
4.3387e+05
4.3417e+05
4.3448e+05
4.3502e+05
4.3532e+05
4.3562e+05
4.3593e+05
4.3647e+05
4.3704e+05
4.3759e+05
4.3814e+05
4.3868e+05
4.3979e+05
4.4006e+05
4.4029e+05
4.4246e+05
4.439e+05
4.4809e+05
4.4863e+05
4.5038e+05
4.5064e+05
4.5109e+05
4.5196e+05
4.5244e+05
4.5264e+05
4.5302e+05
4.536e+05
4.5446e+05
4.5474e+05
4.5517e+05
4.5543e+05
4.5627e+05
4.5647e+05
4.5811e+05
4.598e+05
4.6007e+05
4.6088e+05
4.6199e+05
4.6305e+05
4.6364e+05
4.6828e+05
4.6877e+05
4.8104e+05
4.8136e+05
4.8165e+05
4.8194e+05
4.8248e+05
4.8276e+05
4.833e+05
4.8359e+05
4.8414e+05
4.8442e+05
4.8492e+05
4.8533e+05
4.8591e+05
4.862e+05
4.8675e+05
4.8759e+05
4.8787e+05
4.8842e+05
4.8871e+05
4.8926e+05
4.8954e+05
4.901e+05
4.9092e+05
4.9122e+05
4.9176e+05
4.9204e+05
4.9259e+05
4.9315e+05
4.9345e+05
4.9397e+05
4.9426e+05
4.9481e+05
4.97e+05
4.9756e+05
4.9811e+05
4.9869e+05
4.9924e+05
4.9981e+05
5.0035e+05
5.009e+05
5.0145e+05
5.0217e+05
5.0242e+05
5.0271e+05
5.0323e+05
5.0435e+05
5.0502e+05
5.0528e+05
5.0596e+05
5.0669e+05
5.0726e+05
5.0787e+05
5.0983e+05
5.1079e+05
5.1159e+05
5.1211e+05
5.1238e+05
5.1266e+05
5.1406e+05
5.1439e+05
5.1465e+05
5.1494e+05
5.1604e+05
5.1667e+05
5.1689e+05
5.1781e+05
5.1819e+05
5.1855e+05
5.2064e+05
5.2199e+05
5.2233e+05
5.2311e+05
5.2335e+05
5.2412e+05
5.2441e+05
5.2786e+05
5.2875e+05
5.2901e+05
5.2954e+05
5.2988e+05
5.3017e+05
5.3064e+05
5.3117e+05
5.327e+05
5.3341e+05
5.3459e+05
5.3536e+05
5.3643e+05
5.3738e+05
5.3791e+05
5.3878e+05
5.3905e+05
5.3938e+05
5.3968e+05
5.3991e+05
5.4018e+05
5.4054e+05
5.4201e+05
5.4386e+05
5.4575e+05
5.4599e+05
5.47e+05
5.4727e+05
5.4781e+05
5.5044e+05
5.5166e+05
5.5299e+05
5.5515e+05
5.5568e+05
5.5605e+05
5.5645e+05
5.5726e+05
5.5858e+05
5.5885e+05
5.5911e+05
5.6116e+05
5.6142e+05
5.6229e+05
5.6545e+05
5.6574e+05
5.6786e+05
5.6914e+05
5.7906e+05
5.7982e+05
5.8599e+05
5.8699e+05
5.872e+05
5.8912e+05
5.8945e+05
5.9025e+05
5.9082e+05
5.9194e+05
5.9228e+05
5.9256e+05
5.9293e+05
5.9323e+05
5.9353e+05
5.9387e+05
5.9416e+05
5.9444e+05
5.9474e+05
5.9504e+05
5.9537e+05
5.9773e+05
5.985e+05
5.9873e+05
5.9925e+05
5.9975e+05
6.0103e+05
6.0134e+05
6.019e+05
6.0223e+05
6.0303e+05
6.036e+05
6.0451e+05
6.0519e+05
6.0553e+05
6.0577e+05
6.0607e+05
6.0686e+05
6.0733e+05
6.0771e+05
6.0933e+05
6.0964e+05
6.1015e+05
6.1052e+05
6.108e+05
6.117e+05
6.12e+05
6.1229e+05
6.129e+05
6.1497e+05
6.1531e+05
6.1555e+05
6.1601e+05
6.1687e+05
6.1717e+05
6.1747e+05
6.1774e+05
6.1866e+05
6.1926e+05
6.1955e+05
6.1982e+05
6.2048e+05
6.2095e+05
6.2147e+05
6.2197e+05
6.2222e+05
6.2532e+05
6.2758e+05
6.2953e+05
6.3534e+05
6.3565e+05
6.383e+05
6.3864e+05
6.3952e+05
6.3975e+05
6.404e+05
6.4074e+05
6.4188e+05
6.4254e+05
6.4387e+05
6.4483e+05
6.4706e+05
-1
399
708
983
1301
1507
1805
2018
2296
2570
2817
3107
3318
3547
3963
4376
4677
4998
5302
5668
5731
5904
6152
6450
6782
7216
7273
7477
7577
7906
8310
8542
8829
9085
9327
9636
9978
10333
10626
10883
11117
11373
11641
11904
12245
12434
12469
12805
13109
13176
13407
13706
13949
14238
14509
14736
15058
15327
15679
15939
16186
16455
16711
16985
17287
17565
17848
18087
18144
18382
18662
18883
19271
19551
19921
20123
20172
20374
20744
21038
21271
21695
21933
22140
22393
22642
22934
23143
23447
23725
23976
24302
24513
24843
24902
25113
25157
25404
25605
25926
26196
26538
26747
27036
27260
27572
27777
28083
28399
28596
28873
29183
29444
29686
29934
30147
30475
30530
30765
31062
31272
31548
31820
32075
32376
32732
33093
33334
33666
33948
34200
34508
34741
34929
35314
35546
35728
35997
36344
36534
36892
37141
37205
37448
37756
37981
38271
38495
38781
39035
39328
39618
39840
40119
40422
40733
41092
41287
41593
42026
42320
42543
42956
43183
43520
43791
44124
44339
44629
44955
45289
45549
45769
45994
46226
46545
46881
47208
47538
47750
47799
48051
48328
48599
48877
49200
49456
49673
49900
50227
50610
50835
51207
51460
51570
51803
52114
52398
52682
53054
53138
53374
53451
53704
53940
54193
54391
54730
55005
55253
55314
55521
55816
56023
56401
56673
56723
56996
57250
57491
57795
58029
58275
58759
59043
59341
59732
59959
60290
60558
60847
61115
61447
61777
62001
62304
62528
62586
62821
63119
63278
63315
63768
63999
64335
64359
64794
65087
65550
65829
65859
66096
66477
67059
67311
67568
67846
68049
68397
68657
68681
68911
69109
69139
69378
69419
69733
69970
70482
70744
71092
71435
71697
72032
72211
72651
72970
73265
73812
74355
74865
75144
75448
76021
76205
76285
76581
77107
77396
77417
77643
77855
78054
78382
78706
78898
79181
79529
79807
80636
80920
80937
81547
81940
82435
82453
82980
83257
83565
83874
84465
85019
85250
85455
85703
86108
86347
86628
86663
86900
86924
88133
88384
88877
88919
89200
89754
90103
90403
91331
91808
92069
92450
92695
92974
93217
93505
93783
93808
94270
94443
94784
95170
96063
96335
96600
97002
97255
97536
97580
97825
98082
98588
98877
99116
99144
1.0011e+05
1.0166e+05
1.0177e+05
1.0293e+05
1.0319e+05
1.048e+05
1.0488e+05
1.0525e+05
1.0669e+05
1.0677e+05
1.0708e+05
1.0719e+05
1.0945e+05
1.0979e+05
1.0994e+05
1.1035e+05
1.1197e+05
1.1211e+05
1.1301e+05
1.1385e+05
1.1416e+05
1.1445e+05
1.1461e+05
1.1556e+05
1.1665e+05
1.174e+05
1.1798e+05
1.1876e+05
1.2017e+05
1.2195e+05
1.2204e+05
1.2328e+05
1.2414e+05
1.2497e+05
1.2564e+05
1.2644e+05
1.2681e+05
1.2763e+05
1.2811e+05
1.2864e+05
1.2898e+05
1.2925e+05
1.2932e+05
1.3007e+05
1.3062e+05
1.3123e+05
1.3184e+05
1.3382e+05
1.344e+05
1.3459e+05
1.3504e+05
1.3544e+05
1.3673e+05
1.377e+05
1.38e+05
1.3894e+05
1.3956e+05
1.3984e+05
1.4014e+05
1.4044e+05
1.4077e+05
1.4097e+05
1.4128e+05
1.4159e+05
1.4184e+05
1.4191e+05
1.422e+05
1.4243e+05
1.427e+05
1.4293e+05
1.43e+05
1.4328e+05
1.4353e+05
1.4375e+05
1.4503e+05
1.453e+05
1.4554e+05
1.4578e+05
1.4602e+05
1.4639e+05
1.4669e+05
1.4693e+05
1.4716e+05
1.4741e+05
1.4844e+05
1.495e+05
1.4971e+05
1.4996e+05
1.5057e+05
1.5081e+05
1.5107e+05
1.511e+05
1.5141e+05
1.5167e+05
1.5171e+05
1.5189e+05
1.5237e+05
1.5241e+05
1.5264e+05
1.5268e+05
1.5287e+05
1.5315e+05
1.5335e+05
1.5367e+05
1.5395e+05
1.5399e+05
1.5418e+05
1.5421e+05
1.5449e+05
1.5475e+05
1.5479e+05
1.5499e+05
1.5549e+05
1.5574e+05
1.5598e+05
1.5626e+05
1.5653e+05
1.5681e+05
1.58e+05
1.5829e+05
1.5859e+05
1.5889e+05
1.5912e+05
1.5944e+05
1.6111e+05
1.6138e+05
1.6169e+05
1.6194e+05
1.6224e+05
1.6373e+05
1.6419e+05
1.6443e+05
1.6484e+05
1.6517e+05
1.6527e+05
1.6561e+05
1.659e+05
1.66e+05
1.6623e+05
1.6647e+05
1.6735e+05
1.6739e+05
1.6766e+05
1.6794e+05
1.6825e+05
1.6834e+05
1.6855e+05
1.6864e+05
1.6892e+05
1.6916e+05
1.6941e+05
1.6968e+05
1.6997e+05
1.7026e+05
1.7054e+05
1.7084e+05
1.7114e+05
1.7142e+05
1.7167e+05
1.7373e+05
1.7409e+05
1.7435e+05
1.7468e+05
1.7548e+05
1.7577e+05
1.7607e+05
1.7636e+05
1.7661e+05
1.7689e+05
1.7732e+05
1.7777e+05
1.7786e+05
1.7819e+05
1.7858e+05
1.789e+05
1.792e+05
1.795e+05
1.7976e+05
1.7984e+05
1.8033e+05
1.8042e+05
1.8063e+05
1.8072e+05
1.8407e+05
1.8448e+05
1.8504e+05
1.8531e+05
1.8634e+05
1.8668e+05
1.8689e+05
1.8715e+05
1.8744e+05
1.8769e+05
1.8774e+05
1.8798e+05
1.8821e+05
1.8847e+05
1.8916e+05
1.8938e+05
1.8964e+05
1.899e+05
1.9019e+05
1.9053e+05
1.9101e+05
1.9128e+05
1.9183e+05
1.9214e+05
1.9243e+05
1.9266e+05
1.9293e+05
1.9323e+05
1.9348e+05
1.943e+05
1.9478e+05
1.9539e+05
1.9592e+05
1.9626e+05
1.967e+05
1.9852e+05
1.9872e+05
1.9901e+05
1.9926e+05
1.993e+05
1.9949e+05
1.9984e+05
2.0018e+05
2.0045e+05
2.0073e+05
2.0102e+05
2.0123e+05
2.0147e+05
2.0181e+05
2.0215e+05
2.0225e+05
2.0247e+05
2.0255e+05
2.0277e+05
2.031e+05
2.034e+05
2.0368e+05
2.04e+05
2.0429e+05
2.0458e+05
2.0489e+05
2.0517e+05
2.0546e+05
2.0568e+05
2.0591e+05
2.0619e+05
2.0653e+05
2.0675e+05
2.0703e+05
2.0728e+05
2.0752e+05
2.0781e+05
2.0812e+05
2.084e+05
2.0865e+05
2.0886e+05
2.0911e+05
2.0938e+05
2.0966e+05
2.0993e+05
2.1021e+05
2.105e+05
2.1071e+05
2.1106e+05
2.1134e+05
2.1162e+05
2.1189e+05
2.122e+05
2.1247e+05
2.127e+05
2.1305e+05
2.1334e+05
2.1363e+05
2.1388e+05
2.1414e+05
2.1444e+05
2.1478e+05
2.1505e+05
2.1535e+05
2.1564e+05
2.159e+05
2.1611e+05
2.1635e+05
2.1662e+05
2.169e+05
2.1713e+05
2.1736e+05
2.1761e+05
2.179e+05
2.1813e+05
2.1855e+05
2.1887e+05
2.1922e+05
2.1958e+05
2.1977e+05
2.2015e+05
2.2035e+05
2.2041e+05
2.2061e+05
2.209e+05
2.2115e+05
2.2135e+05
2.2162e+05
2.2166e+05
2.219e+05
2.2216e+05
2.2243e+05
2.2249e+05
2.2269e+05
2.2272e+05
2.2294e+05
2.2317e+05
2.2322e+05
2.2346e+05
2.2364e+05
2.2395e+05
2.2427e+05
2.2432e+05
2.2449e+05
2.248e+05
2.2508e+05
2.2537e+05
2.2558e+05
2.2587e+05
2.2616e+05
2.2638e+05
2.2668e+05
2.2691e+05
2.2717e+05
2.2747e+05
2.2775e+05
2.2806e+05
2.2832e+05
2.2854e+05
2.286e+05
2.2882e+05
2.2909e+05
2.2936e+05
2.2955e+05
2.2983e+05
2.301e+05
2.3033e+05
2.3061e+05
2.3082e+05
2.3117e+05
2.3137e+05
2.3174e+05
2.321e+05
2.3232e+05
2.3256e+05
2.3283e+05
2.3313e+05
2.3349e+05
2.3387e+05
2.3414e+05
2.3435e+05
2.3466e+05
2.3502e+05
2.3523e+05
2.3552e+05
2.359e+05
2.3627e+05
2.3655e+05
2.3685e+05
2.3711e+05
2.3734e+05
2.376e+05
2.3785e+05
2.3788e+05
2.3808e+05
2.3834e+05
2.3866e+05
2.3895e+05
2.3923e+05
2.3959e+05
2.3967e+05
2.4017e+05
2.4049e+05
2.4057e+05
2.408e+05
2.4108e+05
2.4116e+05
2.414e+05
2.4165e+05
2.4255e+05
2.4277e+05
2.4304e+05
2.4333e+05
2.4359e+05
2.4393e+05
2.4421e+05
2.4451e+05
2.4476e+05
2.4502e+05
2.4526e+05
2.456e+05
2.4565e+05
2.4592e+05
2.4627e+05
2.4654e+05
2.4685e+05
2.4725e+05
2.475e+05
2.4771e+05
2.4947e+05
2.4973e+05
2.5e+05
2.5034e+05
2.5042e+05
2.5087e+05
2.5115e+05
2.5143e+05
2.5174e+05
2.5199e+05
2.5222e+05
2.5361e+05
2.5382e+05
2.5418e+05
2.5438e+05
2.5444e+05
2.5536e+05
2.5565e+05
2.559e+05
2.562e+05
2.5624e+05
2.5648e+05
2.5673e+05
2.5697e+05
2.5742e+05
2.577e+05
2.5792e+05
2.5823e+05
2.5849e+05
2.5878e+05
2.5901e+05
2.5904e+05
2.5929e+05
2.5949e+05
2.5983e+05
2.624e+05
2.6266e+05
2.6334e+05
2.6354e+05
2.6525e+05
2.6556e+05
2.6575e+05
2.6607e+05
2.663e+05
2.6664e+05
2.6761e+05
2.6785e+05
2.6888e+05
2.6917e+05
2.6949e+05
2.6976e+05
2.6999e+05
2.7025e+05
2.7057e+05
2.7087e+05
2.7107e+05
2.7142e+05
2.7168e+05
2.7192e+05
2.7304e+05
2.7331e+05
2.7357e+05
2.7381e+05
2.7405e+05
2.7439e+05
2.7472e+05
2.7498e+05
2.7528e+05
2.7561e+05
2.7594e+05
2.762e+05
2.7644e+05
2.7681e+05
2.7796e+05
2.7815e+05
2.7843e+05
2.787e+05
2.7889e+05
2.7893e+05
2.7913e+05
2.8027e+05
2.8097e+05
2.8125e+05
2.8151e+05
2.8176e+05
2.8215e+05
2.8243e+05
2.8275e+05
2.8303e+05
2.8306e+05
2.8336e+05
2.837e+05
2.8396e+05
2.8415e+05
2.8422e+05
2.8448e+05
2.8468e+05
2.85e+05
2.8529e+05
2.8533e+05
2.855e+05
2.8557e+05
2.8598e+05
2.8624e+05
2.8653e+05
2.8675e+05
2.8704e+05
2.8725e+05
2.8772e+05
2.8804e+05
2.9112e+05
2.9142e+05
2.9196e+05
2.933e+05
2.9356e+05
2.9379e+05
2.9404e+05
2.9432e+05
2.9458e+05
2.949e+05
2.9523e+05
2.9545e+05
2.9577e+05
2.9604e+05
2.9608e+05
2.9818e+05
2.9829e+05
2.987e+05
2.9891e+05
2.99e+05
2.9949e+05
2.9986e+05
3.0017e+05
3.011e+05
3.0144e+05
3.0168e+05
3.0204e+05
3.026e+05
3.029e+05
3.0325e+05
3.0353e+05
3.0387e+05
3.0449e+05
3.0478e+05
3.0509e+05
3.0539e+05
3.0567e+05
3.0621e+05
3.0653e+05
3.0685e+05
3.0712e+05
3.0719e+05
3.0742e+05
3.0766e+05
3.0821e+05
3.0846e+05
3.0867e+05
3.0895e+05
3.0925e+05
3.0948e+05
3.0976e+05
3.1006e+05
3.1037e+05
3.107e+05
3.1103e+05
3.1133e+05
3.1155e+05
3.1181e+05
3.1203e+05
3.1231e+05
3.1256e+05
3.128e+05
3.1306e+05
3.1326e+05
3.1352e+05
3.1384e+05
3.1425e+05
3.1446e+05
3.1472e+05
3.1495e+05
3.1498e+05
3.1521e+05
3.1545e+05
3.1573e+05
3.1601e+05
3.1623e+05
3.1648e+05
3.1673e+05
3.1696e+05
3.1729e+05
3.1747e+05
3.178e+05
3.1808e+05
3.1836e+05
3.1861e+05
3.1887e+05
3.1919e+05
3.1943e+05
3.1973e+05
3.2003e+05
3.203e+05
3.2055e+05
3.2078e+05
3.2104e+05
3.2135e+05
3.2193e+05
3.2226e+05
3.2283e+05
3.2315e+05
3.2371e+05
3.2401e+05
3.2457e+05
3.2486e+05
3.2541e+05
3.257e+05
3.2624e+05
3.2655e+05
3.2684e+05
3.2711e+05
3.2738e+05
3.2763e+05
3.2791e+05
3.2813e+05
3.2843e+05
3.2864e+05
3.2898e+05
3.2924e+05
3.2943e+05
3.2972e+05
3.2999e+05
3.3022e+05
3.3055e+05
3.3087e+05
3.3143e+05
3.3174e+05
3.3229e+05
3.3259e+05
3.3314e+05
3.3343e+05
3.3399e+05
3.3427e+05
3.3481e+05
3.3511e+05
3.3564e+05
3.3594e+05
3.3649e+05
3.3679e+05
3.3733e+05
3.3763e+05
3.3815e+05
3.3844e+05
3.3957e+05
3.3984e+05
3.4044e+05
3.4074e+05
3.4131e+05
3.416e+05
3.4214e+05
3.4244e+05
3.4298e+05
3.4326e+05
3.4379e+05
3.4409e+05
3.4463e+05
3.4492e+05
3.4546e+05
3.4574e+05
3.4614e+05
3.4754e+05
3.4783e+05
3.4836e+05
3.4892e+05
3.492e+05
3.4973e+05
3.5003e+05
3.5139e+05
3.5194e+05
3.5223e+05
3.5277e+05
3.5306e+05
3.536e+05
3.5413e+05
3.5443e+05
3.5497e+05
3.5526e+05
3.558e+05
3.5771e+05
3.5826e+05
3.5855e+05
3.5992e+05
3.6046e+05
3.61e+05
3.6152e+05
3.618e+05
3.6233e+05
3.6262e+05
3.6316e+05
3.637e+05
3.6399e+05
3.6451e+05
3.6514e+05
3.6516e+05
3.6561e+05
3.6615e+05
3.6625e+05
3.6778e+05
3.6807e+05
3.6859e+05
3.6914e+05
3.6968e+05
3.703e+05
3.7032e+05
3.7077e+05
3.7213e+05
3.7267e+05
3.7322e+05
3.735e+05
3.7402e+05
3.743e+05
3.746e+05
3.7488e+05
3.7517e+05
3.7548e+05
3.7578e+05
3.769e+05
3.7745e+05
3.8005e+05
3.8023e+05
3.8051e+05
3.8075e+05
3.8098e+05
3.8144e+05
3.8177e+05
3.8208e+05
3.8239e+05
3.827e+05
3.8301e+05
3.8332e+05
3.8362e+05
3.8438e+05
3.8522e+05
3.8571e+05
3.8673e+05
3.8694e+05
3.8748e+05
3.8804e+05
3.8858e+05
3.8888e+05
3.8919e+05
3.8932e+05
3.9015e+05
3.9034e+05
3.9046e+05
3.9074e+05
3.926e+05
3.9318e+05
3.9434e+05
3.9463e+05
3.9481e+05
3.9542e+05
3.9566e+05
3.9629e+05
3.9648e+05
3.9731e+05
3.9762e+05
3.9815e+05
3.9845e+05
3.9899e+05
3.9929e+05
3.9958e+05
3.9988e+05
4.0042e+05
4.0096e+05
4.0151e+05
4.02e+05
4.023e+05
4.0263e+05
4.0289e+05
4.0312e+05
4.0334e+05
4.0359e+05
4.0383e+05
4.0404e+05
4.0434e+05
4.046e+05
4.0497e+05
4.0532e+05
4.0562e+05
4.0585e+05
4.0609e+05
4.0629e+05
4.0656e+05
4.0677e+05
4.0701e+05
4.0734e+05
4.0759e+05
4.0782e+05
4.0808e+05
4.0831e+05
4.0861e+05
4.0885e+05
4.091e+05
4.0941e+05
4.097e+05
4.0999e+05
4.1023e+05
4.1046e+05
4.1079e+05
4.1114e+05
4.1146e+05
4.1173e+05
4.1196e+05
4.1229e+05
4.1252e+05
4.1285e+05
4.1341e+05
4.1372e+05
4.1402e+05
4.1432e+05
4.1462e+05
4.1494e+05
4.1526e+05
4.1556e+05
4.1591e+05
4.1621e+05
4.1653e+05
4.1686e+05
4.1717e+05
4.1749e+05
4.1807e+05
4.1863e+05
4.1894e+05
4.1925e+05
4.1956e+05
4.1987e+05
4.2018e+05
4.2048e+05
4.2107e+05
4.2163e+05
4.2218e+05
4.2273e+05
4.2327e+05
4.2357e+05
4.2388e+05
4.2417e+05
4.2471e+05
4.2502e+05
4.2532e+05
4.2562e+05
4.2592e+05
4.2623e+05
4.2654e+05
4.271e+05
4.2765e+05
4.2821e+05
4.2872e+05
4.2897e+05
4.293e+05
4.2985e+05
4.3014e+05
4.3043e+05
4.3073e+05
4.3103e+05
4.3132e+05
4.3162e+05
4.3194e+05
4.3226e+05
4.3258e+05
4.3316e+05
4.3373e+05
4.3405e+05
4.3436e+05
4.3466e+05
4.3519e+05
4.355e+05
4.358e+05
4.3611e+05
4.3665e+05
4.3722e+05
4.3785e+05
4.3786e+05
4.3841e+05
4.3894e+05
4.3925e+05
4.395e+05
4.3993e+05
4.4023e+05
4.4045e+05
4.4069e+05
4.4096e+05
4.4125e+05
4.4265e+05
4.4404e+05
4.4456e+05
4.4548e+05
4.4797e+05
4.4833e+05
4.4877e+05
4.491e+05
4.5053e+05
4.5081e+05
4.5125e+05
4.516e+05
4.5187e+05
4.5211e+05
4.5234e+05
4.5256e+05
4.5279e+05
4.5318e+05
4.5348e+05
4.5375e+05
4.5462e+05
4.549e+05
4.5509e+05
4.5533e+05
4.5558e+05
4.5607e+05
4.5641e+05
4.5664e+05
4.5685e+05
4.5718e+05
4.5746e+05
4.5828e+05
4.5856e+05
4.586e+05
4.5888e+05
4.5969e+05
4.6001e+05
4.6021e+05
4.6051e+05
4.608e+05
4.6102e+05
4.6133e+05
4.6161e+05
4.6186e+05
4.6217e+05
4.6297e+05
4.632e+05
4.6352e+05
4.6378e+05
4.6813e+05
4.6845e+05
4.6866e+05
4.6871e+05
4.6894e+05
4.6924e+05
4.6955e+05
4.7027e+05
4.7055e+05
4.7084e+05
4.7176e+05
4.8122e+05
4.8154e+05
4.8182e+05
4.8211e+05
4.8266e+05
4.8294e+05
4.8348e+05
4.8377e+05
4.8432e+05
4.846e+05
4.851e+05
4.8551e+05
4.8609e+05
4.8638e+05
4.8693e+05
4.8776e+05
4.8805e+05
4.8861e+05
4.889e+05
4.8944e+05
4.8973e+05
4.9028e+05
4.911e+05
4.9139e+05
4.9193e+05
4.9222e+05
4.9277e+05
4.9333e+05
4.9363e+05
4.9414e+05
4.9444e+05
4.9499e+05
4.9663e+05
4.9714e+05
4.974e+05
4.977e+05
4.9792e+05
4.983e+05
4.9887e+05
4.9942e+05
4.9998e+05
5.0048e+05
5.0075e+05
5.0104e+05
5.0129e+05
5.0159e+05
5.0181e+05
5.0188e+05
5.0209e+05
5.0234e+05
5.0259e+05
5.0283e+05
5.0309e+05
5.034e+05
5.0368e+05
5.0391e+05
5.0421e+05
5.0453e+05
5.0487e+05
5.0516e+05
5.0545e+05
5.0554e+05
5.0587e+05
5.0613e+05
5.0617e+05
5.0638e+05
5.0661e+05
5.0683e+05
5.0713e+05
5.0742e+05
5.0777e+05
5.0803e+05
5.0828e+05
5.0858e+05
5.0891e+05
5.0917e+05
5.094e+05
5.0971e+05
5.0999e+05
5.1022e+05
5.1046e+05
5.1071e+05
5.1099e+05
5.1145e+05
5.1174e+05
5.1206e+05
5.1225e+05
5.1254e+05
5.1284e+05
5.1309e+05
5.1334e+05
5.1362e+05
5.1391e+05
5.1424e+05
5.1458e+05
5.1481e+05
5.1509e+05
5.1543e+05
5.1575e+05
5.1597e+05
5.162e+05
5.1656e+05
5.168e+05
5.1703e+05
5.1736e+05
5.1771e+05
5.1802e+05
5.1837e+05
5.1845e+05
5.187e+05
5.1902e+05
5.1928e+05
5.1952e+05
5.1961e+05
5.1983e+05
5.2018e+05
5.2052e+05
5.2082e+05
5.211e+05
5.2134e+05
5.2154e+05
5.2189e+05
5.2221e+05
5.2246e+05
5.2267e+05
5.2299e+05
5.2328e+05
5.2355e+05
5.2385e+05
5.2406e+05
5.241e+05
5.2428e+05
5.2461e+05
5.2485e+05
5.2512e+05
5.2538e+05
5.257e+05
5.2592e+05
5.2613e+05
5.2617e+05
5.2646e+05
5.2679e+05
5.2711e+05
5.275e+05
5.2778e+05
5.2802e+05
5.2828e+05
5.2861e+05
5.289e+05
5.2914e+05
5.2939e+05
5.2973e+05
5.3007e+05
5.3032e+05
5.3053e+05
5.3081e+05
5.3102e+05
5.3132e+05
5.3158e+05
5.3181e+05
5.32e+05
5.3228e+05
5.3253e+05
5.3287e+05
5.3306e+05
5.3335e+05
5.3356e+05
5.3385e+05
5.3419e+05
5.3448e+05
5.3477e+05
5.3503e+05
5.3522e+05
5.3527e+05
5.3552e+05
5.357e+05
5.3573e+05
5.3607e+05
5.3635e+05
5.366e+05
5.3689e+05
5.3719e+05
5.3755e+05
5.3783e+05
5.3807e+05
5.3837e+05
5.3869e+05
5.3893e+05
5.3925e+05
5.3955e+05
5.3982e+05
5.4006e+05
5.4037e+05
5.4068e+05
5.4099e+05
5.412e+05
5.4153e+05
5.4183e+05
5.4215e+05
5.4222e+05
5.4405e+05
5.4431e+05
5.4458e+05
5.4479e+05
5.4519e+05
5.4554e+05
5.459e+05
5.4622e+05
5.4648e+05
5.4667e+05
5.4687e+05
5.4691e+05
5.4715e+05
5.4745e+05
5.4798e+05
5.4803e+05
5.5063e+05
5.5183e+05
5.5215e+05
5.5277e+05
5.5311e+05
5.5334e+05
5.5376e+05
5.5405e+05
5.5507e+05
5.553e+05
5.5557e+05
5.5586e+05
5.5619e+05
5.5662e+05
5.5747e+05
5.5772e+05
5.5792e+05
5.5796e+05
5.5877e+05
5.5903e+05
5.5929e+05
5.5955e+05
5.598e+05
5.6046e+05
5.6071e+05
5.6105e+05
5.6137e+05
5.616e+05
5.6193e+05
5.6246e+05
5.6272e+05
5.63e+05
5.6341e+05
5.6371e+05
5.6404e+05
5.6438e+05
5.6471e+05
5.65e+05
5.6533e+05
5.6564e+05
5.659e+05
5.6616e+05
5.6648e+05
5.6688e+05
5.6721e+05
5.6728e+05
5.6749e+05
5.6773e+05
5.6781e+05
5.6801e+05
5.6932e+05
5.7863e+05
5.7868e+05
5.7923e+05
5.7975e+05
5.8e+05
5.803e+05
5.8291e+05
5.8318e+05
5.8359e+05
5.848e+05
5.8507e+05
5.853e+05
5.8615e+05
5.8641e+05
5.8765e+05
5.8787e+05
5.8934e+05
5.8966e+05
5.897e+05
5.8989e+05
5.8993e+05
5.9013e+05
5.9045e+05
5.9077e+05
5.9111e+05
5.921e+05
5.924e+05
5.9243e+05
5.9273e+05
5.931e+05
5.9314e+05
5.9344e+05
5.938e+05
5.9406e+05
5.9436e+05
5.9465e+05
5.9491e+05
5.9519e+05
5.9556e+05
5.958e+05
5.9605e+05
5.9609e+05
5.9635e+05
5.967e+05
5.9677e+05
5.9701e+05
5.9725e+05
5.9763e+05
5.979e+05
5.9816e+05
5.9837e+05
5.9863e+05
5.9891e+05
5.9913e+05
5.9941e+05
5.9966e+05
5.9995e+05
6.0015e+05
6.0044e+05
6.0086e+05
6.012e+05
6.015e+05
6.0179e+05
6.0206e+05
6.0239e+05
6.0265e+05
6.0292e+05
6.0321e+05
6.0342e+05
6.0375e+05
6.0407e+05
6.0435e+05
6.0469e+05
6.0496e+05
6.0504e+05
6.0539e+05
6.0566e+05
6.0596e+05
6.0627e+05
6.0648e+05
6.0676e+05
6.0702e+05
6.0751e+05
6.0789e+05
6.0819e+05
6.0848e+05
6.0873e+05
6.0882e+05
6.0905e+05
6.0949e+05
6.098e+05
6.1006e+05
6.1034e+05
6.1068e+05
6.1096e+05
6.113e+05
6.1155e+05
6.1186e+05
6.1219e+05
6.1247e+05
6.1285e+05
6.1306e+05
6.1332e+05
6.136e+05
6.139e+05
6.1419e+05
6.1448e+05
6.1478e+05
6.1515e+05
6.1546e+05
6.1571e+05
6.1592e+05
6.162e+05
6.1648e+05
6.1678e+05
6.1709e+05
6.1738e+05
6.1764e+05
6.1789e+05
6.1834e+05
6.1858e+05
6.1882e+05
6.1912e+05
6.1941e+05
6.1972e+05
6.1998e+05
6.2033e+05
6.2043e+05
6.2065e+05
6.2085e+05
6.2117e+05
6.2138e+05
6.2166e+05
6.2186e+05
6.2212e+05
6.2238e+05
6.2261e+05
6.2289e+05
6.2315e+05
6.2342e+05
6.2374e+05
6.2401e+05
6.2431e+05
6.246e+05
6.2491e+05
6.252e+05
6.2549e+05
6.2576e+05
6.26e+05
6.2632e+05
6.2661e+05
6.2691e+05
6.2721e+05
6.2743e+05
6.2775e+05
6.2808e+05
6.2827e+05
6.2864e+05
6.2886e+05
6.2914e+05
6.2942e+05
6.297e+05
6.2993e+05
6.3014e+05
6.3045e+05
6.3076e+05
6.3106e+05
6.3135e+05
6.3164e+05
6.3194e+05
6.3224e+05
6.3253e+05
6.3283e+05
6.3313e+05
6.3342e+05
6.3371e+05
6.34e+05
6.343e+05
6.3452e+05
6.3481e+05
6.3509e+05
6.3551e+05
6.3581e+05
6.3603e+05
6.3629e+05
6.3657e+05
6.3689e+05
6.3716e+05
6.376e+05
6.379e+05
6.3821e+05
6.3846e+05
6.3885e+05
6.3968e+05
6.399e+05
6.4028e+05
6.4057e+05
6.4089e+05
6.4118e+05
6.4139e+05
6.4145e+05
6.4177e+05
6.4207e+05
6.4241e+05
6.4271e+05
6.4294e+05
6.433e+05
6.4352e+05
6.4374e+05
6.4408e+05
6.4474e+05
6.4503e+05
6.4532e+05
6.4554e+05
6.4586e+05
6.4616e+05
6.4666e+05
6.4693e+05
6.4724e+05
