277
576
880
1180
1482
1779
2081
2387
2685
2991
3294
3588
3889
4190
4492
4795
5088
5396
5704
6000
6303
6602
6906
7207
7499
7803
8106
8403
8703
9001
9306
9603
9897
10201
10501
10797
11102
11400
11707
12005
12300
12608
12911
13207
13513
13810
14118
14417
14717
15028
15330
15622
15925
16223
17888
19182
20112
20407
20704
21010
21312
21607
21907
22213
22508
22805
23109
23417
23723
24023
24334
24640
24941
25249
25552
25858
26164
26467
26776
27085
27388
27691
28000
28306
28605
28913
29217
29514
29811
30106
30408
30705
30995
31303
31612
31907
32207
32503
32805
33104
33398
33702
34000
34293
34591
34891
35200
35505
35809
36124
36430
36737
37041
37348
37659
37965
38276
38586
38889
39194
39502
39809
40114
40418
40728
41031
41327
41636
41940
42244
42539
42837
43146
43448
43746
44049
44354
44661
44960
45259
45570
45876
46175
46474
46771
47074
47370
47663
47973
48273
48574
48875
49179
49486
49787
50089
50398
50697
50993
51293
51597
51900
52201
52504
52812
53112
53416
53722
54030
54329
54625
54937
55240
55536
55838
56138
56446
56745
57040
57354
57656
57956
58259
58559
58861
59162
59459
59762
60061
60355
60658
60966
61265
61567
61877
62184
62482
62781
63086
63396
63690
63987
64296
64597
64894
65194
65494
65802
66099
66400
66711
67009
67309
67605
67907
68209
68506
68806
69112
69412
69712
70013
70315
70617
70914
71219
71519
71814
72112
72410
72716
73014
73308
73620
73925
74220
74525
74827
75137
75440
75734
76044
76354
76651
76955
77260
77573
77875
78176
78487
78796
79097
79404
79710
80018
80321
80630
80945
81258
81571
81881
82496
83114
83423
84040
84349
84667
84980
85289
85611
86237
86557
87209
87530
88185
88810
89448
89760
90078
90388
90693
91002
91307
91620
92865
93173
93482
93794
94108
94413
94722
95036
95344
95660
95969
96286
96599
96911
97233
97548
97860
98179
98511
98840
1.7707e+05
1.7837e+05
1.8334e+05
1.9894e+05
1.9928e+05
1.996e+05
1.9992e+05
2.0015e+05
2.0059e+05
2.0087e+05
2.0092e+05
2.0151e+05
2.0216e+05
2.0252e+05
2.0416e+05
2.0513e+05
2.0644e+05
2.068e+05
2.0773e+05
2.0876e+05
2.0938e+05
2.0973e+05
2.1007e+05
2.1073e+05
2.114e+05
2.1206e+05
2.1239e+05
2.1405e+05
2.1506e+05
2.154e+05
2.1578e+05
2.1606e+05
2.1673e+05
2.1773e+05
2.1906e+05
2.2004e+05
2.2067e+05
2.2194e+05
2.2289e+05
2.2351e+05
2.2404e+05
2.2438e+05
2.2583e+05
2.2815e+05
2.3147e+05
2.32e+05
2.3354e+05
2.3384e+05
2.3457e+05
2.3593e+05
2.3797e+05
2.3861e+05
2.3895e+05
2.3929e+05
2.3963e+05
2.3995e+05
2.4062e+05
2.4097e+05
2.4132e+05
2.4166e+05
2.42e+05
2.4234e+05
2.4269e+05
2.4303e+05
2.4338e+05
2.4373e+05
2.4408e+05
2.4442e+05
2.4478e+05
2.4512e+05
2.4546e+05
2.458e+05
2.4614e+05
2.465e+05
2.4683e+05
2.4751e+05
2.4786e+05
2.4854e+05
2.4889e+05
2.4923e+05
2.4958e+05
2.4993e+05
2.5027e+05
2.5062e+05
2.5098e+05
2.5132e+05
2.5167e+05
2.5202e+05
2.5235e+05
2.527e+05
2.5304e+05
2.5339e+05
2.5373e+05
2.5407e+05
2.5442e+05
2.5475e+05
2.5509e+05
2.5543e+05
2.5577e+05
2.5611e+05
2.5645e+05
2.5681e+05
2.5715e+05
2.575e+05
2.5786e+05
2.582e+05
2.5854e+05
2.5889e+05
2.5923e+05
2.5988e+05
2.6022e+05
2.6054e+05
2.6087e+05
2.612e+05
2.6152e+05
2.6218e+05
2.6251e+05
2.6316e+05
2.635e+05
2.6414e+05
2.6446e+05
2.6512e+05
2.6544e+05
2.6578e+05
2.6643e+05
2.6675e+05
2.6709e+05
2.6775e+05
2.6811e+05
2.6846e+05
2.6879e+05
2.6913e+05
2.6947e+05
2.6981e+05
2.7049e+05
2.7081e+05
2.711e+05
2.7147e+05
2.7214e+05
2.7248e+05
2.7283e+05
2.7318e+05
2.7351e+05
2.7386e+05
2.7421e+05
2.7454e+05
2.7488e+05
2.7556e+05
2.7589e+05
2.7622e+05
2.7656e+05
2.7689e+05
2.7756e+05
2.7789e+05
2.7856e+05
2.7889e+05
2.7989e+05
2.8056e+05
2.8122e+05
2.8155e+05
2.8222e+05
2.8288e+05
2.8418e+05
2.8451e+05
2.8484e+05
2.8584e+05
2.8885e+05
2.8954e+05
2.8987e+05
2.902e+05
2.9054e+05
2.9088e+05
2.9122e+05
2.9157e+05
2.9223e+05
2.9289e+05
2.9321e+05
2.9352e+05
2.9386e+05
2.9418e+05
2.945e+05
2.9483e+05
2.9516e+05
2.9549e+05
2.9581e+05
2.9638e+05
2.9671e+05
2.9704e+05
2.9802e+05
2.9835e+05
2.9857e+05
2.9895e+05
2.9929e+05
2.9963e+05
2.9994e+05
3.0017e+05
3.0055e+05
3.0152e+05
3.0183e+05
3.0217e+05
3.0282e+05
3.0315e+05
3.0447e+05
3.0469e+05
3.0509e+05
3.0576e+05
3.0609e+05
3.0638e+05
3.0759e+05
3.077e+05
3.0797e+05
3.0833e+05
3.0902e+05
3.0936e+05
3.0955e+05
3.0994e+05
3.103e+05
3.1064e+05
3.1098e+05
3.1202e+05
3.1236e+05
3.1271e+05
3.1305e+05
3.1407e+05
3.1513e+05
3.1548e+05
3.1583e+05
3.1618e+05
3.1653e+05
3.1686e+05
3.1722e+05
3.1757e+05
3.1791e+05
3.1825e+05
3.186e+05
3.1895e+05
3.1928e+05
3.1963e+05
3.1997e+05
3.203e+05
3.2064e+05
3.2099e+05
3.2133e+05
3.2166e+05
3.22e+05
3.2234e+05
3.2267e+05
3.23e+05
3.2333e+05
3.2365e+05
3.2397e+05
3.2431e+05
3.2464e+05
3.2496e+05
3.2529e+05
3.2564e+05
3.2597e+05
3.263e+05
3.2664e+05
3.2697e+05
3.273e+05
3.2763e+05
3.2797e+05
3.283e+05
3.2851e+05
3.2891e+05
3.2926e+05
3.2959e+05
3.2993e+05
3.3027e+05
3.306e+05
3.3093e+05
3.3128e+05
3.3162e+05
3.3195e+05
3.3228e+05
3.3349e+05
3.3423e+05
3.3457e+05
3.349e+05
3.3523e+05
3.3623e+05
3.3654e+05
3.3721e+05
3.3957e+05
3.4027e+05
3.4062e+05
3.4097e+05
3.4168e+05
3.4316e+05
3.4352e+05
3.4388e+05
3.4424e+05
3.4494e+05
3.4599e+05
3.4633e+05
3.4698e+05
3.4735e+05
3.4769e+05
3.4907e+05
3.4942e+05
3.5015e+05
3.5051e+05
3.5164e+05
3.52e+05
3.5237e+05
3.5684e+05
3.6086e+05
3.6326e+05
3.7489e+05
3.7563e+05
3.7666e+05
3.7701e+05
3.7806e+05
3.7874e+05
3.7909e+05
3.8076e+05
3.8102e+05
3.8144e+05
3.818e+05
3.8214e+05
3.8319e+05
3.8388e+05
3.8494e+05
3.8529e+05
3.86e+05
3.8637e+05
3.8672e+05
3.8707e+05
3.8742e+05
3.8776e+05
3.881e+05
3.8844e+05
3.8878e+05
3.8912e+05
3.8945e+05
3.8979e+05
3.9013e+05
3.908e+05
3.9114e+05
3.9142e+05
3.9178e+05
3.9412e+05
3.9441e+05
3.9581e+05
3.9614e+05
3.9688e+05
4.0758e+05
4.2024e+05
4.4669e+05
4.5817e+05
4.7226e+05
-1
417
452
722
754
1021
1054
1320
1353
1626
1658
1926
1955
2230
2263
2528
2560
2826
2861
3137
3167
3437
3466
3730
3759
4033
4061
4334
4362
4640
4667
4939
4969
5233
5264
5544
5575
5848
5878
6142
6171
6447
6474
6745
6777
7048
7078
7348
7377
7642
7676
7947
7979
8249
8278
8544
8575
8842
8871
9145
9175
9445
9476
9743
9773
10043
10073
10344
10371
10644
10674
10938
10971
11241
11271
11543
11575
11844
11873
12143
12172
12444
12475
12752
12781
13054
13082
13348
13380
13652
13682
13956
13985
14260
14292
14557
14587
14864
14897
15170
15200
15470
15496
15764
15797
16065
16098
16365
16395
16656
16685
16950
16980
17250
17282
17549
17576
17846
18030
18398
18708
19014
19042
19323
19348
19631
19662
19946
19975
20253
20283
20552
20581
20850
20880
21159
21456
21483
21751
21777
22057
22088
22355
22385
22652
22679
22953
22981
23256
23281
23564
23590
23865
23891
24168
24197
24483
24512
24783
24812
25082
25390
25418
25696
25724
26001
26306
26338
26612
26643
26921
26950
27227
27257
27532
27839
27870
28149
28177
28449
28475
28748
29061
29090
29363
29391
29657
29684
29953
30251
30552
30582
30847
30875
31141
31173
31450
31757
31787
32050
32078
32348
32377
32648
32680
32946
32979
33244
33277
33544
33573
33844
33876
34139
34431
34465
34728
34764
35035
35069
35338
35371
35644
35676
35956
35991
36265
36297
36569
36602
36881
36912
37186
37215
37499
37527
37802
37834
38109
38139
38425
38454
38730
38760
39033
39062
39342
39372
39647
39957
39986
40261
40288
40563
40876
41176
41207
41473
41500
41780
41807
42083
42386
42412
42683
42709
42980
43013
43290
43590
43888
43915
44191
44220
44498
44803
44833
45104
45134
45406
45713
45741
46017
46048
46318
46348
46616
46641
46916
46949
47214
47510
47539
47812
47844
48115
48146
48412
48717
48747
49019
49048
49327
49354
49630
49930
50238
50267
50541
50837
50865
51137
51168
51443
51468
51744
51772
52044
52075
52346
52652
52682
52959
52989
53257
53287
53559
53869
53900
54174
54202
54471
54498
54771
54800
55079
55383
55412
55680
55706
55976
56002
56283
56313
56587
56884
57190
57220
57495
57525
57794
57826
58104
58404
58436
58708
58740
59006
59037
59301
59605
59640
59905
59936
60200
60231
60501
60535
60804
60837
61111
61142
61410
61441
61710
62023
62331
62362
62624
62654
62923
62952
63230
63260
63536
63830
63856
64134
64165
64438
64467
64737
64767
65038
65066
65336
65363
65641
65944
66242
66270
66548
66854
66884
67148
67179
67452
67753
67779
68053
68079
68353
68648
68955
69260
69287
69555
69583
69857
70162
70192
70463
70492
70762
70792
71059
71367
71664
71695
71958
71986
72255
72557
72860
72885
73155
73454
73483
73765
74068
74095
74365
74668
74694
74974
75281
75309
75582
75607
75882
75907
76190
76219
76496
76795
77094
77406
77433
77715
77746
78016
78324
78630
78662
78936
79244
79273
79549
79858
80161
80464
80493
80781
80808
81092
81401
81719
81745
82031
82057
82338
82635
82668
82942
82973
83261
83290
83566
83596
83873
84182
84211
84496
84811
84839
85122
85439
85471
85754
86069
86096
86385
86416
86704
86733
87034
87353
87678
87707
88009
88036
88326
88639
88672
88959
89281
89594
89626
89906
89933
90225
90253
90535
90840
91143
91452
91764
92069
92097
92384
92412
92696
93005
93322
93352
93632
93942
94254
94558
94873
94900
95185
95212
95489
95804
96117
96146
96430
96741
97062
97378
97690
97719
98010
98328
98356
98659
98984
99661
99991
1.0002e+05
1.0031e+05
1.0033e+05
1.0065e+05
1.0068e+05
1.0098e+05
1.0131e+05
1.0133e+05
1.0162e+05
1.0165e+05
1.0195e+05
1.0227e+05
1.0258e+05
1.0261e+05
1.029e+05
1.0293e+05
1.0321e+05
1.0324e+05
1.0352e+05
1.0383e+05
1.0386e+05
1.0415e+05
1.0418e+05
1.0446e+05
1.0476e+05
1.0507e+05
1.0538e+05
1.0569e+05
1.0572e+05
1.0599e+05
1.0602e+05
1.063e+05
1.0662e+05
1.0694e+05
1.0696e+05
1.0725e+05
1.0728e+05
1.0755e+05
1.0758e+05
1.0787e+05
1.0819e+05
1.0822e+05
1.085e+05
1.0852e+05
1.0882e+05
1.0914e+05
1.0945e+05
1.0948e+05
1.0977e+05
1.098e+05
1.1008e+05
1.1011e+05
1.1039e+05
1.1042e+05
1.1069e+05
1.1099e+05
1.1102e+05
1.1128e+05
1.113e+05
1.1159e+05
1.116e+05
1.1188e+05
1.119e+05
1.1221e+05
1.1251e+05
1.1283e+05
1.1313e+05
1.1316e+05
1.1343e+05
1.1346e+05
1.1374e+05
1.1405e+05
1.1435e+05
1.1438e+05
1.146e+05
1.1484e+05
1.152e+05
1.1551e+05
1.1582e+05
1.1585e+05
1.1623e+05
1.1655e+05
1.1657e+05
1.1687e+05
1.1689e+05
1.1719e+05
1.1722e+05
1.175e+05
1.1753e+05
1.1781e+05
1.1784e+05
1.1811e+05
1.1814e+05
1.1843e+05
1.1846e+05
1.1874e+05
1.1877e+05
1.1905e+05
1.1908e+05
1.1935e+05
1.1966e+05
1.1969e+05
1.1996e+05
1.1999e+05
1.2026e+05
1.2044e+05
1.2082e+05
1.2114e+05
1.2116e+05
1.2144e+05
1.2147e+05
1.2174e+05
1.2177e+05
1.2205e+05
1.2208e+05
1.2235e+05
1.2238e+05
1.2264e+05
1.2267e+05
1.2294e+05
1.2297e+05
1.2324e+05
1.2327e+05
1.2354e+05
1.2357e+05
1.2384e+05
1.2387e+05
1.2413e+05
1.2416e+05
1.2444e+05
1.2447e+05
1.2473e+05
1.2476e+05
1.2502e+05
1.2533e+05
1.2536e+05
1.2564e+05
1.2567e+05
1.2594e+05
1.2597e+05
1.2625e+05
1.2628e+05
1.2657e+05
1.266e+05
1.269e+05
1.2693e+05
1.2722e+05
1.2725e+05
1.2754e+05
1.2757e+05
1.2786e+05
1.2789e+05
1.2817e+05
1.282e+05
1.2848e+05
1.2851e+05
1.288e+05
1.2883e+05
1.2911e+05
1.2914e+05
1.2942e+05
1.2945e+05
1.2973e+05
1.2976e+05
1.3005e+05
1.3008e+05
1.3037e+05
1.304e+05
1.3068e+05
1.3071e+05
1.3099e+05
1.3102e+05
1.3131e+05
1.3134e+05
1.3164e+05
1.3167e+05
1.3196e+05
1.3228e+05
1.323e+05
1.3264e+05
1.3267e+05
1.3297e+05
1.33e+05
1.333e+05
1.3332e+05
1.3362e+05
1.3365e+05
1.3396e+05
1.3399e+05
1.3428e+05
1.3431e+05
1.3461e+05
1.3464e+05
1.3493e+05
1.3496e+05
1.3524e+05
1.3557e+05
1.356e+05
1.3589e+05
1.3621e+05
1.3624e+05
1.3653e+05
1.3656e+05
1.3684e+05
1.3687e+05
1.3716e+05
1.3719e+05
1.3748e+05
1.375e+05
1.3778e+05
1.3782e+05
1.381e+05
1.3813e+05
1.3842e+05
1.3873e+05
1.3876e+05
1.3903e+05
1.3906e+05
1.3935e+05
1.3939e+05
1.3967e+05
1.3999e+05
1.4028e+05
1.403e+05
1.4061e+05
1.4064e+05
1.4093e+05
1.4096e+05
1.4125e+05
1.4155e+05
1.4157e+05
1.4188e+05
1.4191e+05
1.4219e+05
1.4222e+05
1.4251e+05
1.4253e+05
1.4282e+05
1.4284e+05
1.4313e+05
1.4343e+05
1.4373e+05
1.4404e+05
1.4407e+05
1.443e+05
1.4452e+05
1.4488e+05
1.4518e+05
1.4549e+05
1.4553e+05
1.4579e+05
1.4583e+05
1.4609e+05
1.4612e+05
1.4638e+05
1.4642e+05
1.4668e+05
1.4671e+05
1.469e+05
1.4716e+05
1.4741e+05
1.4788e+05
1.4816e+05
1.4837e+05
1.4849e+05
1.4864e+05
1.4867e+05
1.4889e+05
1.4922e+05
1.4952e+05
1.4985e+05
1.5e+05
1.5045e+05
1.5077e+05
1.5232e+05
1.5258e+05
1.5328e+05
1.5362e+05
1.5394e+05
1.549e+05
1.5522e+05
1.5555e+05
1.5579e+05
1.5618e+05
1.5652e+05
1.5719e+05
1.5752e+05
1.5785e+05
1.5819e+05
1.5846e+05
1.5885e+05
1.5951e+05
1.6079e+05
1.6269e+05
1.6746e+05
1.6841e+05
1.6969e+05
1.7002e+05
1.7006e+05
1.7135e+05
1.7139e+05
1.7167e+05
1.7171e+05
1.7232e+05
1.7235e+05
1.7328e+05
1.7332e+05
1.7362e+05
1.7366e+05
1.7395e+05
1.7398e+05
1.7427e+05
1.743e+05
1.746e+05
1.7464e+05
1.7493e+05
1.7496e+05
1.7526e+05
1.7529e+05
1.7557e+05
1.7561e+05
1.759e+05
1.7594e+05
1.7689e+05
1.7692e+05
1.7722e+05
1.7726e+05
1.7754e+05
1.7758e+05
1.7787e+05
1.7791e+05
1.7821e+05
1.7824e+05
1.7854e+05
1.7858e+05
1.7887e+05
1.789e+05
1.792e+05
1.7924e+05
1.7955e+05
1.7958e+05
1.7988e+05
1.7991e+05
1.8022e+05
1.8026e+05
1.8056e+05
1.8059e+05
1.8089e+05
1.8092e+05
1.8122e+05
1.8126e+05
1.8156e+05
1.816e+05
1.819e+05
1.8193e+05
1.8227e+05
1.8257e+05
1.8261e+05
1.8291e+05
1.8295e+05
1.8325e+05
1.8328e+05
1.8358e+05
1.8361e+05
1.8391e+05
1.8395e+05
1.8425e+05
1.8429e+05
1.8462e+05
1.8491e+05
1.8494e+05
1.8523e+05
1.8527e+05
1.8557e+05
1.856e+05
1.8589e+05
1.8592e+05
1.8622e+05
1.8625e+05
1.8655e+05
1.8658e+05
1.8687e+05
1.8691e+05
1.8721e+05
1.8724e+05
1.8753e+05
1.8756e+05
1.8787e+05
1.8802e+05
1.8885e+05
1.8888e+05
1.8916e+05
1.8919e+05
1.8948e+05
1.8951e+05
1.8981e+05
1.8984e+05
1.9048e+05
1.9051e+05
1.9184e+05
1.9186e+05
1.9449e+05
1.9452e+05
1.958e+05
1.9583e+05
1.9646e+05
1.965e+05
1.9679e+05
1.9682e+05
1.9712e+05
1.9715e+05
1.9745e+05
1.9748e+05
1.9778e+05
1.9795e+05
1.9909e+05
1.9912e+05
1.9943e+05
1.9946e+05
1.9981e+05
2.0007e+05
2.003e+05
2.0033e+05
2.0075e+05
2.0108e+05
2.0205e+05
2.023e+05
2.0233e+05
2.0399e+05
2.0407e+05
2.0479e+05
2.0545e+05
2.0577e+05
2.061e+05
2.0641e+05
2.0674e+05
2.0706e+05
2.0739e+05
2.0804e+05
2.0836e+05
2.087e+05
2.0904e+05
2.0967e+05
2.1003e+05
2.1038e+05
2.1069e+05
2.1105e+05
2.1171e+05
2.1197e+05
2.1236e+05
2.1271e+05
2.1304e+05
2.1438e+05
2.1472e+05
2.1536e+05
2.1572e+05
2.1603e+05
2.1638e+05
2.1706e+05
2.1805e+05
2.1839e+05
2.1938e+05
2.197e+05
2.2034e+05
2.2098e+05
2.2225e+05
2.2256e+05
2.232e+05
2.2382e+05
2.2402e+05
2.2427e+05
2.2467e+05
2.2498e+05
2.2529e+05
2.2551e+05
2.2574e+05
2.258e+05
2.2615e+05
2.2646e+05
2.2676e+05
2.2706e+05
2.2738e+05
2.277e+05
2.28e+05
2.2833e+05
2.2865e+05
2.2897e+05
2.2929e+05
2.2949e+05
2.295e+05
2.318e+05
2.3229e+05
2.3375e+05
2.3399e+05
2.3492e+05
2.3525e+05
2.3728e+05
2.383e+05
2.3875e+05
2.3879e+05
2.391e+05
2.3913e+05
2.3943e+05
2.3947e+05
2.3976e+05
2.398e+05
2.401e+05
2.4014e+05
2.4043e+05
2.4047e+05
2.4076e+05
2.408e+05
2.4111e+05
2.4115e+05
2.4146e+05
2.4149e+05
2.418e+05
2.4183e+05
2.4214e+05
2.4217e+05
2.4249e+05
2.4253e+05
2.4283e+05
2.4287e+05
2.4317e+05
2.4321e+05
2.4352e+05
2.4356e+05
2.4391e+05
2.4422e+05
2.4426e+05
2.4456e+05
2.446e+05
2.4492e+05
2.4496e+05
2.4526e+05
2.453e+05
2.456e+05
2.4564e+05
2.4594e+05
2.4598e+05
2.4629e+05
2.4633e+05
2.4664e+05
2.4667e+05
2.4697e+05
2.4701e+05
2.4731e+05
2.4735e+05
2.4766e+05
2.4769e+05
2.48e+05
2.4804e+05
2.4835e+05
2.4838e+05
2.4869e+05
2.4872e+05
2.4903e+05
2.4907e+05
2.4938e+05
2.4941e+05
2.4972e+05
2.4976e+05
2.5007e+05
2.501e+05
2.5041e+05
2.5045e+05
2.5077e+05
2.508e+05
2.5112e+05
2.5115e+05
2.5146e+05
2.5149e+05
2.518e+05
2.5185e+05
2.5217e+05
2.522e+05
2.525e+05
2.5254e+05
2.5284e+05
2.5288e+05
2.5319e+05
2.5323e+05
2.5357e+05
2.5387e+05
2.5391e+05
2.5422e+05
2.5426e+05
2.5456e+05
2.5459e+05
2.549e+05
2.5493e+05
2.5523e+05
2.5527e+05
2.5558e+05
2.5562e+05
2.5592e+05
2.5595e+05
2.5626e+05
2.5629e+05
2.566e+05
2.5663e+05
2.5695e+05
2.5698e+05
2.573e+05
2.5733e+05
2.5765e+05
2.5768e+05
2.5801e+05
2.5804e+05
2.5835e+05
2.5838e+05
2.5869e+05
2.5872e+05
2.5904e+05
2.5907e+05
2.5941e+05
2.5971e+05
2.5974e+05
2.6003e+05
2.6006e+05
2.6036e+05
2.604e+05
2.6068e+05
2.6072e+05
2.6101e+05
2.6105e+05
2.6135e+05
2.6138e+05
2.6166e+05
2.617e+05
2.62e+05
2.6203e+05
2.6232e+05
2.6236e+05
2.6265e+05
2.6268e+05
2.6297e+05
2.6301e+05
2.633e+05
2.6334e+05
2.6364e+05
2.6367e+05
2.6396e+05
2.6399e+05
2.6428e+05
2.6432e+05
2.6461e+05
2.6465e+05
2.6494e+05
2.6497e+05
2.6527e+05
2.653e+05
2.6559e+05
2.6562e+05
2.6592e+05
2.6596e+05
2.6625e+05
2.6628e+05
2.6658e+05
2.6661e+05
2.669e+05
2.6693e+05
2.6723e+05
2.6727e+05
2.6757e+05
2.676e+05
2.679e+05
2.6794e+05
2.6825e+05
2.6828e+05
2.686e+05
2.6863e+05
2.6894e+05
2.6897e+05
2.6928e+05
2.6931e+05
2.6962e+05
2.6965e+05
2.6996e+05
2.6999e+05
2.7029e+05
2.7033e+05
2.7063e+05
2.7066e+05
2.7095e+05
2.7098e+05
2.7128e+05
2.7132e+05
2.7161e+05
2.7165e+05
2.7198e+05
2.7229e+05
2.7232e+05
2.7263e+05
2.7266e+05
2.7298e+05
2.7301e+05
2.7332e+05
2.7335e+05
2.7366e+05
2.7369e+05
2.7401e+05
2.7404e+05
2.7436e+05
2.7439e+05
2.7472e+05
2.7503e+05
2.7506e+05
2.757e+05
2.7573e+05
2.7604e+05
2.7607e+05
2.764e+05
2.7671e+05
2.7674e+05
2.7704e+05
2.7707e+05
2.7737e+05
2.774e+05
2.7771e+05
2.7774e+05
2.7804e+05
2.782e+05
2.7871e+05
2.7874e+05
2.7907e+05
2.7937e+05
2.7953e+05
2.8004e+05
2.802e+05
2.807e+05
2.8085e+05
2.8137e+05
2.814e+05
2.817e+05
2.8184e+05
2.8236e+05
2.8252e+05
2.8302e+05
2.8317e+05
2.8433e+05
2.8436e+05
2.8465e+05
2.8468e+05
2.8498e+05
2.8514e+05
2.8596e+05
2.8602e+05
2.89e+05
2.8903e+05
2.8968e+05
2.8971e+05
2.9002e+05
2.9005e+05
2.9035e+05
2.9039e+05
2.9069e+05
2.9072e+05
2.9103e+05
2.9106e+05
2.9137e+05
2.914e+05
2.9171e+05
2.9187e+05
2.9239e+05
2.9254e+05
2.9304e+05
2.9307e+05
2.9335e+05
2.9339e+05
2.9367e+05
2.937e+05
2.9401e+05
2.9404e+05
2.9432e+05
2.9435e+05
2.9465e+05
2.9468e+05
2.9498e+05
2.9501e+05
2.9531e+05
2.9534e+05
2.9564e+05
2.9567e+05
2.9605e+05
2.9653e+05
2.9656e+05
2.9686e+05
2.9688e+05
2.9721e+05
2.9816e+05
2.9819e+05
2.985e+05
2.9871e+05
2.9875e+05
2.991e+05
2.9913e+05
2.9944e+05
2.9947e+05
2.9977e+05
2.998e+05
3.001e+05
3.0033e+05
3.0036e+05
3.007e+05
3.0073e+05
3.0103e+05
3.0106e+05
3.0134e+05
3.0138e+05
3.0166e+05
3.0169e+05
3.0197e+05
3.0201e+05
3.0231e+05
3.0235e+05
3.0264e+05
3.0268e+05
3.0296e+05
3.03e+05
3.0329e+05
3.0332e+05
3.0362e+05
3.0365e+05
3.0395e+05
3.0399e+05
3.0429e+05
3.0432e+05
3.0455e+05
3.0484e+05
3.0487e+05
3.0524e+05
3.0527e+05
3.0558e+05
3.0561e+05
3.0591e+05
3.0594e+05
3.0623e+05
3.0626e+05
3.0653e+05
3.0656e+05
3.0688e+05
3.0692e+05
3.0721e+05
3.0725e+05
3.0754e+05
3.0787e+05
3.081e+05
3.0812e+05
3.0847e+05
3.0883e+05
3.0885e+05
3.0919e+05
3.095e+05
3.097e+05
3.0973e+05
3.1009e+05
3.1012e+05
3.1044e+05
3.1047e+05
3.1081e+05
3.1113e+05
3.1116e+05
3.1147e+05
3.115e+05
3.1182e+05
3.1185e+05
3.1217e+05
3.122e+05
3.1251e+05
3.1254e+05
3.1285e+05
3.1289e+05
3.1319e+05
3.1322e+05
3.1351e+05
3.1356e+05
3.1387e+05
3.139e+05
3.1421e+05
3.1425e+05
3.1456e+05
3.1459e+05
3.1489e+05
3.1495e+05
3.1527e+05
3.153e+05
3.1562e+05
3.1566e+05
3.1597e+05
3.1601e+05
3.1633e+05
3.1636e+05
3.1665e+05
3.1671e+05
3.1701e+05
3.1705e+05
3.1737e+05
3.174e+05
3.1771e+05
3.1774e+05
3.1806e+05
3.1809e+05
3.184e+05
3.1843e+05
3.1875e+05
3.1878e+05
3.1909e+05
3.1912e+05
3.194e+05
3.1946e+05
3.1977e+05
3.1981e+05
3.2011e+05
3.2014e+05
3.2046e+05
3.2048e+05
3.208e+05
3.2082e+05
3.2114e+05
3.2117e+05
3.2145e+05
3.215e+05
3.2182e+05
3.2184e+05
3.2215e+05
3.2218e+05
3.2248e+05
3.2251e+05
3.2282e+05
3.2285e+05
3.2315e+05
3.2318e+05
3.2347e+05
3.235e+05
3.238e+05
3.2383e+05
3.2412e+05
3.2416e+05
3.2446e+05
3.2449e+05
3.2478e+05
3.2481e+05
3.2511e+05
3.2514e+05
3.2544e+05
3.2547e+05
3.2579e+05
3.2582e+05
3.2612e+05
3.2614e+05
3.2645e+05
3.2648e+05
3.2678e+05
3.2682e+05
3.2711e+05
3.2714e+05
3.2745e+05
3.2748e+05
3.2781e+05
3.2811e+05
3.2814e+05
3.2844e+05
3.2865e+05
3.2868e+05
3.2904e+05
3.2906e+05
3.294e+05
3.2943e+05
3.2975e+05
3.2978e+05
3.3008e+05
3.3011e+05
3.3044e+05
3.3074e+05
3.3077e+05
3.3108e+05
3.3111e+05
3.3142e+05
3.3146e+05
3.3177e+05
3.318e+05
3.3213e+05
3.3243e+05
3.3247e+05
3.3278e+05
3.3281e+05
3.3311e+05
3.3314e+05
3.3345e+05
3.3364e+05
3.3404e+05
3.3407e+05
3.3438e+05
3.3441e+05
3.3472e+05
3.3475e+05
3.3505e+05
3.3508e+05
3.3538e+05
3.3541e+05
3.357e+05
3.3574e+05
3.3604e+05
3.3607e+05
3.3636e+05
3.364e+05
3.3669e+05
3.3672e+05
3.3702e+05
3.3705e+05
3.3736e+05
3.374e+05
3.3769e+05
3.3772e+05
3.3802e+05
3.3805e+05
3.3836e+05
3.3839e+05
3.3869e+05
3.3873e+05
3.3903e+05
3.3906e+05
3.3937e+05
3.3941e+05
3.3972e+05
3.3975e+05
3.4006e+05
3.401e+05
3.4041e+05
3.4044e+05
3.4076e+05
3.4079e+05
3.4111e+05
3.4115e+05
3.4147e+05
3.415e+05
3.4183e+05
3.4186e+05
3.422e+05
3.4223e+05
3.4256e+05
3.4259e+05
3.4295e+05
3.4298e+05
3.4331e+05
3.4334e+05
3.4367e+05
3.4369e+05
3.4403e+05
3.4406e+05
3.4439e+05
3.4442e+05
3.4475e+05
3.4477e+05
3.4508e+05
3.4511e+05
3.4543e+05
3.4547e+05
3.4579e+05
3.4582e+05
3.4614e+05
3.4617e+05
3.4648e+05
3.4651e+05
3.4683e+05
3.4686e+05
3.4717e+05
3.4719e+05
3.475e+05
3.4753e+05
3.4784e+05
3.4787e+05
3.4851e+05
3.4854e+05
3.4886e+05
3.4889e+05
3.4921e+05
3.4924e+05
3.4956e+05
3.4959e+05
3.4993e+05
3.4996e+05
3.503e+05
3.5033e+05
3.5066e+05
3.5069e+05
3.5142e+05
3.5145e+05
3.5178e+05
3.5181e+05
3.5215e+05
3.5218e+05
3.5252e+05
3.5255e+05
3.5597e+05
3.5612e+05
3.5664e+05
3.5667e+05
3.57e+05
3.5703e+05
3.5734e+05
3.5737e+05
3.6044e+05
3.6047e+05
3.6102e+05
3.6104e+05
3.634e+05
3.6354e+05
3.7507e+05
3.751e+05
3.7578e+05
3.7581e+05
3.7681e+05
3.7684e+05
3.7716e+05
3.7719e+05
3.782e+05
3.7823e+05
3.7889e+05
3.7892e+05
3.7923e+05
3.7927e+05
3.8091e+05
3.8094e+05
3.8125e+05
3.8127e+05
3.8159e+05
3.8162e+05
3.8194e+05
3.8197e+05
3.8228e+05
3.8231e+05
3.8333e+05
3.8336e+05
3.8403e+05
3.8406e+05
3.8437e+05
3.8441e+05
3.8509e+05
3.8511e+05
3.8544e+05
3.8546e+05
3.8616e+05
3.8619e+05
3.8652e+05
3.8655e+05
3.8687e+05
3.869e+05
3.8722e+05
3.8725e+05
3.8757e+05
3.876e+05
3.8791e+05
3.8793e+05
3.8824e+05
3.8827e+05
3.8859e+05
3.8862e+05
3.8893e+05
3.8896e+05
3.8926e+05
3.8929e+05
3.8961e+05
3.8963e+05
3.8994e+05
3.8997e+05
3.9028e+05
3.9031e+05
3.9061e+05
3.9064e+05
3.9095e+05
3.9098e+05
3.9128e+05
3.9131e+05
3.9157e+05
3.916e+05
3.9194e+05
3.9197e+05
3.9226e+05
3.9241e+05
3.9359e+05
3.9367e+05
3.9391e+05
3.9393e+05
3.9427e+05
3.943e+05
3.9457e+05
3.946e+05
3.9491e+05
3.9505e+05
3.9565e+05
3.9597e+05
3.9636e+05
3.9639e+05
3.9669e+05
3.9672e+05
3.9702e+05
3.9739e+05
3.98e+05
3.9833e+05
3.9851e+05
3.9879e+05
3.9882e+05
3.9936e+05
3.9968e+05
3.9989e+05
4.0014e+05
4.0135e+05
4.0175e+05
4.0273e+05
4.0307e+05
4.0577e+05
4.0581e+05
4.0611e+05
4.0614e+05
4.0643e+05
4.0646e+05
4.0675e+05
4.0679e+05
4.0708e+05
4.0711e+05
4.0741e+05
4.0745e+05
4.0774e+05
4.0777e+05
4.0806e+05
4.081e+05
4.084e+05
4.0843e+05
4.0873e+05
4.0877e+05
4.0907e+05
4.091e+05
4.0941e+05
4.0944e+05
4.0976e+05
4.0979e+05
4.101e+05
4.1013e+05
4.1044e+05
4.1048e+05
4.1085e+05
4.1112e+05
4.1115e+05
4.1146e+05
4.1149e+05
4.1181e+05
4.1184e+05
4.1239e+05
4.1307e+05
4.1374e+05
4.1506e+05
4.1539e+05
4.1572e+05
4.1637e+05
4.168e+05
4.1726e+05
4.1783e+05
4.1816e+05
4.1884e+05
4.1917e+05
4.1982e+05
4.2016e+05
4.2051e+05
4.2084e+05
4.2185e+05
4.2253e+05
4.232e+05
4.2386e+05
4.2515e+05
4.2717e+05
4.2751e+05
4.2784e+05
4.2886e+05
4.292e+05
4.2951e+05
4.2985e+05
4.3018e+05
4.3151e+05
4.3285e+05
4.3388e+05
4.3455e+05
4.3489e+05
4.3556e+05
4.368e+05
4.3735e+05
4.3762e+05
4.3765e+05
4.3793e+05
4.3813e+05
4.3815e+05
4.3852e+05
4.3856e+05
4.3887e+05
4.389e+05
4.392e+05
4.3923e+05
4.3954e+05
4.3957e+05
4.3987e+05
4.399e+05
4.402e+05
4.4023e+05
4.4052e+05
4.4056e+05
4.4086e+05
4.409e+05
4.4118e+05
4.4121e+05
4.4147e+05
4.4152e+05
4.4173e+05
4.42e+05
4.4203e+05
4.4236e+05
4.4241e+05
4.4267e+05
4.4271e+05
4.4292e+05
4.4335e+05
4.437e+05
4.4373e+05
4.4402e+05
4.4405e+05
4.4443e+05
4.4464e+05
4.4482e+05
4.45e+05
4.4535e+05
4.4537e+05
4.457e+05
4.4573e+05
4.4603e+05
4.4648e+05
4.4652e+05
4.4686e+05
4.4689e+05
4.4729e+05
4.4786e+05
4.4789e+05
4.482e+05
4.4823e+05
4.4853e+05
4.4856e+05
4.5397e+05
4.5401e+05
4.5443e+05
4.5493e+05
4.5497e+05
4.5526e+05
4.5529e+05
4.5558e+05
4.5562e+05
4.562e+05
4.5625e+05
4.5652e+05
4.5656e+05
4.5683e+05
4.5687e+05
4.5715e+05
4.5719e+05
4.5745e+05
4.5749e+05
4.5775e+05
4.5778e+05
4.5805e+05
4.5809e+05
4.5827e+05
4.585e+05
4.5853e+05
4.5884e+05
4.5889e+05
4.5919e+05
4.5922e+05
4.5952e+05
4.5956e+05
4.5985e+05
4.5988e+05
4.6018e+05
4.6021e+05
4.6052e+05
4.6056e+05
4.6086e+05
4.6089e+05
4.6118e+05
4.6121e+05
4.615e+05
4.6154e+05
4.6183e+05
4.6187e+05
4.6215e+05
4.6219e+05
4.6248e+05
4.6251e+05
4.628e+05
4.6284e+05
4.6313e+05
4.6317e+05
4.6346e+05
4.635e+05
4.6378e+05
4.6381e+05
4.6411e+05
4.6415e+05
4.6444e+05
4.6447e+05
4.6474e+05
4.6478e+05
4.6506e+05
4.6509e+05
4.6538e+05
4.6542e+05
4.657e+05
4.6573e+05
4.6601e+05
4.6605e+05
4.6633e+05
4.6637e+05
4.6666e+05
4.6669e+05
4.6698e+05
4.6701e+05
4.673e+05
4.6734e+05
4.6756e+05
4.6783e+05
4.6787e+05
4.6822e+05
4.6826e+05
4.6855e+05
4.6858e+05
4.6888e+05
4.6892e+05
4.692e+05
4.6924e+05
4.6952e+05
4.6955e+05
4.6983e+05
4.6987e+05
4.7016e+05
4.7019e+05
4.7048e+05
4.7052e+05
4.7079e+05
4.7083e+05
4.7113e+05
4.7116e+05
4.7145e+05
4.7148e+05
4.7177e+05
4.718e+05
4.7209e+05
4.7213e+05
4.7242e+05
4.7245e+05
4.7275e+05
4.7278e+05
4.7307e+05
4.7311e+05
4.734e+05
4.7344e+05
4.7373e+05
4.7377e+05
4.7406e+05
4.741e+05
4.744e+05
4.7443e+05
4.7473e+05
4.7477e+05
4.7507e+05
4.7511e+05
4.754e+05
4.7544e+05
4.7574e+05
4.7577e+05
4.7607e+05
4.7611e+05
4.764e+05
4.7644e+05
4.7674e+05
4.7677e+05
4.7707e+05
4.7711e+05
4.7741e+05
4.7745e+05
4.7775e+05
4.7778e+05
4.7809e+05
4.7813e+05
4.7844e+05
4.7847e+05
4.7876e+05
4.788e+05
4.7909e+05
4.7912e+05
4.7941e+05
4.7945e+05
4.7974e+05
4.7977e+05
4.8006e+05
4.8009e+05
4.8037e+05
4.8043e+05
4.8072e+05
4.8087e+05
4.8137e+05
4.8141e+05
4.817e+05
4.8174e+05
4.8204e+05
4.8208e+05
4.8237e+05
4.824e+05
4.8271e+05
4.8274e+05
4.8304e+05
4.8321e+05
4.8371e+05
4.8374e+05
4.8404e+05
4.842e+05
4.966e+05
4.9676e+05
4.9715e+05
4.9779e+05
4.9822e+05
4.9837e+05
4.9875e+05
4.9938e+05
4.9971e+05
5.0034e+05
5.074e+05
5.0755e+05
5.1142e+05
5.1358e+05
5.1374e+05
5.1857e+05
5.2569e+05
5.3675e+05
5.3679e+05
5.3707e+05
5.371e+05
5.3738e+05
5.3742e+05
5.377e+05
5.3774e+05
5.3801e+05
5.3805e+05
5.3833e+05
5.3837e+05
5.3865e+05
5.3869e+05
5.3896e+05
5.39e+05
5.3927e+05
5.3931e+05
5.3959e+05
5.3963e+05
5.3991e+05
5.3995e+05
5.4023e+05
5.4027e+05
5.4054e+05
5.4058e+05
5.4087e+05
5.4091e+05
5.4119e+05
5.4123e+05
5.4151e+05
5.4154e+05
5.4183e+05
5.4186e+05
5.4215e+05
5.4218e+05
5.4247e+05
5.4251e+05
5.4279e+05
5.4282e+05
5.431e+05
5.4314e+05
5.4343e+05
5.4347e+05
5.4374e+05
5.4378e+05
5.4405e+05
5.4409e+05
5.4436e+05
5.444e+05
5.4467e+05
5.4471e+05
5.4498e+05
5.4502e+05
5.4529e+05
5.4533e+05
5.4561e+05
5.4565e+05
5.4593e+05
5.4597e+05
5.4624e+05
5.4627e+05
5.4655e+05
5.4658e+05
5.4687e+05
5.4691e+05
5.4719e+05
5.4722e+05
5.4749e+05
5.4753e+05
5.4781e+05
5.4785e+05
5.4812e+05
5.4816e+05
5.4843e+05
5.4847e+05
5.4874e+05
5.4878e+05
5.4905e+05
5.4909e+05
5.4937e+05
5.494e+05
5.4967e+05
5.4971e+05
5.4999e+05
5.5002e+05
5.5031e+05
5.5034e+05
5.5062e+05
5.5066e+05
5.5093e+05
5.5097e+05
5.5125e+05
5.5129e+05
5.5157e+05
5.5161e+05
5.5188e+05
5.5192e+05
5.5219e+05
5.5223e+05
5.5251e+05
5.5255e+05
5.5283e+05
5.5286e+05
5.5313e+05
5.5317e+05
5.5342e+05
5.5346e+05
5.5372e+05
5.5376e+05
5.5403e+05
5.5407e+05
5.5432e+05
5.545e+05
5.5453e+05
5.5486e+05
5.549e+05
5.5515e+05
5.5519e+05
5.5544e+05
5.5563e+05
5.5598e+05
5.5602e+05
5.5629e+05
5.5632e+05
5.566e+05
5.5663e+05
5.569e+05
5.5694e+05
5.5722e+05
5.5726e+05
5.5754e+05
5.5758e+05
5.5785e+05
5.5807e+05
5.5825e+05
5.5828e+05
5.5863e+05
5.5867e+05
5.5897e+05
5.59e+05
5.5929e+05
5.5933e+05
5.5962e+05
5.5966e+05
5.5994e+05
5.5998e+05
5.6026e+05
5.6031e+05
5.6058e+05
5.6062e+05
5.6089e+05
5.6093e+05
5.6119e+05
5.6123e+05
5.6149e+05
5.6153e+05
5.6211e+05
5.6215e+05
5.6242e+05
5.6246e+05
5.6273e+05
5.6277e+05
5.6304e+05
5.6309e+05
5.6336e+05
5.634e+05
5.6367e+05
5.6371e+05
5.6399e+05
5.6403e+05
5.6431e+05
5.6435e+05
5.6461e+05
5.6465e+05
5.6493e+05
5.6497e+05
5.6524e+05
5.6528e+05
5.6555e+05
5.6559e+05
5.6586e+05
5.659e+05
5.6617e+05
5.6621e+05
5.6649e+05
5.6652e+05
5.668e+05
5.6684e+05
5.6742e+05
5.6746e+05
5.6806e+05
5.681e+05
5.6837e+05
5.6841e+05
5.6868e+05
5.6872e+05
5.6963e+05
5.6967e+05
5.7026e+05
5.703e+05
5.7122e+05
5.7125e+05
5.8891e+05
5.8895e+05
5.8986e+05
5.899e+05
5.9017e+05
5.9021e+05
5.9048e+05
5.9052e+05
5.9079e+05
5.9083e+05
5.9111e+05
5.9114e+05
5.9142e+05
5.9146e+05
5.9204e+05
5.9208e+05
5.9235e+05
5.9238e+05
5.9265e+05
5.9269e+05
5.9389e+05
5.9393e+05
5.9421e+05
5.9425e+05
5.9452e+05
5.9456e+05
5.9514e+05
5.9517e+05
5.9545e+05
5.9548e+05
5.9586e+05
5.9606e+05
5.961e+05
5.9637e+05
5.9641e+05
5.9669e+05
5.9672e+05
5.97e+05
5.9703e+05
5.9731e+05
5.9747e+05
5.977e+05
5.9795e+05
5.9799e+05
5.9827e+05
5.9831e+05
5.9859e+05
5.9863e+05
5.9892e+05
5.9895e+05
5.9924e+05
5.9927e+05
5.9955e+05
5.9959e+05
5.9987e+05
5.999e+05
6.0019e+05
6.0022e+05
6.0051e+05
6.0054e+05
6.0078e+05
6.0081e+05
6.0114e+05
6.0118e+05
6.0147e+05
6.015e+05
6.0179e+05
6.0182e+05
6.0218e+05
6.0249e+05
6.0274e+05
6.0278e+05
6.0325e+05
6.0358e+05
6.039e+05
6.0421e+05
6.0439e+05
6.0463e+05
6.0467e+05
6.0518e+05
6.0614e+05
6.0743e+05
6.0775e+05
6.0806e+05
6.0838e+05
6.0869e+05
6.09e+05
6.1058e+05
6.1105e+05
6.1133e+05
6.1208e+05
6.1303e+05
6.1395e+05
6.1459e+05
6.149e+05
6.1522e+05
6.1555e+05
6.1586e+05
6.1681e+05
6.1744e+05
6.1776e+05
6.184e+05
6.1871e+05
6.1904e+05
6.1936e+05
6.2097e+05
6.2129e+05
6.216e+05
6.2191e+05
6.2286e+05
6.2318e+05
6.2448e+05
6.2478e+05
6.251e+05
6.2606e+05
6.2669e+05
6.27e+05
6.273e+05
6.2762e+05
6.2793e+05
6.2824e+05
6.2887e+05
6.3045e+05
6.3109e+05
6.3142e+05
6.3205e+05
6.33e+05
6.3331e+05
6.3361e+05
6.3453e+05
6.3516e+05
6.3547e+05
6.3588e+05
6.3592e+05
6.3621e+05
6.3624e+05
6.3652e+05
6.3671e+05
6.3709e+05
6.3713e+05
6.3742e+05
6.3746e+05
6.3775e+05
6.3778e+05
6.3807e+05
6.381e+05
6.384e+05
6.3844e+05
6.3872e+05
6.3876e+05
6.3903e+05
6.3906e+05
6.3934e+05
6.3938e+05
6.3966e+05
6.3969e+05
6.3998e+05
6.4001e+05
6.4029e+05
6.4032e+05
6.406e+05
6.4064e+05
6.4092e+05
6.4095e+05
6.4123e+05
6.4127e+05
6.4155e+05
6.4159e+05
6.4186e+05
6.419e+05
6.4219e+05
6.4222e+05
6.4251e+05
6.4254e+05
6.4282e+05
6.4286e+05
6.4314e+05
6.4332e+05
6.4335e+05
6.4369e+05
6.4373e+05
6.4402e+05
6.4405e+05
6.4434e+05
6.4438e+05
6.4467e+05
6.447e+05
6.4499e+05
6.4502e+05
6.4532e+05
6.4536e+05
6.4564e+05
6.4583e+05
6.4621e+05
6.4625e+05
6.4655e+05
6.4658e+05
6.4688e+05
6.4692e+05
6.4719e+05
6.4723e+05
6.4751e+05
6.4755e+05
6.4783e+05
6.4787e+05
6.4845e+05
6.4848e+05
