546
850
1723
1981
2282
4036
4405
5016
6813
7124
7432
9425
13128
15506
17134
19214
20246
24003
26537
26790
28508
30363
30824
31485
32068
33676
34916
35136
35828
36336
36937
37740
38631
39490
39919
40433
40928
41694
42760
43971
44263
45786
47077
47776
48064
48227
48758
49256
50965
51335
52490
53352
53641
53898
54518
54791
55041
55793
56274
56554
56831
58704
59193
60636
60822
61633
61826
62290
62553
64675
65186
67140
67455
68417
68905
69252
69451
70473
70823
71582
71937
73025
73692
74992
76238
77049
77296
78054
79591
80039
81611
81987
82445
82940
84179
84945
85654
86409
87134
88278
89304
89606
90951
91416
91637
92180
92428
92853
93122
95400
96126
97429
98643
1.0023e+05
1.0099e+05
1.022e+05
1.0296e+05
1.0399e+05
1.0475e+05
1.0561e+05
1.0646e+05
1.0688e+05
1.0782e+05
1.0858e+05
1.1015e+05
1.1168e+05
1.1255e+05
1.1348e+05
1.1422e+05
1.1585e+05
1.1625e+05
1.1804e+05
1.198e+05
1.2118e+05
1.2332e+05
1.2429e+05
1.2601e+05
1.2636e+05
1.2752e+05
1.2839e+05
1.3065e+05
1.3099e+05
1.3433e+05
1.3558e+05
1.3701e+05
1.3767e+05
1.3844e+05
1.3931e+05
1.4027e+05
1.4054e+05
1.4187e+05
1.4244e+05
1.4264e+05
1.4291e+05
1.4307e+05
1.4355e+05
1.447e+05
1.4497e+05
1.4576e+05
1.4656e+05
1.4725e+05
1.4753e+05
1.4801e+05
1.4824e+05
1.497e+05
1.4991e+05
1.5176e+05
1.5208e+05
1.5288e+05
1.5359e+05
1.5553e+05
1.5658e+05
1.5713e+05
1.5732e+05
1.58e+05
1.5821e+05
1.5857e+05
1.5876e+05
1.5902e+05
1.5948e+05
1.6022e+05
1.6236e+05
1.6538e+05
1.6588e+05
1.91e+05
1.9181e+05
1.9276e+05
1.9307e+05
1.9336e+05
1.9405e+05
1.9431e+05
1.9462e+05
1.9485e+05
1.9533e+05
1.9629e+05
1.9778e+05
1.9871e+05
1.9901e+05
1.9944e+05
1.9979e+05
2.0079e+05
2.0154e+05
2.019e+05
2.0216e+05
2.0288e+05
2.0353e+05
2.0525e+05
2.0598e+05
2.07e+05
2.0791e+05
2.0898e+05
2.097e+05
2.1244e+05
2.1335e+05
2.1418e+05
2.1597e+05
2.1709e+05
2.1815e+05
2.198e+05
2.2119e+05
2.2245e+05
2.2366e+05
2.2473e+05
2.2867e+05
2.3102e+05
2.3331e+05
2.3424e+05
2.3485e+05
2.3618e+05
2.3832e+05
2.3911e+05
2.3963e+05
2.4004e+05
2.4158e+05
2.4225e+05
2.4244e+05
2.4265e+05
2.4339e+05
2.442e+05
2.4512e+05
2.4555e+05
2.5087e+05
2.513e+05
2.5293e+05
2.5317e+05
2.5465e+05
2.5793e+05
2.5868e+05
2.5959e+05
2.5982e+05
2.8983e+05
2.9045e+05
2.9092e+05
2.9214e+05
2.9256e+05
2.9279e+05
2.9313e+05
2.9477e+05
2.9522e+05
2.9889e+05
2.9922e+05
2.9972e+05
3.0065e+05
3.0144e+05
3.0195e+05
3.0403e+05
3.0545e+05
3.0591e+05
3.063e+05
3.096e+05
3.1042e+05
3.1105e+05
3.1133e+05
3.1229e+05
3.1278e+05
3.1514e+05
3.1539e+05
3.1571e+05
3.162e+05
3.1772e+05
3.1834e+05
3.1888e+05
3.1935e+05
3.2057e+05
3.2086e+05
3.2393e+05
3.2438e+05
3.2501e+05
3.2523e+05
3.2572e+05
3.2652e+05
3.2704e+05
3.2893e+05
3.2929e+05
3.2988e+05
3.322e+05
3.3246e+05
3.3299e+05
3.3351e+05
3.3373e+05
3.3504e+05
3.3735e+05
3.3841e+05
3.3961e+05
3.3982e+05
3.4161e+05
3.4272e+05
3.4399e+05
3.4609e+05
3.4924e+05
3.5031e+05
3.5082e+05
3.5213e+05
3.5234e+05
3.5296e+05
3.5318e+05
3.5343e+05
3.5375e+05
3.5445e+05
3.5564e+05
3.5592e+05
3.5661e+05
3.5796e+05
3.5825e+05
3.5969e+05
3.6022e+05
3.6144e+05
3.6181e+05
3.6316e+05
3.6383e+05
3.6432e+05
3.6783e+05
3.6945e+05
3.699e+05
3.7019e+05
3.7177e+05
3.7386e+05
3.7469e+05
3.763e+05
3.7677e+05
3.7701e+05
3.7799e+05
3.7837e+05
3.7882e+05
3.7928e+05
3.7954e+05
3.798e+05
3.8072e+05
3.8284e+05
3.8303e+05
3.8412e+05
3.8442e+05
3.8466e+05
3.8489e+05
3.8593e+05
4.9736e+05
4.979e+05
4.9832e+05
4.9863e+05
4.9921e+05
4.9967e+05
4.9995e+05
5.002e+05
5.0056e+05
5.0088e+05
5.0131e+05
5.0197e+05
5.0251e+05
5.0301e+05
5.0355e+05
5.0395e+05
5.0425e+05
5.0462e+05
5.052e+05
5.0574e+05
5.0624e+05
5.07e+05
5.0732e+05
5.0793e+05
5.0828e+05
5.0856e+05
5.0898e+05
5.0954e+05
5.1e+05
5.1037e+05
5.1082e+05
5.1141e+05
5.1183e+05
5.1208e+05
5.1287e+05
5.1318e+05
5.1347e+05
5.1377e+05
5.1461e+05
5.1512e+05
5.1563e+05
5.1614e+05
5.1702e+05
5.1757e+05
5.1791e+05
5.1843e+05
5.2017e+05
5.2233e+05
5.236e+05
5.248e+05
5.2566e+05
5.2706e+05
5.285e+05
5.2918e+05
5.3032e+05
5.311e+05
5.3162e+05
5.3189e+05
5.3223e+05
5.3253e+05
5.3279e+05
5.3339e+05
5.336e+05
5.3446e+05
5.3498e+05
5.3528e+05
5.3657e+05
5.3726e+05
5.3767e+05
5.3822e+05
5.3906e+05
5.3938e+05
5.4015e+05
5.4462e+05
5.4495e+05
5.4518e+05
5.4545e+05
5.4577e+05
5.4612e+05
5.466e+05
5.4691e+05
5.4728e+05
5.4789e+05
5.482e+05
5.4872e+05
5.4951e+05
5.5016e+05
5.5047e+05
5.5141e+05
5.5192e+05
5.5252e+05
5.5346e+05
5.5384e+05
5.5415e+05
5.5466e+05
5.5498e+05
5.5547e+05
5.5573e+05
5.5598e+05
5.5656e+05
5.569e+05
5.5792e+05
5.5816e+05
5.588e+05
5.5945e+05
5.5976e+05
5.6027e+05
5.6112e+05
5.6137e+05
5.6187e+05
5.6309e+05
5.6385e+05
5.6708e+05
5.6757e+05
5.6797e+05
5.6831e+05
5.7013e+05
5.7095e+05
5.7137e+05
5.7171e+05
5.7277e+05
5.7348e+05
5.749e+05
5.7884e+05
5.9569e+05
5.959e+05
5.9619e+05
5.9673e+05
5.9702e+05
5.9792e+05
5.9847e+05
5.9969e+05
5.9998e+05
6.0025e+05
6.0076e+05
6.0122e+05
6.0181e+05
6.0207e+05
6.0252e+05
6.0299e+05
6.0321e+05
6.0418e+05
6.0466e+05
6.0568e+05
6.0621e+05
6.0651e+05
6.0674e+05
6.0696e+05
6.0721e+05
6.0883e+05
6.091e+05
6.0966e+05
6.1073e+05
6.1134e+05
6.1209e+05
6.1236e+05
6.1263e+05
6.1294e+05
6.1387e+05
6.1429e+05
6.1456e+05
6.1487e+05
6.1511e+05
6.1605e+05
6.1671e+05
6.1716e+05
6.1764e+05
6.1809e+05
6.1848e+05
6.1926e+05
6.196e+05
6.2049e+05
6.2198e+05
6.2222e+05
6.2264e+05
6.2369e+05
6.2401e+05
6.2431e+05
6.2525e+05
6.2561e+05
6.2671e+05
6.2735e+05
6.2764e+05
6.2798e+05
6.2823e+05
6.2848e+05
6.2871e+05
6.2898e+05
6.2925e+05
6.2977e+05
6.3012e+05
6.3039e+05
6.3092e+05
6.3124e+05
6.3149e+05
6.3171e+05
6.3203e+05
6.3229e+05
6.3257e+05
6.3284e+05
6.331e+05
6.3336e+05
6.3366e+05
6.339e+05
6.3428e+05
6.3461e+05
6.3486e+05
6.3539e+05
6.3586e+05
6.361e+05
6.3636e+05
6.366e+05
6.3688e+05
6.3739e+05
6.3798e+05
6.3822e+05
6.3848e+05
6.391e+05
6.395e+05
6.3981e+05
6.4025e+05
6.4053e+05
6.4082e+05
6.4111e+05
6.4139e+05
6.4191e+05
6.4222e+05
6.4259e+05
6.4289e+05
6.432e+05
6.4377e+05
6.4702e+05
6.4754e+05
6.4823e+05
-1
315
345
670
1035
1297
1507
1852
1916
2163
2455
2590
2932
3167
3630
3899
4228
4590
4624
4930
5188
5412
5610
5958
6197
6395
6573
6983
7305
7573
7765
8173
8402
8643
8674
8915
9351
9617
9886
10208
10478
10700
10894
11233
11263
11482
11514
11734
11923
12266
12499
12531
12850
13072
13275
13596
13627
13842
14101
14140
14350
14382
14650
14855
15031
15439
15667
15697
15943
16186
16649
17037
17297
17325
17523
17778
18013
18310
18347
18568
18864
19127
19346
19691
19740
19962
19992
20369
20765
21013
21351
21388
21587
21622
21852
21885
22070
22105
22283
22462
22840
23102
23135
23435
23469
23868
24204
24453
24705
24738
24988
25255
25458
25806
26049
26081
26277
26400
26458
26730
26971
27001
27200
27382
27801
28051
28283
28628
29184
29430
29733
29987
30195
30522
30563
30757
30974
31008
31221
31656
31891
32262
32487
32725
33087
33292
33502
33548
33852
34116
34152
34380
34415
34614
34740
35065
35324
35358
35783
36027
36243
36466
36872
37095
37129
37288
37471
37962
38200
38524
38790
39038
39340
39383
39611
39786
40127
40362
40554
40749
41122
41440
41658
41827
42030
42448
42895
43231
43458
43679
43906
43939
44143
44377
44582
44946
44977
45165
45371
45713
45959
45994
46203
46395
46743
46997
47246
47441
47625
47967
47994
48377
48675
48957
49210
49404
49729
49942
49974
50110
50295
50619
50675
51161
51433
51615
51945
51981
52184
52369
52705
52737
52967
53214
53244
53561
53605
53832
54077
54128
54350
54714
54956
55159
55348
55727
55965
56001
56236
56450
56493
56745
56986
57458
57707
57885
58094
58444
58664
58855
59034
59369
59590
59625
59875
60140
60176
60557
60784
60985
61163
61489
61779
61963
62462
62690
62866
63225
63258
63467
63688
63893
64089
64406
64644
64864
64987
65348
65570
65601
65824
65965
66400
66850
67092
67271
67617
67858
68072
68287
68613
69082
69408
69651
70104
70432
70659
70997
71035
71240
71419
71796
71837
72109
72396
72640
72831
73216
73437
73635
73835
74201
74718
74946
75135
75466
75692
75916
76137
76403
76615
76828
77222
77501
77539
77809
78206
78415
78447
78606
78806
79168
79402
79437
79777
79810
80187
80534
80758
80791
80980
81248
81438
81827
82088
82272
82632
82866
82897
83082
83116
83288
83481
83852
84073
84362
84652
84774
85107
85161
85410
85444
85615
85811
86139
86177
86372
86550
86736
87064
87325
87638
88211
88437
88467
88645
88816
89221
89431
89783
90021
90054
90445
90682
90910
91161
91380
91599
91829
92074
92351
92561
92750
93070
93280
93449
93664
94093
94334
94519
94711
95079
95298
95550
95820
95852
96056
96282
96438
96819
97046
97318
97537
97738
98099
98328
98549
98783
98950
1.0047e+05
1.0113e+05
1.0247e+05
1.0321e+05
1.0412e+05
1.0488e+05
1.0574e+05
1.0677e+05
1.0711e+05
1.0796e+05
1.0813e+05
1.0881e+05
1.1038e+05
1.1134e+05
1.1188e+05
1.1287e+05
1.1372e+05
1.1462e+05
1.1616e+05
1.1661e+05
1.1818e+05
1.1993e+05
1.2131e+05
1.2363e+05
1.2459e+05
1.2615e+05
1.2666e+05
1.2772e+05
1.2775e+05
1.2856e+05
1.3082e+05
1.3137e+05
1.3241e+05
1.3347e+05
1.3467e+05
1.3585e+05
1.3732e+05
1.3781e+05
1.3867e+05
1.3958e+05
1.404e+05
1.4046e+05
1.408e+05
1.4138e+05
1.4173e+05
1.4177e+05
1.4211e+05
1.4258e+05
1.428e+05
1.4304e+05
1.4333e+05
1.4372e+05
1.44e+05
1.4423e+05
1.4453e+05
1.4491e+05
1.4525e+05
1.4568e+05
1.4603e+05
1.4645e+05
1.4673e+05
1.4697e+05
1.472e+05
1.4739e+05
1.4775e+05
1.4815e+05
1.4843e+05
1.4866e+05
1.489e+05
1.4912e+05
1.4943e+05
1.4985e+05
1.5019e+05
1.517e+05
1.5194e+05
1.5233e+05
1.528e+05
1.5313e+05
1.535e+05
1.5353e+05
1.5387e+05
1.547e+05
1.5583e+05
1.563e+05
1.5678e+05
1.5703e+05
1.5707e+05
1.5723e+05
1.5759e+05
1.5794e+05
1.5815e+05
1.5838e+05
1.5866e+05
1.5895e+05
1.592e+05
1.5944e+05
1.5969e+05
1.5991e+05
1.6015e+05
1.6044e+05
1.623e+05
1.6252e+05
1.6256e+05
1.6277e+05
1.6556e+05
1.6577e+05
1.658e+05
1.6605e+05
1.9173e+05
1.9197e+05
1.9199e+05
1.9227e+05
1.9294e+05
1.9328e+05
1.9353e+05
1.9356e+05
1.9419e+05
1.9423e+05
1.9448e+05
1.9478e+05
1.9504e+05
1.9507e+05
1.9527e+05
1.9553e+05
1.9597e+05
1.9621e+05
1.9648e+05
1.9768e+05
1.9843e+05
1.9848e+05
1.9881e+05
1.9925e+05
1.9968e+05
1.9994e+05
2.0094e+05
2.0168e+05
2.0209e+05
2.0213e+05
2.025e+05
2.0302e+05
2.0344e+05
2.0374e+05
2.0409e+05
2.0561e+05
2.0611e+05
2.0716e+05
2.0759e+05
2.0805e+05
2.0921e+05
2.1002e+05
2.116e+05
2.1277e+05
2.135e+05
2.1431e+05
2.1482e+05
2.1632e+05
2.1724e+05
2.1849e+05
2.1921e+05
2.1995e+05
2.2135e+05
2.2188e+05
2.2269e+05
2.2326e+05
2.2381e+05
2.2396e+05
2.2466e+05
2.2483e+05
2.2511e+05
2.2893e+05
2.3116e+05
2.3238e+05
2.3345e+05
2.3389e+05
2.3438e+05
2.3518e+05
2.3608e+05
2.3632e+05
2.3689e+05
2.3711e+05
2.3745e+05
2.3795e+05
2.3845e+05
2.3894e+05
2.3938e+05
2.3992e+05
2.4038e+05
2.4145e+05
2.4149e+05
2.4181e+05
2.4188e+05
2.4219e+05
2.4235e+05
2.424e+05
2.4261e+05
2.4292e+05
2.4299e+05
2.4327e+05
2.4332e+05
2.437e+05
2.4377e+05
2.4409e+05
2.4433e+05
2.4455e+05
2.4473e+05
2.4478e+05
2.45e+05
2.4535e+05
2.4573e+05
2.4592e+05
2.4597e+05
2.4628e+05
2.4668e+05
2.4689e+05
2.4855e+05
2.4996e+05
2.5009e+05
2.5115e+05
2.5147e+05
2.5176e+05
2.5282e+05
2.5311e+05
2.5339e+05
2.5453e+05
2.5458e+05
2.5492e+05
2.5529e+05
2.5532e+05
2.5569e+05
2.5595e+05
2.5598e+05
2.5629e+05
2.5667e+05
2.5672e+05
2.5707e+05
2.5744e+05
2.5766e+05
2.5789e+05
2.5807e+05
2.5811e+05
2.5836e+05
2.5839e+05
2.586e+05
2.5888e+05
2.5928e+05
2.595e+05
2.5952e+05
2.5971e+05
2.5975e+05
2.5997e+05
2.6e+05
2.8614e+05
2.8638e+05
2.8809e+05
2.8833e+05
2.8837e+05
2.8997e+05
2.9063e+05
2.9088e+05
2.9113e+05
2.9117e+05
2.9141e+05
2.9232e+05
2.9273e+05
2.9298e+05
2.9327e+05
2.9359e+05
2.9424e+05
2.9447e+05
2.9469e+05
2.9472e+05
2.9495e+05
2.954e+05
2.9563e+05
2.9586e+05
2.9697e+05
2.9803e+05
2.985e+05
2.9853e+05
2.9885e+05
2.9907e+05
2.995e+05
2.9988e+05
3.0007e+05
3.0012e+05
3.0041e+05
3.008e+05
3.0113e+05
3.0164e+05
3.0182e+05
3.0187e+05
3.022e+05
3.0258e+05
3.028e+05
3.0309e+05
3.0385e+05
3.0422e+05
3.0457e+05
3.0482e+05
3.0504e+05
3.0529e+05
3.0563e+05
3.0604e+05
3.061e+05
3.0646e+05
3.0669e+05
3.0691e+05
3.0694e+05
3.0715e+05
3.0758e+05
3.0781e+05
3.0808e+05
3.0811e+05
3.0852e+05
3.0855e+05
3.0883e+05
3.0933e+05
3.0957e+05
3.0979e+05
3.0983e+05
3.1009e+05
3.1031e+05
3.1059e+05
3.11e+05
3.1123e+05
3.1127e+05
3.1155e+05
3.1195e+05
3.1217e+05
3.122e+05
3.1248e+05
3.1296e+05
3.1318e+05
3.1338e+05
3.1341e+05
3.1384e+05
3.1405e+05
3.1429e+05
3.1477e+05
3.1503e+05
3.1532e+05
3.1553e+05
3.1556e+05
3.1587e+05
3.1611e+05
3.1638e+05
3.1683e+05
3.1686e+05
3.1708e+05
3.171e+05
3.1741e+05
3.1787e+05
3.1803e+05
3.1807e+05
3.1826e+05
3.1855e+05
3.188e+05
3.1883e+05
3.1904e+05
3.1907e+05
3.1954e+05
3.1977e+05
3.205e+05
3.2076e+05
3.208e+05
3.2105e+05
3.2131e+05
3.2159e+05
3.2209e+05
3.2231e+05
3.2234e+05
3.2257e+05
3.2282e+05
3.2303e+05
3.2306e+05
3.2327e+05
3.238e+05
3.241e+05
3.2459e+05
3.2484e+05
3.2487e+05
3.2516e+05
3.2538e+05
3.2561e+05
3.2593e+05
3.2635e+05
3.2672e+05
3.272e+05
3.2725e+05
3.2752e+05
3.2776e+05
3.28e+05
3.2861e+05
3.2865e+05
3.2913e+05
3.2943e+05
3.2948e+05
3.2981e+05
3.2984e+05
3.3006e+05
3.303e+05
3.3053e+05
3.3077e+05
3.312e+05
3.3142e+05
3.3162e+05
3.3215e+05
3.324e+05
3.3263e+05
3.3278e+05
3.3318e+05
3.3366e+05
3.3392e+05
3.3416e+05
3.3435e+05
3.3454e+05
3.3498e+05
3.3518e+05
3.3542e+05
3.3568e+05
3.3591e+05
3.3621e+05
3.3649e+05
3.3652e+05
3.3672e+05
3.3695e+05
3.3721e+05
3.3724e+05
3.3757e+05
3.378e+05
3.3799e+05
3.3836e+05
3.3861e+05
3.3864e+05
3.3885e+05
3.391e+05
3.3955e+05
3.3975e+05
3.4e+05
3.4023e+05
3.4049e+05
3.4076e+05
3.4079e+05
3.4099e+05
3.4102e+05
3.4129e+05
3.4179e+05
3.4181e+05
3.4202e+05
3.4241e+05
3.4244e+05
3.4264e+05
3.4293e+05
3.4336e+05
3.4341e+05
3.4363e+05
3.4421e+05
3.4458e+05
3.4463e+05
3.4485e+05
3.4507e+05
3.4555e+05
3.4579e+05
3.4583e+05
3.4603e+05
3.4625e+05
3.4649e+05
3.4671e+05
3.4693e+05
3.4718e+05
3.4721e+05
3.4752e+05
3.4776e+05
3.4803e+05
3.4869e+05
3.49e+05
3.4945e+05
3.4949e+05
3.4974e+05
3.5016e+05
3.5021e+05
3.505e+05
3.5097e+05
3.51e+05
3.5122e+05
3.5142e+05
3.5173e+05
3.5176e+05
3.52e+05
3.5227e+05
3.5248e+05
3.5268e+05
3.5289e+05
3.5311e+05
3.5336e+05
3.5363e+05
3.5394e+05
3.5441e+05
3.5463e+05
3.5465e+05
3.5488e+05
3.5537e+05
3.556e+05
3.5586e+05
3.5609e+05
3.5611e+05
3.5631e+05
3.5676e+05
3.5699e+05
3.5773e+05
3.5813e+05
3.5815e+05
3.5846e+05
3.5849e+05
3.5869e+05
3.5916e+05
3.5957e+05
3.5988e+05
3.604e+05
3.6043e+05
3.6063e+05
3.6066e+05
3.609e+05
3.6137e+05
3.6162e+05
3.6165e+05
3.6201e+05
3.6231e+05
3.6273e+05
3.6278e+05
3.6309e+05
3.633e+05
3.6335e+05
3.636e+05
3.6404e+05
3.6408e+05
3.6428e+05
3.6451e+05
3.6454e+05
3.648e+05
3.6525e+05
3.6528e+05
3.6551e+05
3.6598e+05
3.6601e+05
3.6631e+05
3.6681e+05
3.6703e+05
3.6706e+05
3.6738e+05
3.6804e+05
3.6851e+05
3.6912e+05
3.6936e+05
3.697e+05
3.7011e+05
3.7014e+05
3.7032e+05
3.7112e+05
3.7143e+05
3.7195e+05
3.7216e+05
3.7238e+05
3.7316e+05
3.735e+05
3.7401e+05
3.7426e+05
3.7456e+05
3.7483e+05
3.7489e+05
3.7513e+05
3.7564e+05
3.7567e+05
3.7597e+05
3.7615e+05
3.7619e+05
3.7657e+05
3.7692e+05
3.7714e+05
3.7721e+05
3.7743e+05
3.777e+05
3.7815e+05
3.7818e+05
3.7849e+05
3.7853e+05
3.7874e+05
3.7899e+05
3.7902e+05
3.7947e+05
3.797e+05
3.7996e+05
3.7998e+05
3.8043e+05
3.8065e+05
3.8142e+05
3.8165e+05
3.8168e+05
3.8192e+05
3.8234e+05
3.8276e+05
3.8298e+05
3.8321e+05
3.8344e+05
3.8393e+05
3.8433e+05
3.8458e+05
3.8482e+05
3.8506e+05
3.8533e+05
3.8582e+05
3.8608e+05
3.861e+05
3.864e+05
3.8685e+05
3.8714e+05
3.8762e+05
3.8835e+05
3.886e+05
3.965e+05
3.9729e+05
3.977e+05
3.9803e+05
3.9854e+05
3.9902e+05
3.9921e+05
3.9926e+05
3.9948e+05
3.9966e+05
4.0004e+05
4.0022e+05
4.0028e+05
4.0049e+05
4.0068e+05
4.0103e+05
4.0125e+05
4.0171e+05
4.0201e+05
4.0223e+05
4.0226e+05
4.0246e+05
4.0249e+05
4.027e+05
4.029e+05
4.0327e+05
4.033e+05
4.0352e+05
4.0375e+05
4.0392e+05
4.041e+05
4.0439e+05
4.0444e+05
4.0472e+05
4.0485e+05
4.0518e+05
4.0542e+05
4.0564e+05
4.0583e+05
4.0623e+05
4.0646e+05
4.065e+05
4.0671e+05
4.0685e+05
4.073e+05
4.0758e+05
4.0803e+05
4.0845e+05
4.0866e+05
4.0884e+05
4.0917e+05
4.094e+05
4.0959e+05
4.0979e+05
4.1018e+05
4.1046e+05
4.1063e+05
4.1101e+05
4.1122e+05
4.1147e+05
4.1162e+05
4.1203e+05
4.1225e+05
4.1247e+05
4.1266e+05
4.1302e+05
4.1331e+05
4.1344e+05
4.1402e+05
4.1426e+05
4.1449e+05
4.148e+05
4.1501e+05
4.1529e+05
4.1548e+05
4.1552e+05
4.1577e+05
4.1601e+05
4.1616e+05
4.1656e+05
4.1704e+05
4.1729e+05
4.1751e+05
4.1774e+05
4.1803e+05
4.1806e+05
4.1831e+05
4.1856e+05
4.1886e+05
4.1889e+05
4.1917e+05
4.194e+05
4.1967e+05
4.197e+05
4.2008e+05
4.2031e+05
4.2057e+05
4.2087e+05
4.2131e+05
4.2151e+05
4.218e+05
4.2214e+05
4.2263e+05
4.229e+05
4.2292e+05
4.2318e+05
4.2359e+05
4.2364e+05
4.2386e+05
4.2388e+05
4.2408e+05
4.2434e+05
4.2482e+05
4.2554e+05
4.2559e+05
4.2583e+05
4.2585e+05
4.2661e+05
4.2695e+05
4.2698e+05
4.2717e+05
4.2741e+05
4.2745e+05
4.2768e+05
4.2814e+05
4.2844e+05
4.287e+05
4.2873e+05
4.2911e+05
4.2944e+05
4.2975e+05
4.3e+05
4.3023e+05
4.3053e+05
4.3086e+05
4.3134e+05
4.3159e+05
4.3162e+05
4.3186e+05
4.3229e+05
4.325e+05
4.3253e+05
4.3288e+05
4.3306e+05
4.3329e+05
4.3332e+05
4.3395e+05
4.3438e+05
4.3441e+05
4.346e+05
4.3483e+05
4.3487e+05
4.3527e+05
4.3551e+05
4.3577e+05
4.3608e+05
4.3632e+05
4.3714e+05
4.3756e+05
4.3774e+05
4.378e+05
4.3803e+05
4.3851e+05
4.3875e+05
4.3917e+05
4.3951e+05
4.3985e+05
4.4028e+05
4.4032e+05
4.4072e+05
4.4093e+05
4.4119e+05
4.4161e+05
4.4165e+05
4.419e+05
4.4236e+05
4.426e+05
4.4263e+05
4.4294e+05
4.5043e+05
4.5899e+05
4.6868e+05
4.6959e+05
4.705e+05
4.7054e+05
4.7072e+05
4.7151e+05
4.7191e+05
4.7213e+05
4.7237e+05
4.7327e+05
4.7332e+05
4.7354e+05
4.738e+05
4.7404e+05
4.7406e+05
4.7426e+05
4.745e+05
4.7474e+05
4.7478e+05
4.7505e+05
4.7538e+05
4.7559e+05
4.7582e+05
4.7585e+05
4.7611e+05
4.7723e+05
4.7752e+05
4.7817e+05
4.7875e+05
4.7878e+05
4.7943e+05
4.7981e+05
4.8125e+05
4.813e+05
4.8161e+05
4.82e+05
4.8258e+05
4.8284e+05
4.8287e+05
4.8316e+05
4.8348e+05
4.835e+05
4.8392e+05
4.8398e+05
4.8421e+05
4.8476e+05
4.8495e+05
4.8501e+05
4.855e+05
4.8595e+05
4.8617e+05
4.8648e+05
4.8672e+05
4.8695e+05
4.8698e+05
4.8723e+05
4.8747e+05
4.8773e+05
4.8776e+05
4.8804e+05
4.8876e+05
4.8935e+05
4.8961e+05
4.8989e+05
4.9089e+05
4.9111e+05
4.9142e+05
4.9168e+05
4.9171e+05
4.9196e+05
4.9199e+05
4.9241e+05
4.9244e+05
4.9269e+05
4.9313e+05
4.9317e+05
4.9336e+05
4.9389e+05
4.9444e+05
4.9467e+05
4.9502e+05
4.9504e+05
4.9534e+05
4.9559e+05
4.9563e+05
4.9588e+05
4.9684e+05
4.9726e+05
4.975e+05
4.9775e+05
4.9778e+05
4.9806e+05
4.9851e+05
4.9876e+05
4.9902e+05
4.9939e+05
4.9984e+05
5.0011e+05
5.0015e+05
5.004e+05
5.0074e+05
5.0077e+05
5.0103e+05
5.0107e+05
5.0145e+05
5.0169e+05
5.0213e+05
5.0268e+05
5.0292e+05
5.0312e+05
5.033e+05
5.0372e+05
5.0412e+05
5.0415e+05
5.0444e+05
5.0487e+05
5.0535e+05
5.0559e+05
5.0588e+05
5.0639e+05
5.0662e+05
5.0681e+05
5.0717e+05
5.0751e+05
5.0775e+05
5.0778e+05
5.0811e+05
5.0845e+05
5.0874e+05
5.0877e+05
5.0916e+05
5.0943e+05
5.0962e+05
5.0983e+05
5.0991e+05
5.1021e+05
5.1059e+05
5.1099e+05
5.1126e+05
5.1162e+05
5.1203e+05
5.1234e+05
5.1277e+05
5.1304e+05
5.1335e+05
5.1363e+05
5.1393e+05
5.1416e+05
5.1422e+05
5.1445e+05
5.147e+05
5.1487e+05
5.1531e+05
5.1572e+05
5.1579e+05
5.1603e+05
5.1632e+05
5.1664e+05
5.169e+05
5.1693e+05
5.1717e+05
5.1772e+05
5.1776e+05
5.1806e+05
5.1831e+05
5.1858e+05
5.1877e+05
5.1883e+05
5.1908e+05
5.1933e+05
5.1958e+05
5.1971e+05
5.201e+05
5.2035e+05
5.2059e+05
5.2112e+05
5.2116e+05
5.2145e+05
5.2171e+05
5.2192e+05
5.2213e+05
5.2248e+05
5.227e+05
5.2274e+05
5.2294e+05
5.2317e+05
5.232e+05
5.2335e+05
5.2339e+05
5.238e+05
5.2415e+05
5.2418e+05
5.2438e+05
5.2441e+05
5.2469e+05
5.2494e+05
5.2517e+05
5.2542e+05
5.2583e+05
5.2586e+05
5.2608e+05
5.2623e+05
5.2628e+05
5.267e+05
5.2721e+05
5.2753e+05
5.2775e+05
5.2791e+05
5.2837e+05
5.2864e+05
5.2883e+05
5.2903e+05
5.2932e+05
5.2954e+05
5.2978e+05
5.3004e+05
5.3026e+05
5.3049e+05
5.307e+05
5.3087e+05
5.312e+05
5.3125e+05
5.315e+05
5.3173e+05
5.3179e+05
5.3206e+05
5.3209e+05
5.3238e+05
5.327e+05
5.3273e+05
5.33e+05
5.3304e+05
5.333e+05
5.3333e+05
5.3353e+05
5.3376e+05
5.3379e+05
5.34e+05
5.3405e+05
5.3433e+05
5.3437e+05
5.3461e+05
5.3478e+05
5.3518e+05
5.3538e+05
5.3557e+05
5.3614e+05
5.3638e+05
5.3671e+05
5.3697e+05
5.37e+05
5.3742e+05
5.3782e+05
5.3813e+05
5.3816e+05
5.3836e+05
5.3864e+05
5.3868e+05
5.3895e+05
5.392e+05
5.3924e+05
5.3955e+05
5.4006e+05
5.403e+05
5.4428e+05
5.4479e+05
5.4511e+05
5.4514e+05
5.4535e+05
5.4556e+05
5.4562e+05
5.4594e+05
5.4623e+05
5.4629e+05
5.4648e+05
5.4653e+05
5.4676e+05
5.4681e+05
5.4706e+05
5.471e+05
5.4744e+05
5.4767e+05
5.4803e+05
5.4836e+05
5.4862e+05
5.4889e+05
5.4912e+05
5.4969e+05
5.4994e+05
5.5035e+05
5.5069e+05
5.5131e+05
5.5157e+05
5.5209e+05
5.5237e+05
5.5268e+05
5.5293e+05
5.5334e+05
5.5361e+05
5.5402e+05
5.5438e+05
5.5482e+05
5.5513e+05
5.5536e+05
5.5563e+05
5.5586e+05
5.5618e+05
5.5643e+05
5.5646e+05
5.5673e+05
5.5706e+05
5.573e+05
5.5733e+05
5.5754e+05
5.5783e+05
5.5807e+05
5.5832e+05
5.5865e+05
5.5896e+05
5.5915e+05
5.5922e+05
5.5962e+05
5.5996e+05
5.6043e+05
5.6069e+05
5.6095e+05
5.6122e+05
5.6126e+05
5.6162e+05
5.6202e+05
5.6246e+05
5.6269e+05
5.6294e+05
5.6326e+05
5.6376e+05
5.6379e+05
5.6397e+05
5.6467e+05
5.6497e+05
5.6523e+05
5.6555e+05
5.6579e+05
5.6611e+05
5.6613e+05
5.6633e+05
5.6656e+05
5.6681e+05
5.6727e+05
5.6772e+05
5.6814e+05
5.685e+05
5.6875e+05
5.6898e+05
5.6924e+05
5.6954e+05
5.6977e+05
5.7002e+05
5.7029e+05
5.7032e+05
5.7056e+05
5.7061e+05
5.7086e+05
5.7111e+05
5.7114e+05
5.7154e+05
5.719e+05
5.7218e+05
5.7244e+05
5.727e+05
5.7273e+05
5.7298e+05
5.734e+05
5.7365e+05
5.7391e+05
5.7419e+05
5.7509e+05
5.7566e+05
5.7592e+05
5.7753e+05
5.7775e+05
5.78e+05
5.7823e+05
5.7904e+05
5.9585e+05
5.9608e+05
5.963e+05
5.9635e+05
5.9658e+05
5.969e+05
5.9719e+05
5.9744e+05
5.9778e+05
5.9809e+05
5.9835e+05
5.9838e+05
5.9857e+05
5.9862e+05
5.9886e+05
5.9908e+05
5.9932e+05
5.9959e+05
5.9982e+05
5.9988e+05
6.0013e+05
6.0015e+05
6.004e+05
6.0043e+05
6.0063e+05
6.0066e+05
6.014e+05
6.0164e+05
6.0198e+05
6.0223e+05
6.0246e+05
6.0268e+05
6.0315e+05
6.0338e+05
6.0382e+05
6.0434e+05
6.0458e+05
6.0461e+05
6.0479e+05
6.0483e+05
6.0532e+05
6.0535e+05
6.0555e+05
6.0584e+05
6.0609e+05
6.0642e+05
6.0667e+05
6.069e+05
6.0712e+05
6.0737e+05
6.0763e+05
6.0787e+05
6.0827e+05
6.085e+05
6.0869e+05
6.0874e+05
6.0899e+05
6.0931e+05
6.0953e+05
6.0957e+05
6.0983e+05
6.0995e+05
6.1036e+05
6.1064e+05
6.109e+05
6.1117e+05
6.1151e+05
6.1191e+05
6.1225e+05
6.1251e+05
6.1255e+05
6.1275e+05
6.128e+05
6.1306e+05
6.1312e+05
6.1334e+05
6.1351e+05
6.1357e+05
6.138e+05
6.1382e+05
6.1404e+05
6.1408e+05
6.1448e+05
6.145e+05
6.1474e+05
6.1504e+05
6.1585e+05
6.1625e+05
6.1628e+05
6.1651e+05
6.1681e+05
6.1688e+05
6.1736e+05
6.178e+05
6.1798e+05
6.1803e+05
6.1826e+05
6.1865e+05
6.1869e+05
6.1889e+05
6.1904e+05
6.1944e+05
6.1971e+05
6.1977e+05
6.1999e+05
6.2022e+05
6.2025e+05
6.2045e+05
6.2066e+05
6.2097e+05
6.2122e+05
6.2145e+05
6.219e+05
6.2193e+05
6.2214e+05
6.2238e+05
6.2282e+05
6.2301e+05
6.2319e+05
6.2357e+05
6.2387e+05
6.2389e+05
6.2416e+05
6.2445e+05
6.2468e+05
6.2493e+05
6.2521e+05
6.2543e+05
6.2548e+05
6.2577e+05
6.2625e+05
6.2655e+05
6.2687e+05
6.269e+05
6.2709e+05
6.2753e+05
6.2779e+05
6.2782e+05
6.2814e+05
6.2837e+05
6.2863e+05
6.2887e+05
6.2913e+05
6.294e+05
6.2966e+05
6.297e+05
6.2992e+05
6.3026e+05
6.3055e+05
6.3073e+05
6.3079e+05
6.3102e+05
6.3108e+05
6.314e+05
6.3163e+05
6.3188e+05
6.3192e+05
6.3219e+05
6.3246e+05
6.3276e+05
6.33e+05
6.3325e+05
6.3352e+05
6.3383e+05
6.3386e+05
6.3407e+05
6.341e+05
6.3444e+05
6.3478e+05
6.3497e+05
6.3516e+05
6.356e+05
6.3601e+05
6.3626e+05
6.3629e+05
6.3653e+05
6.3676e+05
6.3679e+05
6.3705e+05
6.3754e+05
6.378e+05
6.3813e+05
6.3837e+05
6.3864e+05
6.3867e+05
6.389e+05
6.3893e+05
6.3924e+05
6.3966e+05
6.3995e+05
6.4017e+05
6.4035e+05
6.4042e+05
6.4069e+05
6.4091e+05
6.4098e+05
6.4127e+05
6.4154e+05
6.4179e+05
6.4209e+05
6.4237e+05
6.424e+05
6.4277e+05
6.4303e+05
6.4308e+05
6.4338e+05
6.4367e+05
6.4371e+05
6.4395e+05
6.4419e+05
6.4422e+05
6.4442e+05
6.4445e+05
6.4466e+05
6.449e+05
6.4516e+05
6.4543e+05
6.4571e+05
6.4594e+05
6.4618e+05
6.4643e+05
6.4646e+05
6.4674e+05
6.4677e+05
6.4718e+05
6.4737e+05
6.4743e+05
6.4769e+05
6.4772e+05
6.4808e+05
6.4839e+05
6.4864e+05
6.4887e+05
6.4889e+05
6.4909e+05
6.4935e+05
6.4964e+05
