318
603
854
1149
1435
1730
2028
2291
2600
2896
3145
3473
3784
4065
4361
4646
4931
5193
5524
5807
6148
6438
6733
6986
7566
7847
8153
8438
8718
9002
9250
9500
9870
10148
10469
10738
11028
11311
11600
11861
12195
12501
12775
13082
13362
13629
13918
14206
14504
14824
15094
15379
15665
15919
16231
16527
16814
17105
17369
17677
17955
18211
18529
18814
19109
19393
19669
19957
20241
20496
20831
21126
21415
21691
21999
22261
22540
22865
23157
23432
23741
24038
24305
24593
24875
25171
25491
25759
26082
26358
26637
26940
27232
27557
27855
28147
28412
28723
29002
29297
29619
29910
30185
30500
30782
31049
31354
31647
31935
32231
32526
32784
33085
33345
33651
33948
34248
34549
34853
35147
35439
35755
36074
36391
36697
37015
37273
37591
37913
38558
38867
39177
39476
39774
40046
40417
40729
40992
41316
41623
41874
42222
42530
42817
43133
43424
43698
44005
44293
44594
44912
45193
45487
45788
46048
46636
46932
47223
47506
47770
48056
48336
48600
48920
49191
49479
49762
50044
50347
50611
50911
51214
51520
51795
52113
52392
52663
52990
53282
53591
53879
54194
54453
54770
55064
55354
55677
55971
56273
56561
56859
57126
57434
57746
58050
58330
58641
58908
59201
59502
59809
60084
60403
60672
60984
61254
61547
61842
62145
62437
62752
63034
63315
63623
63908
64243
64557
64862
65163
65421
65770
66088
66376
66706
67013
67281
67604
67869
68174
68497
68797
69094
69392
69649
69965
70246
70544
70873
71162
71426
71736
72013
72293
72603
72897
73190
73500
73760
74071
74350
74616
74955
75290
75587
75875
76151
76443
76729
77035
77348
77616
77940
78215
78515
78829
79125
79454
79732
80059
80347
80621
80933
81212
81550
81863
82158
82417
82736
83030
83339
83649
83963
84223
84540
84808
85111
85408
85680
85988
86308
86553
86901
87170
87455
87779
88082
88349
88620
88977
89237
89543
89849
90122
90433
90751
91017
91261
91606
91901
92203
92504
92788
93056
93327
93634
93917
94153
94499
95104
95378
95661
95924
96224
96477
96796
97084
97407
97672
98256
98559
98864
1.0003e+05
1.0028e+05
1.0093e+05
1.0121e+05
1.015e+05
1.0206e+05
1.0235e+05
1.0264e+05
1.0294e+05
1.0327e+05
1.0354e+05
1.0415e+05
1.0475e+05
1.0505e+05
1.0624e+05
1.0748e+05
1.0805e+05
1.0836e+05
1.0893e+05
1.0923e+05
1.0951e+05
1.0983e+05
1.1041e+05
1.1095e+05
1.1126e+05
1.1185e+05
1.1215e+05
1.1272e+05
1.1301e+05
1.1357e+05
1.1391e+05
1.1419e+05
1.1533e+05
1.1599e+05
1.1725e+05
1.1785e+05
1.1939e+05
1.2001e+05
1.2033e+05
1.2064e+05
1.209e+05
1.2122e+05
1.2241e+05
1.227e+05
1.2302e+05
1.2332e+05
1.2358e+05
1.2389e+05
1.2479e+05
1.2539e+05
1.2596e+05
1.2625e+05
1.2656e+05
1.2715e+05
1.2743e+05
1.277e+05
1.2801e+05
1.2828e+05
1.2857e+05
1.2887e+05
1.2916e+05
1.2945e+05
1.2974e+05
1.3e+05
1.3031e+05
1.3087e+05
1.3147e+05
1.3205e+05
1.3258e+05
1.3408e+05
1.3493e+05
1.3582e+05
1.364e+05
1.3669e+05
1.3756e+05
1.3927e+05
1.396e+05
1.4018e+05
1.4129e+05
1.4221e+05
1.4309e+05
1.4339e+05
1.44e+05
1.4428e+05
1.446e+05
1.4517e+05
1.4545e+05
1.4606e+05
1.4636e+05
1.4667e+05
1.4695e+05
1.4755e+05
1.4782e+05
1.4811e+05
1.4844e+05
1.4874e+05
1.4933e+05
1.4961e+05
1.4987e+05
1.502e+05
1.5081e+05
1.5109e+05
1.5138e+05
1.5167e+05
1.5194e+05
1.5226e+05
1.5259e+05
1.532e+05
1.5413e+05
1.5443e+05
1.5506e+05
1.5534e+05
1.5567e+05
1.563e+05
1.5661e+05
1.5726e+05
1.5756e+05
1.5815e+05
1.5841e+05
1.5905e+05
1.5968e+05
1.5995e+05
1.6054e+05
1.6085e+05
1.6147e+05
1.6234e+05
1.6291e+05
1.6318e+05
1.638e+05
1.644e+05
1.6557e+05
1.6586e+05
1.6618e+05
1.6704e+05
1.6765e+05
1.6801e+05
1.689e+05
1.6917e+05
1.6978e+05
1.7011e+05
1.707e+05
1.7099e+05
1.7156e+05
1.7219e+05
1.7246e+05
1.7306e+05
1.7391e+05
1.7482e+05
1.7565e+05
1.7625e+05
1.7655e+05
1.7711e+05
1.7852e+05
1.9209e+05
1.9369e+05
1.9474e+05
1.9564e+05
1.9675e+05
1.9729e+05
1.9959e+05
2.002e+05
2.0077e+05
2.0134e+05
2.0149e+05
2.0226e+05
2.0297e+05
2.0329e+05
2.0354e+05
2.0409e+05
2.0476e+05
2.0516e+05
2.0601e+05
2.0649e+05
2.0736e+05
2.0885e+05
2.0936e+05
2.0989e+05
2.1166e+05
2.1318e+05
2.1348e+05
2.1408e+05
2.1585e+05
2.1637e+05
2.1672e+05
2.1733e+05
2.1765e+05
2.1793e+05
2.1854e+05
2.1942e+05
2.197e+05
2.208e+05
2.2145e+05
2.2326e+05
2.2402e+05
2.2531e+05
2.2634e+05
2.2705e+05
2.2847e+05
2.2899e+05
2.3331e+05
2.3387e+05
2.3534e+05
2.3584e+05
2.3671e+05
2.3701e+05
2.3787e+05
2.3842e+05
2.3876e+05
2.3901e+05
2.393e+05
2.3962e+05
2.4046e+05
2.4072e+05
2.4134e+05
2.4192e+05
2.4275e+05
2.4292e+05
2.4344e+05
2.4434e+05
2.4457e+05
2.4544e+05
2.4656e+05
2.4677e+05
2.4712e+05
2.4768e+05
2.481e+05
2.4852e+05
2.488e+05
2.4899e+05
2.5019e+05
2.5076e+05
2.5129e+05
2.5175e+05
2.5233e+05
2.5354e+05
2.5395e+05
2.5475e+05
2.561e+05
2.5703e+05
2.5758e+05
2.5791e+05
2.5852e+05
2.5913e+05
2.5954e+05
2.6038e+05
2.6119e+05
2.6201e+05
2.6289e+05
2.6343e+05
2.6394e+05
2.6428e+05
2.659e+05
2.6779e+05
2.6857e+05
2.6987e+05
2.702e+05
2.7106e+05
2.7247e+05
2.8325e+05
2.8411e+05
2.8442e+05
2.85e+05
2.8532e+05
2.8547e+05
2.8587e+05
2.8697e+05
2.8798e+05
2.8904e+05
2.9043e+05
2.9063e+05
2.9141e+05
2.9459e+05
2.955e+05
2.9792e+05
2.9883e+05
3.0032e+05
3.0186e+05
3.0255e+05
3.028e+05
3.0545e+05
3.0579e+05
3.0668e+05
3.0751e+05
3.0778e+05
3.0839e+05
3.0865e+05
3.0924e+05
3.095e+05
3.1059e+05
3.1107e+05
3.1253e+05
3.1433e+05
3.1562e+05
3.1685e+05
3.1764e+05
3.186e+05
3.1976e+05
3.2295e+05
3.2352e+05
3.2437e+05
3.2464e+05
3.2519e+05
3.2551e+05
3.2717e+05
3.279e+05
3.2862e+05
3.2925e+05
3.2957e+05
3.2991e+05
3.3022e+05
3.3113e+05
3.3171e+05
3.3267e+05
3.3392e+05
3.3525e+05
3.3575e+05
3.361e+05
3.3678e+05
3.3705e+05
3.3741e+05
3.3815e+05
3.3937e+05
3.3976e+05
3.4007e+05
3.4042e+05
3.4073e+05
3.4101e+05
3.4133e+05
3.4218e+05
3.4247e+05
3.4276e+05
3.4416e+05
3.4541e+05
3.4875e+05
3.5076e+05
3.5524e+05
3.5596e+05
3.7474e+05
3.7678e+05
3.7764e+05
3.7856e+05
3.7874e+05
3.7994e+05
3.8052e+05
3.8091e+05
3.8148e+05
3.8258e+05
3.8372e+05
3.8388e+05
3.8417e+05
3.8484e+05
3.8576e+05
3.9071e+05
3.915e+05
3.9239e+05
3.9302e+05
3.9332e+05
3.9443e+05
3.9474e+05
3.9618e+05
3.9766e+05
3.9791e+05
3.9822e+05
3.9849e+05
3.9909e+05
3.9968e+05
3.9996e+05
4.0081e+05
4.0141e+05
4.017e+05
4.0197e+05
4.0228e+05
4.0285e+05
4.0312e+05
4.0428e+05
4.0451e+05
4.0511e+05
4.0592e+05
4.0624e+05
4.0683e+05
4.0881e+05
4.0907e+05
4.0968e+05
4.1088e+05
4.1425e+05
4.166e+05
4.1806e+05
4.201e+05
4.2426e+05
4.2633e+05
4.2769e+05
4.2973e+05
4.2995e+05
4.31e+05
4.3261e+05
4.3314e+05
4.3375e+05
4.3486e+05
4.3542e+05
4.3738e+05
4.3751e+05
4.3806e+05
4.3847e+05
4.386e+05
4.3899e+05
4.399e+05
4.404e+05
4.4066e+05
4.4091e+05
4.4165e+05
4.4275e+05
4.4351e+05
4.4476e+05
4.4553e+05
4.4613e+05
4.4657e+05
4.4702e+05
4.4833e+05
4.498e+05
4.5958e+05
4.6092e+05
4.6293e+05
4.6398e+05
4.6427e+05
4.6494e+05
4.6579e+05
4.6608e+05
4.6624e+05
4.6637e+05
4.6671e+05
4.6699e+05
4.6734e+05
4.6765e+05
4.6799e+05
4.6842e+05
4.6857e+05
4.6891e+05
4.6942e+05
4.7054e+05
4.7078e+05
4.7162e+05
4.7191e+05
4.725e+05
4.7304e+05
4.732e+05
4.737e+05
4.7447e+05
4.7557e+05
4.7602e+05
4.767e+05
4.7686e+05
4.784e+05
4.7925e+05
4.7982e+05
5.035e+05
5.0694e+05
5.1093e+05
5.1182e+05
5.1351e+05
5.5308e+05
5.6114e+05
5.9976e+05
6.1267e+05
6.1336e+05
-1
400
489
716
776
968
1009
1266
1328
1559
1628
1856
1917
2146
2206
2406
2464
2707
2782
3267
3334
3562
3657
3884
3948
4177
4229
4478
4534
4742
4796
5305
5386
5627
5735
5941
6036
6270
6375
6537
6610
7104
7179
7457
8279
8346
8553
8604
9369
9446
9680
9728
10272
10332
10587
10644
11149
11222
11410
11459
11685
11761
11979
12054
12622
12670
12884
12963
13230
13471
13521
13744
13815
14025
14064
14328
14399
14628
14685
15491
15553
16023
16646
16722
16925
17014
17483
17535
17767
17848
18056
18108
18329
18651
18710
19207
19302
19509
19571
19786
19856
20048
20154
20624
20682
20963
21024
21224
21289
21508
21591
21807
21851
22102
22157
22378
22449
22660
22971
23038
23278
23307
23546
23623
23831
23931
24421
24468
24702
24778
24992
25052
25288
25352
25597
25690
25883
25920
26172
26225
26474
26537
26749
26807
27359
27406
27660
27745
27948
28005
28264
28324
28526
28570
28817
28888
29107
29179
29418
29479
29727
29801
30309
30364
30599
30686
30895
30926
31156
31241
31440
31521
31746
31815
32059
32143
32345
32398
32899
32967
33199
33263
33466
33528
33760
33834
34061
34122
34361
34404
34634
34747
35268
35317
35543
35661
35854
35919
36176
36237
36499
36545
36793
36903
37109
37161
37389
37439
37701
37769
38061
38343
38393
38645
38735
38967
39019
39354
39628
40012
40244
40605
40867
40917
41490
41727
41779
42025
42398
42940
43049
43239
43285
43540
43588
43797
43885
44409
44459
44712
44836
45317
45379
45602
45671
46440
46519
47052
47146
47334
47388
47890
47925
48147
48211
48724
48797
49045
49109
49307
49378
49881
49935
50157
50222
50733
50801
51038
51116
51914
51962
52225
52273
52780
52833
53098
53192
53710
53771
53995
54054
54572
54613
54940
55779
55849
56668
56780
57004
57251
57322
57558
57895
58160
58206
58449
58511
58730
58781
59400
59928
60018
60789
60841
61363
61431
61670
61736
61965
62009
62555
62643
62846
62898
63148
63192
63772
64035
64081
64370
64418
64717
64961
65016
65261
65312
65587
65626
65922
66208
66245
66860
67104
67164
67400
67433
67743
67985
68025
68376
68954
69239
69504
69544
69764
69827
70671
70769
71021
71278
71315
71593
71821
71894
72126
72168
72383
72506
73017
73060
73298
73364
73589
73646
73875
73912
74229
74453
74493
74737
74788
75045
75146
75380
75464
75744
76019
77126
77206
77462
77496
77731
77760
78389
78618
78696
78983
79254
79292
79577
79623
79850
79897
80160
80217
80432
80489
80711
80773
81029
81092
81366
81655
81709
82008
82302
82841
82920
83466
83511
83770
83874
84074
84104
84341
84403
84963
85226
85289
85527
85573
85806
86175
86699
86768
87279
87365
87580
87684
87886
87951
88196
88237
88471
88521
88836
89351
89429
89709
89973
90053
90274
90342
90553
90641
91138
91189
91430
91502
91724
91765
92026
92069
92323
92372
92648
93174
93458
93522
93742
93789
94031
94113
94621
95773
95835
96045
96121
96331
96402
96918
96970
97205
97287
97790
97838
98094
98152
98681
98789
98983
99042
1.0045e+05
1.0061e+05
1.0104e+05
1.0107e+05
1.0132e+05
1.0138e+05
1.0181e+05
1.0183e+05
1.0218e+05
1.0224e+05
1.0277e+05
1.0281e+05
1.0307e+05
1.0314e+05
1.0342e+05
1.0386e+05
1.0446e+05
1.0448e+05
1.0491e+05
1.0537e+05
1.0655e+05
1.0779e+05
1.0814e+05
1.0823e+05
1.0864e+05
1.0867e+05
1.0904e+05
1.0908e+05
1.0963e+05
1.0971e+05
1.1014e+05
1.1072e+05
1.1106e+05
1.1117e+05
1.1198e+05
1.1246e+05
1.1283e+05
1.129e+05
1.1331e+05
1.1334e+05
1.137e+05
1.1382e+05
1.1451e+05
1.1555e+05
1.1631e+05
1.1756e+05
1.1815e+05
1.1818e+05
1.2013e+05
1.2018e+05
1.2042e+05
1.2049e+05
1.2075e+05
1.2078e+05
1.2102e+05
1.2106e+05
1.2138e+05
1.2153e+05
1.2283e+05
1.2286e+05
1.2317e+05
1.237e+05
1.2378e+05
1.2404e+05
1.255e+05
1.2557e+05
1.2608e+05
1.2613e+05
1.2637e+05
1.2645e+05
1.2726e+05
1.2734e+05
1.2782e+05
1.2787e+05
1.2812e+05
1.282e+05
1.284e+05
1.2843e+05
1.287e+05
1.2875e+05
1.2899e+05
1.2905e+05
1.2928e+05
1.2936e+05
1.2954e+05
1.296e+05
1.2985e+05
1.299e+05
1.3011e+05
1.3018e+05
1.3056e+05
1.3099e+05
1.311e+05
1.3163e+05
1.3173e+05
1.3221e+05
1.327e+05
1.3275e+05
1.3427e+05
1.3596e+05
1.3651e+05
1.3657e+05
1.3684e+05
1.3695e+05
1.3774e+05
1.394e+05
1.3946e+05
1.3977e+05
1.4141e+05
1.4146e+05
1.4233e+05
1.4238e+05
1.4321e+05
1.4326e+05
1.4351e+05
1.4362e+05
1.447e+05
1.4478e+05
1.4556e+05
1.4561e+05
1.4648e+05
1.4654e+05
1.4704e+05
1.4714e+05
1.4769e+05
1.4793e+05
1.4801e+05
1.4824e+05
1.483e+05
1.4861e+05
1.4894e+05
1.4948e+05
1.4972e+05
1.4976e+05
1.4998e+05
1.5007e+05
1.5041e+05
1.509e+05
1.5097e+05
1.5121e+05
1.5125e+05
1.5155e+05
1.5177e+05
1.5183e+05
1.5205e+05
1.521e+05
1.5243e+05
1.527e+05
1.5274e+05
1.5333e+05
1.5338e+05
1.5422e+05
1.5428e+05
1.5464e+05
1.5546e+05
1.5549e+05
1.5579e+05
1.5584e+05
1.564e+05
1.5644e+05
1.5671e+05
1.5684e+05
1.5735e+05
1.5742e+05
1.5765e+05
1.5773e+05
1.5827e+05
1.5831e+05
1.5853e+05
1.5865e+05
1.5924e+05
1.5979e+05
1.5986e+05
1.6008e+05
1.6012e+05
1.6065e+05
1.607e+05
1.6097e+05
1.611e+05
1.6168e+05
1.6245e+05
1.6252e+05
1.6303e+05
1.6308e+05
1.6331e+05
1.6336e+05
1.6452e+05
1.6457e+05
1.657e+05
1.6575e+05
1.6597e+05
1.6602e+05
1.6635e+05
1.6716e+05
1.6721e+05
1.6778e+05
1.6787e+05
1.6818e+05
1.6928e+05
1.6933e+05
1.699e+05
1.6995e+05
1.7022e+05
1.7029e+05
1.708e+05
1.7087e+05
1.7111e+05
1.7117e+05
1.7169e+05
1.7173e+05
1.723e+05
1.7234e+05
1.7258e+05
1.7271e+05
1.7317e+05
1.7321e+05
1.7408e+05
1.7493e+05
1.7499e+05
1.7577e+05
1.7583e+05
1.7637e+05
1.7643e+05
1.7667e+05
1.7674e+05
1.7723e+05
1.7727e+05
1.7865e+05
1.787e+05
1.9225e+05
1.9383e+05
1.9491e+05
1.9584e+05
1.9588e+05
1.9692e+05
1.9697e+05
1.9743e+05
1.9755e+05
1.982e+05
1.999e+05
2.0051e+05
2.0108e+05
2.011e+05
2.0162e+05
2.0167e+05
2.0241e+05
2.0247e+05
2.0309e+05
2.0314e+05
2.0339e+05
2.0344e+05
2.0385e+05
2.0387e+05
2.0421e+05
2.0425e+05
2.0488e+05
2.0492e+05
2.0532e+05
2.0537e+05
2.0623e+05
2.0762e+05
2.0899e+05
2.0909e+05
2.0961e+05
2.1006e+05
2.1011e+05
2.1176e+05
2.1183e+05
2.133e+05
2.1336e+05
2.1381e+05
2.144e+05
2.1617e+05
2.1658e+05
2.1703e+05
2.175e+05
2.1775e+05
2.178e+05
2.1824e+05
2.1884e+05
2.1952e+05
2.1957e+05
2.2097e+05
2.2167e+05
2.2351e+05
2.2558e+05
2.2653e+05
2.2662e+05
2.273e+05
2.2732e+05
2.2865e+05
2.2873e+05
2.2921e+05
2.32e+05
2.3346e+05
2.3374e+05
2.3418e+05
2.3546e+05
2.3575e+05
2.3615e+05
2.3681e+05
2.3694e+05
2.3733e+05
2.3819e+05
2.3853e+05
2.3858e+05
2.3889e+05
2.3918e+05
2.3941e+05
2.3947e+05
2.3976e+05
2.406e+05
2.4084e+05
2.4088e+05
2.4153e+05
2.4207e+05
2.4286e+05
2.4305e+05
2.4362e+05
2.4451e+05
2.4563e+05
2.4612e+05
2.4617e+05
2.4671e+05
2.4691e+05
2.4725e+05
2.4743e+05
2.4782e+05
2.4786e+05
2.4826e+05
2.4865e+05
2.4869e+05
2.4912e+05
2.5031e+05
2.5049e+05
2.5051e+05
2.5067e+05
2.5095e+05
2.5144e+05
2.516e+05
2.5164e+05
2.5191e+05
2.5245e+05
2.5264e+05
2.5282e+05
2.5299e+05
2.5319e+05
2.5367e+05
2.5407e+05
2.5491e+05
2.558e+05
2.5621e+05
2.5715e+05
2.5771e+05
2.5787e+05
2.5789e+05
2.5806e+05
2.5865e+05
2.5926e+05
2.5944e+05
2.5968e+05
2.6049e+05
2.6134e+05
2.6136e+05
2.6212e+05
2.623e+05
2.6246e+05
2.6267e+05
2.6271e+05
2.6307e+05
2.636e+05
2.6411e+05
2.6445e+05
2.6446e+05
2.6602e+05
2.6689e+05
2.6733e+05
2.6791e+05
2.6835e+05
2.6873e+05
2.6907e+05
2.6928e+05
2.6962e+05
2.7004e+05
2.7037e+05
2.7119e+05
2.7263e+05
2.8072e+05
2.8076e+05
2.8452e+05
2.8514e+05
2.856e+05
2.8601e+05
2.8646e+05
2.8691e+05
2.8712e+05
2.8759e+05
2.8812e+05
2.8919e+05
2.9058e+05
2.9075e+05
2.915e+05
2.9222e+05
2.9256e+05
2.9291e+05
2.947e+05
2.9562e+05
2.9813e+05
2.9903e+05
3.0042e+05
3.0048e+05
3.0207e+05
3.0269e+05
3.0292e+05
3.0296e+05
3.0556e+05
3.0563e+05
3.0701e+05
3.0762e+05
3.0769e+05
3.0851e+05
3.0856e+05
3.0897e+05
3.0982e+05
3.1079e+05
3.1127e+05
3.1265e+05
3.1292e+05
3.1451e+05
3.1583e+05
3.1587e+05
3.1711e+05
3.1778e+05
3.1786e+05
3.1878e+05
3.1895e+05
3.199e+05
3.2328e+05
3.2384e+05
3.2446e+05
3.2452e+05
3.2494e+05
3.2496e+05
3.2529e+05
3.2535e+05
3.2572e+05
3.274e+05
3.2802e+05
3.2806e+05
3.2893e+05
3.2942e+05
3.2972e+05
3.3006e+05
3.3053e+05
3.3143e+05
3.3193e+05
3.3287e+05
3.3414e+05
3.355e+05
3.3552e+05
3.3586e+05
3.3601e+05
3.3621e+05
3.3697e+05
3.3715e+05
3.372e+05
3.3758e+05
3.3824e+05
3.3832e+05
3.3875e+05
3.3909e+05
3.3915e+05
3.3954e+05
3.399e+05
3.4021e+05
3.4029e+05
3.4057e+05
3.4088e+05
3.4109e+05
3.4115e+05
3.4164e+05
3.4166e+05
3.4236e+05
3.4256e+05
3.4262e+05
3.4378e+05
3.4429e+05
3.4469e+05
3.4483e+05
3.4514e+05
3.4518e+05
3.4554e+05
3.4571e+05
3.4585e+05
3.4613e+05
3.4747e+05
3.4751e+05
3.4906e+05
3.5121e+05
3.5543e+05
3.5621e+05
3.7485e+05
3.7696e+05
3.7799e+05
3.7868e+05
3.7904e+05
3.8022e+05
3.8082e+05
3.8123e+05
3.8172e+05
3.8286e+05
3.829e+05
3.8411e+05
3.844e+05
3.8513e+05
3.8591e+05
3.8598e+05
3.8763e+05
3.8821e+05
3.8963e+05
3.8969e+05
3.9026e+05
3.9032e+05
3.9086e+05
3.9127e+05
3.9165e+05
3.9206e+05
3.9254e+05
3.9316e+05
3.9363e+05
3.9364e+05
3.9504e+05
3.9648e+05
3.965e+05
3.9775e+05
3.978e+05
3.9802e+05
3.9838e+05
3.9879e+05
3.9882e+05
3.994e+05
3.9942e+05
3.9981e+05
4.0026e+05
4.0028e+05
4.0155e+05
4.0185e+05
4.0206e+05
4.0213e+05
4.0259e+05
4.0294e+05
4.0303e+05
4.0333e+05
4.0444e+05
4.0473e+05
4.0531e+05
4.0604e+05
4.061e+05
4.0703e+05
4.0897e+05
4.0924e+05
4.0941e+05
4.1004e+05
4.1103e+05
4.1119e+05
4.1437e+05
4.1449e+05
4.1481e+05
4.1496e+05
4.1683e+05
4.1822e+05
4.2033e+05
4.2448e+05
4.2657e+05
4.2716e+05
4.2757e+05
4.2784e+05
4.2987e+05
4.3006e+05
4.3013e+05
4.3111e+05
4.3255e+05
4.3333e+05
4.3395e+05
4.3398e+05
4.3504e+05
4.3557e+05
4.3769e+05
4.3822e+05
4.3876e+05
4.3909e+05
4.3912e+05
4.3931e+05
4.3972e+05
4.3973e+05
4.4001e+05
4.4019e+05
4.406e+05
4.4083e+05
4.4115e+05
4.412e+05
4.4183e+05
4.4293e+05
4.4372e+05
4.4423e+05
4.4501e+05
4.4577e+05
4.4625e+05
4.4647e+05
4.4676e+05
4.4685e+05
4.4724e+05
4.4726e+05
4.4846e+05
4.4852e+05
4.5005e+05
4.5977e+05
4.5979e+05
4.6109e+05
4.6111e+05
4.6304e+05
4.6315e+05
4.6409e+05
4.6422e+05
4.6442e+05
4.6449e+05
4.6525e+05
4.6595e+05
4.6619e+05
4.6632e+05
4.6647e+05
4.6663e+05
4.6686e+05
4.6718e+05
4.6753e+05
4.6786e+05
4.6923e+05
4.6963e+05
4.697e+05
4.7113e+05
4.7173e+05
4.72e+05
4.7204e+05
4.7221e+05
4.7227e+05
4.7262e+05
4.7296e+05
4.7335e+05
4.7397e+05
4.7471e+05
4.7578e+05
4.7591e+05
4.7613e+05
4.7629e+05
4.7679e+05
4.7682e+05
4.771e+05
4.7862e+05
4.7948e+05
4.8004e+05
4.9781e+05
4.9909e+05
4.9918e+05
4.9985e+05
5.0165e+05
5.0287e+05
5.0372e+05
5.0403e+05
5.041e+05
5.0639e+05
5.073e+05
5.0777e+05
5.0824e+05
5.095e+05
5.0951e+05
5.1029e+05
5.1037e+05
5.1103e+05
5.1109e+05
5.1156e+05
5.1194e+05
5.122e+05
5.1226e+05
5.1311e+05
5.1345e+05
5.1387e+05
5.1561e+05
5.1578e+05
5.158e+05
5.16e+05
5.1608e+05
5.1644e+05
5.1727e+05
5.1729e+05
5.1776e+05
5.1786e+05
5.1808e+05
5.1816e+05
5.1855e+05
5.1902e+05
5.1984e+05
5.2035e+05
5.2114e+05
5.2172e+05
5.2186e+05
5.2192e+05
5.2239e+05
5.228e+05
5.2363e+05
5.2577e+05
5.2632e+05
5.273e+05
5.282e+05
5.2845e+05
5.2858e+05
5.2886e+05
5.3168e+05
5.3214e+05
5.3298e+05
5.3373e+05
5.3424e+05
5.3427e+05
5.3506e+05
5.3536e+05
5.3546e+05
5.3579e+05
5.3615e+05
5.3676e+05
5.377e+05
5.3928e+05
5.3997e+05
5.4e+05
5.4023e+05
5.4034e+05
5.4124e+05
5.4151e+05
5.4342e+05
5.4378e+05
5.4414e+05
5.4446e+05
5.4452e+05
5.4501e+05
5.4563e+05
5.4611e+05
5.4613e+05
5.4683e+05
5.4783e+05
5.487e+05
5.4997e+05
5.5004e+05
5.5026e+05
5.5031e+05
5.5059e+05
5.5082e+05
5.5087e+05
5.5144e+05
5.5171e+05
5.5174e+05
5.5229e+05
5.527e+05
5.5278e+05
5.5303e+05
5.5322e+05
5.5341e+05
5.5356e+05
5.5388e+05
5.5404e+05
5.5427e+05
5.5445e+05
5.5447e+05
5.5491e+05
5.5506e+05
5.5527e+05
5.5621e+05
5.5685e+05
5.5851e+05
5.5925e+05
5.5956e+05
5.5959e+05
5.6097e+05
5.6128e+05
5.6362e+05
5.6476e+05
5.6506e+05
5.6542e+05
5.6577e+05
5.6634e+05
5.6654e+05
5.6682e+05
5.6701e+05
5.6747e+05
5.6765e+05
5.677e+05
5.6874e+05
5.6967e+05
5.7014e+05
5.7052e+05
5.7081e+05
5.7098e+05
5.7118e+05
5.715e+05
5.7212e+05
5.7216e+05
5.725e+05
5.7256e+05
5.7289e+05
5.7331e+05
5.7363e+05
5.7368e+05
5.7405e+05
5.7461e+05
5.7463e+05
5.7542e+05
5.7568e+05
5.757e+05
5.7664e+05
5.7871e+05
5.9349e+05
5.9354e+05
5.9445e+05
5.9626e+05
5.9674e+05
5.9733e+05
5.9771e+05
5.9812e+05
5.9843e+05
5.9884e+05
5.9907e+05
5.9911e+05
5.9926e+05
5.9929e+05
5.9963e+05
5.9994e+05
6.0016e+05
6.0042e+05
6.007e+05
6.0094e+05
6.011e+05
6.0148e+05
6.0336e+05
6.0355e+05
6.0381e+05
6.0399e+05
6.0419e+05
6.0498e+05
6.0516e+05
6.0552e+05
6.0596e+05
6.0631e+05
6.0677e+05
6.0708e+05
6.0733e+05
6.075e+05
6.0753e+05
6.0774e+05
6.0836e+05
6.0866e+05
6.0962e+05
6.1092e+05
6.1113e+05
6.1155e+05
6.1179e+05
6.12e+05
6.1218e+05
6.126e+05
6.1289e+05
6.1332e+05
6.1347e+05
6.1366e+05
6.1369e+05
6.1428e+05
6.145e+05
6.1496e+05
6.1498e+05
6.1558e+05
6.1622e+05
6.1651e+05
6.1677e+05
6.168e+05
6.1739e+05
6.1759e+05
6.1762e+05
6.1784e+05
6.1802e+05
6.1857e+05
6.186e+05
6.1888e+05
6.1891e+05
6.194e+05
6.1944e+05
6.2017e+05
6.2037e+05
6.2081e+05
6.2104e+05
6.2149e+05
6.2152e+05
6.219e+05
6.2214e+05
6.2261e+05
6.2284e+05
6.2336e+05
6.2358e+05
6.2392e+05
6.2428e+05
6.2431e+05
6.2492e+05
6.2522e+05
6.2524e+05
6.2549e+05
6.2604e+05
6.2636e+05
6.2658e+05
6.2703e+05
6.2706e+05
6.2741e+05
6.2762e+05
6.2764e+05
6.2805e+05
6.2853e+05
6.2874e+05
6.2877e+05
6.2895e+05
6.295e+05
6.2964e+05
6.2989e+05
6.3073e+05
6.3095e+05
6.3098e+05
6.3148e+05
6.3151e+05
6.3172e+05
6.3197e+05
6.3253e+05
6.3257e+05
6.3296e+05
6.33e+05
6.336e+05
6.3363e+05
6.3387e+05
6.349e+05
6.359e+05
6.3593e+05
6.3612e+05
6.3669e+05
6.3693e+05
6.3713e+05
6.3732e+05
6.3751e+05
6.3768e+05
6.3772e+05
6.3792e+05
6.3843e+05
6.3878e+05
6.3882e+05
6.3904e+05
6.3923e+05
6.3924e+05
6.3946e+05
6.3973e+05
6.3993e+05
6.401e+05
6.4014e+05
6.4035e+05
6.4038e+05
6.406e+05
6.4078e+05
6.4082e+05
6.4103e+05
6.4146e+05
6.4176e+05
6.418e+05
6.4199e+05
6.4218e+05
6.4221e+05
6.4241e+05
6.4244e+05
6.4272e+05
6.4276e+05
6.43e+05
6.4322e+05
6.4325e+05
6.4344e+05
6.4364e+05
6.4394e+05
6.4415e+05
6.4433e+05
6.4471e+05
6.4506e+05
6.4534e+05
6.4563e+05
6.4566e+05
6.4588e+05
6.4635e+05
6.4677e+05
6.4702e+05
6.4745e+05
6.4782e+05
6.4812e+05
6.4815e+05
6.4859e+05
6.4881e+05
6.4921e+05
