145
425
704
983
1252
1519
1796
2070
2332
2591
2855
3120
3387
3654
3913
4178
4458
4724
4980
5245
5510
5784
6053
6318
6586
6864
7128
7386
7650
7917
8191
8722
8988
9262
9530
9797
10063
10333
10611
10889
11154
11419
11701
11978
12252
12525
12796
13071
13349
13614
13879
14156
14424
14689
14953
15220
15491
15771
16043
16313
16605
16886
17153
17430
17707
17987
18261
18528
18792
19068
19330
19585
19847
20111
20380
20651
20919
21176
21448
21717
21981
22515
22791
23287
23573
23864
24147
24425
24701
24973
25255
25528
25793
26064
26616
26875
27144
27404
27674
27946
28217
28484
28767
29038
29302
29576
29844
30122
30402
30675
30940
31213
31476
31730
31990
32255
32522
32792
33059
33314
33583
33853
34116
34378
34645
34913
35180
35441
35705
35963
36237
36502
36763
37031
37300
37570
37838
38097
38356
38627
38889
39152
39408
39671
39939
40206
40464
40723
40997
41276
41549
41813
42085
42353
42626
43367
43993
44272
44549
44824
45105
45377
45640
45909
46444
46707
47238
47511
47697
48040
48306
48848
49110
49637
50070
50438
50697
50971
51239
51490
51750
52007
52274
52541
52797
53051
53316
53583
53838
54092
54351
54620
54891
55155
55418
55694
55973
56242
56502
56768
57031
57299
57552
57803
58064
58334
58587
58839
59342
59602
59860
60116
60375
60648
60909
61163
61421
61680
61939
62415
62695
62934
63239
63505
63759
64039
64310
64584
64848
65111
65374
65650
65908
66158
66420
66682
66897
67466
68005
68276
68541
68810
69078
69352
69622
69890
70150
70421
70690
70959
71224
71492
71758
72026
72286
72544
72820
73091
73359
73621
73887
74152
74422
74684
74944
75221
75499
75765
76030
76297
76560
76832
77101
77364
77632
77907
78166
78418
78679
78934
79192
79459
79720
79983
80256
80531
80794
81061
81878
82147
82412
82684
82954
83213
83463
83724
83979
84247
84503
84759
85026
85294
85561
85816
86081
86348
86622
86886
87150
87416
87687
87949
88204
88470
88728
88999
89260
89515
89771
90042
90303
90552
90811
91069
91335
91605
91860
92116
92387
92654
92910
93173
93442
93709
93981
94248
94503
94772
95033
95291
95545
95806
96066
96326
96580
96834
97093
97358
97624
97879
98143
98402
98670
98931
99447
99719
99979
1.0024e+05
1.0044e+05
1.0075e+05
1.0128e+05
1.0153e+05
1.0179e+05
1.0205e+05
1.0231e+05
1.0257e+05
1.0283e+05
1.031e+05
1.0335e+05
1.0362e+05
1.0388e+05
1.0414e+05
1.044e+05
1.0468e+05
1.0494e+05
1.0519e+05
1.0545e+05
1.0571e+05
1.0598e+05
1.0617e+05
1.0647e+05
1.0674e+05
1.0702e+05
1.073e+05
1.0756e+05
1.0782e+05
1.0808e+05
1.0834e+05
1.086e+05
1.0886e+05
1.0911e+05
1.0937e+05
1.0964e+05
1.099e+05
1.1015e+05
1.1041e+05
1.1067e+05
1.1093e+05
1.1119e+05
1.1172e+05
1.12e+05
1.1226e+05
1.1252e+05
1.1278e+05
1.1305e+05
1.1331e+05
1.1358e+05
1.1383e+05
1.1409e+05
1.1435e+05
1.1462e+05
1.1488e+05
1.1513e+05
1.1539e+05
1.1565e+05
1.1592e+05
1.1618e+05
1.1644e+05
1.1671e+05
1.1698e+05
1.1724e+05
1.175e+05
1.1776e+05
1.1801e+05
1.1827e+05
1.1854e+05
1.188e+05
1.1906e+05
1.1933e+05
1.1959e+05
1.1984e+05
1.2011e+05
1.2037e+05
1.2064e+05
1.2092e+05
1.2118e+05
1.2144e+05
1.2171e+05
1.2198e+05
1.2223e+05
1.225e+05
1.2276e+05
1.2303e+05
1.233e+05
1.2355e+05
1.2381e+05
1.2407e+05
1.2433e+05
1.2459e+05
1.2484e+05
1.251e+05
1.2536e+05
1.2563e+05
1.2589e+05
1.2637e+05
1.2666e+05
1.2693e+05
1.272e+05
1.2747e+05
1.2775e+05
1.2802e+05
1.2828e+05
1.2855e+05
1.2882e+05
1.2909e+05
1.2936e+05
1.2962e+05
1.2989e+05
1.3014e+05
1.3041e+05
1.3067e+05
1.3092e+05
1.3118e+05
1.3146e+05
1.3173e+05
1.3198e+05
1.3225e+05
1.3251e+05
1.3276e+05
1.3326e+05
1.3356e+05
1.3384e+05
1.3411e+05
1.3437e+05
1.3462e+05
1.349e+05
1.3517e+05
1.3544e+05
1.3571e+05
1.3597e+05
1.3625e+05
1.3652e+05
1.3679e+05
1.3706e+05
1.3734e+05
1.3762e+05
1.379e+05
1.3818e+05
1.3844e+05
1.3871e+05
1.3897e+05
1.3923e+05
1.3948e+05
1.3974e+05
1.4001e+05
1.4027e+05
1.4052e+05
1.4078e+05
1.4103e+05
1.4129e+05
1.4155e+05
1.418e+05
1.4205e+05
1.423e+05
1.4256e+05
1.4282e+05
1.4307e+05
1.4332e+05
1.4357e+05
1.4383e+05
1.4408e+05
1.4433e+05
1.4458e+05
1.4483e+05
1.4508e+05
1.4661e+05
1.4737e+05
1.4762e+05
1.4787e+05
1.4836e+05
1.4863e+05
1.4887e+05
1.4912e+05
1.4938e+05
1.4988e+05
1.5015e+05
1.993e+05
2.007e+05
2.0095e+05
2.012e+05
2.0245e+05
2.0269e+05
2.0833e+05
2.0878e+05
2.101e+05
2.1095e+05
2.1136e+05
2.1179e+05
2.1221e+05
2.1261e+05
2.1343e+05
2.1382e+05
2.1463e+05
2.1852e+05
2.1934e+05
2.2649e+05
2.404e+05
2.4516e+05
2.4538e+05
2.5514e+05
2.746e+05
2.9076e+05
2.9302e+05
3.4072e+05
3.4221e+05
3.7038e+05
4.248e+05
4.4065e+05
4.4288e+05
4.4917e+05
4.5116e+05
4.5267e+05
4.577e+05
4.5894e+05
4.6043e+05
4.8615e+05
4.8867e+05
4.9644e+05
4.9693e+05
4.9742e+05
4.979e+05
4.984e+05
4.9938e+05
4.9984e+05
5.0036e+05
5.0236e+05
5.0334e+05
5.0383e+05
5.0675e+05
5.0773e+05
5.0822e+05
5.0922e+05
5.0972e+05
5.1021e+05
5.107e+05
5.112e+05
5.1672e+05
5.1973e+05
5.2024e+05
5.2073e+05
5.2123e+05
5.3609e+05
5.363e+05
5.3691e+05
5.372e+05
5.3748e+05
5.3773e+05
5.3798e+05
5.3823e+05
5.3869e+05
5.3947e+05
5.3997e+05
5.4022e+05
5.4046e+05
5.4071e+05
5.4096e+05
5.4119e+05
5.4143e+05
5.4168e+05
5.4192e+05
5.4215e+05
5.4239e+05
5.4264e+05
5.4288e+05
5.4313e+05
5.4338e+05
5.4362e+05
5.4386e+05
5.4412e+05
5.4436e+05
5.446e+05
5.4485e+05
5.4532e+05
5.4609e+05
5.4634e+05
5.4655e+05
5.4684e+05
5.4708e+05
5.4732e+05
5.4757e+05
5.4782e+05
5.4807e+05
5.4832e+05
5.4856e+05
5.4881e+05
5.4907e+05
5.4928e+05
5.4956e+05
5.4981e+05
5.5001e+05
5.5031e+05
5.5056e+05
5.5075e+05
5.5104e+05
5.5185e+05
5.5266e+05
5.5293e+05
5.5319e+05
5.5344e+05
5.537e+05
5.5396e+05
5.542e+05
5.5445e+05
5.547e+05
5.5495e+05
5.5547e+05
5.5572e+05
5.5623e+05
5.5648e+05
5.5699e+05
5.5778e+05
5.5804e+05
5.5823e+05
5.5846e+05
5.5887e+05
5.5923e+05
5.6002e+05
5.6023e+05
5.6059e+05
5.6085e+05
5.6106e+05
5.6139e+05
5.6164e+05
5.6216e+05
5.6241e+05
5.6292e+05
5.6316e+05
5.6337e+05
5.6366e+05
5.6391e+05
5.6412e+05
5.644e+05
5.6465e+05
5.6507e+05
5.6536e+05
5.6562e+05
5.6588e+05
5.6613e+05
5.6637e+05
5.6686e+05
5.671e+05
5.6735e+05
5.6758e+05
5.6782e+05
5.6806e+05
5.6831e+05
5.6855e+05
5.6879e+05
5.6902e+05
5.6926e+05
5.6951e+05
5.6975e+05
5.7e+05
5.7023e+05
5.7048e+05
5.7074e+05
5.7099e+05
5.7123e+05
5.7147e+05
5.7172e+05
5.7197e+05
5.7222e+05
5.7247e+05
5.7272e+05
5.7297e+05
5.7322e+05
5.7347e+05
5.7372e+05
5.7397e+05
5.7448e+05
5.7474e+05
5.75e+05
5.7526e+05
5.7553e+05
5.7576e+05
5.7919e+05
5.7969e+05
5.7994e+05
5.802e+05
5.8145e+05
5.817e+05
5.8196e+05
5.8222e+05
5.8246e+05
5.8272e+05
5.8323e+05
5.8372e+05
5.8397e+05
5.8422e+05
5.8446e+05
5.8471e+05
5.8495e+05
5.852e+05
5.8545e+05
5.857e+05
5.8594e+05
5.862e+05
5.8645e+05
5.867e+05
5.8716e+05
5.8794e+05
5.8819e+05
5.8844e+05
5.8868e+05
5.8894e+05
5.8919e+05
5.8943e+05
5.8968e+05
5.8992e+05
5.9017e+05
5.9042e+05
5.9086e+05
5.9163e+05
5.9187e+05
5.9211e+05
5.9234e+05
5.9263e+05
5.9286e+05
5.931e+05
5.9334e+05
5.9358e+05
5.9383e+05
5.9408e+05
5.9433e+05
5.948e+05
5.9609e+05
5.9623e+05
5.9679e+05
5.9927e+05
6.0077e+05
6.0327e+05
6.0376e+05
6.0425e+05
6.0475e+05
6.0523e+05
6.0572e+05
6.0622e+05
6.067e+05
6.0769e+05
6.0818e+05
6.0869e+05
6.0918e+05
6.1017e+05
6.1066e+05
6.1263e+05
6.1314e+05
6.1413e+05
6.1559e+05
6.2027e+05
6.2753e+05
6.2837e+05
6.3568e+05
6.3594e+05
6.3619e+05
6.3643e+05
6.3668e+05
6.3692e+05
6.3718e+05
6.3743e+05
6.3767e+05
6.3791e+05
6.3816e+05
6.3842e+05
6.3867e+05
6.3891e+05
6.3917e+05
6.3968e+05
6.3993e+05
6.4018e+05
6.4043e+05
6.4069e+05
6.4094e+05
6.4119e+05
6.4144e+05
6.417e+05
6.4195e+05
6.4221e+05
6.4246e+05
6.4271e+05
6.4297e+05
6.4322e+05
6.4348e+05
6.4372e+05
6.4398e+05
6.4423e+05
6.4448e+05
6.4473e+05
6.4498e+05
6.4522e+05
6.4548e+05
6.4598e+05
6.4674e+05
6.4751e+05
6.4776e+05
6.4802e+05
6.4828e+05
6.4853e+05
6.4878e+05
6.4903e+05
6.4929e+05
6.4955e+05
-1
288
332
567
608
846
891
1117
1159
1385
1423
1657
1706
1939
1982
2210
2257
2468
2732
2777
2992
3032
3258
3300
3526
3568
3792
3836
4051
4092
4325
4368
4597
4640
4855
4895
5117
5156
5379
5423
5651
5695
5926
5969
6192
6228
6454
6499
6728
6770
7001
7040
7265
7305
7524
7561
7792
7832
8062
8335
8560
8860
8905
9131
9168
9406
9443
9668
9710
9936
10202
10244
10478
10523
10753
10797
11021
11059
11290
11332
11562
11604
11849
11891
12123
12165
12395
12437
12667
12709
12939
12982
13219
13267
13484
13526
13749
13789
14019
14062
14298
14337
14564
14605
14829
14869
15098
15141
15360
15408
15637
15682
15904
15948
16177
16214
16459
16509
16748
16792
17027
17064
17295
17337
17574
17615
17849
17890
18132
18176
18403
18443
18662
18706
18935
18973
19206
19245
19470
19506
19726
19764
19991
20030
20254
20294
20525
20570
20789
20834
21054
21092
21319
21362
21593
21632
21862
21899
22116
22157
22345
22661
22705
22933
23124
23162
23424
23466
23716
23760
24007
24048
24290
24564
24603
24842
24881
25120
25164
25400
25442
25666
25708
25931
25970
26192
26373
26415
26757
27014
27054
27283
27319
27547
27593
27820
27866
28088
28132
28351
28396
28627
28673
28905
28948
29176
29444
29486
29718
29755
29991
30032
30270
30310
30542
30588
30807
30848
31081
31353
31398
31615
31653
31870
31906
32131
32175
32398
32440
32664
32708
32930
32974
33194
33237
33456
33494
33732
33776
33994
34040
34250
34295
34516
34558
34780
34828
35049
35088
35320
35359
35581
35627
35841
35882
36107
36153
36374
36412
36638
36680
36902
36941
37175
37442
37484
37715
37756
37977
38018
38233
38274
38496
38538
38768
38809
39030
39072
39286
39326
39547
39590
39808
39850
40076
40118
40338
40377
40602
40642
40863
40908
41144
41187
41415
41461
41681
41722
41949
41991
42217
42258
42496
42540
42841
43068
43514
43729
44132
44410
44449
44666
44967
45009
45247
45288
45508
45779
45820
46054
46097
46297
46578
46618
46844
46884
47074
47379
47421
47612
47841
48180
48222
48447
48646
48987
49027
49246
49450
49783
49825
50022
50245
50573
50619
50842
50882
51118
51376
51628
51668
51887
51927
52154
52198
52420
52472
52681
52721
52932
52975
53187
53237
53459
53510
53724
53760
53975
54014
54230
54274
54483
54537
54763
54802
55026
55293
55335
55540
55841
55886
56115
56158
56377
56419
56637
56905
56940
57175
57215
57436
57505
57687
57943
57981
58213
58261
58470
58718
58970
59142
59486
59532
59743
59783
59999
60038
60248
60288
60518
60561
60786
60828
61043
61082
61300
61338
61563
61601
61819
61854
62079
62260
62552
62593
62828
62870
63068
63120
63378
63420
63634
63678
63898
63948
64173
64216
64446
64487
64719
64766
64986
65025
65245
65290
65519
65564
65784
65828
66035
66074
66291
66335
66552
66592
66819
67041
67082
67329
67372
67597
67642
67833
68146
68188
68412
68450
68678
68718
68952
68993
69218
69497
69536
69759
69805
70024
70061
70290
70330
70560
70600
70832
70869
71097
71143
71365
71406
71628
71668
71893
71945
72157
72198
72420
72684
72727
72963
73005
73229
73276
73491
73531
73759
73797
74019
74060
74291
74334
74559
74599
74820
74863
75083
75124
75359
75406
75633
75671
75897
75943
76165
76205
76429
76471
76701
76743
76977
77016
77242
77284
77500
77540
77773
77817
78041
78081
78303
78338
78558
78598
78818
78854
79075
79114
79332
79373
79594
79634
79853
79894
80118
80160
80399
80439
80668
80712
80932
80975
81199
81415
81726
81771
82010
82053
82281
82322
82552
82592
82829
82872
83094
83134
83344
83389
83599
83644
83860
83901
84117
84166
84381
84421
84636
84681
84896
84940
85168
85212
85433
85478
85691
85731
85951
85993
86214
86256
86487
86529
86763
86800
87021
87063
87284
87327
87556
87602
87821
87859
88083
88121
88340
88379
88604
88645
88866
88912
89140
89180
89395
89436
89649
89687
89913
89960
90179
90220
90438
90473
90692
90726
90948
90987
91208
91251
91480
91521
91736
91779
91994
92031
92254
92298
92531
92570
92790
92835
93046
93088
93314
93357
93579
93619
93852
93894
94115
94157
94379
94421
94642
94685
94915
94957
95173
95212
95426
95466
95685
95729
95941
95991
96199
96246
96457
96499
96715
96757
96966
97016
97233
97277
97491
97535
97754
97796
98013
98053
98274
98313
98540
98587
98811
98853
99068
99115
99588
99627
99852
99890
1.0012e+05
1.0015e+05
1.0037e+05
1.0058e+05
1.0062e+05
1.0089e+05
1.0093e+05
1.0141e+05
1.0145e+05
1.0166e+05
1.017e+05
1.0192e+05
1.0196e+05
1.0219e+05
1.0223e+05
1.0245e+05
1.025e+05
1.0271e+05
1.0275e+05
1.0297e+05
1.0301e+05
1.0323e+05
1.0327e+05
1.0349e+05
1.0354e+05
1.0376e+05
1.038e+05
1.0402e+05
1.0406e+05
1.0427e+05
1.0431e+05
1.0454e+05
1.0459e+05
1.0481e+05
1.0485e+05
1.0507e+05
1.0511e+05
1.0533e+05
1.0537e+05
1.0559e+05
1.0563e+05
1.0585e+05
1.059e+05
1.0612e+05
1.0632e+05
1.066e+05
1.0665e+05
1.0688e+05
1.0692e+05
1.0716e+05
1.0721e+05
1.0743e+05
1.0747e+05
1.0769e+05
1.0773e+05
1.0795e+05
1.0799e+05
1.0822e+05
1.0826e+05
1.0848e+05
1.0852e+05
1.0874e+05
1.0878e+05
1.0899e+05
1.0903e+05
1.0924e+05
1.0929e+05
1.0951e+05
1.0955e+05
1.0977e+05
1.0982e+05
1.1003e+05
1.1007e+05
1.1029e+05
1.1054e+05
1.1059e+05
1.1081e+05
1.1085e+05
1.1107e+05
1.1112e+05
1.1133e+05
1.1152e+05
1.1186e+05
1.1191e+05
1.1213e+05
1.1217e+05
1.124e+05
1.1244e+05
1.1266e+05
1.127e+05
1.1293e+05
1.1297e+05
1.1318e+05
1.1323e+05
1.1345e+05
1.1349e+05
1.1371e+05
1.1375e+05
1.1397e+05
1.1423e+05
1.1427e+05
1.145e+05
1.1454e+05
1.1475e+05
1.148e+05
1.1501e+05
1.1505e+05
1.1526e+05
1.153e+05
1.1552e+05
1.1557e+05
1.1579e+05
1.1583e+05
1.1606e+05
1.161e+05
1.1632e+05
1.1636e+05
1.1658e+05
1.1662e+05
1.1685e+05
1.169e+05
1.1712e+05
1.1738e+05
1.1741e+05
1.1763e+05
1.1768e+05
1.1789e+05
1.1793e+05
1.1814e+05
1.1819e+05
1.1842e+05
1.1846e+05
1.1867e+05
1.1872e+05
1.1893e+05
1.1897e+05
1.192e+05
1.1924e+05
1.1946e+05
1.195e+05
1.1972e+05
1.1976e+05
1.1998e+05
1.2002e+05
1.2025e+05
1.2029e+05
1.2051e+05
1.2056e+05
1.2078e+05
1.2083e+05
1.2105e+05
1.2109e+05
1.2131e+05
1.2135e+05
1.2158e+05
1.2163e+05
1.2185e+05
1.219e+05
1.2211e+05
1.2215e+05
1.2237e+05
1.2241e+05
1.2263e+05
1.2267e+05
1.2289e+05
1.2294e+05
1.2317e+05
1.2321e+05
1.2343e+05
1.2347e+05
1.2368e+05
1.2372e+05
1.2394e+05
1.2398e+05
1.2421e+05
1.2425e+05
1.2447e+05
1.2451e+05
1.2472e+05
1.2476e+05
1.2498e+05
1.2502e+05
1.2523e+05
1.2528e+05
1.255e+05
1.2554e+05
1.2576e+05
1.2581e+05
1.2602e+05
1.2621e+05
1.2652e+05
1.2656e+05
1.2679e+05
1.2684e+05
1.2706e+05
1.2711e+05
1.2733e+05
1.2738e+05
1.276e+05
1.2764e+05
1.2788e+05
1.2793e+05
1.2815e+05
1.282e+05
1.2842e+05
1.2846e+05
1.2868e+05
1.2873e+05
1.2896e+05
1.2901e+05
1.2923e+05
1.2927e+05
1.2949e+05
1.2976e+05
1.298e+05
1.3002e+05
1.3006e+05
1.3028e+05
1.3032e+05
1.3055e+05
1.3058e+05
1.308e+05
1.3085e+05
1.3106e+05
1.311e+05
1.3132e+05
1.3137e+05
1.3159e+05
1.3164e+05
1.3185e+05
1.3189e+05
1.3212e+05
1.3216e+05
1.3238e+05
1.3243e+05
1.3264e+05
1.3269e+05
1.3291e+05
1.331e+05
1.3314e+05
1.3339e+05
1.3343e+05
1.3369e+05
1.3374e+05
1.3397e+05
1.3402e+05
1.3424e+05
1.3428e+05
1.3451e+05
1.3455e+05
1.3476e+05
1.348e+05
1.3504e+05
1.3509e+05
1.3531e+05
1.3535e+05
1.3557e+05
1.3562e+05
1.3584e+05
1.3587e+05
1.3611e+05
1.3615e+05
1.3639e+05
1.3643e+05
1.3666e+05
1.367e+05
1.3693e+05
1.3697e+05
1.372e+05
1.3724e+05
1.3748e+05
1.3752e+05
1.3776e+05
1.3804e+05
1.3808e+05
1.3831e+05
1.3835e+05
1.3858e+05
1.3862e+05
1.3884e+05
1.3911e+05
1.3915e+05
1.3936e+05
1.394e+05
1.3962e+05
1.3966e+05
1.3987e+05
1.3992e+05
1.4015e+05
1.4018e+05
1.404e+05
1.4044e+05
1.4066e+05
1.407e+05
1.4091e+05
1.4095e+05
1.4117e+05
1.4122e+05
1.4143e+05
1.4168e+05
1.4173e+05
1.4193e+05
1.4197e+05
1.4219e+05
1.4223e+05
1.4245e+05
1.4249e+05
1.427e+05
1.4274e+05
1.4295e+05
1.4299e+05
1.432e+05
1.4324e+05
1.4345e+05
1.4349e+05
1.4371e+05
1.4375e+05
1.4396e+05
1.44e+05
1.4421e+05
1.4425e+05
1.4446e+05
1.445e+05
1.447e+05
1.4475e+05
1.4496e+05
1.45e+05
1.4522e+05
1.4526e+05
1.4674e+05
1.4678e+05
1.4749e+05
1.4754e+05
1.4775e+05
1.4779e+05
1.48e+05
1.4804e+05
1.485e+05
1.4854e+05
1.4875e+05
1.4881e+05
1.4901e+05
1.4904e+05
1.4926e+05
1.493e+05
1.4951e+05
1.4955e+05
1.5002e+05
1.5006e+05
1.5028e+05
1.5032e+05
1.9893e+05
1.9913e+05
1.9916e+05
1.9952e+05
1.9987e+05
1.999e+05
2.001e+05
2.0014e+05
2.0035e+05
2.0038e+05
2.006e+05
2.0084e+05
2.0088e+05
2.0113e+05
2.0134e+05
2.0138e+05
2.0158e+05
2.0162e+05
2.0187e+05
2.0213e+05
2.0234e+05
2.0238e+05
2.0258e+05
2.0262e+05
2.0289e+05
2.0333e+05
2.0337e+05
2.0357e+05
2.0361e+05
2.0382e+05
2.0386e+05
2.0405e+05
2.041e+05
2.0429e+05
2.0434e+05
2.0455e+05
2.0458e+05
2.0526e+05
2.053e+05
2.0853e+05
2.0896e+05
2.0942e+05
2.0986e+05
2.1029e+05
2.1114e+05
2.1155e+05
2.1199e+05
2.124e+05
2.1281e+05
2.1362e+05
2.1402e+05
2.1482e+05
2.1521e+05
2.1559e+05
2.1598e+05
2.1755e+05
2.1872e+05
2.1953e+05
2.2229e+05
2.2267e+05
2.2308e+05
2.2386e+05
2.2668e+05
2.3882e+05
2.3907e+05
2.3911e+05
2.3932e+05
2.3936e+05
2.3956e+05
2.396e+05
2.3986e+05
2.4032e+05
2.4038e+05
2.4056e+05
2.406e+05
2.4081e+05
2.4108e+05
2.4111e+05
2.4133e+05
2.4137e+05
2.4157e+05
2.4162e+05
2.4186e+05
2.4206e+05
2.421e+05
2.4232e+05
2.4236e+05
2.4257e+05
2.4261e+05
2.4281e+05
2.4285e+05
2.4305e+05
2.4309e+05
2.433e+05
2.4334e+05
2.4355e+05
2.4359e+05
2.438e+05
2.4384e+05
2.4404e+05
2.4408e+05
2.4429e+05
2.4433e+05
2.4454e+05
2.4458e+05
2.4479e+05
2.4483e+05
2.4505e+05
2.4529e+05
2.4553e+05
2.4557e+05
2.4574e+05
2.4605e+05
2.4608e+05
2.4629e+05
2.4633e+05
2.4652e+05
2.4656e+05
2.4677e+05
2.468e+05
2.4701e+05
2.4705e+05
2.4725e+05
2.4729e+05
2.475e+05
2.4754e+05
2.4774e+05
2.4778e+05
2.4797e+05
2.4801e+05
2.4822e+05
2.4826e+05
2.4847e+05
2.4851e+05
2.4871e+05
2.4874e+05
2.4894e+05
2.4898e+05
2.4918e+05
2.4922e+05
2.4943e+05
2.4947e+05
2.4967e+05
2.4972e+05
2.4992e+05
2.4996e+05
2.5017e+05
2.5021e+05
2.5041e+05
2.5045e+05
2.5066e+05
2.5071e+05
2.5091e+05
2.5095e+05
2.5116e+05
2.512e+05
2.514e+05
2.5145e+05
2.5164e+05
2.5169e+05
2.5188e+05
2.5193e+05
2.5213e+05
2.5217e+05
2.5238e+05
2.5255e+05
2.5274e+05
2.5278e+05
2.5303e+05
2.5308e+05
2.5331e+05
2.5335e+05
2.5357e+05
2.5361e+05
2.5431e+05
2.5435e+05
2.5456e+05
2.546e+05
2.5481e+05
2.5485e+05
2.5529e+05
2.5534e+05
2.5555e+05
2.5559e+05
2.558e+05
2.5584e+05
2.5605e+05
2.5608e+05
2.5654e+05
2.5657e+05
2.5678e+05
2.5682e+05
2.5704e+05
2.5708e+05
2.5729e+05
2.5733e+05
2.5753e+05
2.5757e+05
2.5778e+05
2.5782e+05
2.5803e+05
2.5807e+05
2.5829e+05
2.5833e+05
2.5853e+05
2.5857e+05
2.5878e+05
2.5882e+05
2.5903e+05
2.5907e+05
2.5927e+05
2.5931e+05
2.5953e+05
2.5957e+05
2.5977e+05
2.5981e+05
2.6001e+05
2.6005e+05
2.6025e+05
2.6029e+05
2.605e+05
2.6054e+05
2.6075e+05
2.6079e+05
2.6098e+05
2.6102e+05
2.6122e+05
2.6126e+05
2.6147e+05
2.615e+05
2.6171e+05
2.6175e+05
2.6202e+05
2.6243e+05
2.6247e+05
2.632e+05
2.6325e+05
2.6344e+05
2.6348e+05
2.6368e+05
2.6386e+05
2.6419e+05
2.6423e+05
2.6468e+05
2.6473e+05
2.6518e+05
2.6523e+05
2.6566e+05
2.6571e+05
2.6614e+05
2.6619e+05
2.6662e+05
2.6666e+05
2.6705e+05
2.6709e+05
2.6758e+05
2.6762e+05
2.6808e+05
2.6813e+05
2.6855e+05
2.686e+05
2.6904e+05
2.6908e+05
2.6958e+05
2.699e+05
2.6995e+05
2.7045e+05
2.705e+05
2.7094e+05
2.7098e+05
2.7144e+05
2.7148e+05
2.7193e+05
2.7198e+05
2.724e+05
2.7245e+05
2.7312e+05
2.7315e+05
2.7336e+05
2.734e+05
2.736e+05
2.7364e+05
2.7384e+05
2.7387e+05
2.7408e+05
2.7412e+05
2.743e+05
2.7435e+05
2.7478e+05
2.7482e+05
2.7503e+05
2.7506e+05
2.7526e+05
2.753e+05
2.755e+05
2.7553e+05
2.7573e+05
2.7577e+05
2.7597e+05
2.7601e+05
2.7621e+05
2.7625e+05
2.7645e+05
2.7649e+05
2.7669e+05
2.7673e+05
2.7694e+05
2.7697e+05
2.7717e+05
2.7721e+05
2.7741e+05
2.7745e+05
2.7766e+05
2.777e+05
2.779e+05
2.7794e+05
2.7813e+05
2.7816e+05
2.7836e+05
2.784e+05
2.7861e+05
2.7865e+05
2.7885e+05
2.7889e+05
2.7957e+05
2.7961e+05
2.7981e+05
2.7985e+05
2.8006e+05
2.801e+05
2.8031e+05
2.8034e+05
2.8054e+05
2.8058e+05
2.8078e+05
2.8082e+05
2.8103e+05
2.8107e+05
2.8127e+05
2.8131e+05
2.8153e+05
2.8157e+05
2.8177e+05
2.8181e+05
2.8201e+05
2.8206e+05
2.8252e+05
2.8256e+05
2.8277e+05
2.8281e+05
2.8301e+05
2.8305e+05
2.8326e+05
2.833e+05
2.835e+05
2.8354e+05
2.8375e+05
2.8379e+05
2.8401e+05
2.8405e+05
2.8426e+05
2.843e+05
2.8451e+05
2.8471e+05
2.8475e+05
2.8502e+05
2.8506e+05
2.8576e+05
2.8581e+05
2.86e+05
2.8604e+05
2.8625e+05
2.8629e+05
2.865e+05
2.8654e+05
2.8674e+05
2.8678e+05
2.8698e+05
2.8702e+05
2.8723e+05
2.8728e+05
2.8749e+05
2.8753e+05
2.8773e+05
2.8777e+05
2.8797e+05
2.8801e+05
2.8822e+05
2.8825e+05
2.8847e+05
2.885e+05
2.8871e+05
2.8875e+05
2.8896e+05
2.89e+05
2.892e+05
2.8924e+05
2.8945e+05
2.8949e+05
2.8972e+05
2.8989e+05
2.9008e+05
2.9012e+05
2.9036e+05
2.9041e+05
2.9065e+05
2.9069e+05
2.9091e+05
2.9095e+05
2.9117e+05
2.9122e+05
2.9142e+05
2.9146e+05
2.9167e+05
2.9171e+05
2.9192e+05
2.9196e+05
2.9218e+05
2.9222e+05
2.9243e+05
2.9247e+05
2.9268e+05
2.9271e+05
2.9292e+05
2.9296e+05
2.9317e+05
2.9321e+05
2.9342e+05
2.9346e+05
2.9367e+05
2.9371e+05
2.939e+05
2.9394e+05
2.9415e+05
2.9418e+05
2.944e+05
2.9444e+05
2.9465e+05
2.9469e+05
2.9564e+05
2.9568e+05
2.9614e+05
2.9639e+05
2.9643e+05
2.9847e+05
2.9882e+05
2.9931e+05
3.0085e+05
3.2362e+05
3.3609e+05
3.376e+05
3.3791e+05
3.3811e+05
3.3851e+05
3.3853e+05
3.3901e+05
3.3907e+05
3.3951e+05
3.3953e+05
3.4005e+05
3.4038e+05
3.4042e+05
3.4064e+05
3.4088e+05
3.4092e+05
3.4112e+05
3.4116e+05
3.4136e+05
3.4161e+05
3.4165e+05
3.4185e+05
3.4189e+05
3.4211e+05
3.4215e+05
3.4235e+05
3.4239e+05
3.4259e+05
3.4263e+05
3.4284e+05
3.4288e+05
3.4309e+05
3.4313e+05
3.4334e+05
3.4338e+05
3.4358e+05
3.4362e+05
3.4383e+05
3.4387e+05
3.4407e+05
3.4411e+05
3.4433e+05
3.4437e+05
3.4458e+05
3.4462e+05
3.4483e+05
3.4487e+05
3.4508e+05
3.4512e+05
3.4533e+05
3.4537e+05
3.4559e+05
3.4582e+05
3.4585e+05
3.4609e+05
3.4614e+05
3.4634e+05
3.4638e+05
3.4659e+05
3.4663e+05
3.4684e+05
3.4688e+05
3.4709e+05
3.4713e+05
3.4734e+05
3.4738e+05
3.4758e+05
3.4762e+05
3.4784e+05
3.4788e+05
3.4809e+05
3.4813e+05
3.4834e+05
3.4838e+05
3.4858e+05
3.4861e+05
3.4883e+05
3.4887e+05
3.4906e+05
3.4911e+05
3.4932e+05
3.4936e+05
3.4957e+05
3.496e+05
3.4981e+05
3.4985e+05
3.5006e+05
3.501e+05
3.5031e+05
3.5035e+05
3.5056e+05
3.506e+05
3.5082e+05
3.5085e+05
3.5106e+05
3.5109e+05
3.513e+05
3.5134e+05
3.5154e+05
3.5158e+05
3.5179e+05
3.5183e+05
3.5204e+05
3.5208e+05
3.5253e+05
3.5256e+05
3.5303e+05
3.5308e+05
3.5328e+05
3.5331e+05
3.5352e+05
3.5356e+05
3.5376e+05
3.538e+05
3.54e+05
3.5405e+05
3.5425e+05
3.5429e+05
3.5449e+05
3.5453e+05
3.5473e+05
3.5477e+05
3.5497e+05
3.5501e+05
3.5522e+05
3.5526e+05
3.5546e+05
3.555e+05
3.557e+05
3.5574e+05
3.5593e+05
3.5597e+05
3.5618e+05
3.5622e+05
3.5642e+05
3.5646e+05
3.5667e+05
3.5671e+05
3.5691e+05
3.5695e+05
3.5716e+05
3.5719e+05
3.574e+05
3.5744e+05
3.5766e+05
3.577e+05
3.5791e+05
3.5795e+05
3.5816e+05
3.582e+05
3.5841e+05
3.5845e+05
3.5917e+05
3.5921e+05
3.5942e+05
3.5946e+05
3.5966e+05
3.597e+05
3.5991e+05
3.5995e+05
3.6067e+05
3.6071e+05
3.6093e+05
3.6097e+05
3.6117e+05
3.6122e+05
3.6143e+05
3.6148e+05
3.6169e+05
3.6172e+05
3.6194e+05
3.6198e+05
3.6219e+05
3.6223e+05
3.6246e+05
3.625e+05
3.6272e+05
3.6276e+05
3.6297e+05
3.6301e+05
3.6323e+05
3.6327e+05
3.6348e+05
3.6352e+05
3.6374e+05
3.6378e+05
3.6405e+05
3.6474e+05
3.6479e+05
3.6541e+05
3.6582e+05
3.663e+05
3.6635e+05
3.6681e+05
3.6729e+05
3.6758e+05
3.6761e+05
3.6782e+05
3.6786e+05
3.6807e+05
3.6811e+05
3.6831e+05
3.6835e+05
3.6854e+05
3.6882e+05
3.6885e+05
3.6906e+05
3.691e+05
3.693e+05
3.6933e+05
3.6955e+05
3.6959e+05
3.698e+05
3.6984e+05
3.7005e+05
3.7028e+05
3.7032e+05
3.7053e+05
3.7057e+05
3.7075e+05
3.7079e+05
3.7102e+05
3.7107e+05
3.7128e+05
3.7131e+05
3.7177e+05
3.7181e+05
3.7203e+05
3.7207e+05
3.7229e+05
3.7233e+05
3.7253e+05
3.7257e+05
3.7277e+05
3.7282e+05
3.7302e+05
3.7306e+05
3.7327e+05
3.7347e+05
3.7378e+05
3.7382e+05
3.7401e+05
3.7423e+05
3.7452e+05
3.7456e+05
3.7477e+05
3.7481e+05
3.7526e+05
3.7531e+05
3.7547e+05
3.7551e+05
3.7575e+05
3.7655e+05
3.7694e+05
3.7774e+05
3.7816e+05
3.7933e+05
3.7973e+05
3.8056e+05
3.8094e+05
3.8134e+05
3.8179e+05
3.8216e+05
3.8255e+05
3.8296e+05
3.834e+05
3.8377e+05
3.8428e+05
3.8462e+05
3.8545e+05
3.859e+05
3.868e+05
3.8721e+05
3.8803e+05
3.8848e+05
3.8894e+05
3.8983e+05
3.8988e+05
3.9009e+05
3.9013e+05
3.9034e+05
3.9038e+05
3.9059e+05
3.9063e+05
3.9085e+05
3.9088e+05
3.911e+05
3.9113e+05
3.9134e+05
3.9138e+05
3.916e+05
3.9164e+05
3.9185e+05
3.9188e+05
3.9209e+05
3.9212e+05
3.9233e+05
3.9237e+05
3.9258e+05
3.9262e+05
3.9283e+05
3.9287e+05
3.9308e+05
3.9312e+05
3.9333e+05
3.9337e+05
3.9357e+05
3.9361e+05
3.9382e+05
3.9386e+05
3.9408e+05
3.9426e+05
3.9429e+05
3.9454e+05
3.9458e+05
3.948e+05
3.9483e+05
3.9506e+05
3.9509e+05
3.9531e+05
3.9535e+05
3.9557e+05
3.9561e+05
3.9583e+05
3.9586e+05
3.9607e+05
3.9611e+05
3.9633e+05
3.9637e+05
3.9658e+05
3.9662e+05
3.9684e+05
3.9687e+05
3.9797e+05
4.0506e+05
4.0602e+05
4.2498e+05
4.2523e+05
4.3729e+05
4.3733e+05
4.3754e+05
4.3758e+05
4.3796e+05
4.3828e+05
4.3832e+05
4.3871e+05
4.3904e+05
4.3929e+05
4.3933e+05
4.3954e+05
4.3958e+05
4.3979e+05
4.3983e+05
4.4005e+05
4.403e+05
4.4034e+05
4.4054e+05
4.4058e+05
4.408e+05
4.4084e+05
4.4105e+05
4.4109e+05
4.413e+05
4.4134e+05
4.4156e+05
4.418e+05
4.4184e+05
4.4205e+05
4.4208e+05
4.423e+05
4.4234e+05
4.4255e+05
4.4259e+05
4.428e+05
4.4304e+05
4.4308e+05
4.4328e+05
4.4333e+05
4.4353e+05
4.4357e+05
4.4378e+05
4.4382e+05
4.4404e+05
4.4408e+05
4.4433e+05
4.4454e+05
4.4458e+05
4.4479e+05
4.4484e+05
4.4506e+05
4.4509e+05
4.453e+05
4.4534e+05
4.4555e+05
4.4559e+05
4.458e+05
4.4584e+05
4.4605e+05
4.4609e+05
4.463e+05
4.4634e+05
4.4656e+05
4.466e+05
4.4681e+05
4.4685e+05
4.4705e+05
4.4709e+05
4.4732e+05
4.4736e+05
4.4757e+05
4.4761e+05
4.4783e+05
4.4786e+05
4.4807e+05
4.481e+05
4.4833e+05
4.4836e+05
4.4858e+05
4.4861e+05
4.4883e+05
4.4887e+05
4.4908e+05
4.4912e+05
4.4951e+05
4.4984e+05
4.4988e+05
4.501e+05
4.5014e+05
4.5034e+05
4.5038e+05
4.5058e+05
4.5062e+05
4.5083e+05
4.5087e+05
4.5108e+05
4.5133e+05
4.5157e+05
4.5162e+05
4.5199e+05
4.5233e+05
4.5237e+05
4.5258e+05
4.5262e+05
4.53e+05
4.5332e+05
4.5336e+05
4.5358e+05
4.5362e+05
4.54e+05
4.5433e+05
4.5437e+05
4.5459e+05
4.5463e+05
4.5485e+05
4.5524e+05
4.5585e+05
4.5589e+05
4.5611e+05
4.5636e+05
4.564e+05
4.5661e+05
4.5665e+05
4.5686e+05
4.569e+05
4.573e+05
4.5786e+05
4.579e+05
4.5811e+05
4.5815e+05
4.5854e+05
4.5909e+05
4.5913e+05
4.5935e+05
4.5939e+05
4.596e+05
4.5964e+05
4.6002e+05
4.606e+05
4.6064e+05
4.6085e+05
4.6089e+05
4.611e+05
4.6113e+05
4.6135e+05
4.6139e+05
4.616e+05
4.6163e+05
4.6185e+05
4.6189e+05
4.6211e+05
4.6215e+05
4.6236e+05
4.624e+05
4.6261e+05
4.6265e+05
4.6287e+05
4.629e+05
4.6312e+05
4.6316e+05
4.6338e+05
4.6342e+05
4.6379e+05
4.6411e+05
4.6415e+05
4.6437e+05
4.644e+05
4.6461e+05
4.6465e+05
4.6497e+05
4.6542e+05
4.6544e+05
4.6591e+05
4.6592e+05
4.6644e+05
4.6646e+05
4.6696e+05
4.6698e+05
4.6746e+05
4.6748e+05
4.6797e+05
4.6799e+05
4.6848e+05
4.685e+05
4.6898e+05
4.69e+05
4.6949e+05
4.6951e+05
4.7e+05
4.7001e+05
4.7051e+05
4.7053e+05
4.7101e+05
4.7103e+05
4.7151e+05
4.7157e+05
4.72e+05
4.7201e+05
4.7249e+05
4.7255e+05
4.7299e+05
4.7301e+05
4.7348e+05
4.735e+05
4.7399e+05
4.74e+05
4.7444e+05
4.7446e+05
4.7498e+05
4.7499e+05
4.755e+05
4.7551e+05
4.7599e+05
4.7601e+05
4.765e+05
4.7652e+05
4.7698e+05
4.77e+05
4.7749e+05
4.7751e+05
4.7798e+05
4.78e+05
4.7848e+05
4.785e+05
4.7898e+05
4.79e+05
4.7947e+05
4.7949e+05
4.7997e+05
4.7999e+05
4.8048e+05
4.8049e+05
4.8097e+05
4.8099e+05
4.8148e+05
4.815e+05
4.8196e+05
4.8198e+05
4.8246e+05
4.8248e+05
4.8297e+05
4.8298e+05
4.8346e+05
4.8348e+05
4.8398e+05
4.84e+05
4.854e+05
4.8541e+05
4.8591e+05
4.8592e+05
4.8643e+05
4.8645e+05
4.8743e+05
4.8745e+05
4.8793e+05
4.8795e+05
4.8844e+05
4.8846e+05
4.8895e+05
4.8897e+05
4.8944e+05
4.8946e+05
4.8995e+05
4.8997e+05
4.9045e+05
4.9046e+05
4.9095e+05
4.9097e+05
4.9146e+05
4.9148e+05
4.9248e+05
4.925e+05
4.9349e+05
4.9351e+05
4.9399e+05
4.9401e+05
4.9499e+05
4.9506e+05
4.9549e+05
4.9551e+05
4.96e+05
4.9602e+05
4.966e+05
4.9758e+05
4.9807e+05
4.9964e+05
5.0001e+05
5.0049e+05
5.0251e+05
5.0544e+05
5.0688e+05
5.0787e+05
5.0838e+05
5.0935e+05
5.1037e+05
5.1083e+05
5.1132e+05
5.1688e+05
5.1984e+05
5.2006e+05
5.2039e+05
5.2089e+05
5.2139e+05
5.3626e+05
5.365e+05
5.3707e+05
5.3735e+05
5.3761e+05
5.3765e+05
5.3786e+05
5.3789e+05
5.3811e+05
5.3815e+05
5.3836e+05
5.3854e+05
5.3858e+05
5.3891e+05
5.3893e+05
5.396e+05
5.3972e+05
5.401e+05
5.4014e+05
5.4034e+05
5.404e+05
5.4065e+05
5.4084e+05
5.4088e+05
5.4108e+05
5.4113e+05
5.4131e+05
5.4135e+05
5.4156e+05
5.418e+05
5.4184e+05
5.4204e+05
5.4208e+05
5.4228e+05
5.4231e+05
5.4252e+05
5.4275e+05
5.4279e+05
5.4301e+05
5.4305e+05
5.4326e+05
5.4329e+05
5.435e+05
5.4375e+05
5.4379e+05
5.44e+05
5.4404e+05
5.4425e+05
5.4429e+05
5.4449e+05
5.4453e+05
5.4473e+05
5.4498e+05
5.4517e+05
5.4545e+05
5.455e+05
5.4622e+05
5.4626e+05
5.4647e+05
5.4668e+05
5.4697e+05
5.4701e+05
5.472e+05
5.4724e+05
5.4744e+05
5.477e+05
5.4774e+05
5.4795e+05
5.4798e+05
5.482e+05
5.4824e+05
5.4845e+05
5.4849e+05
5.4869e+05
5.4874e+05
5.4894e+05
5.4899e+05
5.492e+05
5.4942e+05
5.4969e+05
5.4973e+05
5.4994e+05
5.5014e+05
5.5044e+05
5.5048e+05
5.5068e+05
5.5087e+05
5.5117e+05
5.5121e+05
5.5198e+05
5.5203e+05
5.5279e+05
5.5284e+05
5.5306e+05
5.531e+05
5.5332e+05
5.5335e+05
5.5358e+05
5.5362e+05
5.5383e+05
5.5387e+05
5.5408e+05
5.5413e+05
5.5433e+05
5.5437e+05
5.5458e+05
5.5462e+05
5.5483e+05
5.5487e+05
5.5508e+05
5.5528e+05
5.5559e+05
5.5563e+05
5.5584e+05
5.5603e+05
5.5636e+05
5.5641e+05
5.5661e+05
5.5678e+05
5.5713e+05
5.5718e+05
5.5792e+05
5.5796e+05
5.5816e+05
5.5835e+05
5.5838e+05
5.5861e+05
5.5903e+05
5.5942e+05
5.5982e+05
5.5987e+05
5.6016e+05
5.6035e+05
5.6071e+05
5.6076e+05
5.6098e+05
5.6118e+05
5.6152e+05
5.6157e+05
5.6177e+05
5.6197e+05
5.6229e+05
5.6234e+05
5.6255e+05
5.6274e+05
5.6304e+05
5.6308e+05
5.6329e+05
5.6349e+05
5.6379e+05
5.6383e+05
5.6403e+05
5.6423e+05
5.6452e+05
5.6457e+05
5.6477e+05
5.6497e+05
5.652e+05
5.6524e+05
5.6549e+05
5.6553e+05
5.6575e+05
5.6579e+05
5.6601e+05
5.6605e+05
5.6626e+05
5.6629e+05
5.665e+05
5.6654e+05
5.6698e+05
5.6702e+05
5.6722e+05
5.6727e+05
5.6748e+05
5.6751e+05
5.6771e+05
5.6775e+05
5.6794e+05
5.6798e+05
5.6819e+05
5.6823e+05
5.6844e+05
5.6848e+05
5.6868e+05
5.6872e+05
5.6891e+05
5.6895e+05
5.6915e+05
5.6919e+05
5.6939e+05
5.6943e+05
5.6963e+05
5.6968e+05
5.6988e+05
5.6992e+05
5.7012e+05
5.7016e+05
5.7036e+05
5.7041e+05
5.7061e+05
5.7066e+05
5.7087e+05
5.7091e+05
5.7111e+05
5.7116e+05
5.7136e+05
5.714e+05
5.7161e+05
5.7164e+05
5.7186e+05
5.719e+05
5.7211e+05
5.7215e+05
5.7235e+05
5.724e+05
5.726e+05
5.7264e+05
5.7285e+05
5.7289e+05
5.731e+05
5.7315e+05
5.7335e+05
5.734e+05
5.7359e+05
5.7364e+05
5.7384e+05
5.7389e+05
5.741e+05
5.7413e+05
5.7462e+05
5.7466e+05
5.7487e+05
5.7491e+05
5.7512e+05
5.7516e+05
5.7539e+05
5.7543e+05
5.7566e+05
5.7588e+05
5.7591e+05
5.7932e+05
5.7936e+05
5.7982e+05
5.7986e+05
5.8007e+05
5.8011e+05
5.8034e+05
5.8037e+05
5.8159e+05
5.8163e+05
5.8184e+05
5.8188e+05
5.8209e+05
5.8213e+05
5.8234e+05
5.8237e+05
5.8259e+05
5.8263e+05
5.8286e+05
5.8289e+05
5.8335e+05
5.8339e+05
5.8385e+05
5.8389e+05
5.841e+05
5.8414e+05
5.8435e+05
5.8439e+05
5.8459e+05
5.8463e+05
5.8483e+05
5.8487e+05
5.8508e+05
5.8512e+05
5.8534e+05
5.8538e+05
5.8559e+05
5.8563e+05
5.8583e+05
5.8587e+05
5.8607e+05
5.8611e+05
5.8632e+05
5.8636e+05
5.8657e+05
5.8661e+05
5.8683e+05
5.8701e+05
5.8705e+05
5.8729e+05
5.8733e+05
5.8807e+05
5.8812e+05
5.8831e+05
5.8836e+05
5.8857e+05
5.8861e+05
5.8881e+05
5.8885e+05
5.8907e+05
5.8911e+05
5.8932e+05
5.8935e+05
5.8956e+05
5.896e+05
5.898e+05
5.8984e+05
5.9006e+05
5.901e+05
5.903e+05
5.9034e+05
5.9055e+05
5.9072e+05
5.9076e+05
5.91e+05
5.9104e+05
5.9176e+05
5.918e+05
5.92e+05
5.9204e+05
5.9224e+05
5.9247e+05
5.925e+05
5.9273e+05
5.9278e+05
5.9298e+05
5.9302e+05
5.9323e+05
5.9327e+05
5.9347e+05
5.9351e+05
5.9371e+05
5.9375e+05
5.9396e+05
5.9401e+05
5.9421e+05
5.9425e+05
5.9445e+05
5.9464e+05
5.9468e+05
5.9493e+05
5.9498e+05
5.9613e+05
5.9638e+05
5.9693e+05
5.9942e+05
6.0093e+05
6.0343e+05
6.0439e+05
6.049e+05
6.0537e+05
6.0588e+05
6.0648e+05
6.0686e+05
6.0784e+05
6.0832e+05
6.0884e+05
6.0934e+05
6.1032e+05
6.1082e+05
6.1192e+05
6.1276e+05
6.133e+05
6.2045e+05
6.2772e+05
6.2871e+05
6.3369e+05
6.3581e+05
6.3585e+05
6.3607e+05
6.3611e+05
6.3631e+05
6.3635e+05
6.3656e+05
6.366e+05
6.3681e+05
6.3685e+05
6.3706e+05
6.371e+05
6.3731e+05
6.3735e+05
6.3755e+05
6.3779e+05
6.3783e+05
6.3805e+05
6.3809e+05
6.383e+05
6.3834e+05
6.3854e+05
6.3858e+05
6.3879e+05
6.3882e+05
6.3905e+05
6.3909e+05
6.3929e+05
6.3933e+05
6.3981e+05
6.3985e+05
6.4006e+05
6.401e+05
6.403e+05
6.4034e+05
6.4056e+05
6.406e+05
6.4082e+05
6.4085e+05
6.4107e+05
6.4111e+05
6.4131e+05
6.4136e+05
6.4157e+05
6.4161e+05
6.4182e+05
6.4187e+05
6.4209e+05
6.4213e+05
6.4234e+05
6.4238e+05
6.4259e+05
6.4263e+05
6.4284e+05
6.4288e+05
6.431e+05
6.4315e+05
6.4336e+05
6.434e+05
6.436e+05
6.4364e+05
6.4385e+05
6.4389e+05
6.441e+05
6.4414e+05
6.4436e+05
6.444e+05
6.4461e+05
6.4465e+05
6.4486e+05
6.449e+05
6.451e+05
6.4515e+05
6.4536e+05
6.4539e+05
6.4561e+05
6.4565e+05
6.4611e+05
6.4615e+05
6.4687e+05
6.4692e+05
6.4764e+05
6.4769e+05
6.479e+05
6.4794e+05
6.4816e+05
6.4819e+05
6.4841e+05
6.4844e+05
6.4866e+05
6.487e+05
6.4891e+05
6.4895e+05
6.4917e+05
6.4921e+05
6.4942e+05
6.4946e+05
6.4967e+05
6.4971e+05
