76
376
666
998
1306
1597
1877
2167
2446
2735
3035
3343
3638
3932
4219
4454
4728
5009
5375
5549
6025
6548
6754
7099
7768
7916
8342
8839
9445
9596
10047
10602
10788
11112
11331
11723
11894
12336
12615
12913
13229
13479
13865
14167
14502
14832
15131
15411
15703
16030
16405
16758
17071
17337
17625
17926
18287
18598
19061
19353
19639
20682
21051
21377
21621
21944
22253
22554
22807
23217
23544
23837
24377
24607
25052
25356
25676
25932
26246
26529
26822
27159
27494
27826
28114
28394
28680
28976
29291
29598
30156
30477
30771
31068
31367
31673
31884
32235
32409
32834
33125
33421
33617
34017
34633
35194
35380
35872
36538
36756
37080
37813
38530
39080
39300
39766
40246
40521
41154
41495
41901
42349
42697
42984
43323
43635
43950
44396
44744
45049
45357
45668
45993
46560
47015
47168
47587
47807
48197
48482
49133
49461
49738
50017
50313
50927
51253
51556
51797
52418
52570
53053
53660
53955
54202
54877
55198
55505
55814
56128
56323
56654
56941
57255
57547
58110
58403
58823
59266
59601
59930
60214
60469
60685
60746
61727
62092
62374
62615
62927
63238
63601
63933
64273
64542
64839
65156
65512
65777
66206
66536
66861
67155
67435
67799
68122
68476
68806
69079
69359
69594
69996
70689
70999
71285
71557
71853
72151
72390
72813
73118
73404
73676
73969
74287
74633
75291
75545
75856
76143
76480
76817
77153
77451
77760
78336
78520
78937
79248
79544
79758
80073
80354
80659
80979
81951
82221
82753
82999
83455
83757
84066
84372
84669
85346
85620
85966
86227
86813
87119
87460
87793
88133
88520
88822
89128
89454
89815
90147
90871
91160
91475
91796
92121
92826
93101
93423
93712
93987
94334
94641
94900
95226
95514
95752
96146
96453
96714
97007
97290
97611
97924
98246
98541
99143
1.0025e+05
1.2459e+05
1.2516e+05
1.263e+05
1.816e+05
1.9221e+05
2.9806e+05
2.9834e+05
2.9863e+05
2.9916e+05
2.9953e+05
2.9988e+05
3.089e+05
3.1195e+05
3.38e+05
3.3838e+05
3.3873e+05
3.3906e+05
3.3936e+05
3.3963e+05
3.3998e+05
3.4033e+05
3.4068e+05
3.41e+05
3.4131e+05
3.4224e+05
3.4262e+05
3.4295e+05
3.4326e+05
3.4416e+05
3.4482e+05
3.4515e+05
3.4548e+05
3.4579e+05
3.4607e+05
3.4637e+05
3.4693e+05
3.4734e+05
3.4765e+05
3.4794e+05
3.4823e+05
3.4854e+05
3.5239e+05
3.5302e+05
3.561e+05
3.564e+05
3.5701e+05
3.573e+05
3.5765e+05
3.5837e+05
3.5865e+05
3.5962e+05
3.5994e+05
3.606e+05
3.6091e+05
3.6156e+05
3.6189e+05
3.6258e+05
3.629e+05
3.6351e+05
3.6417e+05
3.6517e+05
3.6682e+05
3.6716e+05
3.6745e+05
3.6846e+05
3.691e+05
3.6943e+05
3.7072e+05
3.7154e+05
3.9748e+05
3.9777e+05
3.9807e+05
3.9843e+05
3.9869e+05
3.9913e+05
3.9942e+05
3.9973e+05
4.0003e+05
4.0036e+05
4.0077e+05
4.013e+05
4.0183e+05
4.0235e+05
4.0924e+05
4.3629e+05
4.3688e+05
4.3721e+05
4.3877e+05
4.3913e+05
4.3943e+05
4.3973e+05
4.4009e+05
4.403e+05
4.4069e+05
4.4105e+05
4.4133e+05
4.4154e+05
4.4236e+05
4.4276e+05
4.5443e+05
4.6449e+05
4.6503e+05
4.7117e+05
4.7184e+05
4.7433e+05
4.778e+05
4.7845e+05
4.7911e+05
4.8216e+05
4.9654e+05
4.9685e+05
4.9713e+05
4.9785e+05
4.9821e+05
4.9854e+05
4.9884e+05
4.9909e+05
4.9942e+05
4.9974e+05
5.001e+05
5.0044e+05
5.007e+05
5.0097e+05
5.0131e+05
5.0165e+05
5.0198e+05
5.0228e+05
5.0264e+05
5.0295e+05
5.031e+05
5.0352e+05
5.0385e+05
5.0449e+05
5.0483e+05
5.0516e+05
5.0542e+05
5.0595e+05
5.0618e+05
5.0669e+05
5.0685e+05
5.0733e+05
5.0751e+05
5.0804e+05
5.0999e+05
5.1127e+05
5.1251e+05
5.1328e+05
5.1396e+05
5.1459e+05
5.152e+05
5.1608e+05
5.1667e+05
5.1742e+05
5.1814e+05
5.1875e+05
5.2081e+05
5.2154e+05
5.2219e+05
5.228e+05
5.2343e+05
5.2414e+05
5.2475e+05
5.2531e+05
5.2594e+05
5.2783e+05
5.3038e+05
5.3219e+05
5.3339e+05
5.3823e+05
5.4192e+05
5.4245e+05
5.5886e+05
5.5949e+05
5.638e+05
5.6546e+05
5.7907e+05
5.8101e+05
5.8159e+05
5.8224e+05
5.8351e+05
5.8605e+05
5.8673e+05
5.9192e+05
5.9569e+05
5.9597e+05
5.9627e+05
5.9656e+05
5.9682e+05
5.9716e+05
5.9782e+05
5.9837e+05
5.9866e+05
5.9895e+05
5.9929e+05
5.9995e+05
6.0051e+05
6.0085e+05
6.0117e+05
6.015e+05
6.0174e+05
6.0215e+05
6.0276e+05
6.0306e+05
6.0337e+05
6.0369e+05
6.0433e+05
6.0454e+05
6.0494e+05
6.0512e+05
6.1141e+05
6.1334e+05
6.2254e+05
6.2475e+05
6.3211e+05
6.3358e+05
6.391e+05
6.4207e+05
-1
302
515
821
1237
1454
1527
1810
2102
2372
2580
2676
2871
2957
3492
3571
3777
3874
4150
4356
4625
4902
4973
5195
5492
5677
5870
6176
6360
6660
6889
7292
7492
7852
8095
8418
8645
9020
9193
9581
9786
10115
10371
10743
10903
11279
11468
11826
12067
12504
12797
13094
13373
13669
13995
14337
14437
14667
14771
15068
15275
15355
15628
15806
16259
16581
16854
17279
17565
17828
18086
18205
18483
18779
19207
19488
19778
20019
20227
20332
20863
21217
21308
21580
21873
22065
22181
22396
22506
22705
22972
23098
23482
23690
23765
23910
24202
24521
24783
25287
25512
25603
25818
26178
26465
26665
26758
26970
27075
27647
27752
28045
28334
28537
28615
29123
29220
29527
29748
29970
30412
30666
31005
31287
31769
32009
32376
32600
33051
33261
33356
33526
33851
34210
34403
34770
34974
35329
35579
36045
36262
36699
36870
37272
37507
37985
38239
38320
38683
38879
39225
39476
39959
40195
40448
40671
40913
41325
41675
42138
42510
42861
43166
43250
43573
43810
44189
44575
44665
44893
44977
45204
45285
45602
45826
45926
46139
46252
46502
46728
46863
47118
47430
47729
47971
48406
48791
48987
49096
49368
49599
49673
49869
49959
50250
50538
50770
50869
51389
51484
51704
51962
52151
52515
52759
53177
53393
53812
53898
54076
54379
54598
55033
55346
55645
55968
56259
56454
56837
57104
57396
57469
57697
57899
58260
58546
59001
59419
59538
59842
60073
60164
60350
60634
60940
61208
61383
61595
61889
62209
62862
63063
63418
63767
63874
64056
64419
64730
64745
65002
65089
65324
65431
65668
65954
66471
66698
67004
67346
67717
67972
68062
68413
68650
68955
69265
69529
69761
69858
70165
70273
70510
70604
70931
71147
71410
71504
71678
71689
72053
72296
72558
72652
73047
73337
73532
73614
73897
74127
74211
74446
74534
74812
75061
75782
75995
76081
76295
76390
76636
76734
77049
77315
77599
77862
77892
78082
78133
78455
78635
78731
79391
79493
79644
79888
80279
80513
80874
81134
81246
81487
81603
81809
82087
82353
82534
82875
83158
83612
83944
84018
84273
84587
84818
85064
85476
85550
85791
86109
86172
86398
86472
86726
87037
87265
87395
87626
87717
87950
88336
88665
88966
89376
89619
89732
90044
90316
90409
90610
91106
91317
91364
91616
91632
91972
92091
92396
92647
92773
92988
93571
93654
93864
94168
94254
94496
94584
94832
95071
95160
95369
95446
95666
95903
95991
96283
96300
96675
97164
97468
97553
97761
98068
98394
98757
99057
99244
99778
99929
1.0046e+05
1.0572e+05
1.059e+05
1.097e+05
1.0981e+05
1.1025e+05
1.1046e+05
1.2357e+05
1.2378e+05
1.2417e+05
1.2483e+05
1.2534e+05
1.2554e+05
1.2601e+05
1.265e+05
1.2659e+05
1.2714e+05
1.2734e+05
1.2782e+05
1.2828e+05
1.285e+05
1.2907e+05
1.2916e+05
1.2982e+05
1.3045e+05
1.312e+05
1.3178e+05
1.3198e+05
1.3239e+05
1.3254e+05
1.3318e+05
1.3377e+05
1.339e+05
1.3441e+05
1.3461e+05
1.3519e+05
1.358e+05
1.3593e+05
1.3652e+05
1.3715e+05
1.3771e+05
1.3781e+05
1.3837e+05
1.3851e+05
1.3894e+05
1.3912e+05
1.3955e+05
1.397e+05
1.402e+05
1.4034e+05
1.4078e+05
1.414e+05
1.4152e+05
1.4204e+05
1.4212e+05
1.4266e+05
1.4286e+05
1.4325e+05
1.4338e+05
1.4386e+05
1.4402e+05
1.4451e+05
1.4468e+05
1.4509e+05
1.4519e+05
1.4567e+05
1.4584e+05
1.463e+05
1.4693e+05
1.4715e+05
1.475e+05
1.4815e+05
1.4875e+05
1.4933e+05
1.4954e+05
1.4993e+05
1.5009e+05
1.5052e+05
1.5068e+05
1.5117e+05
1.5177e+05
1.5238e+05
1.5307e+05
1.5368e+05
1.5389e+05
1.5427e+05
1.5495e+05
1.5514e+05
1.5903e+05
1.5924e+05
1.5963e+05
1.615e+05
1.6167e+05
1.6332e+05
1.6725e+05
1.6749e+05
1.6954e+05
1.7503e+05
1.7523e+05
1.7571e+05
1.7637e+05
1.7702e+05
1.7714e+05
1.7767e+05
1.779e+05
1.7846e+05
1.7858e+05
1.7918e+05
1.7976e+05
1.7991e+05
1.8048e+05
1.807e+05
1.8118e+05
1.8176e+05
1.8189e+05
1.8252e+05
1.8321e+05
1.8331e+05
1.8377e+05
1.8392e+05
1.8442e+05
1.8457e+05
1.8512e+05
1.8576e+05
1.8637e+05
1.865e+05
1.8705e+05
1.8714e+05
1.8768e+05
1.8827e+05
1.8836e+05
1.9237e+05
1.9641e+05
1.9655e+05
1.9888e+05
2.0184e+05
2.0203e+05
2.0386e+05
2.0473e+05
2.0491e+05
2.0743e+05
2.0752e+05
2.0784e+05
2.0895e+05
2.0911e+05
2.096e+05
2.0977e+05
2.1117e+05
2.1335e+05
2.1451e+05
2.1532e+05
2.154e+05
2.1566e+05
2.1606e+05
2.1665e+05
2.1672e+05
2.1875e+05
2.2431e+05
2.2451e+05
2.2772e+05
2.3872e+05
2.3881e+05
2.3905e+05
2.3913e+05
2.3937e+05
2.3969e+05
2.4012e+05
2.4072e+05
2.4097e+05
2.4128e+05
2.417e+05
2.4193e+05
2.4235e+05
2.4296e+05
2.432e+05
2.433e+05
2.4365e+05
2.4428e+05
2.4492e+05
2.456e+05
2.4641e+05
2.4682e+05
2.4706e+05
2.4748e+05
2.4771e+05
2.4801e+05
2.4832e+05
2.4841e+05
2.4864e+05
2.4895e+05
2.4934e+05
2.4958e+05
2.4966e+05
2.5007e+05
2.5011e+05
2.5096e+05
2.5158e+05
2.528e+05
2.5342e+05
2.5406e+05
2.5466e+05
2.5509e+05
2.5532e+05
2.5599e+05
2.5661e+05
2.5675e+05
2.5721e+05
2.578e+05
2.6178e+05
2.7555e+05
2.7626e+05
2.7638e+05
2.7684e+05
2.7704e+05
2.7751e+05
2.7821e+05
2.7832e+05
2.7884e+05
2.7945e+05
2.7961e+05
2.8009e+05
2.809e+05
2.8134e+05
2.8146e+05
2.8196e+05
2.8212e+05
2.8266e+05
2.8272e+05
2.8324e+05
2.8524e+05
2.8584e+05
2.8653e+05
2.9819e+05
2.9848e+05
2.9877e+05
2.9908e+05
2.993e+05
2.9972e+05
2.998e+05
3.0012e+05
3.0905e+05
3.1207e+05
3.1922e+05
3.3049e+05
3.383e+05
3.3864e+05
3.3897e+05
3.3921e+05
3.3951e+05
3.3959e+05
3.3982e+05
3.4022e+05
3.4057e+05
3.4084e+05
3.4116e+05
3.4123e+05
3.414e+05
3.4161e+05
3.4253e+05
3.4278e+05
3.4287e+05
3.4309e+05
3.4317e+05
3.4348e+05
3.4361e+05
3.4431e+05
3.4448e+05
3.4506e+05
3.4531e+05
3.4562e+05
3.457e+05
3.4593e+05
3.4622e+05
3.4653e+05
3.4669e+05
3.4712e+05
3.475e+05
3.4779e+05
3.4808e+05
3.4816e+05
3.4838e+05
3.487e+05
3.4886e+05
3.5254e+05
3.5271e+05
3.5318e+05
3.5335e+05
3.5625e+05
3.5633e+05
3.5675e+05
3.5716e+05
3.5725e+05
3.5759e+05
3.5794e+05
3.585e+05
3.588e+05
3.5903e+05
3.5977e+05
3.5987e+05
3.6011e+05
3.6029e+05
3.6075e+05
3.6084e+05
3.6106e+05
3.6124e+05
3.6173e+05
3.6181e+05
3.6204e+05
3.6221e+05
3.6274e+05
3.63e+05
3.632e+05
3.6368e+05
3.6385e+05
3.6433e+05
3.6451e+05
3.6526e+05
3.6549e+05
3.6698e+05
3.673e+05
3.6769e+05
3.6861e+05
3.6877e+05
3.6927e+05
3.6958e+05
3.6974e+05
3.7044e+05
3.7082e+05
3.7105e+05
3.7169e+05
3.9722e+05
3.9762e+05
3.9769e+05
3.9792e+05
3.9802e+05
3.9826e+05
3.9859e+05
3.9883e+05
3.9929e+05
3.9961e+05
3.9987e+05
4.0013e+05
4.0025e+05
4.0056e+05
4.0095e+05
4.0161e+05
4.02e+05
4.0225e+05
4.0253e+05
4.0944e+05
4.152e+05
4.1832e+05
4.3655e+05
4.3665e+05
4.3702e+05
4.3716e+05
4.3896e+05
4.3904e+05
4.3928e+05
4.3935e+05
4.3965e+05
4.3988e+05
4.4021e+05
4.4043e+05
4.409e+05
4.4119e+05
4.4145e+05
4.4169e+05
4.426e+05
4.4303e+05
4.4436e+05
4.445e+05
4.4724e+05
4.4909e+05
4.5459e+05
4.5521e+05
4.6463e+05
4.6482e+05
4.6524e+05
4.6542e+05
4.6601e+05
4.7082e+05
4.7135e+05
4.7209e+05
4.7452e+05
4.7462e+05
4.7806e+05
4.7862e+05
4.788e+05
4.7926e+05
4.7942e+05
4.8231e+05
4.8251e+05
4.9669e+05
4.9699e+05
4.9705e+05
4.9728e+05
4.9739e+05
4.9774e+05
4.9803e+05
4.9812e+05
4.9844e+05
4.9869e+05
4.9876e+05
4.9898e+05
4.9906e+05
4.9926e+05
4.9956e+05
4.9966e+05
4.9992e+05
5.0003e+05
5.0034e+05
5.0059e+05
5.0084e+05
5.012e+05
5.0157e+05
5.0181e+05
5.0191e+05
5.0214e+05
5.0247e+05
5.0255e+05
5.0278e+05
5.0286e+05
5.0305e+05
5.0329e+05
5.0368e+05
5.0399e+05
5.0422e+05
5.0464e+05
5.0473e+05
5.0508e+05
5.0531e+05
5.0554e+05
5.0574e+05
5.061e+05
5.0634e+05
5.0679e+05
5.0706e+05
5.072e+05
5.0742e+05
5.0763e+05
5.0823e+05
5.0892e+05
5.0954e+05
5.1011e+05
5.1076e+05
5.1146e+05
5.1209e+05
5.1228e+05
5.1269e+05
5.1287e+05
5.1342e+05
5.1358e+05
5.1424e+05
5.1469e+05
5.1489e+05
5.1543e+05
5.1628e+05
5.1682e+05
5.1704e+05
5.1752e+05
5.1764e+05
5.1833e+05
5.1895e+05
5.191e+05
5.1966e+05
5.1983e+05
5.2037e+05
5.2054e+05
5.2099e+05
5.2115e+05
5.2166e+05
5.2183e+05
5.2235e+05
5.2299e+05
5.2315e+05
5.2376e+05
5.2424e+05
5.2447e+05
5.2488e+05
5.2505e+05
5.2563e+05
5.2627e+05
5.2798e+05
5.2817e+05
5.3066e+05
5.3247e+05
5.3355e+05
5.3364e+05
5.3412e+05
5.3834e+05
5.3852e+05
5.4215e+05
5.4261e+05
5.4278e+05
5.5903e+05
5.5965e+05
5.6393e+05
5.6558e+05
5.6713e+05
5.7863e+05
5.7924e+05
5.8117e+05
5.8176e+05
5.8242e+05
5.8311e+05
5.8328e+05
5.8366e+05
5.8374e+05
5.8436e+05
5.8637e+05
5.8694e+05
5.8708e+05
5.9207e+05
5.9611e+05
5.9618e+05
5.9642e+05
5.967e+05
5.97e+05
5.973e+05
5.9749e+05
5.9792e+05
5.9814e+05
5.9854e+05
5.9861e+05
5.9884e+05
5.9911e+05
5.9944e+05
5.9965e+05
6.0007e+05
6.003e+05
6.0069e+05
6.01e+05
6.0108e+05
6.014e+05
6.0165e+05
6.0199e+05
6.0224e+05
6.025e+05
6.029e+05
6.032e+05
6.0351e+05
6.0378e+05
6.04e+05
6.0419e+05
6.0446e+05
6.0468e+05
6.0486e+05
6.0507e+05
6.0527e+05
6.1033e+05
6.1095e+05
6.1157e+05
6.1219e+05
6.1282e+05
6.1347e+05
6.2268e+05
6.2493e+05
6.2507e+05
6.3229e+05
6.3238e+05
6.3378e+05
6.3928e+05
6.3949e+05
6.4168e+05
6.4182e+05
6.4223e+05
6.4287e+05
6.4297e+05
