287
557
821
1097
1339
1600
1865
2143
2403
2664
2923
3125
3439
3704
3961
4236
4782
5055
5329
5603
5865
6135
6401
6673
6944
7205
7462
7695
7964
8212
8462
8721
8995
9270
10094
10358
10660
10931
11200
11475
11743
12017
12300
12582
12863
13149
13445
13723
13993
14270
14550
14816
15091
15374
15649
15924
16211
16512
16809
17105
17395
17671
17947
18221
18501
18793
19078
19356
19633
19921
20213
20504
20776
21054
21339
21630
21941
22243
22540
22837
23142
23437
23720
24000
24290
24592
24887
25187
25487
25772
26033
26294
26564
26826
27103
27389
27683
27977
28274
28576
28864
29156
29438
29725
30026
30325
30613
30894
31167
31438
31731
32024
32318
32614
32921
33232
33525
33813
34098
34381
34663
34925
35254
35564
35888
36203
36536
36830
37125
37419
37707
37997
38296
38608
38919
39208
39493
39776
40064
40345
40622
40906
41179
41470
41770
42079
42379
42685
43005
43312
43611
43888
44162
44426
44697
44974
45237
45509
45779
46052
46331
46609
46885
47217
47545
47870
48188
48486
48780
49075
49365
49650
49936
50209
50488
50779
51065
51359
51656
51944
52169
52532
52834
53115
53399
53672
53951
54210
54482
54756
55028
55320
55607
55895
56172
56446
56709
56974
57505
57776
58056
58329
58602
58882
59177
59460
59732
59983
60229
60474
60710
60953
61198
61444
61694
61960
62192
62450
62705
63206
63445
63697
63939
64180
64669
64910
65146
65376
65606
65864
66066
66309
66502
66954
67220
67456
67737
68017
68293
68550
68803
69048
69273
69532
69729
69960
70192
70412
70680
70940
71204
71463
71723
71997
72266
72523
72786
73032
73304
73535
73785
74049
74323
74581
74845
75103
75367
75636
75895
76156
76419
76678
76927
77205
77425
77662
78365
78603
78839
79086
79334
79560
79837
80101
80362
80612
80875
81116
81370
81616
81853
82098
82335
82564
82791
83027
83277
83527
84043
84302
84534
84787
85040
85283
85525
85744
86019
86276
86542
86792
87040
87291
87540
87783
88029
88276
88492
88772
89021
89265
89531
89801
90321
90606
90833
91114
91363
91623
91896
92169
92429
92682
92939
93200
93463
93736
94000
94248
94501
94765
95064
95371
95696
95989
96248
96550
97052
97316
97570
97798
98054
98299
98534
98757
99282
99528
1e+05
1.0025e+05
1.005e+05
1.0076e+05
1.0103e+05
1.0159e+05
1.0182e+05
1.0207e+05
1.0237e+05
1.0263e+05
1.0293e+05
1.0327e+05
1.0359e+05
1.0392e+05
1.0425e+05
1.046e+05
1.0497e+05
1.0531e+05
1.0559e+05
1.059e+05
1.0625e+05
1.0659e+05
1.0695e+05
1.073e+05
1.0765e+05
1.0799e+05
1.0833e+05
1.0866e+05
1.0899e+05
1.0934e+05
1.0969e+05
1.1005e+05
1.1038e+05
1.1069e+05
1.1102e+05
1.1135e+05
1.117e+05
1.1203e+05
1.1234e+05
1.1269e+05
1.1303e+05
1.1337e+05
1.1372e+05
1.1402e+05
1.1432e+05
1.1465e+05
1.1499e+05
1.153e+05
1.1563e+05
1.16e+05
1.1635e+05
1.1667e+05
1.1701e+05
1.1736e+05
1.177e+05
1.1802e+05
1.1836e+05
1.187e+05
1.1906e+05
1.1943e+05
1.1977e+05
1.2011e+05
1.2046e+05
1.208e+05
1.2114e+05
1.215e+05
1.2184e+05
1.2219e+05
1.2254e+05
1.2287e+05
1.2318e+05
1.235e+05
1.2385e+05
1.2416e+05
1.2448e+05
1.2481e+05
1.251e+05
1.2541e+05
1.2576e+05
1.2609e+05
1.2641e+05
1.2671e+05
1.2703e+05
1.2733e+05
1.2767e+05
1.2805e+05
1.2838e+05
1.2873e+05
1.2904e+05
1.2934e+05
1.2962e+05
1.2991e+05
1.302e+05
1.3051e+05
1.3086e+05
1.3121e+05
1.3156e+05
1.3187e+05
1.3219e+05
1.3248e+05
1.3277e+05
1.3308e+05
1.3341e+05
1.3376e+05
1.341e+05
1.3448e+05
1.3483e+05
1.3518e+05
1.3553e+05
1.3587e+05
1.362e+05
1.3652e+05
1.3685e+05
1.372e+05
1.3753e+05
1.3786e+05
1.3821e+05
1.3856e+05
1.3891e+05
1.3926e+05
1.3992e+05
1.4022e+05
1.4052e+05
1.4084e+05
1.4116e+05
1.415e+05
1.4183e+05
1.4254e+05
1.4288e+05
1.4322e+05
1.4357e+05
1.4394e+05
1.443e+05
1.4464e+05
1.4568e+05
1.4603e+05
1.464e+05
1.471e+05
1.4744e+05
1.4776e+05
1.4808e+05
1.4841e+05
1.4877e+05
1.4909e+05
1.4943e+05
1.4974e+05
1.5006e+05
1.5039e+05
1.5072e+05
1.5104e+05
1.5137e+05
1.5172e+05
1.5206e+05
1.5271e+05
1.5303e+05
1.5334e+05
1.5368e+05
1.5404e+05
1.5477e+05
1.551e+05
1.5542e+05
1.5575e+05
1.5608e+05
1.5638e+05
1.5667e+05
1.5698e+05
1.6023e+05
1.6117e+05
1.6145e+05
1.6173e+05
1.6202e+05
1.6233e+05
1.6267e+05
1.6297e+05
1.633e+05
1.6363e+05
1.6393e+05
1.6422e+05
1.645e+05
1.6478e+05
1.6603e+05
1.6634e+05
1.679e+05
1.6885e+05
1.6915e+05
1.6946e+05
1.7043e+05
1.7073e+05
1.7103e+05
1.7201e+05
1.7233e+05
1.7265e+05
1.7401e+05
1.7433e+05
1.7464e+05
1.7525e+05
1.7557e+05
1.7624e+05
1.766e+05
1.7696e+05
1.7729e+05
1.776e+05
1.7791e+05
1.7823e+05
1.7858e+05
1.7892e+05
1.7927e+05
1.7958e+05
1.799e+05
1.8021e+05
1.8054e+05
1.8386e+05
1.8419e+05
1.8452e+05
1.8515e+05
1.8546e+05
1.8574e+05
1.8601e+05
1.8631e+05
1.8663e+05
1.8729e+05
1.8763e+05
1.8794e+05
1.8827e+05
1.8922e+05
1.8953e+05
1.8989e+05
1.902e+05
1.9055e+05
1.9119e+05
1.9152e+05
1.9254e+05
1.9287e+05
1.932e+05
1.9387e+05
1.9454e+05
1.9487e+05
1.952e+05
1.9589e+05
1.9624e+05
1.9657e+05
1.969e+05
1.9723e+05
1.986e+05
1.9885e+05
2.0008e+05
2.0041e+05
2.0074e+05
2.017e+05
2.0264e+05
2.0303e+05
2.033e+05
2.0361e+05
2.0392e+05
2.0423e+05
2.0458e+05
2.0486e+05
2.052e+05
2.0561e+05
2.0694e+05
2.0729e+05
2.1326e+05
2.1415e+05
2.1575e+05
2.2292e+05
2.2574e+05
2.2834e+05
2.3407e+05
2.3669e+05
2.3701e+05
2.3856e+05
2.3891e+05
2.3923e+05
2.3955e+05
2.3988e+05
2.4019e+05
2.4049e+05
2.408e+05
2.4112e+05
2.4144e+05
2.4176e+05
2.4207e+05
2.4238e+05
2.4269e+05
2.4301e+05
2.4331e+05
2.4361e+05
2.4392e+05
2.4422e+05
2.4451e+05
2.448e+05
2.4511e+05
2.4542e+05
2.4574e+05
2.4605e+05
2.4665e+05
2.4695e+05
2.4725e+05
2.4754e+05
2.4784e+05
2.4816e+05
2.4851e+05
2.4883e+05
2.4916e+05
2.4984e+05
2.5018e+05
2.5082e+05
2.5113e+05
2.5381e+05
2.5411e+05
2.5442e+05
2.5472e+05
2.5504e+05
2.5536e+05
2.5568e+05
2.5601e+05
2.5631e+05
2.5663e+05
2.5695e+05
2.5726e+05
2.5756e+05
2.5787e+05
2.5818e+05
2.5848e+05
2.5976e+05
2.6007e+05
2.6036e+05
2.6065e+05
2.6314e+05
2.6346e+05
2.6377e+05
2.6408e+05
2.6467e+05
2.6498e+05
2.6529e+05
2.6591e+05
2.662e+05
2.6648e+05
2.6677e+05
2.6735e+05
2.6763e+05
2.6792e+05
2.6822e+05
2.6853e+05
2.7004e+05
2.7034e+05
2.7094e+05
2.7126e+05
2.716e+05
2.7262e+05
2.7292e+05
2.7322e+05
2.7352e+05
2.7383e+05
2.7765e+05
2.7798e+05
2.7831e+05
2.7863e+05
2.7895e+05
2.7925e+05
2.7955e+05
2.7987e+05
2.8051e+05
2.8082e+05
2.8115e+05
2.821e+05
2.8368e+05
2.8399e+05
2.8432e+05
2.8464e+05
2.8495e+05
2.8654e+05
2.8684e+05
2.8712e+05
2.8743e+05
2.8775e+05
2.8807e+05
2.8841e+05
2.8872e+05
2.8904e+05
2.8938e+05
2.8971e+05
2.9002e+05
2.9034e+05
2.9066e+05
2.9099e+05
2.9131e+05
2.9162e+05
2.9191e+05
2.9219e+05
2.9248e+05
2.9279e+05
2.9376e+05
2.9407e+05
2.9439e+05
2.9471e+05
2.9835e+05
2.9932e+05
3.0055e+05
3.0177e+05
3.024e+05
3.0297e+05
3.0419e+05
3.0567e+05
3.261e+05
3.9752e+05
3.9778e+05
3.9821e+05
3.9846e+05
3.9876e+05
3.9931e+05
3.9981e+05
4.0005e+05
4.0106e+05
4.016e+05
4.0214e+05
4.0241e+05
4.0394e+05
4.0416e+05
4.0437e+05
4.0466e+05
4.049e+05
4.0517e+05
4.057e+05
4.0597e+05
4.0652e+05
4.0703e+05
4.0771e+05
4.0795e+05
4.0818e+05
4.0841e+05
4.0886e+05
4.1453e+05
4.3704e+05
4.3733e+05
4.3763e+05
4.3792e+05
4.3822e+05
4.3854e+05
4.3885e+05
4.3915e+05
4.3945e+05
4.3976e+05
4.4006e+05
4.4096e+05
4.4125e+05
4.4185e+05
4.427e+05
4.4297e+05
4.4324e+05
4.4351e+05
4.438e+05
4.4408e+05
4.4437e+05
4.4467e+05
4.4497e+05
4.4527e+05
4.4557e+05
4.4587e+05
4.4615e+05
4.4643e+05
4.467e+05
4.4698e+05
4.4727e+05
4.4756e+05
4.4847e+05
4.4877e+05
4.4907e+05
4.4936e+05
4.4965e+05
4.4994e+05
4.5024e+05
4.5054e+05
4.5084e+05
4.5145e+05
4.5177e+05
4.5209e+05
4.5242e+05
4.5273e+05
4.5303e+05
4.5334e+05
4.5365e+05
4.5394e+05
4.5423e+05
4.5453e+05
4.548e+05
4.5507e+05
4.5536e+05
4.5563e+05
4.5612e+05
4.5638e+05
4.5664e+05
4.5692e+05
4.572e+05
4.5997e+05
4.6077e+05
4.6104e+05
4.6163e+05
4.6192e+05
4.6221e+05
4.6277e+05
4.6672e+05
4.6702e+05
4.6733e+05
4.6763e+05
4.6849e+05
4.6956e+05
4.7013e+05
4.7495e+05
4.7632e+05
4.769e+05
4.7718e+05
4.7747e+05
4.7775e+05
4.7803e+05
4.7831e+05
4.7859e+05
4.7915e+05
4.7999e+05
4.8055e+05
4.8113e+05
4.8332e+05
4.8673e+05
4.9116e+05
4.9202e+05
4.9316e+05
4.9343e+05
4.9397e+05
4.9426e+05
4.9596e+05
4.9672e+05
4.9702e+05
4.9721e+05
4.9774e+05
4.9798e+05
4.9831e+05
4.9859e+05
4.9887e+05
4.9918e+05
4.9947e+05
4.9975e+05
5.0006e+05
5.0035e+05
5.0059e+05
5.008e+05
5.0125e+05
5.0151e+05
5.0178e+05
5.0201e+05
5.0311e+05
5.039e+05
5.0445e+05
5.0601e+05
5.0677e+05
5.0728e+05
5.0753e+05
5.0775e+05
5.0834e+05
5.1172e+05
5.1586e+05
5.1767e+05
5.2378e+05
5.2407e+05
5.2435e+05
5.2463e+05
5.2546e+05
5.2637e+05
5.3657e+05
5.3685e+05
5.3715e+05
5.3743e+05
5.3771e+05
5.3799e+05
5.3829e+05
5.3856e+05
5.3883e+05
5.3909e+05
5.3937e+05
5.3967e+05
5.3991e+05
5.4018e+05
5.4072e+05
5.4097e+05
5.4126e+05
5.4154e+05
5.4182e+05
5.421e+05
5.4347e+05
5.4374e+05
5.4402e+05
5.4523e+05
5.4552e+05
5.4582e+05
5.4606e+05
5.4632e+05
5.466e+05
5.4719e+05
5.4749e+05
5.4778e+05
5.4811e+05
5.4838e+05
5.4869e+05
5.4897e+05
5.4924e+05
5.4949e+05
5.4977e+05
5.4999e+05
5.5026e+05
5.5049e+05
5.5077e+05
5.5108e+05
5.5135e+05
5.5162e+05
5.5188e+05
5.5217e+05
5.5243e+05
5.5272e+05
5.5301e+05
5.533e+05
5.5463e+05
5.5519e+05
5.5543e+05
5.5629e+05
5.5743e+05
5.577e+05
5.5981e+05
5.616e+05
5.6216e+05
5.6243e+05
5.6268e+05
5.6292e+05
5.6316e+05
5.6338e+05
5.6362e+05
5.6386e+05
5.6411e+05
5.6437e+05
5.6849e+05
5.6878e+05
5.6936e+05
5.6992e+05
5.707e+05
5.7099e+05
5.7126e+05
5.7258e+05
5.7285e+05
5.7369e+05
5.7424e+05
5.7452e+05
5.7478e+05
5.7505e+05
5.7531e+05
5.7557e+05
5.7609e+05
5.7636e+05
5.7715e+05
5.7792e+05
5.7818e+05
5.8699e+05
5.8726e+05
5.8746e+05
5.877e+05
5.8792e+05
5.8819e+05
5.9117e+05
5.9141e+05
5.9193e+05
5.9572e+05
5.9675e+05
5.9753e+05
5.9779e+05
5.9834e+05
5.9856e+05
5.9938e+05
6.0154e+05
6.2757e+05
6.286e+05
6.2916e+05
6.3573e+05
6.3601e+05
6.3621e+05
6.3675e+05
6.3701e+05
6.373e+05
6.3783e+05
6.3804e+05
6.3858e+05
6.3986e+05
6.4065e+05
6.4088e+05
6.4113e+05
6.4169e+05
6.4191e+05
6.4219e+05
6.4278e+05
6.4309e+05
6.4367e+05
6.4395e+05
6.4474e+05
6.4528e+05
6.4557e+05
6.4586e+05
6.4611e+05
6.4641e+05
6.4667e+05
6.4695e+05
6.4808e+05
6.4857e+05
6.4881e+05
6.495e+05
-1
434
698
965
998
1222
1477
1759
1982
2020
2290
2321
2522
2557
2806
3077
3297
3380
3596
3854
4120
4143
4385
4417
4649
4935
5173
5206
5478
5510
5748
5807
6013
6272
6540
6812
7092
7345
7606
7639
7857
8110
8353
8609
8641
8867
9134
9413
9688
9964
9990
10252
10523
10550
10809
10836
11084
11110
11339
11617
11888
12161
12434
12725
12999
13305
13334
13548
13589
13927
14146
14423
14706
14735
14967
14996
15204
15519
15790
16065
16350
16653
16949
17247
17534
17805
17846
18122
18367
18640
18681
18930
19214
19494
19773
20063
20352
20640
20918
21195
21477
21769
22081
22382
22674
22974
23286
23573
23857
24140
24431
24731
25026
25327
25629
25907
26173
26436
26702
26967
27238
27529
27821
28116
28412
28710
29001
29291
29574
29869
30170
30460
30750
31035
31301
31576
31873
32159
32455
32753
33066
33374
33664
33954
34240
34512
34805
34847
35098
35387
35696
36029
36345
36659
36756
36970
37267
37563
37850
37886
38138
38440
38750
39058
39352
39635
39686
39918
40210
40485
40562
40765
41047
41327
41628
41925
42229
42521
42831
43145
43453
43752
44026
44298
44569
44844
45117
45383
45419
45639
45929
46198
46469
46743
47034
47353
47396
47696
47785
47998
48041
48340
48908
49522
49548
49807
49836
50088
50129
50330
50365
50646
50674
50933
51223
51486
51560
51861
52101
52387
52434
52737
52984
53268
53311
53544
53582
53830
53853
54087
54125
54356
54628
54904
54946
55172
55213
55470
55499
55737
55768
56089
56333
56370
56600
56810
56867
57151
57391
57658
57684
57923
57962
58208
58485
58506
58755
59041
59070
59296
59330
59605
59875
60127
60164
60381
60411
60610
60653
60859
61100
61341
61588
61836
62084
62340
62594
62819
62862
63115
63361
63382
63622
63850
63895
64102
64305
64353
64589
64612
64815
65029
65061
65294
65515
65755
65981
66209
66261
66426
66646
66687
66866
67101
67342
67592
67892
68166
68193
68426
68685
68942
69178
69221
69417
69642
69873
70101
70336
70581
70816
71086
71346
71598
71872
72139
72417
72679
72918
73181
73209
73422
73672
73708
73932
74193
74456
74726
74981
75251
75522
75780
76031
76303
76560
76794
76833
77086
77309
77599
77823
78064
78090
78286
78523
78723
78760
78996
79265
79490
79736
79765
79995
80248
80535
80787
81017
81039
81271
81522
81744
81799
81979
82039
82250
82481
82697
82934
83164
83417
83676
83938
83962
84213
84688
84749
84944
85188
85425
85687
85920
85945
86163
86187
86429
86701
87183
87426
87680
87922
87961
88200
88432
88653
88686
88922
88947
89196
89419
89674
89711
89938
89956
90218
90497
90751
90779
91009
91265
91471
91501
91774
91800
92033
92304
92559
92814
93075
93328
93602
93871
94130
94384
94634
94902
95201
95505
95818
96126
96188
96437
96660
96723
96965
97222
97255
97453
97517
97744
97974
98209
98478
98690
98709
98923
98977
99184
99415
99663
99720
99903
1.0015e+05
1.0021e+05
1.004e+05
1.0042e+05
1.0065e+05
1.0091e+05
1.0093e+05
1.0146e+05
1.0172e+05
1.0196e+05
1.0199e+05
1.0222e+05
1.025e+05
1.0278e+05
1.0282e+05
1.0308e+05
1.0311e+05
1.0341e+05
1.0345e+05
1.037e+05
1.0373e+05
1.0406e+05
1.0411e+05
1.044e+05
1.0471e+05
1.0475e+05
1.0511e+05
1.0514e+05
1.0543e+05
1.0548e+05
1.0574e+05
1.0578e+05
1.0605e+05
1.0639e+05
1.0643e+05
1.0674e+05
1.071e+05
1.0723e+05
1.0745e+05
1.0756e+05
1.078e+05
1.0783e+05
1.0814e+05
1.0819e+05
1.0843e+05
1.0848e+05
1.0881e+05
1.0914e+05
1.0949e+05
1.0952e+05
1.0981e+05
1.0985e+05
1.1018e+05
1.1051e+05
1.1055e+05
1.1081e+05
1.1085e+05
1.1151e+05
1.1186e+05
1.119e+05
1.1219e+05
1.1222e+05
1.125e+05
1.1284e+05
1.1297e+05
1.1353e+05
1.1357e+05
1.1418e+05
1.1421e+05
1.1448e+05
1.1451e+05
1.1479e+05
1.1484e+05
1.1513e+05
1.1545e+05
1.1549e+05
1.1579e+05
1.1583e+05
1.1613e+05
1.1616e+05
1.1648e+05
1.1682e+05
1.1716e+05
1.1719e+05
1.1784e+05
1.1818e+05
1.1821e+05
1.1851e+05
1.1855e+05
1.1886e+05
1.189e+05
1.1922e+05
1.1926e+05
1.1992e+05
1.2165e+05
1.2235e+05
1.2266e+05
1.2271e+05
1.2301e+05
1.2332e+05
1.2364e+05
1.2398e+05
1.2438e+05
1.2462e+05
1.25e+05
1.2522e+05
1.2556e+05
1.2559e+05
1.2589e+05
1.2621e+05
1.2624e+05
1.2657e+05
1.2659e+05
1.2683e+05
1.2686e+05
1.2716e+05
1.272e+05
1.2748e+05
1.2783e+05
1.2819e+05
1.2852e+05
1.2887e+05
1.2892e+05
1.2918e+05
1.2949e+05
1.2955e+05
1.2978e+05
1.2981e+05
1.3006e+05
1.3036e+05
1.3067e+05
1.31e+05
1.3105e+05
1.3135e+05
1.317e+05
1.3201e+05
1.3234e+05
1.3263e+05
1.3293e+05
1.3297e+05
1.3323e+05
1.3356e+05
1.3359e+05
1.3389e+05
1.3426e+05
1.343e+05
1.3463e+05
1.3466e+05
1.3668e+05
1.37e+05
1.3736e+05
1.374e+05
1.3769e+05
1.3772e+05
1.3802e+05
1.3814e+05
1.3836e+05
1.3872e+05
1.3875e+05
1.3907e+05
1.391e+05
1.3941e+05
1.3945e+05
1.3974e+05
1.4006e+05
1.4037e+05
1.4068e+05
1.4072e+05
1.41e+05
1.4103e+05
1.4132e+05
1.4166e+05
1.417e+05
1.4209e+05
1.4271e+05
1.4274e+05
1.4337e+05
1.4372e+05
1.441e+05
1.4414e+05
1.4489e+05
1.4726e+05
1.4759e+05
1.4892e+05
1.4904e+05
1.4924e+05
1.4957e+05
1.4989e+05
1.4999e+05
1.5021e+05
1.5055e+05
1.5186e+05
1.5221e+05
1.5236e+05
1.5319e+05
1.5384e+05
1.5397e+05
1.5419e+05
1.5438e+05
1.5493e+05
1.5496e+05
1.5525e+05
1.5557e+05
1.559e+05
1.5623e+05
1.5652e+05
1.5683e+05
1.5686e+05
1.5714e+05
1.6037e+05
1.6132e+05
1.616e+05
1.6188e+05
1.6217e+05
1.6249e+05
1.628e+05
1.6283e+05
1.6313e+05
1.6316e+05
1.6346e+05
1.6349e+05
1.6378e+05
1.6409e+05
1.6413e+05
1.6466e+05
1.6468e+05
1.6494e+05
1.6504e+05
1.6617e+05
1.6649e+05
1.6653e+05
1.6805e+05
1.6809e+05
1.69e+05
1.693e+05
1.6961e+05
1.6965e+05
1.7058e+05
1.7088e+05
1.7119e+05
1.7122e+05
1.7216e+05
1.7248e+05
1.7252e+05
1.7281e+05
1.7415e+05
1.7447e+05
1.7479e+05
1.7541e+05
1.7544e+05
1.7572e+05
1.764e+05
1.7676e+05
1.7713e+05
1.7716e+05
1.7744e+05
1.7775e+05
1.7806e+05
1.7839e+05
1.7873e+05
1.7907e+05
1.7941e+05
1.7973e+05
1.8006e+05
1.801e+05
1.8037e+05
1.8043e+05
1.8069e+05
1.8073e+05
1.8401e+05
1.8433e+05
1.8466e+05
1.853e+05
1.8561e+05
1.8589e+05
1.8616e+05
1.8647e+05
1.8677e+05
1.8744e+05
1.8778e+05
1.881e+05
1.8842e+05
1.8937e+05
1.8969e+05
1.9003e+05
1.9035e+05
1.9068e+05
1.9072e+05
1.9135e+05
1.9167e+05
1.9269e+05
1.9302e+05
1.9336e+05
1.9402e+05
1.9469e+05
1.9503e+05
1.9507e+05
1.9536e+05
1.9604e+05
1.9639e+05
1.9672e+05
1.9705e+05
1.9738e+05
1.9745e+05
1.9911e+05
2.0024e+05
2.0028e+05
2.0056e+05
2.006e+05
2.0107e+05
2.0248e+05
2.0251e+05
2.0297e+05
2.0318e+05
2.0344e+05
2.0376e+05
2.0452e+05
2.0483e+05
2.0512e+05
2.0513e+05
2.0536e+05
2.0555e+05
2.0583e+05
2.0611e+05
2.0635e+05
2.0637e+05
2.0712e+05
2.0757e+05
2.076e+05
2.1357e+05
2.1358e+05
2.1443e+05
2.1444e+05
2.1604e+05
2.2602e+05
2.2868e+05
2.3437e+05
2.3439e+05
2.3694e+05
2.3732e+05
2.3872e+05
2.3907e+05
2.3938e+05
2.3942e+05
2.397e+05
2.4003e+05
2.4007e+05
2.4034e+05
2.4065e+05
2.4069e+05
2.4096e+05
2.4127e+05
2.4159e+05
2.4192e+05
2.4222e+05
2.4253e+05
2.4284e+05
2.4316e+05
2.4347e+05
2.4376e+05
2.4406e+05
2.4437e+05
2.4466e+05
2.4495e+05
2.4526e+05
2.4557e+05
2.4588e+05
2.462e+05
2.468e+05
2.471e+05
2.4739e+05
2.4769e+05
2.4799e+05
2.4832e+05
2.4835e+05
2.4866e+05
2.4898e+05
2.4931e+05
2.4935e+05
2.5e+05
2.5003e+05
2.5033e+05
2.5037e+05
2.5097e+05
2.5129e+05
2.5133e+05
2.5396e+05
2.5426e+05
2.5457e+05
2.5488e+05
2.552e+05
2.5523e+05
2.5552e+05
2.5584e+05
2.5616e+05
2.5647e+05
2.5678e+05
2.571e+05
2.5741e+05
2.5771e+05
2.5802e+05
2.5834e+05
2.5863e+05
2.5991e+05
2.6022e+05
2.6051e+05
2.608e+05
2.6091e+05
2.6329e+05
2.6361e+05
2.6392e+05
2.6423e+05
2.6483e+05
2.6513e+05
2.6543e+05
2.6607e+05
2.6635e+05
2.6663e+05
2.6692e+05
2.6703e+05
2.675e+05
2.6779e+05
2.6807e+05
2.6837e+05
2.6867e+05
2.7019e+05
2.7048e+05
2.706e+05
2.7109e+05
2.7141e+05
2.7176e+05
2.7179e+05
2.7276e+05
2.7307e+05
2.7337e+05
2.7367e+05
2.7397e+05
2.7781e+05
2.7813e+05
2.7845e+05
2.7877e+05
2.791e+05
2.794e+05
2.7971e+05
2.8002e+05
2.8066e+05
2.8097e+05
2.8129e+05
2.8225e+05
2.8383e+05
2.8414e+05
2.8447e+05
2.848e+05
2.851e+05
2.8669e+05
2.8698e+05
2.8727e+05
2.8758e+05
2.8789e+05
2.8822e+05
2.8856e+05
2.8887e+05
2.892e+05
2.8953e+05
2.8986e+05
2.9017e+05
2.9049e+05
2.9081e+05
2.9114e+05
2.9146e+05
2.9177e+05
2.9207e+05
2.9235e+05
2.9263e+05
2.9294e+05
2.9391e+05
2.9423e+05
2.9454e+05
2.9486e+05
2.9801e+05
2.983e+05
2.9858e+05
2.9886e+05
2.9916e+05
2.9927e+05
2.9974e+05
3.0009e+05
3.0035e+05
3.0083e+05
3.0104e+05
3.011e+05
3.0128e+05
3.016e+05
3.0171e+05
3.0206e+05
3.0235e+05
3.0255e+05
3.0277e+05
3.0329e+05
3.0362e+05
3.0363e+05
3.0453e+05
3.0454e+05
3.0599e+05
3.0601e+05
3.069e+05
3.0754e+05
3.0755e+05
3.0906e+05
3.0907e+05
3.1017e+05
3.1018e+05
3.2049e+05
3.2644e+05
3.3794e+05
3.3823e+05
3.3855e+05
3.3889e+05
3.3921e+05
3.3956e+05
3.3959e+05
3.3989e+05
3.4023e+05
3.4027e+05
3.4088e+05
3.4119e+05
3.4151e+05
3.4183e+05
3.4212e+05
3.424e+05
3.4268e+05
3.4297e+05
3.4327e+05
3.4359e+05
3.4392e+05
3.4424e+05
3.4458e+05
3.4461e+05
3.4491e+05
3.4524e+05
3.4528e+05
3.4556e+05
3.4828e+05
3.486e+05
3.4891e+05
3.4923e+05
3.5045e+05
3.5056e+05
3.5132e+05
3.5159e+05
3.5185e+05
3.5211e+05
3.5237e+05
3.5263e+05
3.5292e+05
3.5443e+05
3.5472e+05
3.55e+05
3.5528e+05
3.5556e+05
3.5585e+05
3.5614e+05
3.5645e+05
3.5707e+05
3.5769e+05
3.5801e+05
3.5832e+05
3.5895e+05
3.5925e+05
3.5953e+05
3.5981e+05
3.6008e+05
3.6035e+05
3.6065e+05
3.6097e+05
3.6128e+05
3.6159e+05
3.6221e+05
3.6224e+05
3.6252e+05
3.628e+05
3.6283e+05
3.6309e+05
3.6312e+05
3.6393e+05
3.6405e+05
3.6451e+05
3.6478e+05
3.6503e+05
3.6529e+05
3.6556e+05
3.6584e+05
3.6613e+05
3.6641e+05
3.6671e+05
3.6701e+05
3.6729e+05
3.6757e+05
3.6785e+05
3.6812e+05
3.684e+05
3.687e+05
3.69e+05
3.7209e+05
3.7239e+05
3.7243e+05
3.7271e+05
3.7336e+05
3.7366e+05
3.7397e+05
3.7426e+05
3.7438e+05
3.7485e+05
3.7513e+05
3.7543e+05
3.7571e+05
3.7602e+05
3.7605e+05
3.7633e+05
3.7664e+05
3.7789e+05
3.7819e+05
3.7822e+05
3.7876e+05
3.7904e+05
3.7932e+05
3.7963e+05
3.7965e+05
3.7994e+05
3.8026e+05
3.8091e+05
3.8121e+05
3.8152e+05
3.8155e+05
3.8183e+05
3.8213e+05
3.8244e+05
3.8309e+05
3.8375e+05
3.8407e+05
3.8436e+05
3.8466e+05
3.8496e+05
3.8499e+05
3.8526e+05
3.8557e+05
3.8561e+05
3.8589e+05
3.8619e+05
3.8651e+05
3.8681e+05
3.8712e+05
3.8745e+05
3.8748e+05
3.8843e+05
3.8875e+05
3.8908e+05
3.9004e+05
3.9101e+05
3.9129e+05
3.9157e+05
3.9162e+05
3.9185e+05
3.9191e+05
3.9211e+05
3.9217e+05
3.9237e+05
3.9265e+05
3.9271e+05
3.9469e+05
3.9473e+05
3.9547e+05
3.9575e+05
3.9577e+05
3.9618e+05
3.9622e+05
3.9645e+05
3.9669e+05
3.9693e+05
3.9775e+05
3.9801e+05
3.9802e+05
3.984e+05
3.9868e+05
3.9889e+05
3.9891e+05
3.9911e+05
3.9913e+05
3.9951e+05
3.9975e+05
3.9999e+05
4.0031e+05
4.0032e+05
4.0132e+05
4.0134e+05
4.0187e+05
4.0189e+05
4.0234e+05
4.0265e+05
4.0266e+05
4.0414e+05
4.0458e+05
4.0484e+05
4.0508e+05
4.051e+05
4.0543e+05
4.0544e+05
4.0592e+05
4.0624e+05
4.0626e+05
4.0678e+05
4.0679e+05
4.0727e+05
4.0728e+05
4.0789e+05
4.0814e+05
4.0835e+05
4.0865e+05
4.0866e+05
4.0915e+05
4.0917e+05
4.1469e+05
4.3718e+05
4.3746e+05
4.3776e+05
4.3806e+05
4.3836e+05
4.3867e+05
4.3899e+05
4.3929e+05
4.3959e+05
4.399e+05
4.4031e+05
4.411e+05
4.4139e+05
4.4199e+05
4.4212e+05
4.4284e+05
4.4311e+05
4.4338e+05
4.4366e+05
4.4394e+05
4.4422e+05
4.4451e+05
4.4481e+05
4.4511e+05
4.4542e+05
4.4571e+05
4.4601e+05
4.4629e+05
4.4633e+05
4.4657e+05
4.4685e+05
4.4713e+05
4.4741e+05
4.477e+05
4.4861e+05
4.4891e+05
4.4921e+05
4.495e+05
4.4979e+05
4.5008e+05
4.5038e+05
4.5042e+05
4.5067e+05
4.5097e+05
4.516e+05
4.5191e+05
4.5223e+05
4.5256e+05
4.5287e+05
4.5317e+05
4.5349e+05
4.538e+05
4.5408e+05
4.5437e+05
4.5467e+05
4.5494e+05
4.5522e+05
4.555e+05
4.5577e+05
4.5627e+05
4.5652e+05
4.5678e+05
4.5706e+05
4.5734e+05
4.6011e+05
4.6091e+05
4.6098e+05
4.6118e+05
4.6123e+05
4.6177e+05
4.6206e+05
4.6235e+05
4.6291e+05
4.6686e+05
4.6716e+05
4.6747e+05
4.6777e+05
4.6789e+05
4.6864e+05
4.6874e+05
4.6971e+05
4.6982e+05
4.7027e+05
4.7038e+05
4.7509e+05
4.7518e+05
4.7646e+05
4.7658e+05
4.7704e+05
4.7733e+05
4.7761e+05
4.7789e+05
4.7817e+05
4.7845e+05
4.7873e+05
4.7929e+05
4.8012e+05
4.8069e+05
4.8127e+05
4.8346e+05
4.8687e+05
4.9131e+05
4.9216e+05
4.933e+05
4.9359e+05
4.9361e+05
4.9412e+05
4.9417e+05
4.944e+05
4.9613e+05
4.9617e+05
4.9664e+05
4.9665e+05
4.9693e+05
4.9695e+05
4.9719e+05
4.9735e+05
4.9737e+05
4.975e+05
4.9751e+05
4.9822e+05
4.9856e+05
4.9879e+05
4.9881e+05
4.9915e+05
4.9941e+05
4.9959e+05
4.9969e+05
4.9999e+05
5.0033e+05
5.0074e+05
5.0103e+05
5.0115e+05
5.0148e+05
5.0176e+05
5.0193e+05
5.0215e+05
5.0336e+05
5.0337e+05
5.0413e+05
5.047e+05
5.0493e+05
5.0626e+05
5.0651e+05
5.0652e+05
5.0703e+05
5.0746e+05
5.0769e+05
5.0786e+05
5.0792e+05
5.0813e+05
5.083e+05
5.0853e+05
5.0872e+05
5.1197e+05
5.1606e+05
5.1785e+05
5.2396e+05
5.24e+05
5.2423e+05
5.2457e+05
5.2481e+05
5.2562e+05
5.2568e+05
5.2609e+05
5.2623e+05
5.2625e+05
5.2658e+05
5.266e+05
5.3673e+05
5.3701e+05
5.3727e+05
5.373e+05
5.3755e+05
5.3759e+05
5.3791e+05
5.3815e+05
5.3843e+05
5.3871e+05
5.3899e+05
5.3927e+05
5.3929e+05
5.3953e+05
5.398e+05
5.3984e+05
5.4009e+05
5.401e+05
5.4031e+05
5.4059e+05
5.4086e+05
5.4113e+05
5.4116e+05
5.4141e+05
5.417e+05
5.4194e+05
5.4198e+05
5.4226e+05
5.4363e+05
5.439e+05
5.4418e+05
5.4534e+05
5.4538e+05
5.4567e+05
5.459e+05
5.4595e+05
5.4622e+05
5.4649e+05
5.4676e+05
5.4682e+05
5.47e+05
5.4733e+05
5.4759e+05
5.4763e+05
5.4794e+05
5.4825e+05
5.4854e+05
5.4882e+05
5.4908e+05
5.4911e+05
5.494e+05
5.4964e+05
5.499e+05
5.5015e+05
5.504e+05
5.5066e+05
5.5094e+05
5.5123e+05
5.5145e+05
5.5149e+05
5.5173e+05
5.5176e+05
5.52e+05
5.5204e+05
5.5231e+05
5.5259e+05
5.5262e+05
5.5288e+05
5.5316e+05
5.5344e+05
5.5346e+05
5.5426e+05
5.5479e+05
5.5533e+05
5.5559e+05
5.5643e+05
5.5757e+05
5.5844e+05
5.5846e+05
5.5995e+05
5.6174e+05
5.6182e+05
5.62e+05
5.6206e+05
5.6229e+05
5.6234e+05
5.6258e+05
5.6283e+05
5.6287e+05
5.6307e+05
5.633e+05
5.6353e+05
5.6377e+05
5.64e+05
5.6404e+05
5.6425e+05
5.645e+05
5.6864e+05
5.6867e+05
5.6894e+05
5.6952e+05
5.7008e+05
5.7089e+05
5.7093e+05
5.7117e+05
5.714e+05
5.7142e+05
5.7165e+05
5.7188e+05
5.719e+05
5.7216e+05
5.7244e+05
5.7268e+05
5.7274e+05
5.7296e+05
5.7305e+05
5.7352e+05
5.7385e+05
5.7412e+05
5.7435e+05
5.7446e+05
5.7469e+05
5.7494e+05
5.7498e+05
5.752e+05
5.7547e+05
5.7573e+05
5.7599e+05
5.7625e+05
5.7647e+05
5.7651e+05
5.7731e+05
5.7807e+05
5.7811e+05
5.7832e+05
5.7838e+05
5.8663e+05
5.8713e+05
5.8718e+05
5.8737e+05
5.876e+05
5.8784e+05
5.8788e+05
5.8811e+05
5.8833e+05
5.9132e+05
5.9134e+05
5.9156e+05
5.9183e+05
5.9186e+05
5.9208e+05
5.9598e+05
5.9624e+05
5.9626e+05
5.9648e+05
5.9673e+05
5.9701e+05
5.9702e+05
5.9727e+05
5.975e+05
5.977e+05
5.9773e+05
5.9806e+05
5.985e+05
5.9866e+05
5.9912e+05
5.9962e+05
5.9963e+05
6.0177e+05
6.0178e+05
6.2784e+05
6.2785e+05
6.289e+05
6.2891e+05
6.2961e+05
6.3584e+05
6.3609e+05
6.3613e+05
6.3635e+05
6.3665e+05
6.3691e+05
6.3717e+05
6.3719e+05
6.376e+05
6.3762e+05
6.3793e+05
6.3797e+05
6.382e+05
6.3843e+05
6.3876e+05
6.3878e+05
6.3906e+05
6.3929e+05
6.3951e+05
6.3979e+05
6.4001e+05
6.4026e+05
6.4032e+05
6.4052e+05
6.4081e+05
6.4101e+05
6.4107e+05
6.4129e+05
6.4151e+05
6.4155e+05
6.4182e+05
6.4211e+05
6.4268e+05
6.4294e+05
6.4328e+05
6.435e+05
6.4357e+05
6.4386e+05
6.4411e+05
6.4457e+05
6.45e+05
6.4517e+05
6.452e+05
6.4548e+05
6.4574e+05
6.4601e+05
6.4657e+05
6.4664e+05
6.4685e+05
6.4691e+05
6.4713e+05
6.4759e+05
6.4821e+05
6.4847e+05
6.487e+05
6.4911e+05
6.4912e+05
6.4942e+05
6.4946e+05
6.4965e+05
