124
470
795
1111
1452
1778
2404
2730
3033
3363
3698
4001
4333
4663
4977
5320
5682
6003
6361
6742
7068
7422
7771
8083
8419
8764
9081
9438
9797
10124
10479
10838
11170
11524
11864
12177
12533
12885
13205
13562
13897
14224
14570
14911
15230
15584
15924
16247
16595
16962
17295
17652
17993
18319
18657
18999
19310
19667
19999
20320
20672
21012
21326
21677
22004
22324
22669
23018
23339
23693
24027
24351
24711
25065
25388
25754
26101
26437
26780
27139
27488
27815
28152
28501
28828
29181
29535
29869
30223
30578
30922
31269
31635
31965
32301
32647
32973
33302
33655
33973
34596
34924
35531
36155
36785
37390
38007
38599
39214
39808
40406
41006
41591
42170
42732
43305
43883
44473
45057
45637
46204
46765
47341
47957
48543
49130
49730
50315
50916
51504
52091
52541
52941
53726
54056
54382
54715
55036
55371
55732
56421
57134
57508
58206
58551
59208
59549
59903
60240
60600
60973
61316
61689
62066
62419
62796
63173
63514
63884
64226
64566
64947
65296
65641
66001
66338
66672
67043
67398
67768
68143
68496
68835
69188
69528
69877
70228
70578
70926
71280
71637
71979
72330
72688
73027
73378
73736
74070
74431
74780
75120
75475
75844
76175
76538
76898
77238
77595
77953
78282
78623
78970
79289
79626
79974
80288
80613
80968
81290
81616
81979
82318
82632
82985
83322
83635
83984
84322
84630
84978
85314
85619
85952
86281
86591
86919
87267
87590
87934
88308
88658
88994
89357
89692
90025
90371
90698
91024
91370
91726
92056
92401
92759
93112
93452
93811
94141
94463
94811
95151
95470
95829
96155
96482
96828
97177
97500
97861
98205
98524
98864
99541
99877
1.0023e+05
1.0055e+05
1.0089e+05
1.0115e+05
1.0154e+05
1.019e+05
1.0225e+05
1.0258e+05
1.0293e+05
1.0327e+05
1.0359e+05
1.0394e+05
1.0428e+05
1.046e+05
1.0495e+05
1.053e+05
1.0562e+05
1.0598e+05
1.0634e+05
1.0666e+05
1.0703e+05
1.0737e+05
1.077e+05
1.0806e+05
1.0841e+05
1.0873e+05
1.0909e+05
1.0942e+05
1.0967e+05
1.101e+05
1.1043e+05
1.1076e+05
1.1112e+05
1.1148e+05
1.118e+05
1.1217e+05
1.1251e+05
1.1287e+05
1.1319e+05
1.1354e+05
1.1389e+05
1.1421e+05
1.1456e+05
1.1491e+05
1.1523e+05
1.1556e+05
1.1591e+05
1.1621e+05
1.1655e+05
1.1688e+05
1.172e+05
1.1754e+05
1.1791e+05
1.1822e+05
1.1857e+05
1.189e+05
1.1953e+05
1.1986e+05
1.2047e+05
1.2111e+05
1.3366e+05
1.3967e+05
1.4027e+05
1.4086e+05
1.4145e+05
1.4202e+05
1.426e+05
1.4316e+05
1.4373e+05
1.4432e+05
1.4491e+05
1.455e+05
1.461e+05
1.4669e+05
1.4727e+05
1.479e+05
1.4849e+05
1.4911e+05
1.497e+05
1.5027e+05
1.5087e+05
1.5146e+05
1.5207e+05
1.5267e+05
1.5328e+05
1.539e+05
1.5448e+05
1.5509e+05
1.5566e+05
1.5624e+05
1.5682e+05
1.574e+05
1.58e+05
1.5858e+05
1.5916e+05
1.5972e+05
1.6031e+05
1.609e+05
1.6148e+05
1.6208e+05
1.6265e+05
1.6325e+05
1.6444e+05
1.6505e+05
1.6567e+05
1.6627e+05
1.675e+05
1.6812e+05
1.6873e+05
1.6937e+05
1.7e+05
1.7127e+05
1.7188e+05
1.7248e+05
1.7308e+05
1.7367e+05
1.7428e+05
1.7669e+05
1.7845e+05
1.7965e+05
1.8329e+05
1.8389e+05
1.845e+05
1.8511e+05
1.8573e+05
1.8633e+05
1.8757e+05
1.9059e+05
1.9119e+05
1.918e+05
1.9299e+05
1.9357e+05
1.9418e+05
1.9474e+05
1.9533e+05
1.9591e+05
1.9649e+05
1.9709e+05
1.9769e+05
1.9889e+05
1.9948e+05
2.0006e+05
2.0064e+05
2.0121e+05
2.0182e+05
2.0241e+05
2.0272e+05
2.0302e+05
2.0335e+05
2.037e+05
2.0439e+05
2.0477e+05
2.0513e+05
2.0583e+05
2.0617e+05
2.0649e+05
2.0682e+05
2.0715e+05
2.0745e+05
2.0779e+05
2.0812e+05
2.0841e+05
2.0875e+05
2.091e+05
2.0974e+05
2.1074e+05
2.1109e+05
2.1141e+05
2.1174e+05
2.1209e+05
2.1243e+05
2.1276e+05
2.1315e+05
2.1351e+05
2.1387e+05
2.1423e+05
2.146e+05
2.1504e+05
2.1534e+05
2.157e+05
2.1605e+05
2.1611e+05
2.1639e+05
2.1674e+05
2.1708e+05
2.1713e+05
2.1743e+05
2.178e+05
2.1815e+05
2.182e+05
2.1852e+05
2.1889e+05
2.1925e+05
2.1961e+05
2.1997e+05
2.2005e+05
2.2031e+05
2.2066e+05
2.2102e+05
2.2135e+05
2.2142e+05
2.2169e+05
2.2205e+05
2.221e+05
2.2237e+05
2.2244e+05
2.2272e+05
2.2309e+05
2.2341e+05
2.2346e+05
2.2376e+05
2.2382e+05
2.2411e+05
2.2442e+05
2.2448e+05
2.2477e+05
2.251e+05
2.2542e+05
2.2547e+05
2.2577e+05
2.2582e+05
2.2612e+05
2.2644e+05
2.2652e+05
2.2678e+05
2.2684e+05
2.2713e+05
2.2746e+05
2.2779e+05
2.2813e+05
2.2844e+05
2.2908e+05
2.2913e+05
2.2941e+05
2.2946e+05
2.2974e+05
2.2981e+05
2.3006e+05
2.3011e+05
2.3042e+05
2.3048e+05
2.3078e+05
2.3111e+05
2.3116e+05
2.3149e+05
2.3187e+05
2.322e+05
2.3226e+05
2.3256e+05
2.3261e+05
2.3291e+05
2.3297e+05
2.3324e+05
2.333e+05
2.3359e+05
2.3395e+05
2.3401e+05
2.3428e+05
2.3433e+05
2.3462e+05
2.3468e+05
2.3497e+05
2.3504e+05
2.3529e+05
2.3534e+05
2.3563e+05
2.3598e+05
2.3605e+05
2.3629e+05
2.3634e+05
2.3662e+05
2.3668e+05
2.3697e+05
2.3704e+05
2.373e+05
2.3737e+05
2.3761e+05
2.3767e+05
2.3794e+05
2.38e+05
2.3826e+05
2.3832e+05
2.3857e+05
2.3891e+05
2.3924e+05
2.3957e+05
2.399e+05
2.4027e+05
2.4062e+05
2.4095e+05
2.413e+05
2.4166e+05
2.4199e+05
2.4234e+05
2.427e+05
2.4303e+05
2.4339e+05
2.4375e+05
2.4408e+05
2.4442e+05
2.4476e+05
2.4508e+05
2.454e+05
2.4575e+05
2.4609e+05
2.464e+05
2.4675e+05
2.471e+05
2.4741e+05
2.4776e+05
2.481e+05
2.4842e+05
2.4876e+05
2.491e+05
2.5243e+05
2.5414e+05
2.5449e+05
2.5516e+05
2.5617e+05
2.5811e+05
2.5914e+05
2.5949e+05
2.5983e+05
2.6018e+05
2.6053e+05
2.6088e+05
2.6157e+05
2.6191e+05
2.6223e+05
2.6257e+05
2.6291e+05
2.6357e+05
2.6391e+05
2.6456e+05
2.6492e+05
2.6559e+05
2.6595e+05
2.6628e+05
2.6663e+05
2.6699e+05
2.6734e+05
2.6769e+05
2.6805e+05
2.6873e+05
2.6907e+05
2.6941e+05
2.7006e+05
2.7039e+05
2.72e+05
2.7233e+05
2.7265e+05
2.7303e+05
2.7338e+05
2.7443e+05
2.7511e+05
2.7543e+05
2.7607e+05
2.7641e+05
2.7673e+05
2.7709e+05
2.7745e+05
2.7781e+05
2.7817e+05
2.7853e+05
2.789e+05
2.7957e+05
2.7994e+05
2.8026e+05
2.8061e+05
2.8096e+05
2.8162e+05
2.8196e+05
2.8298e+05
2.8402e+05
2.8438e+05
2.8705e+05
2.8738e+05
2.9203e+05
2.926e+05
2.9318e+05
2.9376e+05
2.9433e+05
2.9493e+05
2.9552e+05
2.961e+05
2.9668e+05
2.9787e+05
2.9791e+05
2.9846e+05
2.9905e+05
2.991e+05
2.9929e+05
2.9964e+05
3.0021e+05
3.0027e+05
3.0079e+05
3.0136e+05
3.0193e+05
3.0313e+05
3.0376e+05
3.0437e+05
3.0447e+05
3.0498e+05
3.0558e+05
3.0616e+05
3.0676e+05
3.0734e+05
3.0793e+05
3.2789e+05
3.3812e+05
3.3935e+05
3.3996e+05
3.4056e+05
3.4114e+05
3.4174e+05
3.4234e+05
3.4294e+05
3.4357e+05
3.4416e+05
3.4478e+05
3.4538e+05
3.4597e+05
3.4655e+05
3.4716e+05
3.4777e+05
3.4836e+05
3.4897e+05
3.4958e+05
3.5019e+05
3.5078e+05
3.5138e+05
3.5195e+05
3.5253e+05
3.5312e+05
3.5371e+05
3.543e+05
3.5489e+05
3.555e+05
3.5607e+05
3.5666e+05
3.5725e+05
3.5783e+05
3.5844e+05
3.5903e+05
3.5967e+05
3.6028e+05
3.6091e+05
3.6153e+05
3.6212e+05
3.6271e+05
3.633e+05
3.6391e+05
3.645e+05
3.657e+05
3.669e+05
3.6749e+05
3.6809e+05
3.687e+05
3.6931e+05
3.6992e+05
3.7053e+05
3.7118e+05
3.7178e+05
3.7239e+05
3.7297e+05
3.7355e+05
3.7416e+05
3.7477e+05
3.7541e+05
3.7601e+05
3.7632e+05
3.7697e+05
3.7763e+05
3.7801e+05
3.784e+05
3.7876e+05
3.7916e+05
3.7952e+05
3.7987e+05
3.8024e+05
3.8059e+05
3.8093e+05
3.8164e+05
3.8197e+05
3.8231e+05
3.8333e+05
3.8367e+05
3.8399e+05
3.8435e+05
3.8539e+05
3.8574e+05
3.8643e+05
3.8679e+05
3.8714e+05
3.8749e+05
3.8784e+05
3.8817e+05
3.8851e+05
3.8883e+05
3.8915e+05
3.8947e+05
3.8981e+05
3.9012e+05
3.9048e+05
3.9119e+05
3.9155e+05
3.9191e+05
3.9226e+05
3.9331e+05
3.9365e+05
3.9402e+05
3.9472e+05
3.951e+05
3.9543e+05
3.9578e+05
3.9611e+05
3.9677e+05
3.9784e+05
3.9813e+05
3.9846e+05
3.988e+05
3.9919e+05
3.9953e+05
3.9987e+05
4.0023e+05
4.0057e+05
4.009e+05
4.0126e+05
4.0161e+05
4.0195e+05
4.0369e+05
4.0435e+05
4.0469e+05
4.0506e+05
4.0533e+05
4.0539e+05
4.0567e+05
4.0599e+05
4.0605e+05
4.0633e+05
4.0638e+05
4.067e+05
4.0677e+05
4.0705e+05
4.071e+05
4.0738e+05
4.0743e+05
4.0772e+05
4.0778e+05
4.0807e+05
4.0838e+05
4.0843e+05
4.0873e+05
4.0878e+05
4.0907e+05
4.0939e+05
4.0969e+05
4.0975e+05
4.1002e+05
4.1008e+05
4.1035e+05
4.1067e+05
4.1074e+05
4.1102e+05
4.1107e+05
4.1138e+05
4.1143e+05
4.1171e+05
4.1177e+05
4.1209e+05
4.1214e+05
4.1244e+05
4.1249e+05
4.1278e+05
4.1284e+05
4.1314e+05
4.1319e+05
4.1349e+05
4.1356e+05
4.1382e+05
4.1387e+05
4.1417e+05
4.1422e+05
4.1452e+05
4.1459e+05
4.1486e+05
4.1491e+05
4.1521e+05
4.1526e+05
4.1556e+05
4.1561e+05
4.1588e+05
4.1596e+05
4.1623e+05
4.1629e+05
4.1658e+05
4.1691e+05
4.1725e+05
4.1731e+05
4.176e+05
4.1766e+05
4.1795e+05
4.1801e+05
4.1828e+05
4.1833e+05
4.1861e+05
4.1897e+05
4.1903e+05
4.1929e+05
4.1935e+05
4.1965e+05
4.197e+05
4.2003e+05
4.201e+05
4.2037e+05
4.2042e+05
4.2076e+05
4.2082e+05
4.2114e+05
4.2147e+05
4.2153e+05
4.2181e+05
4.2187e+05
4.2215e+05
4.2221e+05
4.2247e+05
4.2253e+05
4.2283e+05
4.2289e+05
4.232e+05
4.2327e+05
4.2354e+05
4.2359e+05
4.2391e+05
4.2397e+05
4.2428e+05
4.2433e+05
4.2462e+05
4.2469e+05
4.2499e+05
4.2504e+05
4.2534e+05
4.2539e+05
4.2566e+05
4.2572e+05
4.2601e+05
4.2606e+05
4.2634e+05
4.2641e+05
4.2673e+05
4.2701e+05
4.2707e+05
4.2734e+05
4.274e+05
4.2771e+05
4.2806e+05
4.2812e+05
4.284e+05
4.2846e+05
4.2877e+05
4.2883e+05
4.2912e+05
4.2918e+05
4.2945e+05
4.2951e+05
4.2981e+05
4.2987e+05
4.3018e+05
4.3023e+05
4.3052e+05
4.3058e+05
4.3092e+05
4.3097e+05
4.3129e+05
4.3165e+05
4.317e+05
4.3201e+05
4.3236e+05
4.327e+05
4.3275e+05
4.3364e+05
4.3424e+05
4.3484e+05
4.3542e+05
4.3601e+05
4.3661e+05
4.3667e+05
4.3721e+05
4.3782e+05
4.3843e+05
4.3903e+05
4.3964e+05
4.4022e+05
4.4085e+05
4.4143e+05
4.4204e+05
4.4264e+05
4.4323e+05
4.4382e+05
4.4438e+05
4.4497e+05
4.4555e+05
4.4614e+05
4.4672e+05
4.473e+05
4.479e+05
4.4853e+05
4.4884e+05
4.4914e+05
4.4951e+05
4.4989e+05
4.5024e+05
4.5067e+05
4.5107e+05
4.5143e+05
4.518e+05
4.5214e+05
4.525e+05
4.5285e+05
4.5319e+05
4.5353e+05
4.5385e+05
4.5417e+05
4.5556e+05
4.5592e+05
4.5661e+05
4.5696e+05
4.5727e+05
4.5763e+05
4.5795e+05
4.5919e+05
4.5978e+05
4.6036e+05
4.6095e+05
4.6154e+05
4.6212e+05
4.6271e+05
4.633e+05
4.6391e+05
4.6451e+05
4.6572e+05
4.6632e+05
4.6689e+05
4.6805e+05
4.8923e+05
4.9047e+05
4.9354e+05
4.9477e+05
4.9654e+05
4.9715e+05
4.9775e+05
4.9839e+05
4.9901e+05
4.9963e+05
5.0026e+05
5.0084e+05
5.0145e+05
5.0205e+05
5.0263e+05
5.0323e+05
5.0382e+05
5.0441e+05
5.0503e+05
5.0565e+05
5.0627e+05
5.069e+05
5.0752e+05
5.0784e+05
5.0815e+05
5.0848e+05
5.0882e+05
5.0915e+05
5.0948e+05
5.0983e+05
5.1016e+05
5.1051e+05
5.1088e+05
5.1122e+05
5.1157e+05
5.1195e+05
5.1228e+05
5.1265e+05
5.1301e+05
5.1336e+05
5.137e+05
5.1405e+05
5.1438e+05
5.1473e+05
5.1509e+05
5.1542e+05
5.1578e+05
5.1615e+05
5.1649e+05
5.1685e+05
5.1722e+05
5.1756e+05
5.1794e+05
5.183e+05
5.1866e+05
5.1901e+05
5.1936e+05
5.1972e+05
5.2006e+05
5.2042e+05
5.2078e+05
5.2113e+05
5.215e+05
5.2185e+05
5.2222e+05
5.2258e+05
5.2294e+05
5.233e+05
5.2367e+05
5.2402e+05
5.2437e+05
5.2474e+05
5.2508e+05
5.2545e+05
5.2584e+05
5.2617e+05
5.2654e+05
5.2692e+05
5.2727e+05
5.2763e+05
5.2799e+05
5.2832e+05
5.2868e+05
5.2905e+05
5.2938e+05
5.2975e+05
5.301e+05
5.3042e+05
5.3077e+05
5.3111e+05
5.3143e+05
5.3178e+05
5.3212e+05
5.3244e+05
5.3279e+05
5.3314e+05
5.3346e+05
5.3381e+05
5.3416e+05
5.3448e+05
5.3484e+05
5.3518e+05
5.3551e+05
5.3588e+05
5.3623e+05
5.3656e+05
5.3692e+05
5.3726e+05
5.376e+05
5.3795e+05
5.3832e+05
5.3867e+05
5.3903e+05
5.3939e+05
5.3974e+05
5.4009e+05
5.4047e+05
5.4082e+05
5.412e+05
5.4159e+05
5.4194e+05
5.4231e+05
5.4268e+05
5.4303e+05
5.434e+05
5.4375e+05
5.448e+05
5.4515e+05
5.4553e+05
5.459e+05
5.4662e+05
5.4696e+05
5.48e+05
5.7108e+05
5.7175e+05
5.7311e+05
5.7379e+05
5.7414e+05
5.7482e+05
5.7518e+05
5.7551e+05
5.7587e+05
5.7695e+05
5.7731e+05
5.7797e+05
5.783e+05
5.7893e+05
5.7926e+05
5.7956e+05
5.7989e+05
5.8025e+05
5.8056e+05
5.8092e+05
5.813e+05
5.8163e+05
5.82e+05
5.8236e+05
5.8269e+05
5.8306e+05
5.834e+05
5.8374e+05
5.841e+05
5.8446e+05
5.8478e+05
5.8513e+05
5.8546e+05
5.8611e+05
5.8646e+05
5.8678e+05
5.8714e+05
5.8782e+05
5.882e+05
5.8854e+05
5.8889e+05
5.8925e+05
5.8959e+05
5.8992e+05
5.9029e+05
5.9132e+05
5.9198e+05
5.9232e+05
5.9266e+05
5.9334e+05
5.9369e+05
5.9437e+05
5.9473e+05
5.9507e+05
5.9577e+05
5.9614e+05
5.9648e+05
5.9686e+05
5.9722e+05
5.9756e+05
5.9793e+05
5.9829e+05
5.9862e+05
5.9897e+05
5.993e+05
5.9962e+05
5.9997e+05
6.0031e+05
6.0066e+05
6.0101e+05
6.0136e+05
6.017e+05
6.0205e+05
6.024e+05
6.0275e+05
6.031e+05
6.0345e+05
6.0379e+05
6.0414e+05
6.0447e+05
6.0482e+05
6.0516e+05
6.0549e+05
6.0581e+05
6.0616e+05
6.065e+05
6.0685e+05
6.072e+05
6.0755e+05
6.0789e+05
6.0825e+05
6.0861e+05
6.0895e+05
6.0929e+05
6.0963e+05
6.0998e+05
6.1031e+05
6.1067e+05
6.1102e+05
6.1135e+05
6.117e+05
6.1206e+05
6.124e+05
6.1276e+05
6.131e+05
6.1343e+05
6.1379e+05
6.1415e+05
6.145e+05
6.1487e+05
6.1524e+05
6.156e+05
6.1597e+05
6.1633e+05
6.1669e+05
6.1703e+05
6.1738e+05
6.1773e+05
6.1807e+05
6.1842e+05
6.1876e+05
6.1909e+05
6.1944e+05
6.1979e+05
6.2013e+05
6.205e+05
6.2084e+05
6.2119e+05
6.2155e+05
6.2189e+05
6.2224e+05
6.2261e+05
6.2295e+05
6.2329e+05
6.2365e+05
6.24e+05
6.2433e+05
6.2469e+05
6.2504e+05
6.2538e+05
6.2573e+05
6.2607e+05
6.2641e+05
6.2675e+05
6.2708e+05
6.2741e+05
6.2775e+05
6.281e+05
6.2844e+05
6.2877e+05
6.2912e+05
6.2949e+05
6.2983e+05
6.3019e+05
6.3055e+05
6.3087e+05
6.3122e+05
6.3158e+05
6.319e+05
6.3224e+05
6.3257e+05
6.332e+05
6.3353e+05
6.3384e+05
6.3418e+05
6.3454e+05
6.3485e+05
6.3521e+05
6.3557e+05
6.359e+05
6.3629e+05
6.3665e+05
6.37e+05
6.3737e+05
6.3773e+05
6.3807e+05
6.3844e+05
6.3877e+05
6.391e+05
6.3946e+05
6.398e+05
6.4014e+05
6.4051e+05
6.4086e+05
6.4121e+05
6.4157e+05
6.4193e+05
6.4229e+05
6.4265e+05
6.4302e+05
6.4337e+05
6.4372e+05
6.4408e+05
6.4443e+05
6.4478e+05
6.4512e+05
6.4546e+05
6.4578e+05
6.4611e+05
6.4674e+05
6.4707e+05
6.4739e+05
6.4772e+05
6.4807e+05
6.484e+05
6.4876e+05
6.4908e+05
6.4944e+05
-1
304
651
972
1288
1635
1951
2057
2600
2906
3205
3546
3878
4179
4512
4847
5151
5506
5867
6179
6544
6920
7241
7607
7942
8263
8602
8938
9256
9622
9972
10306
10660
11018
11346
11702
12038
12352
12716
13065
13386
13739
14073
14401
14752
15090
15414
15760
16101
16420
16778
17141
17478
17833
18170
18494
18839
19174
19490
19845
20173
20493
20853
21186
21510
21854
22179
22496
22853
23194
23522
23871
24204
24524
24896
25239
25574
25936
26278
26620
26962
27314
27676
27993
28330
28684
29006
29353
29719
30042
30406
30762
31097
31449
31817
32140
32480
32830
33153
33481
33834
34218
34788
35097
35194
35788
36467
37031
37707
38185
38252
39398
39475
40049
40702
41240
41837
42355
42412
42921
42969
43495
43545
44061
44154
44667
44716
45244
45300
45826
45872
46393
46438
46945
47021
47544
47627
48144
48226
48740
48812
49317
49399
49924
50005
50510
50587
51105
51189
51706
51775
52283
52739
53241
53922
54246
54573
54912
55225
55564
55922
56038
56612
56742
57326
57712
57845
58395
58745
58842
59392
59746
60093
60428
60793
61158
61502
61883
62250
62605
62994
63360
63709
64071
64412
64756
65133
65482
65834
66183
66526
66861
67231
67588
67953
68327
68681
69024
69369
69721
70063
70412
70767
71111
71463
71825
72157
72517
72878
73209
73564
73921
74249
74612
74971
75303
75665
76030
76355
76722
77081
77416
77788
78134
78464
78811
79154
79467
79817
80154
80467
80798
81148
81466
81807
82161
82502
82817
83170
83500
83824
84165
84505
84813
85158
85489
85808
86131
86458
86770
87102
87445
87780
88115
88488
88845
89175
89533
89882
90200
90553
90886
91201
91546
91914
92228
92584
92940
93292
93634
93987
94316
94358
94639
94994
95331
95650
96012
96333
96659
97016
97356
97684
98043
98382
98700
99049
99727
1.0006e+05
1.0041e+05
1.0073e+05
1.0107e+05
1.013e+05
1.0172e+05
1.0208e+05
1.0243e+05
1.0276e+05
1.0311e+05
1.0345e+05
1.0378e+05
1.0412e+05
1.0445e+05
1.0478e+05
1.0514e+05
1.0547e+05
1.0581e+05
1.0617e+05
1.0652e+05
1.0684e+05
1.0721e+05
1.0755e+05
1.0789e+05
1.0824e+05
1.0859e+05
1.0891e+05
1.0926e+05
1.096e+05
1.0993e+05
1.1027e+05
1.1062e+05
1.1095e+05
1.1129e+05
1.1166e+05
1.1202e+05
1.1234e+05
1.1269e+05
1.1305e+05
1.1337e+05
1.1372e+05
1.1407e+05
1.1439e+05
1.1474e+05
1.1509e+05
1.1541e+05
1.1574e+05
1.1609e+05
1.1639e+05
1.1672e+05
1.1706e+05
1.1738e+05
1.1773e+05
1.181e+05
1.184e+05
1.1875e+05
1.1898e+05
1.1922e+05
1.1973e+05
1.2004e+05
1.2015e+05
1.2058e+05
1.2079e+05
1.2136e+05
1.3386e+05
1.3394e+05
1.3988e+05
1.3996e+05
1.4046e+05
1.4053e+05
1.4106e+05
1.4114e+05
1.4164e+05
1.417e+05
1.4222e+05
1.4228e+05
1.4279e+05
1.4285e+05
1.4335e+05
1.4342e+05
1.4394e+05
1.4401e+05
1.4452e+05
1.4458e+05
1.4511e+05
1.4519e+05
1.457e+05
1.4577e+05
1.4629e+05
1.4637e+05
1.4689e+05
1.4695e+05
1.4752e+05
1.4809e+05
1.4817e+05
1.4874e+05
1.493e+05
1.4938e+05
1.4991e+05
1.4996e+05
1.5052e+05
1.5107e+05
1.5113e+05
1.5171e+05
1.5227e+05
1.5235e+05
1.5293e+05
1.5353e+05
1.541e+05
1.5416e+05
1.5473e+05
1.5529e+05
1.5535e+05
1.5591e+05
1.5644e+05
1.565e+05
1.5707e+05
1.5765e+05
1.5824e+05
1.5878e+05
1.5884e+05
1.5936e+05
1.5942e+05
1.5998e+05
1.6056e+05
1.6115e+05
1.6174e+05
1.6232e+05
1.6286e+05
1.6293e+05
1.6345e+05
1.6351e+05
1.6464e+05
1.6526e+05
1.6534e+05
1.6588e+05
1.6595e+05
1.6647e+05
1.6771e+05
1.6777e+05
1.6837e+05
1.6894e+05
1.6957e+05
1.6965e+05
1.7021e+05
1.7028e+05
1.7147e+05
1.7154e+05
1.7213e+05
1.7268e+05
1.7273e+05
1.7333e+05
1.7393e+05
1.7453e+05
1.7689e+05
1.7871e+05
1.7991e+05
1.8349e+05
1.8355e+05
1.841e+05
1.8417e+05
1.8471e+05
1.8478e+05
1.8532e+05
1.8539e+05
1.8594e+05
1.86e+05
1.8659e+05
1.8779e+05
1.8786e+05
1.908e+05
1.9085e+05
1.9139e+05
1.9205e+05
1.932e+05
1.9383e+05
1.9438e+05
1.9443e+05
1.95e+05
1.9557e+05
1.9616e+05
1.9674e+05
1.9734e+05
1.9795e+05
1.991e+05
1.9969e+05
2.0027e+05
2.0085e+05
2.0142e+05
2.0203e+05
2.0263e+05
2.0292e+05
2.0322e+05
2.0355e+05
2.0378e+05
2.041e+05
2.0411e+05
2.0425e+05
2.045e+05
2.0462e+05
2.0498e+05
2.0525e+05
2.0543e+05
2.0557e+05
2.0569e+05
2.0595e+05
2.0607e+05
2.0627e+05
2.0642e+05
2.0671e+05
2.0694e+05
2.0704e+05
2.0726e+05
2.0737e+05
2.0766e+05
2.0827e+05
2.0861e+05
2.0891e+05
2.0922e+05
2.0938e+05
2.0964e+05
2.1005e+05
2.1038e+05
2.1052e+05
2.1086e+05
2.1095e+05
2.1121e+05
2.1131e+05
2.1161e+05
2.1193e+05
2.1238e+05
2.1265e+05
2.1287e+05
2.13e+05
2.1374e+05
2.1399e+05
2.1418e+05
2.1434e+05
2.1483e+05
2.1517e+05
2.1544e+05
2.1557e+05
2.1592e+05
2.1626e+05
2.165e+05
2.166e+05
2.1695e+05
2.1728e+05
2.1754e+05
2.1768e+05
2.1804e+05
2.1862e+05
2.1881e+05
2.191e+05
2.1956e+05
2.1973e+05
2.1986e+05
2.202e+05
2.2042e+05
2.2055e+05
2.2078e+05
2.209e+05
2.2125e+05
2.2158e+05
2.2182e+05
2.2262e+05
2.228e+05
2.2304e+05
2.2332e+05
2.2365e+05
2.2401e+05
2.2437e+05
2.2487e+05
2.2501e+05
2.2521e+05
2.2536e+05
2.2566e+05
2.2601e+05
2.264e+05
2.2668e+05
2.2724e+05
2.2734e+05
2.277e+05
2.2797e+05
2.2831e+05
2.2873e+05
2.2893e+05
2.2997e+05
2.303e+05
2.3103e+05
2.3135e+05
2.3157e+05
2.3198e+05
2.3245e+05
2.3348e+05
2.3367e+05
2.3419e+05
2.3452e+05
2.3491e+05
2.3572e+05
2.3592e+05
2.3624e+05
2.3653e+05
2.3753e+05
2.3785e+05
2.385e+05
2.3876e+05
2.3901e+05
2.3942e+05
2.3976e+05
2.4008e+05
2.4045e+05
2.408e+05
2.4149e+05
2.4184e+05
2.4289e+05
2.4358e+05
2.4393e+05
2.4425e+05
2.4454e+05
2.4495e+05
2.4526e+05
2.4559e+05
2.4594e+05
2.4627e+05
2.4658e+05
2.4694e+05
2.4728e+05
2.476e+05
2.4828e+05
2.486e+05
2.4894e+05
2.4928e+05
2.5261e+05
2.5431e+05
2.5467e+05
2.5533e+05
2.5635e+05
2.5829e+05
2.5931e+05
2.5968e+05
2.6036e+05
2.6072e+05
2.6105e+05
2.6175e+05
2.6208e+05
2.6241e+05
2.6268e+05
2.6308e+05
2.6375e+05
2.6408e+05
2.6474e+05
2.651e+05
2.6577e+05
2.6612e+05
2.6681e+05
2.6717e+05
2.6753e+05
2.6788e+05
2.6823e+05
2.6891e+05
2.6925e+05
2.696e+05
2.7023e+05
2.7057e+05
2.7251e+05
2.7284e+05
2.7321e+05
2.7357e+05
2.7461e+05
2.7528e+05
2.7562e+05
2.7625e+05
2.7659e+05
2.7727e+05
2.7794e+05
2.7835e+05
2.7872e+05
2.7975e+05
2.8011e+05
2.8044e+05
2.8114e+05
2.818e+05
2.842e+05
2.8723e+05
2.8757e+05
2.9221e+05
2.9336e+05
2.9452e+05
2.9512e+05
2.9571e+05
2.9629e+05
2.9816e+05
2.9853e+05
2.9877e+05
2.9971e+05
2.9993e+05
3.005e+05
3.0054e+05
3.0086e+05
3.0107e+05
3.0143e+05
3.0165e+05
3.02e+05
3.0223e+05
3.0231e+05
3.0261e+05
3.0283e+05
3.032e+05
3.0341e+05
3.0367e+05
3.0406e+05
3.0468e+05
3.0507e+05
3.0528e+05
3.0587e+05
3.0625e+05
3.0646e+05
3.0705e+05
3.0764e+05
3.0813e+05
3.0819e+05
3.2814e+05
3.3469e+05
3.3833e+05
3.384e+05
3.3956e+05
3.3963e+05
3.4017e+05
3.4076e+05
3.414e+05
3.4198e+05
3.4259e+05
3.432e+05
3.4377e+05
3.4383e+05
3.4437e+05
3.4498e+05
3.4504e+05
3.4559e+05
3.4565e+05
3.4617e+05
3.4681e+05
3.4737e+05
3.4744e+05
3.4797e+05
3.4804e+05
3.4858e+05
3.4865e+05
3.4923e+05
3.4978e+05
3.4986e+05
3.504e+05
3.5103e+05
3.5158e+05
3.5164e+05
3.522e+05
3.5274e+05
3.528e+05
3.5333e+05
3.5339e+05
3.5396e+05
3.5452e+05
3.5457e+05
3.5515e+05
3.557e+05
3.5576e+05
3.5633e+05
3.5686e+05
3.575e+05
3.5808e+05
3.5869e+05
3.593e+05
3.5987e+05
3.5994e+05
3.605e+05
3.6058e+05
3.6117e+05
3.6178e+05
3.6237e+05
3.6296e+05
3.6356e+05
3.6416e+05
3.6476e+05
3.6532e+05
3.6538e+05
3.6595e+05
3.6651e+05
3.6711e+05
3.6717e+05
3.6774e+05
3.683e+05
3.6891e+05
3.6897e+05
3.6952e+05
3.7013e+05
3.702e+05
3.7074e+05
3.7082e+05
3.7139e+05
3.7146e+05
3.7203e+05
3.726e+05
3.7265e+05
3.7323e+05
3.738e+05
3.7437e+05
3.7443e+05
3.7499e+05
3.7506e+05
3.7561e+05
3.7567e+05
3.7622e+05
3.7652e+05
3.7682e+05
3.7718e+05
3.7751e+05
3.7784e+05
3.7823e+05
3.7861e+05
3.7897e+05
3.7937e+05
3.7973e+05
3.8009e+05
3.8045e+05
3.808e+05
3.8114e+05
3.815e+05
3.8184e+05
3.8217e+05
3.8252e+05
3.8285e+05
3.8318e+05
3.8352e+05
3.8387e+05
3.8419e+05
3.8455e+05
3.849e+05
3.8524e+05
3.8559e+05
3.8594e+05
3.8628e+05
3.8664e+05
3.87e+05
3.8733e+05
3.8769e+05
3.8804e+05
3.8836e+05
3.887e+05
3.8904e+05
3.8934e+05
3.9e+05
3.9032e+05
3.9067e+05
3.9105e+05
3.9138e+05
3.9174e+05
3.9211e+05
3.9245e+05
3.928e+05
3.9349e+05
3.9384e+05
3.9422e+05
3.9455e+05
3.9492e+05
3.9529e+05
3.9562e+05
3.9597e+05
3.963e+05
3.9661e+05
3.9696e+05
3.9747e+05
3.9749e+05
3.9801e+05
3.9836e+05
3.9864e+05
3.99e+05
3.9937e+05
3.9973e+05
4.0006e+05
4.0041e+05
4.0076e+05
4.0109e+05
4.0144e+05
4.018e+05
4.0202e+05
4.0238e+05
4.0239e+05
4.0273e+05
4.0275e+05
4.0308e+05
4.0309e+05
4.0341e+05
4.0362e+05
4.0376e+05
4.0407e+05
4.0408e+05
4.0453e+05
4.0488e+05
4.0527e+05
4.0556e+05
4.0574e+05
4.0624e+05
4.0695e+05
4.0729e+05
4.0762e+05
4.0831e+05
4.0862e+05
4.0934e+05
4.0963e+05
4.0995e+05
4.1063e+05
4.1092e+05
4.1126e+05
4.1162e+05
4.1196e+05
4.1233e+05
4.1269e+05
4.1304e+05
4.1373e+05
4.1407e+05
4.1477e+05
4.151e+05
4.1545e+05
4.1613e+05
4.1648e+05
4.1686e+05
4.1719e+05
4.1819e+05
4.1852e+05
4.189e+05
4.1921e+05
4.1954e+05
4.199e+05
4.2028e+05
4.2138e+05
4.2172e+05
4.2239e+05
4.2272e+05
4.2379e+05
4.2452e+05
4.2487e+05
4.2558e+05
4.2591e+05
4.2659e+05
4.2692e+05
4.2724e+05
4.2759e+05
4.2797e+05
4.283e+05
4.2864e+05
4.2902e+05
4.2937e+05
4.3007e+05
4.3042e+05
4.3154e+05
4.3191e+05
4.3356e+05
4.3389e+05
4.3432e+05
4.3454e+05
4.3513e+05
4.3551e+05
4.357e+05
4.3628e+05
4.3734e+05
4.38e+05
4.3862e+05
4.3915e+05
4.3982e+05
4.4041e+05
4.4103e+05
4.4161e+05
4.4222e+05
4.4282e+05
4.4341e+05
4.44e+05
4.4458e+05
4.4515e+05
4.4574e+05
4.4632e+05
4.4684e+05
4.4749e+05
4.481e+05
4.4865e+05
4.4902e+05
4.4933e+05
4.497e+05
4.5007e+05
4.5044e+05
4.5087e+05
4.5126e+05
4.5162e+05
4.5199e+05
4.5234e+05
4.5268e+05
4.5303e+05
4.5338e+05
4.5403e+05
4.5436e+05
4.5575e+05
4.561e+05
4.568e+05
4.5714e+05
4.5746e+05
4.5781e+05
4.5812e+05
4.5938e+05
4.5997e+05
4.6055e+05
4.6173e+05
4.6232e+05
4.6349e+05
4.6409e+05
4.647e+05
4.6585e+05
4.6651e+05
4.6708e+05
4.9067e+05
4.9374e+05
4.9497e+05
4.9679e+05
4.974e+05
4.9807e+05
4.9864e+05
4.9932e+05
4.9989e+05
5.005e+05
5.011e+05
5.0169e+05
5.023e+05
5.0288e+05
5.0347e+05
5.0407e+05
5.0473e+05
5.0529e+05
5.0591e+05
5.0652e+05
5.0716e+05
5.0773e+05
5.0805e+05
5.0835e+05
5.0868e+05
5.0903e+05
5.0935e+05
5.0968e+05
5.1003e+05
5.1035e+05
5.1071e+05
5.1109e+05
5.1142e+05
5.1179e+05
5.1215e+05
5.1248e+05
5.1286e+05
5.1322e+05
5.1355e+05
5.1391e+05
5.1424e+05
5.1457e+05
5.1493e+05
5.1529e+05
5.1562e+05
5.1598e+05
5.1634e+05
5.1668e+05
5.1705e+05
5.1741e+05
5.1776e+05
5.1813e+05
5.1849e+05
5.1885e+05
5.192e+05
5.1955e+05
5.1992e+05
5.2025e+05
5.2061e+05
5.2098e+05
5.2132e+05
5.217e+05
5.2204e+05
5.2241e+05
5.2277e+05
5.2313e+05
5.2349e+05
5.2386e+05
5.2421e+05
5.2456e+05
5.2493e+05
5.2527e+05
5.2565e+05
5.2603e+05
5.2636e+05
5.2674e+05
5.2711e+05
5.2746e+05
5.2782e+05
5.2817e+05
5.2851e+05
5.2888e+05
5.2924e+05
5.2957e+05
5.2993e+05
5.3028e+05
5.3061e+05
5.3096e+05
5.3129e+05
5.3162e+05
5.3197e+05
5.323e+05
5.3262e+05
5.3298e+05
5.3332e+05
5.3365e+05
5.34e+05
5.3435e+05
5.3467e+05
5.3502e+05
5.3536e+05
5.3569e+05
5.3606e+05
5.3641e+05
5.3674e+05
5.3711e+05
5.3745e+05
5.3778e+05
5.3813e+05
5.3851e+05
5.3885e+05
5.392e+05
5.3958e+05
5.3992e+05
5.4028e+05
5.4065e+05
5.41e+05
5.4138e+05
5.4178e+05
5.4213e+05
5.425e+05
5.4287e+05
5.4321e+05
5.4358e+05
5.4393e+05
5.4405e+05
5.4499e+05
5.4533e+05
5.4572e+05
5.4609e+05
5.4622e+05
5.468e+05
5.4714e+05
5.4727e+05
5.4818e+05
5.4829e+05
5.7134e+05
5.7193e+05
5.7206e+05
5.7337e+05
5.7396e+05
5.7432e+05
5.7444e+05
5.75e+05
5.7537e+05
5.7569e+05
5.7606e+05
5.7714e+05
5.7749e+05
5.7761e+05
5.7815e+05
5.7847e+05
5.7858e+05
5.7903e+05
5.7913e+05
5.7942e+05
5.7974e+05
5.8007e+05
5.8042e+05
5.8074e+05
5.811e+05
5.8148e+05
5.8181e+05
5.8218e+05
5.8254e+05
5.8287e+05
5.8324e+05
5.8358e+05
5.8391e+05
5.8429e+05
5.8463e+05
5.8497e+05
5.8531e+05
5.8572e+05
5.8629e+05
5.8663e+05
5.8696e+05
5.8731e+05
5.8745e+05
5.88e+05
5.8837e+05
5.8872e+05
5.8906e+05
5.8942e+05
5.8977e+05
5.9011e+05
5.9047e+05
5.906e+05
5.9149e+05
5.9163e+05
5.9217e+05
5.9249e+05
5.9284e+05
5.9297e+05
5.9352e+05
5.9388e+05
5.94e+05
5.9455e+05
5.9491e+05
5.9525e+05
5.9595e+05
5.9632e+05
5.9666e+05
5.9704e+05
5.9739e+05
5.9774e+05
5.9811e+05
5.9846e+05
5.988e+05
5.9914e+05
5.9947e+05
5.998e+05
5.9984e+05
6.0014e+05
6.0048e+05
6.0083e+05
6.0118e+05
6.0153e+05
6.0188e+05
6.0222e+05
6.0259e+05
6.0293e+05
6.0297e+05
6.0328e+05
6.0363e+05
6.0397e+05
6.0431e+05
6.0466e+05
6.05e+05
6.0533e+05
6.0567e+05
6.0599e+05
6.0633e+05
6.0669e+05
6.0702e+05
6.0738e+05
6.0773e+05
6.0807e+05
6.0842e+05
6.0878e+05
6.0913e+05
6.0946e+05
6.0982e+05
6.1016e+05
6.1049e+05
6.1085e+05
6.1119e+05
6.1153e+05
6.1189e+05
6.1224e+05
6.1258e+05
6.1293e+05
6.1328e+05
6.1361e+05
6.1396e+05
6.1433e+05
6.1468e+05
6.1504e+05
6.1542e+05
6.1579e+05
6.1615e+05
6.1652e+05
6.1686e+05
6.1721e+05
6.1756e+05
6.179e+05
6.1824e+05
6.186e+05
6.1893e+05
6.1927e+05
6.1962e+05
6.1996e+05
6.2001e+05
6.2031e+05
6.2068e+05
6.2101e+05
6.2136e+05
6.2173e+05
6.2207e+05
6.2243e+05
6.2279e+05
6.2314e+05
6.2347e+05
6.2383e+05
6.2418e+05
6.2451e+05
6.2487e+05
6.2522e+05
6.2556e+05
6.2591e+05
6.2626e+05
6.2659e+05
6.2692e+05
6.2726e+05
6.2759e+05
6.2792e+05
6.2828e+05
6.2862e+05
6.2894e+05
6.293e+05
6.2967e+05
6.3001e+05
6.3037e+05
6.3072e+05
6.3105e+05
6.3141e+05
6.3176e+05
6.3207e+05
6.3242e+05
6.3274e+05
6.3285e+05
6.3339e+05
6.337e+05
6.3401e+05
6.3436e+05
6.3471e+05
6.3503e+05
6.3539e+05
6.3575e+05
6.3608e+05
6.3647e+05
6.3683e+05
6.3718e+05
6.3755e+05
6.3791e+05
6.3826e+05
6.3861e+05
6.3895e+05
6.3928e+05
6.3964e+05
6.3998e+05
6.4032e+05
6.4068e+05
6.4104e+05
6.4139e+05
6.4175e+05
6.4212e+05
6.4247e+05
6.4283e+05
6.432e+05
6.4354e+05
6.439e+05
6.4426e+05
6.446e+05
6.4495e+05
6.453e+05
6.4563e+05
6.4596e+05
6.4637e+05
6.4693e+05
6.4725e+05
6.4756e+05
6.479e+05
6.4825e+05
6.4858e+05
6.4893e+05
6.4927e+05
6.4962e+05
