428
934
1154
1599
1843
2078
2205
2477
2755
2998
3169
3488
3599
3854
4074
4441
4690
4960
5271
5512
5803
5854
6414
6695
6895
7163
7403
7705
7945
8166
8436
8870
9256
9824
10226
10466
10732
10857
11399
11644
11902
12190
12425
12658
12939
13192
13461
13731
13996
14277
14615
14736
15150
15251
15333
15655
15900
16140
16632
16850
17353
17612
18336
18825
19350
19578
19844
20123
20747
21055
21488
21744
22002
22175
22441
22905
23144
23815
24067
24317
24580
24839
25283
26033
26739
26985
27239
27495
27747
28011
28266
28531
28780
29053
29319
29938
30195
30460
30705
30842
31223
31468
31712
32072
32408
32689
32934
33190
33464
33681
34234
34523
34734
35441
35698
35948
36211
36512
36900
37138
37395
37982
38377
38628
39597
40078
40806
41318
41397
41998
42518
43184
43696
43765
44375
44624
44875
45114
45388
45646
45731
46329
46576
46834
47104
47377
47653
47861
48140
48422
48668
48940
49799
49918
50295
50557
50811
51077
51325
51938
53109
53368
53637
53747
54290
54550
54773
54861
55481
55746
55991
56677
56938
57160
57436
57696
57953
58041
58870
58937
59387
59648
59891
60570
60823
61082
61325
61609
61872
62555
63431
63672
64261
64522
65102
65355
65585
66255
66521
67396
67903
68542
68806
69376
69637
69875
70520
70768
70873
71023
71933
72049
72792
72878
73268
73534
73793
74451
75146
75400
75628
75715
76320
76387
76566
76823
77489
77751
77995
78657
78726
79429
79652
79926
80620
80705
80845
81138
81260
81391
81631
81900
82169
82401
82693
82944
83210
83477
83738
84009
84249
84513
85104
85353
85627
86132
87167
87640
87755
87863
88150
88416
88652
88911
89433
89718
89838
90446
90513
90945
91666
91915
91981
92541
92794
93065
93310
93575
94192
94312
94718
95410
95481
95921
96178
96448
96716
97431
97499
97688
97764
98338
98405
98845
99109
99289
1e+05
1.0028e+05
1.0119e+05
1.0168e+05
1.0291e+05
1.0332e+05
1.038e+05
1.0452e+05
1.0501e+05
1.0627e+05
1.0649e+05
1.0703e+05
1.0877e+05
1.1125e+05
1.1403e+05
1.1466e+05
1.1593e+05
1.1617e+05
1.1761e+05
1.1826e+05
1.1849e+05
1.1943e+05
1.1966e+05
1.1995e+05
1.2161e+05
1.2461e+05
1.2564e+05
1.2634e+05
1.2898e+05
1.2949e+05
1.3249e+05
1.3442e+05
1.3536e+05
1.3763e+05
1.3811e+05
1.3886e+05
1.3914e+05
1.3938e+05
1.3964e+05
1.4046e+05
1.4129e+05
1.4153e+05
1.418e+05
1.4209e+05
1.4312e+05
1.4352e+05
1.4428e+05
1.4499e+05
1.4552e+05
1.4797e+05
1.4824e+05
1.4852e+05
1.5174e+05
1.5297e+05
1.534e+05
1.5364e+05
1.5459e+05
1.5509e+05
1.5629e+05
1.5653e+05
1.5877e+05
1.5979e+05
1.6007e+05
1.6035e+05
1.6085e+05
1.6184e+05
1.6213e+05
1.6239e+05
1.6265e+05
1.6352e+05
1.6431e+05
1.6459e+05
1.6551e+05
1.6573e+05
1.6728e+05
1.6776e+05
1.6799e+05
1.6894e+05
1.6916e+05
1.6946e+05
1.7012e+05
1.7035e+05
1.7062e+05
1.709e+05
1.7174e+05
1.7301e+05
1.7324e+05
1.735e+05
1.7379e+05
1.7404e+05
1.743e+05
1.7576e+05
1.7603e+05
1.7629e+05
1.7723e+05
1.7838e+05
1.7864e+05
1.7938e+05
1.7964e+05
1.799e+05
1.8016e+05
1.8042e+05
1.8115e+05
1.8219e+05
1.8245e+05
1.8271e+05
1.8297e+05
1.8357e+05
1.8379e+05
1.8406e+05
1.8432e+05
1.8459e+05
1.8526e+05
1.8548e+05
1.8736e+05
1.8762e+05
1.8786e+05
1.8812e+05
1.8838e+05
1.8865e+05
1.8891e+05
2.0073e+05
2.0281e+05
2.0385e+05
2.0484e+05
2.0607e+05
2.0708e+05
2.0778e+05
2.0854e+05
2.0989e+05
2.1059e+05
2.1136e+05
2.1161e+05
2.1399e+05
2.1572e+05
2.1871e+05
2.2261e+05
2.2419e+05
2.2542e+05
2.2663e+05
2.2781e+05
2.2997e+05
2.3047e+05
2.3347e+05
2.3396e+05
2.3517e+05
2.3686e+05
2.3821e+05
2.3992e+05
2.4163e+05
2.4446e+05
2.46e+05
2.4679e+05
2.476e+05
2.5074e+05
2.5837e+05
2.5917e+05
2.6258e+05
2.6601e+05
2.6712e+05
2.7213e+05
2.7489e+05
2.7608e+05
2.7658e+05
2.788e+05
2.7996e+05
2.8047e+05
2.8115e+05
2.9055e+05
2.9528e+05
2.9717e+05
2.9797e+05
2.9877e+05
2.9903e+05
2.9932e+05
2.9997e+05
3.0022e+05
3.0048e+05
3.0117e+05
3.0141e+05
3.0169e+05
3.0194e+05
3.0259e+05
3.0285e+05
3.0311e+05
3.0376e+05
3.0404e+05
3.0427e+05
3.0498e+05
3.0522e+05
3.0549e+05
3.0576e+05
3.0602e+05
3.0667e+05
3.0694e+05
3.0719e+05
3.0747e+05
3.0772e+05
3.0798e+05
3.0825e+05
3.0851e+05
3.0902e+05
3.0927e+05
3.0953e+05
3.1021e+05
3.1112e+05
3.1166e+05
3.1234e+05
3.1262e+05
3.1285e+05
3.1314e+05
3.1338e+05
3.1365e+05
3.1391e+05
3.1464e+05
3.1561e+05
3.1601e+05
3.165e+05
3.1678e+05
3.1704e+05
3.1729e+05
3.1799e+05
3.1852e+05
3.1876e+05
3.1965e+05
3.2014e+05
3.2041e+05
3.2066e+05
3.2118e+05
3.2145e+05
3.2198e+05
3.2225e+05
3.225e+05
3.2365e+05
3.2409e+05
3.2436e+05
3.2463e+05
3.2488e+05
3.2515e+05
3.2541e+05
3.2567e+05
3.2631e+05
3.2657e+05
3.2682e+05
3.2752e+05
3.2778e+05
3.2804e+05
3.2831e+05
3.2928e+05
3.2979e+05
3.3031e+05
3.3057e+05
3.3083e+05
3.311e+05
3.3136e+05
3.3204e+05
3.3231e+05
3.3256e+05
3.3325e+05
3.3351e+05
3.3376e+05
3.34e+05
3.3429e+05
3.3456e+05
3.3522e+05
3.3549e+05
3.3573e+05
3.3628e+05
3.3654e+05
3.3681e+05
3.374e+05
3.3791e+05
3.3817e+05
3.3915e+05
3.3956e+05
3.3981e+05
3.4008e+05
3.4078e+05
3.4103e+05
3.413e+05
3.4156e+05
3.4183e+05
3.421e+05
3.4236e+05
3.4263e+05
3.429e+05
3.4442e+05
3.4487e+05
3.4513e+05
3.4539e+05
3.4565e+05
3.4591e+05
3.4618e+05
3.4644e+05
3.4674e+05
3.4784e+05
3.4829e+05
3.4855e+05
3.488e+05
3.4951e+05
3.4976e+05
3.5004e+05
3.5029e+05
3.5056e+05
3.511e+05
3.5138e+05
3.5165e+05
3.5243e+05
3.5391e+05
3.5435e+05
3.5513e+05
3.5539e+05
3.5566e+05
3.5592e+05
3.5619e+05
3.5646e+05
3.5673e+05
3.5699e+05
3.5818e+05
3.5862e+05
3.5888e+05
3.5914e+05
3.5979e+05
3.6278e+05
3.6485e+05
3.6512e+05
3.6537e+05
3.6564e+05
3.6591e+05
3.6695e+05
3.6736e+05
3.6765e+05
3.6789e+05
3.6815e+05
3.6842e+05
3.687e+05
3.6898e+05
3.6922e+05
3.7009e+05
3.7107e+05
3.7153e+05
3.718e+05
3.7205e+05
3.7231e+05
3.7258e+05
3.7365e+05
3.7393e+05
3.7481e+05
3.7508e+05
3.7535e+05
3.756e+05
3.7628e+05
3.7655e+05
3.768e+05
3.7707e+05
3.7733e+05
3.776e+05
3.7786e+05
3.7813e+05
3.7841e+05
3.8052e+05
3.8096e+05
3.8122e+05
3.815e+05
3.8175e+05
3.8202e+05
3.8228e+05
3.8255e+05
3.8282e+05
3.8309e+05
3.8336e+05
3.8362e+05
3.8389e+05
3.8489e+05
3.8543e+05
3.8569e+05
3.8597e+05
3.8622e+05
3.8649e+05
3.8675e+05
3.8701e+05
3.8728e+05
3.8754e+05
3.8827e+05
3.888e+05
3.8933e+05
3.8957e+05
3.9028e+05
3.9147e+05
3.9175e+05
3.9201e+05
3.9226e+05
3.9253e+05
3.928e+05
3.9306e+05
3.9399e+05
3.9494e+05
3.9536e+05
3.9563e+05
3.9588e+05
3.9614e+05
4.0494e+05
4.9662e+05
4.9688e+05
4.9846e+05
5.2186e+05
5.2358e+05
5.2927e+05
5.3639e+05
5.3666e+05
5.3692e+05
5.3718e+05
5.3746e+05
5.3771e+05
5.38e+05
5.391e+05
5.3953e+05
5.398e+05
5.4006e+05
5.4032e+05
5.4058e+05
5.4089e+05
5.4112e+05
5.4211e+05
5.4269e+05
5.4294e+05
5.4319e+05
5.4346e+05
5.4368e+05
5.445e+05
5.4478e+05
5.4505e+05
5.4578e+05
5.4677e+05
5.4725e+05
5.4748e+05
5.4777e+05
5.4803e+05
5.483e+05
5.4856e+05
5.4883e+05
5.491e+05
5.5044e+05
5.5072e+05
5.5188e+05
5.5233e+05
5.5256e+05
5.5498e+05
5.5594e+05
5.5647e+05
5.5672e+05
5.5701e+05
5.5725e+05
5.5752e+05
5.578e+05
5.5806e+05
5.597e+05
5.6079e+05
5.6123e+05
5.6147e+05
5.6174e+05
5.6203e+05
5.623e+05
5.6363e+05
5.6391e+05
5.642e+05
5.649e+05
5.6567e+05
5.6593e+05
5.6623e+05
5.6648e+05
5.6675e+05
5.6868e+05
5.704e+05
5.7201e+05
5.7331e+05
5.7472e+05
5.7498e+05
5.7523e+05
5.7553e+05
5.758e+05
5.7609e+05
5.7632e+05
5.7746e+05
5.7791e+05
5.7814e+05
5.7841e+05
5.7871e+05
5.7898e+05
5.8035e+05
5.8064e+05
5.809e+05
5.8227e+05
5.8249e+05
5.836e+05
5.8387e+05
5.8458e+05
5.8558e+05
5.86e+05
5.8837e+05
5.8887e+05
5.9104e+05
5.9132e+05
5.9436e+05
5.9577e+05
5.9603e+05
5.9704e+05
5.9818e+05
5.9872e+05
5.9916e+05
5.9944e+05
6.0155e+05
6.071e+05
6.1956e+05
6.2055e+05
6.2262e+05
6.243e+05
6.2509e+05
6.259e+05
6.3578e+05
6.3604e+05
6.363e+05
6.3657e+05
6.3685e+05
6.3711e+05
6.3738e+05
6.3765e+05
6.3792e+05
6.3887e+05
6.3937e+05
6.3964e+05
6.399e+05
6.4017e+05
6.4044e+05
6.4071e+05
6.4097e+05
6.4124e+05
6.4152e+05
6.4177e+05
6.4207e+05
6.4319e+05
6.4377e+05
6.4399e+05
6.4428e+05
6.4453e+05
6.4482e+05
6.4507e+05
6.4537e+05
6.4566e+05
6.459e+05
6.4615e+05
6.4645e+05
6.4709e+05
6.4731e+05
6.4759e+05
6.4788e+05
6.4815e+05
6.4878e+05
6.4903e+05
-1
604
844
1047
1343
1772
2007
2355
2398
2635
2942
3302
3780
4011
4215
4626
4858
5119
5458
5492
5693
5736
6599
6631
6822
7085
7341
7600
7854
8103
8358
9054
9351
9961
10003
10408
10646
10697
10989
11047
11574
11813
12081
12142
12344
12600
12851
12895
13106
13366
13631
13898
14165
14224
14425
14474
15836
16074
16330
16775
17028
17273
17488
17527
17786
18520
19000
19237
19275
19499
19547
19751
19812
19968
20014
20275
20920
21240
21677
21912
21949
22140
22347
22647
22847
22880
23073
23331
24001
24228
24492
24749
25042
25462
26211
26919
27159
27412
27668
27927
28188
28445
28695
28953
29220
29479
30118
30167
30364
30621
30984
31016
31401
31642
31680
31897
32252
32584
32634
32829
33100
33355
33415
33617
33873
34418
34468
34661
34929
35621
35857
36127
36392
36648
37083
37317
37596
38122
38305
38541
38808
39070
39777
40013
40274
40316
40984
41028
41230
41648
42248
42418
42689
43357
43603
43971
44550
44792
45053
45304
45565
45892
46504
46742
47018
47282
47548
47794
47835
48059
48321
48582
48846
49112
50108
50475
50522
50724
50983
51042
51239
51502
52119
52165
52362
52630
53294
53536
54468
54512
54706
55660
55704
55903
56860
56898
57355
57612
57873
59569
59807
60066
60750
60998
61265
61525
61788
62049
62739
62780
62978
63603
63835
64442
64680
64722
65284
65518
65778
66434
66674
66935
67656
67813
68080
68721
68951
69555
69793
70049
70699
71204
71455
72194
72354
73048
73203
73459
73709
73972
74624
75325
75565
76682
76990
77908
78121
78906
79083
79344
79596
80101
81035
81361
81554
81814
82289
82557
82859
83123
83385
83652
83918
84180
84445
84702
85285
85532
85801
86065
87343
88059
88589
88848
89102
89362
89630
89992
90676
90825
91845
92159
92719
93752
94439
94622
94852
95668
96052
96361
96631
96892
98599
98758
99028
99448
99463
99810
1.0015e+05
1.0042e+05
1.0065e+05
1.0077e+05
1.0151e+05
1.0152e+05
1.0185e+05
1.0213e+05
1.0306e+05
1.0364e+05
1.0365e+05
1.0483e+05
1.0485e+05
1.052e+05
1.0635e+05
1.0684e+05
1.0737e+05
1.0892e+05
1.1158e+05
1.1423e+05
1.1496e+05
1.1498e+05
1.1549e+05
1.1611e+05
1.1652e+05
1.1653e+05
1.178e+05
1.1835e+05
1.1885e+05
1.1961e+05
1.1982e+05
1.2027e+05
1.2028e+05
1.2197e+05
1.2333e+05
1.2334e+05
1.2492e+05
1.2494e+05
1.2553e+05
1.2578e+05
1.2666e+05
1.2668e+05
1.2929e+05
1.2931e+05
1.2983e+05
1.3285e+05
1.346e+05
1.3568e+05
1.3778e+05
1.382e+05
1.385e+05
1.3877e+05
1.3906e+05
1.3931e+05
1.3956e+05
1.3988e+05
1.4039e+05
1.4066e+05
1.411e+05
1.4147e+05
1.4173e+05
1.4197e+05
1.4223e+05
1.433e+05
1.4384e+05
1.4422e+05
1.4447e+05
1.4539e+05
1.4569e+05
1.4754e+05
1.4755e+05
1.4814e+05
1.4841e+05
1.4886e+05
1.5164e+05
1.5209e+05
1.5312e+05
1.5356e+05
1.5398e+05
1.5498e+05
1.5543e+05
1.5577e+05
1.5645e+05
1.5688e+05
1.5843e+05
1.5865e+05
1.591e+05
1.5999e+05
1.6026e+05
1.6052e+05
1.6078e+05
1.6102e+05
1.6201e+05
1.623e+05
1.6256e+05
1.628e+05
1.6387e+05
1.6451e+05
1.6475e+05
1.6504e+05
1.6569e+05
1.661e+05
1.6743e+05
1.6794e+05
1.6834e+05
1.6912e+05
1.6936e+05
1.6961e+05
1.7027e+05
1.7055e+05
1.708e+05
1.7105e+05
1.7194e+05
1.7236e+05
1.7319e+05
1.7343e+05
1.7368e+05
1.7394e+05
1.7423e+05
1.7447e+05
1.757e+05
1.7597e+05
1.762e+05
1.7649e+05
1.7675e+05
1.7754e+05
1.7756e+05
1.7853e+05
1.7877e+05
1.7922e+05
1.7923e+05
1.7957e+05
1.7983e+05
1.8006e+05
1.8033e+05
1.8062e+05
1.8147e+05
1.8148e+05
1.8234e+05
1.826e+05
1.8288e+05
1.8315e+05
1.8374e+05
1.8399e+05
1.8426e+05
1.8451e+05
1.8478e+05
1.8544e+05
1.8584e+05
1.8754e+05
1.8776e+05
1.8805e+05
1.8832e+05
1.8859e+05
1.8884e+05
1.8911e+05
1.9867e+05
1.9893e+05
1.996e+05
1.9965e+05
1.9984e+05
2.0011e+05
2.0037e+05
2.0091e+05
2.0096e+05
2.0116e+05
2.0142e+05
2.0169e+05
2.0195e+05
2.0221e+05
2.0298e+05
2.0303e+05
2.0323e+05
2.035e+05
2.0377e+05
2.0404e+05
2.043e+05
2.0501e+05
2.0506e+05
2.0526e+05
2.0553e+05
2.0624e+05
2.0629e+05
2.0648e+05
2.0676e+05
2.0702e+05
2.0728e+05
2.0796e+05
2.082e+05
2.0848e+05
2.0875e+05
2.093e+05
2.0935e+05
2.0954e+05
2.0981e+05
2.1007e+05
2.1078e+05
2.1083e+05
2.1102e+05
2.1129e+05
2.1154e+05
2.1181e+05
2.1208e+05
2.1235e+05
2.1262e+05
2.1289e+05
2.1316e+05
2.1343e+05
2.1416e+05
2.1421e+05
2.1441e+05
2.1468e+05
2.1495e+05
2.1523e+05
2.159e+05
2.1615e+05
2.1643e+05
2.167e+05
2.1727e+05
2.1752e+05
2.1779e+05
2.1806e+05
2.1833e+05
2.1889e+05
2.1893e+05
2.1913e+05
2.1941e+05
2.1968e+05
2.1995e+05
2.2064e+05
2.2069e+05
2.2088e+05
2.2116e+05
2.2144e+05
2.2201e+05
2.2206e+05
2.2225e+05
2.2253e+05
2.2279e+05
2.2307e+05
2.2334e+05
2.2361e+05
2.2437e+05
2.2442e+05
2.2463e+05
2.249e+05
2.2559e+05
2.2564e+05
2.2584e+05
2.2611e+05
2.2681e+05
2.2685e+05
2.2704e+05
2.2731e+05
2.2799e+05
2.2804e+05
2.2824e+05
2.285e+05
2.2876e+05
2.2903e+05
2.3015e+05
2.3065e+05
2.307e+05
2.3091e+05
2.3118e+05
2.3145e+05
2.3172e+05
2.3199e+05
2.3226e+05
2.3253e+05
2.3365e+05
2.3414e+05
2.342e+05
2.3439e+05
2.3466e+05
2.3535e+05
2.354e+05
2.356e+05
2.3587e+05
2.3614e+05
2.3641e+05
2.3705e+05
2.371e+05
2.373e+05
2.3758e+05
2.3784e+05
2.3839e+05
2.3844e+05
2.3863e+05
2.3891e+05
2.3918e+05
2.3945e+05
2.4011e+05
2.4016e+05
2.4036e+05
2.4063e+05
2.409e+05
2.4116e+05
2.418e+05
2.4186e+05
2.4206e+05
2.4234e+05
2.426e+05
2.4287e+05
2.4314e+05
2.4341e+05
2.4369e+05
2.4433e+05
2.4437e+05
2.4461e+05
2.4488e+05
2.4619e+05
2.4623e+05
2.4696e+05
2.4703e+05
2.4726e+05
2.4779e+05
2.4784e+05
2.4831e+05
2.4837e+05
2.4857e+05
2.4861e+05
2.4988e+05
2.4992e+05
2.5014e+05
2.5018e+05
2.5041e+05
2.5067e+05
2.5093e+05
2.5204e+05
2.5227e+05
2.5281e+05
2.5285e+05
2.5309e+05
2.5313e+05
2.5336e+05
2.534e+05
2.5363e+05
2.539e+05
2.5581e+05
2.5587e+05
2.5609e+05
2.5635e+05
2.564e+05
2.5662e+05
2.5776e+05
2.5856e+05
2.5863e+05
2.5889e+05
2.591e+05
2.5937e+05
2.5962e+05
2.5965e+05
2.5992e+05
2.5995e+05
2.6018e+05
2.6045e+05
2.6049e+05
2.6072e+05
2.6076e+05
2.6277e+05
2.6305e+05
2.633e+05
2.6474e+05
2.6481e+05
2.65e+05
2.6526e+05
2.6553e+05
2.6619e+05
2.6624e+05
2.6643e+05
2.6647e+05
2.667e+05
2.6675e+05
2.6733e+05
2.6737e+05
2.6822e+05
2.6826e+05
2.6873e+05
2.6939e+05
2.6944e+05
2.6962e+05
2.708e+05
2.7107e+05
2.7133e+05
2.7159e+05
2.7231e+05
2.7235e+05
2.7333e+05
2.7359e+05
2.7385e+05
2.7412e+05
2.7438e+05
2.7507e+05
2.7512e+05
2.7532e+05
2.7559e+05
2.7625e+05
2.763e+05
2.765e+05
2.7677e+05
2.7703e+05
2.7781e+05
2.7786e+05
2.7805e+05
2.7832e+05
2.7897e+05
2.7902e+05
2.7921e+05
2.7947e+05
2.8014e+05
2.8018e+05
2.8039e+05
2.8065e+05
2.8134e+05
2.8138e+05
2.8185e+05
2.8212e+05
2.8281e+05
2.8305e+05
2.8331e+05
2.8398e+05
2.8402e+05
2.8421e+05
2.854e+05
2.8567e+05
2.8789e+05
2.8816e+05
2.8843e+05
2.8869e+05
2.8895e+05
2.8922e+05
2.8949e+05
2.8976e+05
2.9003e+05
2.9072e+05
2.9077e+05
2.9098e+05
2.9125e+05
2.9152e+05
2.9178e+05
2.9271e+05
2.9275e+05
2.9519e+05
2.9547e+05
2.9667e+05
2.9735e+05
2.9741e+05
2.976e+05
2.9813e+05
2.9891e+05
2.9919e+05
2.9947e+05
3.0015e+05
3.0039e+05
3.0067e+05
3.0135e+05
3.0159e+05
3.0185e+05
3.0211e+05
3.0276e+05
3.028e+05
3.0301e+05
3.0327e+05
3.0394e+05
3.0419e+05
3.0445e+05
3.0516e+05
3.0541e+05
3.0567e+05
3.0593e+05
3.0619e+05
3.0686e+05
3.069e+05
3.071e+05
3.0737e+05
3.0763e+05
3.079e+05
3.0816e+05
3.0843e+05
3.087e+05
3.092e+05
3.0944e+05
3.0971e+05
3.1038e+05
3.1043e+05
3.1063e+05
3.1067e+05
3.1131e+05
3.1155e+05
3.1182e+05
3.1253e+05
3.1256e+05
3.1276e+05
3.1303e+05
3.133e+05
3.1356e+05
3.1382e+05
3.1408e+05
3.1482e+05
3.1579e+05
3.162e+05
3.1625e+05
3.1642e+05
3.1665e+05
3.1669e+05
3.1696e+05
3.1721e+05
3.1747e+05
3.1817e+05
3.1821e+05
3.1845e+05
3.1847e+05
3.1868e+05
3.1893e+05
3.1898e+05
3.1983e+05
3.2032e+05
3.2057e+05
3.2083e+05
3.2136e+05
3.2162e+05
3.2215e+05
3.2241e+05
3.2269e+05
3.2383e+05
3.2428e+05
3.2453e+05
3.248e+05
3.2506e+05
3.2532e+05
3.2559e+05
3.2586e+05
3.2649e+05
3.2653e+05
3.2673e+05
3.27e+05
3.2769e+05
3.2795e+05
3.2822e+05
3.2848e+05
3.2946e+05
3.2997e+05
3.3002e+05
3.3022e+05
3.3048e+05
3.3075e+05
3.3101e+05
3.3127e+05
3.3154e+05
3.3223e+05
3.3227e+05
3.3247e+05
3.3273e+05
3.3343e+05
3.3348e+05
3.3367e+05
3.3394e+05
3.3421e+05
3.3447e+05
3.3473e+05
3.3541e+05
3.3565e+05
3.3593e+05
3.3645e+05
3.3672e+05
3.3699e+05
3.3757e+05
3.3762e+05
3.3782e+05
3.3809e+05
3.3836e+05
3.3932e+05
3.3974e+05
3.3999e+05
3.4026e+05
3.4096e+05
3.41e+05
3.412e+05
3.4147e+05
3.4174e+05
3.4201e+05
3.4227e+05
3.4254e+05
3.428e+05
3.4307e+05
3.446e+05
3.4505e+05
3.451e+05
3.453e+05
3.4556e+05
3.4582e+05
3.4609e+05
3.4636e+05
3.4663e+05
3.469e+05
3.4802e+05
3.4847e+05
3.4871e+05
3.4897e+05
3.4969e+05
3.4993e+05
3.502e+05
3.5047e+05
3.5074e+05
3.5129e+05
3.5155e+05
3.5182e+05
3.5261e+05
3.5409e+05
3.5454e+05
3.5531e+05
3.5558e+05
3.5584e+05
3.561e+05
3.5637e+05
3.5664e+05
3.569e+05
3.5717e+05
3.5835e+05
3.588e+05
3.5905e+05
3.5932e+05
3.5998e+05
3.6002e+05
3.6295e+05
3.6503e+05
3.6529e+05
3.6555e+05
3.6583e+05
3.6609e+05
3.6714e+05
3.6755e+05
3.676e+05
3.678e+05
3.6806e+05
3.6833e+05
3.686e+05
3.6887e+05
3.6914e+05
3.694e+05
3.7028e+05
3.7125e+05
3.7171e+05
3.7176e+05
3.7196e+05
3.7223e+05
3.725e+05
3.7276e+05
3.7383e+05
3.7387e+05
3.7406e+05
3.7499e+05
3.7504e+05
3.7524e+05
3.7551e+05
3.7577e+05
3.7646e+05
3.7651e+05
3.7671e+05
3.7698e+05
3.7724e+05
3.7751e+05
3.7778e+05
3.7804e+05
3.7831e+05
3.7858e+05
3.8071e+05
3.8114e+05
3.8139e+05
3.8167e+05
3.8193e+05
3.8219e+05
3.8246e+05
3.8273e+05
3.83e+05
3.8327e+05
3.8353e+05
3.838e+05
3.8407e+05
3.8506e+05
3.8561e+05
3.8586e+05
3.8613e+05
3.864e+05
3.8666e+05
3.8692e+05
3.8719e+05
3.8745e+05
3.8772e+05
3.8845e+05
3.8897e+05
3.8902e+05
3.8948e+05
3.8975e+05
3.9045e+05
3.905e+05
3.9166e+05
3.917e+05
3.919e+05
3.9217e+05
3.9245e+05
3.9271e+05
3.9297e+05
3.9324e+05
3.9417e+05
3.9512e+05
3.9554e+05
3.9559e+05
3.9579e+05
3.9606e+05
3.9631e+05
3.9814e+05
3.9851e+05
3.9883e+05
3.9914e+05
3.9949e+05
3.9979e+05
4.0008e+05
4.0033e+05
4.0073e+05
4.008e+05
4.0115e+05
4.018e+05
4.0296e+05
4.0334e+05
4.0364e+05
4.039e+05
4.0416e+05
4.0442e+05
4.0462e+05
4.048e+05
4.0522e+05
4.054e+05
4.0625e+05
4.0858e+05
4.3751e+05
4.3776e+05
4.3803e+05
4.383e+05
4.3857e+05
4.3883e+05
4.391e+05
4.3937e+05
4.3964e+05
4.3992e+05
4.4019e+05
4.4083e+05
4.4108e+05
4.4135e+05
4.4202e+05
4.4226e+05
4.4253e+05
4.428e+05
4.4307e+05
4.4334e+05
4.4361e+05
4.4388e+05
4.4464e+05
4.4614e+05
4.4638e+05
4.4665e+05
4.4696e+05
4.4722e+05
4.4747e+05
4.477e+05
4.4794e+05
4.4818e+05
4.4896e+05
4.4937e+05
4.4961e+05
4.4988e+05
4.5014e+05
4.5041e+05
4.5244e+05
4.5291e+05
4.5315e+05
4.5341e+05
4.5368e+05
4.5394e+05
4.5421e+05
4.5447e+05
4.5474e+05
4.55e+05
4.5526e+05
4.5553e+05
4.5646e+05
4.5714e+05
4.5741e+05
4.5767e+05
4.5793e+05
4.5819e+05
4.5846e+05
4.5873e+05
4.59e+05
4.5926e+05
4.5953e+05
4.6066e+05
4.6148e+05
4.6241e+05
4.6332e+05
4.6385e+05
4.6409e+05
4.6435e+05
4.646e+05
4.6486e+05
4.6512e+05
4.6538e+05
4.6564e+05
4.6589e+05
4.6748e+05
4.679e+05
4.6815e+05
4.6842e+05
4.6867e+05
4.6893e+05
4.6918e+05
4.7022e+05
4.7048e+05
4.7119e+05
4.7174e+05
4.7198e+05
4.7224e+05
4.7251e+05
4.7277e+05
4.7303e+05
4.733e+05
4.748e+05
4.752e+05
4.7544e+05
4.7571e+05
4.7596e+05
4.7622e+05
4.7649e+05
4.7675e+05
4.7726e+05
4.7753e+05
4.7779e+05
4.7806e+05
4.7832e+05
4.7858e+05
4.8018e+05
4.8023e+05
4.8059e+05
4.8085e+05
4.8138e+05
4.8163e+05
4.8189e+05
4.8215e+05
4.8339e+05
4.8392e+05
4.8417e+05
4.8482e+05
4.8506e+05
4.8533e+05
4.8602e+05
4.8626e+05
4.8652e+05
4.8679e+05
4.8705e+05
4.8732e+05
4.8759e+05
4.8785e+05
4.8862e+05
4.9012e+05
4.9056e+05
4.9081e+05
4.9106e+05
4.9132e+05
4.9159e+05
4.9185e+05
4.9211e+05
4.9238e+05
4.9265e+05
4.9291e+05
4.9397e+05
4.9488e+05
4.9578e+05
4.9628e+05
4.9677e+05
4.9721e+05
4.9878e+05
5.2218e+05
5.222e+05
5.2373e+05
5.296e+05
5.3657e+05
5.368e+05
5.3706e+05
5.3736e+05
5.3764e+05
5.3791e+05
5.3817e+05
5.3925e+05
5.3971e+05
5.3994e+05
5.4023e+05
5.4046e+05
5.4077e+05
5.4103e+05
5.413e+05
5.4227e+05
5.4281e+05
5.4307e+05
5.4362e+05
5.4404e+05
5.4465e+05
5.4492e+05
5.4522e+05
5.4593e+05
5.4695e+05
5.4744e+05
5.4768e+05
5.4794e+05
5.4847e+05
5.4898e+05
5.4944e+05
5.5063e+05
5.509e+05
5.5206e+05
5.5251e+05
5.5292e+05
5.5516e+05
5.5611e+05
5.569e+05
5.5717e+05
5.5743e+05
5.577e+05
5.5797e+05
5.5841e+05
5.5984e+05
5.6094e+05
5.6141e+05
5.6164e+05
5.6194e+05
5.6221e+05
5.6264e+05
5.6383e+05
5.6411e+05
5.6438e+05
5.6508e+05
5.6583e+05
5.6611e+05
5.6636e+05
5.6666e+05
5.6709e+05
5.6903e+05
5.7073e+05
5.7221e+05
5.735e+05
5.7489e+05
5.7516e+05
5.7543e+05
5.7571e+05
5.7596e+05
5.7625e+05
5.7652e+05
5.7761e+05
5.7808e+05
5.7831e+05
5.7859e+05
5.7933e+05
5.8053e+05
5.8078e+05
5.8108e+05
5.8244e+05
5.8286e+05
5.8378e+05
5.8405e+05
5.8472e+05
5.8576e+05
5.8632e+05
5.8852e+05
5.8946e+05
5.9117e+05
5.9164e+05
5.9452e+05
5.9601e+05
5.9633e+05
5.9721e+05
5.9886e+05
5.9906e+05
5.9933e+05
5.9975e+05
6.0189e+05
6.0741e+05
6.1988e+05
6.199e+05
6.2089e+05
6.2282e+05
6.2324e+05
6.2463e+05
6.2541e+05
6.2621e+05
6.3593e+05
6.3622e+05
6.3645e+05
6.3675e+05
6.3699e+05
6.3726e+05
6.3756e+05
6.3783e+05
6.3809e+05
6.3903e+05
6.3955e+05
6.3981e+05
6.4008e+05
6.4033e+05
6.4062e+05
6.4089e+05
6.4115e+05
6.4142e+05
6.4169e+05
6.4197e+05
6.4222e+05
6.4337e+05
6.4391e+05
6.4419e+05
6.4446e+05
6.4473e+05
6.4501e+05
6.4528e+05
6.4555e+05
6.4581e+05
6.4608e+05
6.4635e+05
6.4659e+05
6.4724e+05
6.4749e+05
6.4776e+05
6.4806e+05
6.4831e+05
6.4893e+05
6.4918e+05
