272
699
915
1335
1770
1985
2404
2623
2834
3260
3471
3681
3892
4109
4324
4747
5171
5390
5532
5997
6204
6416
6631
6841
7051
7262
7662
7878
8300
8509
8716
9143
9350
9556
9765
10175
10302
10601
11009
11218
11644
12056
12266
12684
13110
13316
13515
13930
14140
14544
14953
15159
15363
15977
16394
16600
16804
17005
17208
17826
18030
18433
18638
18846
19052
19256
19657
19865
20070
20440
20685
21088
21301
21506
21716
21917
22123
22530
22942
23149
23554
23964
24175
24375
24582
24787
25202
25404
25809
26231
26439
26849
27056
27261
27680
27889
28057
28496
28706
29114
29316
29690
29875
30102
30312
30513
30716
30891
31126
31332
31539
31737
32140
32341
32540
32745
32945
33342
33547
33751
34146
34347
34550
34752
34956
35358
35560
35757
35960
36165
36365
36561
36679
36957
37154
37355
37558
37751
37953
38148
38348
38554
38753
38956
39155
39356
39555
39760
40167
40373
40571
40779
40988
41190
41397
41565
41805
42009
42220
42431
42848
43264
43477
43886
44302
44507
44933
45347
45772
46198
46402
46814
46935
47211
47429
47845
48263
48677
49087
49296
49506
49921
50132
50544
50969
51097
51389
51810
52029
52449
52870
53302
53923
54345
54561
54984
55408
55630
56053
56475
56878
57095
57513
57938
58159
58575
59006
59430
59859
60072
60504
60687
60847
61142
61354
61561
61979
62190
62601
62815
63240
63655
63867
64073
64284
64497
64703
65111
65530
65737
65939
66347
66549
66757
67089
67336
67541
67750
67962
68167
68575
68986
69201
69615
70030
70243
70303
70662
71076
71286
71490
71906
72112
72316
72732
72946
73359
73759
73971
74183
74401
74608
74817
75028
75242
75450
75657
76071
76493
76709
77132
77558
77989
78200
78409
78621
78832
79042
79261
79467
79791
80096
80313
80680
80934
81351
81561
81776
81986
82614
82825
83035
83243
83450
83659
83868
84078
84430
84696
84906
85118
85324
85735
85942
86146
86360
86576
86780
86987
87405
87828
88035
88452
88870
89085
89293
89500
89712
89931
90139
90352
90563
90773
90980
91195
91408
91617
91825
92240
92666
92874
93081
93703
94131
94345
94548
94765
94982
95403
95619
95680
96044
96260
96476
96690
96896
97325
97540
97752
97963
98174
98598
98817
99031
99793
1.0064e+05
1.0107e+05
1.0298e+05
1.0385e+05
1.0427e+05
1.0556e+05
1.0683e+05
1.0769e+05
1.0854e+05
1.0939e+05
1.1199e+05
1.1286e+05
1.1329e+05
1.1415e+05
1.1544e+05
1.1631e+05
1.1801e+05
1.1886e+05
1.1973e+05
1.2059e+05
1.2146e+05
1.2232e+05
1.2426e+05
1.2512e+05
1.26e+05
1.273e+05
1.2815e+05
1.2901e+05
1.2987e+05
1.3327e+05
1.3412e+05
1.3497e+05
1.3583e+05
1.3669e+05
1.3754e+05
1.3841e+05
1.3928e+05
1.4098e+05
1.4184e+05
1.4269e+05
1.4355e+05
1.4593e+05
1.4637e+05
1.4657e+05
1.4702e+05
1.4746e+05
1.4811e+05
1.4855e+05
1.4942e+05
1.5009e+05
1.5071e+05
1.5266e+05
1.5351e+05
1.5414e+05
1.5793e+05
1.5855e+05
1.6106e+05
1.6232e+05
1.6258e+05
1.6382e+05
1.6424e+05
1.6554e+05
1.664e+05
1.6728e+05
1.6904e+05
1.6991e+05
1.7076e+05
1.7161e+05
1.7332e+05
1.7417e+05
1.7502e+05
1.7671e+05
1.7756e+05
1.78e+05
1.7928e+05
1.8012e+05
1.8098e+05
1.8182e+05
1.8267e+05
1.8352e+05
1.8437e+05
1.8542e+05
1.8628e+05
1.8713e+05
1.88e+05
1.8885e+05
1.9036e+05
1.9121e+05
1.9207e+05
1.9336e+05
1.9422e+05
1.9508e+05
1.9869e+05
1.9954e+05
2.004e+05
2.0124e+05
2.0207e+05
2.0292e+05
2.0441e+05
2.0492e+05
2.0503e+05
2.0535e+05
2.0556e+05
2.0577e+05
2.0621e+05
2.0643e+05
2.0664e+05
2.0708e+05
2.0752e+05
2.0774e+05
2.0795e+05
2.0839e+05
2.086e+05
2.0882e+05
2.0925e+05
2.0947e+05
2.0968e+05
2.1011e+05
2.1033e+05
2.1055e+05
2.1098e+05
2.112e+05
2.1142e+05
2.1228e+05
2.1272e+05
2.1294e+05
2.1316e+05
2.1337e+05
2.1358e+05
2.1401e+05
2.1422e+05
2.1443e+05
2.1465e+05
2.1487e+05
2.1529e+05
2.1551e+05
2.1573e+05
2.1616e+05
2.1638e+05
2.1659e+05
2.1702e+05
2.1724e+05
2.1746e+05
2.1788e+05
2.1809e+05
2.183e+05
2.1873e+05
2.1894e+05
2.1915e+05
2.1958e+05
2.1979e+05
2.2022e+05
2.2043e+05
2.2065e+05
2.2087e+05
2.2108e+05
2.2151e+05
2.2172e+05
2.2194e+05
2.2215e+05
2.2237e+05
2.2257e+05
2.232e+05
2.2364e+05
2.2385e+05
2.2406e+05
2.2429e+05
2.2469e+05
2.2491e+05
2.2512e+05
2.2533e+05
2.2554e+05
2.2567e+05
2.2597e+05
2.263e+05
2.266e+05
2.2703e+05
2.2745e+05
2.2788e+05
2.283e+05
2.2853e+05
2.2874e+05
2.2916e+05
2.2959e+05
2.2981e+05
2.3001e+05
2.3022e+05
2.3043e+05
2.3064e+05
2.3086e+05
2.3148e+05
2.3191e+05
2.3234e+05
2.3255e+05
2.3298e+05
2.3342e+05
2.3364e+05
2.3385e+05
2.3406e+05
2.3428e+05
2.3471e+05
2.3492e+05
2.3513e+05
2.3555e+05
2.3577e+05
2.3599e+05
2.3641e+05
2.3663e+05
2.3685e+05
2.3727e+05
2.3749e+05
2.3792e+05
2.3813e+05
2.3835e+05
2.3856e+05
2.3877e+05
2.3898e+05
2.392e+05
2.3941e+05
2.3962e+05
2.3982e+05
2.4003e+05
2.4045e+05
2.4066e+05
2.4108e+05
2.4151e+05
2.4185e+05
2.4215e+05
2.4354e+05
2.4417e+05
2.445e+05
2.4492e+05
2.4542e+05
2.4605e+05
2.4639e+05
2.4683e+05
2.4731e+05
2.4794e+05
2.4836e+05
2.4917e+05
2.4979e+05
2.5022e+05
2.5106e+05
2.5255e+05
2.5298e+05
2.5383e+05
2.5446e+05
2.5509e+05
2.5637e+05
2.5683e+05
2.5763e+05
2.5849e+05
2.5935e+05
2.6021e+05
2.623e+05
2.6272e+05
2.6335e+05
2.6419e+05
2.6504e+05
2.6568e+05
2.6654e+05
2.6741e+05
2.6827e+05
2.6914e+05
2.6999e+05
2.7084e+05
2.7168e+05
2.7233e+05
2.7404e+05
2.7489e+05
2.7552e+05
2.7724e+05
2.7787e+05
2.7831e+05
2.7892e+05
2.8332e+05
2.8344e+05
2.8394e+05
2.8478e+05
2.8709e+05
2.8833e+05
2.9062e+05
2.9227e+05
2.9268e+05
2.931e+05
2.9393e+05
2.9456e+05
2.959e+05
2.9624e+05
2.9814e+05
2.9899e+05
2.9983e+05
3.0068e+05
3.0131e+05
3.0238e+05
3.0364e+05
3.0499e+05
3.0516e+05
3.0553e+05
3.0636e+05
3.0678e+05
3.074e+05
3.0779e+05
3.0824e+05
3.0909e+05
3.095e+05
3.1014e+05
3.1055e+05
3.1098e+05
3.1161e+05
3.1203e+05
3.1267e+05
3.1309e+05
3.1351e+05
3.1415e+05
3.1458e+05
3.1522e+05
3.1607e+05
3.165e+05
3.1735e+05
3.182e+05
3.1883e+05
3.1924e+05
3.2051e+05
3.2136e+05
3.2221e+05
3.2305e+05
3.2368e+05
3.2452e+05
3.2535e+05
3.2638e+05
3.3493e+05
3.3767e+05
3.3849e+05
3.4094e+05
3.4156e+05
3.452e+05
3.4744e+05
3.4785e+05
3.4826e+05
3.5177e+05
3.5322e+05
3.5364e+05
3.5427e+05
3.5468e+05
3.5572e+05
3.5614e+05
3.5677e+05
3.572e+05
3.5783e+05
3.5951e+05
3.5994e+05
3.6036e+05
3.6122e+05
3.6206e+05
3.6269e+05
3.6396e+05
3.6479e+05
3.6563e+05
3.6647e+05
3.6773e+05
3.6898e+05
3.694e+05
3.7064e+05
3.7251e+05
3.7334e+05
3.7499e+05
3.7561e+05
3.7685e+05
3.7728e+05
3.7788e+05
3.7831e+05
3.7892e+05
3.7933e+05
3.7994e+05
3.8161e+05
3.8244e+05
3.8491e+05
3.8533e+05
3.8722e+05
3.8761e+05
3.8846e+05
3.8909e+05
3.9036e+05
3.9201e+05
3.9286e+05
3.937e+05
3.9576e+05
4.9657e+05
4.9699e+05
4.9721e+05
4.9742e+05
4.9784e+05
4.9805e+05
4.9826e+05
4.9868e+05
4.989e+05
4.991e+05
4.9951e+05
4.9973e+05
4.9994e+05
5.0036e+05
5.0057e+05
5.0078e+05
5.0121e+05
5.0143e+05
5.0163e+05
5.0206e+05
5.0229e+05
5.0249e+05
5.0291e+05
5.0313e+05
5.0334e+05
5.0376e+05
5.0397e+05
5.0418e+05
5.046e+05
5.0482e+05
5.0503e+05
5.0545e+05
5.0566e+05
5.0587e+05
5.063e+05
5.0651e+05
5.0672e+05
5.0716e+05
5.082e+05
5.0862e+05
5.0883e+05
5.0904e+05
5.0925e+05
5.0947e+05
5.0968e+05
5.0989e+05
5.101e+05
5.1031e+05
5.1052e+05
5.1073e+05
5.1116e+05
5.1158e+05
5.1201e+05
5.1244e+05
5.127e+05
5.1328e+05
5.1353e+05
5.1374e+05
5.1416e+05
5.1439e+05
5.146e+05
5.1502e+05
5.1523e+05
5.1544e+05
5.1588e+05
5.1609e+05
5.163e+05
5.1695e+05
5.1737e+05
5.176e+05
5.1781e+05
5.1826e+05
5.1869e+05
5.1891e+05
5.1914e+05
5.1936e+05
5.1957e+05
5.1978e+05
5.2e+05
5.2021e+05
5.2086e+05
5.2107e+05
5.2128e+05
5.2171e+05
5.2214e+05
5.2235e+05
5.2257e+05
5.2299e+05
5.2321e+05
5.2342e+05
5.2384e+05
5.2406e+05
5.2427e+05
5.249e+05
5.2532e+05
5.2575e+05
5.2639e+05
5.2661e+05
5.2683e+05
5.2726e+05
5.2768e+05
5.2811e+05
5.2853e+05
5.2875e+05
5.2897e+05
5.2938e+05
5.296e+05
5.2981e+05
5.3023e+05
5.3045e+05
5.3066e+05
5.3129e+05
5.3149e+05
5.3193e+05
5.3214e+05
5.3256e+05
5.3299e+05
5.332e+05
5.3341e+05
5.3384e+05
5.3405e+05
5.3446e+05
5.3468e+05
5.3489e+05
5.3532e+05
5.3554e+05
5.3575e+05
5.3618e+05
5.3639e+05
5.3661e+05
5.368e+05
5.3703e+05
5.3724e+05
5.3746e+05
5.3789e+05
5.381e+05
5.3831e+05
5.3874e+05
5.3896e+05
5.3916e+05
5.3958e+05
5.398e+05
5.4001e+05
5.4044e+05
5.4064e+05
5.4086e+05
5.415e+05
5.4171e+05
5.4212e+05
5.4234e+05
5.4255e+05
5.4297e+05
5.4318e+05
5.4339e+05
5.4382e+05
5.4403e+05
5.4424e+05
5.4466e+05
5.4488e+05
5.4509e+05
5.4551e+05
5.4572e+05
5.4594e+05
5.4636e+05
5.4657e+05
5.4679e+05
5.4721e+05
5.4743e+05
5.4776e+05
5.4826e+05
5.4847e+05
5.4944e+05
5.4978e+05
5.5016e+05
5.5216e+05
5.5259e+05
5.5279e+05
5.5366e+05
5.5453e+05
5.5538e+05
5.5624e+05
5.5711e+05
5.5798e+05
5.5884e+05
5.5969e+05
5.6055e+05
5.6826e+05
5.691e+05
5.7058e+05
5.7142e+05
5.7226e+05
5.731e+05
5.7479e+05
5.7564e+05
5.7817e+05
5.7902e+05
5.7986e+05
5.807e+05
5.8239e+05
5.8323e+05
5.8408e+05
5.8493e+05
5.8578e+05
5.8663e+05
5.875e+05
5.8835e+05
5.8921e+05
5.9092e+05
5.9177e+05
5.9263e+05
5.935e+05
5.9634e+05
5.9712e+05
5.9746e+05
5.9861e+05
5.9895e+05
6.0031e+05
6.0117e+05
6.0591e+05
6.0634e+05
6.0865e+05
6.1156e+05
6.1849e+05
6.1934e+05
6.202e+05
6.2579e+05
6.2635e+05
6.2815e+05
6.3139e+05
6.3479e+05
6.3565e+05
6.3649e+05
6.3713e+05
6.3755e+05
6.3819e+05
6.3861e+05
6.3925e+05
6.4074e+05
6.424e+05
6.4324e+05
6.4341e+05
6.4386e+05
6.4448e+05
6.4616e+05
6.4745e+05
6.4824e+05
-1
398
588
829
1004
1181
1463
1654
1894
2069
2244
2530
2743
2915
3103
3386
3595
3805
4018
4237
4412
4596
4874
5047
5298
5475
5656
5841
6120
6326
6541
6754
6966
7174
7382
7548
7788
7965
8148
8426
8630
8806
8996
9267
9474
9680
9886
10051
10431
10724
10907
11135
11305
11492
11771
11958
12182
12356
12535
12813
12977
13016
13232
13436
13635
13787
13826
14059
14219
14404
14669
14872
15073
15278
15488
15793
16067
16230
16519
16723
16922
17125
17302
17471
17744
17950
18113
18296
18557
18761
18969
19176
19371
19528
19785
19984
20193
20382
20602
20774
20945
21215
21259
21423
21632
21832
22040
22212
22392
22654
22849
23067
23232
23407
23651
23828
24097
24293
24332
24496
24704
24910
25091
25322
25486
25667
25938
26132
26357
26530
26703
26974
27177
27203
27353
27535
27807
27847
28003
28208
28396
28621
28665
28789
28975
29234
29494
29819
30005
30228
30432
30460
30632
30666
30836
31045
31251
31453
31657
31682
31825
32000
32264
32461
32493
32664
32862
33031
33208
33467
33670
33872
34023
34271
34467
34502
34672
34874
35078
35233
35485
35678
35879
36085
36285
36484
36826
37079
37276
37477
37677
37874
38070
38269
38474
38674
38878
39075
39275
39478
39677
39882
40044
40291
40491
40695
40902
41107
41313
41514
41722
41929
42132
42343
42514
42694
42971
43170
43393
43564
43742
44010
44204
44425
44596
44779
45016
45197
45421
45609
45903
46080
46317
46482
46669
47084
47341
47508
47704
47971
48176
48349
48538
48761
48952
49216
49417
49626
49811
50046
50214
50390
50633
50816
51243
51514
51693
51941
52113
52302
52541
52719
52955
53147
53429
53570
53720
54007
54169
54207
54472
54645
54827
55066
55254
55538
55721
55898
56133
56324
56563
56746
57004
57218
57367
57639
57833
58069
58240
58419
58654
58845
59085
59280
59563
59739
59986
60161
60340
60635
60966
61267
61479
61645
61828
62109
62275
62459
62727
62910
63093
63323
63505
63780
63989
64198
64406
64619
64787
64969
65239
65435
65653
65858
66059
66240
66470
66674
66847
67023
67218
67455
67664
67874
68083
68259
68430
68697
68871
69118
69286
69473
69706
69884
70157
70501
70790
70976
71199
71404
71617
71804
72030
72234
72438
72628
72863
73032
73213
73450
73625
73882
74097
74311
74520
74730
74939
75153
75367
75572
75903
76199
76377
76619
76800
76978
77208
77397
77649
77833
78117
78321
78533
78744
78957
79171
79382
79592
79920
80227
80434
80633
80853
81024
81206
81470
81689
81897
82108
82272
82449
82742
82950
83156
83362
83576
83782
83992
84200
84377
84605
84821
85031
85238
85579
85859
86063
86275
86488
86697
86904
87066
87250
87536
87719
87953
88121
88299
88526
88716
89001
89206
89415
89622
89839
90052
90264
90472
90686
90901
91104
91319
91532
91742
91909
92091
92373
92576
92790
92996
93206
93342
93496
93834
94007
94258
94464
94676
94895
95068
95251
95532
95871
96172
96386
96600
96808
96976
97164
97454
97664
97874
98084
98259
98444
98726
98938
99156
1.0014e+05
1.0099e+05
1.0141e+05
1.0333e+05
1.0419e+05
1.0463e+05
1.0591e+05
1.0719e+05
1.0803e+05
1.0889e+05
1.0966e+05
1.1235e+05
1.1321e+05
1.1365e+05
1.1451e+05
1.1579e+05
1.1666e+05
1.1836e+05
1.1921e+05
1.2008e+05
1.2095e+05
1.2181e+05
1.2267e+05
1.2461e+05
1.2548e+05
1.2635e+05
1.2764e+05
1.2851e+05
1.2937e+05
1.3022e+05
1.3361e+05
1.3447e+05
1.3532e+05
1.3618e+05
1.3704e+05
1.379e+05
1.3876e+05
1.3963e+05
1.4134e+05
1.4218e+05
1.4304e+05
1.4382e+05
1.4628e+05
1.4683e+05
1.4737e+05
1.4782e+05
1.4847e+05
1.4891e+05
1.4977e+05
1.5031e+05
1.5033e+05
1.5106e+05
1.53e+05
1.5375e+05
1.5377e+05
1.5449e+05
1.5825e+05
1.5888e+05
1.614e+05
1.6252e+05
1.6288e+05
1.6416e+05
1.646e+05
1.658e+05
1.6676e+05
1.6757e+05
1.6939e+05
1.7025e+05
1.7111e+05
1.7195e+05
1.7367e+05
1.7451e+05
1.7536e+05
1.7706e+05
1.7791e+05
1.7835e+05
1.7962e+05
1.8047e+05
1.8132e+05
1.8218e+05
1.8303e+05
1.8387e+05
1.8457e+05
1.8577e+05
1.8662e+05
1.8748e+05
1.8834e+05
1.892e+05
1.9071e+05
1.9156e+05
1.9241e+05
1.937e+05
1.9457e+05
1.9527e+05
1.9564e+05
1.9904e+05
1.9989e+05
2.0075e+05
2.0158e+05
2.0242e+05
2.0311e+05
2.0348e+05
2.0475e+05
2.0517e+05
2.0548e+05
2.0569e+05
2.0586e+05
2.0605e+05
2.0633e+05
2.0655e+05
2.0673e+05
2.0691e+05
2.072e+05
2.074e+05
2.0765e+05
2.0787e+05
2.0808e+05
2.0826e+05
2.0851e+05
2.0873e+05
2.0895e+05
2.091e+05
2.0914e+05
2.0938e+05
2.0959e+05
2.0981e+05
2.1001e+05
2.1025e+05
2.1046e+05
2.1067e+05
2.1083e+05
2.1087e+05
2.1111e+05
2.1133e+05
2.1154e+05
2.1174e+05
2.1207e+05
2.1242e+05
2.1259e+05
2.1285e+05
2.1306e+05
2.1328e+05
2.135e+05
2.1367e+05
2.1386e+05
2.1414e+05
2.1435e+05
2.1456e+05
2.1478e+05
2.1496e+05
2.1515e+05
2.1542e+05
2.1563e+05
2.1581e+05
2.16e+05
2.1629e+05
2.165e+05
2.1668e+05
2.1686e+05
2.1715e+05
2.1737e+05
2.1754e+05
2.1772e+05
2.18e+05
2.1821e+05
2.1838e+05
2.1857e+05
2.1885e+05
2.1906e+05
2.1927e+05
2.1947e+05
2.1971e+05
2.1988e+05
2.2006e+05
2.2035e+05
2.2056e+05
2.2077e+05
2.2099e+05
2.2117e+05
2.2135e+05
2.2164e+05
2.2185e+05
2.2206e+05
2.2228e+05
2.2249e+05
2.2266e+05
2.228e+05
2.2299e+05
2.2303e+05
2.2333e+05
2.2352e+05
2.2376e+05
2.2398e+05
2.2418e+05
2.2449e+05
2.2483e+05
2.2503e+05
2.2525e+05
2.2546e+05
2.2582e+05
2.261e+05
2.2643e+05
2.2669e+05
2.2687e+05
2.2711e+05
2.2731e+05
2.2758e+05
2.2776e+05
2.278e+05
2.2796e+05
2.2815e+05
2.2844e+05
2.2864e+05
2.2882e+05
2.2901e+05
2.2929e+05
2.2948e+05
2.2952e+05
2.2972e+05
2.2993e+05
2.3014e+05
2.3035e+05
2.3056e+05
2.3077e+05
2.3098e+05
2.3114e+05
2.313e+05
2.3133e+05
2.316e+05
2.3176e+05
2.3204e+05
2.3222e+05
2.3246e+05
2.3263e+05
2.3282e+05
2.3307e+05
2.3325e+05
2.3355e+05
2.3376e+05
2.3397e+05
2.3419e+05
2.3441e+05
2.3458e+05
2.3483e+05
2.3504e+05
2.3526e+05
2.3544e+05
2.3568e+05
2.359e+05
2.3611e+05
2.363e+05
2.3654e+05
2.3676e+05
2.3697e+05
2.3717e+05
2.374e+05
2.3757e+05
2.3776e+05
2.3805e+05
2.3826e+05
2.3847e+05
2.3869e+05
2.3889e+05
2.3911e+05
2.3932e+05
2.3954e+05
2.3974e+05
2.3995e+05
2.4015e+05
2.4033e+05
2.4057e+05
2.4075e+05
2.4093e+05
2.4121e+05
2.4136e+05
2.4139e+05
2.4164e+05
2.4199e+05
2.4227e+05
2.4372e+05
2.4376e+05
2.4431e+05
2.4473e+05
2.4514e+05
2.4558e+05
2.4561e+05
2.4619e+05
2.4662e+05
2.4703e+05
2.475e+05
2.4809e+05
2.485e+05
2.4936e+05
2.4994e+05
2.5041e+05
2.5124e+05
2.527e+05
2.5316e+05
2.5405e+05
2.5407e+05
2.5463e+05
2.5524e+05
2.5651e+05
2.5694e+05
2.5698e+05
2.5781e+05
2.5865e+05
2.5869e+05
2.5955e+05
2.6036e+05
2.604e+05
2.6245e+05
2.629e+05
2.6349e+05
2.6434e+05
2.6523e+05
2.6582e+05
2.6668e+05
2.6756e+05
2.6842e+05
2.6928e+05
2.7014e+05
2.7099e+05
2.7188e+05
2.7248e+05
2.7422e+05
2.7507e+05
2.7567e+05
2.7743e+05
2.7801e+05
2.785e+05
2.7907e+05
2.8362e+05
2.8411e+05
2.8497e+05
2.8515e+05
2.8725e+05
2.8847e+05
2.9077e+05
2.9241e+05
2.9287e+05
2.9329e+05
2.9413e+05
2.9471e+05
2.9602e+05
2.9643e+05
2.9848e+05
2.9934e+05
3.0018e+05
3.0051e+05
3.0102e+05
3.0142e+05
3.0174e+05
3.0273e+05
3.0399e+05
3.0511e+05
3.0545e+05
3.0586e+05
3.067e+05
3.0711e+05
3.0775e+05
3.081e+05
3.0858e+05
3.0901e+05
3.0943e+05
3.0966e+05
3.0985e+05
3.1004e+05
3.1048e+05
3.109e+05
3.1132e+05
3.1195e+05
3.1238e+05
3.1301e+05
3.1343e+05
3.1386e+05
3.1449e+05
3.1493e+05
3.1556e+05
3.1579e+05
3.1596e+05
3.1642e+05
3.1684e+05
3.177e+05
3.1854e+05
3.1916e+05
3.1958e+05
3.2086e+05
3.217e+05
3.2255e+05
3.232e+05
3.2323e+05
3.2351e+05
3.2403e+05
3.2486e+05
3.2568e+05
3.263e+05
3.2671e+05
3.2719e+05
3.2734e+05
3.3125e+05
3.3207e+05
3.3248e+05
3.333e+05
3.3371e+05
3.3533e+05
3.38e+05
3.3881e+05
3.3964e+05
3.4127e+05
3.4189e+05
3.4554e+05
3.4777e+05
3.4818e+05
3.4844e+05
3.521e+05
3.5355e+05
3.5398e+05
3.546e+05
3.5488e+05
3.549e+05
3.5606e+05
3.5649e+05
3.5711e+05
3.5754e+05
3.5817e+05
3.5853e+05
3.5986e+05
3.6029e+05
3.6071e+05
3.6156e+05
3.624e+05
3.6303e+05
3.6339e+05
3.6429e+05
3.6514e+05
3.6598e+05
3.6681e+05
3.6807e+05
3.6932e+05
3.6974e+05
3.7099e+05
3.7243e+05
3.7284e+05
3.7368e+05
3.745e+05
3.7532e+05
3.7595e+05
3.7719e+05
3.7761e+05
3.7823e+05
3.7864e+05
3.7925e+05
3.7966e+05
3.8027e+05
3.805e+05
3.8068e+05
3.8194e+05
3.8277e+05
3.8525e+05
3.8568e+05
3.8753e+05
3.8796e+05
3.8865e+05
3.8867e+05
3.8944e+05
3.907e+05
3.9235e+05
3.932e+05
3.9404e+05
3.961e+05
3.975e+05
3.9841e+05
3.9877e+05
3.9925e+05
4.0051e+05
4.026e+05
4.0383e+05
4.059e+05
4.0632e+05
4.0752e+05
4.0799e+05
4.084e+05
4.0903e+05
4.0945e+05
4.1092e+05
4.1134e+05
4.126e+05
4.1364e+05
4.1403e+05
4.1447e+05
4.1594e+05
4.1637e+05
4.1705e+05
4.1707e+05
4.1782e+05
4.1844e+05
4.1886e+05
4.1982e+05
4.1984e+05
4.2096e+05
4.2158e+05
4.2201e+05
4.2263e+05
4.2305e+05
4.2347e+05
4.2409e+05
4.2494e+05
4.2578e+05
4.2662e+05
4.2748e+05
4.2813e+05
4.2918e+05
4.2988e+05
4.3001e+05
4.3044e+05
4.3127e+05
4.3563e+05
4.3647e+05
4.369e+05
4.3879e+05
4.4006e+05
4.4091e+05
4.4176e+05
4.4218e+05
4.4323e+05
4.4408e+05
4.4493e+05
4.4638e+05
4.468e+05
4.4697e+05
4.4919e+05
4.5005e+05
4.5302e+05
4.5465e+05
4.5647e+05
4.5733e+05
4.582e+05
4.5898e+05
4.5985e+05
4.6081e+05
4.6162e+05
4.6341e+05
4.6425e+05
4.651e+05
4.6596e+05
4.6681e+05
4.6767e+05
4.6852e+05
4.6937e+05
4.7022e+05
4.7108e+05
4.7192e+05
4.7277e+05
4.7362e+05
4.7596e+05
4.7754e+05
4.7756e+05
4.7829e+05
4.7954e+05
4.8027e+05
4.8029e+05
4.8099e+05
4.814e+05
4.8222e+05
4.8414e+05
4.8416e+05
4.8505e+05
4.8637e+05
4.8639e+05
4.8704e+05
4.8792e+05
4.8956e+05
4.91e+05
4.9183e+05
4.9258e+05
4.926e+05
4.9389e+05
4.9432e+05
4.9675e+05
4.9677e+05
4.9712e+05
4.9733e+05
4.976e+05
4.9762e+05
4.9797e+05
4.9817e+05
4.9844e+05
4.9846e+05
4.9881e+05
4.9901e+05
4.9928e+05
4.993e+05
4.9964e+05
4.9986e+05
5.0048e+05
5.0069e+05
5.0096e+05
5.0134e+05
5.0155e+05
5.0181e+05
5.0219e+05
5.024e+05
5.0267e+05
5.0304e+05
5.0325e+05
5.0351e+05
5.0388e+05
5.0409e+05
5.043e+05
5.0473e+05
5.0494e+05
5.0515e+05
5.0558e+05
5.0578e+05
5.06e+05
5.0643e+05
5.0663e+05
5.0684e+05
5.0728e+05
5.0832e+05
5.0874e+05
5.0895e+05
5.0916e+05
5.0937e+05
5.0959e+05
5.098e+05
5.1001e+05
5.1022e+05
5.1044e+05
5.1065e+05
5.1086e+05
5.1129e+05
5.1171e+05
5.1214e+05
5.1257e+05
5.1292e+05
5.1344e+05
5.1365e+05
5.1386e+05
5.143e+05
5.1451e+05
5.1473e+05
5.1515e+05
5.1536e+05
5.1557e+05
5.16e+05
5.1621e+05
5.1642e+05
5.1708e+05
5.175e+05
5.1772e+05
5.1794e+05
5.1799e+05
5.1839e+05
5.1882e+05
5.1904e+05
5.1926e+05
5.1948e+05
5.1969e+05
5.1991e+05
5.2012e+05
5.2034e+05
5.2099e+05
5.2119e+05
5.214e+05
5.2184e+05
5.2226e+05
5.2247e+05
5.2269e+05
5.2312e+05
5.2333e+05
5.2354e+05
5.2397e+05
5.2418e+05
5.244e+05
5.2503e+05
5.2507e+05
5.2545e+05
5.2549e+05
5.2588e+05
5.2652e+05
5.2674e+05
5.2739e+05
5.2781e+05
5.2823e+05
5.2866e+05
5.2887e+05
5.2909e+05
5.2951e+05
5.2972e+05
5.3002e+05
5.3004e+05
5.3036e+05
5.3057e+05
5.3078e+05
5.3143e+05
5.3168e+05
5.3206e+05
5.3269e+05
5.3312e+05
5.3332e+05
5.3353e+05
5.3396e+05
5.3459e+05
5.348e+05
5.3545e+05
5.3566e+05
5.3592e+05
5.3631e+05
5.3652e+05
5.3696e+05
5.3716e+05
5.3737e+05
5.3801e+05
5.3822e+05
5.3844e+05
5.3887e+05
5.3907e+05
5.3971e+05
5.3992e+05
5.4056e+05
5.4077e+05
5.4099e+05
5.4141e+05
5.4162e+05
5.4183e+05
5.4225e+05
5.4246e+05
5.4267e+05
5.4272e+05
5.4309e+05
5.433e+05
5.4352e+05
5.4394e+05
5.4415e+05
5.4437e+05
5.4479e+05
5.4501e+05
5.4522e+05
5.4564e+05
5.4585e+05
5.4612e+05
5.4649e+05
5.4669e+05
5.4734e+05
5.4755e+05
5.479e+05
5.4839e+05
5.4844e+05
5.4854e+05
5.4875e+05
5.4959e+05
5.5001e+05
5.5024e+05
5.5046e+05
5.5231e+05
5.5292e+05
5.5381e+05
5.5468e+05
5.5553e+05
5.5638e+05
5.5725e+05
5.5813e+05
5.5899e+05
5.5984e+05
5.6069e+05
5.684e+05
5.6925e+05
5.7072e+05
5.7157e+05
5.7241e+05
5.7325e+05
5.7494e+05
5.7578e+05
5.7663e+05
5.7832e+05
5.7917e+05
5.8001e+05
5.8084e+05
5.8253e+05
5.8337e+05
5.8422e+05
5.8508e+05
5.8592e+05
5.8678e+05
5.8764e+05
5.8849e+05
5.8935e+05
5.9107e+05
5.9193e+05
5.9278e+05
5.9364e+05
5.9661e+05
5.9726e+05
5.9765e+05
5.9779e+05
5.9886e+05
5.9917e+05
6.0059e+05
6.0152e+05
6.067e+05
6.0884e+05
6.1191e+05
6.1883e+05
6.1969e+05
6.2054e+05
6.2602e+05
6.2604e+05
6.2667e+05
6.2838e+05
6.284e+05
6.3165e+05
6.3189e+05
6.3513e+05
6.3599e+05
6.3681e+05
6.3698e+05
6.3747e+05
6.379e+05
6.3853e+05
6.3895e+05
6.3952e+05
6.4108e+05
6.4274e+05
6.4354e+05
6.437e+05
6.442e+05
6.4482e+05
6.4517e+05
6.4555e+05
6.4564e+05
6.4589e+05
6.4606e+05
6.4651e+05
6.4775e+05
6.4865e+05
