320
557
793
1033
1280
1514
1749
1992
2242
2482
2711
2946
3180
3418
3658
3891
4121
4354
4597
4833
5062
5293
5528
5757
5991
6225
6459
6689
6924
7165
7400
7629
7861
8095
8334
8576
8806
9039
9275
9520
9756
9988
10219
10457
10695
10933
11165
11397
11627
11866
12099
12333
12563
12796
13025
13262
13502
13734
13962
14200
14442
14675
14905
15137
15370
15605
15844
16073
16303
16533
16778
17012
17244
17473
17711
17943
18181
18417
18652
18881
19121
19358
19592
19817
20046
20272
20505
20739
20965
21192
21420
21660
21888
22116
22344
22579
22813
23049
23279
23511
23739
23978
24209
24442
24667
24895
25121
25356
25596
25822
26046
26281
26523
26755
26980
27211
27444
27678
27916
28148
28379
28607
28848
29080
29313
29543
29779
30007
30243
30476
30709
30933
31169
31406
31638
31861
32091
32322
32556
32791
33018
33245
33472
33708
33941
34173
34397
34628
34856
35093
35328
35560
35785
36022
36262
36494
36721
36949
37178
37414
37647
37877
38105
38338
38579
38812
39046
39277
39511
39740
39977
40216
40448
40676
40914
41158
41393
41621
41854
42086
42323
42564
42796
43025
43255
43497
43732
43962
44190
44424
44655
44885
45116
45344
45565
45795
46031
46267
46496
46729
46964
47201
47439
47668
47899
48134
48376
48613
48848
49080
49319
49557
49797
50033
50265
50496
50739
50976
51213
51443
51678
51909
52148
52389
52619
52849
53089
53330
53563
53792
54022
54252
54487
54727
54954
55182
55413
55657
55886
56114
56344
56579
56813
57050
57284
57518
57745
57983
58220
58451
58679
58908
59134
59367
59605
59835
60062
60297
60539
60773
61001
61232
61468
61706
61945
62176
62410
62646
62891
63122
63354
63582
63818
64048
64285
64517
64748
64976
65216
65453
65689
65919
66152
66382
66619
66862
67093
67319
67553
67794
68026
68252
68480
68713
68943
69178
69407
69637
69863
70103
70338
70570
70797
71030
71259
71495
71731
71961
72184
72367
72659
72891
73118
73349
73584
73821
74060
74295
74533
74766
75006
75243
75478
75708
75940
76168
76404
76639
76868
77095
77330
77569
77802
78027
78260
78495
78736
78975
79206
79436
79672
79913
80149
80378
80611
80846
81077
81315
81551
81781
82008
82246
82484
82720
82951
83185
83417
83655
83897
84132
84359
84595
84838
85073
85298
85529
85763
86002
86240
86473
86706
86942
87191
87431
87668
87903
88143
88385
88627
88864
89101
89338
89582
89821
90058
90296
90536
90777
91019
91261
91499
91739
91987
92229
92467
92704
92943
93181
93423
93661
93895
94128
94372
94614
94852
95086
95323
95560
95801
96043
96279
96509
96749
96990
97222
97449
97678
97907
98138
98372
98597
98822
99051
99711
1.4916e+05
1.5034e+05
1.5321e+05
1.59e+05
1.6442e+05
1.6702e+05
1.675e+05
1.7793e+05
1.8512e+05
2.4119e+05
2.9878e+05
2.9974e+05
3.0048e+05
3.0749e+05
3.0779e+05
3.0802e+05
3.0926e+05
3.1434e+05
3.1582e+05
3.168e+05
3.1923e+05
3.1996e+05
3.2068e+05
3.2141e+05
3.2379e+05
3.2451e+05
3.2686e+05
3.3369e+05
3.3795e+05
3.3819e+05
3.3842e+05
3.3867e+05
3.3891e+05
3.3915e+05
3.3939e+05
3.3962e+05
3.3986e+05
3.401e+05
3.4034e+05
3.4058e+05
3.4081e+05
3.4105e+05
3.413e+05
3.4154e+05
3.4177e+05
3.4201e+05
3.4224e+05
3.4249e+05
3.4273e+05
3.4296e+05
3.432e+05
3.4343e+05
3.4368e+05
3.4392e+05
3.4415e+05
3.4438e+05
3.4461e+05
3.4485e+05
3.4509e+05
3.4533e+05
3.4556e+05
3.4579e+05
3.4603e+05
3.4627e+05
3.4651e+05
3.4674e+05
3.4698e+05
3.4745e+05
3.4769e+05
3.4793e+05
3.4816e+05
3.484e+05
3.4865e+05
3.4888e+05
3.4912e+05
3.4959e+05
3.4984e+05
3.5008e+05
3.5056e+05
3.5081e+05
3.5106e+05
3.513e+05
3.5154e+05
3.5178e+05
3.5202e+05
3.5227e+05
3.5252e+05
3.5276e+05
3.5299e+05
3.5323e+05
3.5347e+05
3.5371e+05
3.5395e+05
3.5419e+05
3.5442e+05
3.5466e+05
3.5491e+05
3.5515e+05
3.5538e+05
3.5753e+05
3.5849e+05
3.5968e+05
3.5991e+05
3.6039e+05
3.6088e+05
3.6111e+05
3.6135e+05
3.6158e+05
3.6254e+05
3.6277e+05
3.6302e+05
3.6326e+05
3.6349e+05
3.6397e+05
3.6421e+05
3.6446e+05
3.6469e+05
3.6493e+05
3.6517e+05
3.6541e+05
3.6564e+05
3.6588e+05
3.6634e+05
3.6658e+05
3.6682e+05
3.6751e+05
3.6776e+05
3.6799e+05
3.687e+05
3.6894e+05
3.6918e+05
3.6965e+05
3.6988e+05
3.7013e+05
3.7036e+05
3.706e+05
3.7082e+05
3.7106e+05
3.7129e+05
3.7153e+05
3.7177e+05
3.72e+05
3.7223e+05
3.7247e+05
3.7272e+05
3.7296e+05
3.7318e+05
3.7341e+05
3.7365e+05
3.7389e+05
3.7413e+05
3.7435e+05
3.7458e+05
3.7482e+05
3.7506e+05
3.7529e+05
3.7552e+05
3.7575e+05
3.7599e+05
3.7622e+05
3.7646e+05
3.7669e+05
3.7692e+05
3.7715e+05
3.7739e+05
3.7762e+05
3.7786e+05
3.7809e+05
3.7832e+05
3.7854e+05
3.7878e+05
3.7902e+05
3.7925e+05
3.7948e+05
3.7971e+05
3.7996e+05
3.8019e+05
3.8043e+05
3.8066e+05
3.8115e+05
3.8139e+05
3.821e+05
3.8235e+05
3.8259e+05
3.8306e+05
3.8378e+05
3.857e+05
3.8595e+05
3.8691e+05
3.8716e+05
3.8763e+05
3.8787e+05
3.8861e+05
3.8885e+05
3.8909e+05
3.8958e+05
3.8982e+05
3.9006e+05
3.9029e+05
3.9053e+05
3.9078e+05
3.9102e+05
3.9126e+05
3.9149e+05
3.9173e+05
3.9198e+05
3.9221e+05
3.9244e+05
3.9291e+05
3.9315e+05
3.9338e+05
3.9362e+05
3.9457e+05
3.9481e+05
3.9504e+05
3.9528e+05
3.9552e+05
3.9576e+05
3.96e+05
3.9624e+05
3.9647e+05
3.9672e+05
4.0105e+05
4.0153e+05
4.068e+05
4.0728e+05
4.1207e+05
4.1819e+05
4.2664e+05
4.2949e+05
4.3144e+05
4.4895e+05
4.5132e+05
4.72e+05
4.7536e+05
4.7804e+05
4.7876e+05
4.79e+05
4.8021e+05
4.812e+05
4.8292e+05
4.8316e+05
4.8341e+05
4.8414e+05
4.8438e+05
4.8895e+05
4.8919e+05
4.8991e+05
4.9646e+05
4.9671e+05
4.9719e+05
4.9743e+05
4.9767e+05
4.9792e+05
4.9815e+05
4.9839e+05
4.9862e+05
4.9886e+05
4.9909e+05
4.9933e+05
4.9956e+05
4.9979e+05
5.0025e+05
5.0048e+05
5.0071e+05
5.023e+05
5.0276e+05
5.0299e+05
5.0436e+05
5.046e+05
5.0483e+05
5.0938e+05
5.0983e+05
5.1095e+05
5.1206e+05
5.1229e+05
5.1251e+05
5.1274e+05
5.1296e+05
5.1385e+05
5.143e+05
5.1499e+05
5.1614e+05
5.166e+05
5.1706e+05
5.1846e+05
5.1915e+05
5.1939e+05
5.1963e+05
5.2079e+05
5.215e+05
5.2248e+05
5.2934e+05
5.2958e+05
5.3248e+05
5.3344e+05
5.3391e+05
5.3438e+05
5.3461e+05
5.3652e+05
5.3676e+05
5.37e+05
5.3724e+05
5.3748e+05
5.3773e+05
5.3797e+05
5.3821e+05
5.3845e+05
5.387e+05
5.3895e+05
5.3919e+05
5.3944e+05
5.3969e+05
5.3993e+05
5.4019e+05
5.4043e+05
5.4068e+05
5.4092e+05
5.4118e+05
5.4143e+05
5.4167e+05
5.4191e+05
5.4215e+05
5.4239e+05
5.4264e+05
5.4288e+05
5.4311e+05
5.4335e+05
5.436e+05
5.4384e+05
5.4407e+05
5.4431e+05
5.4455e+05
5.4479e+05
5.4503e+05
5.4527e+05
5.4551e+05
5.4575e+05
5.4599e+05
5.4623e+05
5.4646e+05
5.467e+05
5.4693e+05
5.4717e+05
5.4741e+05
5.4764e+05
5.4788e+05
5.4811e+05
5.4836e+05
5.486e+05
5.4884e+05
5.4908e+05
5.4932e+05
5.4956e+05
5.5053e+05
5.5101e+05
5.5125e+05
5.5149e+05
5.5173e+05
5.5197e+05
5.5221e+05
5.5245e+05
5.5269e+05
5.5293e+05
5.5318e+05
5.5343e+05
5.5367e+05
5.5391e+05
5.5416e+05
5.5464e+05
5.5488e+05
5.5512e+05
5.5536e+05
5.5561e+05
5.5585e+05
5.5609e+05
5.5632e+05
5.5656e+05
5.568e+05
5.5728e+05
5.5752e+05
5.5825e+05
5.5849e+05
5.5896e+05
5.592e+05
5.5991e+05
5.6014e+05
5.6038e+05
5.6086e+05
5.6109e+05
5.6133e+05
5.6157e+05
5.6181e+05
5.6204e+05
5.6228e+05
5.6251e+05
5.6276e+05
5.63e+05
5.6324e+05
5.6347e+05
5.6442e+05
5.6466e+05
5.6489e+05
5.6537e+05
5.656e+05
5.6583e+05
5.6607e+05
5.663e+05
5.6654e+05
5.6678e+05
5.6702e+05
5.6773e+05
5.6797e+05
5.682e+05
5.6844e+05
5.6891e+05
5.6915e+05
5.6938e+05
5.6986e+05
5.701e+05
5.7034e+05
5.7058e+05
5.7082e+05
5.7106e+05
5.713e+05
5.7155e+05
5.7179e+05
5.7202e+05
5.7227e+05
5.7252e+05
5.7276e+05
5.7346e+05
5.7371e+05
5.7395e+05
5.7419e+05
5.7442e+05
5.7466e+05
5.7491e+05
5.7515e+05
5.7563e+05
5.7586e+05
5.7707e+05
5.7803e+05
5.7827e+05
5.7924e+05
5.7948e+05
5.7973e+05
5.7998e+05
5.8021e+05
5.8045e+05
5.8118e+05
5.8142e+05
5.8166e+05
5.8214e+05
5.8239e+05
5.8262e+05
5.8286e+05
5.8309e+05
5.8333e+05
5.8358e+05
5.8382e+05
5.8405e+05
5.843e+05
5.8454e+05
5.8478e+05
5.8502e+05
5.8526e+05
5.8549e+05
5.8574e+05
5.8599e+05
5.8622e+05
5.867e+05
5.8694e+05
5.8718e+05
5.8742e+05
5.8766e+05
5.8839e+05
5.8863e+05
5.8886e+05
5.8911e+05
5.8936e+05
5.896e+05
5.9032e+05
5.9057e+05
5.9081e+05
5.9153e+05
5.9178e+05
5.9203e+05
5.9226e+05
5.925e+05
5.9274e+05
5.9299e+05
5.9323e+05
5.9347e+05
5.9371e+05
5.9395e+05
5.9467e+05
5.9491e+05
5.9585e+05
5.9752e+05
6.1367e+05
6.1549e+05
6.158e+05
6.1604e+05
6.1955e+05
6.2026e+05
6.2144e+05
6.2385e+05
6.3137e+05
6.3161e+05
6.3231e+05
6.3254e+05
6.3301e+05
6.3441e+05
6.3489e+05
6.3513e+05
6.3536e+05
6.356e+05
6.3584e+05
6.3609e+05
6.3634e+05
6.3658e+05
6.3682e+05
6.3706e+05
6.3732e+05
6.3756e+05
6.3779e+05
6.3804e+05
6.3828e+05
6.3853e+05
6.3878e+05
6.3902e+05
6.3926e+05
6.3951e+05
6.3976e+05
6.4001e+05
6.4025e+05
6.405e+05
6.4074e+05
6.4099e+05
6.4148e+05
6.4172e+05
6.4197e+05
6.4222e+05
6.4246e+05
6.427e+05
6.4295e+05
6.4319e+05
6.4343e+05
6.4368e+05
6.4391e+05
6.4415e+05
6.444e+05
6.4464e+05
6.4488e+05
6.4512e+05
6.4537e+05
6.4561e+05
6.4585e+05
6.461e+05
6.4634e+05
6.4658e+05
6.4682e+05
6.4707e+05
6.473e+05
6.4754e+05
6.4778e+05
6.4802e+05
6.4827e+05
6.4851e+05
6.4875e+05
6.4899e+05
6.4925e+05
6.4949e+05
-1
469
707
949
1191
1428
1662
1898
2153
2392
2627
2860
3097
3335
3570
3807
4041
4272
4510
4748
4986
5213
5443
5675
5908
6144
6376
6609
6841
7082
7317
7544
7777
8013
8250
8488
8721
8955
9191
9433
9671
9907
10139
10373
10608
10845
11084
11316
11543
11779
12251
12482
12712
12943
13179
13420
13648
13882
14116
14360
14591
14825
15055
15290
15522
15759
16224
16453
16697
16930
17394
17625
17857
18093
18336
18571
18799
19037
19279
19511
19738
20196
20427
20661
20888
21117
21342
21576
21808
22040
22212
22266
22502
22729
22965
23442
23662
23896
24132
24362
24587
24818
25043
25276
25456
25513
25742
25970
26177
26200
26440
26652
26907
27132
27367
27597
27808
27830
28525
28763
28999
29234
29460
29695
29924
30160
30400
30628
30858
31086
31328
31558
31781
32011
32245
32474
32710
32940
33169
33388
33626
33861
34095
34322
34542
34774
35010
35249
35479
35706
35940
36179
36411
36641
36870
37103
37564
37796
38028
38254
38493
38731
38967
39195
39428
39658
39895
40135
40363
40828
41072
41307
41539
41770
42005
42242
42477
42696
42713
42945
43174
43406
43650
43885
44115
44343
44573
44801
45038
45265
45488
45696
45713
45945
46646
46883
47119
47355
47587
47818
48051
48290
48766
48998
49232
49470
49710
49951
50185
50413
50649
50891
51127
51363
51594
51824
52063
52307
52535
52766
53001
53247
53478
53709
53938
54643
54873
55103
55332
55572
55803
56265
56499
56942
56964
57440
57665
57898
58139
58372
58826
59055
59287
59525
59752
59986
60212
60453
60686
61150
61390
61859
62093
62328
62558
62800
63041
63276
63503
63732
64199
64438
64668
65129
65373
65605
65835
66066
66300
66536
66778
67009
67242
67470
67712
67940
68174
68401
68635
68864
69096
69332
69559
69783
70018
70259
70491
70716
71179
71414
71651
71876
72336
72579
72808
73040
73504
73740
73979
74213
74452
74681
74921
75160
75399
75856
76085
76323
76560
76787
77013
77247
77476
77718
77948
78155
78178
78416
78889
79127
79359
79588
79828
80298
80530
80763
80991
81228
81471
81701
81926
82161
82401
82638
83101
83335
83554
83573
83810
84044
84278
84993
85222
85450
85683
85916
86153
86389
86624
86857
87100
87346
87588
87820
88054
88293
88537
88779
89016
89446
89493
89715
89735
89974
90209
90448
90685
90938
91176
91413
91652
91897
92143
92383
92617
92853
93092
93329
93579
93813
94042
94263
94283
94527
94766
95470
95712
95960
96195
96428
96664
96907
97141
97597
97832
98062
98293
98501
98520
98749
98976
99204
99402
99668
99894
1.0012e+05
1.0035e+05
1.0058e+05
1.0082e+05
1.0104e+05
1.0127e+05
1.015e+05
1.0186e+05
1.0878e+05
1.1917e+05
1.2058e+05
1.2106e+05
1.2178e+05
1.2273e+05
1.2703e+05
1.2776e+05
1.2849e+05
1.2955e+05
1.2993e+05
1.3091e+05
1.3237e+05
1.3936e+05
1.396e+05
1.3984e+05
1.4007e+05
1.4031e+05
1.4055e+05
1.4079e+05
1.4102e+05
1.4125e+05
1.4149e+05
1.417e+05
1.4172e+05
1.4196e+05
1.4219e+05
1.4243e+05
1.4266e+05
1.4289e+05
1.4313e+05
1.4337e+05
1.436e+05
1.4383e+05
1.4407e+05
1.4425e+05
1.4431e+05
1.4469e+05
1.4587e+05
1.4717e+05
1.4741e+05
1.4765e+05
1.479e+05
1.4814e+05
1.485e+05
1.4885e+05
1.4909e+05
1.4933e+05
1.4956e+05
1.4979e+05
1.5003e+05
1.5027e+05
1.5051e+05
1.5074e+05
1.5112e+05
1.5146e+05
1.517e+05
1.5194e+05
1.5218e+05
1.5242e+05
1.5266e+05
1.529e+05
1.5314e+05
1.5337e+05
1.536e+05
1.5398e+05
1.5433e+05
1.547e+05
1.5797e+05
1.5821e+05
1.5882e+05
1.5916e+05
1.594e+05
1.5963e+05
1.6001e+05
1.6153e+05
1.619e+05
1.6249e+05
1.6272e+05
1.6295e+05
1.6319e+05
1.6342e+05
1.6379e+05
1.6413e+05
1.6436e+05
1.6474e+05
1.6508e+05
1.6544e+05
1.6696e+05
1.6733e+05
1.6766e+05
1.6789e+05
1.6825e+05
1.686e+05
1.6883e+05
1.6918e+05
1.6953e+05
1.6976e+05
1.7012e+05
1.7068e+05
1.7105e+05
1.7139e+05
1.7161e+05
1.7197e+05
1.7231e+05
1.7253e+05
1.7289e+05
1.7359e+05
1.7404e+05
1.7462e+05
1.7498e+05
1.7555e+05
1.7578e+05
1.7615e+05
1.7648e+05
1.7672e+05
1.7695e+05
1.7719e+05
1.7741e+05
1.7764e+05
1.7788e+05
1.7812e+05
1.7848e+05
1.7942e+05
1.7998e+05
1.8034e+05
1.8068e+05
1.8091e+05
1.8114e+05
1.8184e+05
1.822e+05
1.8252e+05
1.8254e+05
1.829e+05
1.8382e+05
1.8452e+05
1.8508e+05
1.8531e+05
1.8577e+05
1.86e+05
1.8635e+05
1.867e+05
1.8705e+05
1.8738e+05
1.8774e+05
1.8888e+05
1.894e+05
1.8967e+05
1.899e+05
1.9036e+05
1.9059e+05
1.9082e+05
1.9118e+05
1.9153e+05
1.9174e+05
1.9176e+05
1.9211e+05
1.9268e+05
1.9304e+05
1.9498e+05
1.9521e+05
1.9558e+05
1.9628e+05
1.9661e+05
1.9684e+05
1.9705e+05
1.9707e+05
1.973e+05
1.9753e+05
1.9789e+05
1.9845e+05
1.9881e+05
1.995e+05
2.034e+05
2.0432e+05
2.0478e+05
2.0523e+05
2.0615e+05
2.0944e+05
2.1039e+05
2.1394e+05
2.1428e+05
2.1465e+05
2.2863e+05
2.3521e+05
2.3624e+05
2.3661e+05
2.3788e+05
2.3824e+05
2.3858e+05
2.388e+05
2.3905e+05
2.3928e+05
2.3951e+05
2.4e+05
2.4023e+05
2.4069e+05
2.4093e+05
2.4116e+05
2.4138e+05
2.4163e+05
2.4186e+05
2.4209e+05
2.4233e+05
2.428e+05
2.4303e+05
2.4325e+05
2.435e+05
2.4397e+05
2.442e+05
2.4444e+05
2.4467e+05
2.449e+05
2.4513e+05
2.4536e+05
2.4558e+05
2.4582e+05
2.4628e+05
2.4664e+05
2.4699e+05
2.4722e+05
2.4746e+05
2.4769e+05
2.4792e+05
2.4815e+05
2.4852e+05
2.4886e+05
2.4908e+05
2.4932e+05
2.4956e+05
2.498e+05
2.5002e+05
2.5026e+05
2.5049e+05
2.5074e+05
2.5098e+05
2.5121e+05
2.5144e+05
2.5169e+05
2.5192e+05
2.5217e+05
2.524e+05
2.5264e+05
2.5287e+05
2.5311e+05
2.5336e+05
2.5359e+05
2.5381e+05
2.5406e+05
2.543e+05
2.5477e+05
2.5524e+05
2.5548e+05
2.5572e+05
2.5596e+05
2.5613e+05
2.5619e+05
2.5656e+05
2.569e+05
2.5726e+05
2.5937e+05
2.6054e+05
2.6149e+05
2.6207e+05
2.6229e+05
2.6266e+05
2.6301e+05
2.6323e+05
2.636e+05
2.6395e+05
2.6431e+05
2.65e+05
2.6897e+05
2.6944e+05
2.6977e+05
2.7014e+05
2.7083e+05
2.7117e+05
2.714e+05
2.7164e+05
2.7186e+05
2.7222e+05
2.7254e+05
2.7273e+05
2.7279e+05
2.7303e+05
2.735e+05
2.7373e+05
2.7397e+05
2.7419e+05
2.7467e+05
2.7505e+05
2.7539e+05
2.7575e+05
2.7647e+05
2.7705e+05
2.7743e+05
2.7802e+05
2.7825e+05
2.7863e+05
2.8148e+05
2.8253e+05
2.8289e+05
2.8361e+05
2.843e+05
2.8547e+05
2.8664e+05
2.885e+05
2.8918e+05
2.8966e+05
2.8999e+05
2.9022e+05
2.906e+05
2.9094e+05
2.9116e+05
2.9139e+05
2.9162e+05
2.92e+05
2.9233e+05
2.9269e+05
2.9811e+05
2.9907e+05
3.0004e+05
3.0076e+05
3.0766e+05
3.0768e+05
3.0792e+05
3.0829e+05
3.095e+05
3.1464e+05
3.1612e+05
3.171e+05
3.1952e+05
3.2025e+05
3.2098e+05
3.2169e+05
3.2407e+05
3.2479e+05
3.2714e+05
3.3398e+05
3.3811e+05
3.3858e+05
3.3882e+05
3.3907e+05
3.393e+05
3.3953e+05
3.3977e+05
3.4001e+05
3.4025e+05
3.4049e+05
3.4072e+05
3.4096e+05
3.412e+05
3.4144e+05
3.4192e+05
3.4216e+05
3.424e+05
3.4264e+05
3.4288e+05
3.4311e+05
3.4335e+05
3.4359e+05
3.4383e+05
3.4406e+05
3.443e+05
3.4453e+05
3.4476e+05
3.45e+05
3.4524e+05
3.4548e+05
3.4571e+05
3.4595e+05
3.4619e+05
3.4643e+05
3.4665e+05
3.4668e+05
3.469e+05
3.4712e+05
3.4761e+05
3.4784e+05
3.4808e+05
3.4832e+05
3.485e+05
3.4856e+05
3.4927e+05
3.4998e+05
3.4999e+05
3.5023e+05
3.5097e+05
3.5121e+05
3.5169e+05
3.5194e+05
3.5218e+05
3.5267e+05
3.529e+05
3.5314e+05
3.5339e+05
3.5386e+05
3.541e+05
3.5434e+05
3.5458e+05
3.5482e+05
3.5506e+05
3.5529e+05
3.5551e+05
3.5554e+05
3.5768e+05
3.5864e+05
3.6006e+05
3.6055e+05
3.6103e+05
3.6126e+05
3.615e+05
3.6174e+05
3.6293e+05
3.6317e+05
3.6341e+05
3.6364e+05
3.6412e+05
3.6437e+05
3.646e+05
3.6484e+05
3.6508e+05
3.6532e+05
3.6556e+05
3.6603e+05
3.6649e+05
3.6673e+05
3.6697e+05
3.6792e+05
3.6814e+05
3.6885e+05
3.6909e+05
3.698e+05
3.7002e+05
3.7004e+05
3.7028e+05
3.7074e+05
3.7097e+05
3.7121e+05
3.7146e+05
3.7168e+05
3.7192e+05
3.7263e+05
3.7287e+05
3.731e+05
3.738e+05
3.7404e+05
3.7427e+05
3.745e+05
3.7474e+05
3.7498e+05
3.7545e+05
3.7567e+05
3.7591e+05
3.7614e+05
3.7638e+05
3.7661e+05
3.7682e+05
3.7685e+05
3.7705e+05
3.7707e+05
3.7731e+05
3.7755e+05
3.7801e+05
3.7823e+05
3.7847e+05
3.787e+05
3.7892e+05
3.7894e+05
3.794e+05
3.7963e+05
3.7988e+05
3.8013e+05
3.8034e+05
3.8058e+05
3.8082e+05
3.813e+05
3.8154e+05
3.8226e+05
3.825e+05
3.8274e+05
3.8321e+05
3.8391e+05
3.8392e+05
3.8585e+05
3.8608e+05
3.861e+05
3.8706e+05
3.8731e+05
3.8778e+05
3.8802e+05
3.8877e+05
3.89e+05
3.8924e+05
3.8973e+05
3.8998e+05
3.9021e+05
3.9045e+05
3.9069e+05
3.9093e+05
3.9117e+05
3.9141e+05
3.9162e+05
3.9164e+05
3.9189e+05
3.9213e+05
3.9236e+05
3.9259e+05
3.9306e+05
3.933e+05
3.9353e+05
3.9377e+05
3.9473e+05
3.9496e+05
3.952e+05
3.9543e+05
3.9592e+05
3.9615e+05
3.9639e+05
3.9663e+05
3.9688e+05
3.9783e+05
3.9808e+05
3.9832e+05
3.9857e+05
3.9878e+05
3.988e+05
3.9905e+05
3.9955e+05
3.9977e+05
4.0001e+05
4.0025e+05
4.0049e+05
4.0074e+05
4.0098e+05
4.0146e+05
4.017e+05
4.0194e+05
4.0241e+05
4.0265e+05
4.0289e+05
4.0313e+05
4.0337e+05
4.036e+05
4.0408e+05
4.0433e+05
4.0456e+05
4.048e+05
4.0528e+05
4.0552e+05
4.0599e+05
4.0624e+05
4.0648e+05
4.0673e+05
4.0697e+05
4.072e+05
4.0744e+05
4.0769e+05
4.0793e+05
4.0817e+05
4.084e+05
4.0865e+05
4.089e+05
4.0914e+05
4.0961e+05
4.0984e+05
4.1009e+05
4.1033e+05
4.1057e+05
4.108e+05
4.1104e+05
4.1129e+05
4.1153e+05
4.1176e+05
4.12e+05
4.1223e+05
4.1248e+05
4.1272e+05
4.1296e+05
4.1319e+05
4.1342e+05
4.1366e+05
4.139e+05
4.1413e+05
4.1436e+05
4.146e+05
4.1483e+05
4.1508e+05
4.1531e+05
4.1555e+05
4.1578e+05
4.1603e+05
4.1626e+05
4.1649e+05
4.1672e+05
4.1719e+05
4.1762e+05
4.1767e+05
4.179e+05
4.1813e+05
4.1838e+05
4.1862e+05
4.1883e+05
4.1885e+05
4.1909e+05
4.1933e+05
4.1957e+05
4.1982e+05
4.2006e+05
4.203e+05
4.2055e+05
4.2103e+05
4.2151e+05
4.2175e+05
4.2248e+05
4.2271e+05
4.2295e+05
4.232e+05
4.2345e+05
4.2369e+05
4.2392e+05
4.2417e+05
4.2441e+05
4.2466e+05
4.2489e+05
4.2513e+05
4.2537e+05
4.2562e+05
4.2587e+05
4.2611e+05
4.2658e+05
4.2682e+05
4.2703e+05
4.273e+05
4.2754e+05
4.2776e+05
4.2778e+05
4.2803e+05
4.2851e+05
4.2874e+05
4.2898e+05
4.2921e+05
4.2945e+05
4.2968e+05
4.2993e+05
4.3017e+05
4.3041e+05
4.3066e+05
4.3089e+05
4.3113e+05
4.3137e+05
4.316e+05
4.321e+05
4.3233e+05
4.3257e+05
4.3282e+05
4.3331e+05
4.3354e+05
4.3378e+05
4.3497e+05
4.3522e+05
4.3547e+05
4.3571e+05
4.3596e+05
4.3621e+05
4.3645e+05
4.367e+05
4.3695e+05
4.3719e+05
4.3743e+05
4.3768e+05
4.3793e+05
4.3816e+05
4.3841e+05
4.3865e+05
4.389e+05
4.3986e+05
4.4011e+05
4.4036e+05
4.4059e+05
4.4083e+05
4.4107e+05
4.4131e+05
4.4155e+05
4.4179e+05
4.4203e+05
4.4227e+05
4.4251e+05
4.4275e+05
4.4299e+05
4.4321e+05
4.4346e+05
4.4369e+05
4.4393e+05
4.4463e+05
4.4487e+05
4.4511e+05
4.4533e+05
4.4558e+05
4.4582e+05
4.4629e+05
4.4653e+05
4.4677e+05
4.47e+05
4.4723e+05
4.4771e+05
4.4817e+05
4.484e+05
4.4888e+05
4.4912e+05
4.503e+05
4.5053e+05
4.5077e+05
4.5125e+05
4.5149e+05
4.5172e+05
4.5195e+05
4.5241e+05
4.5244e+05
4.5554e+05
4.5577e+05
4.5601e+05
4.5625e+05
4.5697e+05
4.5721e+05
4.5818e+05
4.5842e+05
4.5866e+05
4.6035e+05
4.6056e+05
4.6058e+05
4.6082e+05
4.6106e+05
4.6226e+05
4.6323e+05
4.6372e+05
4.6396e+05
4.6421e+05
4.6445e+05
4.6495e+05
4.6542e+05
4.6562e+05
4.6568e+05
4.6687e+05
4.671e+05
4.6806e+05
4.6877e+05
4.6903e+05
4.6927e+05
4.695e+05
4.6998e+05
4.7022e+05
4.7047e+05
4.7095e+05
4.7119e+05
4.7144e+05
4.7192e+05
4.7216e+05
4.7264e+05
4.7289e+05
4.7308e+05
4.7313e+05
4.7337e+05
4.7361e+05
4.7385e+05
4.7409e+05
4.7432e+05
4.7456e+05
4.748e+05
4.7529e+05
4.7552e+05
4.7649e+05
4.7696e+05
4.7818e+05
4.784e+05
4.7888e+05
4.7936e+05
4.8265e+05
4.8304e+05
4.8378e+05
4.8431e+05
4.846e+05
4.8597e+05
4.8883e+05
4.8909e+05
4.8935e+05
4.9176e+05
4.9365e+05
4.9395e+05
4.9661e+05
4.9686e+05
4.9734e+05
4.9758e+05
4.9782e+05
4.9806e+05
4.983e+05
4.9853e+05
4.9877e+05
4.99e+05
4.9924e+05
4.9947e+05
4.997e+05
4.9993e+05
5.0036e+05
5.0041e+05
5.0061e+05
5.0064e+05
5.0245e+05
5.0291e+05
5.0314e+05
5.0448e+05
5.0454e+05
5.0474e+05
5.0495e+05
5.0498e+05
5.0952e+05
5.0993e+05
5.0998e+05
5.111e+05
5.1219e+05
5.1243e+05
5.1263e+05
5.1289e+05
5.1305e+05
5.14e+05
5.1445e+05
5.1514e+05
5.1629e+05
5.1674e+05
5.1721e+05
5.1861e+05
5.193e+05
5.1954e+05
5.2094e+05
5.2165e+05
5.2262e+05
5.2973e+05
5.3262e+05
5.3358e+05
5.3406e+05
5.3453e+05
5.3476e+05
5.3667e+05
5.3691e+05
5.3715e+05
5.3738e+05
5.3763e+05
5.3788e+05
5.3812e+05
5.3836e+05
5.386e+05
5.3885e+05
5.391e+05
5.3934e+05
5.3959e+05
5.3983e+05
5.4008e+05
5.4033e+05
5.4058e+05
5.4082e+05
5.4108e+05
5.4133e+05
5.4158e+05
5.4181e+05
5.4205e+05
5.423e+05
5.4255e+05
5.4278e+05
5.4303e+05
5.4326e+05
5.4351e+05
5.4399e+05
5.4421e+05
5.4446e+05
5.447e+05
5.4494e+05
5.4518e+05
5.4542e+05
5.4566e+05
5.459e+05
5.4614e+05
5.4638e+05
5.4661e+05
5.4684e+05
5.4707e+05
5.4731e+05
5.4756e+05
5.4779e+05
5.4802e+05
5.4827e+05
5.4851e+05
5.4875e+05
5.4899e+05
5.4922e+05
5.4946e+05
5.4971e+05
5.5068e+05
5.5111e+05
5.5117e+05
5.514e+05
5.5164e+05
5.5187e+05
5.5211e+05
5.5236e+05
5.526e+05
5.5284e+05
5.5308e+05
5.5333e+05
5.5358e+05
5.543e+05
5.5479e+05
5.5502e+05
5.5527e+05
5.5552e+05
5.5576e+05
5.56e+05
5.5623e+05
5.5647e+05
5.5671e+05
5.5695e+05
5.5743e+05
5.5767e+05
5.584e+05
5.5864e+05
5.5911e+05
5.5935e+05
5.6005e+05
5.6029e+05
5.6053e+05
5.6101e+05
5.6124e+05
5.6148e+05
5.6172e+05
5.6196e+05
5.6219e+05
5.6243e+05
5.6267e+05
5.629e+05
5.6315e+05
5.6338e+05
5.6362e+05
5.6457e+05
5.648e+05
5.6504e+05
5.6552e+05
5.6575e+05
5.6598e+05
5.6621e+05
5.667e+05
5.6693e+05
5.6716e+05
5.6811e+05
5.6835e+05
5.6858e+05
5.6906e+05
5.6929e+05
5.6953e+05
5.7001e+05
5.7026e+05
5.7073e+05
5.7097e+05
5.7121e+05
5.7144e+05
5.7146e+05
5.717e+05
5.7194e+05
5.7218e+05
5.7243e+05
5.7267e+05
5.729e+05
5.7362e+05
5.7386e+05
5.7408e+05
5.741e+05
5.7434e+05
5.7457e+05
5.7482e+05
5.7506e+05
5.753e+05
5.7578e+05
5.7602e+05
5.7723e+05
5.7818e+05
5.7843e+05
5.7939e+05
5.7964e+05
5.7988e+05
5.8012e+05
5.8036e+05
5.806e+05
5.8133e+05
5.8157e+05
5.8181e+05
5.8229e+05
5.8253e+05
5.8277e+05
5.8301e+05
5.8325e+05
5.8349e+05
5.8373e+05
5.8396e+05
5.842e+05
5.8445e+05
5.8469e+05
5.8517e+05
5.8541e+05
5.8565e+05
5.8589e+05
5.8613e+05
5.8637e+05
5.8685e+05
5.8709e+05
5.8733e+05
5.8757e+05
5.8781e+05
5.8853e+05
5.8878e+05
5.8902e+05
5.8927e+05
5.8951e+05
5.9047e+05
5.9072e+05
5.9096e+05
5.9169e+05
5.9193e+05
5.9217e+05
5.9241e+05
5.9265e+05
5.929e+05
5.9314e+05
5.9338e+05
5.9362e+05
5.9385e+05
5.9411e+05
5.9482e+05
5.9505e+05
5.9613e+05
5.9781e+05
6.1394e+05
6.156e+05
6.1564e+05
6.1595e+05
6.1631e+05
6.1983e+05
6.2055e+05
6.2173e+05
6.2414e+05
6.3152e+05
6.3189e+05
6.3246e+05
6.3282e+05
6.3328e+05
6.3469e+05
6.3504e+05
6.3528e+05
6.3576e+05
6.36e+05
6.3625e+05
6.3649e+05
6.3673e+05
6.3697e+05
6.3722e+05
6.377e+05
6.3794e+05
6.3819e+05
6.3843e+05
6.3868e+05
6.3892e+05
6.3941e+05
6.3966e+05
6.3991e+05
6.4016e+05
6.404e+05
6.4064e+05
6.4089e+05
6.4128e+05
6.4162e+05
6.4187e+05
6.4212e+05
6.4237e+05
6.4261e+05
6.4285e+05
6.4308e+05
6.4333e+05
6.4359e+05
6.4382e+05
6.4406e+05
6.4431e+05
6.4455e+05
6.4503e+05
6.4527e+05
6.4551e+05
6.4576e+05
6.46e+05
6.4624e+05
6.4648e+05
6.4673e+05
6.4696e+05
6.4722e+05
6.4744e+05
6.4793e+05
6.4817e+05
6.4842e+05
6.4866e+05
6.489e+05
6.4915e+05
6.494e+05
