'Elapsed time','MLII','V1'
'seconds','mV','mV'
0.000,-0.345,-0.160
0.003,-0.345,-0.160
0.006,-0.345,-0.160
0.008,-0.345,-0.160
0.011,-0.345,-0.160
0.014,-0.345,-0.160
0.017,-0.345,-0.160
0.019,-0.345,-0.160
0.022,-0.330,-0.150
0.025,-0.320,-0.145
0.028,-0.320,-0.170
0.031,-0.325,-0.180
0.033,-0.330,-0.170
0.036,-0.325,-0.150
0.039,-0.315,-0.160
0.042,-0.305,-0.170
0.044,-0.300,-0.185
0.047,-0.315,-0.195
0.050,-0.320,-0.185
0.053,-0.315,-0.185
0.056,-0.300,-0.175
0.058,-0.290,-0.200
0.061,-0.290,-0.190
0.064,-0.295,-0.205
0.067,-0.290,-0.195
0.069,-0.295,-0.175
0.072,-0.285,-0.175
0.075,-0.255,-0.190
0.078,-0.230,-0.200
0.081,-0.200,-0.215
0.083,-0.195,-0.210
0.086,-0.160,-0.210
0.089,-0.160,-0.190
0.092,-0.165,-0.220
0.094,-0.200,-0.225
0.097,-0.200,-0.245
0.100,-0.210,-0.235
0.103,-0.210,-0.215
0.106,-0.205,-0.225
0.108,-0.210,-0.235
0.111,-0.210,-0.240
0.114,-0.220,-0.245
0.117,-0.250,-0.225
0.119,-0.250,-0.215
0.122,-0.250,-0.205
0.125,-0.260,-0.205
0.128,-0.265,-0.205
0.131,-0.275,-0.195
0.133,-0.305,-0.190
0.136,-0.320,-0.175
0.139,-0.330,-0.180
0.142,-0.320,-0.180
0.144,-0.320,-0.200
0.147,-0.315,-0.200
0.150,-0.340,-0.185
0.153,-0.350,-0.180
0.156,-0.335,-0.175
0.158,-0.320,-0.200
0.161,-0.310,-0.200
0.164,-0.335,-0.205
0.167,-0.345,-0.205
0.169,-0.350,-0.200
0.172,-0.350,-0.195
0.175,-0.355,-0.215
0.178,-0.350,-0.215
0.181,-0.350,-0.220
0.183,-0.370,-0.215
0.186,-0.360,-0.220
0.189,-0.345,-0.220
0.192,-0.325,-0.220
0.194,-0.325,-0.220
0.197,-0.335,-0.230
0.200,-0.370,-0.245
0.203,-0.400,-0.235
0.206,-0.400,-0.230
0.208,-0.395,-0.230
0.211,-0.350,-0.240
0.214,-0.210,-0.240
0.217,-0.010,-0.240
0.219,0.245,-0.245
0.222,0.530,-0.250
0.225,0.850,-0.285
0.228,1.085,-0.315
0.231,1.065,-0.375
0.233,0.815,-0.400
0.236,0.480,-0.410
0.239,0.210,-0.365
0.242,-0.010,-0.295
0.244,-0.145,-0.230
0.247,-0.185,-0.200
0.250,-0.240,-0.200
0.253,-0.285,-0.215
0.256,-0.285,-0.205
0.258,-0.285,-0.195
0.261,-0.290,-0.180
0.264,-0.300,-0.190
0.267,-0.335,-0.200
0.269,-0.360,-0.200
0.272,-0.360,-0.185
0.275,-0.385,-0.180
0.278,-0.395,-0.195
0.281,-0.415,-0.210
0.283,-0.430,-0.230
0.286,-0.435,-0.225
0.289,-0.405,-0.200
0.292,-0.410,-0.205
0.294,-0.405,-0.210
0.297,-0.415,-0.225
0.300,-0.440,-0.225
0.303,-0.430,-0.210
0.306,-0.415,-0.190
0.308,-0.420,-0.190
0.311,-0.415,-0.225
0.314,-0.420,-0.230
0.317,-0.430,-0.245
0.319,-0.440,-0.235
0.322,-0.425,-0.225
0.325,-0.415,-0.225
0.328,-0.425,-0.240
0.331,-0.430,-0.250
0.333,-0.425,-0.250
0.336,-0.415,-0.230
0.339,-0.420,-0.220
0.342,-0.415,-0.230
0.344,-0.420,-0.235
0.347,-0.420,-0.240
0.350,-0.435,-0.225
0.353,-0.415,-0.210
0.356,-0.415,-0.200
0.358,-0.400,-0.185
0.361,-0.395,-0.190
0.364,-0.410,-0.210
0.367,-0.425,-0.195
0.369,-0.415,-0.180
0.372,-0.405,-0.175
0.375,-0.395,-0.180
0.378,-0.400,-0.195
0.381,-0.410,-0.200
0.383,-0.420,-0.185
0.386,-0.410,-0.195
0.389,-0.395,-0.195
0.392,-0.380,-0.210
0.394,-0.390,-0.215
0.397,-0.400,-0.220
0.400,-0.415,-0.210
0.403,-0.420,-0.205
0.406,-0.385,-0.210
0.408,-0.375,-0.220
0.411,-0.380,-0.205
0.414,-0.375,-0.215
0.417,-0.365,-0.210
0.419,-0.350,-0.210
0.422,-0.350,-0.215
0.425,-0.350,-0.220
0.428,-0.340,-0.235
0.431,-0.350,-0.245
0.433,-0.350,-0.250
0.436,-0.325,-0.255
0.439,-0.320,-0.240
0.442,-0.310,-0.250
0.444,-0.310,-0.245
0.447,-0.310,-0.240
0.450,-0.305,-0.240
0.453,-0.285,-0.250
0.456,-0.270,-0.240
0.458,-0.265,-0.245
0.461,-0.265,-0.230
0.464,-0.255,-0.235
0.467,-0.240,-0.230
0.469,-0.220,-0.225
0.472,-0.210,-0.210
0.475,-0.205,-0.205
0.478,-0.190,-0.205
0.481,-0.175,-0.200
0.483,-0.175,-0.205
0.486,-0.165,-0.210
0.489,-0.155,-0.200
0.492,-0.145,-0.200
0.494,-0.130,-0.200
0.497,-0.125,-0.215
0.500,-0.135,-0.225
0.503,-0.125,-0.225
0.506,-0.110,-0.215
0.508,-0.090,-0.215
0.511,-0.105,-0.225
0.514,-0.120,-0.240
0.517,-0.120,-0.260
0.519,-0.120,-0.255
0.522,-0.110,-0.235
0.525,-0.110,-0.230
0.528,-0.130,-0.230
0.531,-0.160,-0.245
0.533,-0.165,-0.255
0.536,-0.170,-0.240
0.539,-0.170,-0.225
0.542,-0.180,-0.215
0.544,-0.205,-0.235
0.547,-0.225,-0.260
0.550,-0.235,-0.265
0.553,-0.245,-0.250
0.556,-0.250,-0.240
0.558,-0.255,-0.235
0.561,-0.265,-0.235
0.564,-0.275,-0.250
0.567,-0.285,-0.260
0.569,-0.295,-0.245
0.572,-0.290,-0.215
0.575,-0.305,-0.215
0.578,-0.315,-0.225
0.581,-0.330,-0.250
0.583,-0.340,-0.225
0.586,-0.325,-0.220
0.589,-0.325,-0.190
0.592,-0.315,-0.185
0.594,-0.310,-0.185
0.597,-0.335,-0.200
0.600,-0.355,-0.205
0.603,-0.355,-0.190
0.606,-0.365,-0.175
0.608,-0.345,-0.175
0.611,-0.345,-0.190
0.614,-0.330,-0.205
0.617,-0.350,-0.205
0.619,-0.355,-0.185
0.622,-0.340,-0.180
0.625,-0.345,-0.195
0.628,-0.345,-0.210
0.631,-0.350,-0.225
0.633,-0.350,-0.225
0.636,-0.350,-0.200
0.639,-0.345,-0.190
0.642,-0.330,-0.205
0.644,-0.340,-0.215
0.647,-0.350,-0.220
0.650,-0.360,-0.210
0.653,-0.350,-0.190
0.656,-0.340,-0.190
0.658,-0.330,-0.215
0.661,-0.320,-0.235
0.664,-0.325,-0.235
0.667,-0.320,-0.235
0.669,-0.325,-0.205
0.672,-0.320,-0.205
0.675,-0.315,-0.225
0.678,-0.325,-0.230
0.681,-0.345,-0.240
0.683,-0.350,-0.235
0.686,-0.330,-0.215
0.689,-0.320,-0.200
0.692,-0.305,-0.220
0.694,-0.305,-0.210
0.697,-0.300,-0.220
0.700,-0.320,-0.210
0.703,-0.325,-0.195
0.706,-0.325,-0.185
0.708,-0.305,-0.185
0.711,-0.290,-0.185
0.714,-0.305,-0.200
0.717,-0.320,-0.190
0.719,-0.325,-0.175
0.722,-0.325,-0.170
0.725,-0.310,-0.185
0.728,-0.310,-0.180
0.731,-0.310,-0.185
0.733,-0.325,-0.190
0.736,-0.310,-0.175
0.739,-0.310,-0.175
0.742,-0.315,-0.185
0.744,-0.310,-0.195
0.747,-0.320,-0.210
0.750,-0.330,-0.200
0.753,-0.320,-0.200
0.756,-0.315,-0.195
0.758,-0.315,-0.215
0.761,-0.315,-0.215
0.764,-0.340,-0.210
0.767,-0.340,-0.210
0.769,-0.325,-0.200
0.772,-0.310,-0.200
0.775,-0.305,-0.200
0.778,-0.320,-0.205
0.781,-0.320,-0.220
0.783,-0.330,-0.225
0.786,-0.330,-0.240
0.789,-0.335,-0.240
0.792,-0.320,-0.235
0.794,-0.320,-0.240
0.797,-0.330,-0.245
0.800,-0.340,-0.245
0.803,-0.345,-0.235
0.806,-0.335,-0.225
0.808,-0.320,-0.235
0.811,-0.330,-0.235
0.814,-0.325,-0.225
0.817,-0.320,-0.220
0.819,-0.325,-0.210
0.822,-0.325,-0.205
0.825,-0.315,-0.210
0.828,-0.315,-0.185
0.831,-0.320,-0.195
0.833,-0.335,-0.195
0.836,-0.335,-0.190
0.839,-0.325,-0.180
0.842,-0.320,-0.180
0.844,-0.330,-0.165
0.847,-0.340,-0.180
0.850,-0.350,-0.190
0.853,-0.330,-0.190
0.856,-0.335,-0.185
0.858,-0.325,-0.200
0.861,-0.310,-0.205
0.864,-0.340,-0.205
0.867,-0.355,-0.220
0.869,-0.335,-0.210
0.872,-0.320,-0.215
0.875,-0.305,-0.205
0.878,-0.310,-0.210
0.881,-0.315,-0.200
0.883,-0.320,-0.210
0.886,-0.350,-0.225
0.889,-0.315,-0.200
0.892,-0.320,-0.195
0.894,-0.320,-0.205
0.897,-0.320,-0.215
0.900,-0.320,-0.220
0.903,-0.320,-0.250
0.906,-0.310,-0.220
0.908,-0.310,-0.225
0.911,-0.315,-0.235
0.914,-0.315,-0.225
0.917,-0.310,-0.230
0.919,-0.295,-0.225
0.922,-0.280,-0.225
0.925,-0.280,-0.235
0.928,-0.290,-0.230
0.931,-0.295,-0.225
0.933,-0.295,-0.235
0.936,-0.285,-0.220
0.939,-0.275,-0.215
0.942,-0.240,-0.210
0.944,-0.220,-0.205
0.947,-0.215,-0.205
0.950,-0.215,-0.185
0.953,-0.175,-0.180
0.956,-0.145,-0.180
0.958,-0.140,-0.185
0.961,-0.150,-0.175
0.964,-0.185,-0.185
0.967,-0.210,-0.190
0.969,-0.215,-0.185
0.972,-0.215,-0.190
0.975,-0.205,-0.190
0.978,-0.210,-0.200
0.981,-0.215,-0.200
0.983,-0.235,-0.215
0.986,-0.255,-0.210
0.989,-0.250,-0.205
0.992,-0.250,-0.215
0.994,-0.240,-0.210
0.997,-0.255,-0.225
1.000,-0.270,-0.215
1.003,-0.275,-0.220
1.006,-0.300,-0.220
1.008,-0.300,-0.220
1.011,-0.325,-0.220
1.014,-0.320,-0.225
1.017,-0.325,-0.225
1.019,-0.315,-0.230
1.022,-0.305,-0.240
1.025,-0.305,-0.245
1.028,-0.315,-0.230
1.031,-0.320,-0.240
1.033,-0.355,-0.260
1.036,-0.350,-0.250
1.039,-0.350,-0.250
1.042,-0.335,-0.255
1.044,-0.320,-0.240
1.047,-0.325,-0.255
1.050,-0.340,-0.245
1.053,-0.350,-0.245
1.056,-0.325,-0.225
1.058,-0.305,-0.220
1.061,-0.310,-0.195
1.064,-0.325,-0.220
1.067,-0.360,-0.215
1.069,-0.355,-0.220
1.072,-0.360,-0.190
1.075,-0.355,-0.175
1.078,-0.360,-0.165
1.081,-0.370,-0.190
1.083,-0.270,-0.185
1.086,-0.085,-0.185
1.089,0.135,-0.185
1.092,0.385,-0.185
1.094,0.690,-0.215
1.097,0.945,-0.265
1.100,1.020,-0.320
1.103,0.890,-0.370
1.106,0.605,-0.390
1.108,0.345,-0.355
1.111,0.115,-0.310
1.114,-0.055,-0.265
1.117,-0.140,-0.230
1.119,-0.185,-0.210
1.122,-0.235,-0.195
1.125,-0.240,-0.195
1.128,-0.250,-0.200
1.131,-0.270,-0.215
1.133,-0.300,-0.225
1.136,-0.315,-0.225
1.139,-0.340,-0.210
1.142,-0.370,-0.215
1.144,-0.380,-0.225
1.147,-0.405,-0.250
1.150,-0.395,-0.250
1.153,-0.385,-0.235
1.156,-0.375,-0.205
1.158,-0.365,-0.215
1.161,-0.375,-0.230
1.164,-0.395,-0.245
1.167,-0.415,-0.245
1.169,-0.420,-0.230
1.172,-0.405,-0.200
1.175,-0.390,-0.205
1.178,-0.410,-0.205
1.181,-0.400,-0.215
1.183,-0.410,-0.195
1.186,-0.390,-0.170
1.189,-0.395,-0.175
1.192,-0.390,-0.175
1.194,-0.395,-0.185
1.197,-0.415,-0.190
1.200,-0.425,-0.180
1.203,-0.420,-0.175
1.206,-0.395,-0.160
1.208,-0.390,-0.180
1.211,-0.400,-0.190
1.214,-0.405,-0.200
1.217,-0.405,-0.195
1.219,-0.395,-0.200
1.222,-0.385,-0.200
1.225,-0.385,-0.190
1.228,-0.385,-0.205
1.231,-0.400,-0.205
1.233,-0.405,-0.200
1.236,-0.405,-0.200
1.239,-0.400,-0.190
1.242,-0.390,-0.205
1.244,-0.385,-0.205
1.247,-0.400,-0.220
1.250,-0.415,-0.220
1.253,-0.405,-0.215
1.256,-0.390,-0.220
1.258,-0.375,-0.230
1.261,-0.370,-0.235
1.264,-0.385,-0.230
1.267,-0.400,-0.230
1.269,-0.385,-0.230
1.272,-0.370,-0.225
1.275,-0.360,-0.225
1.278,-0.365,-0.235
1.281,-0.365,-0.225
1.283,-0.375,-0.225
1.286,-0.380,-0.230
1.289,-0.355,-0.225
1.292,-0.340,-0.215
1.294,-0.340,-0.215
1.297,-0.335,-0.205
1.300,-0.345,-0.195
1.303,-0.335,-0.195
1.306,-0.320,-0.185
1.308,-0.315,-0.185
1.311,-0.330,-0.180
1.314,-0.315,-0.200
1.317,-0.330,-0.190
1.319,-0.315,-0.180
1.322,-0.300,-0.170
1.325,-0.275,-0.175
1.328,-0.255,-0.170
1.331,-0.240,-0.185
1.333,-0.255,-0.195
1.336,-0.245,-0.205
1.339,-0.235,-0.185
1.342,-0.220,-0.205
1.344,-0.210,-0.195
1.347,-0.210,-0.220
1.350,-0.215,-0.215
1.353,-0.205,-0.215
1.356,-0.185,-0.210
1.358,-0.170,-0.215
1.361,-0.150,-0.210
1.364,-0.140,-0.215
1.367,-0.145,-0.230
1.369,-0.140,-0.230
1.372,-0.115,-0.225
1.375,-0.120,-0.230
1.378,-0.125,-0.245
1.381,-0.115,-0.255
1.383,-0.130,-0.270
1.386,-0.120,-0.255
1.389,-0.120,-0.250
1.392,-0.125,-0.250
1.394,-0.115,-0.240
1.397,-0.130,-0.250
1.400,-0.125,-0.260
1.403,-0.125,-0.255
1.406,-0.130,-0.240
1.408,-0.140,-0.225
1.411,-0.160,-0.215
1.414,-0.170,-0.225
1.417,-0.190,-0.220
1.419,-0.195,-0.205
1.422,-0.190,-0.195
1.425,-0.180,-0.185
1.428,-0.195,-0.185
1.431,-0.225,-0.185
1.433,-0.235,-0.190
1.436,-0.240,-0.180
1.439,-0.235,-0.165
1.442,-0.235,-0.165
1.444,-0.240,-0.160
1.447,-0.270,-0.180
1.450,-0.275,-0.185
1.453,-0.280,-0.195
1.456,-0.275,-0.180
1.458,-0.275,-0.175
1.461,-0.280,-0.190
1.464,-0.300,-0.195
1.467,-0.310,-0.195
1.469,-0.310,-0.195
1.472,-0.305,-0.185
1.475,-0.295,-0.165
1.478,-0.295,-0.180
1.481,-0.310,-0.200
1.483,-0.320,-0.200
1.486,-0.305,-0.200
1.489,-0.300,-0.190
1.492,-0.295,-0.185
1.494,-0.315,-0.190
1.497,-0.315,-0.220
1.500,-0.320,-0.230
1.503,-0.305,-0.210
1.506,-0.305,-0.210
1.508,-0.295,-0.200
1.511,-0.310,-0.205
1.514,-0.305,-0.225
1.517,-0.300,-0.230
1.519,-0.305,-0.220
1.522,-0.300,-0.200
1.525,-0.310,-0.180
1.528,-0.295,-0.185
1.531,-0.295,-0.205
1.533,-0.295,-0.205
1.536,-0.290,-0.185
1.539,-0.285,-0.160
1.542,-0.280,-0.160
1.544,-0.275,-0.170
1.547,-0.275,-0.170
1.550,-0.285,-0.170
1.553,-0.290,-0.150
1.556,-0.275,-0.145
1.558,-0.280,-0.150
1.561,-0.270,-0.170
1.564,-0.285,-0.175
1.567,-0.295,-0.175
1.569,-0.295,-0.160
1.572,-0.275,-0.150
1.575,-0.270,-0.165
1.578,-0.265,-0.170
1.581,-0.265,-0.195
1.583,-0.270,-0.190
1.586,-0.265,-0.185
1.589,-0.270,-0.165
1.592,-0.260,-0.160
1.594,-0.260,-0.175
1.597,-0.265,-0.185
1.600,-0.285,-0.185
1.603,-0.285,-0.175
1.606,-0.275,-0.175
1.608,-0.260,-0.185
1.611,-0.265,-0.205
1.614,-0.280,-0.220
1.617,-0.285,-0.215
1.619,-0.280,-0.200
1.622,-0.265,-0.195
1.625,-0.265,-0.205
1.628,-0.265,-0.210
1.631,-0.265,-0.215
1.633,-0.265,-0.210
1.636,-0.270,-0.195
1.639,-0.270,-0.190
1.642,-0.255,-0.195
1.644,-0.265,-0.200
1.647,-0.280,-0.200
1.650,-0.290,-0.185
1.653,-0.280,-0.165
1.656,-0.270,-0.150
1.658,-0.270,-0.155
1.661,-0.265,-0.160
1.664,-0.265,-0.175
1.667,-0.295,-0.165
1.669,-0.280,-0.155
1.672,-0.285,-0.140
1.675,-0.265,-0.155
1.678,-0.265,-0.155
1.681,-0.280,-0.165
1.683,-0.285,-0.160
1.686,-0.285,-0.150
1.689,-0.275,-0.150
1.692,-0.275,-0.170
1.694,-0.275,-0.180
1.697,-0.275,-0.200
1.700,-0.285,-0.180
1.703,-0.285,-0.170
1.706,-0.270,-0.160
1.708,-0.265,-0.180
1.711,-0.270,-0.190
1.714,-0.275,-0.185
1.717,-0.285,-0.190
1.719,-0.280,-0.175
1.722,-0.265,-0.160
1.725,-0.265,-0.180
1.728,-0.275,-0.185
1.731,-0.270,-0.190
1.733,-0.275,-0.200
1.736,-0.275,-0.205
1.739,-0.275,-0.190
1.742,-0.260,-0.190
1.744,-0.265,-0.210
1.747,-0.275,-0.225
1.750,-0.285,-0.225
1.753,-0.280,-0.210
1.756,-0.280,-0.190
1.758,-0.260,-0.200
1.761,-0.270,-0.205
1.764,-0.275,-0.215
1.767,-0.280,-0.220
1.769,-0.280,-0.200
1.772,-0.270,-0.175
1.775,-0.255,-0.165
1.778,-0.225,-0.165
1.781,-0.235,-0.175
1.783,-0.245,-0.175
1.786,-0.240,-0.150
1.789,-0.220,-0.140
1.792,-0.210,-0.145
1.794,-0.215,-0.150
1.797,-0.220,-0.150
1.800,-0.225,-0.160
1.803,-0.235,-0.140
1.806,-0.230,-0.120
1.808,-0.220,-0.140
1.811,-0.190,-0.155
1.814,-0.180,-0.175
1.817,-0.185,-0.185
1.819,-0.150,-0.155
1.822,-0.115,-0.145
1.825,-0.105,-0.155
1.828,-0.100,-0.175
1.831,-0.125,-0.195
1.833,-0.150,-0.190
1.836,-0.155,-0.180
1.839,-0.150,-0.165
1.842,-0.160,-0.175
1.844,-0.175,-0.180
1.847,-0.185,-0.205
1.850,-0.200,-0.200
1.853,-0.190,-0.175
1.856,-0.190,-0.185
1.858,-0.180,-0.200
1.861,-0.195,-0.215
1.864,-0.210,-0.235
1.867,-0.225,-0.230
1.869,-0.220,-0.210
1.872,-0.225,-0.205
1.875,-0.240,-0.205
1.878,-0.240,-0.220
1.881,-0.260,-0.220
1.883,-0.290,-0.230
1.886,-0.285,-0.205
1.889,-0.280,-0.210
1.892,-0.265,-0.210
1.894,-0.275,-0.200
1.897,-0.295,-0.210
1.900,-0.305,-0.200
1.903,-0.295,-0.170
1.906,-0.290,-0.160
1.908,-0.275,-0.160
1.911,-0.285,-0.170
1.914,-0.295,-0.175
1.917,-0.305,-0.190
1.919,-0.320,-0.155
1.922,-0.305,-0.150
1.925,-0.295,-0.155
1.928,-0.300,-0.160
1.931,-0.305,-0.185
1.933,-0.305,-0.180
1.936,-0.295,-0.170
1.939,-0.285,-0.150
1.942,-0.290,-0.155
1.944,-0.310,-0.180
1.947,-0.340,-0.180
1.950,-0.370,-0.185
1.953,-0.365,-0.160
1.956,-0.290,-0.160
1.958,-0.150,-0.160
1.961,0.065,-0.165
1.964,0.295,-0.180
1.967,0.540,-0.190
1.969,0.840,-0.200
1.972,1.085,-0.215
1.975,1.165,-0.265
1.978,1.040,-0.335
1.981,0.765,-0.365
1.983,0.480,-0.350
1.986,0.220,-0.310
1.989,0.015,-0.240
1.992,-0.080,-0.200
1.994,-0.115,-0.190
1.997,-0.185,-0.210
2.000,-0.235,-0.220
2.003,-0.245,-0.200
2.006,-0.235,-0.190
2.008,-0.240,-0.180
2.011,-0.260,-0.180
2.014,-0.300,-0.190
2.017,-0.345,-0.185
2.019,-0.350,-0.160
2.022,-0.365,-0.150
2.025,-0.350,-0.155
2.028,-0.365,-0.150
2.031,-0.375,-0.155
2.033,-0.390,-0.145
2.036,-0.375,-0.130
2.039,-0.370,-0.130
2.042,-0.370,-0.135
2.044,-0.375,-0.140
2.047,-0.385,-0.150
2.050,-0.390,-0.150
2.053,-0.395,-0.135
2.056,-0.400,-0.130
2.058,-0.390,-0.145
2.061,-0.390,-0.160
2.064,-0.400,-0.155
2.067,-0.400,-0.155
2.069,-0.390,-0.165
2.072,-0.385,-0.150
2.075,-0.385,-0.160
2.078,-0.385,-0.155
2.081,-0.395,-0.160
2.083,-0.410,-0.155
2.086,-0.400,-0.160
2.089,-0.390,-0.150
2.092,-0.385,-0.160
2.094,-0.395,-0.160
2.097,-0.395,-0.170
2.100,-0.405,-0.185
2.103,-0.405,-0.180
2.106,-0.390,-0.180
2.108,-0.380,-0.180
2.111,-0.380,-0.190
2.114,-0.395,-0.190
2.117,-0.400,-0.185
2.119,-0.410,-0.185
2.122,-0.390,-0.175
2.125,-0.385,-0.170
2.128,-0.375,-0.170
2.131,-0.385,-0.180
2.133,-0.395,-0.165
2.136,-0.395,-0.155
2.139,-0.390,-0.155
2.142,-0.380,-0.150
2.144,-0.385,-0.135
2.147,-0.390,-0.130
2.150,-0.395,-0.135
2.153,-0.385,-0.125
2.156,-0.375,-0.125
2.158,-0.365,-0.115
2.161,-0.365,-0.120
2.164,-0.370,-0.130
2.167,-0.370,-0.130
2.169,-0.365,-0.130
2.172,-0.350,-0.120
2.175,-0.340,-0.130
2.178,-0.345,-0.125
2.181,-0.345,-0.145
2.183,-0.360,-0.155
2.186,-0.350,-0.155
2.189,-0.320,-0.145
2.192,-0.305,-0.130
2.194,-0.290,-0.140
2.197,-0.300,-0.150
2.200,-0.290,-0.160
2.203,-0.295,-0.155
2.206,-0.280,-0.145
2.208,-0.255,-0.130
2.211,-0.235,-0.150
2.214,-0.245,-0.175
2.217,-0.245,-0.185
2.219,-0.235,-0.185
2.222,-0.225,-0.170
2.225,-0.205,-0.160
2.228,-0.180,-0.165
2.231,-0.180,-0.180
2.233,-0.190,-0.185
2.236,-0.170,-0.185
2.239,-0.155,-0.155
2.242,-0.145,-0.160
2.244,-0.140,-0.170
2.247,-0.150,-0.180
2.250,-0.140,-0.190
2.253,-0.145,-0.165
2.256,-0.135,-0.155
2.258,-0.110,-0.140
2.261,-0.130,-0.130
2.264,-0.125,-0.150
2.267,-0.130,-0.150
2.269,-0.135,-0.145
2.272,-0.120,-0.140
2.275,-0.120,-0.140
2.278,-0.120,-0.125
2.281,-0.145,-0.145
2.283,-0.165,-0.150
2.286,-0.170,-0.140
2.289,-0.175,-0.120
2.292,-0.175,-0.120
2.294,-0.190,-0.130
2.297,-0.215,-0.150
2.300,-0.225,-0.155
2.303,-0.235,-0.150
2.306,-0.250,-0.135
2.308,-0.245,-0.135
2.311,-0.265,-0.150
2.314,-0.270,-0.155
2.317,-0.295,-0.150
2.319,-0.315,-0.130
2.322,-0.305,-0.120
2.325,-0.295,-0.120
2.328,-0.300,-0.125
2.331,-0.315,-0.145
2.333,-0.325,-0.155
2.336,-0.325,-0.150
2.339,-0.325,-0.135
2.342,-0.325,-0.145
2.344,-0.330,-0.160
2.347,-0.340,-0.165
2.350,-0.355,-0.170
2.353,-0.360,-0.160
2.356,-0.350,-0.145
2.358,-0.335,-0.135
2.361,-0.355,-0.155
2.364,-0.360,-0.165
2.367,-0.365,-0.160
2.369,-0.365,-0.145
2.372,-0.345,-0.125
2.375,-0.350,-0.120
2.378,-0.360,-0.110
2.381,-0.360,-0.125
2.383,-0.355,-0.115
2.386,-0.350,-0.115
2.389,-0.345,-0.095
2.392,-0.335,-0.095
2.394,-0.345,-0.100
2.397,-0.365,-0.115
2.400,-0.375,-0.115
2.403,-0.365,-0.090
2.406,-0.350,-0.085
2.408,-0.355,-0.090
2.411,-0.345,-0.105
2.414,-0.350,-0.125
2.417,-0.350,-0.125
2.419,-0.355,-0.105
2.422,-0.345,-0.110
2.425,-0.330,-0.120
2.428,-0.325,-0.125
2.431,-0.330,-0.140
2.433,-0.350,-0.145
2.436,-0.350,-0.125
2.439,-0.350,-0.110
2.442,-0.340,-0.120
2.444,-0.340,-0.120
2.447,-0.350,-0.125
2.450,-0.355,-0.145
2.453,-0.345,-0.135
2.456,-0.335,-0.130
2.458,-0.330,-0.145
2.461,-0.340,-0.140
2.464,-0.340,-0.175
2.467,-0.350,-0.180
2.469,-0.340,-0.150
2.472,-0.325,-0.135
2.475,-0.325,-0.135
2.478,-0.320,-0.145
2.481,-0.340,-0.165
2.483,-0.355,-0.165
2.486,-0.360,-0.160
2.489,-0.355,-0.135
2.492,-0.345,-0.120
2.494,-0.330,-0.135
2.497,-0.335,-0.140
2.500,-0.345,-0.140
2.503,-0.345,-0.125
2.506,-0.350,-0.120
2.508,-0.330,-0.100
2.511,-0.330,-0.095
2.514,-0.345,-0.100
2.517,-0.345,-0.115
2.519,-0.350,-0.105
2.522,-0.340,-0.085
2.525,-0.345,-0.070
2.528,-0.345,-0.080
2.531,-0.345,-0.115
2.533,-0.350,-0.125
2.536,-0.345,-0.115
2.539,-0.345,-0.095
2.542,-0.335,-0.105
2.544,-0.355,-0.110
2.547,-0.360,-0.110
2.550,-0.365,-0.140
2.553,-0.365,-0.140
2.556,-0.360,-0.120
2.558,-0.350,-0.105
2.561,-0.355,-0.110
2.564,-0.355,-0.115
2.567,-0.355,-0.125
2.569,-0.350,-0.130
2.572,-0.345,-0.105
2.575,-0.340,-0.115
2.578,-0.355,-0.115
2.581,-0.370,-0.135
2.583,-0.380,-0.145
2.586,-0.380,-0.140
2.589,-0.375,-0.130
2.592,-0.365,-0.130
2.594,-0.360,-0.140
2.597,-0.355,-0.155
2.600,-0.355,-0.165
2.603,-0.365,-0.160
2.606,-0.365,-0.135
2.608,-0.345,-0.115
2.611,-0.340,-0.120
2.614,-0.360,-0.145
2.617,-0.385,-0.150
2.619,-0.380,-0.150
2.622,-0.360,-0.110
2.625,-0.345,-0.105
2.628,-0.345,-0.105
2.631,-0.365,-0.105
2.633,-0.375,-0.110
2.636,-0.385,-0.110
2.639,-0.355,-0.090
2.642,-0.350,-0.070
2.644,-0.350,-0.080
2.647,-0.360,-0.100
2.650,-0.370,-0.105
2.653,-0.370,-0.100
2.656,-0.355,-0.075
2.658,-0.350,-0.075
2.661,-0.350,-0.095
2.664,-0.365,-0.105
2.667,-0.365,-0.115
2.669,-0.360,-0.110
2.672,-0.335,-0.105
2.675,-0.325,-0.090
2.678,-0.330,-0.105
2.681,-0.325,-0.105
2.683,-0.330,-0.110
2.686,-0.315,-0.115
2.689,-0.305,-0.095
2.692,-0.310,-0.085
2.694,-0.320,-0.100
2.697,-0.325,-0.125
2.700,-0.320,-0.130
2.703,-0.310,-0.130
2.706,-0.280,-0.105
2.708,-0.265,-0.120
2.711,-0.245,-0.125
2.714,-0.240,-0.145
2.717,-0.230,-0.155
2.719,-0.230,-0.145
2.722,-0.225,-0.115
2.725,-0.220,-0.115
2.728,-0.235,-0.125
2.731,-0.250,-0.140
2.733,-0.265,-0.165
2.736,-0.275,-0.150
2.739,-0.255,-0.130
2.742,-0.260,-0.110
2.744,-0.255,-0.110
2.747,-0.270,-0.120
2.750,-0.300,-0.110
2.753,-0.315,-0.100
2.756,-0.315,-0.095
2.758,-0.320,-0.085
2.761,-0.325,-0.080
2.764,-0.335,-0.090
2.767,-0.355,-0.100
2.769,-0.365,-0.095
2.772,-0.365,-0.085
2.775,-0.380,-0.090
2.778,-0.390,-0.100
2.781,-0.400,-0.105
2.783,-0.395,-0.100
2.786,-0.380,-0.100
2.789,-0.375,-0.095
2.792,-0.385,-0.100
2.794,-0.415,-0.110
2.797,-0.420,-0.115
2.800,-0.420,-0.115
2.803,-0.425,-0.105
2.806,-0.415,-0.095
2.808,-0.405,-0.095
2.811,-0.410,-0.100
2.814,-0.425,-0.115
2.817,-0.430,-0.115
2.819,-0.410,-0.110
2.822,-0.395,-0.105
2.825,-0.400,-0.115
2.828,-0.420,-0.140
2.831,-0.425,-0.140
2.833,-0.435,-0.135
2.836,-0.450,-0.125
2.839,-0.455,-0.110
2.842,-0.465,-0.105
2.844,-0.450,-0.125
2.847,-0.410,-0.135
2.850,-0.265,-0.135
2.853,-0.025,-0.105
2.856,0.205,-0.100
2.858,0.460,-0.110
2.861,0.715,-0.135
2.864,0.975,-0.170
2.867,1.095,-0.190
2.869,1.010,-0.205
2.872,0.755,-0.210
2.875,0.460,-0.215
2.878,0.190,-0.210
2.881,-0.050,-0.180
2.883,-0.185,-0.135
2.886,-0.225,-0.085
2.889,-0.250,-0.060
2.892,-0.280,-0.060
2.894,-0.325,-0.075
2.897,-0.350,-0.090
2.900,-0.355,-0.090
2.903,-0.350,-0.075
2.906,-0.365,-0.075
2.908,-0.385,-0.075
2.911,-0.425,-0.080
2.914,-0.445,-0.090
2.917,-0.445,-0.090
2.919,-0.455,-0.095
2.922,-0.450,-0.090
2.925,-0.455,-0.090
2.928,-0.480,-0.090
2.931,-0.495,-0.100
2.933,-0.485,-0.100
2.936,-0.475,-0.085
2.939,-0.470,-0.085
2.942,-0.470,-0.080
2.944,-0.480,-0.095
2.947,-0.505,-0.115
2.950,-0.500,-0.130
2.953,-0.490,-0.130
2.956,-0.480,-0.130
2.958,-0.495,-0.130
2.961,-0.500,-0.130
2.964,-0.490,-0.140
2.967,-0.490,-0.135
2.969,-0.475,-0.135
2.972,-0.465,-0.130
2.975,-0.475,-0.135
2.978,-0.475,-0.140
2.981,-0.485,-0.135
2.983,-0.490,-0.135
2.986,-0.480,-0.120
2.989,-0.475,-0.115
2.992,-0.465,-0.105
2.994,-0.475,-0.095
2.997,-0.490,-0.090
3.000,-0.475,-0.085
3.003,-0.465,-0.075
3.006,-0.475,-0.075
3.008,-0.485,-0.070
3.011,-0.485,-0.075
3.014,-0.485,-0.070
3.017,-0.475,-0.075
3.019,-0.470,-0.065
3.022,-0.465,-0.070
3.025,-0.475,-0.065
3.028,-0.475,-0.075
3.031,-0.480,-0.085
3.033,-0.470,-0.085
3.036,-0.475,-0.085
3.039,-0.460,-0.105
3.042,-0.460,-0.105
3.044,-0.465,-0.105
3.047,-0.485,-0.110
3.050,-0.475,-0.100
3.053,-0.470,-0.100
3.056,-0.455,-0.100
3.058,-0.465,-0.095
3.061,-0.455,-0.100
3.064,-0.460,-0.100
3.067,-0.460,-0.100
3.069,-0.455,-0.095
3.072,-0.435,-0.105
3.075,-0.435,-0.115
3.078,-0.430,-0.135
3.081,-0.435,-0.140
3.083,-0.435,-0.140
3.086,-0.415,-0.130
3.089,-0.410,-0.130
3.092,-0.400,-0.130
3.094,-0.395,-0.130
3.097,-0.410,-0.130
3.100,-0.400,-0.140
3.103,-0.380,-0.125
3.106,-0.355,-0.130
3.108,-0.355,-0.120
3.111,-0.375,-0.120
3.114,-0.355,-0.125
3.117,-0.345,-0.115
3.119,-0.320,-0.105
3.122,-0.305,-0.100
3.125,-0.290,-0.090
3.128,-0.290,-0.090
3.131,-0.280,-0.105
3.133,-0.275,-0.095
3.136,-0.255,-0.095
3.139,-0.235,-0.090
3.142,-0.235,-0.090
3.144,-0.235,-0.095
3.147,-0.245,-0.090
3.150,-0.240,-0.095
3.153,-0.210,-0.100
3.156,-0.195,-0.115
3.158,-0.180,-0.115
3.161,-0.190,-0.120
3.164,-0.195,-0.140
3.167,-0.190,-0.135
3.169,-0.185,-0.120
3.172,-0.175,-0.120
3.175,-0.170,-0.120
3.178,-0.180,-0.120
3.181,-0.185,-0.135
3.183,-0.175,-0.135
3.186,-0.190,-0.135
3.189,-0.190,-0.130
3.192,-0.195,-0.125
3.194,-0.210,-0.140
3.197,-0.235,-0.165
3.200,-0.260,-0.155
3.203,-0.255,-0.160
3.206,-0.255,-0.145
3.208,-0.270,-0.155
3.211,-0.295,-0.160
3.214,-0.320,-0.165
3.217,-0.335,-0.160
3.219,-0.345,-0.140
3.222,-0.325,-0.130
3.225,-0.330,-0.125
3.228,-0.355,-0.140
3.231,-0.370,-0.145
3.233,-0.370,-0.135
3.236,-0.375,-0.125
3.239,-0.365,-0.100
3.242,-0.375,-0.085
3.244,-0.380,-0.100
3.247,-0.390,-0.100
3.250,-0.410,-0.100
3.253,-0.405,-0.085
3.256,-0.405,-0.085
3.258,-0.395,-0.090
3.261,-0.410,-0.090
3.264,-0.420,-0.090
3.267,-0.420,-0.090
3.269,-0.410,-0.085
3.272,-0.390,-0.090
3.275,-0.395,-0.095
3.278,-0.405,-0.090
3.281,-0.415,-0.105
3.283,-0.420,-0.105
3.286,-0.415,-0.110
3.289,-0.410,-0.115
3.292,-0.415,-0.120
3.294,-0.420,-0.110
3.297,-0.425,-0.115
3.300,-0.425,-0.110
3.303,-0.425,-0.105
3.306,-0.400,-0.105
3.308,-0.405,-0.115
3.311,-0.415,-0.110
3.314,-0.425,-0.110
3.317,-0.420,-0.110
3.319,-0.420,-0.120
3.322,-0.420,-0.130
3.325,-0.430,-0.135
3.328,-0.430,-0.145
3.331,-0.430,-0.155
3.333,-0.430,-0.140
3.336,-0.405,-0.140
3.339,-0.405,-0.145
3.342,-0.405,-0.145
3.344,-0.415,-0.150
3.347,-0.430,-0.145
3.350,-0.420,-0.130
3.353,-0.415,-0.140
3.356,-0.410,-0.145
3.358,-0.400,-0.145
3.361,-0.415,-0.135
3.364,-0.415,-0.125
3.367,-0.415,-0.115
3.369,-0.410,-0.105
3.372,-0.390,-0.105
3.375,-0.390,-0.110
3.378,-0.400,-0.100
3.381,-0.410,-0.105
3.383,-0.415,-0.095
3.386,-0.395,-0.090
3.389,-0.385,-0.100
3.392,-0.390,-0.100
3.394,-0.405,-0.095
3.397,-0.395,-0.105
3.400,-0.400,-0.105
3.403,-0.385,-0.105
3.406,-0.380,-0.115
3.408,-0.390,-0.125
3.411,-0.400,-0.125
3.414,-0.415,-0.130
3.417,-0.410,-0.130
3.419,-0.400,-0.125
3.422,-0.400,-0.130
3.425,-0.410,-0.125
3.428,-0.420,-0.130
3.431,-0.405,-0.130
3.433,-0.410,-0.125
3.436,-0.400,-0.125
3.439,-0.400,-0.125
3.442,-0.395,-0.145
3.444,-0.400,-0.145
3.447,-0.415,-0.155
3.450,-0.420,-0.150
3.453,-0.415,-0.140
3.456,-0.410,-0.145
3.458,-0.420,-0.155
3.461,-0.420,-0.155
3.464,-0.420,-0.155
3.467,-0.430,-0.145
3.469,-0.415,-0.155
3.472,-0.395,-0.155
3.475,-0.400,-0.155
3.478,-0.405,-0.135
3.481,-0.420,-0.140
3.483,-0.435,-0.125
3.486,-0.425,-0.130
3.489,-0.420,-0.110
3.492,-0.415,-0.110
3.494,-0.405,-0.115
3.497,-0.410,-0.120
3.500,-0.430,-0.100
3.503,-0.430,-0.095
3.506,-0.395,-0.100
3.508,-0.410,-0.095
3.511,-0.420,-0.105
3.514,-0.425,-0.110
3.517,-0.415,-0.125
3.519,-0.405,-0.110
3.522,-0.410,-0.105
3.525,-0.405,-0.115
3.528,-0.415,-0.115
3.531,-0.415,-0.130
3.533,-0.415,-0.135
3.536,-0.405,-0.125
3.539,-0.385,-0.125
3.542,-0.410,-0.120
3.544,-0.420,-0.130
3.547,-0.430,-0.130
3.550,-0.420,-0.135
3.553,-0.410,-0.135
3.556,-0.400,-0.115
3.558,-0.405,-0.125
3.561,-0.420,-0.130
3.564,-0.420,-0.155
3.567,-0.430,-0.150
3.569,-0.415,-0.160
3.572,-0.400,-0.155
3.575,-0.410,-0.150
3.578,-0.405,-0.160
3.581,-0.405,-0.160
3.583,-0.415,-0.160
3.586,-0.400,-0.160
3.589,-0.410,-0.150
3.592,-0.410,-0.150
3.594,-0.420,-0.160
3.597,-0.410,-0.155
3.600,-0.405,-0.150
3.603,-0.390,-0.145
3.606,-0.375,-0.135
3.608,-0.375,-0.130
3.611,-0.375,-0.125
3.614,-0.375,-0.110
3.617,-0.375,-0.110
3.619,-0.365,-0.110
3.622,-0.345,-0.095
3.625,-0.345,-0.100
3.628,-0.350,-0.100
3.631,-0.375,-0.105
3.633,-0.370,-0.115
3.636,-0.335,-0.105
3.639,-0.290,-0.095
3.642,-0.270,-0.095
3.644,-0.250,-0.105
3.647,-0.235,-0.115
3.650,-0.225,-0.125
3.653,-0.225,-0.120
3.656,-0.225,-0.125
3.658,-0.245,-0.135
3.661,-0.245,-0.130
3.664,-0.260,-0.145
3.667,-0.270,-0.145
3.669,-0.275,-0.135
3.672,-0.270,-0.130
3.675,-0.275,-0.130
3.678,-0.290,-0.140
3.681,-0.310,-0.160
3.683,-0.315,-0.170
3.686,-0.320,-0.155
3.689,-0.320,-0.160
3.692,-0.330,-0.155
3.694,-0.355,-0.175
3.697,-0.380,-0.185
3.700,-0.390,-0.175
3.703,-0.395,-0.180
3.706,-0.385,-0.175
3.708,-0.400,-0.170
3.711,-0.400,-0.180
3.714,-0.420,-0.180
3.717,-0.435,-0.180
3.719,-0.425,-0.175
3.722,-0.410,-0.170
3.725,-0.420,-0.150
3.728,-0.420,-0.155
3.731,-0.430,-0.155
3.733,-0.435,-0.150
3.736,-0.430,-0.140
3.739,-0.415,-0.130
3.742,-0.425,-0.135
3.744,-0.435,-0.130
3.747,-0.440,-0.140
3.750,-0.425,-0.130
3.753,-0.430,-0.125
3.756,-0.420,-0.120
3.758,-0.410,-0.120
3.761,-0.420,-0.120
3.764,-0.430,-0.140
3.767,-0.455,-0.135
3.769,-0.460,-0.140
3.772,-0.470,-0.140
3.775,-0.490,-0.140
3.778,-0.475,-0.145
3.781,-0.415,-0.145
3.783,-0.270,-0.145
3.786,-0.045,-0.140
3.789,0.180,-0.140
3.792,0.430,-0.135
3.794,0.720,-0.155
3.797,0.980,-0.180
3.800,1.100,-0.210
3.803,1.040,-0.250
3.806,0.790,-0.290
3.808,0.480,-0.300
3.811,0.175,-0.290
3.814,-0.075,-0.260
3.817,-0.230,-0.230
3.819,-0.280,-0.180
3.822,-0.305,-0.170
3.825,-0.355,-0.180
3.828,-0.380,-0.190
3.831,-0.395,-0.180
3.833,-0.395,-0.180
3.836,-0.395,-0.170
3.839,-0.400,-0.180
3.842,-0.430,-0.190
3.844,-0.455,-0.180
3.847,-0.470,-0.175
3.850,-0.485,-0.175
3.853,-0.485,-0.165
3.856,-0.485,-0.165
3.858,-0.505,-0.160
3.861,-0.510,-0.150
3.864,-0.505,-0.145
3.867,-0.515,-0.125
3.869,-0.500,-0.130
3.872,-0.490,-0.130
3.875,-0.490,-0.135
3.878,-0.495,-0.135
3.881,-0.510,-0.130
3.883,-0.525,-0.130
3.886,-0.510,-0.115
3.889,-0.490,-0.140
3.892,-0.490,-0.145
3.894,-0.485,-0.150
3.897,-0.490,-0.140
3.900,-0.505,-0.145
3.903,-0.500,-0.150
3.906,-0.485,-0.140
3.908,-0.490,-0.145
3.911,-0.490,-0.150
3.914,-0.495,-0.165
3.917,-0.485,-0.160
3.919,-0.485,-0.145
3.922,-0.485,-0.160
3.925,-0.485,-0.160
3.928,-0.490,-0.175
3.931,-0.490,-0.160
3.933,-0.485,-0.150
3.936,-0.470,-0.155
3.939,-0.470,-0.175
3.942,-0.480,-0.180
3.944,-0.475,-0.190
3.947,-0.490,-0.190
3.950,-0.490,-0.170
3.953,-0.470,-0.160
3.956,-0.455,-0.180
3.958,-0.450,-0.185
3.961,-0.455,-0.200
3.964,-0.460,-0.185
3.967,-0.470,-0.170
3.969,-0.460,-0.170
3.972,-0.455,-0.165
3.975,-0.445,-0.175
3.978,-0.465,-0.185
3.981,-0.470,-0.170
3.983,-0.460,-0.150
3.986,-0.450,-0.145
3.989,-0.430,-0.140
3.992,-0.435,-0.155
3.994,-0.425,-0.150
3.997,-0.430,-0.145
4.000,-0.435,-0.135
4.003,-0.430,-0.125
4.006,-0.420,-0.130
4.008,-0.420,-0.150
4.011,-0.420,-0.150
4.014,-0.425,-0.150
4.017,-0.410,-0.135
4.019,-0.390,-0.145
4.022,-0.375,-0.150
4.025,-0.380,-0.160
4.028,-0.370,-0.160
4.031,-0.370,-0.170
4.033,-0.380,-0.160
4.036,-0.370,-0.160
4.039,-0.355,-0.165
4.042,-0.345,-0.165
4.044,-0.355,-0.185
4.047,-0.345,-0.175
4.050,-0.340,-0.180
4.053,-0.315,-0.175
4.056,-0.300,-0.180
4.058,-0.295,-0.195
4.061,-0.280,-0.200
4.064,-0.280,-0.210
4.067,-0.270,-0.210
4.069,-0.250,-0.195
4.072,-0.245,-0.210
4.075,-0.245,-0.225
4.078,-0.235,-0.215
4.081,-0.230,-0.220
4.083,-0.235,-0.210
4.086,-0.225,-0.190
4.089,-0.205,-0.200
4.092,-0.195,-0.200
4.094,-0.195,-0.215
4.097,-0.195,-0.215
4.100,-0.200,-0.205
4.103,-0.180,-0.185
4.106,-0.170,-0.185
4.108,-0.170,-0.190
4.111,-0.170,-0.205
4.114,-0.185,-0.200
4.117,-0.185,-0.195
4.119,-0.175,-0.155
4.122,-0.165,-0.150
4.125,-0.165,-0.155
4.128,-0.180,-0.175
4.131,-0.180,-0.195
4.133,-0.185,-0.165
4.136,-0.195,-0.155
4.139,-0.205,-0.150
4.142,-0.230,-0.145
4.144,-0.240,-0.170
4.147,-0.245,-0.190
4.150,-0.265,-0.175
4.153,-0.270,-0.155
4.156,-0.270,-0.165
4.158,-0.285,-0.170
4.161,-0.305,-0.185
4.164,-0.315,-0.185
4.167,-0.315,-0.175
4.169,-0.315,-0.155
4.172,-0.310,-0.150
4.175,-0.315,-0.160
4.178,-0.320,-0.180
4.181,-0.335,-0.185
4.183,-0.340,-0.180
4.186,-0.340,-0.160
4.189,-0.335,-0.165
4.192,-0.340,-0.180
4.194,-0.345,-0.195
4.197,-0.360,-0.220
4.200,-0.365,-0.200
4.203,-0.355,-0.185
4.206,-0.350,-0.170
4.208,-0.345,-0.180
4.211,-0.360,-0.200
4.214,-0.375,-0.210
4.217,-0.370,-0.185
4.219,-0.370,-0.180
4.222,-0.365,-0.165
4.225,-0.360,-0.170
4.228,-0.365,-0.200
4.231,-0.375,-0.185
4.233,-0.365,-0.170
4.236,-0.350,-0.160
4.239,-0.330,-0.150
4.242,-0.345,-0.145
4.244,-0.350,-0.160
4.247,-0.350,-0.165
4.250,-0.350,-0.160
4.253,-0.345,-0.135
4.256,-0.330,-0.110
4.258,-0.335,-0.125
4.261,-0.340,-0.135
4.264,-0.355,-0.150
4.267,-0.365,-0.145
4.269,-0.340,-0.130
4.272,-0.330,-0.125
4.275,-0.335,-0.135
4.278,-0.340,-0.155
4.281,-0.345,-0.180
4.283,-0.345,-0.160
4.286,-0.340,-0.155
4.289,-0.320,-0.155
4.292,-0.330,-0.155
4.294,-0.340,-0.165
4.297,-0.330,-0.170
4.300,-0.335,-0.180
4.303,-0.335,-0.165
4.306,-0.330,-0.150
4.308,-0.335,-0.150
4.311,-0.335,-0.170
4.314,-0.335,-0.180
4.317,-0.335,-0.190
4.319,-0.325,-0.190
4.322,-0.310,-0.175
4.325,-0.315,-0.185
4.328,-0.325,-0.205
4.331,-0.320,-0.200
4.333,-0.335,-0.210
4.336,-0.320,-0.195
4.339,-0.310,-0.185
4.342,-0.315,-0.180
4.344,-0.320,-0.195
4.347,-0.320,-0.210
4.350,-0.320,-0.205
4.353,-0.320,-0.200
4.356,-0.310,-0.180
4.358,-0.320,-0.165
4.361,-0.320,-0.170
4.364,-0.330,-0.160
4.367,-0.340,-0.175
4.369,-0.320,-0.145
4.372,-0.310,-0.150
4.375,-0.310,-0.150
4.378,-0.325,-0.145
4.381,-0.335,-0.165
4.383,-0.335,-0.155
4.386,-0.315,-0.145
4.389,-0.315,-0.135
4.392,-0.330,-0.145
4.394,-0.330,-0.140
4.397,-0.330,-0.150
4.400,-0.330,-0.160
4.403,-0.330,-0.160
4.406,-0.310,-0.160
4.408,-0.320,-0.165
4.411,-0.330,-0.160
4.414,-0.330,-0.170
4.417,-0.330,-0.165
4.419,-0.325,-0.160
4.422,-0.315,-0.170
4.425,-0.320,-0.160
4.428,-0.325,-0.165
4.431,-0.330,-0.170
4.433,-0.335,-0.160
4.436,-0.325,-0.155
4.439,-0.305,-0.165
4.442,-0.315,-0.165
4.444,-0.320,-0.180
4.447,-0.330,-0.185
4.450,-0.330,-0.185
4.453,-0.315,-0.185
4.456,-0.315,-0.190
4.458,-0.310,-0.195
4.461,-0.325,-0.205
4.464,-0.325,-0.195
4.467,-0.325,-0.195
4.469,-0.315,-0.175
4.472,-0.310,-0.180
4.475,-0.315,-0.190
4.478,-0.320,-0.195
4.481,-0.325,-0.185
4.483,-0.320,-0.170
4.486,-0.315,-0.165
4.489,-0.315,-0.160
4.492,-0.310,-0.155
4.494,-0.325,-0.170
4.497,-0.330,-0.145
4.500,-0.325,-0.130
4.503,-0.325,-0.125
4.506,-0.310,-0.135
4.508,-0.300,-0.140
4.511,-0.320,-0.155
4.514,-0.320,-0.150
4.517,-0.330,-0.130
4.519,-0.325,-0.120
4.522,-0.310,-0.130
4.525,-0.320,-0.140
4.528,-0.315,-0.160
4.531,-0.315,-0.160
4.533,-0.320,-0.155
4.536,-0.325,-0.140
4.539,-0.310,-0.140
4.542,-0.305,-0.150
4.544,-0.310,-0.175
4.547,-0.320,-0.185
4.550,-0.330,-0.165
4.553,-0.315,-0.155
4.556,-0.295,-0.145
4.558,-0.290,-0.150
4.561,-0.290,-0.175
4.564,-0.310,-0.170
4.567,-0.300,-0.160
4.569,-0.285,-0.145
4.572,-0.280,-0.145
4.575,-0.280,-0.165
4.578,-0.275,-0.185
4.581,-0.285,-0.185
4.583,-0.275,-0.185
4.586,-0.250,-0.170
4.589,-0.220,-0.170
4.592,-0.200,-0.170
4.594,-0.200,-0.190
4.597,-0.180,-0.195
4.600,-0.155,-0.180
4.603,-0.130,-0.150
4.606,-0.125,-0.170
4.608,-0.130,-0.155
4.611,-0.165,-0.175
4.614,-0.180,-0.190
4.617,-0.190,-0.165
4.619,-0.195,-0.155
4.622,-0.190,-0.140
4.625,-0.200,-0.140
4.628,-0.215,-0.155
4.631,-0.220,-0.155
4.633,-0.225,-0.145
4.636,-0.230,-0.125
4.639,-0.215,-0.130
4.642,-0.235,-0.125
4.644,-0.255,-0.135
4.647,-0.260,-0.145
4.650,-0.285,-0.140
4.653,-0.295,-0.125
4.656,-0.310,-0.120
4.658,-0.310,-0.125
4.661,-0.325,-0.140
4.664,-0.335,-0.145
4.667,-0.355,-0.160
4.669,-0.350,-0.155
4.672,-0.350,-0.140
4.675,-0.360,-0.130
4.678,-0.360,-0.150
4.681,-0.370,-0.170
4.683,-0.375,-0.175
4.686,-0.360,-0.150
4.689,-0.350,-0.125
4.692,-0.350,-0.135
4.694,-0.370,-0.150
4.697,-0.385,-0.170
4.700,-0.385,-0.175
4.703,-0.375,-0.175
4.706,-0.360,-0.170
4.708,-0.370,-0.175
4.711,-0.370,-0.185
4.714,-0.370,-0.195
4.717,-0.375,-0.200
4.719,-0.390,-0.185
4.722,-0.385,-0.175
4.725,-0.405,-0.160
4.728,-0.430,-0.160
4.731,-0.430,-0.175
4.733,-0.415,-0.185
4.736,-0.300,-0.170
4.739,-0.135,-0.160
4.742,0.075,-0.150
4.744,0.275,-0.155
4.747,0.515,-0.165
4.750,0.785,-0.185
4.753,0.975,-0.190
4.756,1.000,-0.220
4.758,0.820,-0.260
4.761,0.530,-0.285
4.764,0.265,-0.280
4.767,0.000,-0.250
4.769,-0.200,-0.205
4.772,-0.270,-0.140
4.775,-0.300,-0.110
4.778,-0.335,-0.115
4.781,-0.370,-0.125
4.783,-0.370,-0.120
4.786,-0.360,-0.140
4.789,-0.365,-0.140
4.792,-0.390,-0.135
4.794,-0.415,-0.145
4.797,-0.455,-0.150
4.800,-0.480,-0.155
4.803,-0.470,-0.150
4.806,-0.465,-0.135
4.808,-0.480,-0.130
4.811,-0.475,-0.140
4.814,-0.500,-0.145
4.817,-0.495,-0.145
4.819,-0.485,-0.155
4.822,-0.490,-0.155
4.825,-0.490,-0.145
4.828,-0.500,-0.145
4.831,-0.515,-0.160
4.833,-0.515,-0.165
4.836,-0.500,-0.180
4.839,-0.485,-0.180
4.842,-0.485,-0.160
4.844,-0.490,-0.165
4.847,-0.510,-0.170
4.850,-0.520,-0.165
4.853,-0.520,-0.165
4.856,-0.510,-0.160
4.858,-0.495,-0.175
4.861,-0.490,-0.180
4.864,-0.500,-0.175
4.867,-0.500,-0.160
4.869,-0.515,-0.155
4.872,-0.515,-0.155
4.875,-0.520,-0.150
4.878,-0.520,-0.135
4.881,-0.520,-0.140
4.883,-0.525,-0.120
4.886,-0.505,-0.120
4.889,-0.500,-0.125
4.892,-0.490,-0.135
4.894,-0.515,-0.130
4.897,-0.515,-0.140
4.900,-0.535,-0.120
4.903,-0.510,-0.105
4.906,-0.515,-0.110
4.908,-0.515,-0.120
4.911,-0.540,-0.120
4.914,-0.545,-0.125
4.917,-0.520,-0.115
4.919,-0.510,-0.115
4.922,-0.485,-0.115
4.925,-0.485,-0.125
4.928,-0.495,-0.145
4.931,-0.510,-0.155
4.933,-0.525,-0.135
4.936,-0.510,-0.125
4.939,-0.500,-0.110
4.942,-0.495,-0.130
4.944,-0.510,-0.150
4.947,-0.505,-0.145
4.950,-0.500,-0.150
4.953,-0.475,-0.130
4.956,-0.490,-0.120
4.958,-0.480,-0.145
4.961,-0.485,-0.160
4.964,-0.495,-0.185
4.967,-0.495,-0.180
4.969,-0.495,-0.160
4.972,-0.495,-0.160
4.975,-0.490,-0.155
4.978,-0.495,-0.170
4.981,-0.485,-0.190
4.983,-0.470,-0.185
4.986,-0.450,-0.160
4.989,-0.440,-0.150
4.992,-0.440,-0.155
4.994,-0.450,-0.175
4.997,-0.465,-0.185
5.000,-0.455,-0.150
5.003,-0.445,-0.150
5.006,-0.415,-0.135
5.008,-0.420,-0.125
5.011,-0.410,-0.145
5.014,-0.415,-0.145
5.017,-0.410,-0.140
5.019,-0.395,-0.110
5.022,-0.370,-0.095
5.025,-0.365,-0.100
5.028,-0.355,-0.115
5.031,-0.360,-0.135
5.033,-0.370,-0.140
5.036,-0.355,-0.120
5.039,-0.320,-0.105
5.042,-0.305,-0.115
5.044,-0.320,-0.135
5.047,-0.325,-0.155
5.050,-0.330,-0.160
5.053,-0.315,-0.145
5.056,-0.295,-0.140
5.058,-0.300,-0.140
5.061,-0.280,-0.160
5.064,-0.285,-0.175
5.067,-0.280,-0.175
5.069,-0.275,-0.145
5.072,-0.265,-0.145
5.075,-0.265,-0.150
5.078,-0.270,-0.155
5.081,-0.280,-0.170
5.083,-0.290,-0.180
5.086,-0.295,-0.170
5.089,-0.295,-0.160
5.092,-0.305,-0.160
5.094,-0.320,-0.190
5.097,-0.320,-0.195
5.100,-0.335,-0.185
5.103,-0.330,-0.170
5.106,-0.335,-0.145
5.108,-0.360,-0.160
5.111,-0.355,-0.155
5.114,-0.365,-0.180
5.117,-0.380,-0.175
5.119,-0.405,-0.140
5.122,-0.405,-0.125
5.125,-0.415,-0.125
5.128,-0.440,-0.140
5.131,-0.435,-0.150
5.133,-0.445,-0.125
5.136,-0.440,-0.110
5.139,-0.420,-0.085
5.142,-0.425,-0.090
5.144,-0.445,-0.120
5.147,-0.450,-0.120
5.150,-0.460,-0.115
5.153,-0.445,-0.095
5.156,-0.450,-0.080
5.158,-0.455,-0.085
5.161,-0.465,-0.105
5.164,-0.470,-0.105
5.167,-0.465,-0.110
5.169,-0.440,-0.105
5.172,-0.440,-0.100
5.175,-0.460,-0.110
5.178,-0.465,-0.130
5.181,-0.465,-0.140
5.183,-0.455,-0.130
5.186,-0.455,-0.110
5.189,-0.480,-0.110
5.192,-0.490,-0.105
5.194,-0.480,-0.120
5.197,-0.480,-0.135
5.200,-0.505,-0.130
5.203,-0.485,-0.110
5.206,-0.460,-0.095
5.208,-0.455,-0.115
5.211,-0.465,-0.140
5.214,-0.480,-0.160
5.217,-0.490,-0.155
5.219,-0.465,-0.135
5.222,-0.435,-0.140
5.225,-0.430,-0.130
5.228,-0.455,-0.155
5.231,-0.485,-0.170
5.233,-0.490,-0.140
5.236,-0.460,-0.125
5.239,-0.445,-0.125
5.242,-0.450,-0.125
5.244,-0.470,-0.140
5.247,-0.485,-0.130
5.250,-0.470,-0.125
5.253,-0.450,-0.090
5.256,-0.445,-0.090
5.258,-0.440,-0.085
5.261,-0.425,-0.100
5.264,-0.460,-0.100
5.267,-0.460,-0.100
5.269,-0.455,-0.080
5.272,-0.455,-0.070
5.275,-0.455,-0.090
5.278,-0.450,-0.100
5.281,-0.460,-0.105
5.283,-0.455,-0.095
5.286,-0.440,-0.075
5.289,-0.430,-0.090
5.292,-0.430,-0.110
5.294,-0.445,-0.125
5.297,-0.450,-0.125
5.300,-0.450,-0.120
5.303,-0.445,-0.095
5.306,-0.445,-0.090
5.308,-0.460,-0.105
5.311,-0.470,-0.125
5.314,-0.460,-0.120
5.317,-0.465,-0.110
5.319,-0.450,-0.090
5.322,-0.445,-0.090
5.325,-0.430,-0.105
5.328,-0.445,-0.135
5.331,-0.460,-0.140
5.333,-0.460,-0.130
5.336,-0.435,-0.125
5.339,-0.440,-0.120
5.342,-0.430,-0.135
5.344,-0.425,-0.165
5.347,-0.445,-0.135
5.350,-0.455,-0.135
5.353,-0.465,-0.110
5.356,-0.465,-0.120
5.358,-0.470,-0.135
5.361,-0.460,-0.135
5.364,-0.455,-0.125
5.367,-0.445,-0.110
5.369,-0.445,-0.100
5.372,-0.455,-0.090
5.375,-0.450,-0.095
5.378,-0.445,-0.100
5.381,-0.450,-0.100
5.383,-0.470,-0.075
5.386,-0.480,-0.065
5.389,-0.455,-0.085
5.392,-0.435,-0.090
5.394,-0.440,-0.105
5.397,-0.450,-0.095
5.400,-0.470,-0.080
5.403,-0.465,-0.070
5.406,-0.445,-0.090
5.408,-0.445,-0.110
5.411,-0.465,-0.110
5.414,-0.470,-0.115
5.417,-0.465,-0.100
5.419,-0.465,-0.095
5.422,-0.465,-0.090
5.425,-0.475,-0.115
5.428,-0.480,-0.120
5.431,-0.480,-0.120
5.433,-0.475,-0.100
5.436,-0.475,-0.100
5.439,-0.455,-0.100
5.442,-0.460,-0.115
5.444,-0.470,-0.120
5.447,-0.480,-0.115
5.450,-0.480,-0.115
5.453,-0.460,-0.110
5.456,-0.460,-0.120
5.458,-0.460,-0.120
5.461,-0.460,-0.125
5.464,-0.460,-0.140
5.467,-0.470,-0.130
5.469,-0.450,-0.120
5.472,-0.440,-0.125
5.475,-0.420,-0.125
5.478,-0.415,-0.135
5.481,-0.425,-0.125
5.483,-0.425,-0.110
5.486,-0.420,-0.100
5.489,-0.405,-0.105
5.492,-0.390,-0.100
5.494,-0.400,-0.090
5.497,-0.415,-0.090
5.500,-0.400,-0.070
5.503,-0.365,-0.070
5.506,-0.320,-0.065
5.508,-0.290,-0.075
5.511,-0.305,-0.090
5.514,-0.345,-0.075
5.517,-0.385,-0.085
5.519,-0.345,-0.080
5.522,-0.340,-0.085
5.525,-0.325,-0.080
5.528,-0.350,-0.085
5.531,-0.380,-0.100
5.533,-0.400,-0.105
5.536,-0.390,-0.110
5.539,-0.380,-0.110
5.542,-0.400,-0.105
5.544,-0.405,-0.110
5.547,-0.430,-0.110
5.550,-0.450,-0.110
5.553,-0.455,-0.105
5.556,-0.450,-0.100
5.558,-0.460,-0.100
5.561,-0.470,-0.090
5.564,-0.475,-0.120
5.567,-0.490,-0.135
5.569,-0.475,-0.130
5.572,-0.470,-0.125
5.575,-0.465,-0.125
5.578,-0.465,-0.115
5.581,-0.475,-0.130
5.583,-0.470,-0.145
5.586,-0.455,-0.135
5.589,-0.460,-0.125
5.592,-0.505,-0.140
5.594,-0.550,-0.125
5.597,-0.550,-0.140
5.600,-0.535,-0.130
5.603,-0.500,-0.115
5.606,-0.465,-0.100
5.608,-0.450,-0.090
5.611,-0.475,-0.095
5.614,-0.510,-0.105
5.617,-0.535,-0.095
5.619,-0.545,-0.085
5.622,-0.520,-0.075
5.625,-0.525,-0.055
5.628,-0.525,-0.060
5.631,-0.540,-0.080
5.633,-0.535,-0.075
5.636,-0.460,-0.065
5.639,-0.310,-0.055
5.642,-0.080,-0.055
5.644,0.185,-0.065
5.647,0.475,-0.095
5.650,0.780,-0.120
5.653,1.025,-0.135
5.656,1.065,-0.155
5.658,0.850,-0.180
5.661,0.515,-0.190
5.664,0.205,-0.185
5.667,-0.095,-0.150
5.669,-0.290,-0.095
5.672,-0.380,-0.060
5.675,-0.405,-0.050
5.678,-0.465,-0.085
5.681,-0.485,-0.110
5.683,-0.505,-0.115
5.686,-0.505,-0.100
5.689,-0.505,-0.095
5.692,-0.505,-0.105
5.694,-0.540,-0.110
5.697,-0.565,-0.135
5.700,-0.590,-0.135
5.703,-0.575,-0.120
5.706,-0.555,-0.110
5.708,-0.555,-0.105
5.711,-0.560,-0.105
5.714,-0.565,-0.140
5.717,-0.585,-0.125
5.719,-0.575,-0.125
5.722,-0.565,-0.105
5.725,-0.570,-0.120
5.728,-0.560,-0.130
5.731,-0.565,-0.120
5.733,-0.570,-0.110
5.736,-0.570,-0.090
5.739,-0.560,-0.085
5.742,-0.550,-0.090
5.744,-0.570,-0.075
5.747,-0.560,-0.080
5.750,-0.580,-0.095
5.753,-0.570,-0.070
5.756,-0.575,-0.065
5.758,-0.565,-0.055
5.761,-0.575,-0.070
5.764,-0.570,-0.085
5.767,-0.570,-0.110
5.769,-0.580,-0.095
5.772,-0.570,-0.100
5.775,-0.560,-0.095
5.778,-0.565,-0.105
5.781,-0.560,-0.115
5.783,-0.565,-0.120
5.786,-0.555,-0.120
5.789,-0.555,-0.100
5.792,-0.565,-0.095
5.794,-0.555,-0.105
5.797,-0.560,-0.110
5.800,-0.575,-0.110
5.803,-0.565,-0.080
5.806,-0.550,-0.075
5.808,-0.540,-0.105
5.811,-0.530,-0.130
5.814,-0.540,-0.145
5.817,-0.570,-0.140
5.819,-0.570,-0.125
5.822,-0.565,-0.130
5.825,-0.565,-0.120
5.828,-0.555,-0.145
5.831,-0.555,-0.155
5.833,-0.555,-0.145
5.836,-0.530,-0.125
5.839,-0.520,-0.110
5.842,-0.525,-0.105
5.844,-0.525,-0.120
5.847,-0.535,-0.135
5.850,-0.530,-0.130
5.853,-0.520,-0.095
5.856,-0.500,-0.085
5.858,-0.500,-0.080
5.861,-0.515,-0.095
5.864,-0.525,-0.105
5.867,-0.525,-0.090
5.869,-0.490,-0.075
5.872,-0.475,-0.070
5.875,-0.465,-0.070
5.878,-0.480,-0.095
5.881,-0.470,-0.115
5.883,-0.470,-0.105
5.886,-0.450,-0.090
5.889,-0.445,-0.085
5.892,-0.440,-0.095
5.894,-0.435,-0.100
5.897,-0.445,-0.120
5.900,-0.445,-0.110
5.903,-0.435,-0.095
5.906,-0.435,-0.100
5.908,-0.420,-0.100
5.911,-0.395,-0.120
5.914,-0.380,-0.140
5.917,-0.355,-0.125
5.919,-0.340,-0.125
5.922,-0.330,-0.120
5.925,-0.345,-0.135
5.928,-0.340,-0.155
5.931,-0.345,-0.170
5.933,-0.345,-0.160
5.936,-0.330,-0.150
5.939,-0.310,-0.150
5.942,-0.305,-0.165
5.944,-0.295,-0.175
5.947,-0.300,-0.190
5.950,-0.315,-0.170
5.953,-0.305,-0.155
5.956,-0.280,-0.145
5.958,-0.295,-0.155
5.961,-0.300,-0.165
5.964,-0.305,-0.175
5.967,-0.310,-0.160
5.969,-0.315,-0.140
5.972,-0.325,-0.125
5.975,-0.320,-0.120
5.978,-0.320,-0.135
5.981,-0.350,-0.135
5.983,-0.360,-0.105
5.986,-0.370,-0.090
5.989,-0.370,-0.080
5.992,-0.370,-0.090
5.994,-0.385,-0.100
5.997,-0.405,-0.105
6.000,-0.410,-0.100
6.003,-0.405,-0.090
6.006,-0.410,-0.090
6.008,-0.415,-0.090
6.011,-0.435,-0.110
6.014,-0.445,-0.120
6.017,-0.470,-0.115
6.019,-0.445,-0.105
6.022,-0.445,-0.095
6.025,-0.425,-0.115
6.028,-0.455,-0.135
6.031,-0.460,-0.125
6.033,-0.465,-0.115
6.036,-0.465,-0.090
6.039,-0.465,-0.100
6.042,-0.465,-0.120
6.044,-0.455,-0.140
6.047,-0.450,-0.145
6.050,-0.460,-0.140
6.053,-0.450,-0.130
6.056,-0.445,-0.135
6.058,-0.455,-0.140
6.061,-0.465,-0.145
6.064,-0.460,-0.155
6.067,-0.465,-0.135
6.069,-0.445,-0.130
6.072,-0.430,-0.130
6.075,-0.425,-0.130
6.078,-0.445,-0.135
6.081,-0.440,-0.130
6.083,-0.450,-0.120
6.086,-0.455,-0.115
6.089,-0.435,-0.110
6.092,-0.430,-0.105
6.094,-0.430,-0.105
6.097,-0.455,-0.095
6.100,-0.465,-0.095
6.103,-0.440,-0.090
6.106,-0.425,-0.100
6.108,-0.420,-0.105
6.111,-0.440,-0.105
6.114,-0.450,-0.100
6.117,-0.435,-0.095
6.119,-0.420,-0.080
6.122,-0.400,-0.085
6.125,-0.400,-0.095
6.128,-0.410,-0.105
6.131,-0.425,-0.115
6.133,-0.425,-0.115
6.136,-0.415,-0.120
6.139,-0.415,-0.115
6.142,-0.425,-0.115
6.144,-0.415,-0.120
6.147,-0.415,-0.125
6.150,-0.415,-0.130
6.153,-0.400,-0.120
6.156,-0.400,-0.105
6.158,-0.410,-0.110
6.161,-0.425,-0.130
6.164,-0.425,-0.150
6.167,-0.420,-0.160
6.169,-0.410,-0.155
6.172,-0.400,-0.135
6.175,-0.410,-0.135
6.178,-0.425,-0.155
6.181,-0.435,-0.170
6.183,-0.440,-0.165
6.186,-0.390,-0.135
6.189,-0.385,-0.125
6.192,-0.370,-0.125
6.194,-0.360,-0.150
6.197,-0.350,-0.160
6.200,-0.355,-0.145
6.203,-0.390,-0.130
6.206,-0.410,-0.105
6.208,-0.450,-0.110
6.211,-0.460,-0.120
6.214,-0.465,-0.125
6.217,-0.465,-0.100
6.219,-0.440,-0.100
6.222,-0.390,-0.085
6.225,-0.355,-0.105
6.228,-0.305,-0.110
6.231,-0.315,-0.130
6.233,-0.370,-0.115
6.236,-0.425,-0.100
6.239,-0.435,-0.110
6.242,-0.435,-0.120
6.244,-0.420,-0.130
6.247,-0.390,-0.130
6.250,-0.370,-0.110
6.253,-0.365,-0.095
6.256,-0.350,-0.120
6.258,-0.375,-0.130
6.261,-0.390,-0.140
6.264,-0.425,-0.130
6.267,-0.420,-0.120
6.269,-0.410,-0.130
6.272,-0.405,-0.145
6.275,-0.395,-0.140
6.278,-0.395,-0.150
6.281,-0.385,-0.145
6.283,-0.390,-0.155
6.286,-0.385,-0.155
6.289,-0.380,-0.155
6.292,-0.375,-0.150
6.294,-0.365,-0.140
6.297,-0.360,-0.165
6.300,-0.355,-0.170
6.303,-0.355,-0.155
6.306,-0.350,-0.140
6.308,-0.370,-0.130
6.311,-0.375,-0.135
6.314,-0.380,-0.145
6.317,-0.385,-0.130
6.319,-0.370,-0.120
6.322,-0.355,-0.110
6.325,-0.365,-0.105
6.328,-0.370,-0.115
6.331,-0.380,-0.120
6.333,-0.380,-0.115
6.336,-0.365,-0.095
6.339,-0.340,-0.075
6.342,-0.330,-0.090
6.344,-0.335,-0.115
6.347,-0.345,-0.135
6.350,-0.350,-0.125
6.353,-0.355,-0.115
6.356,-0.325,-0.105
6.358,-0.310,-0.105
6.361,-0.320,-0.135
6.364,-0.330,-0.130
6.367,-0.320,-0.135
6.369,-0.290,-0.110
6.372,-0.255,-0.095
6.375,-0.230,-0.095
6.378,-0.190,-0.115
6.381,-0.175,-0.130
6.383,-0.185,-0.130
6.386,-0.180,-0.125
6.389,-0.200,-0.140
6.392,-0.205,-0.150
6.394,-0.220,-0.160
6.397,-0.230,-0.165
6.400,-0.235,-0.155
6.403,-0.245,-0.135
6.406,-0.250,-0.135
6.408,-0.250,-0.150
6.411,-0.255,-0.165
6.414,-0.250,-0.165
6.417,-0.250,-0.160
6.419,-0.240,-0.135
6.422,-0.255,-0.130
6.425,-0.270,-0.145
6.428,-0.275,-0.145
6.431,-0.275,-0.135
6.433,-0.285,-0.125
6.436,-0.280,-0.110
6.439,-0.305,-0.105
6.442,-0.345,-0.115
6.444,-0.365,-0.125
6.447,-0.355,-0.120
6.450,-0.365,-0.110
6.453,-0.370,-0.090
6.456,-0.355,-0.110
6.458,-0.375,-0.105
6.461,-0.365,-0.125
6.464,-0.385,-0.130
6.467,-0.380,-0.110
6.469,-0.375,-0.095
6.472,-0.360,-0.115
6.475,-0.370,-0.125
6.478,-0.375,-0.140
6.481,-0.385,-0.145
6.483,-0.375,-0.135
6.486,-0.365,-0.130
6.489,-0.345,-0.125
6.492,-0.365,-0.140
6.494,-0.385,-0.145
6.497,-0.420,-0.140
6.500,-0.440,-0.130
6.503,-0.450,-0.120
6.506,-0.380,-0.125
6.508,-0.220,-0.135
6.511,0.010,-0.150
6.514,0.320,-0.155
6.517,0.695,-0.155
6.519,1.095,-0.155
6.522,1.365,-0.170
6.525,1.375,-0.210
6.528,1.130,-0.220
6.531,0.750,-0.235
6.533,0.390,-0.230
6.536,0.120,-0.185
6.539,-0.015,-0.155
6.542,-0.065,-0.135
6.544,-0.100,-0.135
6.547,-0.170,-0.135
6.550,-0.200,-0.130
6.553,-0.225,-0.110
6.556,-0.235,-0.105
6.558,-0.270,-0.100
6.561,-0.305,-0.105
6.564,-0.355,-0.110
6.567,-0.375,-0.115
6.569,-0.380,-0.105
6.572,-0.395,-0.100
6.575,-0.380,-0.095
6.578,-0.395,-0.105
6.581,-0.405,-0.115
6.583,-0.425,-0.125
6.586,-0.415,-0.120
6.589,-0.410,-0.115
6.592,-0.405,-0.115
6.594,-0.400,-0.125
6.597,-0.420,-0.130
6.600,-0.430,-0.120
6.603,-0.415,-0.120
6.606,-0.415,-0.120
6.608,-0.425,-0.105
6.611,-0.435,-0.125
6.614,-0.425,-0.145
6.617,-0.430,-0.150
6.619,-0.420,-0.140
6.622,-0.410,-0.135
6.625,-0.405,-0.130
6.628,-0.415,-0.150
6.631,-0.415,-0.170
6.633,-0.425,-0.165
6.636,-0.410,-0.155
6.639,-0.400,-0.145
6.642,-0.390,-0.140
6.644,-0.405,-0.160
6.647,-0.415,-0.160
6.650,-0.420,-0.155
6.653,-0.410,-0.140
6.656,-0.390,-0.135
6.658,-0.390,-0.140
6.661,-0.395,-0.150
6.664,-0.415,-0.155
6.667,-0.420,-0.140
6.669,-0.400,-0.120
6.672,-0.395,-0.100
6.675,-0.410,-0.105
6.678,-0.420,-0.120
6.681,-0.420,-0.125
6.683,-0.415,-0.125
6.686,-0.415,-0.110
6.689,-0.390,-0.095
6.692,-0.395,-0.110
6.694,-0.390,-0.125
6.697,-0.395,-0.145
6.700,-0.390,-0.120
6.703,-0.395,-0.120
6.706,-0.390,-0.125
6.708,-0.385,-0.135
6.711,-0.385,-0.150
6.714,-0.395,-0.155
6.717,-0.385,-0.145
6.719,-0.375,-0.130
6.722,-0.360,-0.135
6.725,-0.375,-0.140
6.728,-0.370,-0.150
6.731,-0.360,-0.145
6.733,-0.355,-0.145
6.736,-0.330,-0.130
6.739,-0.320,-0.120
6.742,-0.315,-0.145
6.744,-0.320,-0.175
6.747,-0.325,-0.180
6.750,-0.320,-0.170
6.753,-0.280,-0.160
6.756,-0.260,-0.150
6.758,-0.255,-0.165
6.761,-0.260,-0.175
6.764,-0.265,-0.190
6.767,-0.260,-0.165
6.769,-0.230,-0.155
6.772,-0.205,-0.155
6.775,-0.190,-0.165
6.778,-0.190,-0.165
6.781,-0.190,-0.160
6.783,-0.185,-0.145
6.786,-0.155,-0.120
6.789,-0.135,-0.125
6.792,-0.115,-0.130
6.794,-0.125,-0.135
6.797,-0.125,-0.150
6.800,-0.110,-0.120
6.803,-0.110,-0.115
6.806,-0.105,-0.130
6.808,-0.090,-0.120
6.811,-0.090,-0.130
6.814,-0.080,-0.140
6.817,-0.080,-0.140
6.819,-0.090,-0.135
6.822,-0.065,-0.140
6.825,-0.090,-0.150
6.828,-0.090,-0.170
6.831,-0.090,-0.165
6.833,-0.100,-0.150
6.836,-0.110,-0.150
6.839,-0.125,-0.145
6.842,-0.130,-0.150
6.844,-0.145,-0.165
6.847,-0.165,-0.155
6.850,-0.190,-0.145
6.853,-0.195,-0.140
6.856,-0.200,-0.150
6.858,-0.210,-0.165
6.861,-0.230,-0.170
6.864,-0.245,-0.180
6.867,-0.260,-0.170
6.869,-0.270,-0.165
6.872,-0.265,-0.165
6.875,-0.270,-0.175
6.878,-0.280,-0.170
6.881,-0.295,-0.170
6.883,-0.325,-0.155
6.886,-0.315,-0.155
6.889,-0.310,-0.145
6.892,-0.300,-0.155
6.894,-0.290,-0.140
6.897,-0.310,-0.140
6.900,-0.320,-0.140
6.903,-0.320,-0.125
6.906,-0.305,-0.135
6.908,-0.310,-0.140
6.911,-0.330,-0.140
6.914,-0.345,-0.125
6.917,-0.355,-0.125
6.919,-0.340,-0.125
6.922,-0.330,-0.125
6.925,-0.335,-0.120
6.928,-0.325,-0.125
6.931,-0.325,-0.135
6.933,-0.330,-0.125
6.936,-0.330,-0.130
6.939,-0.320,-0.135
6.942,-0.325,-0.140
6.944,-0.330,-0.140
6.947,-0.335,-0.145
6.950,-0.335,-0.140
6.953,-0.330,-0.140
6.956,-0.315,-0.140
6.958,-0.325,-0.140
6.961,-0.320,-0.140
6.964,-0.315,-0.140
6.967,-0.325,-0.140
6.969,-0.310,-0.135
6.972,-0.315,-0.150
6.975,-0.310,-0.145
6.978,-0.295,-0.160
6.981,-0.305,-0.165
6.983,-0.315,-0.175
6.986,-0.325,-0.180
6.989,-0.310,-0.170
6.992,-0.310,-0.160
6.994,-0.305,-0.165
6.997,-0.295,-0.180
7.000,-0.310,-0.190
7.003,-0.305,-0.170
7.006,-0.295,-0.160
7.008,-0.285,-0.155
7.011,-0.285,-0.145
7.014,-0.285,-0.175
7.017,-0.300,-0.170
7.019,-0.310,-0.145
7.022,-0.300,-0.130
7.025,-0.295,-0.125
7.028,-0.280,-0.135
7.031,-0.310,-0.135
7.033,-0.310,-0.140
7.036,-0.295,-0.115
7.039,-0.275,-0.105
7.042,-0.275,-0.105
7.044,-0.290,-0.120
7.047,-0.300,-0.125
7.050,-0.310,-0.140
7.053,-0.300,-0.115
7.056,-0.275,-0.125
7.058,-0.280,-0.130
7.061,-0.285,-0.160
7.064,-0.300,-0.180
7.067,-0.310,-0.155
7.069,-0.300,-0.140
7.072,-0.280,-0.135
7.075,-0.285,-0.145
7.078,-0.300,-0.180
7.081,-0.305,-0.170
7.083,-0.310,-0.155
7.086,-0.300,-0.140
7.089,-0.295,-0.150
7.092,-0.290,-0.175
7.094,-0.285,-0.185
7.097,-0.295,-0.180
7.100,-0.295,-0.175
7.103,-0.275,-0.165
7.106,-0.280,-0.165
7.108,-0.280,-0.175
7.111,-0.300,-0.175
7.114,-0.305,-0.185
7.117,-0.300,-0.170
7.119,-0.290,-0.160
7.122,-0.285,-0.165
7.125,-0.280,-0.160
7.128,-0.285,-0.165
7.131,-0.290,-0.160
7.133,-0.300,-0.145
7.136,-0.290,-0.130
7.139,-0.295,-0.130
7.142,-0.290,-0.135
7.144,-0.290,-0.140
7.147,-0.295,-0.130
7.150,-0.300,-0.125
7.153,-0.300,-0.120
7.156,-0.295,-0.110
7.158,-0.290,-0.115
7.161,-0.295,-0.125
7.164,-0.290,-0.130
7.167,-0.310,-0.140
7.169,-0.300,-0.140
7.172,-0.290,-0.155
7.175,-0.285,-0.145
7.178,-0.285,-0.145
7.181,-0.305,-0.150
7.183,-0.300,-0.155
7.186,-0.300,-0.155
7.189,-0.295,-0.160
7.192,-0.280,-0.155
7.194,-0.285,-0.140
7.197,-0.305,-0.150
7.200,-0.300,-0.150
7.203,-0.295,-0.160
7.206,-0.270,-0.155
7.208,-0.260,-0.170
7.211,-0.260,-0.180
7.214,-0.270,-0.180
7.217,-0.285,-0.180
7.219,-0.265,-0.185
7.222,-0.250,-0.175
7.225,-0.245,-0.175
7.228,-0.255,-0.175
7.231,-0.270,-0.190
7.233,-0.270,-0.200
7.236,-0.250,-0.175
7.239,-0.230,-0.170
7.242,-0.190,-0.155
7.244,-0.150,-0.160
7.247,-0.135,-0.155
7.250,-0.135,-0.135
7.253,-0.155,-0.135
7.256,-0.150,-0.125
7.258,-0.150,-0.135
7.261,-0.150,-0.135
7.264,-0.160,-0.155
7.267,-0.185,-0.140
7.269,-0.210,-0.145
7.272,-0.205,-0.130
7.275,-0.205,-0.125
7.278,-0.215,-0.130
7.281,-0.225,-0.135
7.283,-0.230,-0.145
7.286,-0.220,-0.140
7.289,-0.210,-0.145
7.292,-0.230,-0.145
7.294,-0.250,-0.150
7.297,-0.290,-0.165
7.300,-0.300,-0.175
7.303,-0.295,-0.160
7.306,-0.305,-0.140
7.308,-0.305,-0.145
7.311,-0.330,-0.155
7.314,-0.335,-0.170
7.317,-0.335,-0.170
7.319,-0.340,-0.180
7.322,-0.335,-0.165
7.325,-0.330,-0.155
7.328,-0.320,-0.165
7.331,-0.315,-0.195
7.333,-0.340,-0.190
7.336,-0.340,-0.200
7.339,-0.315,-0.175
7.342,-0.315,-0.175
7.344,-0.335,-0.185
7.347,-0.345,-0.210
7.350,-0.350,-0.200
7.353,-0.350,-0.195
7.356,-0.335,-0.180
7.358,-0.335,-0.170
7.361,-0.330,-0.165
7.364,-0.345,-0.180
7.367,-0.355,-0.170
7.369,-0.355,-0.150
7.372,-0.365,-0.145
7.375,-0.335,-0.140
7.378,-0.205,-0.140
7.381,0.015,-0.150
7.383,0.320,-0.135
7.386,0.695,-0.120
7.389,1.075,-0.125
7.392,1.325,-0.145
7.394,1.305,-0.200
7.397,1.045,-0.235
7.400,0.690,-0.255
7.403,0.360,-0.225
7.406,0.105,-0.190
7.408,-0.020,-0.160
7.411,-0.055,-0.150
7.414,-0.095,-0.165
7.417,-0.145,-0.170
7.419,-0.185,-0.160
7.422,-0.205,-0.155
7.425,-0.210,-0.150
7.428,-0.235,-0.160
7.431,-0.270,-0.170
7.433,-0.285,-0.175
7.436,-0.290,-0.145
7.439,-0.300,-0.150
7.442,-0.305,-0.155
7.444,-0.320,-0.180
7.447,-0.315,-0.200
7.450,-0.305,-0.195
7.453,-0.310,-0.190
7.456,-0.360,-0.175
7.458,-0.425,-0.185
7.461,-0.470,-0.195
7.464,-0.495,-0.200
7.467,-0.495,-0.195
7.469,-0.475,-0.185
7.472,-0.455,-0.175
7.475,-0.450,-0.170
7.478,-0.450,-0.170
7.481,-0.455,-0.180
7.483,-0.450,-0.165
7.486,-0.445,-0.155
7.489,-0.425,-0.135
7.492,-0.420,-0.130
7.494,-0.420,-0.140
7.497,-0.420,-0.145
7.500,-0.420,-0.145
7.503,-0.415,-0.125
7.506,-0.415,-0.130
7.508,-0.405,-0.130
7.511,-0.415,-0.150
7.514,-0.435,-0.155
7.517,-0.435,-0.140
7.519,-0.410,-0.125
7.522,-0.400,-0.125
7.525,-0.410,-0.130
7.528,-0.410,-0.155
7.531,-0.420,-0.170
7.533,-0.415,-0.155
7.536,-0.410,-0.140
7.539,-0.415,-0.135
7.542,-0.415,-0.145
7.544,-0.420,-0.160
7.547,-0.420,-0.170
7.550,-0.435,-0.160
7.553,-0.435,-0.145
7.556,-0.430,-0.140
7.558,-0.440,-0.150
7.561,-0.435,-0.175
7.564,-0.430,-0.180
7.567,-0.430,-0.170
7.569,-0.420,-0.160
7.572,-0.405,-0.165
7.575,-0.400,-0.165
7.578,-0.420,-0.195
7.581,-0.435,-0.200
7.583,-0.445,-0.185
7.586,-0.415,-0.170
7.589,-0.405,-0.165
7.592,-0.410,-0.180
7.594,-0.415,-0.185
7.597,-0.420,-0.200
7.600,-0.435,-0.180
7.603,-0.410,-0.155
7.606,-0.400,-0.155
7.608,-0.390,-0.160
7.611,-0.390,-0.165
7.614,-0.405,-0.175
7.617,-0.395,-0.155
7.619,-0.370,-0.130
7.622,-0.365,-0.120
7.625,-0.360,-0.125
7.628,-0.360,-0.135
7.631,-0.360,-0.140
7.633,-0.330,-0.140
7.636,-0.320,-0.115
7.639,-0.315,-0.115
7.642,-0.325,-0.120
7.644,-0.330,-0.140
7.647,-0.320,-0.150
7.650,-0.320,-0.150
7.653,-0.280,-0.140
7.656,-0.250,-0.140
7.658,-0.235,-0.130
7.661,-0.210,-0.150
7.664,-0.210,-0.170
7.667,-0.225,-0.165
7.669,-0.190,-0.155
7.672,-0.165,-0.155
7.675,-0.170,-0.155
7.678,-0.180,-0.175
7.681,-0.195,-0.180
7.683,-0.210,-0.165
7.686,-0.200,-0.145
7.689,-0.175,-0.160
7.692,-0.160,-0.190
7.694,-0.175,-0.195
7.697,-0.175,-0.215
7.700,-0.180,-0.190
7.703,-0.170,-0.180
7.706,-0.165,-0.180
7.708,-0.160,-0.180
7.711,-0.175,-0.195
7.714,-0.190,-0.195
7.717,-0.195,-0.185
7.719,-0.190,-0.175
7.722,-0.220,-0.165
7.725,-0.255,-0.170
7.728,-0.300,-0.170
7.731,-0.340,-0.165
7.733,-0.335,-0.140
7.736,-0.320,-0.125
7.739,-0.315,-0.125
7.742,-0.335,-0.140
7.744,-0.345,-0.140
7.747,-0.350,-0.150
7.750,-0.350,-0.130
7.753,-0.360,-0.110
7.756,-0.365,-0.115
7.758,-0.365,-0.110
7.761,-0.365,-0.125
7.764,-0.355,-0.140
7.767,-0.370,-0.135
7.769,-0.370,-0.115
7.772,-0.365,-0.120
7.775,-0.365,-0.140
7.778,-0.375,-0.160
7.781,-0.385,-0.155
7.783,-0.385,-0.140
7.786,-0.370,-0.135
7.789,-0.380,-0.130
7.792,-0.390,-0.150
7.794,-0.405,-0.165
7.797,-0.400,-0.160
7.800,-0.405,-0.135
7.803,-0.405,-0.140
7.806,-0.385,-0.145
7.808,-0.375,-0.165
7.811,-0.385,-0.180
7.814,-0.395,-0.185
7.817,-0.415,-0.175
7.819,-0.395,-0.175
7.822,-0.375,-0.175
7.825,-0.365,-0.165
7.828,-0.370,-0.170
7.831,-0.395,-0.175
7.833,-0.390,-0.170
7.836,-0.395,-0.160
7.839,-0.380,-0.160
7.842,-0.375,-0.155
7.844,-0.370,-0.155
7.847,-0.390,-0.145
7.850,-0.405,-0.135
7.853,-0.385,-0.115
7.856,-0.370,-0.115
7.858,-0.360,-0.120
7.861,-0.360,-0.115
7.864,-0.370,-0.115
7.867,-0.375,-0.125
7.869,-0.385,-0.110
7.872,-0.365,-0.110
7.875,-0.360,-0.105
7.878,-0.360,-0.115
7.881,-0.355,-0.120
7.883,-0.355,-0.125
7.886,-0.345,-0.125
7.889,-0.345,-0.130
7.892,-0.340,-0.140
7.894,-0.340,-0.140
7.897,-0.355,-0.140
7.900,-0.370,-0.140
7.903,-0.360,-0.135
7.906,-0.355,-0.140
7.908,-0.350,-0.120
7.911,-0.335,-0.135
7.914,-0.340,-0.140
7.917,-0.335,-0.155
7.919,-0.335,-0.145
7.922,-0.340,-0.145
7.925,-0.340,-0.140
7.928,-0.365,-0.145
7.931,-0.350,-0.175
7.933,-0.335,-0.180
7.936,-0.335,-0.170
7.939,-0.325,-0.155
7.942,-0.340,-0.155
7.944,-0.355,-0.155
7.947,-0.375,-0.165
7.950,-0.375,-0.175
7.953,-0.345,-0.170
7.956,-0.325,-0.140
7.958,-0.325,-0.140
7.961,-0.340,-0.150
7.964,-0.365,-0.145
7.967,-0.370,-0.140
7.969,-0.375,-0.125
7.972,-0.355,-0.115
7.975,-0.365,-0.100
7.978,-0.370,-0.105
7.981,-0.395,-0.130
7.983,-0.385,-0.135
7.986,-0.360,-0.110
7.989,-0.345,-0.110
7.992,-0.325,-0.100
7.994,-0.315,-0.110
7.997,-0.310,-0.125
8.000,-0.305,-0.115
8.003,-0.255,-0.115
8.006,-0.210,-0.100
8.008,-0.230,-0.105
8.011,-0.290,-0.115
8.014,-0.360,-0.150
8.017,-0.405,-0.150
8.019,-0.440,-0.145
8.022,-0.455,-0.130
8.025,-0.440,-0.140
8.028,-0.420,-0.145
8.031,-0.400,-0.145
8.033,-0.385,-0.150
8.036,-0.360,-0.125
8.039,-0.330,-0.125
8.042,-0.295,-0.135
8.044,-0.300,-0.160
8.047,-0.345,-0.170
8.050,-0.400,-0.170
8.053,-0.410,-0.165
8.056,-0.380,-0.160
8.058,-0.365,-0.165
8.061,-0.370,-0.185
8.064,-0.375,-0.175
8.067,-0.380,-0.160
8.069,-0.350,-0.140
8.072,-0.340,-0.140
8.075,-0.340,-0.140
8.078,-0.330,-0.140
8.081,-0.330,-0.140
8.083,-0.330,-0.130
8.086,-0.320,-0.110
8.089,-0.320,-0.100
8.092,-0.325,-0.115
8.094,-0.340,-0.125
8.097,-0.340,-0.125
8.100,-0.315,-0.105
8.103,-0.295,-0.095
8.106,-0.250,-0.095
8.108,-0.205,-0.095
8.111,-0.175,-0.115
8.114,-0.195,-0.115
8.117,-0.215,-0.110
8.119,-0.215,-0.120
8.122,-0.215,-0.115
8.125,-0.215,-0.140
8.128,-0.220,-0.140
8.131,-0.235,-0.145
8.133,-0.250,-0.135
8.136,-0.250,-0.135
8.139,-0.250,-0.135
8.142,-0.245,-0.145
8.144,-0.250,-0.145
8.147,-0.265,-0.150
8.150,-0.285,-0.135
8.153,-0.295,-0.150
8.156,-0.305,-0.155
8.158,-0.310,-0.165
8.161,-0.345,-0.165
8.164,-0.370,-0.175
8.167,-0.375,-0.160
8.169,-0.365,-0.170
8.172,-0.355,-0.160
8.175,-0.350,-0.160
8.178,-0.350,-0.155
8.181,-0.360,-0.165
8.183,-0.380,-0.170
8.186,-0.370,-0.170
8.189,-0.360,-0.155
8.192,-0.360,-0.140
8.194,-0.365,-0.130
8.197,-0.375,-0.145
8.200,-0.390,-0.145
8.203,-0.390,-0.135
8.206,-0.365,-0.120
8.208,-0.355,-0.105
8.211,-0.360,-0.125
8.214,-0.380,-0.140
8.217,-0.380,-0.120
8.219,-0.380,-0.110
8.222,-0.385,-0.110
8.225,-0.395,-0.115
8.228,-0.410,-0.115
8.231,-0.445,-0.135
8.233,-0.440,-0.145
8.236,-0.365,-0.135
8.239,-0.175,-0.125
8.242,0.080,-0.125
8.244,0.350,-0.125
8.247,0.655,-0.145
8.250,0.975,-0.170
8.253,1.210,-0.190
8.256,1.220,-0.210
8.258,0.995,-0.235
8.261,0.670,-0.260
8.264,0.335,-0.270
8.267,0.045,-0.240
8.269,-0.105,-0.185
8.272,-0.125,-0.145
8.275,-0.165,-0.140
8.278,-0.220,-0.145
8.281,-0.240,-0.175
8.283,-0.270,-0.185
8.286,-0.295,-0.175
8.289,-0.330,-0.155
8.292,-0.360,-0.145
8.294,-0.385,-0.175
8.297,-0.400,-0.180
8.300,-0.405,-0.175
8.303,-0.405,-0.170
8.306,-0.410,-0.145
8.308,-0.425,-0.155
8.311,-0.450,-0.145
8.314,-0.480,-0.160
8.317,-0.485,-0.155
8.319,-0.465,-0.135
8.322,-0.450,-0.115
8.325,-0.445,-0.125
8.328,-0.435,-0.125
8.331,-0.435,-0.135
8.333,-0.445,-0.135
8.336,-0.440,-0.125
8.339,-0.440,-0.115
8.342,-0.460,-0.105
8.344,-0.465,-0.115
8.347,-0.475,-0.125
8.350,-0.475,-0.130
8.353,-0.470,-0.145
8.356,-0.450,-0.140
8.358,-0.450,-0.120
8.361,-0.450,-0.135
8.364,-0.450,-0.155
8.367,-0.450,-0.155
8.369,-0.435,-0.140
8.372,-0.430,-0.145
8.375,-0.445,-0.130
8.378,-0.455,-0.145
8.381,-0.465,-0.150
8.383,-0.475,-0.155
8.386,-0.465,-0.145
8.389,-0.455,-0.145
8.392,-0.460,-0.125
8.394,-0.455,-0.135
8.397,-0.475,-0.155
8.400,-0.475,-0.160
8.403,-0.470,-0.175
8.406,-0.450,-0.160
8.408,-0.435,-0.155
8.411,-0.440,-0.175
8.414,-0.440,-0.175
8.417,-0.455,-0.170
8.419,-0.450,-0.170
8.422,-0.440,-0.165
8.425,-0.415,-0.175
8.428,-0.430,-0.180
8.431,-0.440,-0.175
8.433,-0.445,-0.160
8.436,-0.435,-0.165
8.439,-0.425,-0.150
8.442,-0.420,-0.140
8.444,-0.415,-0.135
8.447,-0.425,-0.135
8.450,-0.425,-0.140
8.453,-0.420,-0.135
8.456,-0.410,-0.130
8.458,-0.405,-0.120
8.461,-0.405,-0.120
8.464,-0.405,-0.130
8.467,-0.405,-0.135
8.469,-0.395,-0.125
8.472,-0.380,-0.115
8.475,-0.370,-0.110
8.478,-0.360,-0.115
8.481,-0.370,-0.135
8.483,-0.370,-0.130
8.486,-0.355,-0.130
8.489,-0.330,-0.130
8.492,-0.315,-0.135
8.494,-0.320,-0.145
8.497,-0.320,-0.140
8.500,-0.325,-0.145
8.503,-0.310,-0.135
8.506,-0.295,-0.150
8.508,-0.290,-0.145
8.511,-0.285,-0.155
8.514,-0.285,-0.150
8.517,-0.290,-0.140
8.519,-0.275,-0.135
8.522,-0.255,-0.160
8.525,-0.240,-0.155
8.528,-0.220,-0.170
8.531,-0.215,-0.185
8.533,-0.215,-0.160
8.536,-0.190,-0.170
8.539,-0.175,-0.175
8.542,-0.175,-0.180
8.544,-0.195,-0.185
8.547,-0.200,-0.190
8.550,-0.195,-0.185
8.553,-0.155,-0.170
8.556,-0.130,-0.170
8.558,-0.120,-0.160
8.561,-0.110,-0.180
8.564,-0.110,-0.165
8.567,-0.110,-0.160
8.569,-0.105,-0.140
8.572,-0.125,-0.140
8.575,-0.145,-0.140
8.578,-0.160,-0.145
8.581,-0.180,-0.140
8.583,-0.185,-0.125
8.586,-0.185,-0.120
8.589,-0.175,-0.105
8.592,-0.165,-0.130
8.594,-0.170,-0.135
8.597,-0.205,-0.135
8.600,-0.245,-0.115
8.603,-0.260,-0.115
8.606,-0.270,-0.120
8.608,-0.270,-0.130
8.611,-0.280,-0.140
8.614,-0.285,-0.135
8.617,-0.300,-0.135
8.619,-0.295,-0.125
8.622,-0.300,-0.125
8.625,-0.300,-0.130
8.628,-0.315,-0.135
8.631,-0.320,-0.150
8.633,-0.330,-0.135
8.636,-0.305,-0.115
8.639,-0.300,-0.110
8.642,-0.320,-0.130
8.644,-0.320,-0.140
8.647,-0.315,-0.160
8.650,-0.330,-0.140
8.653,-0.320,-0.130
8.656,-0.310,-0.135
8.658,-0.320,-0.160
8.661,-0.330,-0.160
8.664,-0.340,-0.175
8.667,-0.335,-0.165
8.669,-0.330,-0.150
8.672,-0.315,-0.140
8.675,-0.310,-0.155
8.678,-0.310,-0.165
8.681,-0.330,-0.160
8.683,-0.335,-0.145
8.686,-0.325,-0.120
8.689,-0.320,-0.120
8.692,-0.305,-0.125
8.694,-0.330,-0.125
8.697,-0.330,-0.120
8.700,-0.330,-0.105
8.703,-0.315,-0.095
8.706,-0.295,-0.085
8.708,-0.290,-0.105
8.711,-0.300,-0.115
8.714,-0.300,-0.125
8.717,-0.325,-0.100
8.719,-0.300,-0.090
8.722,-0.295,-0.095
8.725,-0.285,-0.100
8.728,-0.300,-0.120
8.731,-0.305,-0.125
8.733,-0.295,-0.110
8.736,-0.295,-0.105
8.739,-0.280,-0.110
8.742,-0.265,-0.115
8.744,-0.275,-0.130
8.747,-0.300,-0.130
8.750,-0.305,-0.115
8.753,-0.315,-0.110
8.756,-0.315,-0.095
8.758,-0.300,-0.120
8.761,-0.310,-0.135
8.764,-0.305,-0.145
8.767,-0.290,-0.140
8.769,-0.280,-0.120
8.772,-0.265,-0.120
8.775,-0.295,-0.130
8.778,-0.285,-0.160
8.781,-0.310,-0.170
8.783,-0.290,-0.170
8.786,-0.275,-0.145
8.789,-0.270,-0.130
8.792,-0.275,-0.145
8.794,-0.270,-0.150
8.797,-0.280,-0.165
8.800,-0.310,-0.160
8.803,-0.300,-0.145
8.806,-0.290,-0.125
8.808,-0.295,-0.130
8.811,-0.280,-0.140
8.814,-0.290,-0.145
8.817,-0.295,-0.140
8.819,-0.280,-0.105
8.822,-0.265,-0.085
8.825,-0.270,-0.090
8.828,-0.295,-0.100
8.831,-0.305,-0.110
8.833,-0.310,-0.115
8.836,-0.305,-0.100
8.839,-0.280,-0.080
8.842,-0.285,-0.080
8.844,-0.290,-0.100
8.847,-0.295,-0.110
8.850,-0.300,-0.115
8.853,-0.295,-0.080
8.856,-0.290,-0.095
8.858,-0.280,-0.105
8.861,-0.270,-0.120
8.864,-0.280,-0.125
8.867,-0.285,-0.130
8.869,-0.280,-0.120
8.872,-0.270,-0.105
8.875,-0.285,-0.110
8.878,-0.295,-0.115
8.881,-0.295,-0.125
8.883,-0.300,-0.140
8.886,-0.295,-0.115
8.889,-0.285,-0.100
8.892,-0.280,-0.110
8.894,-0.285,-0.130
8.897,-0.290,-0.150
8.900,-0.290,-0.160
8.903,-0.275,-0.150
8.906,-0.275,-0.130
8.908,-0.270,-0.130
8.911,-0.295,-0.140
8.914,-0.320,-0.165
8.917,-0.330,-0.150
8.919,-0.315,-0.145
8.922,-0.310,-0.125
8.925,-0.300,-0.130
8.928,-0.305,-0.140
8.931,-0.305,-0.155
8.933,-0.305,-0.155
8.936,-0.300,-0.130
8.939,-0.280,-0.105
8.942,-0.280,-0.100
8.944,-0.290,-0.105
8.947,-0.295,-0.115
8.950,-0.310,-0.115
8.953,-0.290,-0.100
8.956,-0.290,-0.085
8.958,-0.275,-0.085
8.961,-0.270,-0.090
8.964,-0.275,-0.105
8.967,-0.285,-0.115
8.969,-0.280,-0.090
8.972,-0.270,-0.085
8.975,-0.265,-0.085
8.978,-0.270,-0.100
8.981,-0.280,-0.125
8.983,-0.275,-0.120
8.986,-0.250,-0.110
8.989,-0.245,-0.090
8.992,-0.260,-0.105
8.994,-0.265,-0.110
8.997,-0.265,-0.120
9.000,-0.250,-0.135
9.003,-0.210,-0.120
9.006,-0.175,-0.105
9.008,-0.145,-0.095
9.011,-0.120,-0.105
9.014,-0.105,-0.115
9.017,-0.115,-0.125
9.019,-0.115,-0.125
9.022,-0.130,-0.115
9.025,-0.120,-0.120
9.028,-0.135,-0.150
9.031,-0.135,-0.150
9.033,-0.165,-0.160
9.036,-0.165,-0.150
9.039,-0.180,-0.135
9.042,-0.185,-0.140
9.044,-0.205,-0.140
9.047,-0.195,-0.150
9.050,-0.210,-0.160
9.053,-0.205,-0.160
9.056,-0.210,-0.135
9.058,-0.225,-0.125
9.061,-0.240,-0.130
9.064,-0.270,-0.125
9.067,-0.290,-0.130
9.069,-0.300,-0.120
9.072,-0.305,-0.110
9.075,-0.305,-0.105
9.078,-0.320,-0.095
9.081,-0.325,-0.090
9.083,-0.335,-0.110
9.086,-0.315,-0.100
9.089,-0.310,-0.100
9.092,-0.315,-0.100
9.094,-0.320,-0.090
9.097,-0.320,-0.095
9.100,-0.340,-0.105
9.103,-0.315,-0.100
9.106,-0.310,-0.105
9.108,-0.310,-0.110
9.111,-0.325,-0.115
9.114,-0.325,-0.125
9.117,-0.335,-0.110
9.119,-0.325,-0.125
9.122,-0.300,-0.115
9.125,-0.300,-0.125
9.128,-0.315,-0.115
9.131,-0.335,-0.115
9.133,-0.335,-0.125
9.136,-0.340,-0.115
9.139,-0.355,-0.115
9.142,-0.380,-0.110
9.144,-0.385,-0.110
9.147,-0.370,-0.120
9.150,-0.300,-0.135
9.153,-0.130,-0.130
9.156,0.070,-0.120
9.158,0.290,-0.130
9.161,0.545,-0.150
9.164,0.830,-0.160
9.167,1.060,-0.180
9.169,1.145,-0.220
9.172,1.015,-0.255
9.175,0.735,-0.285
9.178,0.425,-0.275
9.181,0.165,-0.260
9.183,-0.040,-0.220
9.186,-0.145,-0.155
9.189,-0.155,-0.125
9.192,-0.170,-0.125
9.194,-0.185,-0.120
9.197,-0.210,-0.120
9.200,-0.245,-0.105
9.203,-0.280,-0.095
9.206,-0.290,-0.085
9.208,-0.315,-0.105
9.211,-0.345,-0.100
9.214,-0.370,-0.110
9.217,-0.395,-0.105
9.219,-0.435,-0.085
9.222,-0.430,-0.080
9.225,-0.430,-0.090
9.228,-0.420,-0.100
9.231,-0.420,-0.100
9.233,-0.445,-0.105
9.236,-0.440,-0.090
9.239,-0.435,-0.100
9.242,-0.425,-0.120
9.244,-0.430,-0.130
9.247,-0.440,-0.140
9.250,-0.440,-0.130
9.253,-0.430,-0.110
9.256,-0.430,-0.090
9.258,-0.435,-0.115
9.261,-0.440,-0.130
9.264,-0.455,-0.135
9.267,-0.455,-0.125
9.269,-0.445,-0.105
9.272,-0.435,-0.110
9.275,-0.425,-0.115
9.278,-0.420,-0.130
9.281,-0.420,-0.145
9.283,-0.430,-0.140
9.286,-0.440,-0.125
9.289,-0.415,-0.110
9.292,-0.415,-0.130
9.294,-0.430,-0.135
9.297,-0.435,-0.145
9.300,-0.440,-0.140
9.303,-0.435,-0.135
9.306,-0.430,-0.125
9.308,-0.415,-0.135
9.311,-0.420,-0.145
9.314,-0.420,-0.155
9.317,-0.430,-0.155
9.319,-0.420,-0.130
9.322,-0.410,-0.105
9.325,-0.405,-0.095
9.328,-0.410,-0.105
9.331,-0.410,-0.115
9.333,-0.425,-0.120
9.336,-0.410,-0.105
9.339,-0.390,-0.070
9.342,-0.380,-0.080
9.344,-0.385,-0.090
9.347,-0.405,-0.115
9.350,-0.415,-0.105
9.353,-0.415,-0.095
9.356,-0.410,-0.075
9.358,-0.405,-0.080
9.361,-0.400,-0.090
9.364,-0.410,-0.110
9.367,-0.420,-0.125
9.369,-0.410,-0.115
9.372,-0.410,-0.100
9.375,-0.395,-0.105
9.378,-0.395,-0.115
9.381,-0.405,-0.125
9.383,-0.400,-0.130
9.386,-0.390,-0.120
9.389,-0.380,-0.110
9.392,-0.375,-0.115
9.394,-0.375,-0.115
9.397,-0.380,-0.115
9.400,-0.375,-0.125
9.403,-0.370,-0.125
9.406,-0.365,-0.120
9.408,-0.355,-0.135
9.411,-0.350,-0.140
9.414,-0.350,-0.145
9.417,-0.355,-0.160
9.419,-0.350,-0.155
9.422,-0.335,-0.155
9.425,-0.315,-0.140
9.428,-0.305,-0.145
9.431,-0.300,-0.150
9.433,-0.300,-0.155
9.436,-0.280,-0.150
9.439,-0.265,-0.150
9.442,-0.255,-0.150
9.444,-0.265,-0.145
9.447,-0.260,-0.140
9.450,-0.265,-0.135
9.453,-0.270,-0.135
9.456,-0.245,-0.115
9.458,-0.225,-0.125
9.461,-0.235,-0.125
9.464,-0.215,-0.115
9.467,-0.215,-0.105
9.469,-0.205,-0.110
9.472,-0.190,-0.105
9.475,-0.175,-0.110
9.478,-0.175,-0.110
9.481,-0.180,-0.120
9.483,-0.175,-0.105
9.486,-0.170,-0.110
9.489,-0.150,-0.115
9.492,-0.140,-0.120
9.494,-0.145,-0.125
9.497,-0.150,-0.140
9.500,-0.160,-0.135
9.503,-0.150,-0.125
9.506,-0.170,-0.125
9.508,-0.170,-0.145
9.511,-0.175,-0.145
9.514,-0.210,-0.145
9.517,-0.240,-0.125
9.519,-0.250,-0.115
9.522,-0.250,-0.110
9.525,-0.240,-0.115
9.528,-0.245,-0.130
9.531,-0.250,-0.130
9.533,-0.275,-0.130
9.536,-0.260,-0.120
9.539,-0.275,-0.125
9.542,-0.290,-0.135
9.544,-0.305,-0.150
9.547,-0.315,-0.145
9.550,-0.330,-0.150
9.553,-0.320,-0.125
9.556,-0.330,-0.120
9.558,-0.325,-0.145
9.561,-0.305,-0.160
9.564,-0.315,-0.155
9.567,-0.325,-0.150
9.569,-0.325,-0.135
9.572,-0.325,-0.125
9.575,-0.330,-0.130
9.578,-0.320,-0.130
9.581,-0.340,-0.140
9.583,-0.365,-0.135
9.586,-0.350,-0.110
9.589,-0.355,-0.080
9.592,-0.355,-0.085
9.594,-0.350,-0.095
9.597,-0.355,-0.110
9.600,-0.360,-0.115
9.603,-0.355,-0.095
9.606,-0.325,-0.070
9.608,-0.305,-0.080
9.611,-0.320,-0.090
9.614,-0.325,-0.095
9.617,-0.340,-0.090
9.619,-0.340,-0.100
9.622,-0.335,-0.080
9.625,-0.320,-0.075
9.628,-0.330,-0.085
9.631,-0.345,-0.105
9.633,-0.345,-0.110
9.636,-0.330,-0.110
9.639,-0.310,-0.100
9.642,-0.315,-0.090
9.644,-0.325,-0.105
9.647,-0.335,-0.100
9.650,-0.345,-0.115
9.653,-0.335,-0.100
9.656,-0.320,-0.100
9.658,-0.325,-0.100
9.661,-0.335,-0.100
9.664,-0.345,-0.125
9.667,-0.350,-0.120
9.669,-0.335,-0.130
9.672,-0.335,-0.120
9.675,-0.315,-0.130
9.678,-0.320,-0.115
9.681,-0.315,-0.130
9.683,-0.325,-0.145
9.686,-0.310,-0.135
9.689,-0.310,-0.125
9.692,-0.305,-0.140
9.694,-0.305,-0.135
9.697,-0.310,-0.135
9.700,-0.330,-0.130
9.703,-0.325,-0.125
9.706,-0.315,-0.115
9.708,-0.295,-0.120
9.711,-0.295,-0.110
9.714,-0.300,-0.105
9.717,-0.310,-0.110
9.719,-0.295,-0.100
9.722,-0.290,-0.080
9.725,-0.290,-0.080
9.728,-0.315,-0.085
9.731,-0.315,-0.085
9.733,-0.310,-0.090
9.736,-0.280,-0.090
9.739,-0.280,-0.075
9.742,-0.280,-0.080
9.744,-0.305,-0.080
9.747,-0.310,-0.080
9.750,-0.325,-0.075
9.753,-0.335,-0.095
9.756,-0.335,-0.090
9.758,-0.315,-0.100
9.761,-0.320,-0.100
9.764,-0.315,-0.115
9.767,-0.320,-0.105
9.769,-0.295,-0.105
9.772,-0.285,-0.095
9.775,-0.285,-0.115
9.778,-0.290,-0.105
9.781,-0.305,-0.105
9.783,-0.310,-0.120
9.786,-0.310,-0.100
9.789,-0.295,-0.110
9.792,-0.305,-0.125
9.794,-0.310,-0.125
9.797,-0.320,-0.125
9.800,-0.320,-0.135
9.803,-0.325,-0.125
9.806,-0.320,-0.135
9.808,-0.325,-0.135
9.811,-0.315,-0.150
9.814,-0.310,-0.145
9.817,-0.310,-0.145
9.819,-0.330,-0.135
9.822,-0.315,-0.125
9.825,-0.330,-0.135
9.828,-0.315,-0.130
9.831,-0.330,-0.130
9.833,-0.325,-0.115
9.836,-0.320,-0.120
9.839,-0.305,-0.100
9.842,-0.315,-0.105
9.844,-0.315,-0.100
9.847,-0.315,-0.090
9.850,-0.335,-0.100
9.853,-0.325,-0.090
9.856,-0.325,-0.085
9.858,-0.320,-0.090
9.861,-0.310,-0.090
9.864,-0.315,-0.080
9.867,-0.320,-0.090
9.869,-0.320,-0.085
9.872,-0.310,-0.090
9.875,-0.300,-0.100
9.878,-0.295,-0.105
9.881,-0.320,-0.100
9.883,-0.335,-0.105
9.886,-0.305,-0.100
9.889,-0.275,-0.100
9.892,-0.270,-0.105
9.894,-0.270,-0.115
9.897,-0.280,-0.110
9.900,-0.305,-0.095
9.903,-0.305,-0.090
9.906,-0.275,-0.095
9.908,-0.275,-0.100
9.911,-0.275,-0.095
9.914,-0.285,-0.110
9.917,-0.290,-0.120
9.919,-0.270,-0.120
9.922,-0.215,-0.130
9.925,-0.200,-0.140
9.928,-0.185,-0.130
9.931,-0.155,-0.120
9.933,-0.135,-0.120
9.936,-0.145,-0.130
9.939,-0.175,-0.125
9.942,-0.195,-0.140
9.944,-0.215,-0.140
9.947,-0.230,-0.145
9.950,-0.245,-0.135
9.953,-0.240,-0.130
9.956,-0.240,-0.125
9.958,-0.230,-0.125
9.961,-0.230,-0.120
9.964,-0.240,-0.115
9.967,-0.255,-0.095
9.969,-0.255,-0.095
9.972,-0.270,-0.095
9.975,-0.280,-0.095
9.978,-0.285,-0.095
9.981,-0.300,-0.090
9.983,-0.315,-0.095
9.986,-0.340,-0.085
9.989,-0.340,-0.085
9.992,-0.340,-0.095
9.994,-0.330,-0.105
9.997,-0.340,-0.100
10.000,-0.360,-0.100
10.003,-0.350,-0.110
10.006,-0.335,-0.105
10.008,-0.320,-0.105
10.011,-0.345,-0.115
10.014,-0.360,-0.120
10.017,-0.370,-0.115
10.019,-0.375,-0.105
10.022,-0.385,-0.110
10.025,-0.370,-0.110
10.028,-0.355,-0.120
10.031,-0.360,-0.125
10.033,-0.375,-0.115
10.036,-0.385,-0.105
10.039,-0.360,-0.100
10.042,-0.330,-0.110
10.044,-0.330,-0.130
10.047,-0.345,-0.145
10.050,-0.385,-0.145
10.053,-0.400,-0.125
10.056,-0.415,-0.130
10.058,-0.415,-0.140
10.061,-0.420,-0.135
10.064,-0.385,-0.140
10.067,-0.280,-0.135
10.069,-0.080,-0.120
10.072,0.155,-0.110
10.075,0.425,-0.120
10.078,0.745,-0.140
10.081,1.030,-0.160
10.083,1.165,-0.155
10.086,1.085,-0.170
10.089,0.850,-0.195
10.092,0.570,-0.205
10.094,0.300,-0.200
10.097,0.030,-0.165
10.100,-0.145,-0.120
10.103,-0.195,-0.060
10.106,-0.220,-0.050
10.108,-0.265,-0.055
10.111,-0.305,-0.075
10.114,-0.330,-0.090
10.117,-0.335,-0.090
10.119,-0.355,-0.070
10.122,-0.380,-0.075
10.125,-0.420,-0.090
10.128,-0.445,-0.110
10.131,-0.450,-0.105
10.133,-0.460,-0.110
10.136,-0.445,-0.110
10.139,-0.435,-0.085
10.142,-0.450,-0.110
10.144,-0.450,-0.120
10.147,-0.465,-0.130
10.150,-0.475,-0.115
10.153,-0.475,-0.105
10.156,-0.475,-0.100
10.158,-0.480,-0.115
10.161,-0.470,-0.125
10.164,-0.460,-0.145
10.167,-0.465,-0.135
10.169,-0.460,-0.130
10.172,-0.440,-0.130
10.175,-0.430,-0.140
10.178,-0.430,-0.145
10.181,-0.440,-0.150
10.183,-0.450,-0.150
10.186,-0.465,-0.135
10.189,-0.480,-0.125
10.192,-0.485,-0.135
10.194,-0.485,-0.150
10.197,-0.475,-0.135
10.200,-0.480,-0.130
10.203,-0.475,-0.120
10.206,-0.465,-0.105
10.208,-0.440,-0.115
10.211,-0.450,-0.110
10.214,-0.455,-0.115
10.217,-0.455,-0.115
10.219,-0.465,-0.090
10.222,-0.450,-0.075
10.225,-0.450,-0.080
10.228,-0.465,-0.090
10.231,-0.485,-0.095
10.233,-0.485,-0.090
10.236,-0.475,-0.075
10.239,-0.470,-0.070
10.242,-0.465,-0.085
10.244,-0.465,-0.095
10.247,-0.470,-0.115
10.250,-0.470,-0.110
10.253,-0.455,-0.105
10.256,-0.450,-0.100
10.258,-0.440,-0.115
10.261,-0.440,-0.115
10.264,-0.460,-0.125
10.267,-0.475,-0.125
10.269,-0.445,-0.115
10.272,-0.445,-0.105
10.275,-0.420,-0.110
10.278,-0.420,-0.120
10.281,-0.420,-0.130
10.283,-0.430,-0.135
10.286,-0.435,-0.110
10.289,-0.420,-0.120
10.292,-0.410,-0.135
10.294,-0.410,-0.140
10.297,-0.405,-0.160
10.300,-0.405,-0.145
10.303,-0.395,-0.130
10.306,-0.385,-0.120
10.308,-0.375,-0.145
10.311,-0.365,-0.150
10.314,-0.380,-0.150
10.317,-0.385,-0.135
10.319,-0.365,-0.130
10.322,-0.350,-0.125
10.325,-0.345,-0.140
10.328,-0.335,-0.145
10.331,-0.335,-0.140
10.333,-0.330,-0.120
10.336,-0.310,-0.105
10.339,-0.305,-0.075
10.342,-0.285,-0.085
10.344,-0.275,-0.100
10.347,-0.275,-0.110
10.350,-0.280,-0.110
10.353,-0.265,-0.095
10.356,-0.255,-0.090
10.358,-0.235,-0.100
10.361,-0.200,-0.110
10.364,-0.220,-0.105
10.367,-0.230,-0.110
10.369,-0.230,-0.100
10.372,-0.225,-0.090
10.375,-0.200,-0.115
10.378,-0.190,-0.135
10.381,-0.185,-0.145
10.383,-0.200,-0.150
10.386,-0.195,-0.120
10.389,-0.185,-0.115
10.392,-0.175,-0.120
10.394,-0.180,-0.130
10.397,-0.180,-0.135
10.400,-0.185,-0.140
10.403,-0.190,-0.140
10.406,-0.175,-0.115
10.408,-0.185,-0.130
10.411,-0.200,-0.140
10.414,-0.225,-0.160
10.417,-0.245,-0.160
10.419,-0.250,-0.145
10.422,-0.245,-0.125
10.425,-0.235,-0.135
10.428,-0.245,-0.150
10.431,-0.275,-0.160
10.433,-0.290,-0.155
10.436,-0.300,-0.135
10.439,-0.295,-0.125
10.442,-0.305,-0.115
10.444,-0.305,-0.120
10.447,-0.315,-0.155
10.450,-0.335,-0.135
10.453,-0.335,-0.125
10.456,-0.340,-0.105
10.458,-0.325,-0.090
10.461,-0.335,-0.090
10.464,-0.355,-0.105
10.467,-0.365,-0.100
10.469,-0.365,-0.095
10.472,-0.355,-0.070
10.475,-0.340,-0.065
10.478,-0.355,-0.065
10.481,-0.350,-0.095
10.483,-0.360,-0.085
10.486,-0.360,-0.060
10.489,-0.350,-0.060
10.492,-0.365,-0.050
10.494,-0.370,-0.075
10.497,-0.370,-0.095
10.500,-0.370,-0.105
10.503,-0.365,-0.100
10.506,-0.350,-0.090
10.508,-0.345,-0.085
10.511,-0.355,-0.095
10.514,-0.375,-0.110
10.517,-0.385,-0.110
10.519,-0.390,-0.095
10.522,-0.365,-0.075
10.525,-0.345,-0.075
10.528,-0.340,-0.085
10.531,-0.350,-0.100
10.533,-0.360,-0.110
10.536,-0.350,-0.110
10.539,-0.345,-0.095
10.542,-0.330,-0.105
10.544,-0.340,-0.110
10.547,-0.345,-0.130
10.550,-0.365,-0.145
10.553,-0.350,-0.135
10.556,-0.330,-0.125
10.558,-0.315,-0.110
10.561,-0.325,-0.105
10.564,-0.330,-0.130
10.567,-0.345,-0.130
10.569,-0.335,-0.125
10.572,-0.330,-0.115
10.575,-0.320,-0.110
10.578,-0.315,-0.115
10.581,-0.335,-0.120
10.583,-0.330,-0.105
10.586,-0.335,-0.100
10.589,-0.320,-0.090
10.592,-0.320,-0.085
10.594,-0.315,-0.070
10.597,-0.320,-0.085
10.600,-0.320,-0.090
10.603,-0.325,-0.090
10.606,-0.325,-0.060
10.608,-0.325,-0.060
10.611,-0.320,-0.050
10.614,-0.325,-0.075
10.617,-0.335,-0.075
10.619,-0.325,-0.085
10.622,-0.320,-0.075
10.625,-0.310,-0.095
10.628,-0.315,-0.070
10.631,-0.320,-0.100
10.633,-0.340,-0.115
10.636,-0.320,-0.105
10.639,-0.320,-0.090
10.642,-0.305,-0.090
10.644,-0.310,-0.080
10.647,-0.315,-0.095
10.650,-0.340,-0.105
10.653,-0.345,-0.100
10.656,-0.320,-0.095
10.658,-0.330,-0.095
10.661,-0.315,-0.100
10.664,-0.315,-0.125
10.667,-0.330,-0.140
10.669,-0.330,-0.145
10.672,-0.330,-0.120
10.675,-0.335,-0.110
10.678,-0.335,-0.120
10.681,-0.320,-0.125
10.683,-0.330,-0.130
10.686,-0.325,-0.125
10.689,-0.320,-0.115
10.692,-0.315,-0.110
10.694,-0.325,-0.115
10.697,-0.320,-0.115
10.700,-0.340,-0.120
10.703,-0.330,-0.115
10.706,-0.330,-0.100
10.708,-0.320,-0.085
10.711,-0.330,-0.080
10.714,-0.345,-0.085
10.717,-0.335,-0.100
10.719,-0.340,-0.085
10.722,-0.325,-0.070
10.725,-0.320,-0.065
10.728,-0.315,-0.060
10.731,-0.310,-0.075
10.733,-0.330,-0.080
10.736,-0.325,-0.080
10.739,-0.320,-0.070
10.742,-0.320,-0.060
10.744,-0.325,-0.070
10.747,-0.330,-0.085
10.750,-0.345,-0.095
10.753,-0.340,-0.095
10.756,-0.325,-0.090
10.758,-0.320,-0.085
10.761,-0.335,-0.085
10.764,-0.330,-0.100
10.767,-0.345,-0.105
10.769,-0.335,-0.095
10.772,-0.325,-0.080
10.775,-0.310,-0.085
10.778,-0.315,-0.070
10.781,-0.320,-0.100
10.783,-0.335,-0.130
10.786,-0.340,-0.125
10.789,-0.320,-0.110
10.792,-0.320,-0.110
10.794,-0.320,-0.110
10.797,-0.310,-0.115
10.800,-0.310,-0.135
10.803,-0.300,-0.135
10.806,-0.300,-0.120
10.808,-0.310,-0.105
10.811,-0.315,-0.105
10.814,-0.325,-0.130
10.817,-0.320,-0.130
10.819,-0.310,-0.115
10.822,-0.285,-0.095
10.825,-0.270,-0.080
10.828,-0.285,-0.080
10.831,-0.285,-0.090
10.833,-0.300,-0.095
10.836,-0.290,-0.075
10.839,-0.260,-0.065
10.842,-0.235,-0.045
10.844,-0.215,-0.055
10.847,-0.190,-0.080
10.850,-0.170,-0.075
10.853,-0.140,-0.070
10.856,-0.135,-0.060
10.858,-0.140,-0.045
10.861,-0.170,-0.055
10.864,-0.165,-0.085
10.867,-0.175,-0.095
10.869,-0.185,-0.090
10.872,-0.195,-0.085
10.875,-0.200,-0.085
10.878,-0.205,-0.095
10.881,-0.225,-0.115
10.883,-0.225,-0.105
10.886,-0.220,-0.110
10.889,-0.215,-0.095
10.892,-0.225,-0.085
10.894,-0.235,-0.090
10.897,-0.260,-0.115
10.900,-0.280,-0.115
10.903,-0.280,-0.120
10.906,-0.295,-0.100
10.908,-0.295,-0.105
10.911,-0.305,-0.115
10.914,-0.315,-0.130
10.917,-0.325,-0.140
10.919,-0.330,-0.140
10.922,-0.315,-0.110
10.925,-0.305,-0.105
10.928,-0.300,-0.105
10.931,-0.315,-0.130
10.933,-0.335,-0.130
10.936,-0.340,-0.120
10.939,-0.330,-0.095
10.942,-0.315,-0.095
10.944,-0.320,-0.100
10.947,-0.335,-0.115
10.950,-0.340,-0.095
10.953,-0.345,-0.085
10.956,-0.340,-0.070
10.958,-0.325,-0.055
10.961,-0.335,-0.075
10.964,-0.355,-0.085
10.967,-0.365,-0.085
10.969,-0.375,-0.075
10.972,-0.385,-0.055
10.975,-0.390,-0.040
10.978,-0.395,-0.050
10.981,-0.360,-0.075
10.983,-0.245,-0.085
10.986,-0.040,-0.080
10.989,0.190,-0.065
10.992,0.480,-0.055
10.994,0.810,-0.090
10.997,1.095,-0.130
11.000,1.190,-0.165
11.003,1.035,-0.200
11.006,0.735,-0.210
11.008,0.450,-0.190
11.011,0.180,-0.175
11.014,-0.015,-0.155
11.017,-0.095,-0.120
11.019,-0.110,-0.080
11.022,-0.135,-0.070
11.025,-0.165,-0.090
11.028,-0.190,-0.110
11.031,-0.225,-0.140
11.033,-0.245,-0.125
11.036,-0.270,-0.115
11.039,-0.305,-0.105
11.042,-0.325,-0.100
11.044,-0.365,-0.125
11.047,-0.380,-0.130
11.050,-0.395,-0.125
11.053,-0.390,-0.120
11.056,-0.385,-0.100
11.058,-0.375,-0.105
11.061,-0.385,-0.115
11.064,-0.395,-0.125
11.067,-0.410,-0.115
11.069,-0.405,-0.085
11.072,-0.400,-0.065
11.075,-0.395,-0.070
11.078,-0.400,-0.090
11.081,-0.420,-0.075
11.083,-0.420,-0.090
11.086,-0.410,-0.070
11.089,-0.405,-0.050
11.092,-0.405,-0.050
11.094,-0.405,-0.070
11.097,-0.405,-0.105
11.100,-0.400,-0.090
11.103,-0.390,-0.060
11.106,-0.385,-0.065
11.108,-0.400,-0.075
11.111,-0.405,-0.085
11.114,-0.400,-0.100
11.117,-0.415,-0.090
11.119,-0.400,-0.085
11.122,-0.420,-0.080
11.125,-0.385,-0.080
11.128,-0.390,-0.090
11.131,-0.385,-0.115
11.133,-0.400,-0.100
11.136,-0.385,-0.085
11.139,-0.390,-0.065
11.142,-0.395,-0.080
11.144,-0.410,-0.115
11.147,-0.415,-0.140
11.150,-0.415,-0.120
11.153,-0.415,-0.120
11.156,-0.395,-0.105
11.158,-0.390,-0.115
11.161,-0.380,-0.125
11.164,-0.380,-0.120
11.167,-0.395,-0.120
11.169,-0.390,-0.105
11.172,-0.375,-0.105
11.175,-0.370,-0.125
11.178,-0.365,-0.120
11.181,-0.390,-0.125
11.183,-0.400,-0.110
11.186,-0.395,-0.085
11.189,-0.380,-0.070
11.192,-0.365,-0.085
11.194,-0.365,-0.080
11.197,-0.365,-0.100
11.200,-0.370,-0.090
11.203,-0.355,-0.070
11.206,-0.345,-0.050
11.208,-0.345,-0.070
11.211,-0.340,-0.070
11.214,-0.345,-0.085
11.217,-0.350,-0.080
11.219,-0.335,-0.075
11.222,-0.320,-0.060
11.225,-0.305,-0.070
11.228,-0.295,-0.095
11.231,-0.295,-0.095
11.233,-0.310,-0.095
11.236,-0.280,-0.105
11.239,-0.265,-0.090
11.242,-0.245,-0.090
11.244,-0.235,-0.115
11.247,-0.245,-0.115
11.250,-0.250,-0.105
11.253,-0.240,-0.085
11.256,-0.205,-0.100
11.258,-0.190,-0.100
11.261,-0.180,-0.115
11.264,-0.165,-0.125
11.267,-0.155,-0.125
11.269,-0.160,-0.130
11.272,-0.145,-0.125
11.275,-0.140,-0.135
11.278,-0.145,-0.145
11.281,-0.135,-0.140
11.283,-0.155,-0.135
11.286,-0.155,-0.125
11.289,-0.125,-0.140
11.292,-0.115,-0.140
11.294,-0.105,-0.140
11.297,-0.105,-0.140
11.300,-0.115,-0.130
11.303,-0.115,-0.125
11.306,-0.100,-0.110
11.308,-0.105,-0.105
11.311,-0.130,-0.110
11.314,-0.145,-0.105
11.317,-0.175,-0.105
11.319,-0.170,-0.085
11.322,-0.175,-0.090
11.325,-0.170,-0.090
11.328,-0.190,-0.080
11.331,-0.215,-0.085
11.333,-0.220,-0.090
11.336,-0.230,-0.090
11.339,-0.235,-0.085
11.342,-0.240,-0.090
11.344,-0.260,-0.075
11.347,-0.280,-0.080
11.350,-0.290,-0.090
11.353,-0.300,-0.105
11.356,-0.280,-0.085
11.358,-0.285,-0.090
11.361,-0.300,-0.085
11.364,-0.310,-0.095
11.367,-0.330,-0.095
11.369,-0.335,-0.100
11.372,-0.320,-0.095
11.375,-0.310,-0.090
11.378,-0.325,-0.090
11.381,-0.325,-0.110
11.383,-0.340,-0.140
11.386,-0.340,-0.125
11.389,-0.325,-0.110
11.392,-0.310,-0.110
11.394,-0.310,-0.100
11.397,-0.330,-0.115
11.400,-0.345,-0.130
11.403,-0.340,-0.135
11.406,-0.335,-0.105
11.408,-0.335,-0.100
11.411,-0.315,-0.105
11.414,-0.325,-0.125
11.417,-0.335,-0.125
11.419,-0.340,-0.090
11.422,-0.325,-0.085
11.425,-0.300,-0.070
11.428,-0.300,-0.065
11.431,-0.320,-0.075
11.433,-0.335,-0.085
11.436,-0.320,-0.065
11.439,-0.305,-0.060
11.442,-0.305,-0.055
11.444,-0.310,-0.055
11.447,-0.315,-0.080
11.450,-0.320,-0.090
11.453,-0.315,-0.080
11.456,-0.305,-0.060
11.458,-0.300,-0.060
11.461,-0.290,-0.065
11.464,-0.295,-0.075
11.467,-0.305,-0.095
11.469,-0.285,-0.080
11.472,-0.280,-0.080
11.475,-0.280,-0.080
11.478,-0.295,-0.080
11.481,-0.315,-0.090
11.483,-0.325,-0.105
11.486,-0.315,-0.100
11.489,-0.295,-0.080
11.492,-0.285,-0.075
11.494,-0.270,-0.080
11.497,-0.280,-0.090
11.500,-0.300,-0.100
11.503,-0.295,-0.095
11.506,-0.280,-0.090
11.508,-0.270,-0.095
11.511,-0.270,-0.105
11.514,-0.285,-0.135
11.517,-0.300,-0.130
11.519,-0.295,-0.130
11.522,-0.280,-0.100
11.525,-0.275,-0.105
11.528,-0.275,-0.120
11.531,-0.280,-0.125
11.533,-0.290,-0.125
11.536,-0.275,-0.105
11.539,-0.270,-0.090
11.542,-0.265,-0.075
11.544,-0.275,-0.075
11.547,-0.290,-0.080
11.550,-0.295,-0.090
11.553,-0.295,-0.065
11.556,-0.285,-0.055
11.558,-0.270,-0.055
11.561,-0.280,-0.060
11.564,-0.290,-0.080
11.567,-0.300,-0.080
11.569,-0.285,-0.070
11.572,-0.275,-0.040
11.575,-0.275,-0.045
11.578,-0.275,-0.065
11.581,-0.285,-0.080
11.583,-0.285,-0.100
11.586,-0.295,-0.090
11.589,-0.285,-0.075
11.592,-0.275,-0.080
11.594,-0.280,-0.080
11.597,-0.280,-0.115
11.600,-0.300,-0.105
11.603,-0.290,-0.090
11.606,-0.290,-0.085
11.608,-0.280,-0.080
11.611,-0.275,-0.090
11.614,-0.290,-0.100
11.617,-0.305,-0.095
11.619,-0.275,-0.105
11.622,-0.265,-0.095
11.625,-0.260,-0.095
11.628,-0.260,-0.105
11.631,-0.275,-0.125
11.633,-0.295,-0.140
11.636,-0.285,-0.120
11.639,-0.280,-0.100
11.642,-0.265,-0.100
11.644,-0.275,-0.105
11.647,-0.295,-0.120
11.650,-0.300,-0.125
11.653,-0.285,-0.110
11.656,-0.285,-0.080
11.658,-0.275,-0.090
11.661,-0.275,-0.095
11.664,-0.280,-0.100
11.667,-0.285,-0.100
11.669,-0.285,-0.070
11.672,-0.280,-0.055
11.675,-0.290,-0.060
11.678,-0.270,-0.070
11.681,-0.285,-0.075
11.683,-0.285,-0.075
11.686,-0.285,-0.055
11.689,-0.280,-0.050
11.692,-0.275,-0.050
11.694,-0.270,-0.060
11.697,-0.285,-0.080
11.700,-0.290,-0.090
11.703,-0.280,-0.085
11.706,-0.280,-0.075
11.708,-0.260,-0.075
11.711,-0.255,-0.075
11.714,-0.270,-0.095
11.717,-0.280,-0.095
11.719,-0.270,-0.080
11.722,-0.255,-0.065
11.725,-0.250,-0.060
11.728,-0.250,-0.075
11.731,-0.250,-0.095
11.733,-0.245,-0.095
11.736,-0.245,-0.075
11.739,-0.225,-0.060
11.742,-0.200,-0.080
11.744,-0.180,-0.100
11.747,-0.170,-0.110
11.750,-0.150,-0.125
11.753,-0.120,-0.095
11.756,-0.090,-0.090
11.758,-0.090,-0.080
11.761,-0.105,-0.095
11.764,-0.120,-0.125
11.767,-0.145,-0.120
11.769,-0.155,-0.110
11.772,-0.165,-0.090
11.775,-0.160,-0.090
11.778,-0.160,-0.105
11.781,-0.160,-0.105
11.783,-0.165,-0.100
11.786,-0.160,-0.080
11.789,-0.165,-0.065
11.792,-0.190,-0.060
11.794,-0.205,-0.070
11.797,-0.230,-0.075
11.800,-0.250,-0.065
11.803,-0.260,-0.060
11.806,-0.285,-0.055
11.808,-0.270,-0.070
11.811,-0.265,-0.065
11.814,-0.265,-0.070
11.817,-0.270,-0.070
11.819,-0.260,-0.065
11.822,-0.255,-0.065
11.825,-0.265,-0.090
11.828,-0.265,-0.075
11.831,-0.290,-0.085
11.833,-0.300,-0.090
11.836,-0.290,-0.080
11.839,-0.280,-0.085
11.842,-0.275,-0.085
11.844,-0.270,-0.090
11.847,-0.280,-0.085
11.850,-0.285,-0.085
11.853,-0.295,-0.080
11.856,-0.290,-0.080
11.858,-0.275,-0.100
11.861,-0.275,-0.105
11.864,-0.295,-0.105
11.867,-0.325,-0.110
11.869,-0.340,-0.095
11.872,-0.355,-0.095
11.875,-0.320,-0.105
11.878,-0.260,-0.090
11.881,-0.130,-0.100
11.883,0.030,-0.100
11.886,0.285,-0.095
11.889,0.600,-0.090
11.892,0.950,-0.120
11.894,1.190,-0.150
11.897,1.215,-0.180
11.900,0.995,-0.210
11.903,0.670,-0.210
11.906,0.375,-0.195
11.908,0.170,-0.160
11.911,0.055,-0.105
11.914,0.020,-0.065
11.917,0.005,-0.050
11.919,-0.025,-0.050
11.922,-0.050,-0.065
11.925,-0.070,-0.060
11.928,-0.105,-0.060
11.931,-0.145,-0.065
11.933,-0.210,-0.065
11.936,-0.245,-0.065
11.939,-0.275,-0.060
11.942,-0.280,-0.065
11.944,-0.285,-0.070
11.947,-0.300,-0.075
11.950,-0.320,-0.080
11.953,-0.320,-0.085
11.956,-0.330,-0.080
11.958,-0.315,-0.075
11.961,-0.320,-0.070
11.964,-0.330,-0.085
11.967,-0.345,-0.095
11.969,-0.340,-0.080
11.972,-0.335,-0.080
11.975,-0.345,-0.090
11.978,-0.340,-0.080
11.981,-0.340,-0.105
11.983,-0.355,-0.090
11.986,-0.350,-0.100
11.989,-0.355,-0.105
11.992,-0.345,-0.110
11.994,-0.350,-0.125
11.997,-0.365,-0.115
12.000,-0.360,-0.115
12.003,-0.365,-0.105
12.006,-0.345,-0.105
12.008,-0.345,-0.110
12.011,-0.340,-0.115
12.014,-0.350,-0.115
12.017,-0.365,-0.090
12.019,-0.350,-0.105
12.022,-0.350,-0.085
12.025,-0.330,-0.090
12.028,-0.330,-0.075
12.031,-0.340,-0.080
12.033,-0.350,-0.070
12.036,-0.345,-0.070
12.039,-0.350,-0.055
12.042,-0.325,-0.065
12.044,-0.320,-0.060
12.047,-0.315,-0.065
12.050,-0.345,-0.065
12.053,-0.350,-0.065
12.056,-0.340,-0.050
12.058,-0.330,-0.070
12.061,-0.330,-0.065
12.064,-0.335,-0.080
12.067,-0.335,-0.095
12.069,-0.330,-0.095
12.072,-0.330,-0.080
12.075,-0.315,-0.085
12.078,-0.315,-0.080
12.081,-0.315,-0.090
12.083,-0.315,-0.100
12.086,-0.315,-0.085
12.089,-0.295,-0.095
12.092,-0.290,-0.085
12.094,-0.305,-0.080
12.097,-0.310,-0.085
12.100,-0.315,-0.090
12.103,-0.290,-0.100
12.106,-0.270,-0.120
12.108,-0.255,-0.125
12.111,-0.260,-0.115
12.114,-0.270,-0.115
12.117,-0.290,-0.120
12.119,-0.285,-0.130
12.122,-0.260,-0.120
12.125,-0.250,-0.110
12.128,-0.250,-0.105
12.131,-0.235,-0.105
12.133,-0.245,-0.110
12.136,-0.225,-0.120
12.139,-0.215,-0.105
12.142,-0.185,-0.100
12.144,-0.185,-0.090
12.147,-0.190,-0.080
12.150,-0.200,-0.090
12.153,-0.210,-0.080
12.156,-0.190,-0.085
12.158,-0.170,-0.075
12.161,-0.175,-0.075
12.164,-0.155,-0.080
12.167,-0.150,-0.085
12.169,-0.135,-0.085
12.172,-0.120,-0.075
12.175,-0.100,-0.065
12.178,-0.085,-0.065
12.181,-0.085,-0.085
12.183,-0.090,-0.120
12.186,-0.090,-0.110
12.189,-0.075,-0.100
12.192,-0.060,-0.110
12.194,-0.050,-0.100
12.197,-0.065,-0.125
12.200,-0.085,-0.130
12.203,-0.070,-0.115
12.206,-0.055,-0.115
12.208,-0.070,-0.100
12.211,-0.075,-0.105
12.214,-0.090,-0.115
12.217,-0.105,-0.140
12.219,-0.115,-0.135
12.222,-0.115,-0.130
12.225,-0.125,-0.120
12.228,-0.130,-0.125
12.231,-0.155,-0.150
12.233,-0.170,-0.145
12.236,-0.165,-0.145
12.239,-0.175,-0.130
12.242,-0.175,-0.115
12.244,-0.195,-0.110
12.247,-0.210,-0.130
12.250,-0.225,-0.140
12.253,-0.235,-0.140
12.256,-0.230,-0.120
12.258,-0.240,-0.095
12.261,-0.220,-0.085
12.264,-0.230,-0.090
12.267,-0.235,-0.085
12.269,-0.245,-0.085
12.272,-0.230,-0.085
12.275,-0.235,-0.075
12.278,-0.235,-0.075
12.281,-0.245,-0.085
12.283,-0.265,-0.075
12.286,-0.260,-0.065
12.289,-0.250,-0.060
12.292,-0.245,-0.055
12.294,-0.260,-0.065
12.297,-0.275,-0.080
12.300,-0.285,-0.090
12.303,-0.275,-0.090
12.306,-0.260,-0.075
12.308,-0.255,-0.085
12.311,-0.250,-0.075
12.314,-0.250,-0.100
12.317,-0.250,-0.105
12.319,-0.240,-0.095
12.322,-0.240,-0.075
12.325,-0.245,-0.070
12.328,-0.265,-0.080
12.331,-0.275,-0.090
12.333,-0.285,-0.110
12.336,-0.275,-0.085
12.339,-0.265,-0.085
12.342,-0.260,-0.100
12.344,-0.260,-0.105
12.347,-0.260,-0.120
12.350,-0.265,-0.130
12.353,-0.255,-0.120
12.356,-0.250,-0.105
12.358,-0.240,-0.090
12.361,-0.250,-0.105
12.364,-0.250,-0.120
12.367,-0.245,-0.130
12.369,-0.245,-0.110
12.372,-0.235,-0.085
12.375,-0.225,-0.095
12.378,-0.220,-0.095
12.381,-0.235,-0.115
12.383,-0.260,-0.110
12.386,-0.245,-0.085
12.389,-0.235,-0.055
12.392,-0.230,-0.060
12.394,-0.225,-0.065
12.397,-0.230,-0.070
12.400,-0.235,-0.075
12.403,-0.240,-0.070
12.406,-0.225,-0.045
12.408,-0.215,-0.050
12.411,-0.220,-0.055
12.414,-0.220,-0.070
12.417,-0.240,-0.070
12.419,-0.240,-0.080
12.422,-0.250,-0.060
12.425,-0.240,-0.070
12.428,-0.250,-0.080
12.431,-0.245,-0.105
12.433,-0.255,-0.110
12.436,-0.235,-0.100
12.439,-0.240,-0.075
12.442,-0.240,-0.075
12.444,-0.240,-0.085
12.447,-0.235,-0.095
12.450,-0.240,-0.105
12.453,-0.225,-0.085
12.456,-0.215,-0.075
12.458,-0.225,-0.075
12.461,-0.235,-0.100
12.464,-0.245,-0.115
12.467,-0.255,-0.135
12.469,-0.245,-0.115
12.472,-0.230,-0.110
12.475,-0.225,-0.100
12.478,-0.215,-0.105
12.481,-0.235,-0.140
12.483,-0.240,-0.130
12.486,-0.255,-0.125
12.489,-0.245,-0.100
12.492,-0.240,-0.095
12.494,-0.245,-0.105
12.497,-0.240,-0.110
12.500,-0.250,-0.120
12.503,-0.250,-0.115
12.506,-0.240,-0.080
12.508,-0.245,-0.075
12.511,-0.245,-0.080
12.514,-0.240,-0.085
12.517,-0.250,-0.095
12.519,-0.250,-0.075
12.522,-0.250,-0.060
12.525,-0.240,-0.050
12.528,-0.235,-0.055
12.531,-0.240,-0.070
12.533,-0.240,-0.075
12.536,-0.240,-0.070
12.539,-0.235,-0.055
12.542,-0.225,-0.060
12.544,-0.215,-0.070
12.547,-0.240,-0.090
12.550,-0.235,-0.100
12.553,-0.250,-0.085
12.556,-0.245,-0.075
12.558,-0.230,-0.070
12.561,-0.235,-0.065
12.564,-0.235,-0.095
12.567,-0.245,-0.100
12.569,-0.255,-0.090
12.572,-0.240,-0.080
12.575,-0.240,-0.070
12.578,-0.215,-0.080
12.581,-0.225,-0.095
12.583,-0.245,-0.115
12.586,-0.245,-0.120
12.589,-0.235,-0.100
12.592,-0.225,-0.115
12.594,-0.225,-0.115
12.597,-0.235,-0.140
12.600,-0.250,-0.135
12.603,-0.245,-0.120
12.606,-0.240,-0.105
12.608,-0.230,-0.105
12.611,-0.215,-0.105
12.614,-0.225,-0.115
12.617,-0.220,-0.120
12.619,-0.220,-0.110
12.622,-0.210,-0.085
12.625,-0.185,-0.075
12.628,-0.180,-0.075
12.631,-0.190,-0.085
12.633,-0.190,-0.085
12.636,-0.195,-0.070
12.639,-0.195,-0.050
12.642,-0.175,-0.050
12.644,-0.175,-0.080
12.647,-0.155,-0.095
12.650,-0.140,-0.085
12.653,-0.100,-0.055
12.656,-0.060,-0.040
12.658,-0.040,-0.055
12.661,-0.060,-0.070
12.664,-0.080,-0.095
12.667,-0.095,-0.085
12.669,-0.090,-0.090
12.672,-0.085,-0.080
12.675,-0.090,-0.085
12.678,-0.110,-0.100
12.681,-0.125,-0.110
12.683,-0.125,-0.110
12.686,-0.135,-0.095
12.689,-0.135,-0.085
12.692,-0.125,-0.095
12.694,-0.140,-0.095
12.697,-0.160,-0.115
12.700,-0.175,-0.110
12.703,-0.185,-0.110
12.706,-0.205,-0.105
12.708,-0.225,-0.125
12.711,-0.230,-0.130
12.714,-0.230,-0.135
12.717,-0.245,-0.145
12.719,-0.250,-0.115
12.722,-0.255,-0.115
12.725,-0.240,-0.130
12.728,-0.240,-0.125
12.731,-0.245,-0.135
12.733,-0.265,-0.115
12.736,-0.250,-0.115
12.739,-0.250,-0.100
12.742,-0.245,-0.105
12.744,-0.245,-0.100
12.747,-0.270,-0.105
12.750,-0.280,-0.105
12.753,-0.255,-0.075
12.756,-0.270,-0.075
12.758,-0.250,-0.070
12.761,-0.255,-0.090
12.764,-0.260,-0.090
12.767,-0.265,-0.085
12.769,-0.275,-0.065
12.772,-0.290,-0.065
12.775,-0.305,-0.065
12.778,-0.325,-0.080
12.781,-0.330,-0.085
12.783,-0.315,-0.080
12.786,-0.225,-0.060
12.789,-0.045,-0.065
12.792,0.185,-0.075
12.794,0.465,-0.095
12.797,0.795,-0.120
12.800,1.085,-0.150
12.803,1.155,-0.175
12.806,0.995,-0.225
12.808,0.705,-0.245
12.811,0.395,-0.235
12.814,0.150,-0.195
12.817,0.050,-0.155
12.819,0.055,-0.105
12.822,0.035,-0.090
12.825,0.000,-0.125
12.828,-0.060,-0.125
12.831,-0.115,-0.115
12.833,-0.170,-0.120
12.836,-0.225,-0.120
12.839,-0.255,-0.125
12.842,-0.270,-0.125
12.844,-0.275,-0.125
12.847,-0.305,-0.135
12.850,-0.330,-0.130
12.853,-0.350,-0.125
12.856,-0.345,-0.110
12.858,-0.345,-0.100
12.861,-0.345,-0.095
12.864,-0.345,-0.080
12.867,-0.360,-0.095
12.869,-0.355,-0.090
12.872,-0.360,-0.090
12.875,-0.340,-0.075
12.878,-0.345,-0.060
12.881,-0.350,-0.075
12.883,-0.355,-0.075
12.886,-0.375,-0.090
12.889,-0.365,-0.075
12.892,-0.355,-0.070
12.894,-0.355,-0.065
12.897,-0.360,-0.090
12.900,-0.380,-0.100
12.903,-0.380,-0.105
12.906,-0.345,-0.090
12.908,-0.345,-0.080
12.911,-0.355,-0.090
12.914,-0.360,-0.100
12.917,-0.380,-0.110
12.919,-0.370,-0.105
12.922,-0.355,-0.090
12.925,-0.345,-0.080
12.928,-0.360,-0.090
12.931,-0.365,-0.090
12.933,-0.360,-0.115
12.936,-0.360,-0.120
12.939,-0.355,-0.100
12.942,-0.335,-0.105
12.944,-0.350,-0.110
12.947,-0.365,-0.130
12.950,-0.360,-0.135
12.953,-0.360,-0.125
12.956,-0.340,-0.105
12.958,-0.330,-0.105
12.961,-0.340,-0.120
12.964,-0.350,-0.125
12.967,-0.370,-0.125
12.969,-0.360,-0.115
12.972,-0.340,-0.095
12.975,-0.315,-0.095
12.978,-0.320,-0.080
12.981,-0.335,-0.095
12.983,-0.345,-0.100
12.986,-0.340,-0.080
12.989,-0.320,-0.065
12.992,-0.315,-0.065
12.994,-0.295,-0.065
12.997,-0.305,-0.080
13.000,-0.310,-0.080
13.003,-0.310,-0.065
13.006,-0.295,-0.055
13.008,-0.290,-0.065
13.011,-0.290,-0.080
13.014,-0.285,-0.095
13.017,-0.295,-0.110
13.019,-0.285,-0.090
13.022,-0.285,-0.095
13.025,-0.265,-0.090
13.028,-0.250,-0.090
13.031,-0.230,-0.105
13.033,-0.230,-0.095
13.036,-0.220,-0.075
13.039,-0.210,-0.075
13.042,-0.195,-0.090
13.044,-0.210,-0.110
13.047,-0.200,-0.110
13.050,-0.205,-0.110
13.053,-0.190,-0.115
13.056,-0.175,-0.105
13.058,-0.165,-0.125
13.061,-0.150,-0.130
13.064,-0.145,-0.140
13.067,-0.150,-0.135
13.069,-0.145,-0.145
13.072,-0.130,-0.140
13.075,-0.100,-0.150
13.078,-0.100,-0.145
13.081,-0.105,-0.140
13.083,-0.105,-0.145
13.086,-0.105,-0.140
13.089,-0.100,-0.125
13.092,-0.085,-0.130
13.094,-0.080,-0.130
13.097,-0.090,-0.125
13.100,-0.100,-0.110
13.103,-0.115,-0.100
13.106,-0.110,-0.095
13.108,-0.105,-0.105
13.111,-0.125,-0.100
13.114,-0.140,-0.100
13.117,-0.160,-0.105
13.119,-0.175,-0.100
13.122,-0.170,-0.105
13.125,-0.175,-0.090
13.128,-0.180,-0.085
13.131,-0.180,-0.110
13.133,-0.200,-0.100
13.136,-0.220,-0.095
13.139,-0.225,-0.100
13.142,-0.220,-0.100
13.144,-0.220,-0.100
13.147,-0.220,-0.110
13.150,-0.235,-0.120
13.153,-0.255,-0.115
13.156,-0.255,-0.115
13.158,-0.255,-0.110
13.161,-0.255,-0.105
13.164,-0.260,-0.115
13.167,-0.255,-0.125
13.169,-0.275,-0.115
13.172,-0.290,-0.120
13.175,-0.290,-0.115
13.178,-0.285,-0.125
13.181,-0.280,-0.130
13.183,-0.295,-0.150
13.186,-0.295,-0.140
13.189,-0.285,-0.120
13.192,-0.265,-0.125
13.194,-0.275,-0.115
13.197,-0.275,-0.135
13.200,-0.290,-0.140
13.203,-0.305,-0.135
13.206,-0.300,-0.105
13.208,-0.265,-0.095
13.211,-0.240,-0.085
13.214,-0.260,-0.105
13.217,-0.265,-0.095
13.219,-0.275,-0.105
13.222,-0.260,-0.075
13.225,-0.255,-0.070
13.228,-0.265,-0.065
13.231,-0.260,-0.080
13.233,-0.255,-0.080
13.236,-0.265,-0.085
13.239,-0.260,-0.065
13.242,-0.235,-0.070
13.244,-0.240,-0.080
13.247,-0.245,-0.105
13.250,-0.265,-0.120
13.253,-0.250,-0.105
13.256,-0.245,-0.100
13.258,-0.245,-0.085
13.261,-0.245,-0.105
13.264,-0.245,-0.115
13.267,-0.255,-0.130
13.269,-0.245,-0.115
13.272,-0.235,-0.085
13.275,-0.225,-0.085
13.278,-0.230,-0.090
13.281,-0.240,-0.125
13.283,-0.240,-0.130
13.286,-0.245,-0.125
13.289,-0.240,-0.135
13.292,-0.230,-0.125
13.294,-0.240,-0.140
13.297,-0.235,-0.160
13.300,-0.230,-0.160
13.303,-0.255,-0.140
13.306,-0.255,-0.120
13.308,-0.220,-0.130
13.311,-0.225,-0.140
13.314,-0.235,-0.155
13.317,-0.245,-0.150
13.319,-0.255,-0.125
13.322,-0.265,-0.100
13.325,-0.245,-0.110
13.328,-0.245,-0.110
13.331,-0.245,-0.105
13.333,-0.250,-0.105
13.336,-0.240,-0.095
13.339,-0.245,-0.090
13.342,-0.255,-0.080
13.344,-0.265,-0.090
13.347,-0.250,-0.110
13.350,-0.250,-0.095
13.353,-0.255,-0.085
13.356,-0.245,-0.085
13.358,-0.240,-0.095
13.361,-0.245,-0.100
13.364,-0.245,-0.110
13.367,-0.255,-0.120
13.369,-0.265,-0.110
13.372,-0.240,-0.105
13.375,-0.230,-0.115
13.378,-0.230,-0.115
13.381,-0.245,-0.130
13.383,-0.250,-0.120
13.386,-0.255,-0.115
13.389,-0.250,-0.110
13.392,-0.235,-0.120
13.394,-0.255,-0.110
13.397,-0.260,-0.115
13.400,-0.265,-0.125
13.403,-0.275,-0.120
13.406,-0.265,-0.135
13.408,-0.260,-0.160
13.411,-0.250,-0.135
13.414,-0.255,-0.135
13.417,-0.270,-0.125
13.419,-0.290,-0.140
13.422,-0.265,-0.135
13.425,-0.255,-0.135
13.428,-0.250,-0.150
13.431,-0.270,-0.125
13.433,-0.270,-0.125
13.436,-0.265,-0.125
13.439,-0.245,-0.105
13.442,-0.240,-0.110
13.444,-0.250,-0.095
13.447,-0.265,-0.105
13.450,-0.275,-0.095
13.453,-0.280,-0.080
13.456,-0.265,-0.090
13.458,-0.250,-0.075
13.461,-0.245,-0.085
13.464,-0.245,-0.080
13.467,-0.265,-0.075
13.469,-0.270,-0.080
13.472,-0.255,-0.085
13.475,-0.245,-0.080
13.478,-0.250,-0.095
13.481,-0.260,-0.085
13.483,-0.280,-0.085
13.486,-0.285,-0.090
13.489,-0.275,-0.090
13.492,-0.265,-0.105
13.494,-0.270,-0.105
13.497,-0.265,-0.105
13.500,-0.285,-0.100
13.503,-0.265,-0.095
13.506,-0.240,-0.075
13.508,-0.245,-0.090
13.511,-0.260,-0.080
13.514,-0.275,-0.095
13.517,-0.275,-0.100
13.519,-0.280,-0.110
13.522,-0.265,-0.115
13.525,-0.255,-0.120
13.528,-0.255,-0.120
13.531,-0.240,-0.130
13.533,-0.220,-0.120
13.536,-0.190,-0.105
13.539,-0.140,-0.100
13.542,-0.100,-0.110
13.544,-0.105,-0.120
13.547,-0.120,-0.130
13.550,-0.145,-0.120
13.553,-0.160,-0.115
13.556,-0.155,-0.100
13.558,-0.160,-0.110
13.561,-0.185,-0.105
13.564,-0.190,-0.120
13.567,-0.200,-0.110
13.569,-0.210,-0.090
13.572,-0.195,-0.095
13.575,-0.180,-0.090
13.578,-0.185,-0.090
13.581,-0.195,-0.085
13.583,-0.220,-0.080
13.586,-0.250,-0.075
13.589,-0.265,-0.070
13.592,-0.260,-0.075
13.594,-0.285,-0.075
13.597,-0.300,-0.070
13.600,-0.320,-0.075
13.603,-0.330,-0.085
13.606,-0.320,-0.085
13.608,-0.305,-0.100
13.611,-0.305,-0.100
13.614,-0.305,-0.100
13.617,-0.315,-0.100
13.619,-0.325,-0.095
13.622,-0.335,-0.090
13.625,-0.335,-0.090
13.628,-0.330,-0.090
13.631,-0.340,-0.090
13.633,-0.340,-0.100
13.636,-0.360,-0.085
13.639,-0.345,-0.090
13.642,-0.345,-0.105
13.644,-0.340,-0.090
13.647,-0.355,-0.110
13.650,-0.350,-0.115
13.653,-0.355,-0.120
13.656,-0.355,-0.120
13.658,-0.360,-0.110
13.661,-0.385,-0.105
13.664,-0.385,-0.105
13.667,-0.395,-0.100
13.669,-0.355,-0.105
13.672,-0.255,-0.090
13.675,-0.075,-0.105
13.678,0.105,-0.090
13.681,0.335,-0.100
13.683,0.635,-0.130
13.686,0.895,-0.150
13.689,0.950,-0.190
13.692,0.755,-0.220
13.694,0.430,-0.235
13.697,0.150,-0.215
13.700,-0.045,-0.180
13.703,-0.160,-0.115
13.706,-0.185,-0.075
13.708,-0.185,-0.045
13.711,-0.225,-0.055
13.714,-0.240,-0.065
13.717,-0.255,-0.070
13.719,-0.305,-0.070
13.722,-0.320,-0.070
13.725,-0.360,-0.070
13.728,-0.400,-0.065
13.731,-0.420,-0.075
13.733,-0.435,-0.095
13.736,-0.440,-0.090
13.739,-0.445,-0.080
13.742,-0.445,-0.075
13.744,-0.455,-0.065
13.747,-0.485,-0.080
13.750,-0.505,-0.100
13.753,-0.500,-0.095
13.756,-0.470,-0.090
13.758,-0.465,-0.080
13.761,-0.460,-0.065
13.764,-0.480,-0.080
13.767,-0.480,-0.105
13.769,-0.475,-0.115
13.772,-0.465,-0.100
13.775,-0.460,-0.090
13.778,-0.475,-0.095
13.781,-0.490,-0.115
13.783,-0.505,-0.125
13.786,-0.505,-0.110
13.789,-0.495,-0.095
13.792,-0.480,-0.095
13.794,-0.475,-0.090
13.797,-0.510,-0.105
13.800,-0.530,-0.105
13.803,-0.520,-0.085
13.806,-0.505,-0.070
13.808,-0.500,-0.050
13.811,-0.500,-0.060
13.814,-0.510,-0.070
13.817,-0.520,-0.080
13.819,-0.515,-0.060
13.822,-0.520,-0.045
13.825,-0.535,-0.040
13.828,-0.525,-0.060
13.831,-0.520,-0.075
13.833,-0.520,-0.085
13.836,-0.525,-0.065
13.839,-0.505,-0.050
13.842,-0.485,-0.055
13.844,-0.510,-0.075
13.847,-0.550,-0.090
13.850,-0.565,-0.095
13.853,-0.550,-0.075
13.856,-0.525,-0.060
13.858,-0.500,-0.080
13.861,-0.515,-0.085
13.864,-0.525,-0.085
13.867,-0.525,-0.075
13.869,-0.520,-0.065
13.872,-0.505,-0.060
13.875,-0.480,-0.080
13.878,-0.480,-0.090
13.881,-0.495,-0.105
13.883,-0.505,-0.105
13.886,-0.500,-0.095
13.889,-0.490,-0.090
13.892,-0.475,-0.095
13.894,-0.485,-0.105
13.897,-0.500,-0.115
13.900,-0.505,-0.105
13.903,-0.485,-0.100
13.906,-0.480,-0.095
13.908,-0.470,-0.100
13.911,-0.460,-0.095
13.914,-0.460,-0.100
13.917,-0.460,-0.090
13.919,-0.450,-0.065
13.922,-0.435,-0.060
13.925,-0.425,-0.050
13.928,-0.420,-0.050
13.931,-0.405,-0.055
13.933,-0.405,-0.055
13.936,-0.385,-0.045
13.939,-0.365,-0.040
13.942,-0.355,-0.050
13.944,-0.360,-0.055
13.947,-0.360,-0.060
13.950,-0.365,-0.065
13.953,-0.365,-0.065
13.956,-0.345,-0.055
13.958,-0.320,-0.070
13.961,-0.315,-0.065
13.964,-0.330,-0.085
13.967,-0.335,-0.085
13.969,-0.350,-0.080
13.972,-0.335,-0.080
13.975,-0.305,-0.080
13.978,-0.295,-0.095
13.981,-0.295,-0.085
13.983,-0.310,-0.090
13.986,-0.310,-0.080
13.989,-0.320,-0.090
13.992,-0.320,-0.095
13.994,-0.345,-0.090
13.997,-0.345,-0.100
14.000,-0.365,-0.115
14.003,-0.370,-0.110
14.006,-0.370,-0.105
14.008,-0.375,-0.100
14.011,-0.380,-0.105
14.014,-0.390,-0.110
14.017,-0.400,-0.110
14.019,-0.425,-0.105
14.022,-0.425,-0.110
14.025,-0.420,-0.105
14.028,-0.430,-0.080
14.031,-0.435,-0.085
14.033,-0.435,-0.070
14.036,-0.445,-0.060
14.039,-0.445,-0.050
14.042,-0.450,-0.040
14.044,-0.455,-0.035
14.047,-0.465,-0.040
14.050,-0.480,-0.050
14.053,-0.485,-0.045
14.056,-0.485,-0.025
14.058,-0.470,-0.010
14.061,-0.465,-0.015
14.064,-0.475,-0.025
14.067,-0.485,-0.050
14.069,-0.485,-0.040
14.072,-0.475,-0.035
14.075,-0.470,-0.030
14.078,-0.475,-0.025
14.081,-0.465,-0.060
14.083,-0.485,-0.065
14.086,-0.485,-0.060
14.089,-0.470,-0.040
14.092,-0.455,-0.040
14.094,-0.460,-0.030
14.097,-0.465,-0.040
14.100,-0.465,-0.060
14.103,-0.475,-0.055
14.106,-0.460,-0.040
14.108,-0.440,-0.035
14.111,-0.435,-0.045
14.114,-0.450,-0.070
14.117,-0.450,-0.100
14.119,-0.440,-0.090
14.122,-0.450,-0.065
14.125,-0.435,-0.070
14.128,-0.455,-0.075
14.131,-0.440,-0.090
14.133,-0.445,-0.075
14.136,-0.440,-0.065
14.139,-0.425,-0.045
14.142,-0.420,-0.050
14.144,-0.415,-0.055
14.147,-0.420,-0.060
14.150,-0.415,-0.060
14.153,-0.405,-0.035
14.156,-0.400,-0.015
14.158,-0.395,-0.020
14.161,-0.390,-0.025
14.164,-0.405,-0.030
14.167,-0.405,-0.025
14.169,-0.400,-0.015
14.172,-0.380,0.000
14.175,-0.370,0.000
14.178,-0.385,-0.005
14.181,-0.370,-0.025
14.183,-0.375,-0.025
14.186,-0.375,-0.020
14.189,-0.365,-0.020
14.192,-0.350,-0.025
14.194,-0.355,-0.035
14.197,-0.345,-0.030
14.200,-0.360,-0.040
14.203,-0.365,-0.040
14.206,-0.360,-0.030
14.208,-0.340,-0.035
14.211,-0.345,-0.040
14.214,-0.340,-0.035
14.217,-0.345,-0.035
14.219,-0.360,-0.040
14.222,-0.350,-0.030
14.225,-0.345,-0.050
14.228,-0.345,-0.055
14.231,-0.335,-0.060
14.233,-0.350,-0.050
14.236,-0.355,-0.065
14.239,-0.335,-0.060
14.242,-0.335,-0.050
14.244,-0.325,-0.050
14.247,-0.320,-0.070
14.250,-0.330,-0.055
14.253,-0.325,-0.045
14.256,-0.315,-0.040
14.258,-0.305,-0.040
14.261,-0.310,-0.050
14.264,-0.310,-0.045
14.267,-0.340,-0.020
14.269,-0.350,-0.015
14.272,-0.325,-0.015
14.275,-0.315,-0.015
14.278,-0.315,-0.015
14.281,-0.340,-0.010
14.283,-0.330,-0.010
14.286,-0.330,0.000
14.289,-0.310,0.005
14.292,-0.310,0.000
14.294,-0.315,0.000
14.297,-0.330,-0.005
14.300,-0.325,0.005
14.303,-0.315,0.010
14.306,-0.300,0.010
14.308,-0.300,-0.010
14.311,-0.290,-0.020
14.314,-0.305,-0.015
14.317,-0.320,-0.025
14.319,-0.320,-0.010
14.322,-0.300,-0.010
14.325,-0.280,-0.025
14.328,-0.285,-0.025
14.331,-0.295,-0.025
14.333,-0.295,-0.020
14.336,-0.285,-0.020
14.339,-0.285,-0.025
14.342,-0.275,-0.020
14.344,-0.285,-0.025
14.347,-0.295,-0.045
14.350,-0.290,-0.045
14.353,-0.295,-0.045
14.356,-0.275,-0.040
14.358,-0.265,-0.045
14.361,-0.265,-0.040
14.364,-0.260,-0.045
14.367,-0.280,-0.040
14.369,-0.265,-0.030
14.372,-0.260,-0.030
14.375,-0.250,-0.035
14.378,-0.240,-0.045
14.381,-0.240,-0.035
14.383,-0.255,-0.035
14.386,-0.260,-0.025
14.389,-0.245,0.000
14.392,-0.220,0.000
14.394,-0.185,-0.015
14.397,-0.165,0.000
14.400,-0.125,0.005
14.403,-0.110,0.015
14.406,-0.090,0.020
14.408,-0.095,0.020
14.411,-0.115,0.015
14.414,-0.120,0.020
14.417,-0.125,0.020
14.419,-0.125,0.025
14.422,-0.130,0.025
14.425,-0.130,0.015
14.428,-0.145,0.010
14.431,-0.160,-0.005
14.433,-0.175,-0.005
14.436,-0.185,-0.005
14.439,-0.170,-0.005
14.442,-0.145,-0.010
14.444,-0.160,-0.015
14.447,-0.180,-0.010
14.450,-0.205,-0.025
14.453,-0.225,0.005
14.456,-0.225,-0.005
14.458,-0.220,-0.010
14.461,-0.230,-0.015
14.464,-0.225,-0.020
14.467,-0.250,-0.015
14.469,-0.265,-0.010
14.472,-0.255,-0.020
14.475,-0.245,-0.030
14.478,-0.255,-0.045
14.481,-0.265,-0.035
14.483,-0.275,-0.050
14.486,-0.255,-0.040
14.489,-0.255,-0.030
14.492,-0.240,-0.040
14.494,-0.240,-0.030
14.497,-0.255,-0.040
14.500,-0.275,-0.035
14.503,-0.270,-0.035
14.506,-0.260,-0.025
14.508,-0.240,-0.025
14.511,-0.250,-0.025
14.514,-0.260,-0.020
14.517,-0.265,-0.010
14.519,-0.255,0.000
14.522,-0.255,0.020
14.525,-0.285,0.015
14.528,-0.320,0.010
14.531,-0.350,-0.005
14.533,-0.365,0.025
14.536,-0.320,0.025
14.539,-0.195,0.035
14.542,-0.015,0.035
14.544,0.220,0.020
14.547,0.490,0.015
14.550,0.810,-0.005
14.553,1.100,-0.025
14.556,1.250,-0.045
14.558,1.155,-0.085
14.561,0.890,-0.115
14.564,0.605,-0.150
14.567,0.345,-0.130
14.569,0.130,-0.080
14.572,0.045,-0.015
14.575,0.040,0.000
14.578,0.010,-0.010
14.581,-0.040,-0.015
14.583,-0.085,-0.025
14.586,-0.095,0.000
14.589,-0.115,0.005
14.592,-0.150,-0.005
14.594,-0.190,-0.025
14.597,-0.220,-0.035
14.600,-0.250,-0.040
14.603,-0.270,-0.030
14.606,-0.260,-0.020
14.608,-0.260,-0.015
14.611,-0.285,-0.040
14.614,-0.300,-0.045
14.617,-0.330,-0.035
14.619,-0.340,-0.035
14.622,-0.325,-0.025
14.625,-0.310,-0.030
14.628,-0.330,-0.030
14.631,-0.325,-0.030
14.633,-0.340,-0.025
14.636,-0.330,0.000
14.639,-0.325,0.000
14.642,-0.320,-0.005
14.644,-0.320,0.010
14.647,-0.325,0.015
14.650,-0.325,0.005
14.653,-0.325,0.020
14.656,-0.315,0.030
14.658,-0.320,0.015
14.661,-0.325,0.025
14.664,-0.320,0.015
14.667,-0.335,0.020
14.669,-0.335,0.030
14.672,-0.330,0.030
14.675,-0.320,0.015
14.678,-0.315,0.010
14.681,-0.330,0.005
14.683,-0.335,0.000
14.686,-0.345,0.005
14.689,-0.320,0.000
14.692,-0.305,0.000
14.694,-0.320,-0.005
14.697,-0.330,-0.005
14.700,-0.340,-0.005
14.703,-0.335,0.005
14.706,-0.335,0.000
14.708,-0.310,0.000
14.711,-0.310,0.010
14.714,-0.320,-0.005
14.717,-0.335,-0.015
14.719,-0.330,-0.025
14.722,-0.315,-0.020
14.725,-0.305,-0.020
14.728,-0.300,-0.015
14.731,-0.305,-0.025
14.733,-0.315,-0.030
14.736,-0.315,-0.025
14.739,-0.310,-0.020
14.742,-0.295,-0.020
14.744,-0.280,-0.015
14.747,-0.280,-0.010
14.750,-0.290,-0.030
14.753,-0.285,-0.020
14.756,-0.265,-0.025
14.758,-0.255,-0.005
14.761,-0.260,0.000
14.764,-0.260,0.010
14.767,-0.265,0.010
14.769,-0.260,0.005
14.772,-0.245,0.020
14.775,-0.230,0.015
14.778,-0.230,0.025
14.781,-0.235,0.025
14.783,-0.225,0.020
14.786,-0.215,0.010
14.789,-0.195,0.015
14.792,-0.165,0.025
14.794,-0.170,0.020
14.797,-0.180,0.005
14.800,-0.190,0.000
14.803,-0.200,0.005
14.806,-0.180,0.005
14.808,-0.140,0.010
14.811,-0.120,0.015
14.814,-0.110,-0.005
14.817,-0.115,-0.010
14.819,-0.115,-0.020
14.822,-0.095,-0.005
14.825,-0.085,0.010
14.828,-0.080,0.005
14.831,-0.070,-0.005
14.833,-0.065,-0.015
14.836,-0.070,-0.035
14.839,-0.070,-0.040
14.842,-0.070,-0.020
14.844,-0.065,-0.035
14.847,-0.070,-0.055
14.850,-0.060,-0.060
14.853,-0.050,-0.065
14.856,-0.040,-0.060
14.858,-0.040,-0.040
14.861,-0.070,-0.035
14.864,-0.075,-0.050
14.867,-0.080,-0.050
14.869,-0.070,-0.050
14.872,-0.075,-0.025
14.875,-0.090,-0.020
14.878,-0.125,-0.005
14.881,-0.140,-0.010
14.883,-0.160,-0.015
14.886,-0.180,-0.005
14.889,-0.170,0.015
14.892,-0.170,0.025
14.894,-0.165,0.030
14.897,-0.185,0.015
14.900,-0.200,0.010
14.903,-0.210,0.015
14.906,-0.205,0.030
14.908,-0.210,0.030
14.911,-0.220,0.035
14.914,-0.225,0.025
14.917,-0.235,0.010
14.919,-0.245,-0.005
14.922,-0.245,0.015
14.925,-0.250,0.020
14.928,-0.245,0.020
14.931,-0.255,0.000
14.933,-0.270,-0.010
14.936,-0.275,-0.015
14.939,-0.265,0.010
14.942,-0.255,0.025
14.944,-0.265,0.025
14.947,-0.270,0.010
14.950,-0.280,0.000
14.953,-0.295,-0.010
14.956,-0.280,-0.010
14.958,-0.275,0.000
14.961,-0.275,-0.010
14.964,-0.270,-0.010
14.967,-0.270,-0.025
14.969,-0.285,-0.025
14.972,-0.270,-0.015
14.975,-0.260,-0.020
14.978,-0.265,0.000
14.981,-0.275,-0.005
14.983,-0.285,-0.015
14.986,-0.275,-0.035
14.989,-0.250,-0.015
14.992,-0.245,-0.005
14.994,-0.245,0.005
14.997,-0.250,0.000
15.000,-0.260,0.000
15.003,-0.270,0.000
15.006,-0.260,0.010
15.008,-0.250,0.025
15.011,-0.260,0.035
15.014,-0.265,0.035
15.017,-0.270,0.030
15.019,-0.260,0.015
15.022,-0.255,0.025
15.025,-0.250,0.045
15.028,-0.255,0.035
15.031,-0.260,0.030
15.033,-0.260,0.015
15.036,-0.255,0.015
15.039,-0.235,0.020
15.042,-0.235,0.020
15.044,-0.235,0.020
15.047,-0.240,0.020
15.050,-0.245,0.000
15.053,-0.265,0.000
15.056,-0.245,-0.005
15.058,-0.245,0.005
15.061,-0.235,0.010
15.064,-0.240,0.005
15.067,-0.245,0.000
15.069,-0.265,0.005
15.072,-0.250,0.010
15.075,-0.240,0.005
15.078,-0.250,0.005
15.081,-0.240,0.000
15.083,-0.240,-0.010
15.086,-0.240,-0.005
15.089,-0.225,-0.010
15.092,-0.215,-0.025
15.094,-0.215,-0.015
15.097,-0.225,-0.025
15.100,-0.240,-0.025
15.103,-0.255,-0.020
15.106,-0.230,-0.015
15.108,-0.210,-0.010
15.111,-0.210,-0.010
15.114,-0.230,-0.020
15.117,-0.245,-0.020
15.119,-0.240,-0.005
15.122,-0.235,0.000
15.125,-0.220,-0.005
15.128,-0.225,-0.010
15.131,-0.230,0.000
15.133,-0.245,-0.005
15.136,-0.260,0.020
15.139,-0.245,0.025
15.142,-0.240,0.025
15.144,-0.235,0.015
15.147,-0.240,0.015
15.150,-0.245,0.020
15.153,-0.240,0.035
15.156,-0.230,0.050
15.158,-0.225,0.040
15.161,-0.220,0.030
15.164,-0.230,0.015
15.167,-0.255,0.015
15.169,-0.240,0.030
15.172,-0.230,0.030
15.175,-0.220,0.015
15.178,-0.240,0.005
15.181,-0.250,-0.005
15.183,-0.245,0.005
15.186,-0.255,0.010
15.189,-0.250,0.025
15.192,-0.240,0.020
15.194,-0.235,0.010
15.197,-0.245,0.005
15.200,-0.245,0.000
15.203,-0.250,0.020
15.206,-0.245,0.020
15.208,-0.230,0.005
15.211,-0.240,-0.010
15.214,-0.245,-0.025
15.217,-0.250,-0.040
15.219,-0.255,-0.020
15.222,-0.245,0.000
15.225,-0.215,-0.005
15.228,-0.230,-0.005
15.231,-0.235,-0.030
15.233,-0.250,-0.030
15.236,-0.245,-0.010
15.239,-0.240,0.000
15.242,-0.230,0.000
15.244,-0.235,-0.020
15.247,-0.250,-0.030
15.250,-0.275,-0.020
15.253,-0.270,0.005
15.256,-0.265,0.025
15.258,-0.235,0.030
15.261,-0.240,0.025
15.264,-0.245,0.015
15.267,-0.245,0.020
15.269,-0.235,0.015
15.272,-0.230,0.025
15.275,-0.225,0.030
15.278,-0.230,0.025
15.281,-0.250,0.030
15.283,-0.240,0.030
15.286,-0.235,0.030
15.289,-0.230,0.035
15.292,-0.235,0.040
15.294,-0.225,0.020
15.297,-0.225,0.015
15.300,-0.225,-0.005
15.303,-0.205,0.005
15.306,-0.165,0.025
15.308,-0.115,0.025
15.311,-0.090,0.010
15.314,-0.085,0.000
15.317,-0.100,0.000
15.319,-0.125,-0.005
15.322,-0.125,0.015
15.325,-0.120,0.015
15.328,-0.120,0.005
15.331,-0.130,-0.025
15.333,-0.150,-0.035
15.336,-0.160,-0.035
15.339,-0.155,-0.030
15.342,-0.150,-0.025
15.344,-0.155,-0.025
15.347,-0.160,-0.040
15.350,-0.175,-0.040
15.353,-0.195,-0.045
15.356,-0.190,-0.020
15.358,-0.185,-0.015
15.361,-0.190,-0.020
15.364,-0.225,-0.045
15.367,-0.250,-0.050
15.369,-0.260,-0.035
15.372,-0.260,-0.030
15.375,-0.255,-0.010
15.378,-0.265,-0.010
15.381,-0.260,-0.020
15.383,-0.265,-0.020
15.386,-0.270,-0.010
15.389,-0.275,0.010
15.392,-0.280,0.015
15.394,-0.285,0.025
15.397,-0.285,0.000
15.400,-0.290,-0.015
15.403,-0.295,0.000
15.406,-0.285,0.015
15.408,-0.280,0.025
15.411,-0.285,0.015
15.414,-0.285,0.010
15.417,-0.300,-0.015
15.419,-0.315,-0.015
15.422,-0.300,-0.010
15.425,-0.280,0.010
15.428,-0.280,0.010
15.431,-0.305,-0.015
15.433,-0.325,-0.030
15.436,-0.360,-0.020
15.439,-0.385,-0.010
15.442,-0.400,0.010
15.444,-0.405,0.010
15.447,-0.340,-0.015
15.450,-0.210,-0.020
15.453,-0.015,-0.025
15.456,0.230,0.005
15.458,0.495,-0.005
15.461,0.810,-0.040
15.464,1.070,-0.065
15.467,1.180,-0.115
15.469,1.040,-0.165
15.472,0.775,-0.175
15.475,0.505,-0.160
15.478,0.265,-0.150
15.481,0.075,-0.115
15.483,0.010,-0.100
15.486,0.000,-0.065
15.489,-0.025,-0.040
15.492,-0.060,-0.045
15.494,-0.100,-0.040
15.497,-0.120,-0.040
15.500,-0.165,-0.045
15.503,-0.225,-0.035
15.506,-0.265,-0.015
15.508,-0.290,-0.010
15.511,-0.325,-0.005
15.514,-0.360,0.000
15.517,-0.375,-0.025
15.519,-0.375,-0.015
15.522,-0.385,-0.005
15.525,-0.385,0.015
15.528,-0.390,0.010
15.531,-0.390,0.010
15.533,-0.405,0.000
15.536,-0.415,0.000
15.539,-0.420,-0.010
15.542,-0.400,0.005
15.544,-0.395,0.010
15.547,-0.410,0.000
15.550,-0.410,-0.020
15.553,-0.420,-0.020
15.556,-0.410,-0.015
15.558,-0.400,-0.020
15.561,-0.395,-0.005
15.564,-0.420,-0.010
15.567,-0.420,-0.030
15.569,-0.420,-0.025
15.572,-0.395,-0.025
15.575,-0.400,-0.015
15.578,-0.390,-0.015
15.581,-0.400,-0.030
15.583,-0.410,-0.030
15.586,-0.400,-0.040
15.589,-0.390,-0.045
15.592,-0.380,-0.050
15.594,-0.370,-0.060
15.597,-0.390,-0.050
15.600,-0.405,-0.045
15.603,-0.410,-0.060
15.606,-0.415,-0.065
15.608,-0.395,-0.065
15.611,-0.400,-0.070
15.614,-0.410,-0.065
15.617,-0.395,-0.060
15.619,-0.410,-0.050
15.622,-0.400,-0.060
15.625,-0.405,-0.050
15.628,-0.405,-0.040
15.631,-0.405,-0.040
15.633,-0.405,-0.045
15.636,-0.405,-0.045
15.639,-0.390,-0.020
15.642,-0.365,-0.005
15.644,-0.365,-0.010
15.647,-0.380,-0.015
15.650,-0.370,-0.015
15.653,-0.390,-0.030
15.656,-0.400,-0.005
15.658,-0.370,0.000
15.661,-0.375,0.000
15.664,-0.370,-0.015
15.667,-0.365,-0.025
15.669,-0.370,-0.040
15.672,-0.370,-0.030
15.675,-0.370,-0.035
15.678,-0.340,-0.020
15.681,-0.345,-0.035
15.683,-0.340,-0.040
15.686,-0.335,-0.055
15.689,-0.320,-0.040
15.692,-0.310,-0.030
15.694,-0.305,-0.025
15.697,-0.295,-0.035
15.700,-0.295,-0.055
15.703,-0.290,-0.045
15.706,-0.285,-0.045
15.708,-0.270,-0.055
15.711,-0.255,-0.040
15.714,-0.260,-0.055
15.717,-0.260,-0.080
15.719,-0.260,-0.085
15.722,-0.250,-0.065
15.725,-0.235,-0.055
15.728,-0.225,-0.055
15.731,-0.225,-0.075
15.733,-0.210,-0.085
15.736,-0.195,-0.090
15.739,-0.170,-0.075
15.742,-0.155,-0.075
15.744,-0.150,-0.065
15.747,-0.150,-0.070
15.750,-0.160,-0.085
15.753,-0.155,-0.060
15.756,-0.145,-0.045
15.758,-0.140,-0.025
15.761,-0.125,-0.035
15.764,-0.125,-0.040
15.767,-0.125,-0.065
15.769,-0.125,-0.055
15.772,-0.130,-0.035
15.775,-0.125,-0.025
15.778,-0.110,-0.030
15.781,-0.120,-0.055
15.783,-0.145,-0.065
15.786,-0.160,-0.060
15.789,-0.145,-0.055
15.792,-0.160,-0.040
15.794,-0.165,-0.045
15.797,-0.195,-0.065
15.800,-0.205,-0.070
15.803,-0.220,-0.070
15.806,-0.220,-0.050
15.808,-0.230,-0.040
15.811,-0.225,-0.045
15.814,-0.235,-0.060
15.817,-0.255,-0.065
15.819,-0.270,-0.060
15.822,-0.285,-0.035
15.825,-0.265,-0.035
15.828,-0.285,-0.050
15.831,-0.300,-0.075
15.833,-0.315,-0.100
15.836,-0.310,-0.085
15.839,-0.310,-0.075
15.842,-0.305,-0.055
15.844,-0.310,-0.070
15.847,-0.310,-0.080
15.850,-0.330,-0.085
15.853,-0.345,-0.085
15.856,-0.330,-0.060
15.858,-0.325,-0.055
15.861,-0.330,-0.075
15.864,-0.325,-0.080
15.867,-0.330,-0.085
15.869,-0.325,-0.065
15.872,-0.320,-0.035
15.875,-0.315,-0.030
15.878,-0.310,-0.030
15.881,-0.325,-0.035
15.883,-0.325,-0.045
15.886,-0.330,-0.045
15.889,-0.310,-0.025
15.892,-0.310,0.000
15.894,-0.310,-0.005
15.897,-0.330,-0.020
15.900,-0.330,-0.045
15.903,-0.335,-0.040
15.906,-0.330,-0.030
15.908,-0.315,-0.030
15.911,-0.320,-0.025
15.914,-0.325,-0.040
15.917,-0.335,-0.060
15.919,-0.335,-0.075
15.922,-0.320,-0.055
15.925,-0.315,-0.035
15.928,-0.305,-0.030
15.931,-0.315,-0.040
15.933,-0.320,-0.070
15.936,-0.330,-0.065
15.939,-0.330,-0.055
15.942,-0.310,-0.040
15.944,-0.300,-0.035
15.947,-0.305,-0.060
15.950,-0.320,-0.075
15.953,-0.320,-0.080
15.956,-0.310,-0.070
15.958,-0.290,-0.065
15.961,-0.285,-0.065
15.964,-0.295,-0.080
15.967,-0.315,-0.105
15.969,-0.325,-0.095
15.972,-0.320,-0.080
15.975,-0.305,-0.080
15.978,-0.305,-0.070
15.981,-0.310,-0.090
15.983,-0.320,-0.100
15.986,-0.315,-0.095
15.989,-0.320,-0.085
15.992,-0.300,-0.065
15.994,-0.285,-0.065
15.997,-0.295,-0.045
16.000,-0.310,-0.075
16.003,-0.325,-0.060
16.006,-0.320,-0.045
16.008,-0.305,-0.040
16.011,-0.295,-0.030
16.014,-0.295,-0.030
16.017,-0.305,-0.055
16.019,-0.310,-0.065
16.022,-0.310,-0.050
16.025,-0.305,-0.035
16.028,-0.315,-0.025
16.031,-0.330,-0.035
16.033,-0.330,-0.055
16.036,-0.320,-0.070
16.039,-0.305,-0.050
16.042,-0.310,-0.035
16.044,-0.305,-0.040
16.047,-0.315,-0.055
16.050,-0.340,-0.070
16.053,-0.345,-0.080
16.056,-0.310,-0.065
16.058,-0.310,-0.060
16.061,-0.310,-0.040
16.064,-0.310,-0.045
16.067,-0.320,-0.070
16.069,-0.330,-0.080
16.072,-0.315,-0.065
16.075,-0.315,-0.060
16.078,-0.310,-0.065
16.081,-0.325,-0.080
16.083,-0.320,-0.105
16.086,-0.330,-0.100
16.089,-0.340,-0.080
16.092,-0.330,-0.085
16.094,-0.325,-0.085
16.097,-0.330,-0.095
16.100,-0.335,-0.105
16.103,-0.345,-0.110
16.106,-0.330,-0.090
16.108,-0.325,-0.090
16.111,-0.335,-0.080
16.114,-0.320,-0.085
16.117,-0.345,-0.085
16.119,-0.340,-0.075
16.122,-0.325,-0.075
16.125,-0.305,-0.075
16.128,-0.310,-0.055
16.131,-0.320,-0.065
16.133,-0.335,-0.055
16.136,-0.345,-0.060
16.139,-0.340,-0.050
16.142,-0.335,-0.035
16.144,-0.310,-0.035
16.147,-0.320,-0.035
16.150,-0.335,-0.060
16.153,-0.345,-0.050
16.156,-0.340,-0.045
16.158,-0.320,-0.030
16.161,-0.315,-0.045
16.164,-0.320,-0.055
16.167,-0.320,-0.065
16.169,-0.330,-0.065
16.172,-0.315,-0.060
16.175,-0.310,-0.070
16.178,-0.300,-0.065
16.181,-0.305,-0.080
16.183,-0.305,-0.075
16.186,-0.305,-0.070
16.189,-0.290,-0.060
16.192,-0.270,-0.080
16.194,-0.270,-0.065
16.197,-0.280,-0.065
16.200,-0.275,-0.075
16.203,-0.280,-0.080
16.206,-0.255,-0.080
16.208,-0.245,-0.080
16.211,-0.240,-0.095
16.214,-0.235,-0.100
16.217,-0.200,-0.095
16.219,-0.185,-0.095
16.222,-0.145,-0.085
16.225,-0.110,-0.075
16.228,-0.105,-0.090
16.231,-0.115,-0.090
16.233,-0.140,-0.100
16.236,-0.175,-0.095
16.239,-0.185,-0.090
16.242,-0.175,-0.080
16.244,-0.180,-0.100
16.247,-0.195,-0.095
16.250,-0.215,-0.090
16.253,-0.220,-0.070
16.256,-0.220,-0.065
16.258,-0.215,-0.065
16.261,-0.220,-0.070
16.264,-0.235,-0.075
16.267,-0.250,-0.070
16.269,-0.265,-0.070
16.272,-0.265,-0.050
16.275,-0.265,-0.055
16.278,-0.275,-0.065
16.281,-0.325,-0.070
16.283,-0.355,-0.075
16.286,-0.355,-0.070
16.289,-0.345,-0.070
16.292,-0.320,-0.060
16.294,-0.330,-0.070
16.297,-0.365,-0.100
16.300,-0.385,-0.105
16.303,-0.385,-0.105
16.306,-0.370,-0.075
16.308,-0.365,-0.085
16.311,-0.360,-0.090
16.314,-0.365,-0.115
16.317,-0.370,-0.130
16.319,-0.385,-0.105
16.322,-0.385,-0.090
16.325,-0.395,-0.080
16.328,-0.405,-0.090
16.331,-0.410,-0.115
16.333,-0.400,-0.125
16.336,-0.395,-0.120
16.339,-0.405,-0.115
16.342,-0.395,-0.105
16.344,-0.405,-0.105
16.347,-0.435,-0.135
16.350,-0.440,-0.140
16.353,-0.435,-0.140
16.356,-0.435,-0.110
16.358,-0.425,-0.100
16.361,-0.430,-0.105
16.364,-0.405,-0.100
16.367,-0.285,-0.125
16.369,-0.110,-0.120
16.372,0.075,-0.105
16.375,0.315,-0.095
16.378,0.620,-0.100
16.381,0.865,-0.135
16.383,0.940,-0.200
16.386,0.785,-0.225
16.389,0.540,-0.235
16.392,0.300,-0.215
