'Elapsed time','V5','V2'
'seconds','mV','mV'
0.000,-0.200,0.005
0.003,-0.200,0.005
0.006,-0.200,0.005
0.008,-0.200,0.005
0.011,-0.200,0.005
0.014,-0.200,0.005
0.017,-0.200,0.005
0.019,-0.200,0.005
0.022,-0.190,0.005
0.025,-0.175,0.005
0.028,-0.190,0.005
0.031,-0.205,-0.005
0.033,-0.210,-0.005
0.036,-0.200,0.010
0.039,-0.195,-0.010
0.042,-0.210,-0.010
0.044,-0.230,-0.020
0.047,-0.235,-0.035
0.050,-0.245,-0.025
0.053,-0.235,-0.010
0.056,-0.230,-0.030
0.058,-0.230,-0.040
0.061,-0.245,-0.050
0.064,-0.270,-0.060
0.067,-0.260,-0.045
0.069,-0.240,-0.035
0.072,-0.225,-0.055
0.075,-0.220,-0.065
0.078,-0.225,-0.075
0.081,-0.225,-0.095
0.083,-0.225,-0.085
0.086,-0.225,-0.075
0.089,-0.220,-0.085
0.092,-0.235,-0.090
0.094,-0.260,-0.100
0.097,-0.260,-0.120
0.100,-0.260,-0.105
0.103,-0.260,-0.100
0.106,-0.255,-0.105
0.108,-0.255,-0.125
0.111,-0.260,-0.135
0.114,-0.260,-0.145
0.117,-0.265,-0.130
0.119,-0.250,-0.110
0.122,-0.240,-0.130
0.125,-0.255,-0.140
0.128,-0.265,-0.150
0.131,-0.280,-0.150
0.133,-0.260,-0.155
0.136,-0.255,-0.140
0.139,-0.250,-0.150
0.142,-0.245,-0.150
0.144,-0.250,-0.175
0.147,-0.255,-0.170
0.150,-0.245,-0.155
0.153,-0.240,-0.155
0.156,-0.250,-0.155
0.158,-0.245,-0.170
0.161,-0.265,-0.180
0.164,-0.270,-0.175
0.167,-0.250,-0.165
0.169,-0.250,-0.150
0.172,-0.245,-0.160
0.175,-0.250,-0.160
0.178,-0.255,-0.150
0.181,-0.255,-0.150
0.183,-0.240,-0.140
0.186,-0.245,-0.125
0.189,-0.265,-0.125
0.192,-0.260,-0.130
0.194,-0.270,-0.125
0.197,-0.280,-0.135
0.200,-0.280,-0.125
0.203,-0.265,-0.115
0.206,-0.265,-0.125
0.208,-0.260,-0.135
0.211,-0.265,-0.135
0.214,-0.255,-0.140
0.217,-0.245,-0.135
0.219,-0.230,-0.130
0.222,-0.230,-0.145
0.225,-0.235,-0.155
0.228,-0.230,-0.165
0.231,-0.235,-0.185
0.233,-0.215,-0.195
0.236,-0.190,-0.180
0.239,-0.175,-0.190
0.242,-0.175,-0.200
0.244,-0.195,-0.210
0.247,-0.225,-0.220
0.250,-0.225,-0.205
0.253,-0.225,-0.215
0.256,-0.230,-0.225
0.258,-0.215,-0.235
0.261,-0.225,-0.255
0.264,-0.225,-0.250
0.267,-0.205,-0.245
0.269,-0.165,-0.225
0.272,-0.135,-0.230
0.275,-0.135,-0.220
0.278,-0.145,-0.220
0.281,-0.165,-0.230
0.283,-0.170,-0.210
0.286,-0.170,-0.205
0.289,-0.185,-0.215
0.292,-0.205,-0.195
0.294,-0.225,-0.160
0.297,-0.230,-0.080
0.300,-0.195,0.145
0.303,-0.155,0.530
0.306,-0.120,0.805
0.308,-0.070,0.735
0.311,-0.005,0.485
0.314,0.215,0.285
0.317,0.575,0.240
0.319,0.845,0.220
0.322,0.800,0.155
0.325,0.525,0.100
0.328,0.275,0.035
0.331,0.180,-0.065
0.333,0.195,-0.155
0.336,0.230,-0.270
0.339,0.255,-0.415
0.342,0.280,-0.595
0.344,0.285,-0.765
0.347,0.300,-0.945
0.350,0.320,-1.060
0.353,0.340,-1.155
0.356,0.355,-1.240
0.358,0.345,-1.345
0.361,0.330,-1.455
0.364,0.320,-1.605
0.367,0.340,-1.755
0.369,0.380,-1.930
0.372,0.400,-2.100
0.375,0.410,-2.235
0.378,0.395,-2.360
0.381,0.365,-2.490
0.383,0.335,-2.595
0.386,0.310,-2.700
0.389,0.260,-2.790
0.392,0.195,-2.860
0.394,0.125,-2.930
0.397,0.050,-3.005
0.400,-0.035,-3.045
0.403,-0.130,-3.065
0.406,-0.250,-3.095
0.408,-0.355,-3.130
0.411,-0.420,-3.155
0.414,-0.435,-3.155
0.417,-0.395,-3.145
0.419,-0.380,-3.095
0.422,-0.390,-3.030
0.425,-0.405,-2.955
0.428,-0.440,-2.825
0.431,-0.465,-2.690
0.433,-0.470,-2.525
0.436,-0.460,-2.345
0.439,-0.435,-2.150
0.442,-0.420,-1.940
0.444,-0.405,-1.710
0.447,-0.380,-1.475
0.450,-0.340,-1.240
0.453,-0.310,-0.995
0.456,-0.295,-0.800
0.458,-0.305,-0.610
0.461,-0.310,-0.445
0.464,-0.320,-0.280
0.467,-0.320,-0.085
0.469,-0.310,0.065
0.472,-0.310,0.220
0.475,-0.305,0.350
0.478,-0.290,0.460
0.481,-0.290,0.555
0.483,-0.265,0.635
0.486,-0.260,0.690
0.489,-0.240,0.740
0.492,-0.245,0.775
0.494,-0.240,0.825
0.497,-0.235,0.850
0.500,-0.215,0.905
0.503,-0.200,0.945
0.506,-0.195,0.970
0.508,-0.205,1.005
0.511,-0.215,1.045
0.514,-0.200,1.070
0.517,-0.200,1.125
0.519,-0.190,1.170
0.522,-0.190,1.195
0.525,-0.190,1.235
0.528,-0.185,1.250
0.531,-0.195,1.305
0.533,-0.185,1.355
0.536,-0.175,1.400
0.539,-0.165,1.435
0.542,-0.170,1.465
0.544,-0.170,1.505
0.547,-0.160,1.550
0.550,-0.150,1.605
0.553,-0.140,1.650
0.556,-0.135,1.680
0.558,-0.135,1.710
0.561,-0.150,1.730
0.564,-0.150,1.780
0.567,-0.140,1.830
0.569,-0.130,1.865
0.572,-0.120,1.890
0.575,-0.120,1.900
0.578,-0.115,1.920
0.581,-0.115,1.930
0.583,-0.100,1.950
0.586,-0.090,1.975
0.589,-0.085,1.955
0.592,-0.080,1.960
0.594,-0.090,1.955
0.597,-0.090,1.940
0.600,-0.080,1.945
0.603,-0.060,1.925
0.606,-0.060,1.895
0.608,-0.050,1.855
0.611,-0.045,1.820
0.614,-0.070,1.780
0.617,-0.055,1.760
0.619,-0.055,1.715
0.622,-0.040,1.655
0.625,-0.040,1.605
0.628,-0.045,1.535
0.631,-0.050,1.470
0.633,-0.050,1.430
0.636,-0.050,1.360
0.639,-0.050,1.300
0.642,-0.050,1.235
0.644,-0.050,1.155
0.647,-0.065,1.085
0.650,-0.065,1.030
0.653,-0.065,0.980
0.656,-0.070,0.910
0.658,-0.070,0.835
0.661,-0.090,0.760
0.664,-0.105,0.715
0.667,-0.105,0.655
0.669,-0.105,0.615
0.672,-0.110,0.555
0.675,-0.110,0.495
0.678,-0.140,0.445
0.681,-0.150,0.400
0.683,-0.150,0.365
0.686,-0.155,0.325
0.689,-0.150,0.275
0.692,-0.155,0.235
0.694,-0.185,0.185
0.697,-0.185,0.160
0.700,-0.180,0.150
0.703,-0.185,0.135
0.706,-0.175,0.100
0.708,-0.190,0.075
0.711,-0.205,0.045
0.714,-0.225,0.020
0.717,-0.220,0.030
0.719,-0.205,0.020
0.722,-0.200,0.000
0.725,-0.215,-0.015
0.728,-0.225,-0.020
0.731,-0.225,-0.035
0.733,-0.230,-0.035
0.736,-0.230,-0.040
0.739,-0.225,-0.050
0.742,-0.225,-0.070
0.744,-0.230,-0.070
0.747,-0.240,-0.065
0.750,-0.245,-0.070
0.753,-0.230,-0.055
0.756,-0.235,-0.070
0.758,-0.230,-0.075
0.761,-0.245,-0.080
0.764,-0.250,-0.085
0.767,-0.230,-0.070
0.769,-0.235,-0.065
0.772,-0.230,-0.070
0.775,-0.235,-0.070
0.778,-0.250,-0.080
0.781,-0.245,-0.085
0.783,-0.245,-0.075
0.786,-0.235,-0.055
0.789,-0.240,-0.060
0.792,-0.230,-0.060
0.794,-0.235,-0.065
0.797,-0.245,-0.070
0.800,-0.235,-0.060
0.803,-0.230,-0.040
0.806,-0.225,-0.035
0.808,-0.220,-0.040
0.811,-0.220,-0.040
0.814,-0.235,-0.040
0.817,-0.230,-0.040
0.819,-0.220,-0.020
0.822,-0.205,-0.020
0.825,-0.225,-0.040
0.828,-0.230,-0.030
0.831,-0.230,-0.035
0.833,-0.230,-0.015
0.836,-0.215,-0.020
0.839,-0.215,-0.020
0.842,-0.220,-0.030
0.844,-0.235,-0.025
0.847,-0.240,-0.030
0.850,-0.235,-0.035
0.853,-0.230,-0.015
0.856,-0.225,-0.020
0.858,-0.230,-0.035
0.861,-0.250,-0.045
0.864,-0.255,-0.045
0.867,-0.245,-0.035
0.869,-0.240,-0.040
0.872,-0.240,-0.045
0.875,-0.240,-0.045
0.878,-0.255,-0.060
0.881,-0.255,-0.080
0.883,-0.260,-0.065
0.886,-0.245,-0.060
0.889,-0.245,-0.065
0.892,-0.250,-0.090
0.894,-0.265,-0.095
0.897,-0.275,-0.100
0.900,-0.270,-0.095
0.903,-0.250,-0.100
0.906,-0.255,-0.105
0.908,-0.270,-0.115
0.911,-0.275,-0.135
0.914,-0.285,-0.140
0.917,-0.285,-0.135
0.919,-0.265,-0.120
0.922,-0.275,-0.135
0.925,-0.275,-0.145
0.928,-0.280,-0.155
0.931,-0.290,-0.150
0.933,-0.275,-0.150
0.936,-0.275,-0.150
0.939,-0.265,-0.155
0.942,-0.275,-0.160
0.944,-0.290,-0.170
0.947,-0.305,-0.180
0.950,-0.300,-0.170
0.953,-0.290,-0.165
0.956,-0.285,-0.180
0.958,-0.285,-0.185
0.961,-0.295,-0.190
0.964,-0.305,-0.185
0.967,-0.290,-0.185
0.969,-0.295,-0.185
0.972,-0.275,-0.195
0.975,-0.275,-0.190
0.978,-0.305,-0.205
0.981,-0.295,-0.210
0.983,-0.300,-0.205
0.986,-0.285,-0.200
0.989,-0.280,-0.210
0.992,-0.290,-0.215
0.994,-0.305,-0.220
0.997,-0.300,-0.225
1.000,-0.305,-0.215
1.003,-0.290,-0.205
1.006,-0.295,-0.220
1.008,-0.290,-0.215
1.011,-0.305,-0.235
1.014,-0.310,-0.230
1.017,-0.310,-0.220
1.019,-0.290,-0.215
1.022,-0.290,-0.215
1.025,-0.300,-0.220
1.028,-0.295,-0.225
1.031,-0.305,-0.225
1.033,-0.300,-0.220
1.036,-0.295,-0.215
1.039,-0.290,-0.220
1.042,-0.290,-0.215
1.044,-0.295,-0.245
1.047,-0.300,-0.235
1.050,-0.285,-0.230
1.053,-0.280,-0.215
1.056,-0.285,-0.230
1.058,-0.275,-0.230
1.061,-0.305,-0.245
1.064,-0.295,-0.235
1.067,-0.290,-0.230
1.069,-0.285,-0.210
1.072,-0.280,-0.215
1.075,-0.285,-0.230
1.078,-0.300,-0.230
1.081,-0.305,-0.240
1.083,-0.305,-0.220
1.086,-0.290,-0.205
1.089,-0.290,-0.205
1.092,-0.280,-0.215
1.094,-0.285,-0.210
1.097,-0.285,-0.205
1.100,-0.275,-0.170
1.103,-0.270,-0.140
1.106,-0.260,-0.135
1.108,-0.260,-0.150
1.111,-0.255,-0.130
1.114,-0.255,-0.065
1.117,-0.230,0.125
1.119,-0.190,0.490
1.122,-0.155,0.790
1.125,-0.100,0.745
1.128,0.010,0.495
1.131,0.240,0.320
1.133,0.630,0.245
1.136,0.915,0.210
1.139,0.885,0.140
1.142,0.595,0.075
1.144,0.320,-0.010
1.147,0.200,-0.110
1.150,0.190,-0.210
1.153,0.210,-0.350
1.156,0.205,-0.515
1.158,0.210,-0.695
1.161,0.195,-0.885
1.164,0.190,-1.105
1.167,0.200,-1.270
1.169,0.225,-1.405
1.172,0.230,-1.530
1.175,0.220,-1.660
1.178,0.205,-1.815
1.181,0.185,-2.015
1.183,0.195,-2.225
1.186,0.180,-2.420
1.189,0.175,-2.570
1.192,0.155,-2.710
1.194,0.115,-2.830
1.197,0.070,-2.935
1.200,0.045,-3.025
1.203,0.000,-3.085
1.206,-0.040,-3.125
1.208,-0.105,-3.170
1.211,-0.155,-3.205
1.214,-0.215,-3.220
1.217,-0.280,-3.240
1.219,-0.350,-3.220
1.222,-0.405,-3.230
1.225,-0.450,-3.245
1.228,-0.440,-3.240
1.231,-0.390,-3.210
1.233,-0.330,-3.170
1.236,-0.285,-3.095
1.239,-0.280,-2.990
1.242,-0.305,-2.875
1.244,-0.325,-2.755
1.247,-0.365,-2.590
1.250,-0.360,-2.390
1.253,-0.350,-2.175
1.256,-0.335,-1.940
1.258,-0.310,-1.720
1.261,-0.290,-1.480
1.264,-0.290,-1.200
1.267,-0.290,-0.960
1.269,-0.310,-0.745
1.272,-0.320,-0.540
1.275,-0.335,-0.340
1.278,-0.340,-0.140
1.281,-0.345,0.030
1.283,-0.355,0.190
1.286,-0.335,0.355
1.289,-0.335,0.460
1.292,-0.335,0.550
1.294,-0.340,0.635
1.297,-0.345,0.675
1.300,-0.330,0.745
1.303,-0.320,0.795
1.306,-0.305,0.840
1.308,-0.300,0.885
1.311,-0.300,0.920
1.314,-0.300,0.960
1.317,-0.290,1.010
1.319,-0.285,1.050
1.322,-0.285,1.085
1.325,-0.280,1.110
1.328,-0.290,1.140
1.331,-0.280,1.185
1.333,-0.285,1.230
1.336,-0.265,1.275
1.339,-0.265,1.300
1.342,-0.270,1.320
1.344,-0.265,1.350
1.347,-0.270,1.400
1.350,-0.265,1.435
1.353,-0.250,1.490
1.356,-0.245,1.515
1.358,-0.245,1.550
1.361,-0.245,1.570
1.364,-0.250,1.625
1.367,-0.250,1.665
1.369,-0.225,1.700
1.372,-0.225,1.735
1.375,-0.230,1.760
1.378,-0.235,1.785
1.381,-0.245,1.830
1.383,-0.215,1.860
1.386,-0.210,1.900
1.389,-0.195,1.920
1.392,-0.200,1.925
1.394,-0.200,1.935
1.397,-0.205,1.960
1.400,-0.195,1.965
1.403,-0.170,1.985
1.406,-0.160,1.980
1.408,-0.165,1.960
1.411,-0.160,1.935
1.414,-0.165,1.925
1.417,-0.145,1.915
1.419,-0.135,1.895
1.422,-0.135,1.860
1.425,-0.135,1.810
1.428,-0.130,1.760
1.431,-0.135,1.725
1.433,-0.125,1.675
1.436,-0.120,1.630
1.439,-0.110,1.555
1.442,-0.125,1.490
1.444,-0.125,1.420
1.447,-0.135,1.350
1.450,-0.130,1.300
1.453,-0.125,1.235
1.456,-0.120,1.160
1.458,-0.125,1.065
1.461,-0.130,1.000
1.464,-0.140,0.930
1.467,-0.135,0.875
1.469,-0.135,0.830
1.472,-0.130,0.760
1.475,-0.135,0.690
1.478,-0.150,0.635
1.481,-0.160,0.575
1.483,-0.160,0.540
1.486,-0.145,0.495
1.489,-0.150,0.445
1.492,-0.155,0.400
1.494,-0.175,0.340
1.497,-0.190,0.295
1.500,-0.185,0.280
1.503,-0.185,0.245
1.506,-0.185,0.205
1.508,-0.190,0.170
1.511,-0.205,0.140
1.514,-0.205,0.115
1.517,-0.205,0.110
1.519,-0.200,0.095
1.522,-0.205,0.065
1.525,-0.210,0.045
1.528,-0.230,0.030
1.531,-0.220,0.025
1.533,-0.225,0.015
1.536,-0.215,0.020
1.539,-0.220,0.005
1.542,-0.220,-0.020
1.544,-0.230,-0.035
1.547,-0.225,-0.035
1.550,-0.220,-0.040
1.553,-0.225,-0.020
1.556,-0.230,-0.040
1.558,-0.230,-0.045
1.561,-0.235,-0.050
1.564,-0.240,-0.055
1.567,-0.225,-0.045
1.569,-0.225,-0.025
1.572,-0.225,-0.035
1.575,-0.220,-0.040
1.578,-0.225,-0.050
1.581,-0.235,-0.055
1.583,-0.225,-0.035
1.586,-0.220,-0.030
1.589,-0.210,-0.025
1.592,-0.215,-0.035
1.594,-0.230,-0.035
1.597,-0.235,-0.035
1.600,-0.225,-0.030
1.603,-0.210,-0.015
1.606,-0.210,-0.020
1.608,-0.220,-0.015
1.611,-0.220,-0.030
1.614,-0.230,-0.025
1.617,-0.225,-0.005
1.619,-0.215,0.005
1.622,-0.220,0.000
1.625,-0.215,-0.010
1.628,-0.230,-0.015
1.631,-0.230,-0.030
1.633,-0.220,-0.025
1.636,-0.210,-0.005
1.639,-0.215,0.005
1.642,-0.215,-0.020
1.644,-0.225,-0.035
1.647,-0.225,-0.035
1.650,-0.225,-0.030
1.653,-0.215,-0.025
1.656,-0.220,-0.030
1.658,-0.235,-0.040
1.661,-0.240,-0.055
1.664,-0.235,-0.060
1.667,-0.240,-0.050
1.669,-0.230,-0.045
1.672,-0.225,-0.050
1.675,-0.230,-0.070
1.678,-0.240,-0.085
1.681,-0.245,-0.085
1.683,-0.245,-0.085
1.686,-0.240,-0.075
1.689,-0.230,-0.095
1.692,-0.240,-0.110
1.694,-0.245,-0.125
1.697,-0.250,-0.115
1.700,-0.250,-0.115
1.703,-0.245,-0.115
1.706,-0.240,-0.130
1.708,-0.240,-0.145
1.711,-0.255,-0.150
1.714,-0.270,-0.145
1.717,-0.255,-0.150
1.719,-0.255,-0.135
1.722,-0.245,-0.155
1.725,-0.255,-0.165
1.728,-0.260,-0.175
1.731,-0.270,-0.180
1.733,-0.265,-0.175
1.736,-0.265,-0.165
1.739,-0.265,-0.170
1.742,-0.255,-0.190
1.744,-0.265,-0.185
1.747,-0.270,-0.195
1.750,-0.275,-0.190
1.753,-0.260,-0.185
1.756,-0.260,-0.180
1.758,-0.265,-0.200
1.761,-0.270,-0.215
1.764,-0.270,-0.215
1.767,-0.275,-0.205
1.769,-0.260,-0.210
1.772,-0.255,-0.215
1.775,-0.265,-0.215
1.778,-0.280,-0.230
1.781,-0.290,-0.215
1.783,-0.285,-0.215
1.786,-0.270,-0.210
1.789,-0.265,-0.205
1.792,-0.270,-0.220
1.794,-0.280,-0.230
1.797,-0.290,-0.235
1.800,-0.290,-0.215
1.803,-0.275,-0.215
1.806,-0.265,-0.225
1.808,-0.270,-0.230
1.811,-0.290,-0.235
1.814,-0.280,-0.235
1.817,-0.275,-0.235
1.819,-0.260,-0.230
1.822,-0.260,-0.220
1.825,-0.270,-0.240
1.828,-0.285,-0.240
1.831,-0.285,-0.245
1.833,-0.270,-0.245
1.836,-0.265,-0.230
1.839,-0.270,-0.230
1.842,-0.265,-0.240
1.844,-0.285,-0.250
1.847,-0.285,-0.245
1.850,-0.280,-0.235
1.853,-0.265,-0.225
1.856,-0.265,-0.235
1.858,-0.270,-0.245
1.861,-0.270,-0.260
1.864,-0.270,-0.260
1.867,-0.265,-0.235
1.869,-0.265,-0.240
1.872,-0.265,-0.240
1.875,-0.270,-0.255
1.878,-0.270,-0.255
1.881,-0.280,-0.245
1.883,-0.280,-0.245
1.886,-0.260,-0.230
1.889,-0.255,-0.230
1.892,-0.255,-0.235
1.894,-0.260,-0.255
1.897,-0.265,-0.235
1.900,-0.255,-0.225
1.903,-0.245,-0.205
1.906,-0.235,-0.205
1.908,-0.240,-0.185
1.911,-0.230,-0.125
1.914,-0.235,0.065
1.917,-0.195,0.445
1.919,-0.150,0.835
1.922,-0.120,0.890
1.925,-0.035,0.635
1.928,0.170,0.350
1.931,0.515,0.220
1.933,0.870,0.175
1.936,0.870,0.120
1.939,0.570,0.035
1.942,0.275,-0.050
1.944,0.155,-0.160
1.947,0.150,-0.300
1.950,0.175,-0.435
1.953,0.180,-0.610
1.956,0.175,-0.790
1.958,0.160,-1.015
1.961,0.160,-1.225
1.964,0.160,-1.380
1.967,0.170,-1.520
1.969,0.165,-1.625
1.972,0.155,-1.785
1.975,0.135,-1.980
1.978,0.115,-2.200
1.981,0.115,-2.400
1.983,0.120,-2.560
1.986,0.110,-2.670
1.989,0.090,-2.770
1.992,0.040,-2.885
1.994,0.000,-3.005
1.997,-0.060,-3.090
2.000,-0.110,-3.115
2.003,-0.160,-3.150
2.006,-0.205,-3.185
2.008,-0.270,-3.215
2.011,-0.335,-3.245
2.014,-0.425,-3.250
2.017,-0.505,-3.240
2.019,-0.530,-3.245
2.022,-0.520,-3.255
2.025,-0.480,-3.250
2.028,-0.445,-3.245
2.031,-0.405,-3.220
2.033,-0.375,-3.160
2.036,-0.345,-3.080
2.039,-0.335,-2.985
2.042,-0.340,-2.870
2.044,-0.330,-2.740
2.047,-0.320,-2.545
2.050,-0.295,-2.350
2.053,-0.270,-2.090
2.056,-0.255,-1.815
2.058,-0.225,-1.540
2.061,-0.220,-1.275
2.064,-0.225,-1.000
2.067,-0.255,-0.765
2.069,-0.270,-0.530
2.072,-0.290,-0.315
2.075,-0.305,-0.125
2.078,-0.310,0.055
2.081,-0.325,0.250
2.083,-0.320,0.400
2.086,-0.310,0.525
2.089,-0.290,0.610
2.092,-0.295,0.655
2.094,-0.305,0.700
2.097,-0.315,0.750
2.100,-0.305,0.800
2.103,-0.305,0.840
2.106,-0.300,0.880
2.108,-0.300,0.905
2.111,-0.305,0.920
2.114,-0.315,0.960
2.117,-0.305,0.995
2.119,-0.295,1.030
2.122,-0.295,1.045
2.125,-0.310,1.080
2.128,-0.315,1.090
2.131,-0.315,1.135
2.133,-0.320,1.170
2.136,-0.305,1.195
2.139,-0.300,1.215
2.142,-0.315,1.265
2.144,-0.310,1.270
2.147,-0.315,1.325
2.150,-0.305,1.355
2.153,-0.295,1.400
2.156,-0.290,1.430
2.158,-0.300,1.460
2.161,-0.300,1.485
2.164,-0.295,1.525
2.167,-0.295,1.570
2.169,-0.275,1.620
2.172,-0.260,1.640
2.175,-0.280,1.670
2.178,-0.280,1.700
2.181,-0.270,1.740
2.183,-0.260,1.775
2.186,-0.255,1.825
2.189,-0.245,1.855
2.192,-0.240,1.875
2.194,-0.245,1.880
2.197,-0.245,1.910
2.200,-0.235,1.940
2.203,-0.205,1.955
2.206,-0.210,1.970
2.208,-0.200,1.955
2.211,-0.210,1.960
2.214,-0.205,1.955
2.217,-0.180,1.970
2.219,-0.165,1.945
2.222,-0.155,1.935
2.225,-0.155,1.905
2.228,-0.155,1.860
2.231,-0.155,1.830
2.233,-0.140,1.800
2.236,-0.135,1.775
2.239,-0.115,1.720
2.242,-0.125,1.650
2.244,-0.125,1.590
2.247,-0.135,1.525
2.250,-0.120,1.470
2.253,-0.125,1.420
2.256,-0.110,1.340
2.258,-0.115,1.250
2.261,-0.130,1.185
2.264,-0.135,1.120
2.267,-0.130,1.050
2.269,-0.115,0.990
2.272,-0.125,0.915
2.275,-0.115,0.840
2.278,-0.120,0.770
2.281,-0.140,0.705
2.283,-0.125,0.660
2.286,-0.130,0.610
2.289,-0.125,0.550
2.292,-0.135,0.490
2.294,-0.145,0.440
2.297,-0.150,0.385
2.300,-0.150,0.355
2.303,-0.145,0.325
2.306,-0.150,0.280
2.308,-0.175,0.245
2.311,-0.180,0.200
2.314,-0.200,0.185
2.317,-0.190,0.155
2.319,-0.190,0.145
2.322,-0.185,0.130
2.325,-0.200,0.110
2.328,-0.210,0.080
2.331,-0.220,0.065
2.333,-0.210,0.065
2.336,-0.210,0.055
2.339,-0.225,0.050
2.342,-0.225,0.025
2.344,-0.230,0.010
2.347,-0.235,-0.005
2.350,-0.225,0.005
2.353,-0.225,0.010
2.356,-0.220,0.005
2.358,-0.225,0.005
2.361,-0.245,-0.005
2.364,-0.250,0.000
2.367,-0.240,0.000
2.369,-0.235,0.005
2.372,-0.230,0.000
2.375,-0.225,-0.005
2.378,-0.240,-0.020
2.381,-0.240,-0.010
2.383,-0.235,-0.005
2.386,-0.240,0.000
2.389,-0.235,0.005
2.392,-0.245,-0.010
2.394,-0.255,-0.010
2.397,-0.260,-0.010
2.400,-0.255,0.000
2.403,-0.245,0.000
2.406,-0.255,-0.005
2.408,-0.255,-0.015
2.411,-0.255,-0.010
2.414,-0.260,-0.015
2.417,-0.255,-0.015
2.419,-0.240,-0.005
2.422,-0.240,-0.010
2.425,-0.245,-0.020
2.428,-0.265,-0.025
2.431,-0.285,-0.040
2.433,-0.280,-0.025
2.436,-0.275,-0.015
2.439,-0.255,-0.020
2.442,-0.245,-0.050
2.444,-0.250,-0.065
2.447,-0.265,-0.060
2.450,-0.250,-0.060
2.453,-0.250,-0.055
2.456,-0.250,-0.055
2.458,-0.255,-0.075
2.461,-0.275,-0.100
2.464,-0.290,-0.100
2.467,-0.285,-0.085
2.469,-0.290,-0.090
2.472,-0.270,-0.105
2.475,-0.275,-0.110
2.478,-0.280,-0.120
2.481,-0.285,-0.125
2.483,-0.285,-0.115
2.486,-0.290,-0.125
2.489,-0.285,-0.120
2.492,-0.300,-0.125
2.494,-0.295,-0.140
2.497,-0.300,-0.160
2.500,-0.290,-0.145
2.503,-0.290,-0.160
2.506,-0.275,-0.155
2.508,-0.285,-0.175
2.511,-0.310,-0.180
2.514,-0.305,-0.180
2.517,-0.310,-0.175
2.519,-0.305,-0.165
2.522,-0.300,-0.180
2.525,-0.305,-0.185
2.528,-0.305,-0.205
2.531,-0.315,-0.205
2.533,-0.300,-0.190
2.536,-0.295,-0.195
2.539,-0.295,-0.200
2.542,-0.295,-0.210
2.544,-0.310,-0.220
2.547,-0.330,-0.205
2.550,-0.305,-0.205
2.553,-0.300,-0.200
2.556,-0.290,-0.215
2.558,-0.290,-0.215
2.561,-0.300,-0.230
2.564,-0.310,-0.230
2.567,-0.305,-0.220
2.569,-0.300,-0.215
2.572,-0.295,-0.215
2.575,-0.300,-0.235
2.578,-0.305,-0.250
2.581,-0.315,-0.245
2.583,-0.300,-0.235
2.586,-0.305,-0.235
2.589,-0.300,-0.230
2.592,-0.290,-0.240
2.594,-0.305,-0.255
2.597,-0.315,-0.245
2.600,-0.305,-0.245
2.603,-0.305,-0.240
2.606,-0.295,-0.250
2.608,-0.295,-0.250
2.611,-0.305,-0.265
2.614,-0.305,-0.255
2.617,-0.295,-0.240
2.619,-0.305,-0.240
2.622,-0.295,-0.255
2.625,-0.295,-0.255
2.628,-0.315,-0.275
2.631,-0.310,-0.260
2.633,-0.315,-0.250
2.636,-0.300,-0.240
2.639,-0.295,-0.240
2.642,-0.305,-0.255
2.644,-0.310,-0.275
2.647,-0.320,-0.265
2.650,-0.310,-0.255
2.653,-0.300,-0.260
2.656,-0.285,-0.250
2.658,-0.280,-0.255
2.661,-0.285,-0.270
2.664,-0.290,-0.270
2.667,-0.290,-0.250
2.669,-0.270,-0.240
2.672,-0.270,-0.255
2.675,-0.280,-0.260
2.678,-0.295,-0.265
2.681,-0.305,-0.260
2.683,-0.290,-0.250
2.686,-0.290,-0.240
2.689,-0.285,-0.250
2.692,-0.285,-0.255
2.694,-0.285,-0.270
2.697,-0.295,-0.265
2.700,-0.295,-0.250
2.703,-0.280,-0.235
2.706,-0.270,-0.235
2.708,-0.270,-0.255
2.711,-0.275,-0.255
2.714,-0.270,-0.250
2.717,-0.250,-0.235
2.719,-0.240,-0.185
2.722,-0.230,-0.130
2.725,-0.225,0.075
2.728,-0.200,0.440
2.731,-0.170,0.720
2.733,-0.095,0.665
2.736,0.055,0.410
2.739,0.350,0.235
2.742,0.715,0.160
2.744,0.880,0.095
2.747,0.700,0.045
2.750,0.390,-0.025
2.753,0.205,-0.105
2.756,0.150,-0.235
2.758,0.150,-0.375
2.761,0.145,-0.530
2.764,0.125,-0.705
2.767,0.110,-0.900
2.769,0.125,-1.095
2.772,0.135,-1.290
2.775,0.140,-1.600
2.778,0.120,-1.730
2.781,0.110,-1.865
2.783,0.090,-2.015
2.786,0.090,-2.205
2.789,0.090,-2.430
2.792,0.080,-2.590
2.794,0.060,-2.705
2.797,0.045,-2.790
2.800,0.035,-2.875
2.803,-0.010,-2.980
2.806,-0.045,-3.070
2.808,-0.100,-3.145
2.811,-0.170,-3.170
2.814,-0.220,-3.195
2.817,-0.265,-3.205
2.819,-0.310,-3.240
2.822,-0.375,-3.255
2.825,-0.460,-3.280
2.828,-0.550,-3.275
2.831,-0.600,-3.250
2.833,-0.600,-3.260
2.836,-0.590,-3.245
2.839,-0.570,-3.235
2.842,-0.525,-3.235
2.844,-0.500,-3.195
2.847,-0.485,-3.120
2.850,-0.480,-3.025
2.853,-0.485,-2.900
2.856,-0.490,-2.770
2.858,-0.480,-2.610
2.861,-0.485,-2.405
2.864,-0.450,-2.175
2.867,-0.420,-1.925
2.869,-0.375,-1.685
2.872,-0.335,-1.440
2.875,-0.320,-1.185
2.878,-0.315,-0.935
2.881,-0.320,-0.710
2.883,-0.320,-0.495
2.886,-0.305,-0.300
2.889,-0.295,-0.145
2.892,-0.300,0.005
2.894,-0.295,0.175
2.897,-0.280,0.320
2.900,-0.270,0.455
2.903,-0.255,0.535
2.906,-0.250,0.590
2.908,-0.230,0.635
2.911,-0.225,0.695
2.914,-0.220,0.735
2.917,-0.210,0.770
2.919,-0.215,0.790
2.922,-0.225,0.815
2.925,-0.235,0.830
2.928,-0.245,0.870
2.931,-0.225,0.895
2.933,-0.210,0.925
2.936,-0.210,0.960
2.939,-0.195,0.975
2.942,-0.200,1.010
2.944,-0.215,1.045
2.947,-0.215,1.085
2.950,-0.220,1.115
2.953,-0.225,1.135
2.956,-0.230,1.150
2.958,-0.230,1.155
2.961,-0.250,1.190
2.964,-0.245,1.230
2.967,-0.250,1.255
2.969,-0.240,1.290
2.972,-0.235,1.310
2.975,-0.235,1.330
2.978,-0.245,1.360
2.981,-0.240,1.405
2.983,-0.245,1.435
2.986,-0.255,1.480
2.989,-0.260,1.490
2.992,-0.275,1.500
2.994,-0.275,1.540
2.997,-0.260,1.580
3.000,-0.255,1.625
3.003,-0.255,1.635
3.006,-0.260,1.645
3.008,-0.265,1.665
3.011,-0.265,1.705
3.014,-0.250,1.750
3.017,-0.240,1.775
3.019,-0.235,1.785
3.022,-0.225,1.800
3.025,-0.230,1.810
3.028,-0.230,1.825
3.031,-0.215,1.850
3.033,-0.210,1.865
3.036,-0.220,1.875
3.039,-0.210,1.870
3.042,-0.215,1.850
3.044,-0.210,1.860
3.047,-0.195,1.860
3.050,-0.175,1.865
3.053,-0.150,1.860
3.056,-0.145,1.830
3.058,-0.155,1.795
3.061,-0.160,1.770
3.064,-0.165,1.765
3.067,-0.145,1.735
3.069,-0.140,1.695
3.072,-0.130,1.645
3.075,-0.125,1.590
3.078,-0.105,1.540
3.081,-0.100,1.495
3.083,-0.085,1.455
3.086,-0.075,1.385
3.089,-0.080,1.325
3.092,-0.105,1.245
3.094,-0.100,1.205
3.097,-0.095,1.145
3.100,-0.095,1.095
3.103,-0.085,1.040
3.106,-0.090,0.960
3.108,-0.100,0.885
3.111,-0.115,0.845
3.114,-0.100,0.790
3.117,-0.090,0.750
3.119,-0.090,0.690
3.122,-0.095,0.615
3.125,-0.115,0.555
3.128,-0.125,0.505
3.131,-0.120,0.465
3.133,-0.110,0.425
3.136,-0.115,0.385
3.139,-0.120,0.335
3.142,-0.120,0.290
3.144,-0.140,0.255
3.147,-0.140,0.240
3.150,-0.135,0.215
3.153,-0.140,0.190
3.156,-0.160,0.155
3.158,-0.170,0.110
3.161,-0.180,0.100
3.164,-0.175,0.090
3.167,-0.175,0.080
3.169,-0.165,0.065
3.172,-0.180,0.030
3.175,-0.190,0.015
3.178,-0.200,0.000
3.181,-0.200,-0.005
3.183,-0.185,-0.005
3.186,-0.195,-0.010
3.189,-0.180,-0.030
3.192,-0.205,-0.040
3.194,-0.215,-0.030
3.197,-0.215,-0.035
3.200,-0.210,-0.030
3.203,-0.210,-0.040
3.206,-0.220,-0.050
3.208,-0.230,-0.060
3.211,-0.235,-0.050
3.214,-0.230,-0.040
3.217,-0.220,-0.035
3.219,-0.220,-0.045
3.222,-0.225,-0.045
3.225,-0.230,-0.055
3.228,-0.235,-0.050
3.231,-0.230,-0.050
3.233,-0.225,-0.035
3.236,-0.225,-0.035
3.239,-0.235,-0.050
3.242,-0.240,-0.040
3.244,-0.255,-0.050
3.247,-0.240,-0.045
3.250,-0.230,-0.040
3.253,-0.230,-0.030
3.256,-0.235,-0.065
3.258,-0.255,-0.060
3.261,-0.260,-0.050
3.264,-0.250,-0.040
3.267,-0.245,-0.040
3.269,-0.245,-0.040
3.272,-0.245,-0.055
3.275,-0.250,-0.070
3.278,-0.260,-0.055
3.281,-0.260,-0.055
3.283,-0.240,-0.045
3.286,-0.250,-0.045
3.289,-0.260,-0.065
3.292,-0.250,-0.080
3.294,-0.260,-0.085
3.297,-0.255,-0.070
3.300,-0.245,-0.065
3.303,-0.245,-0.080
3.306,-0.260,-0.090
3.308,-0.260,-0.105
3.311,-0.255,-0.105
3.314,-0.260,-0.095
3.317,-0.260,-0.095
3.319,-0.255,-0.105
3.322,-0.265,-0.115
3.325,-0.275,-0.130
3.328,-0.280,-0.140
3.331,-0.270,-0.125
3.333,-0.265,-0.135
3.336,-0.260,-0.135
3.339,-0.275,-0.145
3.342,-0.275,-0.160
3.344,-0.285,-0.160
3.347,-0.280,-0.155
3.350,-0.270,-0.160
3.353,-0.275,-0.170
3.356,-0.275,-0.165
3.358,-0.290,-0.180
3.361,-0.300,-0.190
3.364,-0.285,-0.195
3.367,-0.280,-0.175
3.369,-0.280,-0.175
3.372,-0.290,-0.205
3.375,-0.290,-0.205
3.378,-0.300,-0.215
3.381,-0.300,-0.210
3.383,-0.275,-0.200
3.386,-0.285,-0.200
3.389,-0.285,-0.220
3.392,-0.295,-0.225
3.394,-0.305,-0.230
3.397,-0.300,-0.210
3.400,-0.290,-0.205
3.403,-0.285,-0.210
3.406,-0.285,-0.240
3.408,-0.305,-0.250
3.411,-0.305,-0.240
3.414,-0.300,-0.230
3.417,-0.290,-0.230
3.419,-0.300,-0.230
3.422,-0.295,-0.250
3.425,-0.315,-0.255
3.428,-0.315,-0.245
3.431,-0.310,-0.245
3.433,-0.300,-0.245
3.436,-0.300,-0.240
3.439,-0.305,-0.265
3.442,-0.305,-0.260
3.444,-0.320,-0.255
3.447,-0.300,-0.250
3.450,-0.295,-0.245
3.453,-0.295,-0.245
3.456,-0.300,-0.255
3.458,-0.315,-0.270
3.461,-0.320,-0.270
3.464,-0.310,-0.275
3.467,-0.305,-0.250
3.469,-0.290,-0.255
3.472,-0.300,-0.260
3.475,-0.310,-0.280
3.478,-0.315,-0.275
3.481,-0.305,-0.260
3.483,-0.300,-0.265
3.486,-0.300,-0.260
3.489,-0.295,-0.270
3.492,-0.315,-0.280
3.494,-0.315,-0.275
3.497,-0.315,-0.270
3.500,-0.300,-0.265
3.503,-0.295,-0.270
3.506,-0.305,-0.285
3.508,-0.315,-0.290
3.511,-0.315,-0.280
3.514,-0.305,-0.270
3.517,-0.295,-0.265
3.519,-0.300,-0.265
3.522,-0.295,-0.285
3.525,-0.320,-0.280
3.528,-0.320,-0.285
3.531,-0.290,-0.265
3.533,-0.300,-0.265
3.536,-0.295,-0.265
3.539,-0.300,-0.265
3.542,-0.295,-0.285
3.544,-0.300,-0.275
3.547,-0.300,-0.265
3.550,-0.300,-0.255
3.553,-0.300,-0.270
3.556,-0.290,-0.280
3.558,-0.305,-0.290
3.561,-0.300,-0.265
3.564,-0.310,-0.270
3.567,-0.300,-0.265
3.569,-0.285,-0.260
3.572,-0.295,-0.275
3.575,-0.305,-0.280
3.578,-0.310,-0.270
3.581,-0.290,-0.265
3.583,-0.275,-0.255
3.586,-0.270,-0.265
3.589,-0.270,-0.260
3.592,-0.285,-0.260
3.594,-0.280,-0.215
3.597,-0.265,-0.165
3.600,-0.250,-0.020
3.603,-0.230,0.250
3.606,-0.205,0.630
3.608,-0.170,0.850
3.611,-0.130,0.755
3.614,-0.015,0.510
3.617,0.215,0.330
3.619,0.580,0.240
3.622,0.845,0.170
3.625,0.815,0.125
3.628,0.540,0.060
3.631,0.270,0.015
3.633,0.155,-0.055
3.636,0.135,-0.160
3.639,0.140,-0.295
3.642,0.135,-0.430
3.644,0.140,-0.575
3.647,0.140,-0.740
3.650,0.150,-0.905
3.653,0.165,-1.095
3.656,0.160,-1.255
3.658,0.160,-1.415
3.661,0.170,-1.550
3.664,0.170,-1.670
3.667,0.160,-1.805
3.669,0.145,-1.970
3.672,0.125,-2.165
3.675,0.125,-2.385
3.678,0.100,-2.560
3.681,0.100,-2.660
3.683,0.080,-2.755
3.686,0.050,-2.845
3.689,0.020,-2.960
3.692,-0.030,-3.050
3.694,-0.080,-3.125
3.697,-0.130,-3.150
3.700,-0.160,-3.180
3.703,-0.220,-3.210
3.706,-0.280,-3.240
3.708,-0.340,-3.270
3.711,-0.410,-3.265
3.714,-0.480,-3.260
3.717,-0.530,-3.255
3.719,-0.565,-3.265
3.722,-0.555,-3.270
3.725,-0.525,-3.270
3.728,-0.490,-3.245
3.731,-0.465,-3.210
3.733,-0.445,-3.155
3.736,-0.450,-3.085
3.739,-0.445,-3.005
3.742,-0.445,-2.920
3.744,-0.450,-2.780
3.747,-0.430,-2.615
3.750,-0.410,-2.465
3.753,-0.400,-2.285
3.756,-0.385,-2.110
3.758,-0.370,-1.905
3.761,-0.340,-1.670
3.764,-0.305,-1.425
3.767,-0.280,-1.185
3.769,-0.280,-0.970
3.772,-0.295,-0.785
3.775,-0.320,-0.610
3.778,-0.325,-0.400
3.781,-0.320,-0.220
3.783,-0.320,-0.055
3.786,-0.325,0.110
3.789,-0.320,0.250
3.792,-0.330,0.385
3.794,-0.325,0.515
3.797,-0.320,0.615
3.800,-0.295,0.690
3.803,-0.295,0.745
3.806,-0.290,0.785
3.808,-0.290,0.825
3.811,-0.290,0.865
3.814,-0.275,0.915
3.817,-0.275,0.960
3.819,-0.285,0.990
3.822,-0.275,1.010
3.825,-0.265,1.030
3.828,-0.265,1.065
3.831,-0.250,1.110
3.833,-0.250,1.145
3.836,-0.245,1.160
3.839,-0.245,1.180
3.842,-0.250,1.185
3.844,-0.240,1.235
3.847,-0.225,1.250
3.850,-0.230,1.285
3.853,-0.225,1.290
3.856,-0.230,1.300
3.858,-0.225,1.310
3.861,-0.235,1.340
3.864,-0.215,1.365
3.867,-0.200,1.390
3.869,-0.180,1.410
3.872,-0.185,1.425
3.875,-0.180,1.455
3.878,-0.175,1.500
3.881,-0.175,1.545
3.883,-0.175,1.585
3.886,-0.180,1.635
3.889,-0.200,1.660
3.892,-0.220,1.685
3.894,-0.230,1.710
3.897,-0.225,1.755
3.900,-0.235,1.780
3.903,-0.240,1.805
3.906,-0.255,1.825
3.908,-0.250,1.825
3.911,-0.255,1.855
3.914,-0.240,1.890
3.917,-0.230,1.905
3.919,-0.235,1.920
3.922,-0.230,1.920
3.925,-0.240,1.905
3.928,-0.240,1.905
3.931,-0.230,1.915
3.933,-0.215,1.910
3.936,-0.225,1.890
3.939,-0.220,1.855
3.942,-0.210,1.820
3.944,-0.210,1.805
3.947,-0.195,1.785
3.950,-0.195,1.745
3.953,-0.185,1.700
3.956,-0.190,1.645
3.958,-0.190,1.595
3.961,-0.185,1.550
3.964,-0.170,1.505
3.967,-0.165,1.470
3.969,-0.170,1.390
3.972,-0.160,1.335
3.975,-0.170,1.250
3.978,-0.165,1.190
3.981,-0.145,1.135
3.983,-0.150,1.085
3.986,-0.145,1.020
3.989,-0.150,0.945
3.992,-0.155,0.870
3.994,-0.160,0.805
3.997,-0.160,0.745
4.000,-0.150,0.705
4.003,-0.155,0.635
4.006,-0.150,0.565
4.008,-0.165,0.505
4.011,-0.175,0.465
4.014,-0.165,0.430
4.017,-0.165,0.385
4.019,-0.175,0.345
4.022,-0.185,0.280
4.025,-0.205,0.245
4.028,-0.205,0.210
4.031,-0.200,0.190
4.033,-0.195,0.170
4.036,-0.200,0.135
4.039,-0.215,0.090
4.042,-0.215,0.075
4.044,-0.225,0.040
4.047,-0.220,0.050
4.050,-0.210,0.035
4.053,-0.215,0.020
4.056,-0.215,0.000
4.058,-0.240,-0.030
4.061,-0.245,-0.035
4.064,-0.250,-0.030
4.067,-0.240,-0.025
4.069,-0.245,-0.040
4.072,-0.250,-0.055
4.075,-0.260,-0.065
4.078,-0.260,-0.055
4.081,-0.260,-0.045
4.083,-0.250,-0.045
4.086,-0.245,-0.050
4.089,-0.255,-0.065
4.092,-0.250,-0.075
4.094,-0.265,-0.065
4.097,-0.270,-0.050
4.100,-0.245,-0.045
4.103,-0.255,-0.045
4.106,-0.250,-0.065
4.108,-0.265,-0.075
4.111,-0.275,-0.050
4.114,-0.275,-0.045
4.117,-0.265,-0.040
4.119,-0.280,-0.045
4.122,-0.280,-0.055
4.125,-0.285,-0.075
4.128,-0.290,-0.065
4.131,-0.275,-0.050
4.133,-0.270,-0.055
4.136,-0.285,-0.055
4.139,-0.275,-0.060
4.142,-0.290,-0.070
4.144,-0.295,-0.055
4.147,-0.270,-0.055
4.150,-0.275,-0.055
4.153,-0.275,-0.060
4.156,-0.285,-0.060
4.158,-0.290,-0.085
4.161,-0.295,-0.085
4.164,-0.290,-0.080
4.167,-0.290,-0.075
4.169,-0.295,-0.080
4.172,-0.305,-0.100
4.175,-0.305,-0.110
4.178,-0.310,-0.110
4.181,-0.300,-0.090
4.183,-0.290,-0.090
4.186,-0.285,-0.090
4.189,-0.305,-0.135
4.192,-0.295,-0.140
4.194,-0.310,-0.125
4.197,-0.310,-0.125
4.200,-0.300,-0.130
4.203,-0.305,-0.140
4.206,-0.315,-0.145
4.208,-0.325,-0.175
4.211,-0.320,-0.170
4.214,-0.305,-0.155
4.217,-0.305,-0.160
4.219,-0.320,-0.175
4.222,-0.315,-0.185
4.225,-0.330,-0.205
4.228,-0.325,-0.195
4.231,-0.325,-0.195
4.233,-0.315,-0.190
4.236,-0.305,-0.190
4.239,-0.320,-0.205
4.242,-0.340,-0.215
4.244,-0.330,-0.210
4.247,-0.320,-0.210
4.250,-0.320,-0.220
4.253,-0.320,-0.215
4.256,-0.325,-0.220
4.258,-0.335,-0.240
4.261,-0.335,-0.235
4.264,-0.345,-0.240
4.267,-0.330,-0.230
4.269,-0.320,-0.230
4.272,-0.325,-0.245
4.275,-0.340,-0.250
4.278,-0.345,-0.250
4.281,-0.340,-0.240
4.283,-0.320,-0.250
4.286,-0.315,-0.240
4.289,-0.335,-0.245
4.292,-0.345,-0.260
4.294,-0.335,-0.255
4.297,-0.335,-0.255
4.300,-0.330,-0.240
4.303,-0.335,-0.240
4.306,-0.335,-0.260
4.308,-0.340,-0.265
4.311,-0.340,-0.270
4.314,-0.330,-0.255
4.317,-0.320,-0.260
4.319,-0.330,-0.255
4.322,-0.335,-0.260
4.325,-0.345,-0.275
4.328,-0.350,-0.265
4.331,-0.335,-0.265
4.333,-0.325,-0.260
4.336,-0.320,-0.260
4.339,-0.330,-0.285
4.342,-0.340,-0.285
4.344,-0.345,-0.280
4.347,-0.330,-0.275
4.350,-0.325,-0.270
4.353,-0.325,-0.265
4.356,-0.335,-0.285
4.358,-0.345,-0.285
4.361,-0.340,-0.285
4.364,-0.345,-0.280
4.367,-0.320,-0.260
4.369,-0.315,-0.260
4.372,-0.330,-0.280
4.375,-0.335,-0.285
4.378,-0.340,-0.275
4.381,-0.330,-0.270
4.383,-0.330,-0.260
4.386,-0.325,-0.260
4.389,-0.320,-0.255
4.392,-0.335,-0.275
4.394,-0.330,-0.275
4.397,-0.325,-0.260
4.400,-0.315,-0.260
4.403,-0.315,-0.255
4.406,-0.330,-0.260
4.408,-0.340,-0.280
4.411,-0.330,-0.285
4.414,-0.325,-0.265
4.417,-0.310,-0.255
4.419,-0.305,-0.260
4.422,-0.310,-0.260
4.425,-0.310,-0.270
4.428,-0.325,-0.270
4.431,-0.315,-0.270
4.433,-0.300,-0.255
4.436,-0.300,-0.255
4.439,-0.305,-0.260
4.442,-0.310,-0.270
4.444,-0.310,-0.245
4.447,-0.300,-0.230
4.450,-0.290,-0.225
4.453,-0.280,-0.200
4.456,-0.275,-0.165
4.458,-0.265,-0.045
4.461,-0.265,0.240
4.464,-0.230,0.615
4.467,-0.180,0.830
4.469,-0.110,0.705
4.472,0.005,0.430
4.475,0.260,0.245
4.478,0.645,0.180
4.481,0.890,0.130
4.483,0.800,0.075
4.486,0.455,0.000
4.489,0.190,-0.080
4.492,0.100,-0.200
4.494,0.095,-0.305
4.497,0.120,-0.425
4.500,0.120,-0.585
4.503,0.110,-0.760
4.506,0.105,-0.980
4.508,0.110,-1.175
4.511,0.100,-1.350
4.514,0.120,-1.475
4.517,0.120,-1.595
4.519,0.125,-1.725
4.522,0.095,-1.875
4.525,0.075,-2.075
4.528,0.060,-2.260
4.531,0.065,-2.435
4.533,0.080,-2.580
4.536,0.060,-2.710
4.539,0.030,-2.815
4.542,-0.015,-2.920
4.544,-0.050,-2.995
4.547,-0.080,-3.070
4.550,-0.115,-3.130
4.553,-0.170,-3.165
4.556,-0.225,-3.200
4.558,-0.290,-3.225
4.561,-0.350,-3.250
4.564,-0.405,-3.240
4.567,-0.465,-3.245
4.569,-0.545,-3.245
4.572,-0.600,-3.265
4.575,-0.625,-3.260
4.578,-0.590,-3.250
4.581,-0.550,-3.235
4.583,-0.505,-3.210
4.586,-0.475,-3.200
4.589,-0.455,-3.165
4.592,-0.460,-3.110
4.594,-0.455,-3.030
4.597,-0.460,-2.900
4.600,-0.445,-2.770
4.603,-0.440,-2.610
4.606,-0.430,-2.440
4.608,-0.410,-2.235
4.611,-0.390,-1.980
4.614,-0.340,-1.715
4.617,-0.295,-1.450
4.619,-0.295,-1.195
4.622,-0.300,-0.965
4.625,-0.315,-0.745
4.628,-0.355,-0.505
4.631,-0.330,-0.285
4.633,-0.330,-0.085
4.636,-0.345,0.100
4.639,-0.355,0.265
4.642,-0.350,0.420
4.644,-0.350,0.560
4.647,-0.330,0.660
4.650,-0.320,0.735
4.653,-0.295,0.785
4.656,-0.305,0.820
4.658,-0.305,0.850
4.661,-0.310,0.895
4.664,-0.310,0.945
4.667,-0.300,0.980
4.669,-0.290,1.020
4.672,-0.280,1.040
4.675,-0.290,1.060
4.678,-0.285,1.095
4.681,-0.285,1.135
4.683,-0.275,1.165
4.686,-0.260,1.190
4.689,-0.270,1.225
4.692,-0.270,1.235
4.694,-0.270,1.275
4.697,-0.255,1.315
4.700,-0.255,1.340
4.703,-0.260,1.385
4.706,-0.260,1.400
4.708,-0.255,1.435
4.711,-0.265,1.470
4.714,-0.260,1.515
4.717,-0.240,1.540
4.719,-0.240,1.585
4.722,-0.240,1.620
4.725,-0.240,1.640
4.728,-0.250,1.670
4.731,-0.240,1.720
4.733,-0.225,1.765
4.736,-0.210,1.780
4.739,-0.220,1.805
4.742,-0.215,1.835
4.744,-0.215,1.870
4.747,-0.200,1.915
4.750,-0.200,1.940
4.753,-0.195,1.955
4.756,-0.200,1.975
4.758,-0.200,1.995
4.761,-0.195,2.030
4.764,-0.185,2.040
4.767,-0.170,2.060
4.769,-0.160,2.075
4.772,-0.150,2.060
4.775,-0.150,2.065
4.778,-0.160,2.060
4.781,-0.145,2.070
4.783,-0.140,2.070
4.786,-0.140,2.035
4.789,-0.140,2.005
4.792,-0.140,1.970
4.794,-0.140,1.950
4.797,-0.135,1.930
4.800,-0.125,1.875
4.803,-0.125,1.825
4.806,-0.110,1.775
4.808,-0.115,1.700
4.811,-0.125,1.660
4.814,-0.090,1.610
4.817,-0.080,1.535
4.819,-0.080,1.470
4.822,-0.080,1.395
4.825,-0.090,1.310
4.828,-0.095,1.220
4.831,-0.085,1.145
4.833,-0.080,1.070
4.836,-0.075,0.980
4.839,-0.080,0.895
4.842,-0.090,0.815
4.844,-0.085,0.735
4.847,-0.085,0.680
4.850,-0.080,0.635
4.853,-0.090,0.550
4.856,-0.100,0.490
4.858,-0.110,0.425
4.861,-0.135,0.380
4.864,-0.130,0.360
4.867,-0.125,0.340
4.869,-0.135,0.305
4.872,-0.150,0.255
4.875,-0.175,0.220
4.878,-0.190,0.190
4.881,-0.200,0.180
4.883,-0.200,0.160
4.886,-0.195,0.135
4.889,-0.210,0.105
4.892,-0.230,0.080
4.894,-0.220,0.065
4.897,-0.230,0.070
4.900,-0.220,0.075
4.903,-0.220,0.050
4.906,-0.245,0.045
4.908,-0.270,0.020
4.911,-0.255,0.025
4.914,-0.255,0.020
4.917,-0.250,0.030
4.919,-0.255,0.025
4.922,-0.260,0.010
4.925,-0.255,-0.005
4.928,-0.265,0.000
4.931,-0.265,0.005
4.933,-0.250,0.015
4.936,-0.255,0.015
4.939,-0.255,0.005
4.942,-0.270,0.015
4.944,-0.275,0.010
4.947,-0.270,0.020
4.950,-0.265,0.020
4.953,-0.270,0.015
4.956,-0.265,0.025
4.958,-0.275,-0.005
4.961,-0.280,0.005
4.964,-0.275,0.030
4.967,-0.270,0.030
4.969,-0.275,0.030
4.972,-0.285,0.015
4.975,-0.295,-0.005
4.978,-0.295,0.015
4.981,-0.290,0.025
4.983,-0.275,0.015
4.986,-0.285,0.030
4.989,-0.305,0.010
4.992,-0.300,0.000
4.994,-0.295,-0.005
4.997,-0.295,0.000
5.000,-0.290,0.010
5.003,-0.290,-0.005
5.006,-0.290,-0.015
5.008,-0.305,-0.030
5.011,-0.310,-0.020
5.014,-0.315,-0.010
5.017,-0.295,-0.015
5.019,-0.305,-0.035
5.022,-0.310,-0.040
5.025,-0.315,-0.055
5.028,-0.330,-0.055
5.031,-0.320,-0.045
5.033,-0.320,-0.045
5.036,-0.315,-0.055
5.039,-0.330,-0.075
5.042,-0.345,-0.080
5.044,-0.340,-0.075
5.047,-0.335,-0.075
5.050,-0.325,-0.070
5.053,-0.335,-0.085
5.056,-0.325,-0.090
5.058,-0.330,-0.100
5.061,-0.340,-0.095
5.064,-0.335,-0.095
5.067,-0.320,-0.100
5.069,-0.330,-0.105
5.072,-0.335,-0.115
5.075,-0.335,-0.120
5.078,-0.345,-0.120
5.081,-0.335,-0.110
5.083,-0.330,-0.115
5.086,-0.330,-0.110
5.089,-0.340,-0.130
5.092,-0.350,-0.140
5.094,-0.340,-0.130
5.097,-0.340,-0.110
5.100,-0.330,-0.115
5.103,-0.325,-0.115
5.106,-0.330,-0.135
5.108,-0.340,-0.145
5.111,-0.340,-0.155
5.114,-0.335,-0.135
5.117,-0.330,-0.135
5.119,-0.330,-0.135
5.122,-0.330,-0.140
5.125,-0.340,-0.160
5.128,-0.350,-0.145
5.131,-0.340,-0.140
5.133,-0.330,-0.140
5.136,-0.330,-0.140
5.139,-0.330,-0.150
5.142,-0.335,-0.160
5.144,-0.340,-0.165
5.147,-0.345,-0.145
5.150,-0.330,-0.145
5.153,-0.335,-0.135
5.156,-0.335,-0.155
5.158,-0.340,-0.165
5.161,-0.335,-0.150
5.164,-0.325,-0.150
5.167,-0.320,-0.145
5.169,-0.320,-0.140
5.172,-0.320,-0.165
5.175,-0.330,-0.170
5.178,-0.320,-0.165
5.181,-0.315,-0.150
5.183,-0.310,-0.155
5.186,-0.320,-0.165
5.189,-0.330,-0.165
5.192,-0.335,-0.170
5.194,-0.335,-0.160
5.197,-0.320,-0.150
5.200,-0.315,-0.150
5.203,-0.330,-0.155
5.206,-0.325,-0.165
5.208,-0.315,-0.170
5.211,-0.310,-0.170
5.214,-0.305,-0.160
5.217,-0.285,-0.165
5.219,-0.295,-0.150
5.222,-0.295,-0.160
5.225,-0.305,-0.185
5.228,-0.320,-0.175
5.231,-0.305,-0.180
5.233,-0.280,-0.155
5.236,-0.275,-0.160
5.239,-0.285,-0.175
5.242,-0.290,-0.180
5.244,-0.300,-0.185
5.247,-0.290,-0.160
5.250,-0.285,-0.160
5.253,-0.280,-0.165
5.256,-0.295,-0.180
5.258,-0.295,-0.185
5.261,-0.295,-0.170
5.264,-0.285,-0.170
5.267,-0.285,-0.150
5.269,-0.280,-0.160
5.272,-0.280,-0.155
5.275,-0.280,-0.160
5.278,-0.275,-0.150
5.281,-0.270,-0.115
5.283,-0.260,-0.030
5.286,-0.230,0.185
5.289,-0.210,0.590
5.292,-0.160,0.845
5.294,-0.085,0.770
5.297,0.095,0.515
5.300,0.420,0.335
5.303,0.810,0.265
5.306,0.935,0.195
5.308,0.735,0.125
5.311,0.385,0.055
5.314,0.185,-0.025
5.317,0.140,-0.150
5.319,0.150,-0.300
5.322,0.155,-0.470
5.325,0.145,-0.655
5.328,0.145,-0.845
5.331,0.145,-1.050
5.333,0.150,-1.255
5.336,0.155,-1.425
5.339,0.140,-1.585
5.342,0.130,-1.730
5.344,0.110,-1.865
5.347,0.115,-2.010
5.350,0.110,-2.190
5.353,0.125,-2.410
5.356,0.115,-2.590
5.358,0.100,-2.720
5.361,0.065,-2.805
5.364,0.040,-2.875
5.367,0.020,-2.960
5.369,-0.010,-3.025
5.372,-0.070,-3.090
5.375,-0.140,-3.125
5.378,-0.195,-3.140
5.381,-0.250,-3.145
5.383,-0.295,-3.160
5.386,-0.365,-3.180
5.389,-0.455,-3.190
5.392,-0.530,-3.190
5.394,-0.580,-3.180
5.397,-0.560,-3.180
5.400,-0.530,-3.160
5.403,-0.475,-3.160
5.406,-0.455,-3.135
5.408,-0.460,-3.095
5.411,-0.460,-3.005
5.414,-0.470,-2.900
5.417,-0.465,-2.760
5.419,-0.455,-2.590
5.422,-0.430,-2.395
5.425,-0.425,-2.160
5.428,-0.385,-1.875
5.431,-0.330,-1.590
5.433,-0.290,-1.320
5.436,-0.270,-1.035
5.439,-0.280,-0.780
5.442,-0.315,-0.545
5.444,-0.320,-0.315
5.447,-0.310,-0.085
5.450,-0.320,0.100
5.453,-0.320,0.285
5.456,-0.320,0.435
5.458,-0.315,0.555
5.461,-0.315,0.675
5.464,-0.285,0.750
5.467,-0.255,0.815
5.469,-0.245,0.850
5.472,-0.250,0.885
5.475,-0.260,0.925
5.478,-0.250,0.975
5.481,-0.250,1.015
5.483,-0.235,1.050
5.486,-0.235,1.090
5.489,-0.245,1.115
5.492,-0.240,1.140
5.494,-0.245,1.170
5.497,-0.230,1.220
5.500,-0.220,1.245
5.503,-0.210,1.270
5.506,-0.235,1.285
5.508,-0.230,1.315
5.511,-0.225,1.370
5.514,-0.205,1.400
5.517,-0.195,1.435
5.519,-0.210,1.475
5.522,-0.185,1.505
5.525,-0.195,1.535
5.528,-0.195,1.570
5.531,-0.180,1.610
5.533,-0.175,1.650
5.536,-0.175,1.680
5.539,-0.165,1.700
5.542,-0.190,1.735
5.544,-0.185,1.775
5.547,-0.175,1.820
5.550,-0.165,1.855
5.553,-0.160,1.890
5.556,-0.165,1.930
5.558,-0.145,1.935
5.561,-0.145,1.960
5.564,-0.130,2.005
5.567,-0.115,2.015
5.569,-0.115,2.035
5.572,-0.110,2.045
5.575,-0.115,2.025
5.578,-0.110,2.050
5.581,-0.105,2.065
5.583,-0.095,2.060
5.586,-0.090,2.045
5.589,-0.095,2.030
5.592,-0.080,2.000
5.594,-0.095,1.975
5.597,-0.075,1.965
5.600,-0.065,1.945
5.603,-0.065,1.900
5.606,-0.065,1.845
5.608,-0.070,1.785
5.611,-0.060,1.765
5.614,-0.045,1.720
5.617,-0.040,1.675
5.619,-0.030,1.610
5.622,-0.025,1.545
5.625,-0.030,1.470
5.628,-0.045,1.410
5.631,-0.020,1.345
5.633,-0.025,1.265
5.636,-0.020,1.200
5.639,-0.025,1.105
5.642,-0.050,1.010
5.644,-0.040,0.955
5.647,-0.035,0.885
5.650,-0.010,0.830
5.653,-0.005,0.750
5.656,-0.010,0.670
5.658,-0.030,0.605
5.661,-0.030,0.555
5.664,-0.030,0.505
5.667,-0.045,0.465
5.669,-0.040,0.410
5.672,-0.055,0.350
5.675,-0.060,0.305
5.678,-0.085,0.275
5.681,-0.095,0.250
5.683,-0.095,0.235
5.686,-0.095,0.195
5.689,-0.110,0.180
5.692,-0.110,0.145
5.694,-0.110,0.145
5.697,-0.120,0.140
5.700,-0.120,0.125
5.703,-0.130,0.090
5.706,-0.140,0.075
5.708,-0.160,0.055
5.711,-0.170,0.060
5.714,-0.165,0.065
5.717,-0.170,0.065
5.719,-0.185,0.040
5.722,-0.185,0.035
5.725,-0.200,0.020
5.728,-0.205,0.025
5.731,-0.200,0.025
5.733,-0.185,0.020
5.736,-0.190,0.025
5.739,-0.200,0.010
5.742,-0.190,0.000
5.744,-0.200,0.005
5.747,-0.185,0.010
5.750,-0.180,0.025
5.753,-0.185,0.015
5.756,-0.190,0.000
5.758,-0.205,0.005
5.761,-0.220,0.015
5.764,-0.210,0.015
5.767,-0.200,0.030
5.769,-0.200,0.030
5.772,-0.195,0.020
5.775,-0.205,0.030
5.778,-0.200,0.020
5.781,-0.195,0.035
5.783,-0.200,0.035
5.786,-0.200,0.035
5.789,-0.215,0.020
5.792,-0.220,0.015
5.794,-0.215,0.025
5.797,-0.205,0.030
5.800,-0.195,0.025
5.803,-0.195,0.025
5.806,-0.205,0.005
5.808,-0.225,-0.015
5.811,-0.225,0.015
5.814,-0.235,0.015
5.817,-0.225,0.010
5.819,-0.225,0.000
5.822,-0.225,-0.015
5.825,-0.235,-0.025
5.828,-0.245,-0.025
5.831,-0.245,-0.010
5.833,-0.245,-0.015
5.836,-0.245,-0.020
5.839,-0.245,-0.035
5.842,-0.245,-0.050
5.844,-0.255,-0.040
5.847,-0.250,-0.055
5.850,-0.245,-0.045
5.853,-0.260,-0.055
5.856,-0.260,-0.080
5.858,-0.265,-0.075
5.861,-0.270,-0.075
5.864,-0.255,-0.070
5.867,-0.255,-0.070
5.869,-0.260,-0.080
5.872,-0.255,-0.095
5.875,-0.255,-0.090
5.878,-0.265,-0.100
5.881,-0.260,-0.095
5.883,-0.250,-0.100
5.886,-0.280,-0.100
5.889,-0.265,-0.120
5.892,-0.265,-0.130
5.894,-0.275,-0.120
5.897,-0.265,-0.125
5.900,-0.265,-0.115
5.903,-0.265,-0.125
5.906,-0.275,-0.140
5.908,-0.270,-0.135
5.911,-0.280,-0.135
5.914,-0.265,-0.140
5.917,-0.255,-0.145
5.919,-0.250,-0.135
5.922,-0.275,-0.140
5.925,-0.280,-0.150
5.928,-0.275,-0.150
5.931,-0.275,-0.145
5.933,-0.270,-0.150
5.936,-0.275,-0.150
5.939,-0.260,-0.155
5.942,-0.270,-0.155
5.944,-0.265,-0.150
5.947,-0.275,-0.145
5.950,-0.255,-0.155
5.953,-0.255,-0.140
5.956,-0.260,-0.160
5.958,-0.265,-0.160
5.961,-0.270,-0.170
5.964,-0.260,-0.160
5.967,-0.250,-0.150
5.969,-0.260,-0.160
5.972,-0.255,-0.160
5.975,-0.265,-0.180
5.978,-0.260,-0.170
5.981,-0.250,-0.160
5.983,-0.240,-0.170
5.986,-0.250,-0.165
5.989,-0.255,-0.170
5.992,-0.260,-0.180
5.994,-0.260,-0.170
5.997,-0.255,-0.150
6.000,-0.250,-0.160
6.003,-0.255,-0.165
6.006,-0.245,-0.170
6.008,-0.270,-0.180
6.011,-0.275,-0.175
6.014,-0.270,-0.165
6.017,-0.255,-0.165
6.019,-0.255,-0.170
6.022,-0.260,-0.175
6.025,-0.265,-0.185
6.028,-0.260,-0.175
6.031,-0.260,-0.175
6.033,-0.255,-0.170
6.036,-0.245,-0.170
6.039,-0.245,-0.175
6.042,-0.255,-0.185
6.044,-0.260,-0.180
6.047,-0.255,-0.175
6.050,-0.255,-0.170
6.053,-0.250,-0.175
6.056,-0.250,-0.180
6.058,-0.260,-0.195
6.061,-0.265,-0.180
6.064,-0.255,-0.165
6.067,-0.240,-0.160
6.069,-0.245,-0.170
6.072,-0.245,-0.170
6.075,-0.250,-0.175
6.078,-0.255,-0.170
6.081,-0.240,-0.150
6.083,-0.225,-0.140
6.086,-0.220,-0.110
6.089,-0.220,-0.095
6.092,-0.225,0.005
6.094,-0.225,0.275
6.097,-0.175,0.705
6.100,-0.115,0.955
6.103,-0.035,0.805
6.106,0.155,0.500
6.108,0.510,0.335
6.111,0.880,0.265
6.114,0.955,0.235
6.117,0.685,0.175
6.119,0.345,0.090
6.122,0.185,-0.010
6.125,0.155,-0.150
6.128,0.175,-0.300
6.131,0.190,-0.450
6.133,0.195,-0.625
6.136,0.195,-0.835
6.139,0.185,-1.060
6.142,0.190,-1.265
6.144,0.190,-1.420
6.147,0.200,-1.560
6.150,0.195,-1.690
6.153,0.165,-1.850
6.156,0.140,-2.035
6.158,0.135,-2.265
6.161,0.130,-2.465
6.164,0.130,-2.590
6.167,0.125,-2.695
6.169,0.085,-2.790
6.172,0.045,-2.900
6.175,-0.015,-3.005
6.178,-0.075,-3.065
6.181,-0.120,-3.095
6.183,-0.170,-3.125
6.186,-0.240,-3.150
6.189,-0.320,-3.175
6.192,-0.390,-3.195
6.194,-0.480,-3.190
6.197,-0.555,-3.180
6.200,-0.580,-3.175
6.203,-0.575,-3.160
6.206,-0.540,-3.155
6.208,-0.510,-3.145
6.211,-0.485,-3.105
6.214,-0.470,-3.030
6.217,-0.450,-2.925
6.219,-0.450,-2.810
6.222,-0.440,-2.650
6.225,-0.435,-2.480
6.228,-0.415,-2.250
6.231,-0.370,-1.990
6.233,-0.340,-1.720
6.236,-0.285,-1.430
6.239,-0.265,-1.160
6.242,-0.280,-0.915
6.244,-0.285,-0.675
6.247,-0.290,-0.425
6.250,-0.285,-0.200
6.253,-0.295,-0.010
6.256,-0.305,0.175
6.258,-0.315,0.370
6.261,-0.305,0.530
6.264,-0.285,0.645
6.267,-0.270,0.720
6.269,-0.250,0.780
6.272,-0.260,0.815
6.275,-0.260,0.850
6.278,-0.265,0.905
6.281,-0.260,0.950
6.283,-0.240,0.985
6.286,-0.235,1.020
6.289,-0.245,1.055
6.292,-0.245,1.065
6.294,-0.250,1.115
6.297,-0.250,1.155
6.300,-0.225,1.195
6.303,-0.220,1.235
6.306,-0.235,1.240
6.308,-0.250,1.265
6.311,-0.245,1.320
6.314,-0.230,1.355
6.317,-0.220,1.400
6.319,-0.215,1.430
6.322,-0.215,1.445
6.325,-0.240,1.485
6.328,-0.225,1.530
6.331,-0.210,1.565
6.333,-0.195,1.615
6.336,-0.200,1.645
6.339,-0.205,1.670
6.342,-0.230,1.705
6.344,-0.215,1.740
6.347,-0.205,1.785
6.350,-0.195,1.810
6.353,-0.190,1.855
6.356,-0.185,1.875
6.358,-0.185,1.890
6.361,-0.175,1.915
6.364,-0.165,1.965
6.367,-0.160,1.990
6.369,-0.155,1.995
6.372,-0.160,2.010
6.375,-0.160,2.000
6.378,-0.160,2.020
6.381,-0.130,2.025
6.383,-0.130,2.040
6.386,-0.120,2.020
6.389,-0.125,1.990
6.392,-0.120,1.980
6.394,-0.110,1.960
6.397,-0.095,1.945
6.400,-0.080,1.915
6.403,-0.075,1.870
6.406,-0.090,1.825
6.408,-0.095,1.775
6.411,-0.100,1.730
6.414,-0.070,1.685
6.417,-0.070,1.625
6.419,-0.080,1.560
6.422,-0.085,1.480
6.425,-0.080,1.410
6.428,-0.075,1.355
6.431,-0.050,1.300
6.433,-0.045,1.215
6.436,-0.055,1.160
6.439,-0.060,1.075
6.442,-0.065,0.985
6.444,-0.075,0.940
6.447,-0.060,0.880
6.450,-0.060,0.815
6.453,-0.060,0.750
6.456,-0.070,0.675
6.458,-0.080,0.615
6.461,-0.100,0.570
6.464,-0.100,0.520
6.467,-0.085,0.480
6.469,-0.095,0.430
6.472,-0.110,0.380
6.475,-0.125,0.335
6.478,-0.140,0.310
6.481,-0.135,0.290
6.483,-0.140,0.250
6.486,-0.130,0.225
6.489,-0.140,0.195
6.492,-0.155,0.165
6.494,-0.170,0.150
6.497,-0.165,0.135
6.500,-0.165,0.130
6.503,-0.165,0.115
6.506,-0.170,0.090
6.508,-0.180,0.070
6.511,-0.175,0.070
6.514,-0.180,0.070
6.517,-0.175,0.070
6.519,-0.175,0.055
6.522,-0.185,0.050
6.525,-0.195,0.040
6.528,-0.200,0.045
6.531,-0.190,0.040
6.533,-0.185,0.060
6.536,-0.190,0.045
6.539,-0.200,0.040
6.542,-0.215,0.030
6.544,-0.225,0.030
6.547,-0.210,0.050
6.550,-0.200,0.040
6.553,-0.205,0.040
6.556,-0.215,0.035
6.558,-0.205,0.025
6.561,-0.220,0.035
6.564,-0.210,0.040
6.567,-0.200,0.050
6.569,-0.210,0.055
6.572,-0.210,0.045
6.575,-0.215,0.040
6.578,-0.220,0.045
6.581,-0.210,0.060
6.583,-0.195,0.065
6.586,-0.210,0.075
6.589,-0.215,0.080
6.592,-0.235,0.060
6.594,-0.240,0.075
6.597,-0.230,0.090
6.600,-0.220,0.090
6.603,-0.220,0.095
6.606,-0.230,0.065
6.608,-0.245,0.060
6.611,-0.250,0.075
6.614,-0.245,0.085
6.617,-0.240,0.075
6.619,-0.225,0.070
6.622,-0.230,0.050
6.625,-0.225,0.030
6.628,-0.235,0.030
6.631,-0.220,0.030
6.633,-0.210,0.020
6.636,-0.220,-0.005
6.639,-0.230,-0.025
6.642,-0.230,-0.050
6.644,-0.220,-0.050
6.647,-0.210,-0.055
6.650,-0.190,-0.070
6.653,-0.195,-0.080
6.656,-0.200,-0.095
6.658,-0.230,-0.130
6.661,-0.235,-0.130
6.664,-0.230,-0.120
6.667,-0.220,-0.120
6.669,-0.220,-0.125
6.672,-0.230,-0.130
6.675,-0.230,-0.140
6.678,-0.245,-0.120
6.681,-0.240,-0.120
6.683,-0.240,-0.120
6.686,-0.245,-0.130
6.689,-0.260,-0.140
6.692,-0.280,-0.145
6.694,-0.305,-0.150
6.697,-0.285,-0.140
6.700,-0.280,-0.140
6.703,-0.280,-0.135
6.706,-0.285,-0.155
6.708,-0.295,-0.170
6.711,-0.310,-0.155
6.714,-0.295,-0.160
6.717,-0.285,-0.145
6.719,-0.275,-0.165
6.722,-0.295,-0.165
6.725,-0.310,-0.175
6.728,-0.310,-0.165
6.731,-0.315,-0.170
6.733,-0.295,-0.165
6.736,-0.295,-0.175
6.739,-0.315,-0.185
6.742,-0.320,-0.190
6.744,-0.320,-0.185
6.747,-0.305,-0.170
6.750,-0.295,-0.165
6.753,-0.300,-0.185
6.756,-0.320,-0.195
6.758,-0.315,-0.205
6.761,-0.315,-0.190
6.764,-0.305,-0.185
6.767,-0.295,-0.180
6.769,-0.305,-0.190
6.772,-0.310,-0.185
6.775,-0.310,-0.200
6.778,-0.310,-0.190
6.781,-0.300,-0.170
6.783,-0.300,-0.175
6.786,-0.300,-0.175
6.789,-0.315,-0.195
6.792,-0.320,-0.200
6.794,-0.310,-0.190
6.797,-0.305,-0.185
6.800,-0.295,-0.180
6.803,-0.295,-0.180
6.806,-0.300,-0.195
6.808,-0.295,-0.215
6.811,-0.310,-0.190
6.814,-0.305,-0.185
6.817,-0.305,-0.180
6.819,-0.295,-0.170
6.822,-0.300,-0.185
6.825,-0.300,-0.190
6.828,-0.300,-0.195
6.831,-0.295,-0.185
6.833,-0.285,-0.175
6.836,-0.285,-0.180
6.839,-0.290,-0.195
6.842,-0.310,-0.190
6.844,-0.305,-0.180
6.847,-0.290,-0.175
6.850,-0.285,-0.175
6.853,-0.290,-0.175
6.856,-0.300,-0.190
6.858,-0.290,-0.200
6.861,-0.300,-0.195
6.864,-0.285,-0.170
6.867,-0.285,-0.175
6.869,-0.285,-0.165
6.872,-0.285,-0.185
6.875,-0.280,-0.180
6.878,-0.275,-0.165
6.881,-0.270,-0.140
6.883,-0.250,-0.120
6.886,-0.250,-0.095
6.889,-0.255,-0.055
6.892,-0.250,0.080
6.894,-0.230,0.355
6.897,-0.190,0.680
6.900,-0.130,0.730
6.903,-0.030,0.515
6.906,0.225,0.300
6.908,0.585,0.205
6.911,0.785,0.160
6.914,0.650,0.110
6.917,0.340,0.055
6.919,0.150,-0.060
6.922,0.110,-0.190
6.925,0.120,-0.350
6.928,0.155,-0.520
6.931,0.155,-0.695
6.933,0.155,-0.905
6.936,0.150,-1.120
6.939,0.155,-1.350
6.942,0.160,-1.535
6.944,0.165,-1.685
6.947,0.155,-1.830
6.950,0.145,-1.970
6.953,0.125,-2.125
6.956,0.135,-2.300
6.958,0.135,-2.455
6.961,0.135,-2.570
6.964,0.125,-2.650
6.967,0.110,-2.715
6.969,0.075,-2.795
6.972,0.040,-2.900
6.975,-0.020,-2.980
6.978,-0.075,-3.005
6.981,-0.120,-3.025
6.983,-0.170,-3.055
6.986,-0.230,-3.090
6.989,-0.285,-3.120
6.992,-0.375,-3.135
6.994,-0.465,-3.140
6.997,-0.480,-3.140
7.000,-0.460,-3.125
7.003,-0.405,-3.105
7.006,-0.370,-3.100
7.008,-0.365,-3.070
7.011,-0.365,-3.010
7.014,-0.360,-2.915
7.017,-0.365,-2.820
7.019,-0.375,-2.725
7.022,-0.380,-2.615
7.025,-0.400,-2.500
7.028,-0.395,-2.350
7.031,-0.380,-2.170
7.033,-0.355,-1.950
7.036,-0.330,-1.705
7.039,-0.325,-1.480
7.042,-0.320,-1.240
7.044,-0.330,-1.010
7.047,-0.330,-0.760
7.050,-0.320,-0.545
7.053,-0.325,-0.325
7.056,-0.335,-0.135
7.058,-0.350,0.035
7.061,-0.360,0.210
7.064,-0.350,0.375
7.067,-0.350,0.530
7.069,-0.345,0.640
7.072,-0.325,0.720
7.075,-0.325,0.785
7.078,-0.335,0.855
7.081,-0.315,0.920
7.083,-0.300,0.965
7.086,-0.285,1.005
7.089,-0.295,1.045
7.092,-0.300,1.080
7.094,-0.310,1.135
7.097,-0.295,1.190
7.100,-0.275,1.230
7.103,-0.275,1.270
7.106,-0.270,1.305
7.108,-0.285,1.335
7.111,-0.290,1.375
7.114,-0.270,1.435
7.117,-0.250,1.480
7.119,-0.265,1.510
7.122,-0.265,1.545
7.125,-0.280,1.575
7.128,-0.275,1.635
7.131,-0.275,1.685
7.133,-0.255,1.725
7.136,-0.255,1.770
7.139,-0.255,1.790
7.142,-0.260,1.830
7.144,-0.265,1.865
7.147,-0.245,1.910
7.150,-0.240,1.940
7.153,-0.235,1.975
7.156,-0.240,2.005
7.158,-0.240,2.015
7.161,-0.240,2.065
7.164,-0.225,2.080
7.167,-0.215,2.105
7.169,-0.210,2.115
7.172,-0.220,2.115
7.175,-0.205,2.125
7.178,-0.195,2.145
7.181,-0.190,2.160
7.183,-0.170,2.170
7.186,-0.175,2.155
7.189,-0.175,2.130
7.192,-0.180,2.100
7.194,-0.180,2.085
7.197,-0.145,2.065
7.200,-0.140,2.040
7.203,-0.145,2.010
7.206,-0.140,1.950
7.208,-0.140,1.900
7.211,-0.145,1.865
7.214,-0.120,1.820
7.217,-0.105,1.770
7.219,-0.110,1.710
7.222,-0.120,1.635
7.225,-0.125,1.575
7.228,-0.120,1.525
7.231,-0.115,1.470
7.233,-0.095,1.400
7.236,-0.095,1.340
7.239,-0.110,1.250
7.242,-0.110,1.195
7.244,-0.115,1.125
7.247,-0.110,1.065
7.250,-0.105,1.010
7.253,-0.105,0.935
7.256,-0.110,0.865
7.258,-0.115,0.805
7.261,-0.135,0.755
7.264,-0.125,0.700
7.267,-0.120,0.650
7.269,-0.130,0.585
7.272,-0.130,0.540
7.275,-0.145,0.470
7.278,-0.150,0.435
7.281,-0.150,0.420
7.283,-0.145,0.380
7.286,-0.150,0.350
7.289,-0.155,0.305
7.292,-0.175,0.265
7.294,-0.185,0.240
7.297,-0.170,0.230
7.300,-0.180,0.205
7.303,-0.170,0.190
7.306,-0.190,0.160
7.308,-0.190,0.135
7.311,-0.195,0.115
7.314,-0.190,0.125
7.317,-0.180,0.095
7.319,-0.190,0.075
7.322,-0.200,0.055
7.325,-0.210,0.045
7.328,-0.200,0.045
7.331,-0.195,0.045
7.333,-0.185,0.025
7.336,-0.180,0.035
7.339,-0.200,0.010
7.342,-0.210,0.005
7.344,-0.205,0.005
7.347,-0.200,0.005
7.350,-0.185,0.010
7.353,-0.200,-0.010
7.356,-0.205,-0.020
7.358,-0.210,-0.015
7.361,-0.205,-0.010
7.364,-0.205,0.000
7.367,-0.200,0.010
7.369,-0.200,-0.010
7.372,-0.210,-0.015
7.375,-0.210,-0.020
7.378,-0.220,-0.015
7.381,-0.200,0.005
7.383,-0.190,0.000
7.386,-0.200,-0.005
7.389,-0.210,0.000
7.392,-0.215,-0.015
7.394,-0.225,0.000
7.397,-0.215,0.005
7.400,-0.195,0.000
7.403,-0.205,0.000
7.406,-0.210,0.000
7.408,-0.220,-0.010
7.411,-0.220,0.005
7.414,-0.210,0.015
7.417,-0.200,0.010
7.419,-0.210,0.020
7.422,-0.215,0.000
7.425,-0.215,-0.005
7.428,-0.220,0.000
7.431,-0.215,0.005
7.433,-0.210,0.010
7.436,-0.210,0.000
7.439,-0.215,-0.005
7.442,-0.215,-0.020
7.444,-0.230,-0.010
7.447,-0.215,-0.005
7.450,-0.210,-0.010
7.453,-0.215,-0.025
7.456,-0.225,-0.020
7.458,-0.230,-0.040
7.461,-0.245,-0.030
7.464,-0.225,-0.030
7.467,-0.220,-0.035
7.469,-0.225,-0.040
7.472,-0.230,-0.055
7.475,-0.245,-0.065
7.478,-0.240,-0.065
7.481,-0.235,-0.060
7.483,-0.225,-0.060
7.486,-0.225,-0.070
7.489,-0.235,-0.080
7.492,-0.240,-0.090
7.494,-0.250,-0.080
7.497,-0.240,-0.085
7.500,-0.225,-0.085
7.503,-0.230,-0.090
7.506,-0.240,-0.105
7.508,-0.245,-0.115
7.511,-0.255,-0.110
7.514,-0.250,-0.095
7.517,-0.245,-0.100
7.519,-0.245,-0.105
7.522,-0.250,-0.120
7.525,-0.260,-0.130
7.528,-0.265,-0.125
7.531,-0.245,-0.105
7.533,-0.245,-0.110
7.536,-0.245,-0.110
7.539,-0.245,-0.130
7.542,-0.270,-0.125
7.544,-0.265,-0.105
7.547,-0.260,-0.105
7.550,-0.255,-0.100
7.553,-0.260,-0.100
7.556,-0.265,-0.105
7.558,-0.275,-0.105
7.561,-0.285,-0.105
7.564,-0.270,-0.090
7.567,-0.270,-0.090
7.569,-0.270,-0.095
7.572,-0.275,-0.105
7.575,-0.270,-0.120
7.578,-0.260,-0.120
7.581,-0.245,-0.125
7.583,-0.230,-0.120
7.586,-0.230,-0.140
7.589,-0.245,-0.160
7.592,-0.245,-0.170
7.594,-0.240,-0.175
7.597,-0.225,-0.180
7.600,-0.210,-0.190
7.603,-0.215,-0.210
7.606,-0.220,-0.225
7.608,-0.215,-0.240
7.611,-0.235,-0.225
7.614,-0.235,-0.235
7.617,-0.225,-0.240
7.619,-0.230,-0.245
7.622,-0.225,-0.260
7.625,-0.235,-0.265
7.628,-0.240,-0.240
7.631,-0.230,-0.220
7.633,-0.220,-0.215
7.636,-0.240,-0.220
7.639,-0.240,-0.225
7.642,-0.260,-0.235
7.644,-0.260,-0.220
7.647,-0.270,-0.215
7.650,-0.265,-0.215
7.653,-0.255,-0.200
7.656,-0.265,-0.225
7.658,-0.280,-0.225
7.661,-0.265,-0.215
7.664,-0.260,-0.210
7.667,-0.260,-0.210
7.669,-0.260,-0.200
7.672,-0.265,-0.215
7.675,-0.270,-0.225
7.678,-0.275,-0.200
7.681,-0.255,-0.190
7.683,-0.250,-0.190
7.686,-0.260,-0.190
7.689,-0.265,-0.195
7.692,-0.270,-0.185
7.694,-0.265,-0.170
7.697,-0.255,-0.130
7.700,-0.235,-0.080
7.703,-0.225,0.020
7.706,-0.220,0.220
7.708,-0.195,0.550
7.711,-0.160,0.825
7.714,-0.105,0.760
7.717,0.010,0.495
7.719,0.310,0.310
7.722,0.680,0.225
7.725,0.825,0.195
7.728,0.595,0.155
7.731,0.295,0.135
7.733,0.145,0.100
7.736,0.130,0.055
7.739,0.160,-0.010
7.742,0.185,-0.125
7.744,0.190,-0.250
7.747,0.210,-0.425
7.750,0.245,-0.620
7.753,0.260,-0.855
7.756,0.265,-1.090
7.758,0.290,-1.340
7.761,0.300,-1.580
7.764,0.305,-1.785
7.767,0.320,-1.975
7.769,0.330,-2.100
7.772,0.345,-2.220
7.775,0.365,-2.325
7.778,0.380,-2.400
7.781,0.380,-2.505
7.783,0.410,-2.610
7.786,0.395,-2.735
7.789,0.395,-2.860
7.792,0.345,-2.925
7.794,0.285,-2.970
7.797,0.230,-3.015
7.800,0.195,-3.055
7.803,0.155,-3.105
7.806,0.065,-3.145
7.808,-0.035,-3.165
7.811,-0.130,-3.165
7.814,-0.160,-3.165
7.817,-0.140,-3.160
7.819,-0.130,-3.170
7.822,-0.135,-3.170
7.825,-0.140,-3.145
7.828,-0.165,-3.095
7.831,-0.170,-3.035
7.833,-0.190,-2.960
7.836,-0.225,-2.870
7.839,-0.285,-2.770
7.842,-0.320,-2.640
7.844,-0.345,-2.490
7.847,-0.345,-2.335
7.850,-0.350,-2.130
7.853,-0.360,-1.900
7.856,-0.370,-1.670
7.858,-0.400,-1.405
7.861,-0.405,-1.165
7.864,-0.395,-0.915
7.867,-0.370,-0.675
7.869,-0.370,-0.430
7.872,-0.365,-0.225
7.875,-0.395,-0.040
7.878,-0.390,0.140
7.881,-0.410,0.320
7.883,-0.395,0.480
7.886,-0.400,0.630
7.889,-0.390,0.725
7.892,-0.400,0.790
7.894,-0.395,0.870
7.897,-0.380,0.935
7.900,-0.350,0.990
7.903,-0.335,1.035
7.906,-0.335,1.075
7.908,-0.340,1.115
7.911,-0.350,1.165
7.914,-0.335,1.220
7.917,-0.315,1.270
7.919,-0.325,1.310
7.922,-0.330,1.345
7.925,-0.330,1.385
7.928,-0.325,1.450
7.931,-0.315,1.500
7.933,-0.305,1.545
7.936,-0.315,1.580
7.939,-0.320,1.630
7.942,-0.320,1.660
7.944,-0.320,1.720
7.947,-0.320,1.770
7.950,-0.305,1.815
7.953,-0.295,1.850
7.956,-0.315,1.885
7.958,-0.300,1.915
7.961,-0.295,1.970
7.964,-0.280,2.010
7.967,-0.275,2.045
7.969,-0.290,2.070
7.972,-0.285,2.090
7.975,-0.300,2.125
7.978,-0.295,2.160
7.981,-0.280,2.180
7.983,-0.260,2.200
7.986,-0.270,2.200
7.989,-0.270,2.195
7.992,-0.270,2.205
7.994,-0.255,2.210
7.997,-0.240,2.210
8.000,-0.225,2.205
8.003,-0.215,2.190
8.006,-0.205,2.155
8.008,-0.210,2.120
8.011,-0.210,2.095
8.014,-0.200,2.070
8.017,-0.180,2.025
8.019,-0.165,1.985
8.022,-0.165,1.930
8.025,-0.165,1.880
8.028,-0.170,1.815
8.031,-0.150,1.760
8.033,-0.145,1.715
8.036,-0.145,1.640
8.039,-0.135,1.570
8.042,-0.145,1.490
8.044,-0.140,1.420
8.047,-0.145,1.360
8.050,-0.125,1.285
8.053,-0.130,1.200
8.056,-0.140,1.110
8.058,-0.145,1.040
8.061,-0.160,0.960
8.064,-0.150,0.900
8.067,-0.135,0.840
8.069,-0.145,0.770
8.072,-0.155,0.695
8.075,-0.165,0.625
8.078,-0.170,0.580
8.081,-0.160,0.520
8.083,-0.145,0.475
8.086,-0.160,0.425
8.089,-0.170,0.375
8.092,-0.190,0.315
8.094,-0.190,0.285
8.097,-0.180,0.255
8.100,-0.175,0.220
8.103,-0.170,0.185
8.106,-0.195,0.155
8.108,-0.210,0.110
8.111,-0.215,0.110
8.114,-0.210,0.095
8.117,-0.210,0.070
8.119,-0.220,0.055
8.122,-0.225,0.025
8.125,-0.235,0.000
8.128,-0.235,0.000
8.131,-0.220,0.000
8.133,-0.215,-0.005
8.136,-0.220,-0.015
8.139,-0.215,-0.030
8.142,-0.220,-0.040
8.144,-0.230,-0.055
8.147,-0.235,-0.035
8.150,-0.220,-0.040
8.153,-0.230,-0.040
8.156,-0.245,-0.065
8.158,-0.250,-0.070
8.161,-0.240,-0.075
8.164,-0.230,-0.065
8.167,-0.215,-0.060
8.169,-0.230,-0.075
8.172,-0.240,-0.075
8.175,-0.245,-0.080
8.178,-0.245,-0.075
8.181,-0.230,-0.065
8.183,-0.225,-0.060
8.186,-0.225,-0.055
8.189,-0.235,-0.070
8.192,-0.230,-0.085
8.194,-0.230,-0.070
8.197,-0.225,-0.060
8.200,-0.205,-0.055
8.203,-0.215,-0.040
8.206,-0.225,-0.060
8.208,-0.240,-0.065
8.211,-0.250,-0.070
8.214,-0.235,-0.040
8.217,-0.215,-0.035
8.219,-0.225,-0.050
8.222,-0.225,-0.040
8.225,-0.235,-0.055
8.228,-0.250,-0.035
8.231,-0.245,-0.020
8.233,-0.235,-0.035
8.236,-0.240,-0.025
8.239,-0.260,-0.035
8.242,-0.255,-0.035
8.244,-0.250,-0.035
8.247,-0.240,-0.025
8.250,-0.225,-0.030
8.253,-0.240,-0.040
8.256,-0.250,-0.050
8.258,-0.260,-0.055
8.261,-0.265,-0.060
8.264,-0.255,-0.040
8.267,-0.235,-0.050
8.269,-0.260,-0.050
8.272,-0.260,-0.065
8.275,-0.260,-0.075
8.278,-0.275,-0.075
8.281,-0.255,-0.070
8.283,-0.255,-0.065
8.286,-0.270,-0.090
8.289,-0.280,-0.105
8.292,-0.275,-0.110
8.294,-0.285,-0.120
8.297,-0.280,-0.105
8.300,-0.265,-0.110
8.303,-0.285,-0.115
8.306,-0.285,-0.125
8.308,-0.295,-0.130
8.311,-0.290,-0.130
8.314,-0.285,-0.120
8.317,-0.265,-0.125
8.319,-0.275,-0.135
8.322,-0.275,-0.150
8.325,-0.290,-0.165
8.328,-0.280,-0.160
8.331,-0.270,-0.150
8.333,-0.270,-0.155
8.336,-0.275,-0.175
8.339,-0.280,-0.190
8.342,-0.300,-0.190
8.344,-0.305,-0.180
8.347,-0.305,-0.175
8.350,-0.280,-0.180
8.353,-0.295,-0.200
8.356,-0.285,-0.210
8.358,-0.300,-0.205
8.361,-0.315,-0.210
8.364,-0.310,-0.200
8.367,-0.300,-0.205
8.369,-0.290,-0.200
8.372,-0.295,-0.215
8.375,-0.305,-0.225
8.378,-0.310,-0.220
8.381,-0.300,-0.205
8.383,-0.295,-0.205
8.386,-0.290,-0.210
8.389,-0.285,-0.230
8.392,-0.300,-0.225
8.394,-0.295,-0.230
8.397,-0.300,-0.215
8.400,-0.280,-0.220
8.403,-0.280,-0.215
8.406,-0.285,-0.215
8.408,-0.310,-0.240
8.411,-0.300,-0.230
8.414,-0.295,-0.220
8.417,-0.265,-0.210
8.419,-0.270,-0.230
8.422,-0.290,-0.235
8.425,-0.300,-0.240
8.428,-0.285,-0.235
8.431,-0.275,-0.230
8.433,-0.280,-0.225
8.436,-0.280,-0.235
8.439,-0.305,-0.230
8.442,-0.300,-0.235
8.444,-0.300,-0.220
8.447,-0.305,-0.210
8.450,-0.285,-0.200
8.453,-0.285,-0.195
8.456,-0.315,-0.195
8.458,-0.320,-0.200
8.461,-0.315,-0.185
8.464,-0.305,-0.170
8.467,-0.285,-0.170
8.469,-0.290,-0.170
8.472,-0.295,-0.190
8.475,-0.290,-0.190
8.478,-0.310,-0.180
8.481,-0.285,-0.175
8.483,-0.270,-0.165
8.486,-0.270,-0.175
8.489,-0.260,-0.195
8.492,-0.255,-0.210
8.494,-0.255,-0.215
8.497,-0.235,-0.195
8.500,-0.225,-0.200
8.503,-0.225,-0.185
8.506,-0.220,-0.185
8.508,-0.215,-0.135
8.511,-0.190,0.000
8.514,-0.170,0.270
8.517,-0.145,0.665
8.519,-0.125,0.835
8.522,-0.085,0.660
8.525,0.060,0.370
8.528,0.410,0.215
8.531,0.810,0.155
8.533,0.940,0.090
8.536,0.700,0.020
8.539,0.365,-0.070
8.542,0.180,-0.135
8.544,0.140,-0.250
8.547,0.170,-0.385
8.550,0.180,-0.540
8.553,0.155,-0.705
8.556,0.120,-0.905
8.558,0.115,-1.130
8.561,0.110,-1.320
8.564,0.145,-1.465
8.567,0.160,-1.585
8.569,0.150,-1.705
8.572,0.130,-1.865
8.575,0.125,-2.045
8.578,0.120,-2.225
8.581,0.145,-2.400
8.583,0.165,-2.560
8.586,0.150,-2.680
8.589,0.140,-2.790
8.592,0.100,-2.905
8.594,0.080,-2.980
8.597,0.080,-3.055
8.600,0.055,-3.105
8.603,0.000,-3.140
8.606,-0.015,-3.185
8.608,-0.080,-3.220
8.611,-0.135,-3.240
8.614,-0.210,-3.235
8.617,-0.280,-3.255
8.619,-0.370,-3.255
8.622,-0.415,-3.265
8.625,-0.410,-3.265
8.628,-0.385,-3.250
8.631,-0.350,-3.205
8.633,-0.330,-3.150
8.636,-0.345,-3.080
8.639,-0.370,-2.985
8.642,-0.405,-2.860
8.644,-0.420,-2.700
8.647,-0.425,-2.545
8.650,-0.410,-2.330
8.653,-0.395,-2.120
8.656,-0.355,-1.910
8.658,-0.340,-1.680
8.661,-0.315,-1.430
8.664,-0.280,-1.180
8.667,-0.275,-0.955
8.669,-0.305,-0.755
8.672,-0.320,-0.560
8.675,-0.340,-0.360
8.678,-0.350,-0.160
8.681,-0.345,0.020
8.683,-0.320,0.180
8.686,-0.330,0.325
8.689,-0.320,0.430
8.692,-0.320,0.545
8.694,-0.310,0.620
8.697,-0.285,0.700
8.700,-0.275,0.745
8.703,-0.265,0.795
8.706,-0.275,0.820
8.708,-0.265,0.865
8.711,-0.260,0.925
8.714,-0.255,0.965
8.717,-0.240,0.995
8.719,-0.245,1.030
8.722,-0.250,1.055
8.725,-0.235,1.080
8.728,-0.245,1.125
8.731,-0.230,1.170
8.733,-0.210,1.215
8.736,-0.205,1.245
8.739,-0.215,1.275
8.742,-0.220,1.300
8.744,-0.215,1.360
8.747,-0.210,1.400
8.750,-0.210,1.435
8.753,-0.200,1.475
8.756,-0.200,1.500
8.758,-0.205,1.530
8.761,-0.200,1.585
8.764,-0.205,1.640
8.767,-0.185,1.675
8.769,-0.175,1.690
8.772,-0.170,1.720
8.775,-0.160,1.745
8.778,-0.160,1.785
8.781,-0.135,1.815
8.783,-0.120,1.845
8.786,-0.125,1.870
8.789,-0.140,1.880
8.792,-0.140,1.885
8.794,-0.130,1.915
8.797,-0.110,1.935
8.800,-0.110,1.955
8.803,-0.105,1.950
8.806,-0.100,1.940
8.808,-0.100,1.950
8.811,-0.105,1.945
8.814,-0.090,1.955
8.817,-0.065,1.930
8.819,-0.075,1.915
8.822,-0.060,1.880
8.825,-0.065,1.850
8.828,-0.070,1.825
8.831,-0.050,1.790
8.833,-0.040,1.745
8.836,-0.050,1.700
8.839,-0.040,1.645
8.842,-0.050,1.595
8.844,-0.050,1.545
8.847,-0.035,1.495
8.850,-0.030,1.445
8.853,-0.035,1.365
8.856,-0.060,1.305
8.858,-0.065,1.220
8.861,-0.065,1.160
8.864,-0.060,1.100
8.867,-0.040,1.040
8.869,-0.060,0.960
8.872,-0.070,0.880
8.875,-0.075,0.810
8.878,-0.100,0.750
8.881,-0.100,0.710
8.883,-0.100,0.655
8.886,-0.115,0.580
8.889,-0.120,0.530
8.892,-0.135,0.460
8.894,-0.145,0.420
8.897,-0.135,0.375
8.900,-0.135,0.325
8.903,-0.145,0.295
8.906,-0.160,0.250
8.908,-0.165,0.205
8.911,-0.165,0.195
8.914,-0.165,0.165
8.917,-0.170,0.145
8.919,-0.160,0.115
8.922,-0.195,0.090
8.925,-0.180,0.065
8.928,-0.200,0.065
8.931,-0.195,0.055
8.933,-0.190,0.035
8.936,-0.200,0.000
8.939,-0.215,0.000
8.942,-0.220,-0.015
8.944,-0.225,-0.025
8.947,-0.220,-0.025
8.950,-0.205,-0.025
8.953,-0.205,-0.030
8.956,-0.205,-0.055
8.958,-0.220,-0.065
8.961,-0.220,-0.070
8.964,-0.220,-0.045
8.967,-0.200,-0.060
8.969,-0.210,-0.065
8.972,-0.215,-0.075
8.975,-0.220,-0.075
8.978,-0.220,-0.070
8.981,-0.220,-0.050
8.983,-0.210,-0.055
8.986,-0.210,-0.060
8.989,-0.230,-0.060
8.992,-0.235,-0.080
8.994,-0.235,-0.055
8.997,-0.225,-0.055
9.000,-0.220,-0.055
9.003,-0.220,-0.050
9.006,-0.225,-0.060
9.008,-0.245,-0.050
9.011,-0.245,-0.050
9.014,-0.235,-0.040
9.017,-0.235,-0.045
9.019,-0.220,-0.030
9.022,-0.225,-0.055
9.025,-0.220,-0.055
9.028,-0.235,-0.045
9.031,-0.225,-0.025
9.033,-0.220,-0.025
9.036,-0.245,-0.035
9.039,-0.240,-0.040
9.042,-0.255,-0.055
9.044,-0.260,-0.055
9.047,-0.250,-0.035
9.050,-0.230,-0.030
9.053,-0.225,-0.040
9.056,-0.250,-0.045
9.058,-0.255,-0.055
9.061,-0.245,-0.050
9.064,-0.230,-0.040
9.067,-0.225,-0.035
9.069,-0.235,-0.045
9.072,-0.245,-0.055
9.075,-0.250,-0.070
9.078,-0.255,-0.060
9.081,-0.260,-0.055
9.083,-0.245,-0.055
9.086,-0.250,-0.070
9.089,-0.260,-0.090
9.092,-0.290,-0.090
9.094,-0.285,-0.085
9.097,-0.275,-0.075
9.100,-0.265,-0.080
9.103,-0.275,-0.090
9.106,-0.280,-0.100
9.108,-0.285,-0.110
9.111,-0.285,-0.110
9.114,-0.280,-0.105
9.117,-0.265,-0.110
9.119,-0.270,-0.120
9.122,-0.280,-0.135
9.125,-0.300,-0.140
9.128,-0.305,-0.135
9.131,-0.300,-0.125
9.133,-0.295,-0.140
9.136,-0.285,-0.145
9.139,-0.285,-0.155
9.142,-0.290,-0.170
9.144,-0.295,-0.155
9.147,-0.300,-0.160
9.150,-0.290,-0.155
9.153,-0.295,-0.160
9.156,-0.310,-0.175
9.158,-0.305,-0.170
9.161,-0.325,-0.170
9.164,-0.310,-0.175
9.167,-0.290,-0.175
9.169,-0.305,-0.175
9.172,-0.310,-0.195
9.175,-0.325,-0.200
9.178,-0.330,-0.180
9.181,-0.315,-0.185
9.183,-0.300,-0.185
9.186,-0.300,-0.195
9.189,-0.315,-0.215
9.192,-0.320,-0.210
9.194,-0.330,-0.190
9.197,-0.320,-0.190
9.200,-0.305,-0.205
9.203,-0.305,-0.200
9.206,-0.325,-0.220
9.208,-0.325,-0.230
9.211,-0.325,-0.215
9.214,-0.320,-0.195
9.217,-0.310,-0.205
9.219,-0.315,-0.210
9.222,-0.320,-0.230
9.225,-0.320,-0.235
9.228,-0.335,-0.220
9.231,-0.325,-0.210
9.233,-0.320,-0.215
9.236,-0.325,-0.210
9.239,-0.330,-0.220
9.242,-0.340,-0.235
9.244,-0.335,-0.220
9.247,-0.335,-0.215
9.250,-0.325,-0.215
9.253,-0.320,-0.215
9.256,-0.340,-0.235
9.258,-0.350,-0.240
9.261,-0.350,-0.225
9.264,-0.345,-0.215
9.267,-0.335,-0.220
9.269,-0.350,-0.215
9.272,-0.350,-0.235
9.275,-0.355,-0.240
9.278,-0.355,-0.235
9.281,-0.355,-0.210
9.283,-0.335,-0.225
9.286,-0.350,-0.215
9.289,-0.350,-0.230
9.292,-0.365,-0.225
9.294,-0.360,-0.225
9.297,-0.355,-0.215
9.300,-0.345,-0.215
9.303,-0.345,-0.220
9.306,-0.355,-0.220
9.308,-0.355,-0.220
9.311,-0.355,-0.210
9.314,-0.345,-0.190
9.317,-0.325,-0.185
9.319,-0.325,-0.185
9.322,-0.335,-0.175
9.325,-0.345,-0.175
9.328,-0.335,-0.160
9.331,-0.335,-0.145
9.333,-0.310,-0.145
9.336,-0.330,-0.145
9.339,-0.325,-0.155
9.342,-0.315,-0.140
9.344,-0.305,-0.085
9.347,-0.290,0.080
9.350,-0.240,0.415
9.353,-0.225,0.745
9.356,-0.185,0.745
9.358,-0.100,0.515
9.361,0.110,0.310
9.364,0.475,0.245
9.367,0.760,0.200
9.369,0.730,0.125
9.372,0.445,0.045
9.375,0.180,-0.020
9.378,0.080,-0.110
9.381,0.085,-0.220
9.383,0.110,-0.365
9.386,0.110,-0.540
9.389,0.100,-0.730
9.392,0.100,-0.915
9.394,0.100,-1.125
9.397,0.115,-1.285
9.400,0.130,-1.425
9.403,0.130,-1.580
9.406,0.090,-1.730
9.408,0.060,-1.890
9.411,0.040,-2.050
9.414,0.055,-2.235
9.417,0.045,-2.440
9.419,0.050,-2.620
9.422,0.030,-2.740
9.425,-0.005,-2.835
9.428,-0.030,-2.940
9.431,-0.065,-3.025
9.433,-0.075,-3.095
9.436,-0.140,-3.145
9.439,-0.200,-3.185
9.442,-0.235,-3.225
9.444,-0.280,-3.245
9.447,-0.325,-3.235
9.450,-0.375,-3.240
9.453,-0.450,-3.255
9.456,-0.525,-3.270
9.458,-0.580,-3.270
9.461,-0.570,-3.250
9.464,-0.530,-3.235
9.467,-0.470,-3.205
9.469,-0.440,-3.190
9.472,-0.425,-3.150
9.475,-0.415,-3.075
9.478,-0.425,-2.960
9.481,-0.440,-2.840
9.483,-0.440,-2.730
9.486,-0.450,-2.565
9.489,-0.465,-2.415
9.492,-0.465,-2.220
9.494,-0.440,-2.015
9.497,-0.410,-1.800
9.500,-0.370,-1.580
9.503,-0.350,-1.325
9.506,-0.355,-1.115
9.508,-0.385,-0.905
9.511,-0.400,-0.685
9.514,-0.410,-0.480
9.517,-0.405,-0.295
9.519,-0.415,-0.115
9.522,-0.435,0.035
9.525,-0.450,0.195
9.528,-0.450,0.335
9.531,-0.440,0.475
9.533,-0.430,0.565
9.536,-0.435,0.635
9.539,-0.430,0.700
9.542,-0.440,0.740
9.544,-0.420,0.795
9.547,-0.410,0.850
9.550,-0.395,0.890
9.553,-0.390,0.940
9.556,-0.395,0.950
9.558,-0.400,0.995
9.561,-0.395,1.045
9.564,-0.375,1.090
9.567,-0.375,1.105
9.569,-0.375,1.135
9.572,-0.380,1.165
9.575,-0.375,1.180
9.578,-0.370,1.235
9.581,-0.360,1.270
9.583,-0.340,1.305
9.586,-0.355,1.330
9.589,-0.360,1.355
9.592,-0.370,1.385
9.594,-0.345,1.425
9.597,-0.345,1.480
9.600,-0.330,1.495
9.603,-0.335,1.530
9.606,-0.330,1.540
9.608,-0.340,1.565
9.611,-0.330,1.610
9.614,-0.340,1.645
9.617,-0.330,1.685
9.619,-0.320,1.705
9.622,-0.310,1.730
9.625,-0.325,1.745
9.628,-0.325,1.790
9.631,-0.305,1.825
9.633,-0.290,1.850
9.636,-0.290,1.875
9.639,-0.295,1.875
9.642,-0.300,1.910
9.644,-0.295,1.935
9.647,-0.290,1.955
9.650,-0.260,1.970
9.653,-0.265,1.975
9.656,-0.275,1.975
9.658,-0.275,1.975
9.661,-0.275,1.990
9.664,-0.255,1.995
9.667,-0.230,1.995
9.669,-0.245,1.990
9.672,-0.250,1.970
9.675,-0.250,1.945
9.678,-0.240,1.930
9.681,-0.230,1.920
9.683,-0.225,1.890
9.686,-0.225,1.855
9.689,-0.235,1.810
9.692,-0.225,1.765
9.694,-0.210,1.730
9.697,-0.210,1.695
9.700,-0.205,1.655
9.703,-0.200,1.595
9.706,-0.205,1.525
9.708,-0.215,1.465
9.711,-0.205,1.425
9.714,-0.195,1.355
9.717,-0.200,1.305
9.719,-0.205,1.230
9.722,-0.210,1.155
9.725,-0.215,1.095
9.728,-0.230,1.055
9.731,-0.210,1.000
9.733,-0.195,0.955
9.736,-0.210,0.895
9.739,-0.225,0.820
9.742,-0.225,0.760
9.744,-0.225,0.705
9.747,-0.230,0.660
9.750,-0.235,0.605
9.753,-0.240,0.555
9.756,-0.245,0.490
9.758,-0.255,0.440
9.761,-0.255,0.415
9.764,-0.255,0.385
9.767,-0.250,0.350
9.769,-0.255,0.300
9.772,-0.270,0.260
9.775,-0.290,0.215
9.778,-0.285,0.195
9.781,-0.285,0.185
9.783,-0.280,0.155
9.786,-0.295,0.120
9.789,-0.300,0.085
9.792,-0.315,0.065
9.794,-0.325,0.055
9.797,-0.310,0.050
9.800,-0.300,0.030
9.803,-0.300,0.015
9.806,-0.310,-0.010
9.808,-0.330,-0.015
9.811,-0.330,-0.025
9.814,-0.320,-0.025
9.817,-0.325,-0.030
9.819,-0.315,-0.040
9.822,-0.325,-0.060
9.825,-0.335,-0.075
9.828,-0.340,-0.070
9.831,-0.335,-0.060
9.833,-0.325,-0.075
9.836,-0.325,-0.075
9.839,-0.325,-0.075
9.842,-0.340,-0.095
9.844,-0.340,-0.075
9.847,-0.340,-0.060
9.850,-0.330,-0.070
9.853,-0.330,-0.065
9.856,-0.335,-0.075
9.858,-0.335,-0.070
9.861,-0.340,-0.065
9.864,-0.335,-0.060
9.867,-0.335,-0.055
9.869,-0.330,-0.055
9.872,-0.335,-0.060
9.875,-0.335,-0.070
9.878,-0.345,-0.060
9.881,-0.340,-0.030
9.883,-0.320,-0.040
9.886,-0.310,-0.045
9.889,-0.330,-0.045
9.892,-0.350,-0.060
9.894,-0.340,-0.035
9.897,-0.330,-0.025
9.900,-0.335,-0.030
9.903,-0.315,-0.025
9.906,-0.320,-0.025
9.908,-0.335,-0.040
9.911,-0.330,-0.020
9.914,-0.330,-0.010
9.917,-0.325,-0.025
9.919,-0.320,-0.035
9.922,-0.330,-0.030
9.925,-0.330,-0.030
9.928,-0.345,-0.025
9.931,-0.335,-0.015
9.933,-0.330,-0.030
9.936,-0.335,-0.040
9.939,-0.340,-0.040
9.942,-0.340,-0.050
9.944,-0.340,-0.040
9.947,-0.350,-0.035
9.950,-0.340,-0.040
9.953,-0.340,-0.045
9.956,-0.350,-0.065
9.958,-0.355,-0.070
9.961,-0.345,-0.085
9.964,-0.340,-0.060
9.967,-0.335,-0.070
9.969,-0.350,-0.085
9.972,-0.355,-0.100
9.975,-0.355,-0.105
9.978,-0.380,-0.105
9.981,-0.370,-0.105
9.983,-0.355,-0.095
9.986,-0.350,-0.115
9.989,-0.370,-0.115
9.992,-0.370,-0.135
9.994,-0.360,-0.115
9.997,-0.360,-0.125
10.000,-0.355,-0.135
10.003,-0.355,-0.135
10.006,-0.360,-0.155
10.008,-0.375,-0.175
10.011,-0.370,-0.160
10.014,-0.365,-0.150
10.017,-0.355,-0.160
10.019,-0.365,-0.155
10.022,-0.380,-0.170
10.025,-0.395,-0.175
10.028,-0.380,-0.170
10.031,-0.380,-0.170
10.033,-0.380,-0.170
10.036,-0.375,-0.180
10.039,-0.380,-0.185
10.042,-0.395,-0.190
10.044,-0.395,-0.190
10.047,-0.390,-0.180
10.050,-0.370,-0.190
10.053,-0.375,-0.195
10.056,-0.385,-0.210
10.058,-0.395,-0.210
10.061,-0.395,-0.190
10.064,-0.385,-0.200
10.067,-0.375,-0.195
10.069,-0.375,-0.195
10.072,-0.375,-0.210
10.075,-0.405,-0.220
10.078,-0.395,-0.210
10.081,-0.385,-0.195
10.083,-0.375,-0.215
10.086,-0.380,-0.215
10.089,-0.380,-0.225
10.092,-0.395,-0.225
10.094,-0.405,-0.215
10.097,-0.395,-0.210
10.100,-0.385,-0.225
10.103,-0.380,-0.215
10.106,-0.395,-0.230
10.108,-0.400,-0.230
10.111,-0.405,-0.240
10.114,-0.400,-0.210
10.117,-0.385,-0.210
10.119,-0.395,-0.220
10.122,-0.395,-0.245
10.125,-0.410,-0.230
10.128,-0.405,-0.235
10.131,-0.405,-0.225
10.133,-0.400,-0.225
10.136,-0.395,-0.230
10.139,-0.400,-0.245
10.142,-0.395,-0.240
10.144,-0.400,-0.225
10.147,-0.385,-0.210
10.150,-0.370,-0.225
10.153,-0.380,-0.230
10.156,-0.385,-0.235
10.158,-0.395,-0.235
10.161,-0.400,-0.225
10.164,-0.400,-0.230
10.167,-0.390,-0.220
10.169,-0.380,-0.220
10.172,-0.400,-0.235
10.175,-0.395,-0.240
10.178,-0.390,-0.235
10.181,-0.375,-0.230
10.183,-0.385,-0.225
10.186,-0.390,-0.230
10.189,-0.385,-0.235
10.192,-0.400,-0.245
10.194,-0.385,-0.230
10.197,-0.380,-0.215
10.200,-0.370,-0.225
10.203,-0.385,-0.225
10.206,-0.385,-0.240
10.208,-0.400,-0.240
10.211,-0.390,-0.230
10.214,-0.380,-0.220
10.217,-0.370,-0.210
10.219,-0.370,-0.200
10.222,-0.375,-0.215
10.225,-0.380,-0.195
10.228,-0.360,-0.140
10.231,-0.350,-0.010
10.233,-0.320,0.285
10.236,-0.305,0.665
10.239,-0.275,0.835
10.242,-0.225,0.675
10.244,-0.095,0.415
10.247,0.210,0.285
10.250,0.585,0.220
10.253,0.710,0.150
10.256,0.525,0.080
10.258,0.220,0.010
10.261,0.050,-0.060
10.264,0.035,-0.135
10.267,0.050,-0.255
10.269,0.045,-0.400
10.272,0.025,-0.555
10.275,0.015,-0.720
10.278,0.015,-0.910
10.281,0.015,-1.100
10.283,0.025,-1.280
10.286,0.030,-1.425
10.289,0.010,-1.575
10.292,-0.010,-1.710
10.294,-0.025,-1.855
10.297,-0.040,-2.005
10.300,-0.020,-2.200
10.303,-0.025,-2.415
10.306,-0.030,-2.590
10.308,-0.050,-2.710
10.311,-0.075,-2.810
10.314,-0.085,-2.895
10.317,-0.105,-2.980
10.319,-0.135,-3.075
10.322,-0.190,-3.160
10.325,-0.255,-3.210
10.328,-0.325,-3.235
10.331,-0.400,-3.235
10.333,-0.440,-3.260
10.336,-0.500,-3.275
10.339,-0.580,-3.290
10.342,-0.670,-3.290
10.344,-0.720,-3.300
10.347,-0.700,-3.280
10.350,-0.650,-3.270
10.353,-0.595,-3.265
10.356,-0.565,-3.260
10.358,-0.525,-3.240
10.361,-0.500,-3.185
10.364,-0.500,-3.100
10.367,-0.490,-3.000
10.369,-0.505,-2.875
10.372,-0.510,-2.720
10.375,-0.520,-2.525
10.378,-0.500,-2.305
10.381,-0.480,-2.050
10.383,-0.435,-1.790
10.386,-0.390,-1.530
10.389,-0.375,-1.285
10.392,-0.380,-1.035
10.394,-0.395,-0.800
10.397,-0.400,-0.585
10.400,-0.410,-0.375
10.403,-0.430,-0.165
10.406,-0.440,0.000
10.408,-0.450,0.175
10.411,-0.445,0.355
10.414,-0.445,0.495
10.417,-0.430,0.580
10.419,-0.440,0.650
10.422,-0.440,0.710
10.425,-0.445,0.755
10.428,-0.445,0.805
10.431,-0.440,0.845
10.433,-0.430,0.880
10.436,-0.420,0.915
10.439,-0.430,0.935
10.442,-0.430,0.970
10.444,-0.430,1.005
10.447,-0.415,1.050
10.450,-0.420,1.080
10.453,-0.420,1.100
10.456,-0.420,1.120
10.458,-0.430,1.145
10.461,-0.410,1.180
10.464,-0.425,1.220
10.467,-0.400,1.245
10.469,-0.400,1.270
10.472,-0.405,1.280
10.475,-0.415,1.315
10.478,-0.415,1.360
10.481,-0.405,1.390
10.483,-0.390,1.430
10.486,-0.405,1.460
10.489,-0.405,1.485
10.492,-0.400,1.515
10.494,-0.390,1.550
10.497,-0.375,1.595
10.500,-0.370,1.620
10.503,-0.355,1.660
10.506,-0.365,1.690
10.508,-0.375,1.720
10.511,-0.375,1.765
10.514,-0.345,1.800
10.517,-0.330,1.830
10.519,-0.345,1.860
10.522,-0.340,1.875
10.525,-0.330,1.900
10.528,-0.330,1.935
10.531,-0.315,1.970
10.533,-0.295,1.990
10.536,-0.285,2.010
10.539,-0.290,2.020
10.542,-0.295,2.005
10.544,-0.275,2.015
10.547,-0.270,2.035
10.550,-0.245,2.025
10.553,-0.240,2.020
10.556,-0.250,1.985
10.558,-0.250,1.965
10.561,-0.240,1.950
10.564,-0.230,1.945
10.567,-0.200,1.900
10.569,-0.200,1.865
10.572,-0.210,1.810
10.575,-0.215,1.765
10.578,-0.215,1.715
10.581,-0.200,1.675
10.583,-0.185,1.620
10.586,-0.175,1.560
10.589,-0.200,1.475
10.592,-0.210,1.400
10.594,-0.200,1.345
10.597,-0.185,1.280
10.600,-0.170,1.205
10.603,-0.170,1.130
10.606,-0.185,1.035
10.608,-0.195,0.965
10.611,-0.205,0.910
10.614,-0.210,0.840
10.617,-0.205,0.775
10.619,-0.200,0.720
10.622,-0.210,0.640
10.625,-0.225,0.585
10.628,-0.230,0.540
10.631,-0.220,0.505
10.633,-0.215,0.460
10.636,-0.220,0.410
10.639,-0.245,0.355
10.642,-0.255,0.325
10.644,-0.255,0.295
10.647,-0.250,0.255
10.650,-0.255,0.225
10.653,-0.255,0.215
10.656,-0.270,0.170
10.658,-0.290,0.135
10.661,-0.275,0.130
10.664,-0.280,0.130
10.667,-0.270,0.115
10.669,-0.285,0.090
10.672,-0.280,0.080
10.675,-0.295,0.060
10.678,-0.290,0.055
10.681,-0.295,0.070
10.683,-0.285,0.035
10.686,-0.285,0.040
10.689,-0.295,0.030
10.692,-0.305,0.025
10.694,-0.315,0.020
10.697,-0.300,0.035
10.700,-0.300,0.020
10.703,-0.295,0.010
10.706,-0.305,0.000
10.708,-0.325,0.010
10.711,-0.330,0.015
10.714,-0.310,0.035
10.717,-0.305,0.025
10.719,-0.305,0.020
10.722,-0.315,0.010
10.725,-0.340,0.010
10.728,-0.335,0.025
10.731,-0.315,0.025
10.733,-0.320,0.030
10.736,-0.310,0.035
10.739,-0.325,0.020
10.742,-0.330,0.010
10.744,-0.330,0.025
10.747,-0.325,0.030
10.750,-0.305,0.040
10.753,-0.315,0.035
10.756,-0.325,0.025
10.758,-0.340,0.025
10.761,-0.345,0.020
10.764,-0.325,0.025
10.767,-0.310,0.035
10.769,-0.320,0.015
10.772,-0.330,0.015
10.775,-0.335,0.010
10.778,-0.330,0.015
10.781,-0.320,0.010
10.783,-0.325,0.005
10.786,-0.335,0.000
10.789,-0.335,-0.010
10.792,-0.350,-0.020
10.794,-0.345,-0.020
10.797,-0.325,-0.010
10.800,-0.330,-0.020
10.803,-0.325,-0.020
10.806,-0.335,-0.035
10.808,-0.360,-0.045
10.811,-0.360,-0.035
10.814,-0.355,-0.035
10.817,-0.350,-0.040
10.819,-0.345,-0.050
10.822,-0.360,-0.070
10.825,-0.365,-0.070
10.828,-0.365,-0.080
10.831,-0.345,-0.080
10.833,-0.340,-0.085
10.836,-0.350,-0.090
10.839,-0.350,-0.110
10.842,-0.365,-0.110
10.844,-0.370,-0.110
10.847,-0.355,-0.095
10.850,-0.360,-0.110
10.853,-0.365,-0.110
10.856,-0.375,-0.125
10.858,-0.385,-0.125
10.861,-0.390,-0.115
10.864,-0.365,-0.120
10.867,-0.360,-0.120
10.869,-0.370,-0.125
10.872,-0.380,-0.135
10.875,-0.390,-0.135
10.878,-0.370,-0.140
10.881,-0.365,-0.130
10.883,-0.370,-0.135
10.886,-0.360,-0.140
10.889,-0.365,-0.180
10.892,-0.385,-0.160
10.894,-0.375,-0.145
10.897,-0.375,-0.150
10.900,-0.375,-0.150
10.903,-0.380,-0.160
10.906,-0.380,-0.175
10.908,-0.400,-0.170
10.911,-0.375,-0.165
10.914,-0.380,-0.160
10.917,-0.370,-0.170
10.919,-0.385,-0.160
10.922,-0.385,-0.185
10.925,-0.400,-0.190
10.928,-0.390,-0.185
10.931,-0.390,-0.170
10.933,-0.375,-0.165
10.936,-0.370,-0.185
10.939,-0.370,-0.190
10.942,-0.390,-0.185
10.944,-0.375,-0.180
10.947,-0.365,-0.170
10.950,-0.365,-0.185
10.953,-0.375,-0.180
10.956,-0.385,-0.190
10.958,-0.405,-0.190
10.961,-0.395,-0.185
10.964,-0.375,-0.170
10.967,-0.360,-0.180
10.969,-0.355,-0.195
10.972,-0.350,-0.195
10.975,-0.365,-0.200
10.978,-0.350,-0.185
10.981,-0.370,-0.185
10.983,-0.365,-0.180
10.986,-0.365,-0.195
10.989,-0.380,-0.200
10.992,-0.380,-0.195
10.994,-0.375,-0.180
10.997,-0.360,-0.185
11.000,-0.350,-0.180
11.003,-0.350,-0.185
11.006,-0.350,-0.200
11.008,-0.360,-0.210
11.011,-0.350,-0.190
11.014,-0.355,-0.185
11.017,-0.345,-0.190
11.019,-0.350,-0.205
11.022,-0.365,-0.205
11.025,-0.375,-0.205
11.028,-0.370,-0.200
11.031,-0.360,-0.190
11.033,-0.355,-0.185
11.036,-0.345,-0.200
11.039,-0.365,-0.210
11.042,-0.360,-0.215
11.044,-0.360,-0.190
11.047,-0.340,-0.180
11.050,-0.340,-0.190
11.053,-0.345,-0.180
11.056,-0.360,-0.205
11.058,-0.360,-0.200
11.061,-0.350,-0.185
11.064,-0.345,-0.175
11.067,-0.330,-0.180
11.069,-0.320,-0.175
11.072,-0.315,-0.160
11.075,-0.320,-0.145
11.078,-0.305,-0.065
11.081,-0.295,0.085
11.083,-0.270,0.420
11.086,-0.250,0.790
11.089,-0.235,0.925
11.092,-0.175,0.740
11.094,-0.030,0.485
11.097,0.285,0.340
11.100,0.660,0.265
11.103,0.810,0.195
11.106,0.610,0.125
11.108,0.295,0.050
11.111,0.125,-0.020
11.114,0.085,-0.125
11.117,0.115,-0.265
11.119,0.125,-0.425
11.122,0.105,-0.605
11.125,0.090,-0.815
11.128,0.090,-1.045
11.131,0.100,-1.250
11.133,0.095,-1.445
11.136,0.110,-1.585
11.139,0.085,-1.755
11.142,0.060,-1.905
11.144,0.040,-2.085
11.147,0.045,-2.285
11.150,0.045,-2.485
11.153,0.035,-2.645
11.156,0.015,-2.765
11.158,-0.015,-2.855
11.161,-0.045,-2.935
11.164,-0.060,-3.010
11.167,-0.100,-3.085
11.169,-0.160,-3.150
11.172,-0.225,-3.190
11.175,-0.300,-3.225
11.178,-0.360,-3.240
11.181,-0.420,-3.235
11.183,-0.490,-3.245
11.186,-0.580,-3.255
11.189,-0.665,-3.270
11.192,-0.710,-3.265
11.194,-0.695,-3.255
11.197,-0.655,-3.230
11.200,-0.600,-3.210
11.203,-0.560,-3.190
11.206,-0.540,-3.135
11.208,-0.550,-3.045
11.211,-0.550,-2.910
11.214,-0.540,-2.745
11.217,-0.520,-2.565
11.219,-0.515,-2.355
11.222,-0.485,-2.140
11.225,-0.455,-1.885
11.228,-0.405,-1.620
11.231,-0.355,-1.350
11.233,-0.340,-1.090
11.236,-0.350,-0.850
11.239,-0.365,-0.640
11.242,-0.355,-0.405
11.244,-0.340,-0.185
11.247,-0.330,0.010
11.250,-0.315,0.180
11.253,-0.325,0.340
11.256,-0.330,0.480
11.258,-0.335,0.605
11.261,-0.325,0.700
11.264,-0.300,0.770
11.267,-0.275,0.820
11.269,-0.255,0.855
11.272,-0.245,0.875
11.275,-0.240,0.905
11.278,-0.240,0.935
11.281,-0.225,0.965
11.283,-0.220,1.000
11.286,-0.230,1.020
11.289,-0.230,1.040
11.292,-0.240,1.065
11.294,-0.230,1.110
11.297,-0.235,1.140
11.300,-0.220,1.175
11.303,-0.215,1.205
11.306,-0.220,1.235
11.308,-0.245,1.250
11.311,-0.260,1.270
11.314,-0.250,1.320
11.317,-0.255,1.350
11.319,-0.255,1.375
11.322,-0.260,1.385
11.325,-0.275,1.435
11.328,-0.275,1.475
11.331,-0.280,1.505
11.333,-0.265,1.550
11.336,-0.270,1.575
11.339,-0.280,1.605
11.342,-0.290,1.630
11.344,-0.275,1.665
11.347,-0.265,1.710
11.350,-0.250,1.740
11.353,-0.250,1.775
11.356,-0.255,1.795
11.358,-0.270,1.820
11.361,-0.285,1.845
11.364,-0.275,1.890
11.367,-0.260,1.900
11.369,-0.260,1.920
11.372,-0.250,1.925
11.375,-0.245,1.955
11.378,-0.230,1.980
11.381,-0.225,1.985
11.383,-0.205,1.990
11.386,-0.205,1.990
11.389,-0.200,1.970
11.392,-0.205,1.965
11.394,-0.190,1.950
11.397,-0.165,1.945
11.400,-0.140,1.920
11.403,-0.120,1.880
11.406,-0.125,1.830
11.408,-0.130,1.785
11.411,-0.135,1.750
11.414,-0.130,1.695
11.417,-0.130,1.645
11.419,-0.115,1.565
11.422,-0.100,1.490
11.425,-0.090,1.425
11.428,-0.100,1.365
11.431,-0.075,1.305
11.433,-0.080,1.225
11.436,-0.090,1.140
11.439,-0.100,1.065
11.442,-0.105,0.985
11.444,-0.110,0.920
11.447,-0.105,0.860
11.450,-0.090,0.790
11.453,-0.100,0.725
11.456,-0.115,0.655
11.458,-0.120,0.580
11.461,-0.120,0.540
11.464,-0.120,0.500
11.467,-0.120,0.460
11.469,-0.125,0.410
11.472,-0.140,0.360
11.475,-0.145,0.325
11.478,-0.145,0.290
11.481,-0.145,0.285
11.483,-0.145,0.235
11.486,-0.150,0.205
11.489,-0.170,0.180
11.492,-0.175,0.165
11.494,-0.185,0.160
11.497,-0.180,0.150
11.500,-0.185,0.130
11.503,-0.200,0.110
11.506,-0.215,0.085
11.508,-0.225,0.100
11.511,-0.220,0.085
11.514,-0.200,0.090
11.517,-0.180,0.080
11.519,-0.210,0.070
11.522,-0.215,0.060
11.525,-0.225,0.060
11.528,-0.215,0.065
11.531,-0.210,0.070
11.533,-0.210,0.070
11.536,-0.215,0.050
11.539,-0.235,0.035
11.542,-0.240,0.040
11.544,-0.255,0.050
11.547,-0.230,0.060
11.550,-0.220,0.055
11.553,-0.230,0.055
11.556,-0.225,0.050
11.558,-0.240,0.045
11.561,-0.230,0.065
11.564,-0.245,0.060
11.567,-0.230,0.065
11.569,-0.235,0.070
11.572,-0.245,0.040
11.575,-0.255,0.050
11.578,-0.250,0.055
11.581,-0.230,0.055
11.583,-0.220,0.050
11.586,-0.240,0.050
11.589,-0.250,0.045
11.592,-0.260,0.030
11.594,-0.250,0.045
11.597,-0.250,0.060
11.600,-0.230,0.055
11.603,-0.235,0.045
11.606,-0.240,0.035
11.608,-0.255,0.030
11.611,-0.260,0.030
11.614,-0.245,0.030
11.617,-0.255,0.035
11.619,-0.255,0.020
11.622,-0.255,0.000
11.625,-0.270,-0.005
11.628,-0.270,0.005
11.631,-0.265,0.005
11.633,-0.250,0.000
11.636,-0.245,-0.010
11.639,-0.250,-0.030
11.642,-0.265,-0.025
11.644,-0.270,-0.020
11.647,-0.270,-0.025
11.650,-0.265,-0.030
11.653,-0.270,-0.035
11.656,-0.280,-0.065
11.658,-0.265,-0.055
11.661,-0.270,-0.050
11.664,-0.280,-0.050
11.667,-0.270,-0.055
11.669,-0.270,-0.070
11.672,-0.285,-0.090
11.675,-0.290,-0.095
11.678,-0.290,-0.090
11.681,-0.285,-0.080
11.683,-0.275,-0.085
11.686,-0.280,-0.100
11.689,-0.290,-0.115
11.692,-0.305,-0.110
11.694,-0.295,-0.105
11.697,-0.290,-0.090
11.700,-0.280,-0.100
11.703,-0.280,-0.105
11.706,-0.280,-0.120
11.708,-0.310,-0.120
11.711,-0.300,-0.125
11.714,-0.300,-0.110
11.717,-0.275,-0.130
11.719,-0.285,-0.125
11.722,-0.285,-0.140
11.725,-0.295,-0.140
11.728,-0.295,-0.125
11.731,-0.300,-0.130
11.733,-0.285,-0.125
11.736,-0.290,-0.135
11.739,-0.295,-0.140
11.742,-0.305,-0.150
11.744,-0.295,-0.135
11.747,-0.290,-0.130
11.750,-0.285,-0.140
11.753,-0.290,-0.140
11.756,-0.290,-0.155
11.758,-0.310,-0.150
11.761,-0.310,-0.145
11.764,-0.300,-0.150
11.767,-0.295,-0.145
11.769,-0.295,-0.145
11.772,-0.295,-0.165
11.775,-0.300,-0.165
11.778,-0.295,-0.155
11.781,-0.290,-0.140
11.783,-0.285,-0.145
11.786,-0.280,-0.150
11.789,-0.295,-0.165
11.792,-0.300,-0.170
11.794,-0.310,-0.155
11.797,-0.290,-0.145
11.800,-0.290,-0.155
11.803,-0.290,-0.165
11.806,-0.295,-0.170
11.808,-0.295,-0.165
11.811,-0.295,-0.160
11.814,-0.295,-0.150
11.817,-0.305,-0.150
11.819,-0.295,-0.160
11.822,-0.305,-0.165
11.825,-0.305,-0.165
11.828,-0.310,-0.160
11.831,-0.305,-0.150
11.833,-0.290,-0.155
11.836,-0.295,-0.165
11.839,-0.290,-0.175
11.842,-0.300,-0.180
11.844,-0.290,-0.165
11.847,-0.285,-0.160
11.850,-0.270,-0.170
11.853,-0.280,-0.165
11.856,-0.280,-0.185
11.858,-0.290,-0.180
11.861,-0.300,-0.175
11.864,-0.270,-0.160
11.867,-0.280,-0.170
11.869,-0.285,-0.170
11.872,-0.285,-0.170
11.875,-0.300,-0.165
11.878,-0.290,-0.160
11.881,-0.275,-0.140
11.883,-0.265,-0.140
11.886,-0.255,-0.115
11.889,-0.255,-0.065
11.892,-0.260,0.080
11.894,-0.230,0.430
11.897,-0.200,0.835
11.900,-0.140,0.920
11.903,-0.065,0.680
11.906,0.130,0.420
11.908,0.500,0.295
11.911,0.815,0.245
11.914,0.760,0.215
11.917,0.445,0.145
11.919,0.200,0.075
11.922,0.115,-0.035
11.925,0.120,-0.180
11.928,0.150,-0.330
11.931,0.160,-0.500
11.933,0.170,-0.705
11.936,0.165,-0.950
11.939,0.160,-1.175
11.942,0.155,-1.380
11.944,0.160,-1.535
11.947,0.145,-1.695
11.950,0.135,-1.865
11.953,0.130,-2.060
11.956,0.090,-2.285
11.958,0.095,-2.495
11.961,0.075,-2.630
11.964,0.055,-2.730
11.967,0.015,-2.825
11.969,-0.030,-2.940
11.972,-0.075,-3.030
11.975,-0.150,-3.110
11.978,-0.200,-3.140
11.981,-0.275,-3.155
11.983,-0.330,-3.190
11.986,-0.410,-3.215
11.989,-0.500,-3.235
11.992,-0.595,-3.235
11.994,-0.640,-3.235
11.997,-0.650,-3.225
12.000,-0.610,-3.210
12.003,-0.575,-3.205
12.006,-0.550,-3.195
12.008,-0.535,-3.145
12.011,-0.525,-3.050
12.014,-0.510,-2.940
12.017,-0.495,-2.795
12.019,-0.490,-2.635
12.022,-0.465,-2.450
12.025,-0.450,-2.225
12.028,-0.420,-1.965
12.031,-0.370,-1.695
12.033,-0.320,-1.420
12.036,-0.310,-1.155
12.039,-0.315,-0.925
12.042,-0.335,-0.685
12.044,-0.345,-0.450
12.047,-0.340,-0.235
12.050,-0.335,-0.020
12.053,-0.340,0.155
12.056,-0.345,0.340
12.058,-0.350,0.500
12.061,-0.340,0.630
12.064,-0.325,0.715
12.067,-0.315,0.795
12.069,-0.305,0.835
12.072,-0.305,0.865
12.075,-0.320,0.905
12.078,-0.305,0.965
12.081,-0.290,1.020
12.083,-0.290,1.040
12.086,-0.295,1.065
12.089,-0.295,1.100
12.092,-0.305,1.115
12.094,-0.290,1.150
12.097,-0.275,1.200
12.100,-0.270,1.230
12.103,-0.270,1.250
12.106,-0.270,1.260
12.108,-0.280,1.310
12.111,-0.275,1.340
12.114,-0.265,1.385
12.117,-0.260,1.415
12.119,-0.255,1.455
12.122,-0.260,1.455
12.125,-0.275,1.490
12.128,-0.265,1.535
12.131,-0.265,1.575
12.133,-0.250,1.615
12.136,-0.250,1.650
12.139,-0.255,1.680
12.142,-0.260,1.720
12.144,-0.250,1.765
12.147,-0.235,1.810
12.150,-0.230,1.830
12.153,-0.235,1.870
12.156,-0.235,1.885
12.158,-0.240,1.915
12.161,-0.225,1.955
12.164,-0.215,1.980
12.167,-0.205,2.005
12.169,-0.195,2.020
12.172,-0.210,2.030
12.175,-0.215,2.045
12.178,-0.195,2.065
12.181,-0.180,2.090
12.183,-0.160,2.090
12.186,-0.155,2.090
12.189,-0.160,2.070
12.192,-0.160,2.070
12.194,-0.145,2.065
12.197,-0.125,2.045
12.200,-0.110,2.025
12.203,-0.110,2.000
12.206,-0.110,1.940
12.208,-0.130,1.900
12.211,-0.105,1.850
12.214,-0.095,1.795
12.217,-0.070,1.730
12.219,-0.075,1.660
12.222,-0.075,1.585
12.225,-0.070,1.510
12.228,-0.070,1.440
12.231,-0.045,1.380
12.233,-0.040,1.290
12.236,-0.050,1.200
12.239,-0.075,1.120
12.242,-0.090,1.040
12.244,-0.080,0.980
12.247,-0.070,0.925
12.250,-0.075,0.850
12.253,-0.080,0.780
12.256,-0.095,0.715
12.258,-0.115,0.655
12.261,-0.110,0.615
12.264,-0.110,0.575
12.267,-0.120,0.535
12.269,-0.150,0.485
12.272,-0.175,0.420
12.275,-0.190,0.390
12.278,-0.195,0.360
12.281,-0.180,0.345
12.283,-0.195,0.310
12.286,-0.200,0.275
12.289,-0.215,0.235
12.292,-0.230,0.210
12.294,-0.220,0.195
12.297,-0.235,0.185
12.300,-0.225,0.160
12.303,-0.235,0.140
12.306,-0.250,0.130
12.308,-0.255,0.110
12.311,-0.255,0.110
12.314,-0.255,0.105
12.317,-0.250,0.110
12.319,-0.255,0.085
12.322,-0.265,0.070
12.325,-0.280,0.065
12.328,-0.285,0.075
12.331,-0.265,0.080
12.333,-0.270,0.060
12.336,-0.285,0.065
12.339,-0.300,0.050
12.342,-0.305,0.050
12.344,-0.280,0.055
12.347,-0.280,0.065
12.350,-0.275,0.065
12.353,-0.290,0.055
12.356,-0.295,0.040
12.358,-0.315,0.030
12.361,-0.300,0.055
12.364,-0.290,0.075
12.367,-0.290,0.075
12.369,-0.290,0.075
12.372,-0.300,0.060
12.375,-0.310,0.050
12.378,-0.310,0.060
12.381,-0.300,0.075
12.383,-0.295,0.070
12.386,-0.320,0.070
12.389,-0.305,0.055
12.392,-0.325,0.045
12.394,-0.315,0.060
12.397,-0.300,0.075
12.400,-0.305,0.065
12.403,-0.310,0.060
12.406,-0.305,0.045
12.408,-0.325,0.050
12.411,-0.325,0.055
12.414,-0.315,0.055
12.417,-0.315,0.050
12.419,-0.315,0.035
12.422,-0.325,0.020
12.425,-0.340,0.020
12.428,-0.330,0.025
12.431,-0.320,0.030
12.433,-0.310,0.020
12.436,-0.325,0.010
12.439,-0.340,0.000
12.442,-0.345,0.000
12.444,-0.345,0.005
12.447,-0.335,0.020
12.450,-0.345,0.010
12.453,-0.345,-0.015
12.456,-0.355,-0.015
12.458,-0.365,-0.020
12.461,-0.370,-0.030
12.464,-0.345,-0.025
12.467,-0.360,-0.035
12.469,-0.350,-0.040
12.472,-0.360,-0.050
12.475,-0.375,-0.055
12.478,-0.375,-0.055
12.481,-0.365,-0.050
12.483,-0.355,-0.055
12.486,-0.360,-0.060
12.489,-0.370,-0.085
12.492,-0.395,-0.080
12.494,-0.390,-0.080
12.497,-0.380,-0.070
12.500,-0.375,-0.070
12.503,-0.370,-0.080
12.506,-0.365,-0.095
12.508,-0.385,-0.090
12.511,-0.380,-0.100
12.514,-0.375,-0.085
12.517,-0.365,-0.080
12.519,-0.360,-0.110
12.522,-0.375,-0.105
12.525,-0.395,-0.105
12.528,-0.385,-0.100
12.531,-0.375,-0.090
12.533,-0.375,-0.100
12.536,-0.370,-0.120
12.539,-0.370,-0.115
12.542,-0.380,-0.115
12.544,-0.380,-0.105
12.547,-0.375,-0.105
12.550,-0.370,-0.100
12.553,-0.380,-0.105
12.556,-0.395,-0.120
12.558,-0.410,-0.125
12.561,-0.395,-0.125
12.564,-0.380,-0.105
12.567,-0.380,-0.110
12.569,-0.365,-0.130
12.572,-0.380,-0.135
12.575,-0.380,-0.125
12.578,-0.395,-0.120
12.581,-0.385,-0.105
12.583,-0.375,-0.115
12.586,-0.380,-0.125
12.589,-0.380,-0.135
12.592,-0.385,-0.135
12.594,-0.400,-0.125
12.597,-0.375,-0.120
12.600,-0.380,-0.130
12.603,-0.370,-0.130
12.606,-0.385,-0.140
12.608,-0.390,-0.145
12.611,-0.400,-0.135
12.614,-0.385,-0.120
12.617,-0.370,-0.125
12.619,-0.375,-0.135
12.622,-0.390,-0.145
12.625,-0.390,-0.155
12.628,-0.385,-0.145
12.631,-0.375,-0.130
12.633,-0.375,-0.130
12.636,-0.390,-0.140
12.639,-0.390,-0.150
12.642,-0.390,-0.150
12.644,-0.380,-0.145
12.647,-0.360,-0.135
12.650,-0.355,-0.145
12.653,-0.355,-0.140
12.656,-0.355,-0.160
12.658,-0.380,-0.155
12.661,-0.375,-0.145
12.664,-0.365,-0.140
12.667,-0.350,-0.140
12.669,-0.365,-0.150
12.672,-0.370,-0.150
12.675,-0.365,-0.155
12.678,-0.365,-0.135
12.681,-0.350,-0.120
12.683,-0.335,-0.125
12.686,-0.340,-0.115
12.689,-0.350,-0.115
12.692,-0.345,-0.055
12.694,-0.330,0.090
12.697,-0.310,0.380
12.700,-0.290,0.815
12.703,-0.240,1.005
12.706,-0.175,0.785
12.708,-0.025,0.485
12.711,0.330,0.320
12.714,0.665,0.280
12.717,0.680,0.215
12.719,0.410,0.120
12.722,0.155,0.015
12.725,0.035,-0.105
12.728,0.050,-0.255
12.731,0.075,-0.425
12.733,0.080,-0.645
12.736,0.085,-0.895
12.739,0.070,-1.150
12.742,0.070,-1.360
12.744,0.075,-1.520
12.747,0.070,-1.675
12.750,0.055,-1.845
12.753,0.035,-2.055
12.756,0.015,-2.305
12.758,0.010,-2.560
12.761,0.000,-2.710
12.764,-0.025,-2.800
12.767,-0.060,-2.895
12.769,-0.105,-3.005
12.772,-0.160,-3.100
12.775,-0.235,-3.135
12.778,-0.305,-3.160
12.781,-0.365,-3.175
12.783,-0.425,-3.185
12.786,-0.500,-3.210
12.789,-0.595,-3.225
12.792,-0.680,-3.235
12.794,-0.735,-3.225
12.797,-0.715,-3.210
12.800,-0.660,-3.205
12.803,-0.595,-3.180
12.806,-0.555,-3.160
12.808,-0.550,-3.090
12.811,-0.545,-2.975
12.814,-0.535,-2.820
12.817,-0.520,-2.655
12.819,-0.520,-2.425
12.822,-0.500,-2.195
12.825,-0.475,-1.915
12.828,-0.420,-1.610
12.831,-0.370,-1.305
12.833,-0.360,-1.000
12.836,-0.365,-0.760
12.839,-0.390,-0.525
12.842,-0.410,-0.285
12.844,-0.415,-0.065
12.847,-0.415,0.135
12.850,-0.400,0.305
12.853,-0.390,0.485
12.856,-0.395,0.600
12.858,-0.385,0.685
12.861,-0.390,0.770
12.864,-0.375,0.835
12.867,-0.350,0.880
12.869,-0.350,0.930
12.872,-0.355,0.960
12.875,-0.360,1.000
12.878,-0.360,1.050
12.881,-0.345,1.080
12.883,-0.345,1.125
12.886,-0.335,1.150
12.889,-0.330,1.170
12.892,-0.340,1.205
12.894,-0.335,1.240
12.897,-0.340,1.285
12.900,-0.315,1.300
12.903,-0.315,1.335
12.906,-0.320,1.350
12.908,-0.330,1.375
12.911,-0.325,1.435
12.914,-0.310,1.465
12.917,-0.310,1.505
12.919,-0.305,1.535
12.922,-0.315,1.550
12.925,-0.320,1.595
12.928,-0.315,1.635
12.931,-0.305,1.680
12.933,-0.300,1.730
12.936,-0.300,1.750
12.939,-0.300,1.780
12.942,-0.310,1.805
12.944,-0.305,1.855
12.947,-0.280,1.900
12.950,-0.265,1.925
12.953,-0.275,1.950
12.956,-0.280,1.960
12.958,-0.275,1.990
12.961,-0.275,2.015
12.964,-0.255,2.040
12.967,-0.250,2.060
12.969,-0.240,2.060
12.972,-0.235,2.060
12.975,-0.240,2.065
12.978,-0.230,2.065
12.981,-0.210,2.070
12.983,-0.205,2.050
12.986,-0.205,2.030
12.989,-0.205,2.005
12.992,-0.205,1.985
12.994,-0.195,1.950
12.997,-0.185,1.925
13.000,-0.180,1.890
13.003,-0.175,1.830
13.006,-0.180,1.765
13.008,-0.180,1.720
13.011,-0.175,1.660
13.014,-0.170,1.610
13.017,-0.160,1.545
13.019,-0.160,1.470
13.022,-0.155,1.385
13.025,-0.170,1.325
13.028,-0.165,1.265
13.031,-0.155,1.195
13.033,-0.150,1.125
13.036,-0.155,1.045
13.039,-0.165,0.960
13.042,-0.180,0.900
13.044,-0.170,0.830
13.047,-0.170,0.775
13.050,-0.160,0.715
13.053,-0.170,0.655
13.056,-0.185,0.595
13.058,-0.210,0.545
13.061,-0.205,0.495
13.064,-0.205,0.475
13.067,-0.195,0.425
13.069,-0.205,0.380
13.072,-0.220,0.325
13.075,-0.235,0.285
13.078,-0.240,0.275
13.081,-0.235,0.250
13.083,-0.225,0.225
13.086,-0.240,0.195
13.089,-0.260,0.155
13.092,-0.270,0.140
13.094,-0.270,0.130
13.097,-0.270,0.135
13.100,-0.270,0.110
13.103,-0.280,0.090
13.106,-0.280,0.085
13.108,-0.300,0.060
13.111,-0.305,0.075
13.114,-0.295,0.075
13.117,-0.290,0.065
13.119,-0.310,0.065
13.122,-0.310,0.040
13.125,-0.315,0.045
13.128,-0.330,0.045
13.131,-0.310,0.065
13.133,-0.315,0.065
13.136,-0.310,0.055
13.139,-0.315,0.055
13.142,-0.330,0.045
13.144,-0.325,0.060
13.147,-0.310,0.060
13.150,-0.305,0.050
13.153,-0.305,0.050
13.156,-0.320,0.040
13.158,-0.330,0.035
13.161,-0.330,0.055
13.164,-0.330,0.055
13.167,-0.330,0.055
13.169,-0.335,0.045
13.172,-0.340,0.040
13.175,-0.350,0.045
13.178,-0.340,0.050
13.181,-0.330,0.055
13.183,-0.325,0.055
13.186,-0.325,0.040
13.189,-0.330,0.035
13.192,-0.340,0.030
13.194,-0.345,0.030
13.197,-0.340,0.045
13.200,-0.340,0.050
13.203,-0.335,0.040
13.206,-0.355,0.025
13.208,-0.360,0.030
13.211,-0.365,0.030
13.214,-0.345,0.040
13.217,-0.340,0.035
13.219,-0.350,0.030
13.222,-0.355,0.010
13.225,-0.355,0.005
13.228,-0.365,0.025
13.231,-0.350,0.040
13.233,-0.345,0.045
13.236,-0.360,0.030
13.239,-0.355,0.020
13.242,-0.370,0.020
13.244,-0.375,0.030
13.247,-0.365,0.035
13.250,-0.365,0.035
13.253,-0.375,0.035
13.256,-0.380,0.015
13.258,-0.405,0.010
13.261,-0.405,0.015
13.264,-0.400,0.020
13.267,-0.380,0.015
13.269,-0.365,0.010
13.272,-0.375,0.000
13.275,-0.365,-0.015
13.278,-0.370,-0.015
13.281,-0.370,-0.005
13.283,-0.360,-0.025
13.286,-0.345,-0.045
13.289,-0.340,-0.080
13.292,-0.345,-0.100
13.294,-0.340,-0.095
13.297,-0.320,-0.090
13.300,-0.310,-0.095
13.303,-0.320,-0.120
13.306,-0.335,-0.125
13.308,-0.345,-0.135
13.311,-0.335,-0.130
13.314,-0.335,-0.145
13.317,-0.335,-0.140
13.319,-0.325,-0.155
13.322,-0.340,-0.165
13.325,-0.355,-0.180
13.328,-0.350,-0.175
13.331,-0.335,-0.145
13.333,-0.335,-0.140
13.336,-0.345,-0.155
13.339,-0.355,-0.155
13.342,-0.360,-0.145
13.344,-0.380,-0.145
13.347,-0.385,-0.130
13.350,-0.375,-0.145
13.353,-0.390,-0.140
13.356,-0.405,-0.160
13.358,-0.415,-0.155
13.361,-0.405,-0.135
13.364,-0.400,-0.145
13.367,-0.395,-0.145
13.369,-0.385,-0.150
13.372,-0.405,-0.165
13.375,-0.405,-0.160
13.378,-0.410,-0.155
13.381,-0.395,-0.155
13.383,-0.400,-0.150
13.386,-0.405,-0.155
13.389,-0.410,-0.170
13.392,-0.415,-0.170
13.394,-0.405,-0.165
13.397,-0.400,-0.145
13.400,-0.400,-0.160
13.403,-0.395,-0.160
13.406,-0.405,-0.170
13.408,-0.405,-0.165
13.411,-0.415,-0.160
13.414,-0.405,-0.155
13.417,-0.395,-0.155
13.419,-0.395,-0.160
13.422,-0.395,-0.165
13.425,-0.410,-0.170
13.428,-0.405,-0.165
13.431,-0.405,-0.155
13.433,-0.400,-0.155
13.436,-0.390,-0.170
13.439,-0.390,-0.170
13.442,-0.395,-0.175
13.444,-0.400,-0.165
13.447,-0.390,-0.155
13.450,-0.380,-0.150
13.453,-0.380,-0.160
13.456,-0.400,-0.170
13.458,-0.400,-0.175
13.461,-0.400,-0.165
13.464,-0.375,-0.150
13.467,-0.370,-0.160
13.469,-0.375,-0.145
13.472,-0.385,-0.155
13.475,-0.395,-0.160
13.478,-0.400,-0.150
13.481,-0.390,-0.145
13.483,-0.380,-0.120
13.486,-0.370,-0.120
13.489,-0.360,-0.090
13.492,-0.360,0.000
13.494,-0.340,0.245
13.497,-0.305,0.640
13.500,-0.260,0.855
13.503,-0.210,0.720
13.506,-0.100,0.470
13.508,0.190,0.295
13.511,0.530,0.250
13.514,0.630,0.225
13.517,0.425,0.180
13.519,0.150,0.095
13.522,0.020,0.005
13.525,0.020,-0.100
13.528,0.055,-0.230
13.531,0.070,-0.390
13.533,0.080,-0.585
13.536,0.095,-0.815
13.539,0.095,-1.035
13.542,0.090,-1.265
13.544,0.100,-1.435
13.547,0.115,-1.610
13.550,0.105,-1.765
13.553,0.100,-1.925
13.556,0.080,-2.105
13.558,0.085,-2.295
13.561,0.115,-2.440
13.564,0.130,-2.565
13.567,0.115,-2.665
13.569,0.080,-2.740
13.572,0.050,-2.850
13.575,0.005,-2.950
13.578,-0.040,-3.025
13.581,-0.095,-3.045
13.583,-0.145,-3.080
13.586,-0.210,-3.135
13.589,-0.265,-3.155
13.592,-0.360,-3.195
13.594,-0.465,-3.190
13.597,-0.525,-3.180
13.600,-0.570,-3.190
13.603,-0.555,-3.195
13.606,-0.515,-3.180
13.608,-0.500,-3.150
13.611,-0.485,-3.105
13.614,-0.495,-3.035
13.617,-0.495,-2.930
13.619,-0.495,-2.820
13.622,-0.520,-2.720
13.625,-0.525,-2.575
13.628,-0.520,-2.425
13.631,-0.510,-2.255
13.633,-0.485,-2.030
13.636,-0.480,-1.790
13.639,-0.475,-1.565
13.642,-0.460,-1.325
13.644,-0.455,-1.070
13.647,-0.450,-0.825
13.650,-0.450,-0.620
13.653,-0.450,-0.415
13.656,-0.465,-0.225
13.658,-0.485,-0.050
13.661,-0.495,0.125
13.664,-0.485,0.290
13.667,-0.460,0.430
13.669,-0.485,0.575
13.672,-0.460,0.670
13.675,-0.460,0.750
13.678,-0.450,0.835
13.681,-0.440,0.910
13.683,-0.420,0.960
13.686,-0.415,0.990
13.689,-0.405,1.035
13.692,-0.415,1.075
13.694,-0.395,1.130
13.697,-0.390,1.165
13.700,-0.380,1.205
13.703,-0.385,1.245
13.706,-0.390,1.280
13.708,-0.395,1.315
13.711,-0.390,1.355
13.714,-0.375,1.415
13.717,-0.370,1.445
13.719,-0.355,1.480
13.722,-0.365,1.510
13.725,-0.380,1.555
13.728,-0.375,1.605
13.731,-0.380,1.660
13.733,-0.350,1.690
13.736,-0.350,1.730
13.739,-0.360,1.770
13.742,-0.370,1.815
13.744,-0.365,1.855
13.747,-0.345,1.915
13.750,-0.345,1.940
13.753,-0.350,1.965
13.756,-0.345,2.005
13.758,-0.360,2.045
13.761,-0.345,2.085
13.764,-0.325,2.130
13.767,-0.325,2.145
13.769,-0.320,2.170
13.772,-0.320,2.180
13.775,-0.325,2.190
13.778,-0.300,2.215
13.781,-0.295,2.240
13.783,-0.295,2.235
13.786,-0.295,2.235
13.789,-0.295,2.225
13.792,-0.300,2.215
13.794,-0.280,2.220
13.797,-0.245,2.220
13.800,-0.230,2.190
13.803,-0.225,2.155
13.806,-0.230,2.130
13.808,-0.225,2.085
13.811,-0.225,2.065
13.814,-0.225,2.015
13.817,-0.210,1.975
13.819,-0.200,1.925
13.822,-0.220,1.870
13.825,-0.230,1.805
13.828,-0.210,1.745
13.831,-0.205,1.690
13.833,-0.205,1.630
13.836,-0.195,1.555
13.839,-0.200,1.495
13.842,-0.215,1.405
13.844,-0.205,1.360
13.847,-0.190,1.295
13.850,-0.190,1.215
13.853,-0.195,1.145
13.856,-0.205,1.065
13.858,-0.200,1.005
13.861,-0.190,0.965
13.864,-0.190,0.895
13.867,-0.185,0.830
13.869,-0.205,0.780
13.872,-0.210,0.705
13.875,-0.225,0.660
13.878,-0.215,0.610
13.881,-0.225,0.560
13.883,-0.230,0.520
13.886,-0.250,0.465
13.889,-0.245,0.420
13.892,-0.250,0.375
13.894,-0.255,0.345
13.897,-0.260,0.320
13.900,-0.250,0.290
13.903,-0.250,0.260
13.906,-0.275,0.230
13.908,-0.275,0.200
13.911,-0.270,0.190
13.914,-0.270,0.185
13.917,-0.265,0.160
13.919,-0.270,0.140
13.922,-0.270,0.120
13.925,-0.280,0.110
13.928,-0.280,0.105
13.931,-0.300,0.100
13.933,-0.285,0.085
13.936,-0.295,0.065
13.939,-0.305,0.050
13.942,-0.310,0.045
13.944,-0.300,0.045
13.947,-0.285,0.050
13.950,-0.280,0.040
13.953,-0.295,0.040
13.956,-0.285,0.020
13.958,-0.310,0.015
13.961,-0.305,0.015
13.964,-0.310,0.020
13.967,-0.295,0.010
13.969,-0.285,0.010
13.972,-0.300,0.015
13.975,-0.315,0.000
13.978,-0.305,0.010
13.981,-0.295,0.025
13.983,-0.270,0.015
13.986,-0.285,0.005
13.989,-0.280,0.000
13.992,-0.290,0.005
13.994,-0.275,0.005
13.997,-0.280,0.005
14.000,-0.265,0.015
14.003,-0.270,0.010
14.006,-0.280,0.005
14.008,-0.290,0.000
14.011,-0.285,0.015
14.014,-0.290,0.035
14.017,-0.290,0.020
14.019,-0.310,0.030
14.022,-0.305,0.015
14.025,-0.305,0.015
14.028,-0.305,0.035
14.031,-0.305,0.035
14.033,-0.305,0.045
14.036,-0.305,0.030
14.039,-0.320,0.030
14.042,-0.305,0.025
14.044,-0.295,0.035
14.047,-0.280,0.050
14.050,-0.280,0.035
14.053,-0.295,0.025
14.056,-0.310,0.010
14.058,-0.325,0.010
14.061,-0.310,0.025
14.064,-0.310,0.025
14.067,-0.310,0.020
14.069,-0.330,0.020
14.072,-0.320,-0.005
14.075,-0.320,0.000
14.078,-0.320,0.005
14.081,-0.310,0.020
14.083,-0.295,0.000
14.086,-0.300,-0.005
14.089,-0.300,-0.015
14.092,-0.315,-0.020
14.094,-0.320,-0.015
14.097,-0.310,-0.010
14.100,-0.310,-0.015
14.103,-0.315,-0.035
14.106,-0.325,-0.040
14.108,-0.340,-0.045
14.111,-0.335,-0.040
14.114,-0.330,-0.050
14.117,-0.320,-0.040
14.119,-0.330,-0.050
14.122,-0.325,-0.065
14.125,-0.350,-0.075
14.128,-0.335,-0.080
14.131,-0.335,-0.070
14.133,-0.325,-0.075
14.136,-0.310,-0.085
14.139,-0.315,-0.100
14.142,-0.315,-0.095
14.144,-0.305,-0.095
14.147,-0.300,-0.080
14.150,-0.285,-0.090
14.153,-0.315,-0.095
14.156,-0.310,-0.110
14.158,-0.330,-0.115
14.161,-0.315,-0.110
14.164,-0.315,-0.110
14.167,-0.300,-0.115
14.169,-0.300,-0.125
14.172,-0.310,-0.140
14.175,-0.325,-0.135
14.178,-0.320,-0.140
14.181,-0.325,-0.120
14.183,-0.335,-0.135
14.186,-0.345,-0.140
14.189,-0.360,-0.135
14.192,-0.365,-0.145
14.194,-0.355,-0.140
14.197,-0.320,-0.130
14.200,-0.300,-0.130
14.203,-0.290,-0.135
14.206,-0.295,-0.140
14.208,-0.305,-0.155
14.211,-0.305,-0.140
14.214,-0.300,-0.145
14.217,-0.290,-0.135
14.219,-0.310,-0.150
14.222,-0.310,-0.155
14.225,-0.305,-0.155
14.228,-0.300,-0.150
14.231,-0.285,-0.125
14.233,-0.295,-0.115
14.236,-0.305,-0.120
14.239,-0.310,-0.120
14.242,-0.325,-0.105
14.244,-0.335,-0.100
14.247,-0.310,-0.090
14.250,-0.300,-0.100
14.253,-0.310,-0.100
14.256,-0.315,-0.105
14.258,-0.320,-0.120
14.261,-0.330,-0.115
14.264,-0.310,-0.100
14.267,-0.295,-0.105
14.269,-0.290,-0.115
14.272,-0.285,-0.115
14.275,-0.295,-0.130
14.278,-0.270,-0.125
14.281,-0.255,-0.110
14.283,-0.235,-0.130
14.286,-0.240,-0.155
14.289,-0.245,-0.165
14.292,-0.235,-0.180
14.294,-0.230,-0.170
14.297,-0.205,-0.175
14.300,-0.205,-0.180
14.303,-0.215,-0.190
14.306,-0.220,-0.195
14.308,-0.230,-0.200
14.311,-0.220,-0.185
14.314,-0.215,-0.175
14.317,-0.200,-0.155
14.319,-0.200,-0.105
14.322,-0.195,0.050
14.325,-0.185,0.405
14.328,-0.150,0.805
14.331,-0.085,0.910
14.333,-0.010,0.685
14.336,0.195,0.430
14.339,0.550,0.305
14.342,0.865,0.255
14.344,0.890,0.220
14.347,0.610,0.165
14.350,0.330,0.105
14.353,0.185,0.020
14.356,0.165,-0.085
14.358,0.155,-0.215
14.361,0.180,-0.355
14.364,0.185,-0.510
14.367,0.190,-0.720
14.369,0.205,-0.940
14.372,0.190,-1.145
14.375,0.205,-1.320
14.378,0.215,-1.450
14.381,0.225,-1.580
14.383,0.230,-1.725
14.386,0.230,-1.915
14.389,0.245,-2.120
14.392,0.245,-2.305
14.394,0.250,-2.440
14.397,0.260,-2.540
14.400,0.240,-2.640
14.403,0.215,-2.715
14.406,0.180,-2.825
14.408,0.140,-2.905
14.411,0.110,-2.955
14.414,0.070,-2.995
14.417,0.015,-3.045
14.419,-0.045,-3.095
14.422,-0.135,-3.145
14.425,-0.250,-3.145
14.428,-0.360,-3.160
14.431,-0.440,-3.170
14.433,-0.475,-3.180
14.436,-0.470,-3.185
14.439,-0.450,-3.195
14.442,-0.445,-3.155
14.444,-0.435,-3.105
14.447,-0.445,-3.015
14.450,-0.460,-2.900
14.453,-0.490,-2.765
14.456,-0.520,-2.630
14.458,-0.515,-2.455
14.461,-0.505,-2.250
14.464,-0.470,-2.015
14.467,-0.425,-1.785
14.469,-0.400,-1.555
14.472,-0.370,-1.315
14.475,-0.370,-1.055
14.478,-0.365,-0.820
14.481,-0.380,-0.610
14.483,-0.375,-0.410
14.486,-0.385,-0.220
14.489,-0.390,-0.050
14.492,-0.390,0.120
14.494,-0.390,0.280
14.497,-0.370,0.425
14.500,-0.360,0.530
14.503,-0.360,0.630
14.506,-0.360,0.675
14.508,-0.355,0.730
14.511,-0.345,0.780
14.514,-0.335,0.840
14.517,-0.320,0.885
14.519,-0.315,0.925
14.522,-0.320,0.955
14.525,-0.330,0.985
14.528,-0.315,1.035
14.531,-0.305,1.080
14.533,-0.290,1.115
14.536,-0.285,1.140
14.539,-0.290,1.170
14.542,-0.305,1.200
14.544,-0.295,1.255
14.547,-0.280,1.290
14.550,-0.260,1.325
14.553,-0.260,1.365
14.556,-0.265,1.400
14.558,-0.275,1.430
14.561,-0.270,1.485
14.564,-0.250,1.530
14.567,-0.245,1.575
14.569,-0.245,1.595
14.572,-0.250,1.625
14.575,-0.265,1.665
14.578,-0.250,1.710
14.581,-0.235,1.745
14.583,-0.225,1.790
14.586,-0.225,1.815
14.589,-0.230,1.840
14.592,-0.240,1.870
14.594,-0.225,1.910
14.597,-0.220,1.950
14.600,-0.215,1.975
14.603,-0.215,1.980
14.606,-0.215,1.990
14.608,-0.220,2.000
14.611,-0.195,2.020
14.614,-0.205,2.045
14.617,-0.185,2.035
14.619,-0.175,2.020
14.622,-0.180,2.020
14.625,-0.175,1.995
14.628,-0.165,2.000
14.631,-0.155,1.995
14.633,-0.150,1.955
14.636,-0.140,1.915
14.639,-0.145,1.875
14.642,-0.140,1.825
14.644,-0.145,1.795
14.647,-0.125,1.745
14.650,-0.115,1.685
14.653,-0.125,1.635
14.656,-0.130,1.575
14.658,-0.135,1.505
14.661,-0.135,1.460
14.664,-0.115,1.410
14.667,-0.120,1.330
14.669,-0.130,1.255
14.672,-0.130,1.185
14.675,-0.150,1.115
14.678,-0.150,1.065
14.681,-0.135,1.025
14.683,-0.135,0.950
14.686,-0.150,0.885
14.689,-0.155,0.830
14.692,-0.160,0.770
14.694,-0.175,0.705
14.697,-0.160,0.670
14.700,-0.165,0.620
14.703,-0.175,0.560
14.706,-0.195,0.525
14.708,-0.205,0.455
14.711,-0.195,0.425
14.714,-0.195,0.405
14.717,-0.205,0.360
14.719,-0.215,0.305
14.722,-0.225,0.280
14.725,-0.255,0.250
14.728,-0.245,0.240
14.731,-0.240,0.210
14.733,-0.235,0.185
14.736,-0.245,0.160
14.739,-0.250,0.125
14.742,-0.265,0.120
14.744,-0.265,0.115
14.747,-0.260,0.100
14.750,-0.250,0.090
14.753,-0.255,0.060
14.756,-0.270,0.040
14.758,-0.285,0.030
14.761,-0.285,0.025
14.764,-0.285,0.025
14.767,-0.275,0.015
14.769,-0.285,0.015
14.772,-0.280,-0.005
14.775,-0.300,-0.015
14.778,-0.295,-0.010
14.781,-0.285,-0.010
14.783,-0.285,-0.010
14.786,-0.290,-0.025
14.789,-0.300,-0.030
14.792,-0.310,-0.025
14.794,-0.310,-0.015
14.797,-0.280,-0.020
14.800,-0.285,-0.025
14.803,-0.295,-0.030
14.806,-0.300,-0.040
14.808,-0.300,-0.030
14.811,-0.305,-0.025
14.814,-0.290,-0.010
14.817,-0.280,-0.020
14.819,-0.290,-0.030
14.822,-0.300,-0.045
14.825,-0.300,-0.025
14.828,-0.295,-0.015
14.831,-0.290,-0.005
14.833,-0.295,-0.010
14.836,-0.290,-0.010
14.839,-0.300,-0.010
14.842,-0.305,-0.005
14.844,-0.300,0.010
14.847,-0.285,0.010
14.850,-0.280,0.000
14.853,-0.290,-0.015
14.856,-0.300,-0.010
14.858,-0.305,0.000
14.861,-0.300,-0.005
14.864,-0.290,0.020
14.867,-0.285,0.010
14.869,-0.290,0.005
14.872,-0.305,-0.005
14.875,-0.315,0.000
14.878,-0.300,0.010
14.881,-0.290,0.020
14.883,-0.295,0.015
14.886,-0.300,0.010
14.889,-0.300,-0.005
14.892,-0.320,-0.020
14.894,-0.315,-0.005
14.897,-0.300,0.005
14.900,-0.290,-0.005
14.903,-0.295,-0.015
14.906,-0.315,-0.015
14.908,-0.320,-0.020
14.911,-0.310,-0.020
14.914,-0.310,-0.010
14.917,-0.300,-0.035
14.919,-0.310,-0.030
14.922,-0.325,-0.030
14.925,-0.335,-0.040
14.928,-0.325,-0.040
14.931,-0.325,-0.040
14.933,-0.325,-0.050
14.936,-0.320,-0.055
14.939,-0.325,-0.065
14.942,-0.345,-0.080
14.944,-0.340,-0.070
14.947,-0.335,-0.070
14.950,-0.325,-0.070
14.953,-0.330,-0.090
14.956,-0.340,-0.105
14.958,-0.355,-0.100
14.961,-0.345,-0.100
14.964,-0.350,-0.095
14.967,-0.345,-0.090
14.969,-0.350,-0.120
14.972,-0.360,-0.125
14.975,-0.365,-0.125
14.978,-0.360,-0.120
14.981,-0.360,-0.110
14.983,-0.350,-0.120
14.986,-0.355,-0.125
14.989,-0.370,-0.140
14.992,-0.375,-0.140
14.994,-0.365,-0.135
14.997,-0.365,-0.140
15.000,-0.365,-0.130
15.003,-0.360,-0.155
15.006,-0.375,-0.160
15.008,-0.380,-0.150
15.011,-0.380,-0.140
15.014,-0.370,-0.135
15.017,-0.355,-0.150
15.019,-0.365,-0.155
15.022,-0.380,-0.160
15.025,-0.375,-0.160
15.028,-0.370,-0.160
15.031,-0.370,-0.155
15.033,-0.355,-0.150
15.036,-0.370,-0.165
15.039,-0.375,-0.170
15.042,-0.385,-0.170
15.044,-0.365,-0.160
15.047,-0.370,-0.160
15.050,-0.370,-0.170
15.053,-0.355,-0.185
15.056,-0.385,-0.185
15.058,-0.395,-0.180
15.061,-0.375,-0.175
15.064,-0.375,-0.170
15.067,-0.370,-0.180
15.069,-0.360,-0.180
15.072,-0.380,-0.185
15.075,-0.380,-0.190
15.078,-0.385,-0.175
15.081,-0.375,-0.165
15.083,-0.375,-0.180
15.086,-0.370,-0.185
15.089,-0.380,-0.200
15.092,-0.380,-0.195
15.094,-0.375,-0.190
15.097,-0.380,-0.175
15.100,-0.365,-0.185
15.103,-0.370,-0.190
15.106,-0.375,-0.190
15.108,-0.385,-0.200
15.111,-0.370,-0.190
15.114,-0.375,-0.170
15.117,-0.365,-0.175
15.119,-0.370,-0.190
15.122,-0.385,-0.180
15.125,-0.380,-0.180
15.128,-0.380,-0.175
15.131,-0.365,-0.160
15.133,-0.355,-0.150
15.136,-0.355,-0.145
15.139,-0.355,-0.150
15.142,-0.375,-0.150
15.144,-0.370,-0.120
15.147,-0.360,-0.095
15.150,-0.360,-0.090
15.153,-0.355,-0.095
15.156,-0.350,-0.060
15.158,-0.365,0.020
15.161,-0.345,0.275
15.164,-0.280,0.660
15.167,-0.220,0.895
15.169,-0.135,0.800
15.172,0.030,0.540
15.175,0.365,0.380
15.178,0.755,0.320
15.181,0.895,0.280
15.183,0.665,0.220
15.186,0.315,0.135
15.189,0.110,0.040
15.192,0.060,-0.080
15.194,0.085,-0.235
15.197,0.130,-0.390
15.200,0.135,-0.595
15.203,0.125,-0.845
15.206,0.120,-1.090
15.208,0.120,-1.295
15.211,0.150,-1.460
15.214,0.175,-1.600
15.217,0.160,-1.740
15.219,0.140,-1.890
15.222,0.095,-2.055
15.225,0.085,-2.225
15.228,0.095,-2.405
15.231,0.085,-2.565
15.233,0.060,-2.695
15.236,0.005,-2.790
15.239,-0.045,-2.885
15.242,-0.090,-2.985
15.244,-0.135,-3.080
15.247,-0.190,-3.115
15.250,-0.235,-3.145
15.253,-0.300,-3.180
15.256,-0.355,-3.210
15.258,-0.415,-3.230
15.261,-0.475,-3.235
15.264,-0.555,-3.230
15.267,-0.615,-3.230
15.269,-0.630,-3.240
15.272,-0.610,-3.235
15.275,-0.570,-3.215
15.278,-0.510,-3.165
15.281,-0.450,-3.110
15.283,-0.425,-3.035
15.286,-0.420,-2.925
15.289,-0.435,-2.810
15.292,-0.460,-2.675
15.294,-0.465,-2.525
15.297,-0.450,-2.330
15.300,-0.445,-2.125
15.303,-0.435,-1.910
15.306,-0.425,-1.675
15.308,-0.405,-1.440
15.311,-0.390,-1.185
15.314,-0.395,-0.960
15.317,-0.405,-0.770
15.319,-0.435,-0.570
15.322,-0.450,-0.395
15.325,-0.465,-0.210
15.328,-0.450,-0.040
15.331,-0.455,0.135
15.333,-0.455,0.280
15.336,-0.470,0.415
15.339,-0.465,0.505
15.342,-0.460,0.590
15.344,-0.445,0.680
15.347,-0.435,0.730
15.350,-0.435,0.785
15.353,-0.430,0.810
15.356,-0.435,0.845
15.358,-0.435,0.890
15.361,-0.425,0.930
15.364,-0.410,0.990
15.367,-0.410,1.030
15.369,-0.405,1.045
15.372,-0.415,1.085
15.375,-0.415,1.105
15.378,-0.400,1.155
15.381,-0.390,1.205
15.383,-0.390,1.240
15.386,-0.385,1.265
15.389,-0.390,1.285
15.392,-0.390,1.320
15.394,-0.385,1.380
15.397,-0.375,1.410
15.400,-0.370,1.455
15.403,-0.380,1.485
15.406,-0.380,1.510
15.408,-0.375,1.550
15.411,-0.370,1.590
15.414,-0.360,1.645
15.417,-0.350,1.665
15.419,-0.345,1.675
15.422,-0.350,1.715
15.425,-0.360,1.740
15.428,-0.350,1.790
15.431,-0.345,1.820
15.433,-0.330,1.855
15.436,-0.335,1.880
15.439,-0.340,1.890
15.442,-0.345,1.915
15.444,-0.330,1.945
15.447,-0.315,1.980
15.450,-0.310,1.995
15.453,-0.305,1.990
15.456,-0.310,2.000
15.458,-0.315,1.995
15.461,-0.300,2.015
15.464,-0.280,2.020
15.467,-0.275,2.010
15.469,-0.275,1.980
15.472,-0.265,1.965
15.475,-0.275,1.945
15.478,-0.265,1.935
15.481,-0.250,1.920
15.483,-0.240,1.870
15.486,-0.240,1.815
15.489,-0.250,1.765
15.492,-0.250,1.725
15.494,-0.245,1.690
15.497,-0.230,1.640
15.500,-0.225,1.585
15.503,-0.230,1.515
15.506,-0.230,1.450
15.508,-0.235,1.390
15.511,-0.225,1.335
15.514,-0.220,1.290
15.517,-0.210,1.205
15.519,-0.210,1.140
15.522,-0.220,1.075
15.525,-0.235,0.990
15.528,-0.230,0.955
15.531,-0.215,0.910
15.533,-0.225,0.845
15.536,-0.225,0.780
15.539,-0.240,0.715
15.542,-0.255,0.660
15.544,-0.250,0.615
15.547,-0.235,0.585
15.550,-0.245,0.520
15.553,-0.245,0.480
15.556,-0.265,0.420
15.558,-0.280,0.370
15.561,-0.275,0.345
15.564,-0.275,0.330
15.567,-0.265,0.285
15.569,-0.285,0.245
15.572,-0.290,0.215
15.575,-0.295,0.190
15.578,-0.295,0.185
15.581,-0.295,0.165
15.583,-0.295,0.130
15.586,-0.300,0.105
15.589,-0.305,0.090
15.592,-0.315,0.055
15.594,-0.310,0.050
15.597,-0.310,0.055
15.600,-0.305,0.040
15.603,-0.315,0.020
15.606,-0.320,-0.005
15.608,-0.330,-0.015
15.611,-0.325,-0.005
15.614,-0.320,0.000
15.617,-0.320,-0.010
15.619,-0.325,-0.015
15.622,-0.315,-0.020
15.625,-0.330,-0.035
15.628,-0.325,-0.025
15.631,-0.320,-0.005
15.633,-0.310,-0.015
15.636,-0.310,-0.020
15.639,-0.320,-0.035
15.642,-0.330,-0.020
15.644,-0.320,-0.010
15.647,-0.310,-0.010
15.650,-0.315,-0.005
15.653,-0.310,-0.015
15.656,-0.325,-0.020
15.658,-0.325,-0.020
15.661,-0.320,0.000
15.664,-0.320,0.010
15.667,-0.310,0.000
15.669,-0.320,0.015
15.672,-0.320,-0.005
15.675,-0.330,0.000
15.678,-0.310,0.015
15.681,-0.315,0.030
15.683,-0.300,0.025
15.686,-0.315,0.015
15.689,-0.320,-0.005
15.692,-0.325,-0.010
15.694,-0.320,0.010
15.697,-0.315,0.025
15.700,-0.315,0.015
15.703,-0.320,0.005
15.706,-0.335,0.000
15.708,-0.335,-0.020
15.711,-0.345,-0.005
15.714,-0.325,0.015
15.717,-0.335,-0.005
15.719,-0.335,-0.005
15.722,-0.335,-0.020
15.725,-0.340,-0.020
15.728,-0.340,-0.015
15.731,-0.330,-0.010
15.733,-0.320,-0.005
15.736,-0.330,-0.030
15.739,-0.335,-0.045
15.742,-0.350,-0.045
15.744,-0.360,-0.030
15.747,-0.350,-0.030
15.750,-0.340,-0.050
15.753,-0.340,-0.060
15.756,-0.350,-0.075
15.758,-0.355,-0.095
15.761,-0.355,-0.070
15.764,-0.345,-0.070
15.767,-0.350,-0.070
15.769,-0.355,-0.090
15.772,-0.350,-0.090
15.775,-0.370,-0.105
15.778,-0.370,-0.100
15.781,-0.350,-0.100
15.783,-0.350,-0.105
15.786,-0.355,-0.120
15.789,-0.365,-0.120
15.792,-0.365,-0.130
15.794,-0.375,-0.115
15.797,-0.370,-0.115
15.800,-0.360,-0.125
15.803,-0.370,-0.135
15.806,-0.380,-0.140
15.808,-0.390,-0.155
15.811,-0.380,-0.150
15.814,-0.375,-0.145
15.817,-0.375,-0.155
15.819,-0.375,-0.155
15.822,-0.375,-0.155
15.825,-0.395,-0.165
15.828,-0.380,-0.160
15.831,-0.370,-0.150
15.833,-0.375,-0.170
15.836,-0.370,-0.170
15.839,-0.380,-0.185
15.842,-0.390,-0.190
15.844,-0.385,-0.170
15.847,-0.375,-0.180
15.850,-0.385,-0.185
15.853,-0.380,-0.175
15.856,-0.380,-0.195
15.858,-0.390,-0.195
15.861,-0.390,-0.200
15.864,-0.380,-0.185
15.867,-0.380,-0.180
15.869,-0.385,-0.190
15.872,-0.390,-0.210
15.875,-0.400,-0.200
15.878,-0.390,-0.190
15.881,-0.380,-0.185
15.883,-0.380,-0.195
15.886,-0.375,-0.205
15.889,-0.390,-0.215
15.892,-0.400,-0.205
15.894,-0.395,-0.200
15.897,-0.385,-0.190
15.900,-0.375,-0.205
15.903,-0.380,-0.210
15.906,-0.395,-0.205
15.908,-0.405,-0.220
15.911,-0.400,-0.215
15.914,-0.395,-0.190
15.917,-0.370,-0.200
15.919,-0.395,-0.205
15.922,-0.390,-0.210
15.925,-0.415,-0.220
15.928,-0.390,-0.205
15.931,-0.390,-0.205
15.933,-0.385,-0.210
15.936,-0.385,-0.205
15.939,-0.395,-0.220
15.942,-0.400,-0.225
15.944,-0.395,-0.220
15.947,-0.385,-0.205
15.950,-0.385,-0.215
15.953,-0.380,-0.220
15.956,-0.390,-0.230
15.958,-0.400,-0.225
15.961,-0.390,-0.220
15.964,-0.385,-0.195
15.967,-0.375,-0.220
15.969,-0.380,-0.220
15.972,-0.385,-0.220
15.975,-0.390,-0.220
15.978,-0.380,-0.205
15.981,-0.375,-0.210
15.983,-0.365,-0.205
15.986,-0.365,-0.200
15.989,-0.360,-0.205
15.992,-0.370,-0.195
15.994,-0.365,-0.145
15.997,-0.330,-0.075
16.000,-0.340,0.105
16.003,-0.305,0.470
16.006,-0.270,0.765
16.008,-0.225,0.730
16.011,-0.110,0.500
16.014,0.155,0.340
16.017,0.525,0.265
16.019,0.730,0.210
16.022,0.630,0.165
16.025,0.325,0.095
16.028,0.115,0.035
16.031,0.040,-0.055
16.033,0.050,-0.200
16.036,0.055,-0.355
16.039,0.050,-0.510
16.042,0.045,-0.690
16.044,0.040,-0.900
16.047,0.050,-1.105
16.050,0.060,-1.315
16.053,0.070,-1.470
16.056,0.085,-1.630
16.058,0.060,-1.785
16.061,0.055,-1.940
16.064,0.055,-2.125
16.067,0.045,-2.365
16.069,0.045,-2.565
16.072,0.025,-2.720
16.075,-0.010,-2.825
16.078,-0.030,-2.910
16.081,-0.045,-2.990
16.083,-0.090,-3.085
16.086,-0.130,-3.150
16.089,-0.195,-3.180
16.092,-0.260,-3.210
16.094,-0.310,-3.210
16.097,-0.370,-3.215
16.100,-0.445,-3.245
16.103,-0.540,-3.250
16.106,-0.630,-3.265
16.108,-0.690,-3.255
16.111,-0.680,-3.245
16.114,-0.635,-3.225
16.117,-0.590,-3.220
16.119,-0.555,-3.205
16.122,-0.530,-3.170
16.125,-0.515,-3.090
16.128,-0.505,-3.000
16.131,-0.495,-2.870
16.133,-0.485,-2.730
16.136,-0.475,-2.585
16.139,-0.480,-2.400
16.142,-0.470,-2.195
16.144,-0.450,-1.980
16.147,-0.425,-1.750
16.150,-0.375,-1.510
16.153,-0.365,-1.300
16.156,-0.370,-1.095
16.158,-0.395,-0.890
16.161,-0.415,-0.690
16.164,-0.405,-0.510
16.167,-0.415,-0.320
16.169,-0.430,-0.145
16.172,-0.445,0.015
16.175,-0.470,0.165
16.178,-0.465,0.330
16.181,-0.440,0.460
16.183,-0.440,0.545
16.186,-0.445,0.625
16.189,-0.440,0.675
16.192,-0.445,0.720
16.194,-0.435,0.770
16.197,-0.430,0.815
16.200,-0.415,0.850
16.203,-0.430,0.885
16.206,-0.425,0.905
16.208,-0.435,0.940
16.211,-0.425,0.975
16.214,-0.420,1.025
16.217,-0.405,1.055
16.219,-0.415,1.060
16.222,-0.410,1.085
16.225,-0.415,1.120
16.228,-0.395,1.160
16.231,-0.400,1.195
16.233,-0.395,1.215
16.236,-0.400,1.240
16.239,-0.415,1.270
16.242,-0.420,1.295
16.244,-0.395,1.335
16.247,-0.400,1.380
16.250,-0.395,1.410
16.253,-0.390,1.445
16.256,-0.410,1.470
16.258,-0.400,1.505
16.261,-0.395,1.540
16.264,-0.395,1.585
16.267,-0.390,1.615
16.269,-0.395,1.640
16.272,-0.375,1.665
16.275,-0.375,1.705
16.278,-0.360,1.740
16.281,-0.350,1.785
16.283,-0.340,1.810
16.286,-0.345,1.830
16.289,-0.340,1.850
16.292,-0.345,1.870
16.294,-0.340,1.900
16.297,-0.315,1.930
16.300,-0.310,1.940
16.303,-0.300,1.955
16.306,-0.310,1.960
16.308,-0.310,1.975
16.311,-0.300,1.990
16.314,-0.280,2.005
16.317,-0.270,1.995
16.319,-0.270,1.990
16.322,-0.270,1.975
16.325,-0.270,1.960
16.328,-0.260,1.970
16.331,-0.250,1.960
16.333,-0.240,1.935
16.336,-0.250,1.905
16.339,-0.250,1.880
16.342,-0.255,1.845
16.344,-0.245,1.815
16.347,-0.225,1.785
16.350,-0.230,1.725
16.353,-0.215,1.685
16.356,-0.225,1.630
16.358,-0.220,1.575
16.361,-0.205,1.535
16.364,-0.200,1.490
16.367,-0.185,1.425
16.369,-0.190,1.355
16.372,-0.200,1.295
16.375,-0.220,1.230
16.378,-0.210,1.165
16.381,-0.195,1.130
16.383,-0.200,1.050
16.386,-0.200,0.975
16.389,-0.205,0.915
16.392,-0.210,0.850
16.394,-0.210,0.800
16.397,-0.205,0.755
16.400,-0.195,0.695
16.403,-0.205,0.625
16.406,-0.230,0.580
16.408,-0.240,0.530
16.411,-0.225,0.480
16.414,-0.235,0.450
16.417,-0.240,0.410
16.419,-0.255,0.360
16.422,-0.250,0.320
16.425,-0.270,0.280
16.428,-0.265,0.265
16.431,-0.260,0.240
16.433,-0.265,0.205
16.436,-0.265,0.175
16.439,-0.285,0.145
16.442,-0.280,0.125
16.444,-0.280,0.120
16.447,-0.260,0.115
16.450,-0.255,0.085
16.453,-0.265,0.065
16.456,-0.270,0.045
16.458,-0.270,0.035
16.461,-0.275,0.030
16.464,-0.275,0.035
16.467,-0.275,0.025
16.469,-0.285,0.020
16.472,-0.295,-0.005
16.475,-0.310,-0.015
16.478,-0.295,-0.010
16.481,-0.290,-0.005
16.483,-0.295,-0.010
16.486,-0.285,-0.005
16.489,-0.280,-0.030
16.492,-0.295,-0.025
16.494,-0.295,-0.010
16.497,-0.285,0.000
16.500,-0.295,-0.015
16.503,-0.300,-0.020
16.506,-0.300,-0.035
16.508,-0.310,-0.020
16.511,-0.305,-0.010
16.514,-0.295,-0.010
16.517,-0.295,-0.010
16.519,-0.295,-0.005
16.522,-0.300,-0.010
16.525,-0.315,-0.015
16.528,-0.305,0.000
16.531,-0.290,0.010
16.533,-0.295,0.000
16.536,-0.290,-0.005
16.539,-0.300,-0.015
16.542,-0.305,-0.010
16.544,-0.310,0.000
16.547,-0.295,0.010
16.550,-0.285,0.005
16.553,-0.290,-0.005
16.556,-0.290,-0.015
16.558,-0.315,-0.015
16.561,-0.305,0.000
16.564,-0.305,0.010
16.567,-0.305,0.000
16.569,-0.305,-0.010
16.572,-0.295,-0.015
16.575,-0.300,-0.015
16.578,-0.285,-0.020
16.581,-0.280,0.000
16.583,-0.285,-0.010
16.586,-0.295,-0.025
16.589,-0.320,-0.030
16.592,-0.335,-0.045
16.594,-0.315,-0.035
16.597,-0.315,-0.025
16.600,-0.315,-0.040
16.603,-0.325,-0.035
16.606,-0.320,-0.060
16.608,-0.325,-0.065
16.611,-0.310,-0.065
16.614,-0.300,-0.055
16.617,-0.305,-0.070
16.619,-0.315,-0.085
16.622,-0.330,-0.085
16.625,-0.345,-0.085
16.628,-0.335,-0.085
16.631,-0.325,-0.070
16.633,-0.320,-0.085
16.636,-0.320,-0.100
16.639,-0.340,-0.110
16.642,-0.345,-0.110
16.644,-0.345,-0.105
16.647,-0.325,-0.105
16.650,-0.335,-0.120
16.653,-0.345,-0.120
16.656,-0.350,-0.135
16.658,-0.360,-0.140
16.661,-0.340,-0.125
16.664,-0.335,-0.130
16.667,-0.330,-0.125
16.669,-0.335,-0.145
16.672,-0.345,-0.155
16.675,-0.370,-0.150
16.678,-0.355,-0.160
16.681,-0.340,-0.140
16.683,-0.335,-0.150
16.686,-0.350,-0.150
16.689,-0.355,-0.170
16.692,-0.350,-0.170
16.694,-0.350,-0.160
16.697,-0.340,-0.160
16.700,-0.340,-0.160
16.703,-0.345,-0.170
16.706,-0.345,-0.180
16.708,-0.350,-0.185
16.711,-0.340,-0.180
16.714,-0.325,-0.170
16.717,-0.320,-0.165
16.719,-0.320,-0.180
16.722,-0.325,-0.185
16.725,-0.345,-0.195
16.728,-0.330,-0.180
16.731,-0.335,-0.160
16.733,-0.330,-0.180
16.736,-0.335,-0.185
16.739,-0.355,-0.185
16.742,-0.370,-0.185
16.744,-0.345,-0.190
16.747,-0.350,-0.175
16.750,-0.335,-0.190
