'Elapsed time','V5','V2'
'seconds','mV','mV'
0.000,-0.150,0.200
0.003,-0.150,0.200
0.006,-0.150,0.200
0.008,-0.150,0.200
0.011,-0.150,0.200
0.014,-0.150,0.200
0.017,-0.150,0.200
0.019,-0.150,0.200
0.022,-0.145,0.200
0.025,-0.135,0.215
0.028,-0.110,0.235
0.031,-0.080,0.240
0.033,-0.040,0.240
0.036,0.000,0.245
0.039,0.125,0.265
0.042,0.485,0.335
0.044,0.925,0.460
0.047,0.985,0.775
0.050,0.625,1.030
0.053,0.250,0.935
0.056,0.095,0.665
0.058,0.100,0.485
0.061,0.120,0.445
0.064,0.110,0.425
0.067,0.080,0.395
0.069,0.050,0.355
0.072,0.040,0.335
0.075,0.035,0.330
0.078,0.045,0.335
0.081,0.060,0.300
0.083,0.060,0.305
0.086,0.045,0.260
0.089,0.015,0.235
0.092,0.010,0.210
0.094,0.000,0.195
0.097,0.000,0.165
0.100,-0.020,0.165
0.103,-0.035,0.135
0.106,-0.065,0.115
0.108,-0.075,0.110
0.111,-0.110,0.110
0.114,-0.145,0.105
0.117,-0.180,0.085
0.119,-0.225,0.065
0.122,-0.270,0.035
0.125,-0.310,0.040
0.128,-0.380,0.030
0.131,-0.455,0.020
0.133,-0.510,-0.005
0.136,-0.565,-0.020
0.139,-0.620,-0.040
0.142,-0.665,-0.030
0.144,-0.705,-0.035
0.147,-0.750,-0.045
0.150,-0.790,-0.070
0.153,-0.830,-0.105
0.156,-0.860,-0.150
0.158,-0.880,-0.180
0.161,-0.885,-0.220
0.164,-0.900,-0.255
0.167,-0.900,-0.300
0.169,-0.895,-0.330
0.172,-0.885,-0.345
0.175,-0.870,-0.370
0.178,-0.855,-0.385
0.181,-0.845,-0.405
0.183,-0.825,-0.435
0.186,-0.820,-0.475
0.189,-0.800,-0.480
0.192,-0.770,-0.500
0.194,-0.720,-0.510
0.197,-0.655,-0.535
0.200,-0.610,-0.565
0.203,-0.580,-0.580
0.206,-0.550,-0.565
0.208,-0.490,-0.530
0.211,-0.445,-0.485
0.214,-0.380,-0.445
0.217,-0.345,-0.400
0.219,-0.310,-0.360
0.222,-0.300,-0.305
0.225,-0.270,-0.245
0.228,-0.235,-0.180
0.231,-0.225,-0.125
0.233,-0.215,-0.085
0.236,-0.220,-0.055
0.239,-0.225,-0.015
0.242,-0.220,0.020
0.244,-0.210,0.055
0.247,-0.200,0.085
0.250,-0.180,0.095
0.253,-0.190,0.095
0.256,-0.205,0.095
0.258,-0.205,0.110
0.261,-0.210,0.145
0.264,-0.205,0.155
0.267,-0.200,0.175
0.269,-0.200,0.185
0.272,-0.190,0.215
0.275,-0.175,0.245
0.278,-0.165,0.275
0.281,-0.130,0.295
0.283,-0.145,0.310
0.286,-0.125,0.315
0.289,-0.130,0.320
0.292,-0.115,0.335
0.294,-0.095,0.350
0.297,-0.085,0.345
0.300,-0.080,0.340
0.303,-0.080,0.335
0.306,-0.085,0.330
0.308,-0.075,0.345
0.311,-0.065,0.365
0.314,-0.050,0.360
0.317,-0.045,0.365
0.319,-0.050,0.350
0.322,-0.050,0.350
0.325,-0.045,0.360
0.328,-0.035,0.370
0.331,-0.015,0.385
0.333,-0.020,0.380
0.336,-0.035,0.375
0.339,-0.025,0.365
0.342,-0.030,0.370
0.344,-0.010,0.390
0.347,-0.010,0.390
0.350,0.005,0.395
0.353,-0.005,0.395
0.356,-0.005,0.385
0.358,-0.005,0.400
0.361,0.010,0.415
0.364,0.020,0.415
0.367,0.025,0.420
0.369,0.020,0.410
0.372,0.015,0.410
0.375,0.020,0.430
0.378,0.035,0.435
0.381,0.050,0.440
0.383,0.040,0.440
0.386,0.045,0.440
0.389,0.040,0.430
0.392,0.035,0.445
0.394,0.055,0.465
0.397,0.065,0.470
0.400,0.060,0.465
0.403,0.055,0.465
0.406,0.055,0.465
0.408,0.065,0.470
0.411,0.080,0.490
0.414,0.070,0.495
0.417,0.090,0.500
0.419,0.080,0.485
0.422,0.070,0.490
0.425,0.075,0.505
0.428,0.085,0.520
0.431,0.100,0.520
0.433,0.095,0.520
0.436,0.090,0.520
0.439,0.080,0.515
0.442,0.080,0.530
0.444,0.095,0.535
0.447,0.095,0.550
0.450,0.090,0.545
0.453,0.090,0.535
0.456,0.090,0.535
0.458,0.090,0.540
0.461,0.075,0.545
0.464,0.085,0.560
0.467,0.105,0.535
0.469,0.080,0.540
0.472,0.065,0.520
0.475,0.065,0.525
0.478,0.070,0.525
0.481,0.075,0.535
0.483,0.065,0.520
0.486,0.055,0.510
0.489,0.035,0.500
0.492,0.035,0.505
0.494,0.035,0.515
0.497,0.035,0.495
0.500,0.025,0.485
0.503,0.010,0.465
0.506,0.000,0.455
0.508,-0.020,0.465
0.511,-0.010,0.465
0.514,-0.015,0.470
0.517,-0.020,0.450
0.519,-0.050,0.440
0.522,-0.060,0.430
0.525,-0.060,0.425
0.528,-0.065,0.425
0.531,-0.065,0.420
0.533,-0.080,0.400
0.536,-0.095,0.380
0.539,-0.100,0.370
0.542,-0.095,0.375
0.544,-0.100,0.380
0.547,-0.090,0.375
0.550,-0.100,0.365
0.553,-0.110,0.345
0.556,-0.135,0.340
0.558,-0.135,0.330
0.561,-0.125,0.335
0.564,-0.120,0.330
0.567,-0.115,0.330
0.569,-0.135,0.310
0.572,-0.150,0.300
0.575,-0.145,0.295
0.578,-0.145,0.300
0.581,-0.135,0.305
0.583,-0.135,0.295
0.586,-0.145,0.290
0.589,-0.155,0.280
0.592,-0.150,0.285
0.594,-0.140,0.295
0.597,-0.140,0.290
0.600,-0.145,0.280
0.603,-0.150,0.280
0.606,-0.150,0.270
0.608,-0.170,0.290
0.611,-0.155,0.275
0.614,-0.145,0.285
0.617,-0.135,0.265
0.619,-0.150,0.275
0.622,-0.160,0.265
0.625,-0.155,0.275
0.628,-0.160,0.290
0.631,-0.135,0.275
0.633,-0.145,0.265
0.636,-0.150,0.260
0.639,-0.165,0.260
0.642,-0.155,0.260
0.644,-0.140,0.275
0.647,-0.135,0.270
0.650,-0.155,0.255
0.653,-0.150,0.260
0.656,-0.165,0.255
0.658,-0.165,0.250
0.661,-0.160,0.265
0.664,-0.150,0.270
0.667,-0.150,0.265
0.669,-0.150,0.245
0.672,-0.150,0.250
0.675,-0.175,0.255
0.678,-0.165,0.265
0.681,-0.155,0.265
0.683,-0.160,0.265
0.686,-0.170,0.265
0.689,-0.175,0.255
0.692,-0.185,0.255
0.694,-0.160,0.275
0.697,-0.160,0.265
0.700,-0.165,0.260
0.703,-0.180,0.250
0.706,-0.190,0.250
0.708,-0.195,0.255
0.711,-0.180,0.265
0.714,-0.180,0.260
0.717,-0.185,0.250
0.719,-0.195,0.245
0.722,-0.210,0.230
0.725,-0.205,0.245
0.728,-0.200,0.260
0.731,-0.200,0.245
0.733,-0.205,0.240
0.736,-0.220,0.225
0.739,-0.240,0.230
0.742,-0.230,0.235
0.744,-0.220,0.240
0.747,-0.215,0.240
0.750,-0.225,0.240
0.753,-0.225,0.230
0.756,-0.245,0.220
0.758,-0.235,0.230
0.761,-0.230,0.230
0.764,-0.215,0.225
0.767,-0.215,0.235
0.769,-0.235,0.205
0.772,-0.245,0.210
0.775,-0.235,0.220
0.778,-0.230,0.225
0.781,-0.225,0.225
0.783,-0.235,0.230
0.786,-0.250,0.210
0.789,-0.260,0.205
0.792,-0.250,0.215
0.794,-0.245,0.215
0.797,-0.230,0.235
0.800,-0.245,0.210
0.803,-0.250,0.205
0.806,-0.250,0.195
0.808,-0.255,0.215
0.811,-0.250,0.220
0.814,-0.245,0.220
0.817,-0.260,0.200
0.819,-0.250,0.200
0.822,-0.280,0.205
0.825,-0.260,0.210
0.828,-0.255,0.215
0.831,-0.255,0.220
0.833,-0.255,0.220
0.836,-0.250,0.215
0.839,-0.270,0.195
0.842,-0.260,0.215
0.844,-0.255,0.225
0.847,-0.240,0.225
0.850,-0.235,0.220
0.853,-0.230,0.215
0.856,-0.210,0.215
0.858,-0.205,0.230
0.861,-0.135,0.245
0.864,-0.040,0.275
0.867,0.205,0.315
0.869,0.630,0.415
0.872,0.845,0.695
0.875,0.630,1.000
0.878,0.260,0.980
0.881,0.060,0.710
0.883,0.045,0.495
0.886,0.050,0.420
0.889,0.030,0.415
0.892,0.005,0.410
0.894,-0.010,0.380
0.897,-0.040,0.370
0.900,-0.035,0.365
0.903,-0.040,0.340
0.906,-0.050,0.320
0.908,-0.045,0.320
0.911,-0.060,0.310
0.914,-0.055,0.280
0.917,-0.070,0.255
0.919,-0.090,0.210
0.922,-0.115,0.200
0.925,-0.120,0.185
0.928,-0.130,0.190
0.931,-0.135,0.160
0.933,-0.170,0.145
0.936,-0.220,0.120
0.939,-0.265,0.105
0.942,-0.300,0.090
0.944,-0.330,0.080
0.947,-0.350,0.045
0.950,-0.400,0.030
0.953,-0.465,0.000
0.956,-0.565,-0.015
0.958,-0.630,-0.025
0.961,-0.670,-0.045
0.964,-0.710,-0.040
0.967,-0.750,-0.055
0.969,-0.810,-0.085
0.972,-0.870,-0.110
0.975,-0.905,-0.130
0.978,-0.920,-0.150
0.981,-0.925,-0.195
0.983,-0.930,-0.260
0.986,-0.935,-0.295
0.989,-0.945,-0.335
0.992,-0.935,-0.340
0.994,-0.915,-0.355
0.997,-0.905,-0.395
1.000,-0.895,-0.440
1.003,-0.905,-0.470
1.006,-0.910,-0.510
1.008,-0.880,-0.525
1.011,-0.865,-0.545
1.014,-0.840,-0.580
1.017,-0.800,-0.625
1.019,-0.750,-0.650
1.022,-0.705,-0.670
1.025,-0.660,-0.635
1.028,-0.610,-0.600
1.031,-0.565,-0.570
1.033,-0.520,-0.535
1.036,-0.480,-0.505
1.039,-0.455,-0.445
1.042,-0.405,-0.380
1.044,-0.385,-0.330
1.047,-0.350,-0.270
1.050,-0.330,-0.225
1.053,-0.325,-0.180
1.056,-0.325,-0.150
1.058,-0.320,-0.100
1.061,-0.295,-0.065
1.064,-0.285,-0.040
1.067,-0.275,-0.005
1.069,-0.265,-0.010
1.072,-0.260,0.005
1.075,-0.255,0.030
1.078,-0.260,0.055
1.081,-0.270,0.080
1.083,-0.260,0.085
1.086,-0.265,0.090
1.089,-0.265,0.120
1.092,-0.265,0.145
1.094,-0.245,0.180
1.097,-0.230,0.210
1.100,-0.200,0.220
1.103,-0.200,0.230
1.106,-0.200,0.250
1.108,-0.185,0.280
1.111,-0.175,0.305
1.114,-0.155,0.305
1.117,-0.160,0.305
1.119,-0.145,0.315
1.122,-0.150,0.300
1.125,-0.145,0.310
1.128,-0.135,0.320
1.131,-0.130,0.325
1.133,-0.125,0.335
1.136,-0.125,0.325
1.139,-0.135,0.320
1.142,-0.125,0.325
1.144,-0.120,0.345
1.147,-0.105,0.345
1.150,-0.105,0.345
1.153,-0.110,0.335
1.156,-0.115,0.335
1.158,-0.110,0.355
1.161,-0.095,0.375
1.164,-0.090,0.370
1.167,-0.090,0.375
1.169,-0.090,0.365
1.172,-0.095,0.370
1.175,-0.100,0.370
1.178,-0.085,0.380
1.181,-0.065,0.390
1.183,-0.070,0.385
1.186,-0.095,0.380
1.189,-0.080,0.385
1.192,-0.085,0.395
1.194,-0.080,0.410
1.197,-0.060,0.405
1.200,-0.050,0.405
1.203,-0.070,0.400
1.206,-0.070,0.405
1.208,-0.070,0.420
1.211,-0.060,0.430
1.214,-0.045,0.440
1.217,-0.055,0.435
1.219,-0.055,0.435
1.222,-0.055,0.435
1.225,-0.050,0.460
1.228,-0.045,0.465
1.231,-0.025,0.470
1.233,-0.030,0.475
1.236,-0.030,0.465
1.239,-0.050,0.475
1.242,-0.040,0.485
1.244,-0.030,0.500
1.247,-0.005,0.505
1.250,0.000,0.505
1.253,-0.005,0.500
1.256,-0.020,0.500
1.258,-0.015,0.515
1.261,0.000,0.525
1.264,0.010,0.525
1.267,0.005,0.525
1.269,0.010,0.525
1.272,0.000,0.520
1.275,-0.005,0.535
1.278,0.015,0.540
1.281,0.015,0.550
1.283,0.015,0.545
1.286,0.005,0.540
1.289,0.000,0.535
1.292,-0.005,0.540
1.294,-0.005,0.540
1.297,0.005,0.540
1.300,0.000,0.530
1.303,-0.015,0.520
1.306,-0.030,0.510
1.308,-0.035,0.515
1.311,-0.035,0.520
1.314,-0.035,0.505
1.317,-0.040,0.500
1.319,-0.060,0.480
1.322,-0.080,0.470
1.325,-0.080,0.470
1.328,-0.080,0.470
1.331,-0.075,0.460
1.333,-0.090,0.455
1.336,-0.100,0.435
1.339,-0.120,0.425
1.342,-0.120,0.415
1.344,-0.115,0.415
1.347,-0.115,0.410
1.350,-0.125,0.390
1.353,-0.145,0.375
1.356,-0.160,0.355
1.358,-0.160,0.365
1.361,-0.150,0.370
1.364,-0.160,0.355
1.367,-0.155,0.355
1.369,-0.170,0.335
1.372,-0.175,0.315
1.375,-0.175,0.315
1.378,-0.180,0.335
1.381,-0.175,0.330
1.383,-0.175,0.315
1.386,-0.185,0.295
1.389,-0.200,0.290
1.392,-0.210,0.300
1.394,-0.190,0.305
1.397,-0.190,0.305
1.400,-0.190,0.295
1.403,-0.195,0.280
1.406,-0.215,0.260
1.408,-0.215,0.280
1.411,-0.200,0.275
1.414,-0.195,0.275
1.417,-0.205,0.280
1.419,-0.220,0.250
1.422,-0.235,0.240
1.425,-0.220,0.265
1.428,-0.215,0.270
1.431,-0.205,0.270
1.433,-0.210,0.250
1.436,-0.225,0.240
1.439,-0.235,0.225
1.442,-0.240,0.260
1.444,-0.230,0.260
1.447,-0.225,0.270
1.450,-0.230,0.260
1.453,-0.245,0.240
1.456,-0.235,0.240
1.458,-0.245,0.245
1.461,-0.235,0.245
1.464,-0.235,0.255
1.467,-0.230,0.250
1.469,-0.240,0.235
1.472,-0.260,0.240
1.475,-0.260,0.245
1.478,-0.260,0.250
1.481,-0.250,0.250
1.483,-0.265,0.255
1.486,-0.270,0.235
1.489,-0.280,0.240
1.492,-0.265,0.235
1.494,-0.260,0.250
1.497,-0.255,0.245
1.500,-0.265,0.240
1.503,-0.275,0.230
1.506,-0.285,0.220
1.508,-0.285,0.230
1.511,-0.275,0.240
1.514,-0.265,0.230
1.517,-0.270,0.230
1.519,-0.275,0.230
1.522,-0.290,0.210
1.525,-0.285,0.230
1.528,-0.290,0.230
1.531,-0.275,0.235
1.533,-0.270,0.225
1.536,-0.285,0.200
1.539,-0.310,0.200
1.542,-0.305,0.210
1.544,-0.310,0.230
1.547,-0.295,0.210
1.550,-0.295,0.220
1.553,-0.295,0.205
1.556,-0.310,0.195
1.558,-0.305,0.195
1.561,-0.300,0.205
1.564,-0.295,0.205
1.567,-0.300,0.190
1.569,-0.315,0.190
1.572,-0.320,0.190
1.575,-0.310,0.185
1.578,-0.305,0.200
1.581,-0.305,0.190
1.583,-0.315,0.195
1.586,-0.320,0.185
1.589,-0.335,0.175
1.592,-0.325,0.185
1.594,-0.315,0.195
1.597,-0.315,0.195
1.600,-0.305,0.195
1.603,-0.315,0.185
1.606,-0.320,0.175
1.608,-0.320,0.180
1.611,-0.310,0.195
1.614,-0.310,0.190
1.617,-0.325,0.190
1.619,-0.315,0.175
1.622,-0.320,0.165
1.625,-0.320,0.185
1.628,-0.330,0.185
1.631,-0.310,0.180
1.633,-0.305,0.180
1.636,-0.320,0.170
1.639,-0.325,0.175
1.642,-0.320,0.170
1.644,-0.310,0.175
1.647,-0.305,0.180
1.650,-0.315,0.175
1.653,-0.325,0.160
1.656,-0.330,0.155
1.658,-0.320,0.175
1.661,-0.310,0.180
1.664,-0.305,0.175
1.667,-0.295,0.175
1.669,-0.295,0.170
1.672,-0.305,0.170
1.675,-0.300,0.175
1.678,-0.275,0.180
1.681,-0.270,0.185
1.683,-0.270,0.185
1.686,-0.260,0.185
1.689,-0.240,0.195
1.692,-0.165,0.200
1.694,-0.005,0.240
1.697,0.320,0.280
1.700,0.770,0.415
1.703,0.905,0.705
1.706,0.565,0.965
1.708,0.160,0.905
1.711,-0.015,0.645
1.714,-0.005,0.445
1.717,0.015,0.390
1.719,-0.025,0.365
1.722,-0.075,0.345
1.725,-0.085,0.330
1.728,-0.085,0.315
1.731,-0.080,0.305
1.733,-0.085,0.290
1.736,-0.080,0.255
1.739,-0.095,0.235
1.742,-0.105,0.210
1.744,-0.110,0.180
1.747,-0.130,0.160
1.750,-0.145,0.120
1.753,-0.185,0.090
1.756,-0.195,0.075
1.758,-0.210,0.065
1.761,-0.235,0.060
1.764,-0.265,0.030
1.767,-0.305,0.010
1.769,-0.360,-0.015
1.772,-0.410,-0.040
1.775,-0.460,-0.050
1.778,-0.510,-0.065
1.781,-0.595,-0.095
1.783,-0.695,-0.110
1.786,-0.765,-0.125
1.789,-0.830,-0.145
1.792,-0.865,-0.155
1.794,-0.920,-0.150
1.797,-0.965,-0.170
1.800,-0.995,-0.195
1.803,-1.015,-0.235
1.806,-1.045,-0.290
1.808,-1.050,-0.325
1.811,-1.035,-0.365
1.814,-1.025,-0.395
1.817,-1.045,-0.400
1.819,-1.045,-0.450
1.822,-1.040,-0.480
1.825,-1.020,-0.515
1.828,-1.005,-0.545
1.831,-0.970,-0.580
1.833,-0.930,-0.595
1.836,-0.910,-0.640
1.839,-0.870,-0.670
1.842,-0.805,-0.680
1.844,-0.735,-0.670
1.847,-0.685,-0.640
1.850,-0.630,-0.605
1.853,-0.585,-0.555
1.856,-0.545,-0.505
1.858,-0.495,-0.430
1.861,-0.460,-0.360
1.864,-0.425,-0.295
1.867,-0.400,-0.235
1.869,-0.385,-0.185
1.872,-0.385,-0.135
1.875,-0.375,-0.085
1.878,-0.345,-0.045
1.881,-0.335,0.000
1.883,-0.315,0.015
1.886,-0.310,0.030
1.889,-0.325,0.045
1.892,-0.310,0.075
1.894,-0.295,0.090
1.897,-0.285,0.110
1.900,-0.290,0.105
1.903,-0.285,0.120
1.906,-0.280,0.155
1.908,-0.270,0.190
1.911,-0.225,0.220
1.914,-0.185,0.235
1.917,-0.180,0.260
1.919,-0.175,0.270
1.922,-0.175,0.285
1.925,-0.170,0.300
1.928,-0.135,0.315
1.931,-0.110,0.305
1.933,-0.090,0.320
1.936,-0.080,0.305
1.939,-0.085,0.310
1.942,-0.060,0.325
1.944,-0.065,0.355
1.947,-0.070,0.350
1.950,-0.080,0.345
1.953,-0.095,0.330
1.956,-0.105,0.320
1.958,-0.100,0.335
1.961,-0.105,0.350
1.964,-0.090,0.355
1.967,-0.090,0.355
1.969,-0.095,0.345
1.972,-0.100,0.340
1.975,-0.100,0.345
1.978,-0.080,0.370
1.981,-0.070,0.370
1.983,-0.075,0.375
1.986,-0.090,0.375
1.989,-0.100,0.365
1.992,-0.095,0.370
1.994,-0.085,0.385
1.997,-0.060,0.395
2.000,-0.050,0.395
2.003,-0.060,0.395
2.006,-0.055,0.395
2.008,-0.040,0.400
2.011,-0.030,0.425
2.014,-0.020,0.425
2.017,-0.015,0.430
2.019,-0.040,0.430
2.022,-0.050,0.425
2.025,-0.045,0.440
2.028,-0.030,0.460
2.031,-0.005,0.475
2.033,-0.005,0.470
2.036,-0.025,0.455
2.039,-0.030,0.470
2.042,-0.005,0.485
2.044,0.000,0.500
2.047,0.000,0.505
2.050,0.015,0.500
2.053,0.010,0.495
2.056,-0.005,0.515
2.058,0.020,0.515
2.061,0.030,0.545
2.064,0.030,0.550
2.067,0.060,0.535
2.069,0.065,0.530
2.072,0.030,0.530
2.075,0.045,0.545
2.078,0.055,0.550
2.081,0.050,0.555
2.083,0.050,0.550
2.086,0.045,0.530
2.089,0.025,0.530
2.092,0.030,0.540
2.094,0.035,0.540
2.097,0.035,0.545
2.100,0.030,0.540
2.103,0.010,0.520
2.106,0.000,0.505
2.108,-0.015,0.505
2.111,0.005,0.525
2.114,-0.005,0.505
2.117,-0.020,0.480
2.119,-0.030,0.470
2.122,-0.055,0.460
2.125,-0.050,0.460
2.128,-0.065,0.460
2.131,-0.070,0.435
2.133,-0.095,0.440
2.136,-0.110,0.410
2.139,-0.125,0.400
2.142,-0.120,0.395
2.144,-0.130,0.400
2.147,-0.110,0.395
2.150,-0.115,0.370
2.153,-0.125,0.350
2.156,-0.155,0.350
2.158,-0.160,0.340
2.161,-0.170,0.340
2.164,-0.175,0.330
2.167,-0.180,0.325
2.169,-0.190,0.300
2.172,-0.200,0.295
2.175,-0.205,0.295
2.178,-0.195,0.295
2.181,-0.190,0.285
2.183,-0.190,0.265
2.186,-0.200,0.260
2.189,-0.200,0.265
2.192,-0.205,0.255
2.194,-0.205,0.260
2.197,-0.190,0.255
2.200,-0.200,0.245
2.203,-0.195,0.225
2.206,-0.210,0.215
2.208,-0.225,0.220
2.211,-0.225,0.235
2.214,-0.220,0.220
2.217,-0.225,0.210
2.219,-0.265,0.200
2.222,-0.270,0.190
2.225,-0.255,0.200
2.228,-0.240,0.215
2.231,-0.235,0.220
2.233,-0.245,0.205
2.236,-0.250,0.195
2.239,-0.265,0.195
2.242,-0.260,0.195
2.244,-0.275,0.200
2.247,-0.265,0.205
2.250,-0.255,0.190
2.253,-0.255,0.180
2.256,-0.275,0.175
2.258,-0.255,0.195
2.261,-0.255,0.200
2.264,-0.260,0.195
2.267,-0.260,0.195
2.269,-0.270,0.190
2.272,-0.270,0.185
2.275,-0.270,0.185
2.278,-0.260,0.200
2.281,-0.265,0.195
2.283,-0.275,0.195
2.286,-0.280,0.180
2.289,-0.300,0.175
2.292,-0.290,0.180
2.294,-0.290,0.190
2.297,-0.285,0.190
2.300,-0.285,0.185
2.303,-0.300,0.185
2.306,-0.320,0.170
2.308,-0.295,0.175
2.311,-0.290,0.195
2.314,-0.290,0.190
2.317,-0.300,0.175
2.319,-0.315,0.165
2.322,-0.320,0.160
2.325,-0.315,0.165
2.328,-0.310,0.175
2.331,-0.305,0.175
2.333,-0.305,0.170
2.336,-0.320,0.160
2.339,-0.320,0.145
2.342,-0.320,0.145
2.344,-0.305,0.160
2.347,-0.300,0.165
2.350,-0.305,0.165
2.353,-0.315,0.145
2.356,-0.320,0.135
2.358,-0.325,0.155
2.361,-0.335,0.160
2.364,-0.330,0.145
2.367,-0.330,0.145
2.369,-0.320,0.130
2.372,-0.330,0.130
2.375,-0.330,0.140
2.378,-0.315,0.140
2.381,-0.325,0.135
2.383,-0.325,0.135
2.386,-0.330,0.115
2.389,-0.335,0.115
2.392,-0.325,0.130
2.394,-0.315,0.135
2.397,-0.310,0.135
2.400,-0.315,0.135
2.403,-0.325,0.120
2.406,-0.345,0.120
2.408,-0.350,0.120
2.411,-0.340,0.135
2.414,-0.330,0.125
2.417,-0.325,0.135
2.419,-0.325,0.110
2.422,-0.330,0.105
2.425,-0.340,0.120
2.428,-0.335,0.135
2.431,-0.325,0.130
2.433,-0.325,0.130
2.436,-0.325,0.120
2.439,-0.335,0.115
2.442,-0.340,0.125
2.444,-0.330,0.125
2.447,-0.320,0.120
2.450,-0.310,0.120
2.453,-0.320,0.110
2.456,-0.335,0.115
2.458,-0.330,0.115
2.461,-0.320,0.115
2.464,-0.315,0.125
2.467,-0.290,0.130
2.469,-0.310,0.120
2.472,-0.315,0.120
2.475,-0.300,0.125
2.478,-0.280,0.135
2.481,-0.270,0.135
2.483,-0.255,0.125
2.486,-0.225,0.130
2.489,-0.165,0.150
2.492,0.020,0.170
2.494,0.445,0.230
2.497,0.800,0.470
2.500,0.660,0.815
2.503,0.245,0.835
2.506,-0.020,0.560
2.508,-0.055,0.355
2.511,-0.015,0.320
2.514,0.000,0.320
2.517,-0.030,0.295
2.519,-0.050,0.260
2.522,-0.080,0.235
2.525,-0.080,0.240
2.528,-0.070,0.240
2.531,-0.050,0.220
2.533,-0.065,0.185
2.536,-0.070,0.155
2.539,-0.095,0.105
2.542,-0.095,0.080
2.544,-0.105,0.075
2.547,-0.105,0.055
2.550,-0.100,0.030
2.553,-0.140,0.005
2.556,-0.175,-0.015
2.558,-0.210,-0.025
2.561,-0.245,-0.030
2.564,-0.280,-0.060
2.567,-0.325,-0.090
2.569,-0.385,-0.120
2.572,-0.475,-0.135
2.575,-0.565,-0.145
2.578,-0.650,-0.145
2.581,-0.700,-0.160
2.583,-0.750,-0.170
2.586,-0.825,-0.200
2.589,-0.895,-0.210
2.592,-0.945,-0.230
2.594,-0.970,-0.250
2.597,-0.990,-0.305
2.600,-0.995,-0.350
2.603,-1.010,-0.405
2.606,-1.035,-0.430
2.608,-1.030,-0.440
2.611,-1.040,-0.455
2.614,-1.005,-0.485
2.617,-1.010,-0.530
2.619,-0.990,-0.560
2.622,-0.985,-0.590
2.625,-0.950,-0.615
2.628,-0.895,-0.635
2.631,-0.830,-0.670
2.633,-0.755,-0.680
2.636,-0.725,-0.670
2.639,-0.685,-0.640
2.642,-0.635,-0.590
2.644,-0.560,-0.540
2.647,-0.515,-0.480
2.650,-0.455,-0.430
2.653,-0.440,-0.375
2.656,-0.415,-0.315
2.658,-0.390,-0.245
2.661,-0.365,-0.185
2.664,-0.345,-0.150
2.667,-0.340,-0.110
2.669,-0.325,-0.080
2.672,-0.330,-0.065
2.675,-0.300,-0.030
2.678,-0.305,0.005
2.681,-0.295,0.020
2.683,-0.290,0.030
2.686,-0.305,0.030
2.689,-0.315,0.035
2.692,-0.310,0.075
2.694,-0.300,0.100
2.697,-0.290,0.120
2.700,-0.270,0.130
2.703,-0.255,0.150
2.706,-0.250,0.175
2.708,-0.220,0.195
2.711,-0.215,0.230
2.714,-0.200,0.240
2.717,-0.190,0.245
2.719,-0.175,0.235
2.722,-0.195,0.235
2.725,-0.170,0.240
2.728,-0.165,0.255
2.731,-0.160,0.270
2.733,-0.150,0.260
2.736,-0.165,0.245
2.739,-0.165,0.255
2.742,-0.150,0.255
2.744,-0.145,0.285
2.747,-0.135,0.280
2.750,-0.140,0.275
2.753,-0.135,0.270
2.756,-0.150,0.275
2.758,-0.135,0.285
2.761,-0.110,0.300
2.764,-0.110,0.295
2.767,-0.105,0.300
2.769,-0.110,0.280
2.772,-0.125,0.285
2.775,-0.105,0.320
2.778,-0.100,0.320
2.781,-0.095,0.320
2.783,-0.100,0.320
2.786,-0.110,0.315
2.789,-0.105,0.325
2.792,-0.100,0.335
2.794,-0.085,0.345
2.797,-0.070,0.345
2.800,-0.080,0.340
2.803,-0.085,0.350
2.806,-0.080,0.365
2.808,-0.070,0.390
2.811,-0.050,0.390
2.814,-0.045,0.400
2.817,-0.060,0.395
2.819,-0.060,0.395
2.822,-0.070,0.415
2.825,-0.050,0.435
2.828,-0.035,0.435
2.831,-0.035,0.445
2.833,-0.040,0.435
2.836,-0.055,0.440
2.839,-0.035,0.460
2.842,-0.030,0.475
2.844,-0.015,0.475
2.847,-0.005,0.470
2.850,-0.005,0.460
2.853,-0.005,0.455
2.856,0.005,0.465
2.858,0.015,0.480
2.861,0.025,0.475
2.864,0.040,0.485
2.867,0.025,0.470
2.869,0.025,0.470
2.872,0.040,0.480
2.875,0.050,0.485
2.878,0.065,0.485
2.881,0.070,0.485
2.883,0.070,0.480
2.886,0.065,0.475
2.889,0.070,0.485
2.892,0.085,0.485
2.894,0.100,0.490
2.897,0.110,0.485
2.900,0.100,0.470
2.903,0.080,0.480
2.906,0.085,0.475
2.908,0.075,0.480
2.911,0.060,0.470
2.914,0.035,0.445
2.917,0.015,0.430
2.919,0.000,0.425
2.922,-0.010,0.415
2.925,-0.005,0.425
2.928,-0.020,0.410
2.931,-0.030,0.395
2.933,-0.050,0.375
2.936,-0.080,0.370
2.939,-0.085,0.355
2.942,-0.080,0.350
2.944,-0.065,0.355
2.947,-0.080,0.330
2.950,-0.095,0.315
2.953,-0.105,0.305
2.956,-0.115,0.305
2.958,-0.110,0.315
2.961,-0.110,0.290
2.964,-0.120,0.285
2.967,-0.125,0.275
2.969,-0.145,0.250
2.972,-0.140,0.255
2.975,-0.135,0.260
2.978,-0.135,0.255
2.981,-0.140,0.235
2.983,-0.155,0.240
2.986,-0.170,0.210
2.989,-0.165,0.220
2.992,-0.150,0.225
2.994,-0.150,0.220
2.997,-0.170,0.205
3.000,-0.175,0.195
3.003,-0.175,0.185
3.006,-0.175,0.190
3.008,-0.170,0.205
3.011,-0.170,0.185
3.014,-0.165,0.185
3.017,-0.165,0.170
3.019,-0.190,0.160
3.022,-0.190,0.175
3.025,-0.190,0.185
3.028,-0.175,0.180
3.031,-0.175,0.160
3.033,-0.190,0.155
3.036,-0.200,0.155
3.039,-0.190,0.155
3.042,-0.190,0.165
3.044,-0.195,0.175
3.047,-0.195,0.175
3.050,-0.205,0.155
3.053,-0.210,0.145
3.056,-0.195,0.155
3.058,-0.200,0.170
3.061,-0.180,0.155
3.064,-0.185,0.155
3.067,-0.190,0.145
3.069,-0.200,0.150
3.072,-0.200,0.155
3.075,-0.200,0.155
3.078,-0.185,0.150
3.081,-0.210,0.140
3.083,-0.210,0.135
3.086,-0.215,0.130
3.089,-0.210,0.140
3.092,-0.210,0.145
3.094,-0.210,0.150
3.097,-0.215,0.140
3.100,-0.210,0.125
3.103,-0.240,0.135
3.106,-0.230,0.145
3.108,-0.215,0.155
3.111,-0.215,0.160
3.114,-0.220,0.145
3.117,-0.230,0.140
3.119,-0.240,0.125
3.122,-0.240,0.140
3.125,-0.240,0.140
3.128,-0.225,0.140
3.131,-0.225,0.135
3.133,-0.240,0.125
3.136,-0.245,0.115
3.139,-0.245,0.135
3.142,-0.245,0.140
3.144,-0.240,0.120
3.147,-0.240,0.120
3.150,-0.255,0.115
3.153,-0.255,0.120
3.156,-0.255,0.125
3.158,-0.250,0.120
3.161,-0.240,0.110
3.164,-0.240,0.110
3.167,-0.250,0.100
3.169,-0.255,0.095
3.172,-0.260,0.105
3.175,-0.245,0.115
3.178,-0.245,0.120
3.181,-0.255,0.110
3.183,-0.265,0.095
3.186,-0.265,0.090
3.189,-0.265,0.105
3.192,-0.260,0.115
3.194,-0.255,0.115
3.197,-0.250,0.110
3.200,-0.260,0.100
3.203,-0.285,0.095
3.206,-0.270,0.110
3.208,-0.265,0.105
3.211,-0.270,0.110
3.214,-0.260,0.105
3.217,-0.270,0.095
3.219,-0.275,0.090
3.222,-0.275,0.095
3.225,-0.260,0.100
3.228,-0.260,0.100
3.231,-0.265,0.100
3.233,-0.270,0.085
3.236,-0.275,0.090
3.239,-0.270,0.085
3.242,-0.275,0.105
3.244,-0.260,0.110
3.247,-0.260,0.100
3.250,-0.275,0.090
3.253,-0.280,0.095
3.256,-0.280,0.100
3.258,-0.265,0.100
3.261,-0.255,0.115
3.264,-0.250,0.100
3.267,-0.260,0.095
3.269,-0.260,0.095
3.272,-0.255,0.095
3.275,-0.240,0.120
3.278,-0.215,0.115
3.281,-0.195,0.110
3.283,-0.150,0.115
3.286,-0.040,0.125
3.289,0.310,0.155
3.292,0.790,0.285
3.294,0.880,0.630
3.297,0.480,0.825
3.300,0.095,0.625
3.303,-0.025,0.385
3.306,0.005,0.290
3.308,0.025,0.290
3.311,0.025,0.290
3.314,0.000,0.255
3.317,-0.035,0.230
3.319,-0.050,0.220
3.322,-0.045,0.210
3.325,-0.045,0.205
3.328,-0.040,0.170
3.331,-0.050,0.135
3.333,-0.085,0.095
3.336,-0.095,0.075
3.339,-0.110,0.060
3.342,-0.120,0.045
3.344,-0.130,0.035
3.347,-0.160,0.010
3.350,-0.215,-0.025
3.353,-0.270,-0.030
3.356,-0.315,-0.055
3.358,-0.345,-0.065
3.361,-0.400,-0.090
3.364,-0.475,-0.120
3.367,-0.570,-0.140
3.369,-0.660,-0.145
3.372,-0.720,-0.145
3.375,-0.765,-0.155
3.378,-0.820,-0.165
3.381,-0.885,-0.195
3.383,-0.945,-0.250
3.386,-0.975,-0.310
3.389,-0.985,-0.360
3.392,-1.005,-0.390
3.394,-0.990,-0.440
3.397,-1.000,-0.470
3.400,-1.005,-0.515
3.403,-1.015,-0.565
3.406,-1.005,-0.595
3.408,-0.990,-0.640
3.411,-0.960,-0.680
3.414,-0.930,-0.705
3.417,-0.895,-0.755
3.419,-0.840,-0.765
3.422,-0.775,-0.755
3.425,-0.705,-0.725
3.428,-0.650,-0.690
3.431,-0.590,-0.660
3.433,-0.550,-0.615
3.436,-0.510,-0.560
3.439,-0.475,-0.490
3.442,-0.430,-0.425
3.444,-0.395,-0.365
3.447,-0.375,-0.315
3.450,-0.370,-0.275
3.453,-0.375,-0.230
3.456,-0.365,-0.185
3.458,-0.345,-0.150
3.461,-0.320,-0.125
3.464,-0.300,-0.100
3.467,-0.295,-0.085
3.469,-0.300,-0.080
3.472,-0.305,-0.045
3.475,-0.295,-0.020
3.478,-0.280,-0.005
3.481,-0.275,0.010
3.483,-0.280,0.025
3.486,-0.280,0.045
3.489,-0.275,0.085
3.492,-0.245,0.120
3.494,-0.215,0.145
3.497,-0.205,0.160
3.500,-0.210,0.175
3.503,-0.225,0.175
3.506,-0.210,0.190
3.508,-0.190,0.215
3.511,-0.165,0.205
3.514,-0.160,0.200
3.517,-0.165,0.200
3.519,-0.170,0.220
3.522,-0.155,0.220
3.525,-0.160,0.220
3.528,-0.145,0.225
3.531,-0.145,0.225
3.533,-0.160,0.225
3.536,-0.155,0.220
3.539,-0.145,0.225
3.542,-0.125,0.245
3.544,-0.125,0.245
3.547,-0.120,0.250
3.550,-0.120,0.245
3.553,-0.130,0.245
3.556,-0.115,0.265
3.558,-0.105,0.265
3.561,-0.105,0.265
3.564,-0.100,0.260
3.567,-0.105,0.255
3.569,-0.110,0.265
3.572,-0.110,0.280
3.575,-0.085,0.290
3.578,-0.075,0.285
3.581,-0.090,0.285
3.583,-0.070,0.285
3.586,-0.090,0.280
3.589,-0.070,0.300
3.592,-0.065,0.315
3.594,-0.050,0.330
3.597,-0.060,0.320
3.600,-0.055,0.325
3.603,-0.055,0.335
3.606,-0.050,0.335
3.608,-0.030,0.360
3.611,-0.030,0.355
3.614,-0.015,0.360
3.617,-0.010,0.360
3.619,-0.020,0.365
3.622,-0.015,0.380
3.625,-0.005,0.400
3.628,0.005,0.395
3.631,0.005,0.395
3.633,0.005,0.400
3.636,0.005,0.405
3.639,0.010,0.415
3.642,0.025,0.435
3.644,0.045,0.440
3.647,0.040,0.435
3.650,0.035,0.425
3.653,0.045,0.440
3.656,0.035,0.450
3.658,0.050,0.465
3.661,0.045,0.455
3.664,0.060,0.455
3.667,0.055,0.450
3.669,0.030,0.445
3.672,0.040,0.460
3.675,0.045,0.470
3.678,0.060,0.450
3.681,0.055,0.455
3.683,0.030,0.440
3.686,0.025,0.435
3.689,0.025,0.435
3.692,0.030,0.445
3.694,0.025,0.430
3.697,0.005,0.420
3.700,0.000,0.410
3.703,-0.020,0.405
3.706,-0.015,0.415
3.708,-0.010,0.415
3.711,-0.020,0.405
3.714,-0.025,0.385
3.717,-0.050,0.355
3.719,-0.055,0.360
3.722,-0.060,0.355
3.725,-0.065,0.360
3.728,-0.070,0.350
3.731,-0.075,0.325
3.733,-0.085,0.305
3.736,-0.110,0.290
3.739,-0.110,0.300
3.742,-0.105,0.300
3.744,-0.105,0.285
3.747,-0.120,0.275
3.750,-0.135,0.245
3.753,-0.145,0.240
3.756,-0.145,0.245
3.758,-0.145,0.250
3.761,-0.130,0.235
3.764,-0.150,0.220
3.767,-0.150,0.200
3.769,-0.160,0.200
3.772,-0.170,0.205
3.775,-0.160,0.220
3.778,-0.150,0.210
3.781,-0.165,0.200
3.783,-0.165,0.195
3.786,-0.185,0.185
3.789,-0.190,0.190
3.792,-0.180,0.205
3.794,-0.185,0.215
3.797,-0.185,0.195
3.800,-0.195,0.190
3.803,-0.210,0.180
3.806,-0.215,0.205
3.808,-0.200,0.195
3.811,-0.205,0.190
3.814,-0.195,0.175
3.817,-0.210,0.170
3.819,-0.215,0.160
3.822,-0.210,0.165
3.825,-0.200,0.160
3.828,-0.190,0.155
3.831,-0.180,0.140
3.833,-0.175,0.145
3.836,-0.185,0.130
3.839,-0.200,0.130
3.842,-0.195,0.140
3.844,-0.180,0.145
3.847,-0.185,0.130
3.850,-0.185,0.130
3.853,-0.195,0.130
3.856,-0.185,0.145
3.858,-0.175,0.155
3.861,-0.165,0.145
3.864,-0.145,0.140
3.867,-0.155,0.130
3.869,-0.160,0.125
3.872,-0.150,0.140
3.875,-0.155,0.150
3.878,-0.155,0.155
3.881,-0.155,0.140
3.883,-0.190,0.125
3.886,-0.210,0.105
3.889,-0.215,0.120
3.892,-0.215,0.125
3.894,-0.210,0.115
3.897,-0.215,0.105
3.900,-0.235,0.100
3.903,-0.250,0.090
3.906,-0.255,0.090
3.908,-0.245,0.095
3.911,-0.255,0.090
3.914,-0.250,0.090
3.917,-0.260,0.075
3.919,-0.280,0.075
3.922,-0.270,0.075
3.925,-0.275,0.080
3.928,-0.270,0.075
3.931,-0.270,0.070
3.933,-0.280,0.050
3.936,-0.305,0.055
3.939,-0.285,0.065
3.942,-0.290,0.065
3.944,-0.265,0.075
3.947,-0.280,0.050
3.950,-0.295,0.050
3.953,-0.305,0.045
3.956,-0.300,0.060
3.958,-0.280,0.060
3.961,-0.290,0.055
3.964,-0.280,0.055
3.967,-0.290,0.045
3.969,-0.300,0.040
3.972,-0.295,0.045
3.975,-0.290,0.050
3.978,-0.280,0.045
3.981,-0.285,0.045
3.983,-0.295,0.040
3.986,-0.295,0.040
3.989,-0.290,0.050
3.992,-0.290,0.050
3.994,-0.280,0.055
3.997,-0.275,0.055
4.000,-0.290,0.035
4.003,-0.285,0.040
4.006,-0.290,0.045
4.008,-0.275,0.065
4.011,-0.285,0.055
4.014,-0.285,0.050
4.017,-0.285,0.045
4.019,-0.295,0.035
4.022,-0.295,0.035
4.025,-0.285,0.050
4.028,-0.270,0.055
4.031,-0.265,0.055
4.033,-0.275,0.035
4.036,-0.280,0.045
4.039,-0.285,0.050
4.042,-0.265,0.060
4.044,-0.250,0.060
4.047,-0.250,0.055
4.050,-0.235,0.050
4.053,-0.245,0.045
4.056,-0.220,0.070
4.058,-0.180,0.090
4.061,-0.110,0.110
4.064,0.095,0.125
4.067,0.555,0.185
4.069,0.955,0.490
4.072,0.870,0.850
4.075,0.525,0.850
4.078,0.365,0.585
4.081,0.430,0.435
4.083,0.530,0.405
4.086,0.620,0.415
4.089,0.720,0.400
4.092,0.875,0.400
4.094,1.060,0.380
4.097,1.240,0.380
4.100,1.375,0.365
4.103,1.425,0.325
4.106,1.385,0.255
4.108,1.210,0.145
4.111,0.975,-0.005
4.114,0.710,-0.140
4.117,0.480,-0.270
4.119,0.265,-0.350
4.122,0.050,-0.375
4.125,-0.145,-0.350
4.128,-0.305,-0.325
4.131,-0.395,-0.285
4.133,-0.435,-0.230
4.136,-0.450,-0.180
4.139,-0.455,-0.130
4.142,-0.440,-0.060
4.144,-0.435,-0.020
4.147,-0.420,-0.010
4.150,-0.425,0.000
4.153,-0.435,0.005
4.156,-0.420,0.015
4.158,-0.420,0.025
4.161,-0.405,0.015
4.164,-0.410,0.015
4.167,-0.430,0.000
4.169,-0.430,0.005
4.172,-0.430,0.005
4.175,-0.425,0.005
4.178,-0.425,0.005
4.181,-0.430,-0.005
4.183,-0.450,-0.005
4.186,-0.465,0.000
4.189,-0.460,0.000
4.192,-0.450,0.010
4.194,-0.440,0.005
4.197,-0.445,-0.010
4.200,-0.455,-0.020
4.203,-0.480,-0.010
4.206,-0.465,-0.010
4.208,-0.460,-0.005
4.211,-0.460,-0.005
4.214,-0.460,-0.025
4.217,-0.480,-0.030
4.219,-0.500,-0.035
4.222,-0.500,-0.030
4.225,-0.490,-0.015
4.228,-0.505,-0.020
4.231,-0.495,-0.025
4.233,-0.500,-0.045
4.236,-0.525,-0.040
4.239,-0.505,-0.040
4.242,-0.510,-0.030
4.244,-0.510,-0.040
4.247,-0.530,-0.040
4.250,-0.535,-0.055
4.253,-0.550,-0.065
4.256,-0.545,-0.060
4.258,-0.535,-0.050
4.261,-0.545,-0.055
4.264,-0.540,-0.065
4.267,-0.550,-0.070
4.269,-0.570,-0.075
4.272,-0.565,-0.075
4.275,-0.550,-0.055
4.278,-0.545,-0.060
4.281,-0.555,-0.080
4.283,-0.580,-0.080
4.286,-0.580,-0.080
4.289,-0.590,-0.080
4.292,-0.575,-0.070
4.294,-0.575,-0.070
4.297,-0.570,-0.085
4.300,-0.585,-0.100
4.303,-0.600,-0.090
4.306,-0.580,-0.090
4.308,-0.585,-0.080
4.311,-0.580,-0.085
4.314,-0.590,-0.095
4.317,-0.590,-0.100
4.319,-0.600,-0.100
4.322,-0.585,-0.100
4.325,-0.570,-0.080
4.328,-0.565,-0.080
4.331,-0.565,-0.090
4.333,-0.570,-0.100
4.336,-0.585,-0.090
4.339,-0.565,-0.080
4.342,-0.560,-0.065
4.344,-0.545,-0.070
4.347,-0.540,-0.075
4.350,-0.555,-0.080
4.353,-0.545,-0.070
4.356,-0.535,-0.060
4.358,-0.510,-0.050
4.361,-0.495,-0.045
4.364,-0.495,-0.050
4.367,-0.490,-0.035
4.369,-0.490,-0.045
4.372,-0.465,-0.030
4.375,-0.455,-0.005
4.378,-0.440,0.000
4.381,-0.445,-0.010
4.383,-0.435,-0.005
4.386,-0.425,0.010
4.389,-0.395,0.030
4.392,-0.390,0.035
4.394,-0.375,0.045
4.397,-0.360,0.045
4.400,-0.345,0.045
4.403,-0.345,0.050
4.406,-0.330,0.075
4.408,-0.310,0.085
4.411,-0.300,0.085
4.414,-0.290,0.080
4.417,-0.295,0.075
4.419,-0.300,0.090
4.422,-0.280,0.090
4.425,-0.270,0.110
4.428,-0.265,0.110
4.431,-0.265,0.115
4.433,-0.265,0.105
4.436,-0.260,0.110
4.439,-0.265,0.110
4.442,-0.260,0.120
4.444,-0.255,0.115
4.447,-0.255,0.115
4.450,-0.250,0.115
4.453,-0.260,0.090
4.456,-0.255,0.110
4.458,-0.260,0.110
4.461,-0.250,0.120
4.464,-0.255,0.115
4.467,-0.255,0.100
4.469,-0.265,0.095
4.472,-0.255,0.105
4.475,-0.245,0.110
4.478,-0.250,0.105
4.481,-0.255,0.090
4.483,-0.270,0.085
4.486,-0.270,0.085
4.489,-0.270,0.090
4.492,-0.265,0.100
4.494,-0.260,0.105
4.497,-0.260,0.090
4.500,-0.275,0.085
4.503,-0.285,0.080
4.506,-0.295,0.085
4.508,-0.285,0.090
4.511,-0.265,0.090
4.514,-0.270,0.090
4.517,-0.275,0.075
4.519,-0.300,0.080
4.522,-0.280,0.080
4.525,-0.280,0.085
4.528,-0.275,0.080
4.531,-0.285,0.080
4.533,-0.300,0.065
4.536,-0.300,0.070
4.539,-0.305,0.090
4.542,-0.305,0.090
4.544,-0.295,0.080
4.547,-0.285,0.075
4.550,-0.305,0.075
4.553,-0.310,0.085
4.556,-0.310,0.085
4.558,-0.305,0.090
4.561,-0.295,0.105
4.564,-0.295,0.085
4.567,-0.310,0.070
4.569,-0.320,0.080
4.572,-0.315,0.095
4.575,-0.305,0.100
4.578,-0.300,0.095
4.581,-0.300,0.090
4.583,-0.305,0.090
4.586,-0.320,0.075
4.589,-0.310,0.085
4.592,-0.310,0.105
4.594,-0.290,0.100
4.597,-0.285,0.085
4.600,-0.305,0.085
4.603,-0.305,0.085
4.606,-0.310,0.085
4.608,-0.300,0.105
4.611,-0.295,0.100
4.614,-0.290,0.090
4.617,-0.305,0.075
4.619,-0.305,0.070
4.622,-0.300,0.090
4.625,-0.285,0.095
4.628,-0.290,0.090
4.631,-0.290,0.080
4.633,-0.295,0.070
4.636,-0.310,0.075
4.639,-0.300,0.075
4.642,-0.300,0.085
4.644,-0.280,0.085
4.647,-0.270,0.080
4.650,-0.290,0.075
4.653,-0.290,0.075
4.656,-0.295,0.085
4.658,-0.285,0.090
4.661,-0.270,0.085
4.664,-0.290,0.075
4.667,-0.300,0.065
4.669,-0.290,0.060
4.672,-0.290,0.070
4.675,-0.280,0.085
4.678,-0.275,0.075
4.681,-0.275,0.075
4.683,-0.280,0.070
4.686,-0.290,0.065
4.689,-0.285,0.075
4.692,-0.275,0.080
4.694,-0.270,0.090
4.697,-0.275,0.085
4.700,-0.285,0.075
4.703,-0.295,0.080
4.706,-0.290,0.095
4.708,-0.295,0.110
4.711,-0.290,0.105
4.714,-0.280,0.095
4.717,-0.290,0.085
4.719,-0.310,0.085
4.722,-0.300,0.100
4.725,-0.290,0.105
4.728,-0.280,0.105
4.731,-0.280,0.095
4.733,-0.290,0.085
4.736,-0.295,0.075
4.739,-0.280,0.080
4.742,-0.265,0.090
4.744,-0.260,0.075
4.747,-0.255,0.070
4.750,-0.250,0.070
4.753,-0.270,0.070
4.756,-0.265,0.065
4.758,-0.250,0.070
4.761,-0.250,0.080
4.764,-0.245,0.060
4.767,-0.245,0.055
4.769,-0.255,0.070
4.772,-0.250,0.075
4.775,-0.225,0.085
4.778,-0.210,0.065
4.781,-0.200,0.065
4.783,-0.205,0.060
4.786,-0.220,0.050
4.789,-0.210,0.065
4.792,-0.200,0.085
4.794,-0.200,0.080
4.797,-0.215,0.080
4.800,-0.245,0.060
4.803,-0.245,0.060
4.806,-0.250,0.075
4.808,-0.250,0.070
4.811,-0.245,0.060
4.814,-0.230,0.050
4.817,-0.250,0.050
4.819,-0.260,0.050
4.822,-0.265,0.050
4.825,-0.270,0.060
4.828,-0.250,0.050
4.831,-0.250,0.055
4.833,-0.245,0.035
4.836,-0.245,0.045
4.839,-0.220,0.050
4.842,-0.190,0.075
4.844,-0.145,0.075
4.847,-0.050,0.075
4.850,0.170,0.085
4.853,0.570,0.155
4.856,0.910,0.390
4.858,0.770,0.725
4.861,0.365,0.785
4.864,0.095,0.550
4.867,0.025,0.320
4.869,0.045,0.245
4.872,0.045,0.240
4.875,0.020,0.235
4.878,0.015,0.215
4.881,0.000,0.170
4.883,-0.010,0.170
4.886,-0.040,0.155
4.889,-0.030,0.145
4.892,-0.010,0.150
4.894,-0.005,0.130
4.897,-0.025,0.095
4.900,-0.030,0.055
4.903,-0.050,0.025
4.906,-0.055,0.020
4.908,-0.065,0.025
4.911,-0.060,0.010
4.914,-0.075,-0.005
4.917,-0.090,-0.015
4.919,-0.130,-0.030
4.922,-0.145,-0.030
4.925,-0.175,-0.045
4.928,-0.220,-0.060
4.931,-0.260,-0.080
4.933,-0.295,-0.105
4.936,-0.360,-0.115
4.939,-0.430,-0.120
4.942,-0.510,-0.110
4.944,-0.565,-0.125
4.947,-0.600,-0.140
4.950,-0.615,-0.165
4.953,-0.655,-0.165
4.956,-0.675,-0.175
4.958,-0.710,-0.175
4.961,-0.720,-0.200
4.964,-0.735,-0.205
4.967,-0.735,-0.225
4.969,-0.750,-0.230
4.972,-0.710,-0.220
4.975,-0.660,-0.215
4.978,-0.595,-0.205
4.981,-0.535,-0.185
4.983,-0.455,-0.170
4.986,-0.415,-0.185
4.989,-0.350,-0.175
4.992,-0.320,-0.170
4.994,-0.305,-0.200
4.997,-0.335,-0.235
5.000,-0.360,-0.300
5.003,-0.405,-0.360
5.006,-0.435,-0.385
5.008,-0.450,-0.395
5.011,-0.460,-0.385
5.014,-0.485,-0.375
5.017,-0.490,-0.340
5.019,-0.495,-0.305
5.022,-0.470,-0.245
5.025,-0.420,-0.195
5.028,-0.395,-0.145
5.031,-0.360,-0.105
5.033,-0.340,-0.065
5.036,-0.335,-0.010
5.039,-0.310,0.030
5.042,-0.315,0.055
5.044,-0.300,0.065
5.047,-0.290,0.075
5.050,-0.290,0.075
5.053,-0.295,0.075
5.056,-0.265,0.085
5.058,-0.265,0.095
5.061,-0.240,0.095
5.064,-0.220,0.085
5.067,-0.220,0.080
5.069,-0.220,0.070
5.072,-0.225,0.085
5.075,-0.205,0.095
5.078,-0.205,0.090
5.081,-0.200,0.085
5.083,-0.195,0.090
5.086,-0.200,0.075
5.089,-0.195,0.095
5.092,-0.185,0.105
5.094,-0.180,0.105
5.097,-0.175,0.090
5.100,-0.180,0.085
5.103,-0.185,0.090
5.106,-0.175,0.095
5.108,-0.165,0.110
5.111,-0.165,0.105
5.114,-0.165,0.085
5.117,-0.175,0.085
5.119,-0.180,0.080
5.122,-0.175,0.100
5.125,-0.160,0.105
5.128,-0.155,0.110
5.131,-0.160,0.095
5.133,-0.150,0.090
5.136,-0.165,0.090
5.139,-0.145,0.110
5.142,-0.130,0.120
5.144,-0.120,0.105
5.147,-0.125,0.110
5.150,-0.135,0.100
5.153,-0.145,0.095
5.156,-0.135,0.105
5.158,-0.120,0.135
5.161,-0.100,0.120
5.164,-0.110,0.120
5.167,-0.110,0.125
5.169,-0.115,0.110
5.172,-0.105,0.135
5.175,-0.090,0.140
5.178,-0.080,0.160
5.181,-0.090,0.135
5.183,-0.095,0.135
5.186,-0.100,0.140
5.189,-0.090,0.145
5.192,-0.085,0.165
5.194,-0.080,0.155
5.197,-0.075,0.150
5.200,-0.080,0.135
5.203,-0.075,0.145
5.206,-0.080,0.155
5.208,-0.070,0.175
5.211,-0.050,0.165
5.214,-0.050,0.165
5.217,-0.060,0.160
5.219,-0.065,0.170
5.222,-0.050,0.175
5.225,-0.045,0.195
5.228,-0.015,0.195
5.231,-0.020,0.180
5.233,-0.030,0.175
5.236,-0.030,0.180
5.239,-0.025,0.200
5.242,0.000,0.215
5.244,0.000,0.205
5.247,0.000,0.205
5.250,-0.010,0.195
5.253,-0.015,0.195
5.256,-0.015,0.215
5.258,-0.010,0.230
5.261,0.010,0.225
5.264,0.010,0.210
5.267,0.010,0.210
5.269,0.005,0.215
5.272,0.005,0.225
5.275,0.010,0.220
5.278,0.005,0.230
5.281,0.015,0.230
5.283,-0.005,0.215
5.286,-0.010,0.210
5.289,-0.010,0.225
5.292,-0.005,0.220
5.294,-0.015,0.220
5.297,-0.015,0.220
5.300,-0.025,0.200
5.303,-0.045,0.205
5.306,-0.040,0.215
5.308,-0.040,0.225
5.311,-0.050,0.215
5.314,-0.055,0.200
5.317,-0.060,0.190
5.319,-0.090,0.200
5.322,-0.095,0.205
5.325,-0.085,0.215
5.328,-0.080,0.200
5.331,-0.085,0.185
5.333,-0.100,0.185
5.336,-0.115,0.175
5.339,-0.110,0.185
5.342,-0.115,0.190
5.344,-0.110,0.180
5.347,-0.115,0.170
5.350,-0.130,0.155
5.353,-0.135,0.155
5.356,-0.145,0.160
5.358,-0.140,0.165
5.361,-0.145,0.170
5.364,-0.150,0.155
5.367,-0.170,0.140
5.369,-0.185,0.130
5.372,-0.185,0.135
5.375,-0.180,0.135
5.378,-0.180,0.135
5.381,-0.185,0.130
5.383,-0.185,0.120
5.386,-0.205,0.120
5.389,-0.200,0.130
5.392,-0.200,0.135
5.394,-0.190,0.125
5.397,-0.190,0.115
5.400,-0.205,0.110
5.403,-0.230,0.105
5.406,-0.220,0.125
5.408,-0.200,0.130
5.411,-0.210,0.115
5.414,-0.215,0.115
5.417,-0.225,0.100
5.419,-0.240,0.105
5.422,-0.225,0.110
5.425,-0.220,0.120
5.428,-0.215,0.120
5.431,-0.225,0.095
5.433,-0.220,0.100
5.436,-0.235,0.100
5.439,-0.220,0.095
5.442,-0.205,0.110
5.444,-0.200,0.105
5.447,-0.225,0.090
5.450,-0.235,0.090
5.453,-0.245,0.080
5.456,-0.250,0.090
5.458,-0.235,0.105
5.461,-0.220,0.095
5.464,-0.210,0.095
5.467,-0.220,0.090
5.469,-0.230,0.080
5.472,-0.245,0.095
5.475,-0.240,0.110
5.478,-0.240,0.105
5.481,-0.245,0.090
5.483,-0.250,0.080
5.486,-0.260,0.075
5.489,-0.255,0.095
5.492,-0.255,0.095
5.494,-0.245,0.080
5.497,-0.245,0.085
5.500,-0.250,0.085
5.503,-0.250,0.080
5.506,-0.240,0.090
5.508,-0.230,0.105
5.511,-0.220,0.090
5.514,-0.230,0.085
5.517,-0.240,0.080
5.519,-0.255,0.080
5.522,-0.255,0.090
5.525,-0.240,0.105
5.528,-0.240,0.100
5.531,-0.235,0.095
5.533,-0.250,0.080
5.536,-0.265,0.095
5.539,-0.255,0.085
5.542,-0.260,0.090
5.544,-0.245,0.085
5.547,-0.250,0.080
5.550,-0.260,0.070
5.553,-0.270,0.085
5.556,-0.260,0.085
5.558,-0.250,0.085
5.561,-0.250,0.095
5.564,-0.260,0.085
5.567,-0.260,0.070
5.569,-0.255,0.075
5.572,-0.250,0.075
5.575,-0.250,0.085
5.578,-0.240,0.095
5.581,-0.245,0.085
5.583,-0.255,0.065
5.586,-0.260,0.060
5.589,-0.260,0.070
5.592,-0.255,0.080
5.594,-0.260,0.070
5.597,-0.260,0.065
5.600,-0.275,0.055
5.603,-0.275,0.060
5.606,-0.270,0.075
5.608,-0.255,0.070
5.611,-0.265,0.065
5.614,-0.260,0.065
5.617,-0.275,0.055
5.619,-0.305,0.060
5.622,-0.290,0.060
5.625,-0.285,0.055
5.628,-0.275,0.055
5.631,-0.275,0.050
5.633,-0.280,0.040
5.636,-0.290,0.050
5.639,-0.285,0.045
5.642,-0.280,0.060
5.644,-0.275,0.050
5.647,-0.265,0.035
5.650,-0.285,0.035
5.653,-0.300,0.035
5.656,-0.280,0.045
5.658,-0.280,0.060
5.661,-0.275,0.045
5.664,-0.275,0.040
5.667,-0.285,0.035
5.669,-0.290,0.040
5.672,-0.285,0.045
5.675,-0.270,0.055
5.678,-0.260,0.055
5.681,-0.275,0.045
5.683,-0.280,0.050
5.686,-0.295,0.040
5.689,-0.295,0.055
5.692,-0.285,0.060
5.694,-0.275,0.055
5.697,-0.285,0.045
5.700,-0.265,0.065
5.703,-0.270,0.070
5.706,-0.245,0.080
5.708,-0.220,0.105
5.711,-0.180,0.110
5.714,-0.105,0.115
5.717,0.070,0.120
5.719,0.480,0.180
5.722,0.885,0.440
5.725,0.770,0.790
5.728,0.350,0.835
5.731,0.050,0.570
5.733,-0.025,0.335
5.736,0.000,0.260
5.739,0.015,0.255
5.742,0.000,0.235
5.744,-0.025,0.210
5.747,-0.030,0.175
5.750,-0.040,0.160
5.753,-0.060,0.140
5.756,-0.055,0.145
5.758,-0.045,0.110
5.761,-0.060,0.090
5.764,-0.075,0.035
5.767,-0.080,-0.005
5.769,-0.080,-0.030
5.772,-0.070,-0.030
5.775,-0.060,-0.045
5.778,-0.050,-0.075
5.781,-0.090,-0.105
5.783,-0.140,-0.140
5.786,-0.210,-0.135
5.789,-0.265,-0.160
5.792,-0.320,-0.165
5.794,-0.385,-0.200
5.797,-0.485,-0.235
5.800,-0.600,-0.245
5.803,-0.695,-0.270
5.806,-0.755,-0.260
5.808,-0.785,-0.260
5.811,-0.850,-0.280
5.814,-0.915,-0.310
5.817,-0.990,-0.340
5.819,-1.050,-0.380
5.822,-1.075,-0.405
5.825,-1.065,-0.435
5.828,-1.070,-0.485
5.831,-1.075,-0.510
5.833,-1.105,-0.535
5.836,-1.100,-0.550
5.839,-1.070,-0.580
5.842,-1.045,-0.595
5.844,-1.020,-0.625
5.847,-1.000,-0.650
5.850,-0.990,-0.675
5.853,-0.970,-0.700
5.856,-0.930,-0.715
5.858,-0.870,-0.735
5.861,-0.815,-0.765
5.864,-0.770,-0.765
5.867,-0.750,-0.750
5.869,-0.715,-0.720
5.872,-0.660,-0.675
5.875,-0.605,-0.650
5.878,-0.545,-0.585
5.881,-0.495,-0.555
5.883,-0.475,-0.515
5.886,-0.460,-0.460
5.889,-0.425,-0.385
5.892,-0.405,-0.310
5.894,-0.380,-0.270
5.897,-0.375,-0.225
5.900,-0.375,-0.200
5.903,-0.355,-0.175
5.906,-0.335,-0.130
5.908,-0.310,-0.095
5.911,-0.305,-0.080
5.914,-0.290,-0.070
5.917,-0.315,-0.065
5.919,-0.335,-0.045
5.922,-0.335,-0.030
5.925,-0.325,-0.005
5.928,-0.325,0.010
5.931,-0.325,0.025
5.933,-0.315,0.030
5.936,-0.295,0.055
5.939,-0.265,0.085
5.942,-0.250,0.115
5.944,-0.225,0.120
5.947,-0.230,0.130
5.950,-0.230,0.130
5.953,-0.225,0.140
5.956,-0.210,0.160
5.958,-0.185,0.170
5.961,-0.170,0.160
5.964,-0.175,0.155
5.967,-0.175,0.150
5.969,-0.165,0.150
5.972,-0.155,0.165
5.975,-0.140,0.180
5.978,-0.145,0.170
5.981,-0.140,0.180
5.983,-0.140,0.175
5.986,-0.145,0.180
5.989,-0.130,0.190
5.992,-0.110,0.200
5.994,-0.095,0.190
5.997,-0.110,0.200
6.000,-0.105,0.190
6.003,-0.115,0.190
6.006,-0.105,0.210
6.008,-0.095,0.215
6.011,-0.085,0.220
6.014,-0.090,0.215
6.017,-0.080,0.210
6.019,-0.090,0.215
6.022,-0.085,0.225
6.025,-0.075,0.240
6.028,-0.065,0.240
6.031,-0.060,0.235
6.033,-0.080,0.240
6.036,-0.075,0.245
6.039,-0.075,0.245
6.042,-0.065,0.270
6.044,-0.060,0.265
6.047,-0.060,0.255
6.050,-0.050,0.265
6.053,-0.070,0.265
6.056,-0.070,0.275
6.058,-0.055,0.295
6.061,-0.050,0.285
6.064,-0.050,0.285
6.067,-0.040,0.280
6.069,-0.045,0.285
6.072,-0.035,0.295
6.075,-0.020,0.310
6.078,-0.020,0.310
6.081,-0.025,0.315
6.083,-0.020,0.305
6.086,-0.025,0.305
6.089,-0.015,0.305
6.092,-0.015,0.335
6.094,-0.010,0.335
6.097,-0.005,0.330
6.100,-0.010,0.330
6.103,-0.020,0.325
6.106,-0.025,0.345
6.108,-0.005,0.365
6.111,0.000,0.355
6.114,0.010,0.355
6.117,-0.005,0.350
6.119,-0.015,0.355
6.122,0.000,0.365
6.125,0.000,0.360
6.128,0.005,0.365
6.131,-0.005,0.355
6.133,0.000,0.350
6.136,-0.010,0.340
6.139,-0.010,0.345
6.142,0.000,0.360
6.144,-0.005,0.355
6.147,-0.010,0.340
6.150,-0.025,0.335
6.153,-0.025,0.330
6.156,-0.015,0.350
6.158,-0.020,0.335
6.161,-0.015,0.325
6.164,-0.035,0.305
6.167,-0.050,0.300
6.169,-0.055,0.300
6.172,-0.065,0.310
6.175,-0.070,0.310
6.178,-0.075,0.290
6.181,-0.075,0.285
6.183,-0.090,0.275
6.186,-0.125,0.260
6.189,-0.105,0.265
6.192,-0.115,0.255
6.194,-0.125,0.255
6.197,-0.125,0.230
6.200,-0.135,0.220
6.203,-0.155,0.205
6.206,-0.155,0.215
6.208,-0.150,0.215
6.211,-0.150,0.195
6.214,-0.170,0.185
6.217,-0.170,0.175
6.219,-0.180,0.160
6.222,-0.180,0.175
6.225,-0.180,0.170
6.228,-0.165,0.170
6.231,-0.180,0.165
6.233,-0.200,0.135
6.236,-0.205,0.140
6.239,-0.195,0.140
6.242,-0.185,0.155
6.244,-0.180,0.135
6.247,-0.200,0.120
6.250,-0.210,0.110
6.253,-0.210,0.105
6.256,-0.215,0.125
6.258,-0.205,0.120
6.261,-0.195,0.110
6.264,-0.210,0.100
6.267,-0.210,0.095
6.269,-0.220,0.105
6.272,-0.220,0.095
6.275,-0.210,0.110
6.278,-0.205,0.090
6.281,-0.215,0.095
6.283,-0.205,0.085
6.286,-0.225,0.085
6.289,-0.215,0.090
6.292,-0.205,0.105
6.294,-0.200,0.095
6.297,-0.205,0.080
6.300,-0.210,0.085
6.303,-0.215,0.075
6.306,-0.220,0.085
6.308,-0.200,0.090
6.311,-0.200,0.095
6.314,-0.210,0.070
6.317,-0.215,0.070
6.319,-0.225,0.075
6.322,-0.220,0.075
6.325,-0.205,0.065
6.328,-0.210,0.080
6.331,-0.205,0.075
6.333,-0.215,0.055
6.336,-0.225,0.070
6.339,-0.220,0.075
6.342,-0.220,0.085
6.344,-0.220,0.085
6.347,-0.230,0.075
6.350,-0.230,0.065
6.353,-0.245,0.065
6.356,-0.230,0.080
6.358,-0.225,0.090
6.361,-0.220,0.075
6.364,-0.225,0.080
6.367,-0.230,0.070
6.369,-0.255,0.050
6.372,-0.245,0.065
6.375,-0.240,0.075
6.378,-0.240,0.070
6.381,-0.240,0.065
6.383,-0.250,0.045
6.386,-0.260,0.055
6.389,-0.260,0.065
6.392,-0.255,0.080
6.394,-0.250,0.060
6.397,-0.255,0.055
6.400,-0.255,0.055
6.403,-0.270,0.050
6.406,-0.275,0.065
6.408,-0.265,0.080
6.411,-0.255,0.060
6.414,-0.255,0.050
6.417,-0.280,0.050
6.419,-0.305,0.040
6.422,-0.280,0.060
6.425,-0.270,0.055
6.428,-0.280,0.050
6.431,-0.280,0.045
6.433,-0.285,0.045
6.436,-0.290,0.040
6.439,-0.285,0.045
6.442,-0.275,0.050
6.444,-0.280,0.055
6.447,-0.280,0.045
6.450,-0.285,0.035
6.453,-0.295,0.030
6.456,-0.300,0.045
6.458,-0.280,0.045
6.461,-0.290,0.050
6.464,-0.290,0.035
6.467,-0.290,0.025
6.469,-0.315,0.030
6.472,-0.300,0.030
6.475,-0.290,0.035
6.478,-0.290,0.030
6.481,-0.290,0.040
6.483,-0.300,0.025
6.486,-0.315,0.025
6.489,-0.300,0.035
6.492,-0.290,0.040
6.494,-0.295,0.030
6.497,-0.280,0.035
6.500,-0.290,0.025
6.503,-0.305,0.020
6.506,-0.305,0.040
6.508,-0.300,0.050
6.511,-0.285,0.045
6.514,-0.290,0.040
6.517,-0.295,0.035
6.519,-0.310,0.020
6.522,-0.295,0.035
6.525,-0.285,0.055
6.528,-0.285,0.040
6.531,-0.275,0.045
6.533,-0.280,0.035
6.536,-0.280,0.040
6.539,-0.240,0.050
6.542,-0.190,0.075
6.544,-0.100,0.085
6.547,0.185,0.115
6.550,0.650,0.295
6.553,0.825,0.660
6.556,0.510,0.850
6.558,0.135,0.640
6.561,-0.020,0.355
6.564,-0.015,0.230
6.567,0.015,0.215
6.569,-0.015,0.205
6.572,-0.035,0.195
6.575,-0.040,0.190
6.578,-0.040,0.165
6.581,-0.040,0.155
6.583,-0.040,0.130
6.586,-0.055,0.090
6.589,-0.055,0.060
6.592,-0.065,0.035
6.594,-0.055,0.010
6.597,-0.075,-0.005
6.600,-0.095,-0.035
6.603,-0.130,-0.040
6.606,-0.165,-0.050
6.608,-0.195,-0.045
6.611,-0.235,-0.075
6.614,-0.280,-0.105
6.617,-0.330,-0.130
6.619,-0.400,-0.155
6.622,-0.475,-0.160
6.625,-0.570,-0.145
6.628,-0.630,-0.160
6.631,-0.685,-0.180
6.633,-0.735,-0.200
6.636,-0.815,-0.215
6.639,-0.875,-0.215
6.642,-0.925,-0.235
6.644,-0.960,-0.280
6.647,-0.980,-0.325
6.650,-1.020,-0.385
6.653,-1.035,-0.425
6.656,-1.040,-0.425
6.658,-1.050,-0.455
6.661,-1.040,-0.485
6.664,-1.035,-0.535
6.667,-1.040,-0.580
6.669,-1.040,-0.620
6.672,-1.015,-0.645
6.675,-0.975,-0.660
6.678,-0.930,-0.700
6.681,-0.890,-0.735
6.683,-0.835,-0.770
6.686,-0.780,-0.770
6.689,-0.720,-0.735
6.692,-0.650,-0.700
6.694,-0.595,-0.665
6.697,-0.540,-0.630
6.700,-0.505,-0.585
6.703,-0.455,-0.530
6.706,-0.420,-0.450
6.708,-0.380,-0.380
6.711,-0.345,-0.330
6.714,-0.335,-0.275
6.717,-0.325,-0.260
6.719,-0.315,-0.230
6.722,-0.290,-0.190
6.725,-0.255,-0.145
6.728,-0.240,-0.115
6.731,-0.225,-0.105
6.733,-0.235,-0.100
6.736,-0.235,-0.080
6.739,-0.245,-0.055
6.742,-0.240,-0.030
6.744,-0.255,-0.035
6.747,-0.270,-0.035
6.750,-0.270,-0.015
6.753,-0.275,0.005
6.756,-0.260,0.025
6.758,-0.245,0.060
6.761,-0.230,0.080
6.764,-0.220,0.100
6.767,-0.215,0.090
6.769,-0.220,0.120
6.772,-0.200,0.140
6.775,-0.195,0.150
6.778,-0.185,0.160
6.781,-0.180,0.140
6.783,-0.180,0.130
6.786,-0.180,0.145
6.789,-0.175,0.150
6.792,-0.165,0.155
6.794,-0.160,0.155
6.797,-0.155,0.155
6.800,-0.150,0.150
6.803,-0.160,0.155
6.806,-0.155,0.165
6.808,-0.145,0.175
6.811,-0.130,0.175
6.814,-0.140,0.170
6.817,-0.140,0.175
6.819,-0.150,0.195
6.822,-0.145,0.180
6.825,-0.130,0.205
6.828,-0.125,0.205
6.831,-0.125,0.185
6.833,-0.125,0.195
6.836,-0.135,0.205
6.839,-0.130,0.210
6.842,-0.110,0.225
6.844,-0.100,0.220
6.847,-0.115,0.215
6.850,-0.120,0.220
6.853,-0.120,0.225
6.856,-0.110,0.225
6.858,-0.085,0.245
6.861,-0.095,0.245
6.864,-0.095,0.240
6.867,-0.090,0.245
6.869,-0.095,0.250
6.872,-0.075,0.265
6.875,-0.075,0.285
6.878,-0.070,0.290
6.881,-0.055,0.275
6.883,-0.075,0.270
6.886,-0.075,0.285
6.889,-0.060,0.295
6.892,-0.055,0.315
6.894,-0.055,0.310
6.897,-0.050,0.300
6.900,-0.060,0.300
6.903,-0.065,0.315
6.906,-0.055,0.320
6.908,-0.040,0.335
6.911,-0.035,0.335
6.914,-0.040,0.345
6.917,-0.035,0.335
6.919,-0.030,0.335
6.922,-0.020,0.345
6.925,-0.005,0.365
6.928,-0.015,0.370
6.931,0.000,0.360
6.933,-0.005,0.350
6.936,-0.010,0.370
6.939,0.005,0.360
6.942,-0.005,0.385
6.944,0.000,0.390
6.947,0.015,0.375
6.950,0.005,0.370
6.953,0.000,0.370
6.956,-0.005,0.370
6.958,0.005,0.390
6.961,0.010,0.380
6.964,0.000,0.370
6.967,-0.015,0.365
6.969,-0.020,0.360
6.972,-0.025,0.360
6.975,-0.015,0.370
6.978,-0.035,0.365
6.981,-0.040,0.350
6.983,-0.055,0.340
6.986,-0.070,0.325
6.989,-0.060,0.330
6.992,-0.070,0.330
6.994,-0.075,0.325
6.997,-0.080,0.290
7.000,-0.095,0.280
7.003,-0.105,0.290
7.006,-0.105,0.290
7.008,-0.110,0.280
7.011,-0.115,0.270
7.014,-0.130,0.255
7.017,-0.145,0.235
7.019,-0.160,0.230
7.022,-0.165,0.240
7.025,-0.150,0.235
7.028,-0.145,0.230
7.031,-0.175,0.210
7.033,-0.180,0.200
7.036,-0.205,0.185
7.039,-0.200,0.200
7.042,-0.200,0.185
7.044,-0.195,0.185
7.047,-0.195,0.170
7.050,-0.215,0.155
7.053,-0.225,0.160
7.056,-0.225,0.155
7.058,-0.215,0.155
7.061,-0.220,0.150
7.064,-0.225,0.135
7.067,-0.240,0.120
7.069,-0.250,0.125
7.072,-0.245,0.115
7.075,-0.235,0.140
7.078,-0.240,0.125
7.081,-0.250,0.120
7.083,-0.255,0.105
7.086,-0.260,0.100
7.089,-0.270,0.105
7.092,-0.260,0.120
7.094,-0.250,0.110
7.097,-0.255,0.095
7.100,-0.265,0.095
7.103,-0.270,0.085
7.106,-0.270,0.095
7.108,-0.265,0.100
7.111,-0.260,0.090
7.114,-0.270,0.085
7.117,-0.275,0.075
7.119,-0.290,0.075
7.122,-0.290,0.090
7.125,-0.275,0.095
7.128,-0.285,0.095
7.131,-0.295,0.090
7.133,-0.290,0.075
7.136,-0.290,0.080
7.139,-0.305,0.085
7.142,-0.285,0.100
7.144,-0.280,0.085
7.147,-0.300,0.080
7.150,-0.310,0.070
7.153,-0.315,0.060
7.156,-0.310,0.085
7.158,-0.310,0.090
7.161,-0.310,0.080
7.164,-0.320,0.080
7.167,-0.320,0.070
7.169,-0.320,0.055
7.172,-0.325,0.060
7.175,-0.310,0.085
7.178,-0.310,0.080
7.181,-0.320,0.065
7.183,-0.330,0.050
7.186,-0.335,0.055
7.189,-0.345,0.055
7.192,-0.340,0.070
7.194,-0.340,0.055
7.197,-0.325,0.055
7.200,-0.350,0.050
7.203,-0.350,0.045
7.206,-0.340,0.055
7.208,-0.330,0.050
7.211,-0.340,0.050
7.214,-0.345,0.045
7.217,-0.360,0.030
7.219,-0.370,0.020
7.222,-0.360,0.040
7.225,-0.350,0.040
7.228,-0.350,0.035
7.231,-0.360,0.030
7.233,-0.370,0.020
7.236,-0.390,0.025
7.239,-0.375,0.030
7.242,-0.355,0.035
7.244,-0.365,0.025
7.247,-0.365,0.025
7.250,-0.375,0.005
7.253,-0.385,0.000
7.256,-0.385,0.020
7.258,-0.380,0.025
7.261,-0.365,0.030
7.264,-0.375,0.020
7.267,-0.385,-0.005
7.269,-0.390,-0.005
7.272,-0.380,0.010
7.275,-0.370,0.020
7.278,-0.365,0.015
7.281,-0.380,0.010
7.283,-0.385,0.000
7.286,-0.395,0.005
7.289,-0.385,0.005
7.292,-0.380,0.025
7.294,-0.380,0.025
7.297,-0.370,0.005
7.300,-0.390,0.000
7.303,-0.390,0.005
7.306,-0.385,0.010
7.308,-0.370,0.020
7.311,-0.370,0.020
7.314,-0.370,0.015
7.317,-0.370,-0.005
7.319,-0.380,0.005
7.322,-0.360,0.010
7.325,-0.365,0.015
7.328,-0.360,0.010
7.331,-0.360,0.005
7.333,-0.365,0.010
7.336,-0.350,0.010
7.339,-0.340,0.020
7.342,-0.310,0.025
7.344,-0.280,0.025
7.347,-0.245,0.035
7.350,-0.155,0.040
7.353,0.060,0.075
7.356,0.505,0.175
7.358,0.880,0.460
7.361,0.750,0.785
7.364,0.315,0.795
7.367,0.010,0.515
7.369,-0.070,0.290
7.372,-0.050,0.220
7.375,-0.035,0.225
7.378,-0.065,0.200
7.381,-0.095,0.165
7.383,-0.120,0.150
7.386,-0.125,0.125
7.389,-0.120,0.125
7.392,-0.125,0.120
7.394,-0.115,0.095
7.397,-0.125,0.050
7.400,-0.145,0.025
7.403,-0.160,0.000
7.406,-0.170,-0.015
7.408,-0.160,-0.035
7.411,-0.170,-0.040
7.414,-0.200,-0.070
7.417,-0.225,-0.085
7.419,-0.270,-0.100
7.422,-0.310,-0.105
7.425,-0.335,-0.120
7.428,-0.370,-0.130
7.431,-0.405,-0.150
7.433,-0.445,-0.185
7.436,-0.515,-0.205
7.439,-0.580,-0.210
7.442,-0.665,-0.210
7.444,-0.715,-0.215
7.447,-0.780,-0.240
7.450,-0.830,-0.255
7.453,-0.900,-0.270
7.456,-0.945,-0.270
7.458,-0.990,-0.305
7.461,-1.020,-0.345
7.464,-1.045,-0.410
7.467,-1.065,-0.460
7.469,-1.085,-0.500
7.472,-1.085,-0.520
7.475,-1.070,-0.530
7.478,-1.075,-0.570
7.481,-1.075,-0.610
7.483,-1.080,-0.660
7.486,-1.085,-0.685
7.489,-1.065,-0.705
7.492,-1.045,-0.735
7.494,-1.010,-0.780
7.497,-0.985,-0.800
7.500,-0.940,-0.830
7.503,-0.900,-0.845
7.506,-0.815,-0.845
7.508,-0.770,-0.820
7.511,-0.720,-0.790
7.514,-0.680,-0.750
7.517,-0.635,-0.720
7.519,-0.595,-0.670
7.522,-0.535,-0.600
7.525,-0.500,-0.545
7.528,-0.465,-0.485
7.531,-0.455,-0.445
7.533,-0.440,-0.410
7.536,-0.440,-0.345
7.539,-0.415,-0.300
7.542,-0.410,-0.255
7.544,-0.395,-0.235
7.547,-0.395,-0.220
7.550,-0.385,-0.205
7.553,-0.375,-0.185
7.556,-0.365,-0.160
7.558,-0.340,-0.140
7.561,-0.340,-0.120
7.564,-0.350,-0.120
7.567,-0.360,-0.115
7.569,-0.360,-0.085
7.572,-0.350,-0.055
7.575,-0.330,-0.040
7.578,-0.325,-0.005
7.581,-0.320,0.010
7.583,-0.325,0.025
7.586,-0.310,0.040
7.589,-0.295,0.075
7.592,-0.280,0.105
7.594,-0.275,0.135
7.597,-0.285,0.130
7.600,-0.265,0.120
7.603,-0.265,0.135
7.606,-0.255,0.155
7.608,-0.240,0.165
7.611,-0.230,0.170
7.614,-0.250,0.165
7.617,-0.250,0.155
7.619,-0.245,0.160
7.622,-0.240,0.170
7.625,-0.230,0.170
7.628,-0.220,0.180
7.631,-0.220,0.165
7.633,-0.220,0.155
7.636,-0.225,0.160
7.639,-0.205,0.170
7.642,-0.185,0.175
7.644,-0.175,0.180
7.647,-0.170,0.160
7.650,-0.180,0.160
7.653,-0.180,0.165
7.656,-0.170,0.170
7.658,-0.145,0.185
7.661,-0.150,0.185
7.664,-0.145,0.200
7.667,-0.155,0.195
7.669,-0.160,0.200
7.672,-0.125,0.205
7.675,-0.110,0.210
7.678,-0.095,0.210
7.681,-0.085,0.205
7.683,-0.080,0.190
7.686,-0.080,0.210
7.689,-0.070,0.235
7.692,-0.070,0.255
7.694,-0.070,0.255
7.697,-0.065,0.250
7.700,-0.090,0.240
7.703,-0.100,0.245
7.706,-0.085,0.255
7.708,-0.095,0.270
7.711,-0.080,0.260
7.714,-0.090,0.260
7.717,-0.100,0.255
7.719,-0.110,0.260
7.722,-0.100,0.275
7.725,-0.095,0.295
7.728,-0.095,0.290
7.731,-0.085,0.285
7.733,-0.095,0.290
7.736,-0.095,0.290
7.739,-0.085,0.310
7.742,-0.075,0.310
7.744,-0.070,0.320
7.747,-0.080,0.310
7.750,-0.070,0.315
7.753,-0.080,0.330
7.756,-0.060,0.345
7.758,-0.045,0.350
7.761,-0.035,0.350
7.764,-0.050,0.345
7.767,-0.060,0.345
7.769,-0.055,0.345
7.772,-0.050,0.360
7.775,-0.045,0.360
7.778,-0.045,0.350
7.781,-0.055,0.350
7.783,-0.065,0.340
7.786,-0.075,0.345
7.789,-0.060,0.330
7.792,-0.065,0.355
7.794,-0.065,0.335
7.797,-0.080,0.325
7.800,-0.090,0.325
7.803,-0.120,0.315
7.806,-0.105,0.315
7.808,-0.100,0.325
7.811,-0.115,0.310
7.814,-0.125,0.295
7.817,-0.140,0.280
7.819,-0.165,0.265
7.822,-0.160,0.255
7.825,-0.145,0.265
7.828,-0.155,0.240
7.831,-0.160,0.235
7.833,-0.185,0.215
7.836,-0.205,0.210
7.839,-0.200,0.200
7.842,-0.205,0.205
7.844,-0.210,0.190
7.847,-0.205,0.180
7.850,-0.230,0.160
7.853,-0.235,0.155
7.856,-0.240,0.150
7.858,-0.225,0.145
7.861,-0.230,0.145
7.864,-0.250,0.130
7.867,-0.255,0.115
7.869,-0.265,0.115
7.872,-0.260,0.110
7.875,-0.255,0.110
7.878,-0.255,0.105
7.881,-0.265,0.090
7.883,-0.275,0.085
7.886,-0.275,0.075
7.889,-0.280,0.075
7.892,-0.270,0.090
7.894,-0.270,0.075
7.897,-0.275,0.070
7.900,-0.285,0.060
7.903,-0.295,0.055
7.906,-0.285,0.070
7.908,-0.285,0.075
7.911,-0.295,0.070
7.914,-0.295,0.060
7.917,-0.295,0.055
7.919,-0.305,0.060
7.922,-0.295,0.060
7.925,-0.285,0.060
7.928,-0.295,0.055
7.931,-0.300,0.040
7.933,-0.310,0.035
7.936,-0.320,0.050
7.939,-0.305,0.060
7.942,-0.315,0.055
7.944,-0.310,0.060
7.947,-0.320,0.035
7.950,-0.335,0.025
7.953,-0.335,0.030
7.956,-0.330,0.050
7.958,-0.315,0.070
7.961,-0.330,0.050
7.964,-0.320,0.050
7.967,-0.325,0.030
7.969,-0.350,0.030
7.972,-0.325,0.045
7.975,-0.325,0.045
7.978,-0.320,0.040
7.981,-0.340,0.040
7.983,-0.345,0.030
7.986,-0.355,0.030
7.989,-0.345,0.040
7.992,-0.340,0.055
7.994,-0.345,0.035
7.997,-0.355,0.035
8.000,-0.360,0.025
8.003,-0.365,0.020
8.006,-0.360,0.035
8.008,-0.355,0.030
8.011,-0.355,0.035
8.014,-0.345,0.020
8.017,-0.360,0.005
8.019,-0.375,0.015
8.022,-0.365,0.020
8.025,-0.360,0.020
8.028,-0.355,0.030
8.031,-0.355,0.005
8.033,-0.370,0.010
8.036,-0.385,0.000
8.039,-0.365,0.010
8.042,-0.365,0.015
8.044,-0.360,0.015
8.047,-0.385,-0.005
8.050,-0.385,-0.005
8.053,-0.385,-0.020
8.056,-0.380,0.000
8.058,-0.370,0.005
8.061,-0.365,0.010
8.064,-0.365,-0.005
8.067,-0.380,-0.015
8.069,-0.385,-0.010
8.072,-0.385,-0.015
8.075,-0.380,0.005
8.078,-0.385,-0.005
8.081,-0.385,-0.015
8.083,-0.385,-0.035
8.086,-0.390,-0.015
8.089,-0.385,-0.005
8.092,-0.370,-0.015
8.094,-0.375,-0.015
8.097,-0.370,-0.035
8.100,-0.380,-0.035
8.103,-0.390,-0.015
8.106,-0.380,-0.020
8.108,-0.365,-0.005
8.111,-0.360,-0.005
8.114,-0.355,-0.010
8.117,-0.375,-0.030
8.119,-0.375,-0.015
8.122,-0.370,-0.005
8.125,-0.370,0.005
8.128,-0.355,-0.005
8.131,-0.355,-0.020
8.133,-0.360,-0.025
8.136,-0.355,-0.015
8.139,-0.360,-0.015
8.142,-0.340,-0.005
8.144,-0.330,-0.010
8.147,-0.325,-0.010
8.150,-0.320,-0.015
8.153,-0.295,-0.010
8.156,-0.250,0.020
8.158,-0.155,0.055
8.161,0.110,0.130
8.164,0.550,0.295
8.167,0.765,0.620
8.169,0.485,0.810
8.172,0.115,0.655
8.175,-0.060,0.385
8.178,-0.065,0.240
8.181,-0.060,0.195
8.183,-0.070,0.180
8.186,-0.100,0.145
8.189,-0.125,0.130
8.192,-0.125,0.120
8.194,-0.130,0.115
8.197,-0.135,0.090
8.200,-0.145,0.060
8.203,-0.145,0.055
8.206,-0.160,0.020
8.208,-0.165,0.000
8.211,-0.175,-0.045
8.214,-0.205,-0.070
8.217,-0.220,-0.095
8.219,-0.240,-0.100
8.222,-0.260,-0.105
8.225,-0.280,-0.110
8.228,-0.330,-0.125
8.231,-0.360,-0.150
8.233,-0.400,-0.185
8.236,-0.445,-0.205
8.239,-0.475,-0.205
8.242,-0.525,-0.225
8.244,-0.590,-0.235
8.247,-0.680,-0.260
8.250,-0.745,-0.270
8.253,-0.805,-0.295
8.256,-0.850,-0.280
8.258,-0.905,-0.285
8.261,-0.950,-0.305
8.264,-1.005,-0.335
8.267,-1.060,-0.400
8.269,-1.055,-0.435
8.272,-1.070,-0.485
8.275,-1.070,-0.520
8.278,-1.070,-0.550
8.281,-1.075,-0.590
8.283,-1.080,-0.620
8.286,-1.080,-0.655
8.289,-1.070,-0.680
8.292,-1.050,-0.720
8.294,-1.040,-0.750
8.297,-1.015,-0.795
8.300,-0.985,-0.820
8.303,-0.945,-0.845
8.306,-0.895,-0.850
8.308,-0.830,-0.865
8.311,-0.770,-0.850
8.314,-0.730,-0.835
8.317,-0.685,-0.790
8.319,-0.645,-0.755
8.322,-0.590,-0.700
8.325,-0.535,-0.640
8.328,-0.505,-0.585
8.331,-0.480,-0.530
8.333,-0.460,-0.495
8.336,-0.435,-0.445
8.339,-0.415,-0.365
8.342,-0.410,-0.325
8.344,-0.395,-0.300
8.347,-0.395,-0.280
8.350,-0.390,-0.250
8.353,-0.390,-0.230
8.356,-0.365,-0.190
8.358,-0.345,-0.160
8.361,-0.335,-0.165
8.364,-0.340,-0.155
8.367,-0.350,-0.140
8.369,-0.360,-0.120
8.372,-0.345,-0.095
8.375,-0.330,-0.065
8.378,-0.320,-0.040
8.381,-0.330,-0.045
8.383,-0.315,-0.020
8.386,-0.305,0.005
8.389,-0.275,0.050
8.392,-0.270,0.065
8.394,-0.260,0.085
8.397,-0.255,0.090
8.400,-0.255,0.080
8.403,-0.255,0.090
8.406,-0.240,0.095
8.408,-0.215,0.115
8.411,-0.210,0.110
8.414,-0.210,0.115
8.417,-0.220,0.090
8.419,-0.225,0.110
8.422,-0.210,0.120
8.425,-0.195,0.125
8.428,-0.190,0.125
8.431,-0.185,0.120
8.433,-0.185,0.110
8.436,-0.200,0.125
8.439,-0.180,0.145
8.442,-0.175,0.160
8.444,-0.165,0.150
8.447,-0.165,0.145
8.450,-0.180,0.140
8.453,-0.175,0.145
8.456,-0.160,0.155
8.458,-0.150,0.180
8.461,-0.155,0.170
8.464,-0.165,0.175
8.467,-0.150,0.170
8.469,-0.155,0.175
8.472,-0.130,0.190
8.475,-0.125,0.200
8.478,-0.115,0.205
8.481,-0.115,0.195
8.483,-0.120,0.205
8.486,-0.135,0.200
8.489,-0.110,0.225
8.492,-0.100,0.230
8.494,-0.095,0.230
8.497,-0.110,0.230
8.500,-0.105,0.230
8.503,-0.105,0.240
8.506,-0.090,0.255
8.508,-0.095,0.275
8.511,-0.085,0.275
8.514,-0.085,0.270
8.517,-0.080,0.270
8.519,-0.080,0.290
8.522,-0.055,0.295
8.525,-0.045,0.325
8.528,-0.040,0.320
8.531,-0.060,0.325
8.533,-0.055,0.320
8.536,-0.050,0.335
8.539,-0.040,0.355
8.542,-0.030,0.375
8.544,-0.020,0.375
8.547,-0.020,0.375
8.550,-0.030,0.375
8.553,-0.040,0.390
8.556,-0.020,0.390
8.558,-0.010,0.395
8.561,0.000,0.395
8.564,-0.005,0.385
8.567,0.010,0.375
8.569,0.005,0.370
8.572,0.010,0.375
8.575,0.005,0.370
8.578,0.010,0.375
8.581,0.000,0.360
8.583,-0.005,0.345
8.586,-0.015,0.325
8.589,0.005,0.340
8.592,0.000,0.340
8.594,0.005,0.335
8.597,-0.005,0.325
8.600,-0.020,0.300
8.603,-0.030,0.295
8.606,-0.020,0.300
8.608,-0.015,0.290
8.611,-0.015,0.290
8.614,-0.025,0.270
8.617,-0.050,0.260
8.619,-0.075,0.230
8.622,-0.080,0.235
8.625,-0.110,0.235
8.628,-0.120,0.215
8.631,-0.125,0.195
8.633,-0.150,0.160
8.636,-0.170,0.170
8.639,-0.160,0.165
8.642,-0.170,0.160
8.644,-0.180,0.150
8.647,-0.190,0.115
8.650,-0.205,0.105
8.653,-0.205,0.100
8.656,-0.210,0.110
8.658,-0.205,0.115
8.661,-0.205,0.100
8.664,-0.225,0.090
8.667,-0.225,0.070
8.669,-0.230,0.065
8.672,-0.245,0.085
8.675,-0.240,0.070
8.678,-0.240,0.060
8.681,-0.230,0.065
8.683,-0.245,0.055
8.686,-0.240,0.050
8.689,-0.250,0.050
8.692,-0.235,0.055
8.694,-0.245,0.055
8.697,-0.250,0.040
8.700,-0.260,0.035
8.703,-0.260,0.035
8.706,-0.260,0.045
8.708,-0.255,0.055
8.711,-0.260,0.045
8.714,-0.255,0.030
8.717,-0.270,0.025
8.719,-0.260,0.025
8.722,-0.270,0.030
8.725,-0.255,0.035
8.728,-0.275,0.050
8.731,-0.280,0.025
8.733,-0.285,0.015
8.736,-0.280,0.020
8.739,-0.280,0.025
8.742,-0.270,0.040
8.744,-0.275,0.040
8.747,-0.280,0.030
8.750,-0.285,0.010
8.753,-0.295,0.020
8.756,-0.285,0.025
8.758,-0.280,0.030
8.761,-0.280,0.035
8.764,-0.285,0.020
8.767,-0.295,0.010
8.769,-0.300,0.015
8.772,-0.300,0.010
8.775,-0.300,0.025
8.778,-0.300,0.025
8.781,-0.305,0.005
8.783,-0.330,0.000
8.786,-0.325,0.000
8.789,-0.315,0.005
8.792,-0.300,0.010
8.794,-0.300,0.010
8.797,-0.310,0.000
8.800,-0.320,-0.010
8.803,-0.325,-0.010
8.806,-0.320,0.000
8.808,-0.320,0.005
8.811,-0.320,0.005
8.814,-0.320,-0.015
8.817,-0.330,-0.010
8.819,-0.350,-0.005
8.822,-0.325,-0.005
8.825,-0.320,-0.005
8.828,-0.335,-0.010
8.831,-0.330,-0.020
8.833,-0.345,-0.030
8.836,-0.355,-0.030
8.839,-0.355,-0.025
8.842,-0.345,-0.020
8.844,-0.345,-0.015
8.847,-0.345,-0.030
8.850,-0.350,-0.035
8.853,-0.350,-0.040
8.856,-0.340,-0.020
8.858,-0.325,-0.025
8.861,-0.325,-0.020
8.864,-0.325,-0.035
8.867,-0.350,-0.040
8.869,-0.360,-0.040
8.872,-0.360,-0.030
8.875,-0.345,-0.030
8.878,-0.345,-0.035
8.881,-0.340,-0.035
8.883,-0.355,-0.045
8.886,-0.360,-0.050
8.889,-0.360,-0.035
8.892,-0.345,-0.030
8.894,-0.340,-0.035
8.897,-0.350,-0.045
8.900,-0.345,-0.055
8.903,-0.355,-0.045
8.906,-0.350,-0.045
8.908,-0.350,-0.030
8.911,-0.335,-0.040
8.914,-0.350,-0.055
8.917,-0.355,-0.055
8.919,-0.365,-0.050
8.922,-0.350,-0.050
8.925,-0.340,-0.025
8.928,-0.345,-0.035
8.931,-0.350,-0.050
8.933,-0.345,-0.065
8.936,-0.350,-0.055
8.939,-0.340,-0.055
8.942,-0.335,-0.040
8.944,-0.335,-0.040
8.947,-0.335,-0.050
8.950,-0.330,-0.065
8.953,-0.340,-0.055
8.956,-0.315,-0.035
8.958,-0.265,-0.020
8.961,-0.235,-0.030
8.964,-0.125,-0.010
8.967,0.140,0.025
8.969,0.595,0.180
8.972,0.875,0.515
8.975,0.655,0.775
8.978,0.225,0.665
8.981,-0.020,0.375
8.983,-0.065,0.185
8.986,-0.025,0.160
8.989,-0.030,0.160
8.992,-0.050,0.130
8.994,-0.085,0.105
8.997,-0.105,0.090
9.000,-0.120,0.065
9.003,-0.135,0.060
9.006,-0.125,0.040
9.008,-0.130,0.025
9.011,-0.140,-0.020
9.014,-0.155,-0.060
9.017,-0.195,-0.110
9.019,-0.205,-0.120
9.022,-0.195,-0.135
9.025,-0.210,-0.140
9.028,-0.220,-0.160
9.031,-0.245,-0.185
9.033,-0.295,-0.205
9.036,-0.335,-0.225
9.039,-0.365,-0.240
9.042,-0.400,-0.255
9.044,-0.450,-0.290
9.047,-0.505,-0.315
9.050,-0.595,-0.345
9.053,-0.695,-0.345
9.056,-0.770,-0.350
9.058,-0.825,-0.355
9.061,-0.845,-0.360
9.064,-0.915,-0.375
9.067,-0.965,-0.400
9.069,-1.025,-0.425
9.072,-1.060,-0.440
9.075,-1.065,-0.480
9.078,-1.070,-0.535
9.081,-1.080,-0.600
9.083,-1.095,-0.630
9.086,-1.095,-0.650
9.089,-1.080,-0.650
9.092,-1.075,-0.680
9.094,-1.070,-0.715
9.097,-1.060,-0.770
9.100,-1.045,-0.805
9.103,-1.035,-0.820
9.106,-1.000,-0.830
9.108,-0.965,-0.860
9.111,-0.920,-0.880
9.114,-0.880,-0.910
9.117,-0.820,-0.915
9.119,-0.770,-0.885
9.122,-0.700,-0.840
9.125,-0.625,-0.790
9.128,-0.575,-0.735
9.131,-0.525,-0.705
9.133,-0.490,-0.660
9.136,-0.465,-0.595
9.139,-0.430,-0.510
9.142,-0.400,-0.460
9.144,-0.380,-0.400
9.147,-0.390,-0.370
9.150,-0.390,-0.340
9.153,-0.395,-0.295
9.156,-0.380,-0.250
9.158,-0.355,-0.225
9.161,-0.335,-0.200
9.164,-0.320,-0.185
9.167,-0.320,-0.175
9.169,-0.350,-0.170
9.172,-0.340,-0.135
9.175,-0.330,-0.120
9.178,-0.335,-0.090
9.181,-0.330,-0.080
9.183,-0.325,-0.065
9.186,-0.305,-0.045
9.189,-0.290,0.000
9.192,-0.270,0.020
9.194,-0.245,0.030
9.197,-0.240,0.035
9.200,-0.235,0.045
9.203,-0.230,0.060
9.206,-0.225,0.075
9.208,-0.210,0.090
9.211,-0.210,0.085
9.214,-0.185,0.075
9.217,-0.195,0.070
9.219,-0.190,0.075
9.222,-0.175,0.085
9.225,-0.175,0.095
9.228,-0.170,0.095
9.231,-0.185,0.095
9.233,-0.185,0.090
9.236,-0.195,0.085
9.239,-0.175,0.105
9.242,-0.145,0.115
9.244,-0.120,0.125
9.247,-0.120,0.115
9.250,-0.130,0.105
9.253,-0.140,0.120
9.256,-0.140,0.135
9.258,-0.120,0.145
9.261,-0.120,0.145
9.264,-0.105,0.140
9.267,-0.110,0.135
9.269,-0.110,0.155
9.272,-0.105,0.165
9.275,-0.095,0.180
9.278,-0.090,0.190
9.281,-0.100,0.180
9.283,-0.105,0.170
9.286,-0.100,0.185
9.289,-0.080,0.200
9.292,-0.065,0.220
9.294,-0.040,0.220
9.297,-0.045,0.210
9.300,-0.050,0.210
9.303,-0.040,0.220
9.306,-0.030,0.230
9.308,-0.025,0.250
9.311,-0.025,0.250
9.314,-0.025,0.250
9.317,-0.055,0.245
9.319,-0.050,0.265
9.322,-0.055,0.280
9.325,-0.025,0.290
9.328,-0.010,0.295
9.331,-0.005,0.295
9.333,-0.010,0.300
9.336,-0.005,0.300
9.339,-0.005,0.305
9.342,0.005,0.320
9.344,0.010,0.320
9.347,0.005,0.320
9.350,0.015,0.305
9.353,0.010,0.325
9.356,0.025,0.335
9.358,0.025,0.340
9.361,0.005,0.335
9.364,0.005,0.325
9.367,-0.010,0.315
9.369,-0.005,0.325
9.372,0.005,0.330
9.375,0.010,0.325
9.378,0.020,0.325
9.381,0.020,0.315
9.383,0.000,0.300
9.386,-0.015,0.305
9.389,-0.020,0.300
9.392,-0.025,0.295
9.394,-0.030,0.290
9.397,-0.055,0.275
9.400,-0.075,0.255
9.403,-0.085,0.255
9.406,-0.085,0.260
9.408,-0.095,0.245
9.411,-0.105,0.220
9.414,-0.125,0.200
9.417,-0.145,0.185
9.419,-0.160,0.175
9.422,-0.155,0.185
9.425,-0.155,0.185
9.428,-0.160,0.165
9.431,-0.160,0.145
9.433,-0.165,0.120
9.436,-0.175,0.120
9.439,-0.180,0.120
9.442,-0.190,0.120
9.444,-0.195,0.105
9.447,-0.215,0.095
9.450,-0.230,0.085
9.453,-0.240,0.080
9.456,-0.230,0.090
9.458,-0.215,0.085
9.461,-0.230,0.075
9.464,-0.235,0.070
9.467,-0.260,0.065
9.469,-0.265,0.065
9.472,-0.255,0.070
9.475,-0.250,0.075
9.478,-0.250,0.070
9.481,-0.270,0.055
9.483,-0.280,0.040
9.486,-0.275,0.045
9.489,-0.260,0.045
9.492,-0.245,0.060
9.494,-0.260,0.040
9.497,-0.285,0.030
9.500,-0.275,0.020
9.503,-0.275,0.020
9.506,-0.275,0.030
9.508,-0.270,0.025
9.511,-0.265,0.025
9.514,-0.265,0.020
9.517,-0.255,0.005
9.519,-0.245,0.010
9.522,-0.245,0.015
9.525,-0.235,0.010
9.528,-0.245,0.015
9.531,-0.245,0.005
9.533,-0.250,0.000
9.536,-0.250,0.005
9.539,-0.230,0.005
9.542,-0.215,0.010
9.544,-0.215,0.010
9.547,-0.215,0.005
9.550,-0.210,0.000
9.553,-0.205,0.015
9.556,-0.200,0.020
9.558,-0.195,0.030
9.561,-0.205,0.025
9.564,-0.230,0.000
9.567,-0.235,-0.015
9.569,-0.255,-0.010
9.572,-0.265,0.000
9.575,-0.260,-0.015
9.578,-0.260,-0.025
9.581,-0.280,-0.025
9.583,-0.305,-0.035
9.586,-0.320,-0.040
9.589,-0.310,-0.040
9.592,-0.295,-0.025
9.594,-0.295,-0.035
9.597,-0.300,-0.040
9.600,-0.300,-0.045
9.603,-0.310,-0.045
9.606,-0.315,-0.035
9.608,-0.315,-0.030
9.611,-0.320,-0.045
9.614,-0.315,-0.050
9.617,-0.320,-0.075
9.619,-0.310,-0.055
9.622,-0.315,-0.055
9.625,-0.305,-0.045
9.628,-0.300,-0.050
9.631,-0.310,-0.060
9.633,-0.320,-0.065
9.636,-0.320,-0.055
9.639,-0.310,-0.055
9.642,-0.310,-0.060
9.644,-0.300,-0.050
9.647,-0.325,-0.060
9.650,-0.325,-0.075
9.653,-0.330,-0.065
9.656,-0.320,-0.050
9.658,-0.320,-0.065
9.661,-0.325,-0.065
9.664,-0.325,-0.060
9.667,-0.320,-0.090
9.669,-0.335,-0.075
9.672,-0.325,-0.070
9.675,-0.320,-0.070
9.678,-0.315,-0.075
9.681,-0.315,-0.070
9.683,-0.335,-0.100
9.686,-0.325,-0.085
9.689,-0.315,-0.090
9.692,-0.300,-0.065
9.694,-0.300,-0.065
9.697,-0.305,-0.075
9.700,-0.305,-0.080
9.703,-0.310,-0.075
9.706,-0.300,-0.065
9.708,-0.290,-0.060
9.711,-0.295,-0.060
9.714,-0.290,-0.065
9.717,-0.290,-0.080
9.719,-0.290,-0.080
9.722,-0.280,-0.065
9.725,-0.270,-0.065
9.728,-0.275,-0.050
9.731,-0.275,-0.065
9.733,-0.260,-0.060
9.736,-0.260,-0.045
9.739,-0.250,-0.040
9.742,-0.240,-0.020
9.744,-0.205,-0.005
9.747,-0.150,-0.005
9.750,-0.040,0.000
9.753,0.160,0.040
9.756,0.630,0.125
9.758,1.095,0.420
9.761,1.085,0.785
9.764,0.765,0.775
9.767,0.565,0.535
9.769,0.605,0.385
9.772,0.795,0.355
9.775,0.965,0.370
9.778,1.120,0.365
9.781,1.265,0.340
9.783,1.410,0.310
9.786,1.500,0.295
9.789,1.495,0.240
9.792,1.375,0.140
9.794,1.160,0.000
9.797,0.920,-0.155
9.800,0.680,-0.295
9.803,0.475,-0.360
9.806,0.305,-0.385
9.808,0.110,-0.405
9.811,-0.085,-0.410
9.814,-0.280,-0.400
9.817,-0.400,-0.360
9.819,-0.465,-0.320
9.822,-0.470,-0.270
9.825,-0.455,-0.240
9.828,-0.460,-0.195
9.831,-0.460,-0.165
9.833,-0.450,-0.145
9.836,-0.455,-0.125
9.839,-0.435,-0.095
9.842,-0.430,-0.085
9.844,-0.415,-0.085
9.847,-0.415,-0.090
9.850,-0.425,-0.100
9.853,-0.425,-0.100
9.856,-0.425,-0.090
9.858,-0.415,-0.075
9.861,-0.405,-0.095
9.864,-0.415,-0.090
9.867,-0.425,-0.110
9.869,-0.435,-0.100
9.872,-0.430,-0.095
9.875,-0.430,-0.090
9.878,-0.425,-0.090
9.881,-0.440,-0.095
9.883,-0.435,-0.110
9.886,-0.450,-0.100
9.889,-0.435,-0.095
9.892,-0.435,-0.090
9.894,-0.445,-0.095
9.897,-0.445,-0.110
9.900,-0.450,-0.135
9.903,-0.460,-0.115
9.906,-0.460,-0.115
9.908,-0.460,-0.110
9.911,-0.470,-0.115
9.914,-0.485,-0.120
9.917,-0.495,-0.145
9.919,-0.500,-0.135
9.922,-0.490,-0.120
9.925,-0.490,-0.130
9.928,-0.490,-0.120
9.931,-0.505,-0.140
9.933,-0.515,-0.140
9.936,-0.520,-0.155
9.939,-0.510,-0.140
9.942,-0.510,-0.130
9.944,-0.515,-0.145
9.947,-0.520,-0.155
9.950,-0.540,-0.150
9.953,-0.535,-0.160
9.956,-0.550,-0.155
9.958,-0.535,-0.145
9.961,-0.540,-0.150
9.964,-0.550,-0.170
9.967,-0.555,-0.170
9.969,-0.560,-0.180
9.972,-0.565,-0.160
9.975,-0.560,-0.155
9.978,-0.570,-0.160
9.981,-0.570,-0.180
9.983,-0.585,-0.185
9.986,-0.585,-0.185
9.989,-0.585,-0.180
9.992,-0.590,-0.175
9.994,-0.585,-0.185
9.997,-0.595,-0.190
10.000,-0.600,-0.190
10.003,-0.610,-0.195
10.006,-0.600,-0.185
10.008,-0.595,-0.170
10.011,-0.595,-0.175
10.014,-0.605,-0.180
10.017,-0.605,-0.190
10.019,-0.610,-0.185
10.022,-0.595,-0.185
10.025,-0.585,-0.165
10.028,-0.575,-0.160
10.031,-0.590,-0.170
10.033,-0.590,-0.170
10.036,-0.595,-0.175
10.039,-0.580,-0.155
10.042,-0.570,-0.140
10.044,-0.565,-0.150
10.047,-0.560,-0.160
10.050,-0.560,-0.160
10.053,-0.550,-0.155
10.056,-0.540,-0.145
10.058,-0.520,-0.135
10.061,-0.505,-0.130
10.064,-0.505,-0.130
10.067,-0.505,-0.130
10.069,-0.495,-0.125
10.072,-0.470,-0.110
10.075,-0.445,-0.095
10.078,-0.435,-0.085
10.081,-0.430,-0.100
10.083,-0.420,-0.080
10.086,-0.420,-0.075
10.089,-0.390,-0.065
10.092,-0.360,-0.055
10.094,-0.355,-0.050
10.097,-0.340,-0.040
10.100,-0.345,-0.045
10.103,-0.340,-0.040
10.106,-0.300,-0.020
10.108,-0.285,-0.015
10.111,-0.280,-0.015
10.114,-0.275,-0.015
10.117,-0.285,-0.020
10.119,-0.275,-0.015
10.122,-0.275,-0.005
10.125,-0.255,0.010
10.128,-0.265,0.010
10.131,-0.260,0.000
10.133,-0.260,-0.010
10.136,-0.250,-0.005
10.139,-0.245,0.005
10.142,-0.245,0.010
10.144,-0.230,0.015
10.147,-0.235,-0.005
10.150,-0.245,-0.005
10.153,-0.245,0.005
10.156,-0.245,-0.005
10.158,-0.240,0.015
10.161,-0.225,0.000
10.164,-0.235,-0.010
10.167,-0.235,-0.015
10.169,-0.240,0.000
10.172,-0.235,0.000
10.175,-0.230,0.000
10.178,-0.225,-0.005
10.181,-0.240,-0.020
10.183,-0.250,-0.030
10.186,-0.245,-0.020
10.189,-0.240,-0.005
10.192,-0.225,-0.010
10.194,-0.240,-0.010
10.197,-0.235,-0.020
10.200,-0.265,-0.030
10.203,-0.265,-0.030
10.206,-0.255,-0.015
10.208,-0.245,-0.005
10.211,-0.255,-0.010
10.214,-0.265,-0.025
10.217,-0.260,-0.035
10.219,-0.270,-0.030
10.222,-0.255,-0.040
10.225,-0.245,-0.020
10.228,-0.255,-0.025
10.231,-0.265,-0.030
10.233,-0.260,-0.050
10.236,-0.275,-0.030
10.239,-0.265,-0.015
10.242,-0.255,-0.025
10.244,-0.260,-0.015
10.247,-0.270,-0.035
10.250,-0.275,-0.030
10.253,-0.270,-0.045
10.256,-0.265,-0.035
10.258,-0.240,-0.015
10.261,-0.250,-0.010
10.264,-0.255,-0.020
10.267,-0.255,-0.040
10.269,-0.265,-0.040
10.272,-0.250,-0.020
10.275,-0.245,-0.010
10.278,-0.245,-0.015
10.281,-0.255,-0.020
10.283,-0.265,-0.040
10.286,-0.265,-0.020
10.289,-0.235,-0.015
10.292,-0.225,-0.015
10.294,-0.235,-0.010
10.297,-0.240,-0.015
10.300,-0.240,-0.020
10.303,-0.245,-0.020
10.306,-0.245,-0.015
10.308,-0.220,-0.005
10.311,-0.215,-0.010
10.314,-0.225,-0.020
10.317,-0.235,-0.035
10.319,-0.255,-0.020
10.322,-0.225,-0.020
10.325,-0.225,-0.005
10.328,-0.225,-0.010
10.331,-0.220,-0.020
10.333,-0.225,-0.030
10.336,-0.235,-0.030
10.339,-0.230,-0.015
10.342,-0.220,-0.020
10.344,-0.215,-0.015
10.347,-0.225,-0.025
10.350,-0.240,-0.025
10.353,-0.235,-0.020
10.356,-0.235,-0.010
10.358,-0.225,-0.010
10.361,-0.215,0.000
10.364,-0.225,-0.010
10.367,-0.230,-0.020
10.369,-0.235,-0.015
10.372,-0.230,-0.005
10.375,-0.225,0.010
10.378,-0.215,-0.005
10.381,-0.235,0.000
10.383,-0.235,-0.015
10.386,-0.240,-0.005
10.389,-0.245,0.015
10.392,-0.230,0.020
10.394,-0.220,0.020
10.397,-0.235,0.015
10.400,-0.230,-0.010
10.403,-0.240,0.010
10.406,-0.230,0.030
10.408,-0.230,0.015
10.411,-0.230,0.020
10.414,-0.250,0.005
10.417,-0.230,0.000
10.419,-0.235,-0.015
10.422,-0.225,-0.015
10.425,-0.215,0.000
10.428,-0.200,-0.005
10.431,-0.205,-0.025
10.433,-0.210,-0.040
10.436,-0.215,-0.030
10.439,-0.200,-0.020
10.442,-0.180,-0.010
10.444,-0.180,-0.020
10.447,-0.190,-0.030
10.450,-0.195,-0.035
10.453,-0.200,-0.035
10.456,-0.170,-0.025
10.458,-0.155,-0.015
10.461,-0.145,-0.005
10.464,-0.150,-0.030
10.467,-0.145,-0.030
10.469,-0.135,-0.015
10.472,-0.140,0.010
10.475,-0.130,-0.010
10.478,-0.140,-0.005
10.481,-0.165,-0.010
10.483,-0.185,-0.025
10.486,-0.195,-0.035
10.489,-0.190,-0.030
10.492,-0.180,-0.015
10.494,-0.185,-0.015
10.497,-0.200,-0.025
10.500,-0.215,-0.045
10.503,-0.205,-0.040
10.506,-0.200,-0.030
10.508,-0.195,-0.030
10.511,-0.195,-0.030
10.514,-0.200,-0.030
10.517,-0.205,-0.045
10.519,-0.210,-0.030
10.522,-0.190,-0.030
10.525,-0.155,-0.015
10.528,-0.145,-0.015
10.531,-0.100,-0.010
10.533,-0.035,-0.015
10.536,0.170,0.015
10.539,0.625,0.100
10.542,0.995,0.405
10.544,0.840,0.695
10.547,0.385,0.625
10.550,0.100,0.340
10.553,0.060,0.180
10.556,0.100,0.155
10.558,0.125,0.170
10.561,0.090,0.140
10.564,0.050,0.120
10.567,0.035,0.075
10.569,0.025,0.085
10.572,0.040,0.080
10.575,0.065,0.065
10.578,0.065,0.050
10.581,0.050,0.030
10.583,0.040,-0.010
10.586,0.030,-0.040
10.589,0.030,-0.040
10.592,0.040,-0.050
10.594,0.035,-0.050
10.597,0.030,-0.070
10.600,-0.005,-0.095
10.603,-0.025,-0.090
10.606,-0.055,-0.080
10.608,-0.085,-0.085
10.611,-0.120,-0.105
10.614,-0.180,-0.115
10.617,-0.200,-0.145
10.619,-0.235,-0.130
10.622,-0.275,-0.135
10.625,-0.285,-0.130
10.628,-0.290,-0.150
10.631,-0.310,-0.150
10.633,-0.330,-0.165
10.636,-0.360,-0.150
10.639,-0.415,-0.155
10.642,-0.445,-0.145
10.644,-0.450,-0.165
10.647,-0.430,-0.165
10.650,-0.390,-0.175
10.653,-0.335,-0.165
10.656,-0.270,-0.145
10.658,-0.220,-0.135
10.661,-0.165,-0.120
10.664,-0.160,-0.165
10.667,-0.195,-0.220
10.669,-0.255,-0.285
10.672,-0.300,-0.345
10.675,-0.335,-0.370
10.678,-0.400,-0.395
10.681,-0.440,-0.430
10.683,-0.480,-0.430
10.686,-0.515,-0.415
10.689,-0.520,-0.385
10.692,-0.495,-0.335
10.694,-0.460,-0.275
10.697,-0.420,-0.230
10.700,-0.395,-0.195
10.703,-0.375,-0.150
10.706,-0.350,-0.100
10.708,-0.340,-0.070
10.711,-0.320,-0.065
10.714,-0.310,-0.055
10.717,-0.315,-0.055
10.719,-0.305,-0.045
10.722,-0.300,-0.020
10.725,-0.290,-0.005
10.728,-0.265,-0.025
10.731,-0.255,-0.035
10.733,-0.260,-0.040
10.736,-0.260,-0.025
10.739,-0.240,-0.020
10.742,-0.240,-0.020
10.744,-0.230,-0.025
10.747,-0.245,-0.030
10.750,-0.235,-0.030
10.753,-0.235,-0.035
10.756,-0.225,-0.020
10.758,-0.220,-0.010
10.761,-0.220,-0.015
10.764,-0.220,-0.025
10.767,-0.220,-0.035
10.769,-0.230,-0.035
10.772,-0.215,-0.015
10.775,-0.210,-0.015
10.778,-0.215,-0.020
10.781,-0.210,-0.020
10.783,-0.220,-0.040
10.786,-0.225,-0.035
10.789,-0.215,-0.015
10.792,-0.215,-0.015
10.794,-0.195,-0.010
10.797,-0.195,-0.020
10.800,-0.205,-0.035
10.803,-0.210,-0.025
10.806,-0.205,-0.020
10.808,-0.195,-0.010
10.811,-0.195,-0.015
10.814,-0.190,-0.020
10.817,-0.205,-0.030
10.819,-0.200,-0.025
10.822,-0.180,-0.015
10.825,-0.175,-0.015
10.828,-0.170,-0.005
10.831,-0.180,-0.015
10.833,-0.180,-0.020
10.836,-0.195,-0.010
10.839,-0.165,-0.005
10.842,-0.160,0.005
10.844,-0.155,0.000
10.847,-0.160,-0.015
10.850,-0.160,-0.020
10.853,-0.155,-0.005
10.856,-0.155,0.005
10.858,-0.140,0.015
10.861,-0.130,0.010
10.864,-0.140,0.005
10.867,-0.145,0.000
10.869,-0.145,0.005
10.872,-0.135,0.030
10.875,-0.120,0.030
10.878,-0.110,0.025
10.881,-0.110,0.015
10.883,-0.125,0.020
10.886,-0.125,0.020
10.889,-0.110,0.020
10.892,-0.095,0.050
10.894,-0.080,0.050
10.897,-0.090,0.050
10.900,-0.095,0.035
10.903,-0.095,0.040
10.906,-0.085,0.055
10.908,-0.070,0.060
10.911,-0.070,0.060
10.914,-0.075,0.060
10.917,-0.065,0.055
10.919,-0.065,0.070
10.922,-0.050,0.065
10.925,-0.040,0.080
10.928,-0.035,0.075
10.931,-0.045,0.075
10.933,-0.055,0.070
10.936,-0.055,0.070
10.939,-0.040,0.095
10.942,-0.030,0.095
10.944,-0.030,0.085
10.947,-0.040,0.075
10.950,-0.030,0.070
10.953,-0.045,0.085
10.956,-0.040,0.090
10.958,-0.030,0.095
10.961,-0.030,0.090
10.964,-0.025,0.085
10.967,-0.035,0.080
10.969,-0.045,0.085
10.972,-0.040,0.085
10.975,-0.030,0.090
10.978,-0.035,0.085
10.981,-0.050,0.075
10.983,-0.055,0.080
10.986,-0.065,0.080
10.989,-0.060,0.085
10.992,-0.060,0.085
10.994,-0.070,0.080
10.997,-0.080,0.065
11.000,-0.095,0.065
11.003,-0.105,0.065
11.006,-0.105,0.065
11.008,-0.095,0.070
11.011,-0.110,0.075
11.014,-0.110,0.060
11.017,-0.120,0.035
11.019,-0.125,0.055
11.022,-0.125,0.060
11.025,-0.120,0.055
11.028,-0.130,0.055
11.031,-0.135,0.045
11.033,-0.150,0.025
11.036,-0.160,0.040
11.039,-0.155,0.045
11.042,-0.140,0.045
11.044,-0.155,0.045
11.047,-0.150,0.030
11.050,-0.155,0.030
11.053,-0.170,0.030
11.056,-0.165,0.045
11.058,-0.150,0.035
11.061,-0.165,0.045
11.064,-0.170,0.030
11.067,-0.180,0.010
11.069,-0.185,0.015
11.072,-0.175,0.030
11.075,-0.170,0.050
11.078,-0.170,0.035
11.081,-0.175,0.020
11.083,-0.195,0.005
11.086,-0.190,0.020
11.089,-0.175,0.030
11.092,-0.160,0.025
11.094,-0.170,0.025
11.097,-0.175,0.015
11.100,-0.185,0.015
11.103,-0.185,0.000
11.106,-0.175,0.020
11.108,-0.170,0.030
11.111,-0.170,0.030
11.114,-0.180,0.015
11.117,-0.185,-0.005
11.119,-0.200,0.015
11.122,-0.185,0.025
11.125,-0.180,0.020
11.128,-0.180,0.025
11.131,-0.185,0.010
11.133,-0.180,-0.005
11.136,-0.200,-0.005
11.139,-0.200,0.015
11.142,-0.185,0.020
11.144,-0.175,0.010
11.147,-0.185,0.005
11.150,-0.185,0.000
11.153,-0.200,0.000
11.156,-0.190,0.010
11.158,-0.185,0.010
11.161,-0.185,0.020
11.164,-0.205,0.005
11.167,-0.210,0.000
11.169,-0.220,0.000
11.172,-0.200,0.000
11.175,-0.195,0.005
11.178,-0.190,0.005
11.181,-0.200,-0.005
11.183,-0.210,-0.010
11.186,-0.210,-0.005
11.189,-0.205,0.010
11.192,-0.195,0.000
11.194,-0.205,-0.005
11.197,-0.205,-0.010
11.200,-0.210,-0.005
11.203,-0.210,0.000
11.206,-0.205,0.010
11.208,-0.195,0.005
11.211,-0.200,0.010
11.214,-0.220,0.000
11.217,-0.230,-0.005
11.219,-0.225,-0.005
11.222,-0.215,0.010
11.225,-0.200,0.015
11.228,-0.210,0.010
11.231,-0.220,-0.025
11.233,-0.215,-0.025
11.236,-0.230,-0.015
11.239,-0.225,0.000
11.242,-0.220,0.000
11.244,-0.210,-0.005
11.247,-0.215,-0.015
11.250,-0.225,-0.025
11.253,-0.235,-0.020
11.256,-0.210,-0.010
11.258,-0.220,-0.010
11.261,-0.225,-0.020
11.264,-0.230,-0.015
11.267,-0.240,-0.030
11.269,-0.240,-0.025
11.272,-0.235,-0.010
11.275,-0.230,-0.015
11.278,-0.230,-0.020
11.281,-0.225,-0.035
11.283,-0.235,-0.045
11.286,-0.250,-0.025
11.289,-0.240,-0.030
11.292,-0.240,-0.020
11.294,-0.225,-0.030
11.297,-0.235,-0.040
11.300,-0.240,-0.045
11.303,-0.240,-0.045
11.306,-0.230,-0.030
11.308,-0.235,-0.025
11.311,-0.225,-0.020
11.314,-0.245,-0.035
11.317,-0.250,-0.045
11.319,-0.255,-0.030
11.322,-0.250,-0.020
11.325,-0.250,-0.015
11.328,-0.235,-0.015
11.331,-0.255,-0.020
11.333,-0.250,-0.030
11.336,-0.255,-0.035
11.339,-0.235,-0.015
11.342,-0.260,0.010
11.344,-0.250,-0.005
11.347,-0.260,-0.005
11.350,-0.255,-0.010
11.353,-0.265,-0.010
11.356,-0.250,0.000
11.358,-0.240,0.005
11.361,-0.230,0.010
11.364,-0.250,-0.010
11.367,-0.240,-0.010
11.369,-0.220,-0.005
11.372,-0.205,0.005
11.375,-0.180,0.000
11.378,-0.130,0.020
11.381,-0.045,0.015
11.383,0.150,0.025
11.386,0.570,0.110
11.389,0.935,0.380
11.392,0.820,0.710
11.394,0.415,0.710
11.397,0.120,0.440
11.400,0.035,0.235
11.403,0.065,0.165
11.406,0.085,0.175
11.408,0.075,0.155
11.411,0.050,0.130
11.414,0.025,0.105
11.417,0.020,0.085
11.419,0.020,0.075
11.422,0.050,0.070
11.425,0.050,0.065
11.428,0.070,0.050
11.431,0.065,0.010
11.433,0.050,-0.025
11.436,0.035,-0.035
11.439,0.035,-0.035
11.442,0.035,-0.045
11.444,0.020,-0.060
11.447,0.000,-0.085
11.450,-0.035,-0.115
11.453,-0.075,-0.110
11.456,-0.105,-0.125
11.458,-0.135,-0.150
11.461,-0.165,-0.155
11.464,-0.220,-0.185
11.467,-0.265,-0.210
11.469,-0.305,-0.225
11.472,-0.350,-0.230
11.475,-0.415,-0.240
11.478,-0.490,-0.245
11.481,-0.560,-0.270
11.483,-0.610,-0.290
11.486,-0.670,-0.295
11.489,-0.710,-0.290
11.492,-0.765,-0.305
11.494,-0.825,-0.325
11.497,-0.865,-0.380
11.500,-0.900,-0.425
11.503,-0.920,-0.470
11.506,-0.925,-0.510
11.508,-0.935,-0.545
11.511,-0.930,-0.580
11.514,-0.935,-0.600
11.517,-0.945,-0.640
11.519,-0.935,-0.670
11.522,-0.930,-0.685
11.525,-0.895,-0.720
11.528,-0.885,-0.745
11.531,-0.875,-0.775
11.533,-0.845,-0.820
11.536,-0.810,-0.840
11.539,-0.750,-0.865
11.542,-0.685,-0.855
11.544,-0.635,-0.855
11.547,-0.605,-0.820
11.550,-0.560,-0.800
11.553,-0.525,-0.765
11.556,-0.480,-0.705
11.558,-0.425,-0.660
11.561,-0.390,-0.605
11.564,-0.370,-0.565
11.567,-0.360,-0.520
11.569,-0.340,-0.465
11.572,-0.325,-0.400
11.575,-0.300,-0.360
11.578,-0.295,-0.330
11.581,-0.305,-0.315
11.583,-0.295,-0.285
11.586,-0.285,-0.260
11.589,-0.260,-0.225
11.592,-0.245,-0.190
11.594,-0.230,-0.180
11.597,-0.240,-0.180
11.600,-0.255,-0.175
11.603,-0.255,-0.145
11.606,-0.245,-0.120
11.608,-0.240,-0.090
11.611,-0.235,-0.085
11.614,-0.240,-0.065
11.617,-0.245,-0.045
11.619,-0.230,-0.020
11.622,-0.205,-0.005
11.625,-0.170,0.030
11.628,-0.165,0.035
11.631,-0.160,0.035
11.633,-0.155,0.035
11.636,-0.155,0.045
11.639,-0.130,0.065
11.642,-0.115,0.065
11.644,-0.110,0.075
11.647,-0.110,0.050
11.650,-0.110,0.060
11.653,-0.120,0.055
11.656,-0.105,0.065
11.658,-0.095,0.080
11.661,-0.085,0.080
11.664,-0.090,0.090
11.667,-0.085,0.085
11.669,-0.075,0.100
11.672,-0.065,0.100
11.675,-0.050,0.110
11.678,-0.045,0.100
11.681,-0.035,0.095
11.683,-0.050,0.095
11.686,-0.045,0.100
11.689,-0.030,0.125
11.692,-0.020,0.120
11.694,-0.010,0.125
11.697,-0.015,0.125
11.700,-0.030,0.120
11.703,-0.025,0.125
11.706,-0.015,0.140
11.708,0.010,0.145
11.711,0.015,0.155
11.714,0.010,0.145
11.717,0.010,0.140
11.719,0.010,0.145
11.722,0.020,0.170
11.725,0.035,0.175
11.728,0.040,0.175
11.731,0.045,0.175
11.733,0.035,0.175
11.736,0.015,0.180
11.739,0.030,0.200
11.742,0.055,0.215
11.744,0.065,0.215
11.747,0.055,0.205
11.750,0.040,0.205
11.753,0.055,0.235
11.756,0.055,0.240
11.758,0.075,0.235
11.761,0.070,0.245
11.764,0.065,0.230
11.767,0.060,0.230
11.769,0.050,0.235
11.772,0.060,0.255
11.775,0.085,0.260
11.778,0.085,0.260
11.781,0.070,0.260
11.783,0.060,0.245
11.786,0.060,0.250
11.789,0.080,0.275
11.792,0.090,0.280
11.794,0.085,0.275
11.797,0.080,0.250
11.800,0.070,0.245
11.803,0.065,0.260
11.806,0.065,0.270
11.808,0.070,0.265
11.811,0.065,0.260
11.814,0.050,0.245
11.817,0.045,0.230
11.819,0.035,0.230
11.822,0.025,0.240
11.825,0.035,0.225
11.828,0.025,0.230
11.831,0.005,0.210
11.833,-0.005,0.200
11.836,-0.015,0.185
11.839,-0.015,0.210
11.842,-0.025,0.200
11.844,-0.025,0.185
11.847,-0.040,0.175
11.850,-0.055,0.160
11.853,-0.065,0.155
11.856,-0.070,0.160
11.858,-0.065,0.155
11.861,-0.085,0.135
11.864,-0.090,0.130
11.867,-0.110,0.105
11.869,-0.120,0.105
11.872,-0.115,0.100
11.875,-0.120,0.110
11.878,-0.125,0.100
11.881,-0.135,0.075
11.883,-0.145,0.065
11.886,-0.155,0.055
11.889,-0.155,0.055
11.892,-0.140,0.060
11.894,-0.145,0.055
11.897,-0.160,0.040
11.900,-0.155,0.020
11.903,-0.170,0.035
11.906,-0.165,0.035
11.908,-0.160,0.030
11.911,-0.160,0.020
11.914,-0.180,0.005
11.917,-0.185,-0.015
11.919,-0.195,0.000
11.922,-0.180,0.000
11.925,-0.175,0.005
11.928,-0.180,-0.005
11.931,-0.175,-0.005
11.933,-0.190,-0.015
11.936,-0.190,-0.015
11.939,-0.195,-0.005
11.942,-0.180,-0.005
11.944,-0.200,-0.005
11.947,-0.195,-0.020
11.950,-0.190,-0.020
11.953,-0.205,-0.015
11.956,-0.190,-0.005
11.958,-0.170,-0.005
11.961,-0.175,-0.025
11.964,-0.180,-0.025
11.967,-0.195,-0.030
11.969,-0.200,-0.020
11.972,-0.195,-0.015
11.975,-0.180,-0.010
11.978,-0.180,-0.025
11.981,-0.185,-0.030
11.983,-0.195,-0.035
11.986,-0.205,-0.025
11.989,-0.185,-0.020
11.992,-0.185,-0.010
11.994,-0.195,-0.020
11.997,-0.185,-0.030
12.000,-0.195,-0.040
12.003,-0.190,-0.025
12.006,-0.190,-0.015
12.008,-0.180,-0.020
12.011,-0.180,-0.015
12.014,-0.205,-0.035
12.017,-0.195,-0.040
12.019,-0.200,-0.030
12.022,-0.185,-0.010
12.025,-0.185,-0.010
12.028,-0.190,-0.025
12.031,-0.205,-0.025
12.033,-0.215,-0.035
12.036,-0.205,-0.045
12.039,-0.190,-0.025
12.042,-0.175,-0.015
12.044,-0.180,-0.015
12.047,-0.195,-0.040
12.050,-0.190,-0.050
12.053,-0.205,-0.035
12.056,-0.205,-0.020
12.058,-0.195,-0.015
12.061,-0.205,-0.020
12.064,-0.200,-0.040
12.067,-0.215,-0.050
12.069,-0.215,-0.040
12.072,-0.200,-0.030
12.075,-0.205,-0.030
12.078,-0.210,-0.025
12.081,-0.215,-0.050
12.083,-0.220,-0.055
12.086,-0.230,-0.040
12.089,-0.230,-0.040
12.092,-0.220,-0.035
12.094,-0.210,-0.045
12.097,-0.210,-0.050
12.100,-0.225,-0.060
12.103,-0.230,-0.055
12.106,-0.225,-0.045
12.108,-0.225,-0.045
12.111,-0.220,-0.055
12.114,-0.230,-0.065
12.117,-0.245,-0.075
12.119,-0.240,-0.065
12.122,-0.240,-0.055
12.125,-0.225,-0.050
12.128,-0.225,-0.060
12.131,-0.235,-0.065
12.133,-0.230,-0.080
12.136,-0.240,-0.075
12.139,-0.225,-0.065
12.142,-0.230,-0.060
12.144,-0.215,-0.075
12.147,-0.225,-0.080
12.150,-0.240,-0.080
12.153,-0.245,-0.080
12.156,-0.230,-0.070
12.158,-0.230,-0.050
12.161,-0.225,-0.055
12.164,-0.230,-0.065
12.167,-0.240,-0.080
12.169,-0.250,-0.075
12.172,-0.240,-0.065
12.175,-0.240,-0.070
12.178,-0.230,-0.075
12.181,-0.225,-0.085
12.183,-0.240,-0.080
12.186,-0.235,-0.075
12.189,-0.230,-0.060
12.192,-0.220,-0.070
12.194,-0.205,-0.070
12.197,-0.200,-0.070
12.200,-0.210,-0.090
12.203,-0.215,-0.085
12.206,-0.220,-0.065
12.208,-0.190,-0.070
12.211,-0.190,-0.060
12.214,-0.200,-0.075
12.217,-0.200,-0.080
12.219,-0.195,-0.070
12.222,-0.160,-0.060
12.225,-0.120,-0.040
12.228,-0.040,-0.030
12.231,0.140,-0.005
12.233,0.540,0.095
12.236,0.910,0.405
12.239,0.820,0.725
12.242,0.435,0.700
12.244,0.145,0.420
12.247,0.070,0.215
12.250,0.090,0.155
12.253,0.085,0.145
12.256,0.065,0.130
12.258,0.045,0.095
12.261,0.040,0.075
12.264,0.030,0.055
12.267,0.005,0.045
12.269,0.005,0.030
12.272,0.000,0.020
12.275,-0.005,0.005
12.278,-0.015,-0.025
12.281,-0.040,-0.060
12.283,-0.045,-0.095
12.286,-0.055,-0.110
12.289,-0.060,-0.125
12.292,-0.075,-0.120
12.294,-0.095,-0.135
12.297,-0.130,-0.160
12.300,-0.185,-0.185
12.303,-0.225,-0.190
12.306,-0.260,-0.200
12.308,-0.285,-0.210
12.311,-0.330,-0.230
12.314,-0.380,-0.255
12.317,-0.460,-0.275
12.319,-0.555,-0.295
12.322,-0.605,-0.305
12.325,-0.660,-0.325
12.328,-0.710,-0.320
12.331,-0.765,-0.345
12.333,-0.815,-0.375
12.336,-0.875,-0.385
12.339,-0.905,-0.420
12.342,-0.925,-0.465
12.344,-0.935,-0.520
12.347,-0.955,-0.585
12.350,-0.955,-0.615
12.353,-0.975,-0.635
12.356,-0.965,-0.660
12.358,-0.945,-0.670
12.361,-0.940,-0.720
12.364,-0.925,-0.765
12.367,-0.915,-0.795
12.369,-0.885,-0.815
12.372,-0.835,-0.840
12.375,-0.780,-0.875
12.378,-0.740,-0.895
12.381,-0.695,-0.915
12.383,-0.625,-0.935
12.386,-0.590,-0.895
12.389,-0.560,-0.855
12.392,-0.490,-0.815
12.394,-0.450,-0.770
12.397,-0.410,-0.740
12.400,-0.390,-0.695
12.403,-0.355,-0.625
12.406,-0.330,-0.555
12.408,-0.300,-0.505
12.411,-0.295,-0.455
12.414,-0.275,-0.405
12.417,-0.285,-0.380
12.419,-0.290,-0.340
12.422,-0.290,-0.305
12.425,-0.240,-0.265
12.428,-0.220,-0.245
12.431,-0.220,-0.245
12.433,-0.235,-0.250
12.436,-0.235,-0.210
12.439,-0.230,-0.175
12.442,-0.215,-0.155
12.444,-0.210,-0.140
12.447,-0.220,-0.140
12.450,-0.230,-0.135
12.453,-0.230,-0.100
12.456,-0.200,-0.065
12.458,-0.155,-0.045
12.461,-0.160,-0.020
12.464,-0.145,-0.010
12.467,-0.150,-0.010
12.469,-0.130,0.020
12.472,-0.115,0.035
12.475,-0.095,0.040
12.478,-0.075,0.030
12.481,-0.070,0.020
12.483,-0.070,0.025
12.486,-0.080,0.030
12.489,-0.085,0.045
12.492,-0.065,0.060
12.494,-0.070,0.050
12.497,-0.070,0.050
12.500,-0.080,0.055
12.503,-0.070,0.050
12.506,-0.055,0.065
12.508,-0.050,0.070
12.511,-0.040,0.080
12.514,-0.040,0.075
12.517,-0.045,0.060
12.519,-0.040,0.080
12.522,-0.025,0.105
12.525,-0.015,0.095
12.528,-0.005,0.105
12.531,-0.030,0.095
12.533,-0.035,0.090
12.536,-0.040,0.105
12.539,-0.035,0.120
12.542,-0.015,0.115
12.544,-0.025,0.120
12.547,-0.025,0.115
12.550,-0.015,0.125
12.553,-0.020,0.135
12.556,0.005,0.140
12.558,0.020,0.150
12.561,0.015,0.155
12.564,0.000,0.150
12.567,-0.010,0.145
12.569,-0.020,0.160
12.572,-0.005,0.175
12.575,0.015,0.175
12.578,0.020,0.170
12.581,0.010,0.180
12.583,0.005,0.180
12.586,0.000,0.190
12.589,0.025,0.200
12.592,0.030,0.195
12.594,0.030,0.205
12.597,0.030,0.215
12.600,0.015,0.210
12.603,0.025,0.220
12.606,0.035,0.235
12.608,0.045,0.235
12.611,0.045,0.245
12.614,0.055,0.245
12.617,0.035,0.245
12.619,0.020,0.250
12.622,0.035,0.255
12.625,0.050,0.265
12.628,0.045,0.270
12.631,0.035,0.250
12.633,0.025,0.245
12.636,0.035,0.255
12.639,0.050,0.260
12.642,0.055,0.260
12.644,0.065,0.260
12.647,0.055,0.240
12.650,0.045,0.240
12.653,0.025,0.230
12.656,0.025,0.235
12.658,0.025,0.245
12.661,0.020,0.235
12.664,0.000,0.210
12.667,0.005,0.195
12.669,-0.015,0.210
12.672,-0.010,0.205
12.675,-0.005,0.200
12.678,-0.035,0.180
12.681,-0.045,0.175
12.683,-0.055,0.150
12.686,-0.080,0.150
12.689,-0.070,0.150
12.692,-0.060,0.145
12.694,-0.055,0.140
12.697,-0.075,0.115
12.700,-0.095,0.095
12.703,-0.100,0.090
12.706,-0.105,0.095
12.708,-0.095,0.090
12.711,-0.095,0.080
12.714,-0.125,0.055
12.717,-0.145,0.045
12.719,-0.155,0.040
12.722,-0.145,0.040
12.725,-0.120,0.045
12.728,-0.135,0.040
12.731,-0.145,0.015
12.733,-0.160,0.015
12.736,-0.170,0.010
12.739,-0.160,0.030
12.742,-0.155,0.020
12.744,-0.160,0.005
12.747,-0.165,-0.005
12.750,-0.185,-0.010
12.753,-0.195,-0.015
12.756,-0.180,-0.010
12.758,-0.170,-0.015
12.761,-0.175,-0.010
12.764,-0.180,-0.020
12.767,-0.190,-0.035
12.769,-0.195,-0.020
12.772,-0.190,-0.030
12.775,-0.185,-0.015
12.778,-0.185,-0.030
12.781,-0.195,-0.035
12.783,-0.205,-0.040
12.786,-0.190,-0.030
12.789,-0.180,-0.035
12.792,-0.180,-0.030
12.794,-0.175,-0.020
12.797,-0.185,-0.045
12.800,-0.190,-0.035
12.803,-0.195,-0.025
12.806,-0.190,-0.020
12.808,-0.190,-0.030
12.811,-0.200,-0.040
12.814,-0.205,-0.050
12.817,-0.220,-0.050
12.819,-0.220,-0.040
12.822,-0.215,-0.025
12.825,-0.200,-0.035
12.828,-0.200,-0.045
12.831,-0.195,-0.045
12.833,-0.200,-0.050
12.836,-0.210,-0.045
12.839,-0.195,-0.040
12.842,-0.195,-0.025
12.844,-0.190,-0.035
12.847,-0.205,-0.045
12.850,-0.225,-0.060
12.853,-0.215,-0.055
12.856,-0.215,-0.040
12.858,-0.210,-0.035
12.861,-0.210,-0.040
12.864,-0.215,-0.050
12.867,-0.230,-0.065
12.869,-0.225,-0.050
12.872,-0.225,-0.055
12.875,-0.230,-0.040
12.878,-0.225,-0.050
12.881,-0.245,-0.060
12.883,-0.255,-0.080
12.886,-0.255,-0.075
12.889,-0.240,-0.050
12.892,-0.220,-0.065
12.894,-0.225,-0.060
12.897,-0.220,-0.065
12.900,-0.230,-0.080
12.903,-0.230,-0.075
12.906,-0.230,-0.070
12.908,-0.230,-0.075
12.911,-0.245,-0.075
12.914,-0.270,-0.090
12.917,-0.275,-0.095
12.919,-0.275,-0.080
12.922,-0.255,-0.080
12.925,-0.240,-0.080
12.928,-0.240,-0.085
12.931,-0.230,-0.095
12.933,-0.250,-0.105
12.936,-0.250,-0.090
12.939,-0.260,-0.080
12.942,-0.240,-0.085
12.944,-0.245,-0.100
12.947,-0.245,-0.100
12.950,-0.245,-0.120
12.953,-0.270,-0.110
12.956,-0.265,-0.100
12.958,-0.260,-0.095
12.961,-0.260,-0.090
12.964,-0.265,-0.105
12.967,-0.250,-0.115
12.969,-0.260,-0.110
12.972,-0.240,-0.100
12.975,-0.240,-0.100
12.978,-0.245,-0.100
12.981,-0.250,-0.110
12.983,-0.265,-0.105
12.986,-0.275,-0.115
12.989,-0.260,-0.110
12.992,-0.240,-0.090
12.994,-0.250,-0.110
12.997,-0.260,-0.115
13.000,-0.270,-0.115
13.003,-0.285,-0.105
13.006,-0.270,-0.095
13.008,-0.250,-0.100
13.011,-0.245,-0.095
13.014,-0.235,-0.115
13.017,-0.245,-0.115
13.019,-0.240,-0.110
13.022,-0.240,-0.095
13.025,-0.235,-0.095
13.028,-0.235,-0.100
13.031,-0.240,-0.110
13.033,-0.250,-0.115
13.036,-0.240,-0.110
13.039,-0.230,-0.100
13.042,-0.215,-0.090
13.044,-0.200,-0.085
13.047,-0.180,-0.095
13.050,-0.130,-0.090
13.053,-0.005,-0.065
13.056,0.280,0.000
13.058,0.740,0.165
13.061,0.990,0.515
13.064,0.715,0.725
13.067,0.270,0.525
13.069,0.030,0.230
13.072,0.010,0.105
13.075,0.075,0.100
13.078,0.065,0.090
13.081,0.035,0.045
13.083,-0.005,0.025
13.086,-0.015,0.020
13.089,0.000,0.015
13.092,0.010,0.005
13.094,0.015,-0.025
13.097,0.005,-0.050
13.100,-0.005,-0.105
13.103,-0.015,-0.130
13.106,-0.010,-0.145
13.108,0.005,-0.140
13.111,-0.005,-0.165
13.114,-0.015,-0.195
13.117,-0.060,-0.210
13.119,-0.090,-0.210
13.122,-0.125,-0.220
13.125,-0.150,-0.240
13.128,-0.180,-0.270
13.131,-0.245,-0.305
13.133,-0.320,-0.330
13.136,-0.430,-0.330
13.139,-0.520,-0.330
13.142,-0.575,-0.330
13.144,-0.630,-0.345
13.147,-0.685,-0.360
13.150,-0.755,-0.375
13.153,-0.820,-0.395
13.156,-0.870,-0.415
13.158,-0.885,-0.445
13.161,-0.920,-0.485
13.164,-0.935,-0.540
13.167,-0.970,-0.580
13.169,-0.975,-0.585
13.172,-0.975,-0.600
13.175,-0.975,-0.625
13.178,-0.965,-0.655
13.181,-0.980,-0.700
13.183,-0.975,-0.730
13.186,-0.960,-0.740
13.189,-0.925,-0.765
13.192,-0.885,-0.790
13.194,-0.845,-0.825
13.197,-0.790,-0.855
13.200,-0.745,-0.850
13.203,-0.710,-0.815
13.206,-0.665,-0.765
13.208,-0.600,-0.735
13.211,-0.560,-0.705
13.214,-0.510,-0.655
13.217,-0.470,-0.610
13.219,-0.440,-0.540
13.222,-0.415,-0.465
13.225,-0.370,-0.405
13.228,-0.350,-0.350
13.231,-0.345,-0.320
13.233,-0.340,-0.300
13.236,-0.340,-0.250
13.239,-0.315,-0.215
13.242,-0.300,-0.190
13.244,-0.290,-0.180
13.247,-0.295,-0.170
13.250,-0.305,-0.160
13.253,-0.305,-0.140
13.256,-0.295,-0.105
13.258,-0.280,-0.100
13.261,-0.265,-0.085
13.264,-0.265,-0.075
13.267,-0.260,-0.050
13.269,-0.235,-0.020
13.272,-0.205,-0.005
13.275,-0.175,0.025
13.278,-0.175,0.025
13.281,-0.165,0.025
13.283,-0.160,0.040
13.286,-0.150,0.045
13.289,-0.130,0.050
13.292,-0.130,0.045
13.294,-0.105,0.055
13.297,-0.110,0.055
13.300,-0.095,0.055
13.303,-0.095,0.065
13.306,-0.075,0.060
13.308,-0.055,0.065
13.311,-0.030,0.080
13.314,-0.030,0.070
13.317,-0.020,0.070
13.319,-0.020,0.085
13.322,-0.005,0.115
13.325,0.000,0.115
13.328,-0.005,0.105
13.331,-0.020,0.095
13.333,-0.030,0.100
13.336,-0.040,0.090
13.339,-0.030,0.110
13.342,-0.020,0.110
13.344,-0.025,0.105
13.347,-0.040,0.105
13.350,-0.040,0.105
13.353,-0.040,0.105
13.356,-0.055,0.120
13.358,-0.035,0.125
13.361,-0.020,0.125
13.364,-0.025,0.115
13.367,-0.035,0.105
13.369,-0.035,0.125
13.372,-0.020,0.135
13.375,-0.005,0.130
13.378,-0.015,0.150
13.381,-0.010,0.140
13.383,-0.015,0.135
13.386,-0.020,0.145
13.389,-0.005,0.170
13.392,0.015,0.175
13.394,0.015,0.170
13.397,0.015,0.175
13.400,0.025,0.165
13.403,0.010,0.180
13.406,0.025,0.195
13.408,0.045,0.200
13.411,0.030,0.205
13.414,0.040,0.210
13.417,0.040,0.200
13.419,0.040,0.220
13.422,0.055,0.225
13.425,0.065,0.240
13.428,0.065,0.240
13.431,0.070,0.235
13.433,0.070,0.225
13.436,0.075,0.235
13.439,0.090,0.250
13.442,0.100,0.245
13.444,0.090,0.250
13.447,0.095,0.250
13.450,0.090,0.240
13.453,0.080,0.245
13.456,0.100,0.260
13.458,0.105,0.255
13.461,0.105,0.255
13.464,0.095,0.245
13.467,0.095,0.235
13.469,0.090,0.245
13.472,0.090,0.245
13.475,0.100,0.240
13.478,0.095,0.230
13.481,0.085,0.220
13.483,0.070,0.215
13.486,0.065,0.225
13.489,0.065,0.225
13.492,0.075,0.220
13.494,0.065,0.210
13.497,0.055,0.190
13.500,0.030,0.175
13.503,0.025,0.185
13.506,0.030,0.175
13.508,0.040,0.170
13.511,0.020,0.160
13.514,0.005,0.150
13.517,-0.015,0.130
13.519,-0.020,0.140
13.522,-0.010,0.135
13.525,-0.005,0.130
13.528,-0.015,0.125
13.531,-0.035,0.115
13.533,-0.050,0.090
13.536,-0.055,0.090
13.539,-0.040,0.090
13.542,-0.035,0.085
13.544,-0.035,0.075
13.547,-0.060,0.060
13.550,-0.070,0.050
13.553,-0.070,0.055
13.556,-0.070,0.060
13.558,-0.055,0.045
13.561,-0.065,0.035
13.564,-0.075,0.020
13.567,-0.080,0.020
13.569,-0.090,0.020
13.572,-0.080,0.030
13.575,-0.075,0.025
13.578,-0.080,0.015
13.581,-0.085,0.010
13.583,-0.100,-0.010
13.586,-0.105,0.000
13.589,-0.105,0.000
13.592,-0.080,0.000
13.594,-0.085,0.000
13.597,-0.095,-0.015
13.600,-0.095,-0.020
13.603,-0.105,-0.015
13.606,-0.090,0.000
13.608,-0.100,-0.010
13.611,-0.110,-0.005
13.614,-0.100,-0.010
13.617,-0.110,-0.030
13.619,-0.110,-0.025
13.622,-0.100,-0.015
13.625,-0.090,-0.010
13.628,-0.100,-0.015
13.631,-0.110,-0.035
13.633,-0.120,-0.040
13.636,-0.120,-0.035
13.639,-0.105,-0.020
13.642,-0.100,-0.015
13.644,-0.110,-0.010
13.647,-0.110,-0.030
13.650,-0.115,-0.030
13.653,-0.130,-0.030
13.656,-0.130,-0.015
13.658,-0.120,-0.015
13.661,-0.115,-0.015
13.664,-0.120,-0.030
13.667,-0.125,-0.025
13.669,-0.120,-0.030
13.672,-0.120,-0.015
13.675,-0.115,-0.010
13.678,-0.120,-0.010
13.681,-0.130,-0.015
13.683,-0.130,-0.035
13.686,-0.145,-0.025
13.689,-0.140,-0.015
13.692,-0.125,-0.010
13.694,-0.135,-0.030
13.697,-0.145,-0.035
13.700,-0.155,-0.040
13.703,-0.150,-0.030
13.706,-0.140,-0.025
13.708,-0.150,-0.025
13.711,-0.160,-0.030
13.714,-0.155,-0.045
13.717,-0.165,-0.035
13.719,-0.170,-0.030
13.722,-0.165,-0.040
13.725,-0.145,-0.025
13.728,-0.160,-0.035
13.731,-0.170,-0.045
13.733,-0.165,-0.055
13.736,-0.175,-0.045
13.739,-0.175,-0.030
13.742,-0.160,-0.035
13.744,-0.175,-0.035
13.747,-0.175,-0.060
13.750,-0.190,-0.065
13.753,-0.200,-0.065
13.756,-0.180,-0.055
13.758,-0.170,-0.055
13.761,-0.175,-0.050
13.764,-0.180,-0.065
13.767,-0.195,-0.080
13.769,-0.190,-0.060
13.772,-0.190,-0.055
13.775,-0.180,-0.060
13.778,-0.185,-0.060
13.781,-0.190,-0.070
13.783,-0.200,-0.075
13.786,-0.195,-0.080
13.789,-0.185,-0.060
13.792,-0.180,-0.050
13.794,-0.185,-0.065
13.797,-0.185,-0.070
13.800,-0.205,-0.070
13.803,-0.200,-0.065
13.806,-0.185,-0.065
13.808,-0.175,-0.055
13.811,-0.180,-0.065
13.814,-0.180,-0.080
13.817,-0.195,-0.080
13.819,-0.205,-0.070
13.822,-0.185,-0.070
13.825,-0.185,-0.065
13.828,-0.185,-0.075
13.831,-0.190,-0.080
13.833,-0.190,-0.085
13.836,-0.195,-0.070
13.839,-0.175,-0.065
13.842,-0.170,-0.060
13.844,-0.175,-0.065
13.847,-0.175,-0.070
13.850,-0.175,-0.085
13.853,-0.175,-0.065
13.856,-0.140,-0.055
13.858,-0.120,-0.040
13.861,-0.090,-0.035
13.864,-0.030,-0.015
13.867,0.155,0.045
13.869,0.605,0.295
13.872,0.910,0.660
13.875,0.690,0.715
13.878,0.275,0.445
13.881,0.075,0.190
13.883,0.075,0.105
13.886,0.120,0.105
13.889,0.120,0.120
13.892,0.085,0.090
13.894,0.075,0.060
13.897,0.070,0.035
13.900,0.080,0.020
13.903,0.070,0.005
13.906,0.075,-0.015
13.908,0.075,-0.055
13.911,0.065,-0.070
13.914,0.050,-0.110
13.917,0.035,-0.140
13.919,-0.010,-0.130
13.922,-0.020,-0.140
13.925,-0.050,-0.150
13.928,-0.095,-0.175
13.931,-0.145,-0.205
13.933,-0.195,-0.240
13.936,-0.245,-0.245
13.939,-0.315,-0.240
13.942,-0.390,-0.260
13.944,-0.480,-0.270
13.947,-0.555,-0.295
13.950,-0.615,-0.315
13.953,-0.675,-0.325
13.956,-0.730,-0.325
13.958,-0.780,-0.380
13.961,-0.815,-0.430
13.964,-0.830,-0.495
13.967,-0.860,-0.540
13.969,-0.885,-0.570
13.972,-0.880,-0.575
13.975,-0.880,-0.605
13.978,-0.880,-0.645
13.981,-0.890,-0.705
13.983,-0.890,-0.755
13.986,-0.875,-0.775
13.989,-0.845,-0.795
13.992,-0.800,-0.815
13.994,-0.770,-0.850
13.997,-0.715,-0.890
14.000,-0.650,-0.885
14.003,-0.610,-0.855
14.006,-0.560,-0.810
14.008,-0.500,-0.780
14.011,-0.440,-0.725
14.014,-0.395,-0.690
14.017,-0.350,-0.640
14.019,-0.320,-0.570
14.022,-0.275,-0.495
14.025,-0.240,-0.440
14.028,-0.240,-0.395
14.031,-0.235,-0.355
14.033,-0.235,-0.330
14.036,-0.235,-0.305
14.039,-0.200,-0.265
14.042,-0.170,-0.240
14.044,-0.170,-0.220
14.047,-0.170,-0.225
14.050,-0.185,-0.215
14.053,-0.175,-0.190
14.056,-0.165,-0.155
14.058,-0.150,-0.140
14.061,-0.145,-0.130
14.064,-0.150,-0.110
14.067,-0.155,-0.095
14.069,-0.155,-0.065
14.072,-0.110,-0.030
14.075,-0.090,-0.015
14.078,-0.090,0.005
14.081,-0.085,0.015
14.083,-0.085,0.015
14.086,-0.070,0.035
14.089,-0.050,0.055
14.092,-0.040,0.065
14.094,-0.040,0.060
14.097,-0.035,0.050
14.100,-0.035,0.045
14.103,-0.040,0.060
14.106,-0.030,0.065
14.108,-0.015,0.080
14.111,-0.015,0.080
14.114,-0.020,0.065
14.117,-0.030,0.065
14.119,-0.025,0.085
14.122,-0.015,0.095
14.125,0.005,0.100
14.128,0.005,0.100
14.131,0.015,0.090
14.133,0.015,0.080
14.136,0.005,0.100
14.139,0.015,0.125
14.142,0.040,0.125
14.144,0.025,0.120
14.147,0.025,0.110
14.150,0.010,0.120
14.153,0.020,0.140
14.156,0.040,0.140
14.158,0.045,0.155
14.161,0.055,0.155
14.164,0.055,0.160
14.167,0.045,0.155
14.169,0.045,0.170
14.172,0.060,0.195
14.175,0.070,0.200
14.178,0.070,0.200
14.181,0.065,0.200
14.183,0.065,0.205
14.186,0.070,0.220
14.189,0.085,0.230
14.192,0.090,0.245
14.194,0.080,0.250
14.197,0.085,0.235
14.200,0.090,0.250
14.203,0.085,0.250
14.206,0.095,0.270
14.208,0.120,0.280
14.211,0.115,0.275
14.214,0.110,0.265
14.217,0.100,0.265
14.219,0.130,0.280
14.222,0.145,0.290
14.225,0.155,0.290
14.228,0.165,0.295
14.231,0.170,0.280
14.233,0.165,0.280
14.236,0.170,0.285
14.239,0.190,0.300
14.242,0.200,0.290
14.244,0.195,0.300
14.247,0.195,0.300
14.250,0.195,0.290
14.253,0.190,0.305
14.256,0.205,0.320
14.258,0.225,0.305
14.261,0.225,0.315
14.264,0.230,0.285
14.267,0.230,0.295
14.269,0.225,0.295
14.272,0.250,0.310
14.275,0.255,0.315
14.278,0.225,0.305
14.281,0.215,0.280
14.283,0.185,0.260
14.286,0.165,0.270
14.289,0.160,0.270
14.292,0.160,0.265
14.294,0.145,0.240
14.297,0.135,0.220
14.300,0.120,0.225
14.303,0.105,0.220
14.306,0.090,0.215
14.308,0.095,0.200
14.311,0.075,0.200
14.314,0.060,0.170
14.317,0.035,0.165
14.319,0.030,0.150
14.322,0.025,0.155
14.325,0.025,0.155
14.328,0.015,0.130
14.331,0.005,0.130
14.333,-0.010,0.110
14.336,-0.015,0.090
14.339,-0.010,0.115
14.342,0.000,0.095
14.344,-0.035,0.095
14.347,-0.035,0.070
14.350,-0.050,0.060
14.353,-0.055,0.065
14.356,-0.050,0.065
14.358,-0.045,0.065
14.361,-0.045,0.050
14.364,-0.055,0.040
14.367,-0.070,0.030
14.369,-0.065,0.035
14.372,-0.060,0.025
14.375,-0.060,0.035
14.378,-0.065,0.035
14.381,-0.075,0.020
14.383,-0.090,0.000
14.386,-0.075,0.010
14.389,-0.075,0.015
14.392,-0.075,0.010
14.394,-0.085,0.010
14.397,-0.085,-0.005
14.400,-0.095,-0.005
14.403,-0.100,0.000
14.406,-0.090,0.005
14.408,-0.075,-0.010
14.411,-0.075,-0.005
14.414,-0.090,-0.010
14.417,-0.100,-0.015
14.419,-0.115,-0.005
14.422,-0.105,0.000
14.425,-0.095,0.010
14.428,-0.100,0.000
14.431,-0.110,-0.005
14.433,-0.110,-0.015
14.436,-0.120,-0.010
14.439,-0.115,0.005
14.442,-0.110,0.005
14.444,-0.115,-0.010
14.447,-0.110,-0.020
14.450,-0.130,-0.010
14.453,-0.135,0.005
14.456,-0.125,0.000
14.458,-0.110,0.005
14.461,-0.120,-0.005
14.464,-0.130,-0.010
14.467,-0.135,-0.015
14.469,-0.135,-0.010
14.472,-0.130,0.005
14.475,-0.125,-0.005
14.478,-0.125,-0.015
14.481,-0.125,-0.015
14.483,-0.140,-0.015
14.486,-0.145,-0.015
14.489,-0.145,-0.005
14.492,-0.130,0.000
14.494,-0.135,-0.005
14.497,-0.140,-0.010
14.500,-0.150,-0.020
14.503,-0.145,-0.035
14.506,-0.155,0.000
14.508,-0.140,-0.015
14.511,-0.140,-0.020
14.514,-0.160,-0.035
14.517,-0.180,-0.040
14.519,-0.180,-0.030
14.522,-0.160,-0.020
14.525,-0.155,-0.020
14.528,-0.150,-0.025
14.531,-0.160,-0.035
14.533,-0.170,-0.050
14.536,-0.190,-0.035
14.539,-0.170,-0.035
14.542,-0.170,-0.035
14.544,-0.180,-0.040
14.547,-0.190,-0.040
14.550,-0.190,-0.055
14.553,-0.195,-0.055
14.556,-0.185,-0.040
14.558,-0.170,-0.045
14.561,-0.175,-0.040
14.564,-0.185,-0.060
14.567,-0.200,-0.060
14.569,-0.190,-0.060
14.572,-0.185,-0.045
14.575,-0.185,-0.035
14.578,-0.175,-0.045
14.581,-0.190,-0.060
14.583,-0.200,-0.065
14.586,-0.210,-0.065
14.589,-0.190,-0.050
14.592,-0.185,-0.040
14.594,-0.190,-0.050
14.597,-0.190,-0.045
14.600,-0.195,-0.060
14.603,-0.200,-0.065
14.606,-0.185,-0.050
14.608,-0.180,-0.045
14.611,-0.190,-0.045
14.614,-0.195,-0.060
14.617,-0.210,-0.065
14.619,-0.210,-0.060
14.622,-0.190,-0.050
14.625,-0.180,-0.045
14.628,-0.185,-0.045
14.631,-0.185,-0.055
14.633,-0.195,-0.065
14.636,-0.190,-0.045
14.639,-0.175,-0.040
14.642,-0.175,-0.040
14.644,-0.175,-0.050
14.647,-0.160,-0.060
14.650,-0.145,-0.050
14.653,-0.120,-0.040
14.656,-0.040,-0.005
14.658,0.135,0.045
14.661,0.515,0.155
14.664,0.935,0.455
14.667,0.905,0.750
14.669,0.500,0.705
14.672,0.160,0.405
14.675,0.070,0.210
14.678,0.090,0.150
14.681,0.105,0.140
14.683,0.075,0.110
14.686,0.035,0.090
14.689,0.030,0.090
14.692,0.030,0.085
14.694,0.050,0.070
14.697,0.030,0.040
14.700,0.025,0.010
14.703,0.010,-0.010
14.706,0.005,-0.040
14.708,0.015,-0.050
14.711,0.000,-0.080
14.714,-0.030,-0.095
14.717,-0.060,-0.115
14.719,-0.065,-0.135
14.722,-0.090,-0.125
14.725,-0.115,-0.140
14.728,-0.160,-0.165
14.731,-0.210,-0.180
14.733,-0.260,-0.215
14.736,-0.300,-0.230
14.739,-0.350,-0.230
14.742,-0.420,-0.240
14.744,-0.490,-0.260
14.747,-0.565,-0.275
14.750,-0.625,-0.290
14.753,-0.675,-0.290
14.756,-0.730,-0.300
14.758,-0.785,-0.315
14.761,-0.840,-0.370
14.764,-0.860,-0.445
14.767,-0.895,-0.485
14.769,-0.900,-0.525
14.772,-0.920,-0.540
14.775,-0.915,-0.570
14.778,-0.920,-0.615
14.781,-0.935,-0.675
14.783,-0.930,-0.720
14.786,-0.930,-0.755
14.789,-0.910,-0.770
14.792,-0.890,-0.800
14.794,-0.855,-0.830
14.797,-0.820,-0.860
14.800,-0.765,-0.880
14.803,-0.705,-0.875
14.806,-0.645,-0.855
14.808,-0.580,-0.825
14.811,-0.540,-0.785
14.814,-0.495,-0.765
14.817,-0.460,-0.710
14.819,-0.410,-0.650
14.822,-0.375,-0.585
14.825,-0.340,-0.530
14.828,-0.320,-0.480
14.831,-0.300,-0.450
14.833,-0.300,-0.410
14.836,-0.300,-0.350
14.839,-0.275,-0.315
14.842,-0.250,-0.295
14.844,-0.245,-0.270
14.847,-0.240,-0.245
14.850,-0.235,-0.240
14.853,-0.230,-0.220
14.856,-0.205,-0.200
14.858,-0.200,-0.180
14.861,-0.200,-0.160
14.864,-0.210,-0.150
14.867,-0.215,-0.135
14.869,-0.200,-0.110
14.872,-0.195,-0.070
14.875,-0.180,-0.045
14.878,-0.170,-0.030
14.881,-0.160,-0.025
14.883,-0.155,-0.010
14.886,-0.135,0.015
14.889,-0.135,0.040
14.892,-0.115,0.050
14.894,-0.100,0.060
14.897,-0.100,0.045
14.900,-0.095,0.055
14.903,-0.085,0.055
14.906,-0.075,0.080
14.908,-0.065,0.080
14.911,-0.070,0.070
14.914,-0.080,0.075
14.917,-0.090,0.075
14.919,-0.085,0.075
14.922,-0.060,0.090
14.925,-0.040,0.105
14.928,-0.040,0.100
14.931,-0.045,0.090
14.933,-0.050,0.095
14.936,-0.045,0.110
14.939,-0.035,0.115
14.942,-0.020,0.115
14.944,-0.030,0.125
14.947,-0.025,0.115
14.950,-0.020,0.115
14.953,-0.035,0.125
14.956,-0.015,0.135
14.958,-0.005,0.135
14.961,-0.005,0.145
14.964,-0.015,0.145
14.967,-0.005,0.140
14.969,-0.010,0.155
14.972,0.010,0.165
14.975,0.020,0.185
14.978,0.035,0.165
14.981,0.035,0.165
14.983,0.025,0.160
14.986,0.010,0.180
14.989,0.025,0.200
14.992,0.030,0.205
14.994,0.045,0.200
14.997,0.050,0.185
15.000,0.035,0.195
15.003,0.035,0.215
15.006,0.050,0.220
15.008,0.050,0.225
15.011,0.055,0.240
15.014,0.045,0.230
15.017,0.055,0.235
15.019,0.055,0.245
15.022,0.065,0.265
15.025,0.080,0.260
15.028,0.080,0.270
15.031,0.095,0.270
15.033,0.080,0.265
15.036,0.090,0.290
15.039,0.100,0.300
15.042,0.100,0.305
15.044,0.105,0.300
15.047,0.105,0.295
15.050,0.095,0.300
15.053,0.100,0.310
15.056,0.115,0.320
15.058,0.130,0.320
15.061,0.120,0.320
15.064,0.115,0.310
15.067,0.110,0.305
15.069,0.110,0.315
15.072,0.120,0.325
15.075,0.120,0.320
15.078,0.110,0.315
15.081,0.100,0.310
15.083,0.090,0.290
15.086,0.085,0.305
15.089,0.095,0.320
15.092,0.100,0.300
15.094,0.085,0.295
15.097,0.070,0.285
15.100,0.055,0.275
15.103,0.045,0.265
15.106,0.040,0.295
15.108,0.045,0.265
15.111,0.045,0.265
15.114,0.020,0.235
15.117,0.000,0.220
15.119,0.005,0.220
15.122,0.000,0.225
15.125,-0.015,0.225
15.128,-0.025,0.220
15.131,-0.035,0.190
15.133,-0.055,0.200
15.136,-0.050,0.190
15.139,-0.055,0.200
15.142,-0.065,0.195
15.144,-0.065,0.185
15.147,-0.080,0.165
15.150,-0.105,0.155
15.153,-0.095,0.150
15.156,-0.105,0.155
15.158,-0.105,0.155
15.161,-0.105,0.145
15.164,-0.110,0.125
15.167,-0.115,0.115
15.169,-0.115,0.115
15.172,-0.115,0.120
15.175,-0.115,0.115
15.178,-0.110,0.095
15.181,-0.105,0.085
15.183,-0.120,0.070
15.186,-0.115,0.080
15.189,-0.100,0.070
15.192,-0.100,0.065
15.194,-0.095,0.065
15.197,-0.105,0.045
15.200,-0.115,0.040
15.203,-0.110,0.050
15.206,-0.105,0.055
15.208,-0.095,0.060
15.211,-0.100,0.050
15.214,-0.095,0.035
15.217,-0.110,0.030
15.219,-0.090,0.035
15.222,-0.080,0.055
15.225,-0.070,0.040
15.228,-0.065,0.045
15.231,-0.080,0.055
15.233,-0.080,0.040
15.236,-0.090,0.050
15.239,-0.080,0.060
15.242,-0.095,0.050
15.244,-0.110,0.045
15.247,-0.125,0.025
15.250,-0.150,0.030
15.253,-0.145,0.030
15.256,-0.140,0.050
15.258,-0.140,0.030
15.261,-0.155,0.030
15.264,-0.165,0.025
15.267,-0.185,0.010
15.269,-0.185,0.015
15.272,-0.190,0.025
15.275,-0.180,0.015
15.278,-0.180,0.015
15.281,-0.190,0.005
15.283,-0.190,0.000
15.286,-0.205,-0.005
15.289,-0.190,0.005
15.292,-0.190,0.000
15.294,-0.190,-0.005
15.297,-0.200,-0.015
15.300,-0.200,-0.015
15.303,-0.210,-0.010
15.306,-0.190,-0.005
15.308,-0.190,-0.010
15.311,-0.190,-0.005
15.314,-0.205,-0.020
15.317,-0.210,-0.025
15.319,-0.215,-0.015
15.322,-0.215,-0.005
15.325,-0.210,0.000
15.328,-0.220,-0.020
15.331,-0.225,-0.025
15.333,-0.225,-0.035
15.336,-0.225,-0.025
15.339,-0.225,-0.020
15.342,-0.205,-0.020
15.344,-0.210,-0.030
15.347,-0.215,-0.045
15.350,-0.225,-0.040
15.353,-0.240,-0.030
15.356,-0.230,-0.030
15.358,-0.195,-0.025
15.361,-0.210,-0.030
15.364,-0.230,-0.040
15.367,-0.245,-0.045
15.369,-0.225,-0.035
15.372,-0.225,-0.030
15.375,-0.215,-0.025
15.378,-0.235,-0.025
15.381,-0.230,-0.030
15.383,-0.245,-0.035
15.386,-0.250,-0.040
15.389,-0.240,-0.025
15.392,-0.220,-0.035
15.394,-0.215,-0.025
15.397,-0.215,-0.045
15.400,-0.225,-0.035
15.403,-0.220,-0.030
15.406,-0.210,-0.020
15.408,-0.205,-0.025
15.411,-0.195,-0.025
15.414,-0.205,-0.040
15.417,-0.210,-0.045
15.419,-0.205,-0.030
15.422,-0.200,-0.010
15.425,-0.205,0.010
15.428,-0.170,0.020
15.431,-0.155,0.015
15.433,-0.115,0.025
15.436,-0.030,0.055
15.439,0.060,0.095
15.442,0.155,0.115
15.444,0.250,0.145
15.447,0.330,0.160
15.450,0.415,0.150
15.453,0.550,0.155
15.456,0.730,0.185
15.458,0.905,0.190
15.461,1.010,0.190
15.464,1.015,0.185
15.467,1.135,0.210
15.469,1.520,0.485
15.472,1.680,0.710
15.475,1.435,0.455
15.478,0.995,0.005
15.481,0.660,-0.275
15.483,0.435,-0.365
15.486,0.265,-0.375
15.489,0.080,-0.360
15.492,-0.095,-0.350
15.494,-0.230,-0.305
15.497,-0.300,-0.275
15.500,-0.340,-0.220
15.503,-0.360,-0.185
15.506,-0.340,-0.140
15.508,-0.320,-0.090
15.511,-0.305,-0.070
15.514,-0.310,-0.070
15.517,-0.315,-0.055
15.519,-0.310,-0.040
15.522,-0.300,-0.030
15.525,-0.285,-0.030
15.528,-0.285,-0.040
15.531,-0.300,-0.055
15.533,-0.310,-0.065
15.536,-0.305,-0.060
15.539,-0.310,-0.050
15.542,-0.305,-0.040
15.544,-0.325,-0.060
15.547,-0.335,-0.070
15.550,-0.350,-0.070
15.553,-0.350,-0.055
15.556,-0.335,-0.055
15.558,-0.335,-0.055
15.561,-0.350,-0.075
15.564,-0.360,-0.085
15.567,-0.380,-0.090
15.569,-0.380,-0.085
15.572,-0.375,-0.080
15.575,-0.370,-0.075
15.578,-0.385,-0.085
15.581,-0.395,-0.095
15.583,-0.400,-0.110
15.586,-0.410,-0.105
15.589,-0.405,-0.090
15.592,-0.405,-0.100
15.594,-0.415,-0.095
15.597,-0.430,-0.110
15.600,-0.445,-0.125
15.603,-0.445,-0.120
15.606,-0.435,-0.115
15.608,-0.445,-0.120
15.611,-0.450,-0.125
15.614,-0.460,-0.130
15.617,-0.480,-0.135
15.619,-0.470,-0.130
15.622,-0.465,-0.130
15.625,-0.455,-0.125
15.628,-0.450,-0.130
15.631,-0.475,-0.150
15.633,-0.485,-0.150
15.636,-0.500,-0.140
15.639,-0.495,-0.140
15.642,-0.490,-0.140
15.644,-0.500,-0.160
15.647,-0.515,-0.165
15.650,-0.530,-0.175
15.653,-0.520,-0.165
15.656,-0.535,-0.165
15.658,-0.520,-0.170
15.661,-0.515,-0.175
15.664,-0.530,-0.175
15.667,-0.545,-0.185
15.669,-0.540,-0.165
15.672,-0.530,-0.155
15.675,-0.520,-0.160
15.678,-0.530,-0.165
15.681,-0.530,-0.180
15.683,-0.545,-0.185
15.686,-0.545,-0.170
15.689,-0.525,-0.165
15.692,-0.515,-0.165
15.694,-0.525,-0.160
15.697,-0.530,-0.170
15.700,-0.535,-0.175
15.703,-0.545,-0.170
15.706,-0.530,-0.165
15.708,-0.525,-0.150
15.711,-0.505,-0.165
15.714,-0.495,-0.160
15.717,-0.500,-0.170
15.719,-0.490,-0.155
15.722,-0.475,-0.140
15.725,-0.470,-0.140
15.728,-0.470,-0.135
15.731,-0.470,-0.135
15.733,-0.470,-0.140
15.736,-0.465,-0.135
15.739,-0.445,-0.105
15.742,-0.430,-0.100
15.744,-0.405,-0.110
15.747,-0.410,-0.100
15.750,-0.395,-0.105
15.753,-0.370,-0.080
15.756,-0.360,-0.055
15.758,-0.345,-0.050
15.761,-0.330,-0.050
15.764,-0.320,-0.055
15.767,-0.320,-0.055
15.769,-0.305,-0.040
15.772,-0.290,-0.015
15.775,-0.290,-0.005
15.778,-0.260,-0.015
15.781,-0.250,-0.020
15.783,-0.255,-0.010
15.786,-0.225,0.005
15.789,-0.220,0.015
15.792,-0.205,0.020
15.794,-0.205,0.015
15.797,-0.205,0.010
15.800,-0.230,-0.005
15.803,-0.220,0.005
15.806,-0.195,0.025
15.808,-0.180,0.030
15.811,-0.185,0.025
15.814,-0.200,0.015
15.817,-0.205,0.010
15.819,-0.205,0.025
15.822,-0.185,0.025
15.825,-0.190,0.035
15.828,-0.190,0.030
15.831,-0.190,0.015
15.833,-0.205,0.005
15.836,-0.215,0.020
15.839,-0.195,0.025
15.842,-0.180,0.030
15.844,-0.185,0.020
15.847,-0.195,0.005
15.850,-0.220,0.000
15.853,-0.225,0.020
15.856,-0.210,0.020
15.858,-0.205,0.015
15.861,-0.190,0.015
15.864,-0.210,-0.005
15.867,-0.215,0.000
15.869,-0.225,-0.005
15.872,-0.220,0.005
15.875,-0.225,0.010
15.878,-0.235,0.005
15.881,-0.235,-0.005
15.883,-0.240,-0.015
15.886,-0.230,-0.005
15.889,-0.220,0.000
15.892,-0.215,0.000
15.894,-0.215,-0.010
15.897,-0.220,-0.020
15.900,-0.250,-0.020
15.903,-0.235,-0.010
15.906,-0.240,-0.005
15.908,-0.230,-0.015
15.911,-0.235,-0.005
15.914,-0.245,-0.020
15.917,-0.265,-0.015
15.919,-0.270,-0.015
15.922,-0.265,-0.005
15.925,-0.275,-0.015
15.928,-0.265,-0.010
15.931,-0.260,-0.020
15.933,-0.255,-0.010
15.936,-0.245,-0.005
15.939,-0.250,0.000
15.942,-0.255,0.000
15.944,-0.270,-0.010
15.947,-0.265,-0.010
15.950,-0.270,-0.020
15.953,-0.255,-0.010
15.956,-0.240,0.005
15.958,-0.240,0.005
15.961,-0.250,0.005
15.964,-0.260,-0.005
15.967,-0.275,-0.015
15.969,-0.265,-0.005
15.972,-0.250,0.005
15.975,-0.230,-0.005
15.978,-0.230,-0.010
15.981,-0.240,-0.025
15.983,-0.240,-0.020
15.986,-0.245,-0.010
15.989,-0.235,0.005
15.992,-0.240,-0.005
15.994,-0.250,-0.010
15.997,-0.265,-0.010
16.000,-0.270,-0.020
16.003,-0.255,-0.005
16.006,-0.230,0.000
16.008,-0.225,-0.005
16.011,-0.230,-0.005
16.014,-0.235,-0.020
16.017,-0.260,-0.030
16.019,-0.265,-0.015
16.022,-0.255,-0.005
16.025,-0.250,-0.005
16.028,-0.220,-0.015
16.031,-0.210,-0.030
16.033,-0.215,-0.030
16.036,-0.235,-0.025
16.039,-0.235,-0.015
16.042,-0.245,-0.015
16.044,-0.235,-0.010
16.047,-0.255,-0.030
16.050,-0.265,-0.025
16.053,-0.260,-0.005
16.056,-0.250,0.005
16.058,-0.235,0.015
16.061,-0.230,0.000
16.064,-0.255,-0.010
16.067,-0.260,-0.005
16.069,-0.270,0.005
16.072,-0.270,0.010
16.075,-0.250,0.025
16.078,-0.255,0.010
16.081,-0.265,-0.005
16.083,-0.270,-0.005
16.086,-0.265,-0.005
16.089,-0.255,-0.005
16.092,-0.250,-0.020
16.094,-0.250,-0.020
16.097,-0.255,-0.025
16.100,-0.265,-0.030
16.103,-0.245,-0.025
16.106,-0.230,-0.010
16.108,-0.210,-0.020
16.111,-0.200,-0.030
16.114,-0.195,-0.040
16.117,-0.215,-0.045
16.119,-0.240,-0.030
16.122,-0.230,-0.020
16.125,-0.235,-0.020
16.128,-0.205,-0.035
16.131,-0.205,-0.040
16.133,-0.200,-0.040
16.136,-0.190,-0.030
16.139,-0.185,-0.015
16.142,-0.175,-0.010
16.144,-0.175,-0.010
16.147,-0.200,-0.035
16.150,-0.220,-0.045
16.153,-0.220,-0.030
16.156,-0.200,-0.030
16.158,-0.175,-0.035
16.161,-0.180,-0.030
16.164,-0.200,-0.060
16.167,-0.235,-0.065
16.169,-0.255,-0.055
16.172,-0.260,-0.040
16.175,-0.250,-0.050
16.178,-0.240,-0.045
16.181,-0.235,-0.060
16.183,-0.245,-0.070
16.186,-0.245,-0.055
16.189,-0.260,-0.045
16.192,-0.260,-0.050
16.194,-0.265,-0.060
16.197,-0.270,-0.080
16.200,-0.280,-0.070
16.203,-0.275,-0.070
16.206,-0.240,-0.055
16.208,-0.230,-0.050
16.211,-0.230,-0.060
16.214,-0.250,-0.065
16.217,-0.265,-0.065
16.219,-0.240,-0.060
16.222,-0.230,-0.040
16.225,-0.220,-0.040
16.228,-0.220,-0.040
16.231,-0.210,-0.045
16.233,-0.190,-0.045
16.236,-0.145,-0.025
16.239,-0.040,0.005
16.242,0.235,0.040
16.244,0.710,0.265
16.247,0.875,0.615
16.250,0.545,0.660
16.253,0.155,0.400
16.256,0.005,0.200
16.258,0.045,0.145
16.261,0.070,0.140
16.264,0.065,0.125
16.267,0.020,0.100
16.269,0.030,0.095
16.272,0.045,0.110
16.275,0.060,0.105
16.278,0.075,0.090
16.281,0.100,0.065
16.283,0.140,0.055
16.286,0.230,0.050
16.289,0.315,0.050
16.292,0.390,0.070
16.294,0.455,0.080
16.297,0.490,0.080
16.300,0.530,0.085
16.303,0.585,0.070
16.306,0.670,0.050
16.308,0.765,0.030
16.311,0.865,0.015
16.314,0.950,0.020
16.317,1.005,0.035
16.319,1.000,0.020
16.322,0.890,-0.030
16.325,0.710,-0.130
16.328,0.520,-0.255
16.331,0.320,-0.350
16.333,0.125,-0.395
16.336,-0.055,-0.415
16.339,-0.230,-0.405
16.342,-0.380,-0.390
16.344,-0.490,-0.370
16.347,-0.555,-0.340
16.350,-0.555,-0.290
16.353,-0.520,-0.250
16.356,-0.490,-0.190
16.358,-0.475,-0.155
16.361,-0.470,-0.130
16.364,-0.470,-0.125
16.367,-0.465,-0.105
16.369,-0.455,-0.090
16.372,-0.440,-0.080
16.375,-0.425,-0.070
16.378,-0.425,-0.065
16.381,-0.435,-0.075
16.383,-0.455,-0.070
16.386,-0.445,-0.065
16.389,-0.430,-0.065
16.392,-0.410,-0.070
16.394,-0.440,-0.080
16.397,-0.445,-0.085
16.400,-0.460,-0.090
16.403,-0.450,-0.070
16.406,-0.435,-0.070
16.408,-0.435,-0.055
16.411,-0.440,-0.075
16.414,-0.445,-0.085
16.417,-0.445,-0.090
16.419,-0.455,-0.085
16.422,-0.455,-0.070
16.425,-0.440,-0.070
16.428,-0.455,-0.085
16.431,-0.450,-0.090
16.433,-0.465,-0.095
16.436,-0.470,-0.085
16.439,-0.460,-0.085
16.442,-0.460,-0.080
16.444,-0.460,-0.095
16.447,-0.475,-0.095
16.450,-0.480,-0.100
16.453,-0.475,-0.105
16.456,-0.480,-0.095
16.458,-0.465,-0.105
16.461,-0.470,-0.105
16.464,-0.485,-0.110
16.467,-0.495,-0.105
16.469,-0.485,-0.105
16.472,-0.485,-0.100
16.475,-0.480,-0.095
16.478,-0.480,-0.100
16.481,-0.490,-0.110
16.483,-0.495,-0.105
16.486,-0.500,-0.105
16.489,-0.490,-0.090
16.492,-0.490,-0.090
16.494,-0.500,-0.095
16.497,-0.485,-0.110
16.500,-0.510,-0.105
16.503,-0.490,-0.105
16.506,-0.480,-0.080
16.508,-0.475,-0.085
16.511,-0.475,-0.085
16.514,-0.475,-0.105
16.517,-0.485,-0.105
16.519,-0.480,-0.080
16.522,-0.470,-0.070
16.525,-0.465,-0.070
16.528,-0.470,-0.075
16.531,-0.480,-0.075
16.533,-0.475,-0.080
16.536,-0.470,-0.070
16.539,-0.455,-0.055
16.542,-0.450,-0.065
16.544,-0.445,-0.060
16.547,-0.450,-0.075
16.550,-0.445,-0.060
16.553,-0.455,-0.055
16.556,-0.435,-0.040
16.558,-0.425,-0.040
16.561,-0.405,-0.040
16.564,-0.415,-0.045
16.567,-0.420,-0.030
16.569,-0.410,-0.030
16.572,-0.395,-0.010
16.575,-0.385,-0.010
16.578,-0.380,-0.020
16.581,-0.365,-0.020
16.583,-0.365,0.000
16.586,-0.350,0.005
16.589,-0.345,0.015
16.592,-0.320,0.010
16.594,-0.310,0.015
16.597,-0.310,0.005
16.600,-0.300,0.010
16.603,-0.280,0.030
16.606,-0.260,0.055
16.608,-0.245,0.030
16.611,-0.235,0.050
16.614,-0.240,0.045
16.617,-0.235,0.035
16.619,-0.225,0.060
16.622,-0.210,0.065
16.625,-0.195,0.060
16.628,-0.190,0.060
16.631,-0.195,0.055
16.633,-0.180,0.050
16.636,-0.185,0.055
16.639,-0.180,0.080
16.642,-0.160,0.070
16.644,-0.160,0.070
16.647,-0.175,0.050
16.650,-0.190,0.050
16.653,-0.185,0.055
16.656,-0.180,0.065
16.658,-0.165,0.070
16.661,-0.160,0.065
16.664,-0.160,0.050
16.667,-0.175,0.050
16.669,-0.165,0.060
16.672,-0.165,0.065
16.675,-0.165,0.055
16.678,-0.175,0.050
16.681,-0.180,0.040
16.683,-0.190,0.035
16.686,-0.185,0.040
16.689,-0.190,0.045
16.692,-0.190,0.045
16.694,-0.180,0.040
16.697,-0.190,0.030
16.700,-0.205,0.030
16.703,-0.200,0.030
16.706,-0.200,0.035
16.708,-0.200,0.035
16.711,-0.200,0.035
16.714,-0.210,0.025
16.717,-0.220,0.025
16.719,-0.220,0.025
16.722,-0.210,0.035
16.725,-0.205,0.045
16.728,-0.205,0.035
16.731,-0.220,0.015
16.733,-0.230,0.005
16.736,-0.230,0.020
16.739,-0.230,0.035
16.742,-0.220,0.020
16.744,-0.220,0.010
16.747,-0.235,0.010
16.750,-0.240,0.010
16.753,-0.245,0.005
16.756,-0.250,0.020
16.758,-0.240,0.020
16.761,-0.240,0.020
16.764,-0.245,0.000
16.767,-0.260,-0.005
16.769,-0.250,0.000
16.772,-0.245,0.015
16.775,-0.240,0.015
16.778,-0.240,0.010
16.781,-0.265,0.005
16.783,-0.265,-0.010
16.786,-0.275,0.000
16.789,-0.255,0.015
16.792,-0.250,0.000
16.794,-0.255,0.005
16.797,-0.280,-0.005
16.800,-0.275,0.000
16.803,-0.270,0.010
16.806,-0.265,0.015
16.808,-0.255,0.010
16.811,-0.260,0.005
16.814,-0.255,-0.005
16.817,-0.270,0.000
16.819,-0.260,-0.005
16.822,-0.250,0.015
16.825,-0.250,0.010
16.828,-0.250,0.005
16.831,-0.255,-0.005
16.833,-0.255,-0.005
16.836,-0.250,0.010
16.839,-0.240,0.015
16.842,-0.225,0.025
16.844,-0.235,0.005
16.847,-0.235,0.005
16.850,-0.250,0.000
16.853,-0.240,0.010
16.856,-0.230,0.020
16.858,-0.220,0.015
16.861,-0.225,0.010
16.864,-0.230,0.000
16.867,-0.250,-0.005
16.869,-0.240,0.005
16.872,-0.220,0.025
16.875,-0.205,0.015
16.878,-0.210,0.020
16.881,-0.220,0.005
16.883,-0.245,0.015
16.886,-0.230,0.005
16.889,-0.215,0.010
16.892,-0.215,0.005
16.894,-0.210,-0.005
16.897,-0.220,-0.005
16.900,-0.240,-0.005
16.903,-0.225,0.010
16.906,-0.210,0.015
16.908,-0.205,0.010
16.911,-0.215,-0.005
16.914,-0.220,-0.015
16.917,-0.225,-0.015
16.919,-0.230,-0.010
16.922,-0.215,0.005
16.925,-0.220,0.000
16.928,-0.225,-0.010
16.931,-0.230,-0.030
16.933,-0.230,-0.010
16.936,-0.230,-0.015
16.939,-0.230,0.005
16.942,-0.220,-0.005
