'Elapsed time','MLII','V1'
'seconds','mV','mV'
0.000,-0.445,0.260
0.003,-0.445,0.260
0.006,-0.445,0.260
0.008,-0.445,0.260
0.011,-0.445,0.260
0.014,-0.445,0.260
0.017,-0.445,0.260
0.019,-0.445,0.260
0.022,-0.450,0.260
0.025,-0.430,0.250
0.028,-0.435,0.250
0.031,-0.405,0.260
0.033,-0.385,0.270
0.036,-0.365,0.250
0.039,-0.355,0.255
0.042,-0.340,0.235
0.044,-0.325,0.235
0.047,-0.305,0.245
0.050,-0.285,0.265
0.053,-0.260,0.250
0.056,-0.245,0.235
0.058,-0.225,0.225
0.061,-0.240,0.215
0.064,-0.225,0.225
0.067,-0.210,0.230
0.069,-0.195,0.230
0.072,-0.190,0.220
0.075,-0.195,0.205
0.078,-0.205,0.205
0.081,-0.205,0.215
0.083,-0.200,0.215
0.086,-0.205,0.215
0.089,-0.210,0.200
0.092,-0.215,0.190
0.094,-0.235,0.190
0.097,-0.235,0.195
0.100,-0.220,0.200
0.103,-0.235,0.195
0.106,-0.240,0.195
0.108,-0.255,0.185
0.111,-0.280,0.180
0.114,-0.275,0.180
0.117,-0.265,0.195
0.119,-0.270,0.200
0.122,-0.270,0.190
0.125,-0.285,0.175
0.128,-0.305,0.170
0.131,-0.305,0.165
0.133,-0.295,0.185
0.136,-0.290,0.170
0.139,-0.300,0.190
0.142,-0.305,0.180
0.144,-0.315,0.175
0.147,-0.310,0.185
0.150,-0.315,0.200
0.153,-0.295,0.190
0.156,-0.300,0.170
0.158,-0.310,0.175
0.161,-0.315,0.170
0.164,-0.315,0.190
0.167,-0.320,0.195
0.169,-0.315,0.165
0.172,-0.305,0.175
0.175,-0.310,0.150
0.178,-0.330,0.155
0.181,-0.325,0.170
0.183,-0.330,0.180
0.186,-0.320,0.175
0.189,-0.320,0.160
0.192,-0.310,0.145
0.194,-0.325,0.140
0.197,-0.330,0.160
0.200,-0.330,0.175
0.203,-0.325,0.160
0.206,-0.325,0.155
0.208,-0.335,0.145
0.211,-0.335,0.150
0.214,-0.330,0.155
0.217,-0.320,0.170
0.219,-0.320,0.170
0.222,-0.335,0.155
0.225,-0.335,0.140
0.228,-0.345,0.140
0.231,-0.340,0.155
0.233,-0.325,0.160
0.236,-0.320,0.155
0.239,-0.325,0.140
0.242,-0.350,0.140
0.244,-0.360,0.135
0.247,-0.350,0.135
0.250,-0.325,0.155
0.253,-0.310,0.135
0.256,-0.325,0.145
0.258,-0.335,0.135
0.261,-0.340,0.140
0.264,-0.340,0.150
0.267,-0.330,0.150
0.269,-0.325,0.150
0.272,-0.335,0.140
0.275,-0.340,0.130
0.278,-0.345,0.130
0.281,-0.330,0.150
0.283,-0.335,0.155
0.286,-0.325,0.150
0.289,-0.325,0.145
0.292,-0.335,0.130
0.294,-0.340,0.135
0.297,-0.325,0.140
0.300,-0.325,0.145
0.303,-0.320,0.140
0.306,-0.325,0.140
0.308,-0.330,0.140
0.311,-0.345,0.135
0.314,-0.325,0.150
0.317,-0.325,0.170
0.319,-0.325,0.155
0.322,-0.320,0.150
0.325,-0.325,0.135
0.328,-0.330,0.140
0.331,-0.335,0.140
0.333,-0.305,0.175
0.336,-0.310,0.195
0.339,-0.295,0.210
0.342,-0.285,0.210
0.344,-0.290,0.215
0.347,-0.245,0.215
0.350,-0.230,0.225
0.353,-0.210,0.225
0.356,-0.230,0.220
0.358,-0.245,0.220
0.361,-0.245,0.205
0.364,-0.225,0.195
0.367,-0.190,0.185
0.369,-0.155,0.170
0.372,-0.145,0.160
0.375,-0.150,0.160
0.378,-0.155,0.170
0.381,-0.150,0.165
0.383,-0.140,0.180
0.386,-0.130,0.165
0.389,-0.120,0.145
0.392,-0.125,0.135
0.394,-0.140,0.135
0.397,-0.145,0.160
0.400,-0.150,0.165
0.403,-0.155,0.145
0.406,-0.150,0.140
0.408,-0.175,0.125
0.411,-0.200,0.125
0.414,-0.240,0.120
0.417,-0.280,0.120
0.419,-0.325,0.125
0.422,-0.360,0.110
0.425,-0.380,0.100
0.428,-0.390,0.095
0.431,-0.380,0.110
0.433,-0.380,0.125
0.436,-0.370,0.115
0.439,-0.380,0.100
0.442,-0.395,0.095
0.444,-0.415,0.090
0.447,-0.395,0.105
0.450,-0.395,0.105
0.453,-0.380,0.105
0.456,-0.370,0.105
0.458,-0.375,0.110
0.461,-0.390,0.110
0.464,-0.385,0.105
0.467,-0.380,0.125
0.469,-0.365,0.115
0.472,-0.375,0.110
0.475,-0.370,0.095
0.478,-0.400,0.095
0.481,-0.385,0.105
0.483,-0.370,0.110
0.486,-0.375,0.110
0.489,-0.370,0.085
0.492,-0.370,0.085
0.494,-0.360,0.060
0.497,-0.355,0.050
0.500,-0.355,0.060
0.503,-0.365,0.070
0.506,-0.370,0.055
0.508,-0.370,0.030
0.511,-0.355,0.000
0.514,-0.300,-0.025
0.517,-0.210,-0.070
0.519,-0.085,-0.130
0.522,0.050,-0.215
0.525,0.235,-0.310
0.528,0.400,-0.375
0.531,0.590,-0.425
0.533,0.775,-0.415
0.536,0.915,-0.395
0.539,1.025,-0.345
0.542,1.100,-0.305
0.544,1.160,-0.275
0.547,1.180,-0.245
0.550,1.090,-0.200
0.553,0.960,-0.165
0.556,0.825,-0.125
0.558,0.710,-0.095
0.561,0.575,-0.055
0.564,0.410,-0.005
0.567,0.255,0.040
0.569,0.145,0.040
0.572,0.095,0.065
0.575,0.005,0.085
0.578,-0.105,0.095
0.581,-0.195,0.125
0.583,-0.245,0.145
0.586,-0.285,0.140
0.589,-0.325,0.155
0.592,-0.375,0.165
0.594,-0.430,0.165
0.597,-0.470,0.195
0.600,-0.495,0.195
0.603,-0.505,0.180
0.606,-0.520,0.170
0.608,-0.550,0.160
0.611,-0.560,0.155
0.614,-0.550,0.170
0.617,-0.540,0.195
0.619,-0.520,0.195
0.622,-0.540,0.190
0.625,-0.540,0.180
0.628,-0.550,0.170
0.631,-0.545,0.175
0.633,-0.530,0.195
0.636,-0.515,0.200
0.639,-0.530,0.190
0.642,-0.530,0.185
0.644,-0.535,0.195
0.647,-0.545,0.200
0.650,-0.525,0.205
0.653,-0.515,0.210
0.656,-0.510,0.205
0.658,-0.525,0.200
0.661,-0.535,0.205
0.664,-0.520,0.205
0.667,-0.510,0.220
0.669,-0.505,0.225
0.672,-0.510,0.215
0.675,-0.525,0.190
0.678,-0.535,0.205
0.681,-0.535,0.205
0.683,-0.515,0.215
0.686,-0.510,0.215
0.689,-0.515,0.225
0.692,-0.520,0.220
0.694,-0.530,0.205
0.697,-0.545,0.220
0.700,-0.535,0.230
0.703,-0.525,0.225
0.706,-0.515,0.220
0.708,-0.530,0.225
0.711,-0.535,0.225
0.714,-0.530,0.250
0.717,-0.515,0.245
0.719,-0.520,0.250
0.722,-0.530,0.235
0.725,-0.525,0.220
0.728,-0.515,0.230
0.731,-0.520,0.240
0.733,-0.495,0.245
0.736,-0.480,0.255
0.739,-0.490,0.240
0.742,-0.485,0.240
0.744,-0.495,0.235
0.747,-0.470,0.250
0.750,-0.470,0.270
0.753,-0.450,0.265
0.756,-0.445,0.265
0.758,-0.430,0.250
0.761,-0.435,0.250
0.764,-0.420,0.260
0.767,-0.400,0.275
0.769,-0.375,0.250
0.772,-0.370,0.245
0.775,-0.360,0.260
0.778,-0.350,0.260
0.781,-0.330,0.270
0.783,-0.300,0.280
0.786,-0.260,0.265
0.789,-0.250,0.255
0.792,-0.240,0.240
0.794,-0.235,0.240
0.797,-0.230,0.235
0.800,-0.210,0.245
0.803,-0.205,0.240
0.806,-0.180,0.230
0.808,-0.175,0.215
0.811,-0.185,0.210
0.814,-0.170,0.215
0.817,-0.165,0.215
0.819,-0.160,0.215
0.822,-0.155,0.215
0.825,-0.170,0.185
0.828,-0.170,0.195
0.831,-0.175,0.205
0.833,-0.175,0.205
0.836,-0.185,0.195
0.839,-0.185,0.185
0.842,-0.195,0.175
0.844,-0.200,0.175
0.847,-0.215,0.180
0.850,-0.220,0.205
0.853,-0.215,0.185
0.856,-0.230,0.195
0.858,-0.265,0.175
0.861,-0.280,0.165
0.864,-0.265,0.170
0.867,-0.260,0.190
0.869,-0.265,0.185
0.872,-0.255,0.180
0.875,-0.280,0.175
0.878,-0.310,0.165
0.881,-0.305,0.190
0.883,-0.290,0.190
0.886,-0.285,0.185
0.889,-0.300,0.180
0.892,-0.285,0.180
0.894,-0.290,0.170
0.897,-0.290,0.185
0.900,-0.290,0.195
0.903,-0.295,0.175
0.906,-0.295,0.165
0.908,-0.310,0.160
0.911,-0.310,0.165
0.914,-0.310,0.170
0.917,-0.315,0.175
0.919,-0.315,0.185
0.922,-0.315,0.180
0.925,-0.325,0.170
0.928,-0.330,0.165
0.931,-0.325,0.160
0.933,-0.310,0.170
0.936,-0.315,0.165
0.939,-0.320,0.155
0.942,-0.325,0.140
0.944,-0.360,0.155
0.947,-0.335,0.165
0.950,-0.320,0.165
0.953,-0.310,0.160
0.956,-0.320,0.150
0.958,-0.320,0.145
0.961,-0.330,0.145
0.964,-0.330,0.145
0.967,-0.310,0.165
0.969,-0.290,0.155
0.972,-0.300,0.150
0.975,-0.325,0.130
0.978,-0.330,0.125
0.981,-0.345,0.130
0.983,-0.325,0.140
0.986,-0.320,0.145
0.989,-0.320,0.130
0.992,-0.310,0.145
0.994,-0.315,0.145
0.997,-0.320,0.155
1.000,-0.320,0.155
1.003,-0.315,0.145
1.006,-0.310,0.130
1.008,-0.330,0.125
1.011,-0.340,0.125
1.014,-0.335,0.140
1.017,-0.325,0.150
1.019,-0.320,0.145
1.022,-0.320,0.135
1.025,-0.325,0.125
1.028,-0.345,0.130
1.031,-0.335,0.130
1.033,-0.320,0.140
1.036,-0.320,0.145
1.039,-0.320,0.145
1.042,-0.330,0.135
1.044,-0.360,0.125
1.047,-0.345,0.140
1.050,-0.320,0.145
1.053,-0.320,0.145
1.056,-0.330,0.135
1.058,-0.340,0.125
1.061,-0.355,0.145
1.064,-0.345,0.145
1.067,-0.330,0.190
1.069,-0.305,0.195
1.072,-0.300,0.195
1.075,-0.295,0.215
1.078,-0.305,0.215
1.081,-0.285,0.230
1.083,-0.245,0.235
1.086,-0.225,0.235
1.089,-0.225,0.230
1.092,-0.245,0.215
1.094,-0.260,0.195
1.097,-0.250,0.200
1.100,-0.220,0.200
1.103,-0.205,0.195
1.106,-0.175,0.195
1.108,-0.180,0.175
1.111,-0.175,0.165
1.114,-0.170,0.165
1.117,-0.145,0.155
1.119,-0.120,0.150
1.122,-0.145,0.145
1.125,-0.150,0.130
1.128,-0.165,0.140
1.131,-0.170,0.150
1.133,-0.165,0.175
1.136,-0.170,0.155
1.139,-0.185,0.150
1.142,-0.205,0.130
1.144,-0.240,0.115
1.147,-0.270,0.125
1.150,-0.325,0.140
1.153,-0.360,0.135
1.156,-0.390,0.130
1.158,-0.395,0.135
1.161,-0.405,0.110
1.164,-0.405,0.130
1.167,-0.415,0.130
1.169,-0.410,0.125
1.172,-0.400,0.115
1.175,-0.410,0.115
1.178,-0.420,0.115
1.181,-0.420,0.130
1.183,-0.400,0.145
1.186,-0.395,0.130
1.189,-0.395,0.120
1.192,-0.400,0.110
1.194,-0.390,0.110
1.197,-0.390,0.130
1.200,-0.385,0.130
1.203,-0.380,0.145
1.206,-0.390,0.125
1.208,-0.400,0.120
1.211,-0.395,0.110
1.214,-0.385,0.130
1.217,-0.375,0.130
1.219,-0.370,0.120
1.222,-0.365,0.105
1.225,-0.385,0.095
1.228,-0.390,0.095
1.231,-0.385,0.110
1.233,-0.390,0.120
1.236,-0.390,0.100
1.239,-0.385,0.080
1.242,-0.370,0.040
1.244,-0.330,-0.015
1.247,-0.225,-0.050
1.250,-0.090,-0.120
1.253,0.090,-0.225
1.256,0.270,-0.315
1.258,0.460,-0.380
1.261,0.640,-0.380
1.264,0.830,-0.340
1.267,0.980,-0.270
1.269,1.085,-0.220
1.272,1.175,-0.215
1.275,1.175,-0.200
1.278,1.065,-0.175
1.281,0.910,-0.125
1.283,0.780,-0.065
1.286,0.660,-0.055
1.289,0.530,-0.015
1.292,0.385,0.025
1.294,0.245,0.050
1.297,0.175,0.080
1.300,0.155,0.110
1.303,0.095,0.125
1.306,0.000,0.140
1.308,-0.115,0.140
1.311,-0.190,0.155
1.314,-0.250,0.175
1.317,-0.295,0.195
1.319,-0.350,0.215
1.322,-0.415,0.220
1.325,-0.455,0.190
1.328,-0.490,0.195
1.331,-0.495,0.190
1.333,-0.495,0.205
1.336,-0.510,0.205
1.339,-0.520,0.200
1.342,-0.540,0.205
1.344,-0.560,0.205
1.347,-0.550,0.205
1.350,-0.540,0.210
1.353,-0.520,0.220
1.356,-0.515,0.215
1.358,-0.520,0.195
1.361,-0.530,0.200
1.364,-0.525,0.205
1.367,-0.495,0.220
1.369,-0.475,0.215
1.372,-0.485,0.215
1.375,-0.495,0.195
1.378,-0.510,0.195
1.381,-0.515,0.200
1.383,-0.505,0.210
1.386,-0.495,0.205
1.389,-0.500,0.200
1.392,-0.490,0.220
1.394,-0.495,0.220
1.397,-0.490,0.235
1.400,-0.490,0.240
1.403,-0.485,0.235
1.406,-0.500,0.220
1.408,-0.505,0.225
1.411,-0.515,0.225
1.414,-0.515,0.235
1.417,-0.510,0.235
1.419,-0.505,0.230
1.422,-0.505,0.225
1.425,-0.500,0.210
1.428,-0.505,0.210
1.431,-0.510,0.220
1.433,-0.500,0.230
1.436,-0.500,0.230
1.439,-0.500,0.220
1.442,-0.505,0.200
1.444,-0.525,0.210
1.447,-0.515,0.215
1.450,-0.515,0.220
1.453,-0.515,0.235
1.456,-0.495,0.235
1.458,-0.500,0.225
1.461,-0.510,0.215
1.464,-0.495,0.225
1.467,-0.490,0.250
1.469,-0.470,0.235
1.472,-0.475,0.245
1.475,-0.480,0.225
1.478,-0.475,0.235
1.481,-0.450,0.240
1.483,-0.440,0.235
1.486,-0.415,0.250
1.489,-0.410,0.235
1.492,-0.420,0.240
1.494,-0.400,0.235
1.497,-0.385,0.245
1.500,-0.345,0.250
1.503,-0.325,0.250
1.506,-0.320,0.235
1.508,-0.335,0.235
1.511,-0.325,0.225
1.514,-0.305,0.230
1.517,-0.285,0.225
1.519,-0.255,0.225
1.522,-0.240,0.225
1.525,-0.235,0.210
1.528,-0.235,0.210
1.531,-0.230,0.200
1.533,-0.205,0.215
1.536,-0.190,0.200
1.539,-0.200,0.205
1.542,-0.200,0.205
1.544,-0.220,0.190
1.547,-0.205,0.190
1.550,-0.220,0.195
1.553,-0.205,0.205
1.556,-0.215,0.180
1.558,-0.245,0.175
1.561,-0.260,0.185
1.564,-0.250,0.190
1.567,-0.255,0.190
1.569,-0.250,0.180
1.572,-0.265,0.165
1.575,-0.280,0.155
1.578,-0.300,0.165
1.581,-0.295,0.180
1.583,-0.300,0.195
1.586,-0.300,0.180
1.589,-0.305,0.180
1.592,-0.310,0.175
1.594,-0.330,0.180
1.597,-0.330,0.185
1.600,-0.320,0.190
1.603,-0.315,0.190
1.606,-0.320,0.190
1.608,-0.330,0.185
1.611,-0.345,0.180
1.614,-0.345,0.195
1.617,-0.340,0.200
1.619,-0.335,0.195
1.622,-0.335,0.190
1.625,-0.340,0.185
1.628,-0.355,0.170
1.631,-0.340,0.175
1.633,-0.345,0.175
1.636,-0.340,0.170
1.639,-0.350,0.170
1.642,-0.350,0.155
1.644,-0.365,0.170
1.647,-0.365,0.185
1.650,-0.350,0.195
1.653,-0.335,0.170
1.656,-0.335,0.180
1.658,-0.350,0.160
1.661,-0.360,0.160
1.664,-0.370,0.165
1.667,-0.360,0.170
1.669,-0.345,0.170
1.672,-0.350,0.160
1.675,-0.365,0.155
1.678,-0.365,0.145
1.681,-0.370,0.160
1.683,-0.355,0.165
1.686,-0.355,0.160
1.689,-0.360,0.160
1.692,-0.365,0.145
1.694,-0.365,0.150
1.697,-0.355,0.160
1.700,-0.335,0.160
1.703,-0.340,0.150
1.706,-0.355,0.145
1.708,-0.375,0.145
1.711,-0.385,0.155
1.714,-0.375,0.155
1.717,-0.360,0.170
1.719,-0.350,0.160
1.722,-0.355,0.160
1.725,-0.365,0.145
1.728,-0.375,0.145
1.731,-0.370,0.155
1.733,-0.360,0.165
1.736,-0.355,0.160
1.739,-0.355,0.160
1.742,-0.365,0.140
1.744,-0.365,0.140
1.747,-0.355,0.150
1.750,-0.335,0.155
1.753,-0.325,0.165
1.756,-0.335,0.155
1.758,-0.360,0.155
1.761,-0.375,0.145
1.764,-0.355,0.165
1.767,-0.335,0.185
1.769,-0.320,0.190
1.772,-0.320,0.210
1.775,-0.290,0.215
1.778,-0.300,0.220
1.781,-0.275,0.230
1.783,-0.250,0.230
1.786,-0.220,0.205
1.789,-0.240,0.215
1.792,-0.255,0.200
1.794,-0.245,0.190
1.797,-0.215,0.190
1.800,-0.180,0.195
1.803,-0.170,0.190
1.806,-0.165,0.185
1.808,-0.145,0.170
1.811,-0.135,0.185
1.814,-0.125,0.175
1.817,-0.115,0.175
1.819,-0.105,0.155
1.822,-0.115,0.160
1.825,-0.130,0.155
1.828,-0.170,0.150
1.831,-0.170,0.150
1.833,-0.180,0.165
1.836,-0.180,0.165
1.839,-0.210,0.140
1.842,-0.255,0.125
1.844,-0.315,0.130
1.847,-0.350,0.140
1.850,-0.370,0.145
1.853,-0.375,0.130
1.856,-0.370,0.120
1.858,-0.390,0.105
1.861,-0.405,0.105
1.864,-0.400,0.115
1.867,-0.390,0.130
1.869,-0.375,0.125
1.872,-0.380,0.120
1.875,-0.385,0.110
1.878,-0.405,0.110
1.881,-0.385,0.120
1.883,-0.375,0.125
1.886,-0.375,0.125
1.889,-0.380,0.125
1.892,-0.375,0.110
1.894,-0.380,0.110
1.897,-0.370,0.130
1.900,-0.355,0.140
1.903,-0.350,0.140
1.906,-0.355,0.135
1.908,-0.365,0.115
1.911,-0.375,0.100
1.914,-0.360,0.110
1.917,-0.350,0.100
1.919,-0.340,0.100
1.922,-0.340,0.075
1.925,-0.355,0.075
1.928,-0.380,0.085
1.931,-0.380,0.090
1.933,-0.360,0.090
1.936,-0.320,0.060
1.939,-0.230,0.020
1.942,-0.100,-0.040
1.944,0.055,-0.110
1.947,0.240,-0.180
1.950,0.415,-0.225
1.953,0.610,-0.285
1.956,0.775,-0.320
1.958,0.925,-0.320
1.961,1.030,-0.250
1.964,1.105,-0.175
1.967,1.155,-0.140
1.969,1.140,-0.155
1.972,1.035,-0.140
1.975,0.885,-0.115
1.978,0.755,-0.080
1.981,0.650,-0.040
1.983,0.540,0.005
1.986,0.370,0.035
1.989,0.190,0.070
1.992,0.080,0.080
1.994,-0.015,0.100
1.997,-0.080,0.120
2.000,-0.175,0.145
2.003,-0.245,0.135
2.006,-0.305,0.150
2.008,-0.365,0.165
2.011,-0.410,0.175
2.014,-0.450,0.205
2.017,-0.470,0.220
2.019,-0.490,0.220
2.022,-0.495,0.210
2.025,-0.535,0.185
2.028,-0.560,0.185
2.031,-0.570,0.190
2.033,-0.565,0.205
2.036,-0.555,0.205
2.039,-0.560,0.195
2.042,-0.565,0.170
2.044,-0.585,0.175
2.047,-0.570,0.200
2.050,-0.555,0.210
2.053,-0.550,0.205
2.056,-0.545,0.195
2.058,-0.555,0.190
2.061,-0.570,0.185
2.064,-0.560,0.210
2.067,-0.550,0.215
2.069,-0.545,0.200
2.072,-0.525,0.190
2.075,-0.530,0.195
2.078,-0.545,0.205
2.081,-0.535,0.210
2.083,-0.530,0.220
2.086,-0.530,0.205
2.089,-0.520,0.205
2.092,-0.525,0.190
2.094,-0.535,0.185
2.097,-0.535,0.210
2.100,-0.525,0.225
2.103,-0.535,0.215
2.106,-0.525,0.205
2.108,-0.530,0.195
2.111,-0.550,0.190
2.114,-0.535,0.200
2.117,-0.530,0.210
2.119,-0.520,0.215
2.122,-0.535,0.210
2.125,-0.545,0.205
2.128,-0.550,0.205
2.131,-0.540,0.205
2.133,-0.525,0.225
2.136,-0.525,0.210
2.139,-0.535,0.220
2.142,-0.540,0.195
2.144,-0.530,0.210
2.147,-0.520,0.230
2.150,-0.510,0.240
2.153,-0.500,0.235
2.156,-0.505,0.215
2.158,-0.515,0.210
2.161,-0.520,0.200
2.164,-0.510,0.220
2.167,-0.505,0.240
2.169,-0.495,0.250
2.172,-0.480,0.235
2.175,-0.475,0.220
2.178,-0.475,0.210
2.181,-0.455,0.225
2.183,-0.425,0.225
2.186,-0.400,0.225
2.189,-0.410,0.225
2.192,-0.405,0.215
2.194,-0.400,0.210
2.197,-0.385,0.220
2.200,-0.370,0.230
2.203,-0.345,0.225
2.206,-0.315,0.215
2.208,-0.310,0.210
2.211,-0.315,0.220
2.214,-0.290,0.225
2.217,-0.260,0.225
2.219,-0.250,0.220
2.222,-0.235,0.205
2.225,-0.230,0.210
2.228,-0.240,0.200
2.231,-0.225,0.200
2.233,-0.220,0.215
2.236,-0.205,0.200
2.239,-0.200,0.190
2.242,-0.180,0.185
2.244,-0.185,0.185
2.247,-0.180,0.170
2.250,-0.185,0.190
2.253,-0.170,0.180
2.256,-0.190,0.190
2.258,-0.210,0.185
2.261,-0.225,0.175
2.264,-0.230,0.175
2.267,-0.215,0.180
2.269,-0.215,0.180
2.272,-0.230,0.180
2.275,-0.250,0.180
2.278,-0.260,0.180
2.281,-0.270,0.185
2.283,-0.255,0.195
2.286,-0.255,0.195
2.289,-0.265,0.185
2.292,-0.275,0.165
2.294,-0.275,0.165
2.297,-0.280,0.170
2.300,-0.285,0.180
2.303,-0.270,0.190
2.306,-0.270,0.180
2.308,-0.295,0.170
2.311,-0.300,0.165
2.314,-0.310,0.160
2.317,-0.310,0.175
2.319,-0.295,0.165
2.322,-0.295,0.165
2.325,-0.295,0.145
2.328,-0.315,0.150
2.331,-0.315,0.160
2.333,-0.325,0.170
2.336,-0.315,0.170
2.339,-0.315,0.175
2.342,-0.315,0.150
2.344,-0.325,0.145
2.347,-0.335,0.155
2.350,-0.330,0.165
2.353,-0.330,0.145
2.356,-0.320,0.140
2.358,-0.320,0.135
2.361,-0.325,0.145
2.364,-0.325,0.140
2.367,-0.310,0.165
2.369,-0.310,0.155
2.372,-0.315,0.155
2.375,-0.305,0.135
2.378,-0.310,0.145
2.381,-0.320,0.130
2.383,-0.320,0.145
2.386,-0.320,0.145
2.389,-0.320,0.145
2.392,-0.320,0.135
2.394,-0.330,0.135
2.397,-0.320,0.135
2.400,-0.315,0.135
2.403,-0.305,0.125
2.406,-0.315,0.120
2.408,-0.315,0.120
2.411,-0.340,0.120
2.414,-0.335,0.125
2.417,-0.325,0.135
2.419,-0.315,0.140
2.422,-0.310,0.120
2.425,-0.330,0.125
2.428,-0.340,0.110
2.431,-0.320,0.140
2.433,-0.305,0.155
2.436,-0.295,0.145
2.439,-0.300,0.135
2.442,-0.315,0.140
2.444,-0.330,0.125
2.447,-0.330,0.125
2.450,-0.310,0.135
2.453,-0.295,0.145
2.456,-0.300,0.140
2.458,-0.320,0.125
2.461,-0.330,0.120
2.464,-0.325,0.130
2.467,-0.310,0.135
2.469,-0.295,0.140
2.472,-0.310,0.140
2.475,-0.320,0.135
2.478,-0.315,0.150
2.481,-0.295,0.165
2.483,-0.280,0.195
2.486,-0.265,0.205
2.489,-0.245,0.205
2.492,-0.245,0.200
2.494,-0.245,0.185
2.497,-0.240,0.195
2.500,-0.220,0.215
2.503,-0.215,0.210
2.506,-0.230,0.210
2.508,-0.210,0.180
2.511,-0.195,0.165
2.514,-0.180,0.160
2.517,-0.160,0.165
2.519,-0.135,0.165
2.522,-0.125,0.170
2.525,-0.130,0.150
2.528,-0.130,0.135
2.531,-0.120,0.135
2.533,-0.095,0.135
2.536,-0.105,0.135
2.539,-0.105,0.130
2.542,-0.130,0.125
2.544,-0.150,0.120
2.547,-0.140,0.115
2.550,-0.145,0.125
2.553,-0.170,0.115
2.556,-0.230,0.110
2.558,-0.280,0.095
2.561,-0.325,0.080
2.564,-0.340,0.095
2.567,-0.340,0.100
2.569,-0.335,0.095
2.572,-0.360,0.090
2.575,-0.365,0.075
2.578,-0.375,0.085
2.581,-0.370,0.085
2.583,-0.355,0.085
2.586,-0.340,0.080
2.589,-0.345,0.080
2.592,-0.350,0.070
2.594,-0.345,0.075
2.597,-0.350,0.085
2.600,-0.350,0.090
2.603,-0.330,0.080
2.606,-0.315,0.075
2.608,-0.325,0.060
2.611,-0.340,0.065
2.614,-0.330,0.075
2.617,-0.335,0.085
2.619,-0.315,0.080
2.622,-0.310,0.075
2.625,-0.310,0.055
2.628,-0.320,0.055
2.631,-0.315,0.040
2.633,-0.305,0.045
2.636,-0.305,0.025
2.639,-0.315,0.025
2.642,-0.325,0.035
2.644,-0.335,0.030
2.647,-0.330,0.030
2.650,-0.275,0.000
2.653,-0.165,-0.050
2.656,-0.010,-0.135
2.658,0.185,-0.220
2.661,0.355,-0.305
2.664,0.560,-0.370
2.667,0.770,-0.380
2.669,0.945,-0.355
2.672,1.050,-0.305
2.675,1.140,-0.270
2.678,1.180,-0.240
2.681,1.140,-0.240
2.683,1.035,-0.205
2.686,0.895,-0.165
2.689,0.770,-0.120
2.692,0.675,-0.115
2.694,0.570,-0.090
2.697,0.460,-0.050
2.700,0.310,0.000
2.703,0.170,0.010
2.706,0.065,0.015
2.708,-0.030,0.025
2.711,-0.110,0.055
2.714,-0.195,0.080
2.717,-0.270,0.100
2.719,-0.330,0.105
2.722,-0.365,0.115
2.725,-0.420,0.125
2.728,-0.485,0.145
2.731,-0.500,0.165
2.733,-0.510,0.180
2.736,-0.500,0.155
2.739,-0.505,0.140
2.742,-0.515,0.135
2.744,-0.535,0.120
2.747,-0.545,0.140
2.750,-0.540,0.155
2.753,-0.540,0.160
2.756,-0.540,0.150
2.758,-0.535,0.150
2.761,-0.520,0.155
2.764,-0.515,0.155
2.767,-0.515,0.155
2.769,-0.510,0.150
2.772,-0.510,0.145
2.775,-0.505,0.150
2.778,-0.500,0.155
2.781,-0.495,0.170
2.783,-0.490,0.155
2.786,-0.490,0.150
2.789,-0.495,0.145
2.792,-0.495,0.145
2.794,-0.485,0.155
2.797,-0.465,0.155
2.800,-0.470,0.150
2.803,-0.470,0.150
2.806,-0.475,0.140
2.808,-0.495,0.140
2.811,-0.490,0.140
2.814,-0.470,0.155
2.817,-0.470,0.160
2.819,-0.485,0.155
2.822,-0.480,0.140
2.825,-0.500,0.140
2.828,-0.485,0.145
2.831,-0.475,0.155
2.833,-0.485,0.150
2.836,-0.480,0.140
2.839,-0.490,0.145
2.842,-0.495,0.150
2.844,-0.505,0.155
2.847,-0.510,0.165
2.850,-0.475,0.165
2.853,-0.480,0.160
2.856,-0.485,0.145
2.858,-0.500,0.150
2.861,-0.495,0.150
2.864,-0.485,0.180
2.867,-0.475,0.165
2.869,-0.465,0.170
2.872,-0.470,0.155
2.875,-0.485,0.160
2.878,-0.465,0.160
2.881,-0.450,0.170
2.883,-0.425,0.165
2.886,-0.420,0.155
2.889,-0.400,0.150
2.892,-0.415,0.165
2.894,-0.395,0.170
2.897,-0.385,0.175
2.900,-0.380,0.175
2.903,-0.375,0.175
2.906,-0.370,0.160
2.908,-0.370,0.160
2.911,-0.345,0.155
2.914,-0.315,0.175
2.917,-0.285,0.180
2.919,-0.280,0.175
2.922,-0.255,0.160
2.925,-0.260,0.150
2.928,-0.235,0.150
2.931,-0.215,0.160
2.933,-0.195,0.155
2.936,-0.190,0.150
2.939,-0.180,0.135
2.942,-0.175,0.135
2.944,-0.165,0.145
2.947,-0.155,0.145
2.950,-0.140,0.140
2.953,-0.145,0.135
2.956,-0.150,0.115
2.958,-0.155,0.110
2.961,-0.175,0.135
2.964,-0.175,0.140
2.967,-0.160,0.120
2.969,-0.175,0.110
2.972,-0.200,0.100
2.975,-0.215,0.095
2.978,-0.220,0.100
2.981,-0.215,0.110
2.983,-0.225,0.115
2.986,-0.230,0.100
2.989,-0.230,0.100
2.992,-0.240,0.105
2.994,-0.235,0.110
2.997,-0.240,0.120
3.000,-0.245,0.100
3.003,-0.255,0.085
3.006,-0.245,0.085
3.008,-0.245,0.080
3.011,-0.255,0.105
3.014,-0.245,0.110
3.017,-0.240,0.105
3.019,-0.255,0.090
3.022,-0.265,0.080
3.025,-0.280,0.085
3.028,-0.275,0.105
3.031,-0.270,0.110
3.033,-0.260,0.110
3.036,-0.260,0.110
3.039,-0.270,0.090
3.042,-0.280,0.075
3.044,-0.285,0.110
3.047,-0.280,0.095
3.050,-0.270,0.095
3.053,-0.270,0.095
3.056,-0.275,0.090
3.058,-0.270,0.080
3.061,-0.270,0.095
3.064,-0.270,0.100
3.067,-0.265,0.085
3.069,-0.255,0.085
3.072,-0.275,0.070
3.075,-0.290,0.075
3.078,-0.280,0.075
3.081,-0.270,0.090
3.083,-0.280,0.085
3.086,-0.285,0.075
3.089,-0.280,0.065
3.092,-0.280,0.060
3.094,-0.275,0.075
3.097,-0.275,0.075
3.100,-0.260,0.075
3.103,-0.265,0.065
3.106,-0.280,0.055
3.108,-0.285,0.040
3.111,-0.280,0.055
3.114,-0.270,0.065
3.117,-0.250,0.055
3.119,-0.270,0.065
3.122,-0.290,0.060
3.125,-0.280,0.060
3.128,-0.290,0.055
3.131,-0.265,0.080
3.133,-0.260,0.075
3.136,-0.255,0.065
3.139,-0.270,0.060
3.142,-0.285,0.055
3.144,-0.285,0.060
3.147,-0.275,0.085
3.150,-0.260,0.070
3.153,-0.270,0.060
3.156,-0.265,0.060
3.158,-0.280,0.050
3.161,-0.280,0.060
3.164,-0.260,0.070
3.167,-0.265,0.065
3.169,-0.275,0.060
3.172,-0.280,0.045
3.175,-0.295,0.055
3.178,-0.275,0.075
3.181,-0.250,0.070
3.183,-0.245,0.060
3.186,-0.255,0.060
3.189,-0.270,0.060
3.192,-0.285,0.060
3.194,-0.285,0.090
3.197,-0.265,0.115
3.200,-0.240,0.120
3.203,-0.235,0.140
3.206,-0.225,0.135
3.208,-0.205,0.145
3.211,-0.170,0.150
3.214,-0.145,0.150
3.217,-0.150,0.140
3.219,-0.180,0.135
3.222,-0.175,0.120
3.225,-0.170,0.100
3.228,-0.130,0.085
3.231,-0.100,0.100
3.233,-0.085,0.090
3.236,-0.090,0.090
3.239,-0.075,0.075
3.242,-0.085,0.070
3.244,-0.090,0.085
3.247,-0.075,0.065
3.250,-0.055,0.050
3.253,-0.065,0.055
3.256,-0.075,0.060
3.258,-0.090,0.075
3.261,-0.110,0.075
3.264,-0.110,0.065
3.267,-0.120,0.040
3.269,-0.130,0.035
3.272,-0.190,0.020
3.275,-0.260,0.030
3.278,-0.300,0.030
3.281,-0.325,0.035
3.283,-0.330,0.050
3.286,-0.335,0.035
3.289,-0.340,0.025
3.292,-0.335,0.025
3.294,-0.330,0.030
3.297,-0.340,0.045
3.300,-0.340,0.030
3.303,-0.335,0.035
3.306,-0.335,0.025
3.308,-0.340,0.030
3.311,-0.325,0.035
3.314,-0.335,0.040
3.317,-0.325,0.035
3.319,-0.320,0.030
3.322,-0.325,0.045
3.325,-0.325,0.035
3.328,-0.325,0.045
3.331,-0.310,0.050
3.333,-0.295,0.050
3.336,-0.305,0.035
3.339,-0.305,0.015
3.342,-0.305,0.020
3.344,-0.280,0.020
3.347,-0.270,0.025
3.350,-0.275,0.015
3.353,-0.290,0.020
3.356,-0.315,-0.010
3.358,-0.310,-0.015
3.361,-0.290,-0.030
3.364,-0.245,-0.085
3.367,-0.160,-0.135
3.369,-0.045,-0.225
3.372,0.115,-0.320
3.375,0.300,-0.410
3.378,0.515,-0.465
3.381,0.740,-0.465
3.383,0.935,-0.410
3.386,1.075,-0.355
3.389,1.195,-0.300
3.392,1.235,-0.300
3.394,1.195,-0.300
3.397,1.080,-0.255
3.400,0.960,-0.205
3.403,0.835,-0.185
3.406,0.740,-0.150
3.408,0.625,-0.110
3.411,0.465,-0.060
3.414,0.310,-0.010
3.417,0.215,-0.005
3.419,0.140,0.015
3.422,0.025,0.025
3.425,-0.080,0.030
3.428,-0.160,0.070
3.431,-0.230,0.080
3.433,-0.270,0.110
3.436,-0.325,0.115
3.439,-0.385,0.120
3.442,-0.445,0.110
3.444,-0.460,0.115
3.447,-0.460,0.120
3.450,-0.485,0.115
3.453,-0.485,0.110
3.456,-0.495,0.105
3.458,-0.500,0.110
3.461,-0.495,0.115
3.464,-0.510,0.120
3.467,-0.515,0.130
3.469,-0.505,0.115
3.472,-0.495,0.105
3.475,-0.495,0.115
3.478,-0.495,0.130
3.481,-0.475,0.130
3.483,-0.475,0.135
3.486,-0.480,0.135
3.489,-0.485,0.120
3.492,-0.490,0.110
3.494,-0.500,0.125
3.497,-0.485,0.130
3.500,-0.470,0.135
3.503,-0.470,0.130
3.506,-0.465,0.135
3.508,-0.470,0.130
3.511,-0.465,0.130
3.514,-0.465,0.145
3.517,-0.480,0.130
3.519,-0.475,0.135
3.522,-0.480,0.130
3.525,-0.480,0.135
3.528,-0.480,0.150
3.531,-0.465,0.155
3.533,-0.470,0.155
3.536,-0.470,0.145
3.539,-0.475,0.145
3.542,-0.485,0.145
3.544,-0.465,0.155
3.547,-0.460,0.160
3.550,-0.455,0.165
3.553,-0.450,0.160
3.556,-0.460,0.155
3.558,-0.480,0.150
3.561,-0.460,0.150
3.564,-0.450,0.165
3.567,-0.440,0.165
3.569,-0.445,0.175
3.572,-0.450,0.155
3.575,-0.465,0.165
3.578,-0.465,0.170
3.581,-0.465,0.185
3.583,-0.455,0.175
3.586,-0.440,0.165
3.589,-0.430,0.170
3.592,-0.435,0.175
3.594,-0.420,0.175
3.597,-0.410,0.190
3.600,-0.390,0.180
3.603,-0.370,0.160
3.606,-0.365,0.165
3.608,-0.360,0.165
3.611,-0.330,0.170
3.614,-0.315,0.185
3.617,-0.295,0.180
3.619,-0.275,0.180
3.622,-0.280,0.175
3.625,-0.270,0.180
3.628,-0.240,0.175
3.631,-0.220,0.185
3.633,-0.200,0.170
3.636,-0.185,0.160
3.639,-0.180,0.155
3.642,-0.175,0.145
3.644,-0.160,0.160
3.647,-0.135,0.150
3.650,-0.115,0.150
3.653,-0.125,0.145
3.656,-0.130,0.140
3.658,-0.155,0.130
3.661,-0.150,0.130
3.664,-0.140,0.140
3.667,-0.135,0.140
3.669,-0.140,0.125
3.672,-0.160,0.100
3.675,-0.175,0.100
3.678,-0.175,0.110
3.681,-0.180,0.115
3.683,-0.170,0.125
3.686,-0.185,0.105
3.689,-0.200,0.115
3.692,-0.215,0.115
3.694,-0.220,0.110
3.697,-0.225,0.120
3.700,-0.235,0.120
3.703,-0.235,0.110
3.706,-0.240,0.105
3.708,-0.250,0.105
3.711,-0.250,0.100
3.714,-0.240,0.120
3.717,-0.235,0.120
3.719,-0.250,0.115
3.722,-0.250,0.115
3.725,-0.280,0.100
3.728,-0.270,0.115
3.731,-0.270,0.120
3.733,-0.260,0.120
3.736,-0.275,0.110
3.739,-0.275,0.110
3.742,-0.300,0.110
3.744,-0.285,0.105
3.747,-0.275,0.120
3.750,-0.265,0.120
3.753,-0.270,0.120
3.756,-0.280,0.100
3.758,-0.295,0.095
3.761,-0.290,0.110
3.764,-0.285,0.115
3.767,-0.265,0.120
3.769,-0.285,0.105
3.772,-0.295,0.095
3.775,-0.295,0.095
3.778,-0.310,0.105
3.781,-0.290,0.115
3.783,-0.280,0.105
3.786,-0.285,0.095
3.789,-0.290,0.090
3.792,-0.290,0.075
3.794,-0.295,0.110
3.797,-0.290,0.105
3.800,-0.285,0.115
3.803,-0.290,0.110
3.806,-0.285,0.085
3.808,-0.310,0.095
3.811,-0.300,0.090
3.814,-0.305,0.095
3.817,-0.295,0.090
3.819,-0.290,0.095
3.822,-0.290,0.090
3.825,-0.290,0.095
3.828,-0.295,0.085
3.831,-0.300,0.095
3.833,-0.280,0.095
3.836,-0.280,0.090
3.839,-0.285,0.090
3.842,-0.300,0.085
3.844,-0.290,0.105
3.847,-0.285,0.100
3.850,-0.275,0.085
3.853,-0.270,0.090
3.856,-0.275,0.080
3.858,-0.300,0.090
3.861,-0.290,0.085
3.864,-0.275,0.110
3.867,-0.275,0.100
3.869,-0.270,0.100
3.872,-0.285,0.100
3.875,-0.295,0.090
3.878,-0.285,0.100
3.881,-0.280,0.095
3.883,-0.265,0.105
3.886,-0.270,0.100
3.889,-0.270,0.095
3.892,-0.270,0.105
3.894,-0.275,0.115
3.897,-0.255,0.125
3.900,-0.255,0.130
3.903,-0.255,0.140
3.906,-0.265,0.125
3.908,-0.270,0.160
3.911,-0.225,0.180
3.914,-0.205,0.175
3.917,-0.195,0.180
3.919,-0.185,0.175
3.922,-0.195,0.150
3.925,-0.200,0.155
3.928,-0.195,0.155
3.931,-0.175,0.155
3.933,-0.145,0.140
3.936,-0.130,0.130
3.939,-0.130,0.115
3.942,-0.125,0.115
3.944,-0.110,0.130
3.947,-0.095,0.135
3.950,-0.060,0.125
3.953,-0.070,0.095
3.956,-0.075,0.090
3.958,-0.105,0.085
3.961,-0.100,0.105
3.964,-0.085,0.120
3.967,-0.085,0.115
3.969,-0.090,0.100
3.972,-0.115,0.080
3.975,-0.130,0.090
3.978,-0.155,0.075
3.981,-0.180,0.090
3.983,-0.220,0.080
3.986,-0.275,0.075
3.989,-0.305,0.075
3.992,-0.355,0.070
3.994,-0.350,0.075
3.997,-0.335,0.080
4.000,-0.330,0.075
4.003,-0.340,0.075
4.006,-0.350,0.070
4.008,-0.370,0.070
4.011,-0.345,0.080
4.014,-0.340,0.070
4.017,-0.330,0.070
4.019,-0.330,0.070
4.022,-0.340,0.050
4.025,-0.340,0.055
4.028,-0.330,0.070
4.031,-0.325,0.085
4.033,-0.320,0.080
4.036,-0.320,0.070
4.039,-0.330,0.060
4.042,-0.340,0.060
4.044,-0.320,0.075
4.047,-0.305,0.080
4.050,-0.295,0.075
4.053,-0.290,0.065
4.056,-0.300,0.065
4.058,-0.320,0.040
4.061,-0.300,0.030
4.064,-0.310,0.050
4.067,-0.310,0.050
4.069,-0.315,0.055
4.072,-0.310,0.035
4.075,-0.300,0.045
4.078,-0.235,0.005
4.081,-0.140,-0.030
4.083,0.000,-0.115
4.086,0.180,-0.205
4.089,0.365,-0.295
4.092,0.555,-0.355
4.094,0.755,-0.360
4.097,0.940,-0.325
4.100,1.075,-0.265
4.103,1.160,-0.215
4.106,1.210,-0.225
4.108,1.165,-0.215
4.111,1.065,-0.180
4.114,0.940,-0.135
4.117,0.835,-0.110
4.119,0.755,-0.095
4.122,0.655,-0.080
4.125,0.525,-0.045
4.128,0.360,0.025
4.131,0.220,0.055
4.133,0.135,0.070
4.136,0.070,0.055
4.139,-0.020,0.075
4.142,-0.130,0.100
4.144,-0.215,0.110
4.147,-0.275,0.145
4.150,-0.315,0.155
4.153,-0.360,0.165
4.156,-0.410,0.165
4.158,-0.445,0.160
4.161,-0.455,0.165
4.164,-0.465,0.175
4.167,-0.465,0.165
4.169,-0.470,0.155
4.172,-0.485,0.165
4.175,-0.495,0.165
4.178,-0.505,0.170
4.181,-0.500,0.170
4.183,-0.495,0.180
4.186,-0.500,0.170
4.189,-0.495,0.165
4.192,-0.500,0.175
4.194,-0.495,0.190
4.197,-0.480,0.190
4.200,-0.470,0.185
4.203,-0.475,0.165
4.206,-0.470,0.160
4.208,-0.485,0.175
4.211,-0.475,0.190
4.214,-0.465,0.195
4.217,-0.465,0.180
4.219,-0.470,0.180
4.222,-0.495,0.165
4.225,-0.495,0.175
4.228,-0.485,0.175
4.231,-0.475,0.185
4.233,-0.470,0.185
4.236,-0.480,0.175
4.239,-0.485,0.170
4.242,-0.505,0.160
4.244,-0.495,0.170
4.247,-0.475,0.170
4.250,-0.460,0.175
4.253,-0.465,0.170
4.256,-0.480,0.160
4.258,-0.485,0.170
4.261,-0.495,0.185
4.264,-0.475,0.200
4.267,-0.485,0.185
4.269,-0.485,0.180
4.272,-0.475,0.175
4.275,-0.495,0.175
4.278,-0.505,0.200
4.281,-0.490,0.210
4.283,-0.485,0.200
4.286,-0.470,0.205
4.289,-0.470,0.185
4.292,-0.470,0.190
4.294,-0.485,0.205
4.297,-0.465,0.200
4.300,-0.465,0.200
4.303,-0.465,0.200
4.306,-0.460,0.205
4.308,-0.450,0.205
4.311,-0.455,0.210
4.314,-0.430,0.210
4.317,-0.410,0.210
4.319,-0.410,0.205
4.322,-0.410,0.195
4.325,-0.405,0.205
4.328,-0.380,0.220
4.331,-0.350,0.215
4.333,-0.340,0.205
4.336,-0.330,0.190
4.339,-0.325,0.195
4.342,-0.300,0.190
4.344,-0.270,0.195
4.347,-0.245,0.215
4.350,-0.240,0.210
4.353,-0.225,0.210
4.356,-0.230,0.190
4.358,-0.230,0.190
4.361,-0.210,0.185
4.364,-0.195,0.190
4.367,-0.175,0.200
4.369,-0.175,0.180
4.372,-0.175,0.180
4.375,-0.175,0.170
4.378,-0.170,0.185
4.381,-0.155,0.195
4.383,-0.140,0.185
4.386,-0.155,0.165
4.389,-0.175,0.160
4.392,-0.190,0.155
4.394,-0.180,0.160
4.397,-0.195,0.165
4.400,-0.205,0.175
4.403,-0.200,0.175
4.406,-0.205,0.155
4.408,-0.230,0.145
4.411,-0.230,0.150
4.414,-0.225,0.165
4.417,-0.210,0.160
4.419,-0.225,0.165
4.422,-0.240,0.155
4.425,-0.245,0.165
4.428,-0.250,0.165
4.431,-0.245,0.170
4.433,-0.245,0.175
4.436,-0.245,0.175
4.439,-0.260,0.155
4.442,-0.280,0.160
4.444,-0.290,0.170
4.447,-0.280,0.180
4.450,-0.260,0.170
4.453,-0.260,0.165
4.456,-0.285,0.160
4.458,-0.295,0.160
4.461,-0.285,0.175
4.464,-0.280,0.175
4.467,-0.265,0.170
4.469,-0.270,0.165
4.472,-0.275,0.150
4.475,-0.305,0.155
4.478,-0.300,0.160
4.481,-0.295,0.150
4.483,-0.275,0.150
4.486,-0.280,0.150
4.489,-0.295,0.155
4.492,-0.300,0.145
4.494,-0.295,0.145
4.497,-0.290,0.155
4.500,-0.285,0.150
4.503,-0.290,0.145
4.506,-0.300,0.145
4.508,-0.300,0.140
4.511,-0.290,0.145
4.514,-0.285,0.150
4.517,-0.295,0.140
4.519,-0.280,0.145
4.522,-0.285,0.130
4.525,-0.295,0.135
4.528,-0.285,0.140
4.531,-0.290,0.150
4.533,-0.275,0.145
4.536,-0.285,0.140
4.539,-0.305,0.130
4.542,-0.305,0.140
4.544,-0.305,0.140
4.547,-0.285,0.135
4.550,-0.285,0.135
4.553,-0.290,0.130
4.556,-0.295,0.125
4.558,-0.305,0.125
4.561,-0.305,0.135
4.564,-0.295,0.140
4.567,-0.285,0.145
4.569,-0.280,0.140
4.572,-0.280,0.135
4.575,-0.295,0.125
4.578,-0.290,0.135
4.581,-0.285,0.140
4.583,-0.275,0.140
4.586,-0.285,0.140
4.589,-0.280,0.125
4.592,-0.295,0.125
4.594,-0.290,0.130
4.597,-0.290,0.135
4.600,-0.285,0.125
4.603,-0.280,0.120
4.606,-0.290,0.120
4.608,-0.300,0.120
4.611,-0.275,0.125
4.614,-0.275,0.145
4.617,-0.275,0.130
4.619,-0.275,0.130
4.622,-0.290,0.140
4.625,-0.285,0.150
4.628,-0.270,0.165
4.631,-0.265,0.190
4.633,-0.245,0.190
4.636,-0.230,0.205
4.639,-0.220,0.205
4.642,-0.220,0.195
4.644,-0.210,0.200
4.647,-0.180,0.200
4.650,-0.180,0.200
4.653,-0.190,0.200
4.656,-0.190,0.170
4.658,-0.190,0.155
4.661,-0.150,0.165
4.664,-0.125,0.160
4.667,-0.105,0.160
4.669,-0.095,0.140
4.672,-0.090,0.145
4.675,-0.090,0.135
4.678,-0.075,0.135
4.681,-0.060,0.135
4.683,-0.065,0.130
4.686,-0.080,0.130
4.689,-0.095,0.125
4.692,-0.110,0.115
4.694,-0.105,0.120
4.697,-0.100,0.130
4.700,-0.100,0.115
4.703,-0.125,0.110
4.706,-0.170,0.095
4.708,-0.225,0.100
4.711,-0.270,0.105
4.714,-0.295,0.105
4.717,-0.305,0.100
4.719,-0.325,0.090
4.722,-0.345,0.080
4.725,-0.340,0.085
4.728,-0.335,0.085
4.731,-0.325,0.090
4.733,-0.320,0.090
4.736,-0.330,0.080
4.739,-0.340,0.075
4.742,-0.350,0.070
4.744,-0.340,0.090
4.747,-0.320,0.105
4.750,-0.320,0.090
4.753,-0.320,0.095
4.756,-0.320,0.075
4.758,-0.325,0.080
4.761,-0.325,0.085
4.764,-0.320,0.095
4.767,-0.300,0.090
4.769,-0.295,0.080
4.772,-0.305,0.065
4.775,-0.310,0.070
4.778,-0.310,0.075
4.781,-0.305,0.085
4.783,-0.290,0.075
4.786,-0.280,0.060
4.789,-0.305,0.035
4.792,-0.310,0.035
4.794,-0.315,0.060
4.797,-0.325,0.065
4.800,-0.310,0.060
4.803,-0.300,0.035
4.806,-0.255,-0.005
4.808,-0.180,-0.050
4.811,-0.045,-0.100
4.814,0.135,-0.175
4.817,0.320,-0.270
4.819,0.495,-0.345
4.822,0.675,-0.385
4.825,0.855,-0.380
4.828,1.015,-0.315
4.831,1.135,-0.250
4.833,1.200,-0.230
4.836,1.205,-0.230
4.839,1.100,-0.210
4.842,0.950,-0.165
4.844,0.820,-0.130
4.847,0.745,-0.095
4.850,0.660,-0.090
4.853,0.520,-0.055
4.856,0.355,-0.030
4.858,0.240,0.000
4.861,0.155,0.025
4.864,0.140,0.045
4.867,0.080,0.055
4.869,-0.020,0.075
4.872,-0.125,0.105
4.875,-0.220,0.110
4.878,-0.290,0.135
4.881,-0.325,0.155
4.883,-0.355,0.165
4.886,-0.395,0.180
4.889,-0.435,0.165
4.892,-0.455,0.160
4.894,-0.460,0.180
4.897,-0.475,0.180
4.900,-0.480,0.170
4.903,-0.495,0.170
4.906,-0.500,0.145
4.908,-0.510,0.160
4.911,-0.500,0.175
4.914,-0.485,0.180
4.917,-0.475,0.175
4.919,-0.480,0.170
4.922,-0.495,0.170
4.925,-0.490,0.165
4.928,-0.485,0.170
4.931,-0.475,0.175
4.933,-0.445,0.180
4.936,-0.460,0.170
4.939,-0.485,0.165
4.942,-0.495,0.175
4.944,-0.490,0.180
4.947,-0.480,0.175
4.950,-0.465,0.170
4.953,-0.465,0.180
4.956,-0.470,0.170
4.958,-0.480,0.170
4.961,-0.475,0.170
4.964,-0.460,0.195
4.967,-0.470,0.185
4.969,-0.460,0.180
4.972,-0.470,0.175
4.975,-0.470,0.170
4.978,-0.480,0.185
4.981,-0.485,0.190
4.983,-0.475,0.180
4.986,-0.475,0.180
4.989,-0.490,0.170
4.992,-0.510,0.165
4.994,-0.510,0.180
4.997,-0.510,0.195
5.000,-0.495,0.190
5.003,-0.500,0.175
5.006,-0.510,0.175
5.008,-0.505,0.175
5.011,-0.495,0.185
5.014,-0.505,0.205
5.017,-0.490,0.200
5.019,-0.490,0.190
5.022,-0.495,0.185
5.025,-0.495,0.175
5.028,-0.485,0.180
5.031,-0.470,0.195
5.033,-0.465,0.190
5.036,-0.485,0.200
5.039,-0.480,0.195
5.042,-0.485,0.195
5.044,-0.470,0.190
5.047,-0.440,0.200
5.050,-0.430,0.200
5.053,-0.440,0.190
5.056,-0.435,0.180
5.058,-0.425,0.185
5.061,-0.405,0.200
5.064,-0.400,0.210
5.067,-0.385,0.200
5.069,-0.365,0.190
5.072,-0.355,0.180
5.075,-0.350,0.185
5.078,-0.330,0.190
5.081,-0.315,0.195
5.083,-0.290,0.200
5.086,-0.275,0.190
5.089,-0.270,0.190
5.092,-0.265,0.185
5.094,-0.250,0.180
5.097,-0.245,0.195
5.100,-0.215,0.185
5.103,-0.200,0.180
5.106,-0.190,0.170
5.108,-0.195,0.165
5.111,-0.175,0.155
5.114,-0.160,0.175
5.117,-0.155,0.165
5.119,-0.150,0.165
5.122,-0.160,0.140
5.125,-0.165,0.140
5.128,-0.160,0.140
5.131,-0.155,0.150
5.133,-0.155,0.155
5.136,-0.170,0.150
5.139,-0.185,0.150
5.142,-0.200,0.130
5.144,-0.210,0.135
5.147,-0.195,0.135
5.150,-0.200,0.140
5.153,-0.210,0.130
5.156,-0.235,0.125
5.158,-0.240,0.135
5.161,-0.245,0.140
5.164,-0.235,0.140
5.167,-0.220,0.130
5.169,-0.230,0.115
5.172,-0.255,0.115
5.175,-0.270,0.130
5.178,-0.275,0.125
5.181,-0.265,0.140
5.183,-0.260,0.140
5.186,-0.265,0.145
5.189,-0.265,0.130
5.192,-0.275,0.120
5.194,-0.285,0.135
5.197,-0.275,0.135
5.200,-0.265,0.120
5.203,-0.260,0.125
5.206,-0.275,0.120
5.208,-0.290,0.110
5.211,-0.280,0.120
5.214,-0.295,0.145
5.217,-0.280,0.120
5.219,-0.285,0.125
5.222,-0.290,0.110
5.225,-0.310,0.115
5.228,-0.295,0.110
5.231,-0.285,0.120
5.233,-0.285,0.120
5.236,-0.295,0.115
5.239,-0.310,0.095
5.242,-0.325,0.095
5.244,-0.310,0.100
5.247,-0.295,0.110
5.250,-0.285,0.110
5.253,-0.295,0.095
5.256,-0.305,0.085
5.258,-0.305,0.080
5.261,-0.310,0.105
5.264,-0.295,0.100
5.267,-0.290,0.090
5.269,-0.290,0.095
5.272,-0.300,0.075
5.275,-0.305,0.065
5.278,-0.295,0.085
5.281,-0.300,0.090
5.283,-0.300,0.090
5.286,-0.295,0.095
5.289,-0.285,0.075
5.292,-0.295,0.070
5.294,-0.290,0.085
5.297,-0.280,0.090
5.300,-0.275,0.080
5.303,-0.290,0.085
5.306,-0.305,0.070
5.308,-0.305,0.075
5.311,-0.295,0.080
5.314,-0.285,0.085
5.317,-0.275,0.075
5.319,-0.290,0.080
5.322,-0.295,0.065
5.325,-0.310,0.055
5.328,-0.300,0.080
5.331,-0.295,0.080
5.333,-0.275,0.075
5.336,-0.275,0.070
5.339,-0.290,0.060
5.342,-0.300,0.070
5.344,-0.305,0.070
5.347,-0.290,0.075
5.350,-0.290,0.080
5.353,-0.285,0.075
5.356,-0.280,0.065
5.358,-0.285,0.055
5.361,-0.290,0.075
5.364,-0.285,0.085
5.367,-0.280,0.080
5.369,-0.285,0.075
5.372,-0.275,0.070
5.375,-0.285,0.070
5.378,-0.275,0.090
5.381,-0.265,0.105
5.383,-0.265,0.120
5.386,-0.265,0.150
5.389,-0.265,0.150
5.392,-0.255,0.160
5.394,-0.220,0.155
5.397,-0.185,0.165
5.400,-0.175,0.170
5.403,-0.180,0.175
5.406,-0.200,0.160
5.408,-0.215,0.145
5.411,-0.190,0.145
5.414,-0.160,0.130
5.417,-0.125,0.115
5.419,-0.115,0.105
5.422,-0.110,0.100
5.425,-0.115,0.105
5.428,-0.115,0.110
5.431,-0.100,0.115
5.433,-0.075,0.090
5.436,-0.075,0.085
5.439,-0.085,0.065
5.442,-0.100,0.070
5.444,-0.095,0.090
5.447,-0.085,0.095
5.450,-0.100,0.100
5.453,-0.120,0.095
5.456,-0.125,0.075
5.458,-0.145,0.060
5.461,-0.165,0.065
5.464,-0.195,0.060
5.467,-0.245,0.060
5.469,-0.300,0.050
5.472,-0.325,0.035
5.475,-0.350,0.045
5.478,-0.350,0.050
5.481,-0.340,0.065
5.483,-0.340,0.065
5.486,-0.350,0.050
5.489,-0.360,0.045
5.492,-0.370,0.040
5.494,-0.355,0.045
5.497,-0.340,0.060
5.500,-0.335,0.045
5.503,-0.345,0.050
5.506,-0.335,0.035
5.508,-0.350,0.035
5.511,-0.350,0.055
5.514,-0.340,0.060
5.517,-0.340,0.040
5.519,-0.335,0.040
5.522,-0.335,0.040
5.525,-0.350,0.050
5.528,-0.340,0.055
5.531,-0.325,0.060
5.533,-0.310,0.055
5.536,-0.295,0.030
5.539,-0.325,0.025
5.542,-0.325,0.030
5.544,-0.310,0.035
5.547,-0.320,0.035
5.550,-0.315,0.030
5.553,-0.315,0.020
5.556,-0.330,0.015
5.558,-0.335,0.010
5.561,-0.320,-0.015
5.564,-0.275,-0.040
5.567,-0.215,-0.100
5.569,-0.100,-0.170
5.572,0.010,-0.260
5.575,0.165,-0.345
5.578,0.340,-0.415
5.581,0.525,-0.435
5.583,0.705,-0.440
5.586,0.860,-0.420
5.589,0.980,-0.385
5.592,1.080,-0.335
5.594,1.180,-0.290
5.597,1.205,-0.275
5.600,1.155,-0.255
5.603,1.025,-0.220
5.606,0.880,-0.180
5.608,0.770,-0.150
5.611,0.685,-0.135
5.614,0.595,-0.080
5.617,0.480,-0.050
5.619,0.330,-0.015
5.622,0.220,-0.010
5.625,0.165,0.015
5.628,0.090,0.040
5.631,0.015,0.075
5.633,-0.080,0.090
5.636,-0.175,0.090
5.639,-0.250,0.090
5.642,-0.310,0.125
5.644,-0.360,0.150
5.647,-0.415,0.165
5.650,-0.465,0.170
5.653,-0.490,0.160
5.656,-0.505,0.145
5.658,-0.520,0.145
5.661,-0.525,0.155
5.664,-0.535,0.150
5.667,-0.530,0.160
5.669,-0.530,0.155
5.672,-0.525,0.145
5.675,-0.550,0.155
5.678,-0.550,0.160
5.681,-0.555,0.175
5.683,-0.530,0.170
5.686,-0.525,0.165
5.689,-0.530,0.160
5.692,-0.530,0.165
5.694,-0.525,0.175
5.697,-0.525,0.185
5.700,-0.520,0.180
5.703,-0.525,0.175
5.706,-0.530,0.165
5.708,-0.520,0.165
5.711,-0.505,0.170
5.714,-0.510,0.185
5.717,-0.505,0.200
5.719,-0.505,0.195
5.722,-0.520,0.180
5.725,-0.525,0.170
5.728,-0.520,0.180
5.731,-0.505,0.195
5.733,-0.505,0.190
5.736,-0.505,0.190
5.739,-0.520,0.185
5.742,-0.525,0.185
5.744,-0.535,0.195
5.747,-0.530,0.205
5.750,-0.525,0.195
5.753,-0.525,0.195
5.756,-0.525,0.190
5.758,-0.530,0.190
5.761,-0.525,0.195
5.764,-0.525,0.210
5.767,-0.520,0.205
5.769,-0.525,0.210
5.772,-0.535,0.200
5.775,-0.530,0.205
5.778,-0.530,0.210
5.781,-0.520,0.220
5.783,-0.515,0.215
5.786,-0.530,0.225
5.789,-0.525,0.205
5.792,-0.530,0.210
5.794,-0.530,0.220
5.797,-0.510,0.235
5.800,-0.495,0.235
5.803,-0.495,0.225
5.806,-0.495,0.215
5.808,-0.505,0.220
5.811,-0.490,0.225
5.814,-0.465,0.230
5.817,-0.440,0.235
5.819,-0.435,0.230
5.822,-0.435,0.220
5.825,-0.445,0.230
5.828,-0.430,0.230
5.831,-0.405,0.240
5.833,-0.375,0.240
5.836,-0.365,0.235
5.839,-0.345,0.230
5.842,-0.335,0.225
5.844,-0.335,0.245
5.847,-0.315,0.255
5.850,-0.290,0.250
5.853,-0.300,0.230
5.856,-0.275,0.225
5.858,-0.275,0.235
5.861,-0.250,0.230
5.864,-0.230,0.250
5.867,-0.220,0.240
5.869,-0.220,0.220
5.872,-0.210,0.220
5.875,-0.215,0.210
5.878,-0.190,0.215
5.881,-0.180,0.210
5.883,-0.165,0.195
5.886,-0.170,0.200
5.889,-0.185,0.190
5.892,-0.205,0.185
5.894,-0.195,0.185
5.897,-0.190,0.190
5.900,-0.185,0.190
5.903,-0.185,0.180
5.906,-0.200,0.180
5.908,-0.210,0.170
5.911,-0.225,0.175
5.914,-0.220,0.185
5.917,-0.220,0.195
5.919,-0.235,0.180
5.922,-0.240,0.170
5.925,-0.260,0.170
5.928,-0.270,0.185
5.931,-0.275,0.185
5.933,-0.270,0.180
5.936,-0.275,0.180
5.939,-0.280,0.165
5.942,-0.290,0.175
5.944,-0.285,0.185
5.947,-0.275,0.195
5.950,-0.275,0.175
5.953,-0.290,0.170
5.956,-0.295,0.160
5.958,-0.310,0.165
5.961,-0.310,0.175
5.964,-0.295,0.185
5.967,-0.275,0.185
5.969,-0.295,0.170
5.972,-0.300,0.175
5.975,-0.315,0.180
5.978,-0.320,0.180
5.981,-0.310,0.180
5.983,-0.295,0.175
5.986,-0.300,0.165
5.989,-0.315,0.175
5.992,-0.335,0.165
5.994,-0.320,0.165
5.997,-0.315,0.180
6.000,-0.305,0.170
6.003,-0.315,0.170
6.006,-0.320,0.150
6.008,-0.325,0.145
6.011,-0.320,0.160
6.014,-0.315,0.165
6.017,-0.315,0.160
6.019,-0.310,0.160
6.022,-0.330,0.145
6.025,-0.335,0.150
6.028,-0.315,0.150
6.031,-0.320,0.150
6.033,-0.310,0.135
6.036,-0.310,0.150
6.039,-0.325,0.135
6.042,-0.335,0.120
6.044,-0.325,0.145
6.047,-0.310,0.155
6.050,-0.305,0.140
6.053,-0.300,0.140
6.056,-0.315,0.120
6.058,-0.320,0.115
6.061,-0.310,0.130
6.064,-0.305,0.145
6.067,-0.290,0.140
6.069,-0.300,0.140
6.072,-0.315,0.140
6.075,-0.310,0.120
6.078,-0.315,0.120
6.081,-0.305,0.145
6.083,-0.305,0.135
6.086,-0.310,0.130
6.089,-0.315,0.125
6.092,-0.315,0.115
6.094,-0.310,0.120
6.097,-0.300,0.140
6.100,-0.290,0.135
6.103,-0.310,0.135
6.106,-0.315,0.120
6.108,-0.330,0.125
6.111,-0.315,0.140
6.114,-0.295,0.150
6.117,-0.295,0.150
6.119,-0.300,0.150
6.122,-0.300,0.135
6.125,-0.315,0.135
6.128,-0.300,0.135
6.131,-0.290,0.150
6.133,-0.285,0.150
6.136,-0.285,0.150
6.139,-0.295,0.140
6.142,-0.305,0.140
6.144,-0.310,0.155
6.147,-0.295,0.180
6.150,-0.280,0.195
6.153,-0.270,0.205
6.156,-0.255,0.210
6.158,-0.250,0.220
6.161,-0.220,0.230
6.164,-0.205,0.235
6.167,-0.190,0.235
6.169,-0.195,0.225
6.172,-0.210,0.220
6.175,-0.220,0.195
6.178,-0.195,0.180
6.181,-0.175,0.185
6.183,-0.160,0.160
6.186,-0.155,0.165
6.189,-0.150,0.160
6.192,-0.145,0.170
6.194,-0.130,0.165
6.197,-0.110,0.170
6.200,-0.095,0.155
6.203,-0.110,0.145
6.206,-0.105,0.135
6.208,-0.125,0.135
6.211,-0.135,0.155
6.214,-0.130,0.160
6.217,-0.125,0.155
6.219,-0.140,0.130
6.222,-0.155,0.110
6.225,-0.200,0.105
6.228,-0.240,0.120
6.231,-0.275,0.145
6.233,-0.300,0.125
6.236,-0.320,0.120
6.239,-0.345,0.110
6.242,-0.380,0.105
6.244,-0.385,0.120
6.247,-0.370,0.120
6.250,-0.355,0.110
6.253,-0.365,0.085
6.256,-0.375,0.090
6.258,-0.380,0.100
6.261,-0.365,0.125
6.264,-0.355,0.135
6.267,-0.355,0.125
6.269,-0.360,0.115
6.272,-0.360,0.105
6.275,-0.370,0.110
6.278,-0.355,0.115
6.281,-0.345,0.120
6.283,-0.345,0.110
6.286,-0.335,0.095
6.289,-0.340,0.105
6.292,-0.340,0.105
6.294,-0.340,0.105
6.297,-0.325,0.105
6.300,-0.315,0.095
6.303,-0.320,0.085
6.306,-0.335,0.070
6.308,-0.345,0.055
6.311,-0.325,0.080
6.314,-0.345,0.075
6.317,-0.325,0.060
6.319,-0.315,0.025
6.322,-0.285,-0.020
6.325,-0.185,-0.090
6.328,-0.025,-0.170
6.331,0.165,-0.255
6.333,0.375,-0.360
6.336,0.595,-0.405
6.339,0.760,-0.415
6.342,0.945,-0.375
6.344,1.090,-0.310
6.347,1.200,-0.255
6.350,1.280,-0.220
6.353,1.255,-0.220
6.356,1.145,-0.210
6.358,0.995,-0.165
6.361,0.850,-0.110
6.364,0.730,-0.075
6.367,0.625,-0.035
6.369,0.470,0.015
6.372,0.305,0.050
6.375,0.175,0.065
6.378,0.100,0.095
6.381,0.035,0.120
6.383,-0.060,0.120
6.386,-0.145,0.125
6.389,-0.235,0.135
6.392,-0.290,0.150
6.394,-0.335,0.170
6.397,-0.385,0.190
6.400,-0.435,0.200
6.403,-0.460,0.190
6.406,-0.490,0.190
6.408,-0.495,0.185
6.411,-0.510,0.195
6.414,-0.525,0.205
6.417,-0.535,0.205
6.419,-0.540,0.205
6.422,-0.535,0.185
6.425,-0.555,0.195
6.428,-0.560,0.200
6.431,-0.530,0.210
6.433,-0.520,0.210
6.436,-0.520,0.195
6.439,-0.525,0.195
6.442,-0.540,0.195
6.444,-0.530,0.210
6.447,-0.525,0.210
6.450,-0.520,0.210
6.453,-0.520,0.205
6.456,-0.515,0.195
6.458,-0.525,0.190
6.461,-0.515,0.200
6.464,-0.500,0.220
6.467,-0.500,0.225
6.469,-0.505,0.220
6.472,-0.510,0.205
6.475,-0.530,0.210
6.478,-0.530,0.210
6.481,-0.510,0.220
6.483,-0.510,0.230
6.486,-0.505,0.215
6.489,-0.505,0.215
6.492,-0.510,0.220
6.494,-0.530,0.225
6.497,-0.510,0.230
6.500,-0.500,0.230
6.503,-0.505,0.220
6.506,-0.515,0.220
6.508,-0.525,0.200
6.511,-0.520,0.235
6.514,-0.500,0.240
6.517,-0.495,0.235
6.519,-0.495,0.235
6.522,-0.515,0.230
6.525,-0.520,0.220
6.528,-0.525,0.240
6.531,-0.510,0.265
6.533,-0.510,0.255
6.536,-0.510,0.245
6.539,-0.500,0.220
6.542,-0.500,0.230
6.544,-0.490,0.245
6.547,-0.480,0.250
6.550,-0.485,0.245
6.553,-0.470,0.230
6.556,-0.460,0.245
6.558,-0.465,0.235
6.561,-0.450,0.250
6.564,-0.435,0.260
6.567,-0.420,0.260
6.569,-0.415,0.245
6.572,-0.410,0.230
6.575,-0.410,0.230
6.578,-0.400,0.250
6.581,-0.360,0.260
6.583,-0.340,0.250
6.586,-0.330,0.245
6.589,-0.310,0.240
6.592,-0.310,0.235
6.594,-0.300,0.255
6.597,-0.275,0.255
6.600,-0.255,0.250
6.603,-0.235,0.260
6.606,-0.230,0.245
6.608,-0.235,0.240
6.611,-0.210,0.240
6.614,-0.190,0.240
6.617,-0.175,0.220
6.619,-0.160,0.215
6.622,-0.160,0.210
6.625,-0.160,0.210
6.628,-0.165,0.215
6.631,-0.170,0.230
6.633,-0.180,0.225
6.636,-0.175,0.210
6.639,-0.185,0.195
6.642,-0.205,0.180
6.644,-0.205,0.180
6.647,-0.200,0.190
6.650,-0.210,0.185
6.653,-0.220,0.190
6.656,-0.225,0.165
6.658,-0.250,0.175
6.661,-0.250,0.190
6.664,-0.250,0.190
6.667,-0.260,0.190
6.669,-0.260,0.180
6.672,-0.270,0.180
6.675,-0.295,0.175
6.678,-0.285,0.185
6.681,-0.260,0.195
6.683,-0.260,0.190
6.686,-0.270,0.180
6.689,-0.275,0.180
6.692,-0.305,0.165
6.694,-0.300,0.180
6.697,-0.295,0.190
6.700,-0.295,0.205
6.703,-0.290,0.185
6.706,-0.285,0.180
6.708,-0.300,0.180
6.711,-0.305,0.180
6.714,-0.300,0.185
6.717,-0.295,0.190
6.719,-0.300,0.175
6.722,-0.310,0.185
6.725,-0.315,0.175
6.728,-0.315,0.180
6.731,-0.305,0.185
6.733,-0.300,0.185
6.736,-0.305,0.185
6.739,-0.300,0.170
6.742,-0.320,0.175
6.744,-0.320,0.180
6.747,-0.315,0.180
6.750,-0.320,0.190
6.753,-0.325,0.175
6.756,-0.320,0.155
6.758,-0.330,0.150
6.761,-0.330,0.160
6.764,-0.320,0.175
6.767,-0.305,0.170
6.769,-0.310,0.165
6.772,-0.315,0.160
6.775,-0.320,0.145
6.778,-0.315,0.155
6.781,-0.305,0.165
6.783,-0.300,0.160
6.786,-0.305,0.150
6.789,-0.305,0.135
6.792,-0.330,0.130
6.794,-0.320,0.145
6.797,-0.305,0.165
6.800,-0.300,0.155
6.803,-0.305,0.150
6.806,-0.295,0.145
6.808,-0.300,0.130
6.811,-0.325,0.145
6.814,-0.305,0.145
6.817,-0.290,0.145
6.819,-0.295,0.145
6.822,-0.300,0.135
6.825,-0.315,0.135
6.828,-0.320,0.145
6.831,-0.310,0.150
6.833,-0.305,0.150
6.836,-0.300,0.145
6.839,-0.310,0.125
6.842,-0.320,0.130
6.844,-0.310,0.135
6.847,-0.305,0.155
6.850,-0.295,0.155
6.853,-0.295,0.130
6.856,-0.310,0.130
6.858,-0.315,0.130
6.861,-0.320,0.135
6.864,-0.310,0.150
6.867,-0.310,0.150
6.869,-0.305,0.160
6.872,-0.310,0.160
6.875,-0.305,0.155
6.878,-0.305,0.185
6.881,-0.290,0.215
6.883,-0.260,0.220
6.886,-0.250,0.215
6.889,-0.240,0.210
6.892,-0.250,0.210
6.894,-0.235,0.195
6.897,-0.220,0.205
6.900,-0.210,0.200
6.903,-0.225,0.200
6.906,-0.220,0.185
6.908,-0.225,0.170
6.911,-0.180,0.175
6.914,-0.160,0.170
6.917,-0.145,0.175
6.919,-0.125,0.175
6.922,-0.135,0.155
6.925,-0.125,0.150
6.928,-0.110,0.150
6.931,-0.105,0.130
6.933,-0.110,0.135
6.936,-0.115,0.135
6.939,-0.135,0.140
6.942,-0.155,0.135
6.944,-0.155,0.135
6.947,-0.170,0.145
6.950,-0.175,0.135
6.953,-0.195,0.120
6.956,-0.235,0.110
6.958,-0.280,0.090
6.961,-0.325,0.110
6.964,-0.330,0.115
6.967,-0.345,0.110
6.969,-0.360,0.115
6.972,-0.375,0.085
6.975,-0.380,0.080
6.978,-0.375,0.085
6.981,-0.380,0.115
6.983,-0.380,0.110
6.986,-0.380,0.100
6.989,-0.390,0.090
6.992,-0.375,0.090
6.994,-0.355,0.105
6.997,-0.355,0.120
7.000,-0.350,0.100
7.003,-0.345,0.100
7.006,-0.345,0.100
7.008,-0.350,0.105
7.011,-0.345,0.120
7.014,-0.340,0.120
7.017,-0.330,0.100
7.019,-0.325,0.100
7.022,-0.335,0.100
7.025,-0.340,0.090
7.028,-0.340,0.105
7.031,-0.320,0.110
7.033,-0.310,0.090
7.036,-0.325,0.060
7.039,-0.320,0.055
7.042,-0.335,0.055
7.044,-0.340,0.085
7.047,-0.320,0.085
7.050,-0.315,0.080
7.053,-0.275,0.055
7.056,-0.195,0.015
7.058,-0.050,-0.035
7.061,0.115,-0.085
7.064,0.315,-0.150
7.067,0.480,-0.225
7.069,0.670,-0.300
7.072,0.830,-0.345
7.075,0.955,-0.335
7.078,1.080,-0.255
7.081,1.165,-0.190
7.083,1.220,-0.175
7.086,1.200,-0.185
7.089,1.090,-0.180
7.092,0.930,-0.130
7.094,0.810,-0.095
7.097,0.720,-0.070
7.100,0.615,-0.040
7.103,0.440,-0.005
7.106,0.260,0.020
7.108,0.125,0.050
7.111,0.035,0.065
7.114,-0.030,0.085
7.117,-0.095,0.100
7.119,-0.195,0.100
7.122,-0.280,0.110
7.125,-0.330,0.120
7.128,-0.365,0.145
7.131,-0.385,0.175
7.133,-0.420,0.175
7.136,-0.465,0.175
7.139,-0.495,0.155
7.142,-0.515,0.160
7.144,-0.525,0.175
7.147,-0.530,0.175
7.150,-0.525,0.165
7.153,-0.530,0.160
7.156,-0.525,0.160
7.158,-0.540,0.155
7.161,-0.535,0.170
7.164,-0.525,0.180
7.167,-0.520,0.175
7.169,-0.520,0.170
7.172,-0.535,0.160
7.175,-0.515,0.160
7.178,-0.515,0.170
7.181,-0.500,0.175
7.183,-0.520,0.180
7.186,-0.520,0.165
7.189,-0.510,0.155
7.192,-0.525,0.155
7.194,-0.520,0.175
7.197,-0.495,0.190
7.200,-0.490,0.175
7.203,-0.520,0.160
7.206,-0.510,0.160
7.208,-0.515,0.155
7.211,-0.510,0.165
7.214,-0.505,0.180
7.217,-0.505,0.165
7.219,-0.510,0.170
7.222,-0.500,0.145
7.225,-0.515,0.155
7.228,-0.520,0.165
7.231,-0.515,0.165
7.233,-0.515,0.160
7.236,-0.525,0.155
7.239,-0.510,0.155
7.242,-0.520,0.165
7.244,-0.505,0.155
7.247,-0.500,0.180
7.250,-0.500,0.180
7.253,-0.510,0.175
7.256,-0.510,0.165
7.258,-0.510,0.175
7.261,-0.510,0.175
7.264,-0.500,0.190
7.267,-0.500,0.180
7.269,-0.500,0.165
7.272,-0.500,0.165
7.275,-0.495,0.170
7.278,-0.485,0.185
7.281,-0.455,0.200
7.283,-0.460,0.195
7.286,-0.440,0.185
7.289,-0.460,0.180
7.292,-0.455,0.170
7.294,-0.435,0.190
7.297,-0.405,0.190
7.300,-0.400,0.185
7.303,-0.395,0.185
7.306,-0.400,0.180
7.308,-0.400,0.180
7.311,-0.370,0.185
7.314,-0.345,0.195
7.317,-0.325,0.180
7.319,-0.315,0.175
7.322,-0.305,0.165
7.325,-0.290,0.165
7.328,-0.270,0.180
7.331,-0.245,0.185
7.333,-0.225,0.165
7.336,-0.225,0.165
7.339,-0.205,0.145
7.342,-0.220,0.125
7.344,-0.195,0.145
7.347,-0.185,0.170
7.350,-0.175,0.160
7.353,-0.180,0.155
7.356,-0.190,0.130
7.358,-0.195,0.130
7.361,-0.185,0.130
7.364,-0.190,0.145
7.367,-0.200,0.145
7.369,-0.195,0.140
7.372,-0.220,0.125
7.375,-0.240,0.120
7.378,-0.240,0.140
7.381,-0.240,0.140
7.383,-0.230,0.135
7.386,-0.235,0.135
7.389,-0.240,0.135
7.392,-0.265,0.130
7.394,-0.265,0.135
7.397,-0.255,0.150
7.400,-0.255,0.140
7.403,-0.260,0.130
7.406,-0.265,0.125
7.408,-0.270,0.125
7.411,-0.280,0.130
7.414,-0.265,0.140
7.417,-0.250,0.140
7.419,-0.270,0.140
7.422,-0.280,0.115
7.425,-0.290,0.120
7.428,-0.280,0.125
7.431,-0.275,0.145
7.433,-0.280,0.140
7.436,-0.275,0.120
7.439,-0.280,0.125
7.442,-0.290,0.120
7.444,-0.295,0.125
7.447,-0.290,0.135
7.450,-0.300,0.120
7.453,-0.280,0.120
7.456,-0.300,0.105
7.458,-0.295,0.115
7.461,-0.295,0.120
7.464,-0.280,0.140
7.467,-0.280,0.115
7.469,-0.280,0.110
7.472,-0.290,0.090
7.475,-0.300,0.090
7.478,-0.275,0.115
7.481,-0.270,0.110
7.483,-0.275,0.105
7.486,-0.285,0.105
7.489,-0.285,0.090
7.492,-0.290,0.080
7.494,-0.275,0.100
7.497,-0.280,0.090
7.500,-0.265,0.100
7.503,-0.270,0.085
7.506,-0.290,0.075
7.508,-0.300,0.095
7.511,-0.275,0.090
7.514,-0.285,0.095
7.517,-0.270,0.085
7.519,-0.275,0.095
7.522,-0.280,0.080
7.525,-0.285,0.075
7.528,-0.280,0.090
7.531,-0.265,0.110
7.533,-0.270,0.100
7.536,-0.260,0.085
7.539,-0.275,0.075
7.542,-0.280,0.075
7.544,-0.275,0.095
7.547,-0.255,0.095
7.550,-0.245,0.080
7.553,-0.245,0.080
7.556,-0.265,0.080
7.558,-0.285,0.075
7.561,-0.275,0.090
7.564,-0.275,0.090
7.567,-0.255,0.085
7.569,-0.255,0.090
7.572,-0.255,0.075
7.575,-0.270,0.080
7.578,-0.265,0.090
7.581,-0.255,0.085
7.583,-0.235,0.090
7.586,-0.230,0.105
7.589,-0.235,0.105
7.592,-0.250,0.120
7.594,-0.235,0.145
7.597,-0.205,0.165
7.600,-0.175,0.165
7.603,-0.155,0.160
7.606,-0.160,0.150
7.608,-0.160,0.145
7.611,-0.160,0.155
7.614,-0.155,0.155
7.617,-0.150,0.140
7.619,-0.140,0.120
7.622,-0.115,0.100
7.625,-0.105,0.090
7.628,-0.080,0.105
7.631,-0.070,0.110
7.633,-0.055,0.105
7.636,-0.045,0.085
7.639,-0.045,0.070
7.642,-0.055,0.065
7.644,-0.050,0.075
7.647,-0.065,0.090
7.650,-0.070,0.095
7.653,-0.070,0.090
7.656,-0.080,0.075
7.658,-0.100,0.060
7.661,-0.120,0.055
7.664,-0.160,0.060
7.667,-0.195,0.060
7.669,-0.250,0.045
7.672,-0.290,0.040
7.675,-0.315,0.035
7.678,-0.315,0.045
7.681,-0.320,0.055
7.683,-0.295,0.045
7.686,-0.310,0.040
7.689,-0.320,0.025
7.692,-0.315,0.025
7.694,-0.315,0.030
7.697,-0.295,0.055
7.700,-0.275,0.055
7.703,-0.280,0.040
7.706,-0.290,0.035
7.708,-0.315,0.035
7.711,-0.295,0.050
7.714,-0.290,0.050
7.717,-0.290,0.050
7.719,-0.275,0.050
7.722,-0.290,0.035
7.725,-0.300,0.035
7.728,-0.290,0.045
7.731,-0.275,0.045
7.733,-0.265,0.020
7.736,-0.255,0.000
7.739,-0.265,-0.010
7.742,-0.290,0.000
7.744,-0.295,0.005
7.747,-0.285,0.010
7.750,-0.255,-0.005
7.753,-0.220,-0.045
7.756,-0.155,-0.095
7.758,-0.075,-0.140
7.761,0.060,-0.205
7.764,0.210,-0.270
7.767,0.380,-0.360
7.769,0.555,-0.430
7.772,0.745,-0.455
7.775,0.915,-0.430
7.778,1.065,-0.370
7.781,1.165,-0.315
7.783,1.250,-0.295
7.786,1.220,-0.285
7.789,1.095,-0.255
7.792,0.930,-0.190
7.794,0.795,-0.150
7.797,0.680,-0.115
7.800,0.570,-0.065
7.803,0.410,-0.045
7.806,0.275,-0.045
7.808,0.195,-0.025
7.811,0.130,-0.005
7.814,0.035,0.030
7.817,-0.055,0.050
7.819,-0.130,0.060
7.822,-0.195,0.070
7.825,-0.255,0.075
7.828,-0.310,0.110
7.831,-0.345,0.135
7.833,-0.370,0.130
7.836,-0.405,0.120
7.839,-0.425,0.105
7.842,-0.440,0.110
7.844,-0.450,0.110
7.847,-0.450,0.115
7.850,-0.450,0.105
7.853,-0.465,0.100
7.856,-0.460,0.100
7.858,-0.480,0.110
7.861,-0.460,0.120
7.864,-0.445,0.125
7.867,-0.430,0.120
7.869,-0.435,0.115
7.872,-0.450,0.105
7.875,-0.465,0.085
7.878,-0.460,0.115
7.881,-0.450,0.140
7.883,-0.445,0.125
7.886,-0.430,0.125
7.889,-0.440,0.105
7.892,-0.440,0.105
7.894,-0.455,0.120
7.897,-0.430,0.130
7.900,-0.440,0.130
7.903,-0.435,0.125
7.906,-0.435,0.120
7.908,-0.445,0.115
7.911,-0.445,0.135
7.914,-0.435,0.130
7.917,-0.435,0.135
7.919,-0.435,0.115
7.922,-0.445,0.110
7.925,-0.440,0.125
7.928,-0.435,0.140
7.931,-0.430,0.145
7.933,-0.430,0.150
7.936,-0.440,0.135
7.939,-0.440,0.125
7.942,-0.435,0.125
7.944,-0.435,0.135
7.947,-0.430,0.165
7.950,-0.420,0.155
7.953,-0.430,0.150
7.956,-0.440,0.135
7.958,-0.440,0.145
7.961,-0.445,0.155
7.964,-0.435,0.165
7.967,-0.410,0.145
7.969,-0.415,0.155
7.972,-0.415,0.145
7.975,-0.430,0.155
7.978,-0.415,0.160
7.981,-0.405,0.170
7.983,-0.390,0.185
7.986,-0.380,0.175
7.989,-0.385,0.155
7.992,-0.395,0.165
7.994,-0.385,0.185
7.997,-0.360,0.180
8.000,-0.330,0.185
8.003,-0.320,0.175
8.006,-0.310,0.175
8.008,-0.310,0.155
8.011,-0.310,0.160
8.014,-0.280,0.180
8.017,-0.245,0.175
8.019,-0.225,0.175
8.022,-0.210,0.160
8.025,-0.205,0.155
8.028,-0.195,0.155
8.031,-0.165,0.155
8.033,-0.150,0.165
8.036,-0.140,0.155
8.039,-0.135,0.150
8.042,-0.115,0.145
8.044,-0.110,0.145
8.047,-0.095,0.155
8.050,-0.095,0.150
8.053,-0.105,0.135
8.056,-0.110,0.120
8.058,-0.115,0.120
8.061,-0.105,0.130
8.064,-0.110,0.135
8.067,-0.110,0.115
8.069,-0.125,0.110
8.072,-0.140,0.110
8.075,-0.150,0.105
8.078,-0.155,0.115
8.081,-0.150,0.115
8.083,-0.155,0.115
8.086,-0.170,0.100
8.089,-0.175,0.095
8.092,-0.190,0.100
8.094,-0.180,0.105
8.097,-0.170,0.110
8.100,-0.175,0.105
8.103,-0.175,0.095
8.106,-0.190,0.095
8.108,-0.210,0.100
8.111,-0.200,0.110
8.114,-0.200,0.125
8.117,-0.195,0.115
8.119,-0.200,0.100
8.122,-0.215,0.090
8.125,-0.220,0.100
8.128,-0.225,0.100
8.131,-0.215,0.120
8.133,-0.195,0.115
8.136,-0.220,0.105
8.139,-0.205,0.095
8.142,-0.230,0.085
8.144,-0.230,0.100
8.147,-0.220,0.100
8.150,-0.215,0.105
8.153,-0.215,0.100
8.156,-0.230,0.080
8.158,-0.250,0.075
8.161,-0.240,0.080
8.164,-0.230,0.095
8.167,-0.220,0.085
8.169,-0.215,0.075
8.172,-0.230,0.075
8.175,-0.230,0.070
8.178,-0.220,0.080
8.181,-0.225,0.085
8.183,-0.230,0.085
8.186,-0.230,0.065
8.189,-0.220,0.065
8.192,-0.230,0.060
8.194,-0.230,0.070
8.197,-0.225,0.085
8.200,-0.215,0.075
8.203,-0.220,0.070
8.206,-0.220,0.055
8.208,-0.225,0.045
8.211,-0.225,0.075
8.214,-0.210,0.070
8.217,-0.215,0.075
8.219,-0.210,0.070
8.222,-0.215,0.065
8.225,-0.215,0.045
8.228,-0.215,0.050
8.231,-0.210,0.070
8.233,-0.200,0.070
8.236,-0.215,0.065
8.239,-0.225,0.055
8.242,-0.230,0.055
8.244,-0.215,0.065
8.247,-0.200,0.065
8.250,-0.205,0.070
8.253,-0.205,0.060
8.256,-0.200,0.050
8.258,-0.215,0.065
8.261,-0.195,0.075
8.264,-0.190,0.075
8.267,-0.175,0.070
8.269,-0.190,0.065
8.272,-0.210,0.055
8.275,-0.220,0.050
8.278,-0.215,0.075
8.281,-0.195,0.100
8.283,-0.190,0.110
8.286,-0.185,0.115
8.289,-0.175,0.145
8.292,-0.150,0.155
8.294,-0.115,0.145
8.297,-0.095,0.150
8.300,-0.090,0.160
8.303,-0.110,0.150
8.306,-0.120,0.150
8.308,-0.130,0.130
8.311,-0.110,0.130
8.314,-0.070,0.125
8.317,-0.050,0.110
8.319,-0.040,0.090
8.322,-0.035,0.090
8.325,-0.050,0.080
8.328,-0.040,0.085
8.331,-0.005,0.080
8.333,0.010,0.070
8.336,0.000,0.070
8.339,-0.020,0.065
8.342,-0.045,0.065
8.344,-0.045,0.075
8.347,-0.040,0.070
8.350,-0.055,0.065
8.353,-0.090,0.045
8.356,-0.160,0.035
8.358,-0.220,0.040
8.361,-0.270,0.050
8.364,-0.260,0.060
8.367,-0.265,0.045
8.369,-0.265,0.040
8.372,-0.275,0.035
8.375,-0.290,0.035
8.378,-0.280,0.045
8.381,-0.285,0.045
8.383,-0.270,0.045
8.386,-0.255,0.030
8.389,-0.265,0.035
8.392,-0.265,0.030
8.394,-0.260,0.040
8.397,-0.260,0.045
8.400,-0.260,0.040
8.403,-0.260,0.035
8.406,-0.265,0.030
8.408,-0.265,0.030
8.411,-0.245,0.035
8.414,-0.235,0.040
8.417,-0.230,0.040
8.419,-0.220,0.030
8.422,-0.225,0.030
8.425,-0.245,0.015
8.428,-0.225,0.000
8.431,-0.215,0.015
8.433,-0.205,0.005
8.436,-0.205,0.005
8.439,-0.230,-0.010
8.442,-0.245,-0.030
8.444,-0.225,-0.050
8.447,-0.190,-0.075
8.450,-0.105,-0.150
8.453,0.025,-0.215
8.456,0.200,-0.320
8.458,0.390,-0.410
8.461,0.615,-0.460
8.464,0.830,-0.475
8.467,1.005,-0.455
8.469,1.130,-0.410
8.472,1.210,-0.370
8.475,1.270,-0.345
8.478,1.320,-0.310
8.481,1.275,-0.275
8.483,1.145,-0.230
8.486,0.970,-0.200
8.489,0.840,-0.160
8.492,0.715,-0.120
8.494,0.550,-0.080
8.497,0.410,-0.025
8.500,0.310,-0.005
8.503,0.235,0.010
8.506,0.155,0.010
8.508,0.040,0.040
8.511,-0.060,0.060
8.514,-0.140,0.080
8.517,-0.185,0.085
8.519,-0.240,0.100
8.522,-0.290,0.120
8.525,-0.350,0.130
8.528,-0.370,0.140
8.531,-0.370,0.135
8.533,-0.385,0.115
8.536,-0.405,0.120
8.539,-0.430,0.115
8.542,-0.435,0.105
8.544,-0.430,0.130
8.547,-0.430,0.140
8.550,-0.430,0.125
8.553,-0.420,0.125
8.556,-0.435,0.125
8.558,-0.435,0.125
8.561,-0.430,0.145
8.564,-0.420,0.155
8.567,-0.395,0.160
8.569,-0.405,0.145
8.572,-0.405,0.155
8.575,-0.420,0.145
8.578,-0.415,0.150
8.581,-0.390,0.155
8.583,-0.380,0.145
8.586,-0.395,0.145
8.589,-0.410,0.140
8.592,-0.420,0.140
8.594,-0.415,0.145
8.597,-0.405,0.155
8.600,-0.385,0.160
8.603,-0.390,0.145
8.606,-0.415,0.140
8.608,-0.420,0.135
8.611,-0.415,0.150
8.614,-0.395,0.160
8.617,-0.390,0.160
8.619,-0.390,0.155
8.622,-0.400,0.150
8.625,-0.440,0.150
8.628,-0.445,0.165
8.631,-0.420,0.180
8.633,-0.405,0.155
8.636,-0.415,0.140
8.639,-0.410,0.155
8.642,-0.425,0.160
8.644,-0.425,0.175
8.647,-0.420,0.175
8.650,-0.405,0.175
8.653,-0.420,0.185
8.656,-0.430,0.165
8.658,-0.430,0.170
8.661,-0.430,0.170
8.664,-0.420,0.185
8.667,-0.405,0.190
8.669,-0.400,0.190
8.672,-0.410,0.170
8.675,-0.405,0.165
8.678,-0.390,0.165
8.681,-0.380,0.200
8.683,-0.365,0.190
8.686,-0.345,0.195
8.689,-0.335,0.195
8.692,-0.330,0.180
8.694,-0.315,0.180
8.697,-0.305,0.190
8.700,-0.280,0.200
8.703,-0.275,0.190
8.706,-0.270,0.185
8.708,-0.270,0.190
8.711,-0.250,0.195
8.714,-0.225,0.200
8.717,-0.205,0.195
8.719,-0.195,0.180
8.722,-0.180,0.175
8.725,-0.185,0.170
8.728,-0.160,0.170
8.731,-0.135,0.185
8.733,-0.110,0.175
8.736,-0.100,0.170
8.739,-0.100,0.155
8.742,-0.105,0.135
8.744,-0.110,0.145
8.747,-0.100,0.145
8.750,-0.080,0.145
8.753,-0.095,0.140
8.756,-0.095,0.140
8.758,-0.125,0.140
8.761,-0.115,0.135
8.764,-0.110,0.150
8.767,-0.115,0.135
8.769,-0.115,0.120
8.772,-0.125,0.115
8.775,-0.155,0.115
8.778,-0.150,0.135
8.781,-0.135,0.150
8.783,-0.145,0.135
8.786,-0.145,0.135
8.789,-0.150,0.120
8.792,-0.165,0.120
8.794,-0.175,0.140
8.797,-0.170,0.150
8.800,-0.180,0.145
8.803,-0.185,0.135
8.806,-0.200,0.125
8.808,-0.200,0.125
8.811,-0.195,0.135
8.814,-0.190,0.135
8.817,-0.200,0.130
8.819,-0.190,0.130
8.822,-0.200,0.135
8.825,-0.205,0.135
8.828,-0.205,0.140
8.831,-0.205,0.145
8.833,-0.195,0.125
8.836,-0.200,0.135
8.839,-0.215,0.115
8.842,-0.225,0.120
8.844,-0.225,0.130
8.847,-0.220,0.125
8.850,-0.225,0.130
8.853,-0.235,0.120
8.856,-0.235,0.110
8.858,-0.230,0.115
8.861,-0.215,0.115
8.864,-0.215,0.120
8.867,-0.210,0.125
8.869,-0.210,0.120
8.872,-0.215,0.110
8.875,-0.225,0.110
8.878,-0.210,0.115
8.881,-0.205,0.110
8.883,-0.200,0.090
8.886,-0.215,0.095
8.889,-0.225,0.090
8.892,-0.235,0.090
8.894,-0.230,0.095
8.897,-0.215,0.110
8.900,-0.195,0.090
8.903,-0.195,0.095
8.906,-0.205,0.095
8.908,-0.230,0.090
8.911,-0.225,0.110
8.914,-0.215,0.120
8.917,-0.205,0.100
8.919,-0.210,0.105
8.922,-0.225,0.080
8.925,-0.230,0.080
8.928,-0.215,0.095
8.931,-0.220,0.110
8.933,-0.225,0.100
8.936,-0.230,0.095
8.939,-0.225,0.090
8.942,-0.220,0.080
8.944,-0.220,0.090
8.947,-0.205,0.095
8.950,-0.205,0.110
8.953,-0.210,0.100
8.956,-0.215,0.090
8.958,-0.225,0.100
8.961,-0.220,0.110
8.964,-0.220,0.120
8.967,-0.220,0.110
8.969,-0.215,0.100
8.972,-0.220,0.095
8.975,-0.230,0.095
8.978,-0.215,0.115
8.981,-0.200,0.130
8.983,-0.205,0.130
8.986,-0.205,0.130
8.989,-0.215,0.155
8.992,-0.205,0.170
8.994,-0.180,0.190
8.997,-0.145,0.195
9.000,-0.120,0.190
9.003,-0.120,0.185
9.006,-0.135,0.165
9.008,-0.145,0.145
9.011,-0.125,0.150
9.014,-0.095,0.150
9.017,-0.065,0.130
9.019,-0.045,0.135
9.022,-0.050,0.125
9.025,-0.050,0.125
9.028,-0.035,0.115
9.031,-0.020,0.115
9.033,0.000,0.095
9.036,-0.010,0.080
9.039,-0.035,0.090
9.042,-0.050,0.100
9.044,-0.065,0.105
9.047,-0.050,0.115
9.050,-0.060,0.090
9.053,-0.090,0.075
9.056,-0.130,0.070
9.058,-0.190,0.060
9.061,-0.235,0.095
9.064,-0.260,0.090
9.067,-0.280,0.085
9.069,-0.285,0.070
9.072,-0.300,0.055
9.075,-0.300,0.055
9.078,-0.295,0.075
9.081,-0.295,0.070
9.083,-0.270,0.080
9.086,-0.265,0.075
9.089,-0.270,0.070
9.092,-0.290,0.065
9.094,-0.290,0.070
9.097,-0.285,0.075
9.100,-0.275,0.065
9.103,-0.270,0.070
9.106,-0.270,0.060
9.108,-0.285,0.065
9.111,-0.275,0.070
9.114,-0.255,0.065
9.117,-0.250,0.060
9.119,-0.245,0.050
9.122,-0.255,0.050
9.125,-0.270,0.040
9.128,-0.260,0.045
9.131,-0.255,0.055
9.133,-0.255,0.040
9.136,-0.250,0.035
9.139,-0.270,0.030
9.142,-0.280,0.015
9.144,-0.240,0.005
9.147,-0.170,-0.035
9.150,-0.030,-0.115
9.153,0.130,-0.200
9.156,0.305,-0.315
9.158,0.500,-0.395
9.161,0.725,-0.415
9.164,0.940,-0.380
9.167,1.100,-0.305
9.169,1.215,-0.260
9.172,1.260,-0.245
9.175,1.200,-0.230
9.178,1.065,-0.165
9.181,0.930,-0.135
9.183,0.800,-0.110
9.186,0.660,-0.090
9.189,0.495,-0.050
9.192,0.340,-0.005
9.194,0.235,0.030
9.197,0.195,0.065
9.200,0.170,0.070
9.203,0.085,0.080
9.206,-0.025,0.090
9.208,-0.130,0.115
9.211,-0.195,0.130
9.214,-0.250,0.160
9.217,-0.305,0.175
9.219,-0.355,0.165
9.222,-0.395,0.160
9.225,-0.420,0.160
9.228,-0.420,0.165
9.231,-0.425,0.160
9.233,-0.440,0.180
9.236,-0.440,0.175
9.239,-0.460,0.165
9.242,-0.455,0.160
9.244,-0.460,0.160
9.247,-0.450,0.175
9.250,-0.435,0.165
9.253,-0.440,0.165
9.256,-0.450,0.160
9.258,-0.450,0.165
9.261,-0.440,0.175
9.264,-0.425,0.185
9.267,-0.410,0.180
9.269,-0.420,0.170
9.272,-0.435,0.165
9.275,-0.440,0.165
9.278,-0.430,0.175
9.281,-0.425,0.195
9.283,-0.415,0.190
9.286,-0.425,0.180
9.289,-0.425,0.185
9.292,-0.425,0.175
9.294,-0.420,0.190
9.297,-0.410,0.190
9.300,-0.405,0.190
9.303,-0.415,0.175
9.306,-0.420,0.175
9.308,-0.425,0.170
9.311,-0.435,0.185
9.314,-0.430,0.195
9.317,-0.425,0.185
9.319,-0.410,0.175
9.322,-0.425,0.170
9.325,-0.425,0.185
9.328,-0.425,0.200
9.331,-0.425,0.210
9.333,-0.430,0.195
9.336,-0.440,0.185
9.339,-0.440,0.170
9.342,-0.430,0.175
9.344,-0.425,0.195
9.347,-0.420,0.215
9.350,-0.405,0.210
9.353,-0.410,0.200
9.356,-0.425,0.195
9.358,-0.410,0.200
9.361,-0.415,0.205
9.364,-0.405,0.210
9.367,-0.410,0.215
9.369,-0.395,0.205
9.372,-0.400,0.200
9.375,-0.405,0.210
9.378,-0.385,0.225
9.381,-0.365,0.220
9.383,-0.345,0.215
9.386,-0.330,0.210
9.389,-0.325,0.195
9.392,-0.320,0.200
9.394,-0.310,0.220
9.397,-0.290,0.220
9.400,-0.280,0.225
9.403,-0.265,0.210
9.406,-0.260,0.215
9.408,-0.270,0.200
9.411,-0.245,0.215
9.414,-0.220,0.220
9.417,-0.190,0.215
9.419,-0.170,0.215
9.422,-0.160,0.195
9.425,-0.170,0.190
9.428,-0.155,0.210
9.431,-0.140,0.210
9.433,-0.125,0.200
9.436,-0.130,0.195
9.439,-0.125,0.195
9.442,-0.125,0.180
9.444,-0.110,0.190
9.447,-0.105,0.195
9.450,-0.110,0.190
9.453,-0.110,0.180
9.456,-0.120,0.175
9.458,-0.125,0.165
9.461,-0.140,0.185
9.464,-0.135,0.180
9.467,-0.130,0.175
9.469,-0.150,0.160
9.472,-0.155,0.160
9.475,-0.180,0.155
9.478,-0.185,0.170
9.481,-0.180,0.180
9.483,-0.165,0.160
9.486,-0.175,0.160
9.489,-0.200,0.155
9.492,-0.200,0.165
9.494,-0.200,0.175
9.497,-0.210,0.180
9.500,-0.190,0.170
9.503,-0.210,0.170
9.506,-0.210,0.150
9.508,-0.210,0.145
9.511,-0.220,0.165
9.514,-0.210,0.180
9.517,-0.210,0.170
9.519,-0.225,0.170
9.522,-0.220,0.165
9.525,-0.235,0.150
9.528,-0.225,0.155
9.531,-0.215,0.170
9.533,-0.220,0.140
9.536,-0.235,0.135
9.539,-0.245,0.145
9.542,-0.260,0.145
9.544,-0.250,0.140
9.547,-0.245,0.170
9.550,-0.255,0.140
9.553,-0.255,0.135
9.556,-0.255,0.130
9.558,-0.255,0.135
9.561,-0.250,0.145
9.564,-0.250,0.150
9.567,-0.240,0.140
9.569,-0.245,0.120
9.572,-0.245,0.115
9.575,-0.245,0.130
9.578,-0.250,0.130
9.581,-0.245,0.130
9.583,-0.235,0.120
9.586,-0.235,0.120
9.589,-0.245,0.115
9.592,-0.245,0.115
9.594,-0.245,0.130
9.597,-0.245,0.145
9.600,-0.240,0.125
9.603,-0.265,0.115
9.606,-0.250,0.105
9.608,-0.265,0.115
9.611,-0.245,0.120
9.614,-0.230,0.130
9.617,-0.230,0.120
9.619,-0.240,0.115
9.622,-0.250,0.120
9.625,-0.265,0.100
9.628,-0.255,0.115
9.631,-0.245,0.120
9.633,-0.230,0.120
9.636,-0.235,0.125
9.639,-0.235,0.105
9.642,-0.250,0.095
9.644,-0.245,0.110
9.647,-0.235,0.125
9.650,-0.240,0.110
9.653,-0.240,0.110
9.656,-0.255,0.095
9.658,-0.270,0.090
9.661,-0.250,0.110
9.664,-0.245,0.120
9.667,-0.250,0.110
9.669,-0.240,0.105
9.672,-0.260,0.105
9.675,-0.260,0.110
9.678,-0.265,0.115
9.681,-0.245,0.125
9.683,-0.240,0.110
9.686,-0.245,0.120
9.689,-0.240,0.115
9.692,-0.240,0.110
9.694,-0.240,0.150
9.697,-0.220,0.175
9.700,-0.210,0.185
9.703,-0.190,0.200
9.706,-0.170,0.200
9.708,-0.180,0.180
9.711,-0.165,0.195
9.714,-0.150,0.195
9.717,-0.150,0.190
9.719,-0.175,0.185
9.722,-0.175,0.180
9.725,-0.165,0.160
9.728,-0.125,0.170
9.731,-0.095,0.155
9.733,-0.070,0.160
9.736,-0.065,0.155
9.739,-0.075,0.135
9.742,-0.070,0.135
9.744,-0.060,0.130
9.747,-0.030,0.135
9.750,-0.025,0.135
9.753,-0.035,0.120
9.756,-0.055,0.125
9.758,-0.075,0.110
9.761,-0.065,0.125
9.764,-0.070,0.120
9.767,-0.095,0.095
9.769,-0.115,0.085
9.772,-0.160,0.080
9.775,-0.220,0.085
9.778,-0.255,0.090
9.781,-0.280,0.100
9.783,-0.280,0.090
9.786,-0.290,0.085
9.789,-0.310,0.070
9.792,-0.320,0.085
9.794,-0.310,0.080
9.797,-0.295,0.095
9.800,-0.295,0.090
9.803,-0.295,0.070
9.806,-0.305,0.070
9.808,-0.305,0.055
9.811,-0.295,0.070
9.814,-0.280,0.085
9.817,-0.275,0.080
9.819,-0.280,0.075
9.822,-0.290,0.070
9.825,-0.305,0.070
9.828,-0.285,0.075
9.831,-0.275,0.080
9.833,-0.275,0.085
9.836,-0.265,0.070
9.839,-0.255,0.060
9.842,-0.265,0.055
9.844,-0.265,0.060
9.847,-0.260,0.065
9.850,-0.245,0.045
9.853,-0.245,0.040
9.856,-0.260,0.030
9.858,-0.270,0.040
9.861,-0.265,0.060
9.864,-0.230,0.055
9.867,-0.170,0.020
9.869,-0.070,-0.020
9.872,0.070,-0.070
9.875,0.230,-0.125
9.878,0.410,-0.195
9.881,0.580,-0.255
9.883,0.750,-0.335
9.886,0.880,-0.365
9.889,1.005,-0.345
9.892,1.105,-0.280
9.894,1.190,-0.215
9.897,1.245,-0.195
9.900,1.200,-0.195
9.903,1.065,-0.180
9.906,0.905,-0.155
9.908,0.760,-0.120
9.911,0.660,-0.075
9.914,0.530,-0.030
9.917,0.375,0.000
9.919,0.235,0.005
9.922,0.135,0.015
9.925,0.075,0.030
9.928,0.000,0.055
9.931,-0.085,0.080
9.933,-0.155,0.095
9.936,-0.220,0.085
9.939,-0.260,0.090
9.942,-0.300,0.110
9.944,-0.330,0.130
9.947,-0.355,0.160
9.950,-0.390,0.155
9.953,-0.410,0.140
9.956,-0.445,0.140
9.958,-0.450,0.130
9.961,-0.450,0.145
9.964,-0.445,0.150
9.967,-0.460,0.150
9.969,-0.455,0.145
9.972,-0.465,0.125
9.975,-0.470,0.125
9.978,-0.445,0.150
9.981,-0.435,0.155
9.983,-0.435,0.150
9.986,-0.430,0.150
9.989,-0.445,0.135
9.992,-0.435,0.135
9.994,-0.435,0.135
9.997,-0.415,0.145
10.000,-0.400,0.150
10.003,-0.405,0.135
10.006,-0.420,0.135
10.008,-0.435,0.145
10.011,-0.425,0.140
10.014,-0.420,0.145
10.017,-0.430,0.140
10.019,-0.435,0.145
10.022,-0.450,0.135
10.025,-0.450,0.145
10.028,-0.435,0.145
10.031,-0.425,0.165
10.033,-0.415,0.165
10.036,-0.425,0.155
10.039,-0.445,0.125
10.042,-0.460,0.130
10.044,-0.455,0.150
10.047,-0.430,0.155
10.050,-0.430,0.160
10.053,-0.430,0.155
10.056,-0.435,0.145
10.058,-0.445,0.155
10.061,-0.440,0.160
10.064,-0.425,0.180
10.067,-0.425,0.165
10.069,-0.440,0.170
10.072,-0.435,0.160
10.075,-0.455,0.165
10.078,-0.445,0.170
10.081,-0.435,0.195
10.083,-0.430,0.195
10.086,-0.430,0.185
10.089,-0.420,0.165
10.092,-0.430,0.160
10.094,-0.425,0.175
10.097,-0.425,0.195
10.100,-0.410,0.185
10.103,-0.405,0.175
10.106,-0.400,0.175
10.108,-0.395,0.170
10.111,-0.385,0.175
10.114,-0.355,0.185
10.117,-0.360,0.185
10.119,-0.340,0.180
10.122,-0.340,0.170
10.125,-0.340,0.165
10.128,-0.330,0.175
10.131,-0.310,0.190
10.133,-0.300,0.175
10.136,-0.290,0.170
10.139,-0.285,0.160
10.142,-0.280,0.170
10.144,-0.250,0.185
10.147,-0.235,0.190
10.150,-0.200,0.195
10.153,-0.190,0.175
10.156,-0.190,0.170
10.158,-0.185,0.165
10.161,-0.165,0.160
10.164,-0.155,0.160
10.167,-0.130,0.160
10.169,-0.120,0.155
10.172,-0.125,0.150
10.175,-0.125,0.155
10.178,-0.115,0.150
10.181,-0.115,0.160
10.183,-0.110,0.145
10.186,-0.105,0.140
10.189,-0.115,0.130
10.192,-0.125,0.130
10.194,-0.140,0.135
10.197,-0.135,0.145
10.200,-0.135,0.140
10.203,-0.160,0.125
10.206,-0.175,0.115
10.208,-0.175,0.110
10.211,-0.165,0.130
10.214,-0.170,0.125
10.217,-0.180,0.125
10.219,-0.175,0.125
10.222,-0.195,0.130
10.225,-0.210,0.115
10.228,-0.200,0.125
10.231,-0.195,0.125
10.233,-0.195,0.125
10.236,-0.205,0.125
10.239,-0.210,0.110
10.242,-0.230,0.110
10.244,-0.225,0.120
10.247,-0.220,0.135
10.250,-0.210,0.125
10.253,-0.220,0.120
10.256,-0.230,0.115
10.258,-0.255,0.110
10.261,-0.230,0.115
10.264,-0.230,0.130
10.267,-0.220,0.115
10.269,-0.225,0.130
10.272,-0.230,0.110
10.275,-0.245,0.100
10.278,-0.245,0.105
10.281,-0.245,0.115
10.283,-0.235,0.120
10.286,-0.240,0.105
10.289,-0.240,0.095
10.292,-0.235,0.085
10.294,-0.245,0.105
10.297,-0.230,0.115
10.300,-0.225,0.120
10.303,-0.225,0.095
10.306,-0.240,0.085
10.308,-0.250,0.080
10.311,-0.230,0.085
10.314,-0.230,0.095
10.317,-0.215,0.095
10.319,-0.240,0.080
10.322,-0.245,0.080
10.325,-0.245,0.085
10.328,-0.225,0.080
10.331,-0.225,0.090
10.333,-0.225,0.075
10.336,-0.225,0.075
10.339,-0.235,0.070
10.342,-0.240,0.075
10.344,-0.230,0.085
10.347,-0.230,0.095
10.350,-0.220,0.090
10.353,-0.225,0.075
10.356,-0.230,0.060
10.358,-0.255,0.065
10.361,-0.240,0.080
10.364,-0.240,0.080
10.367,-0.235,0.085
10.369,-0.235,0.085
10.372,-0.245,0.065
10.375,-0.260,0.070
10.378,-0.240,0.070
10.381,-0.225,0.080
10.383,-0.225,0.075
10.386,-0.230,0.065
10.389,-0.260,0.070
10.392,-0.235,0.065
10.394,-0.240,0.075
10.397,-0.235,0.080
10.400,-0.240,0.075
10.403,-0.240,0.075
10.406,-0.225,0.050
10.408,-0.230,0.065
10.411,-0.230,0.075
10.414,-0.215,0.080
10.417,-0.230,0.095
10.419,-0.230,0.075
10.422,-0.240,0.065
10.425,-0.250,0.060
10.428,-0.235,0.065
10.431,-0.235,0.080
10.433,-0.225,0.090
10.436,-0.225,0.090
10.439,-0.230,0.105
10.442,-0.230,0.130
10.444,-0.210,0.145
10.447,-0.215,0.175
10.450,-0.165,0.160
10.453,-0.160,0.165
10.456,-0.130,0.145
10.458,-0.140,0.145
10.461,-0.140,0.160
10.464,-0.160,0.165
10.467,-0.145,0.145
10.469,-0.130,0.120
10.472,-0.115,0.105
10.475,-0.115,0.095
10.478,-0.090,0.100
10.481,-0.075,0.110
10.483,-0.060,0.100
10.486,-0.060,0.095
10.489,-0.055,0.080
10.492,-0.055,0.065
10.494,-0.040,0.060
10.497,-0.025,0.075
10.500,-0.035,0.070
10.503,-0.055,0.065
10.506,-0.070,0.060
10.508,-0.090,0.060
10.511,-0.095,0.065
10.514,-0.100,0.060
10.517,-0.120,0.050
10.519,-0.160,0.040
10.522,-0.225,0.035
10.525,-0.285,0.025
10.528,-0.300,0.030
10.531,-0.300,0.045
10.533,-0.290,0.050
10.536,-0.290,0.030
10.539,-0.300,0.025
10.542,-0.315,0.025
10.544,-0.335,0.030
10.547,-0.320,0.020
10.550,-0.320,0.030
10.553,-0.305,0.015
10.556,-0.310,0.025
10.558,-0.325,0.015
10.561,-0.305,0.025
10.564,-0.300,0.040
10.567,-0.300,0.035
10.569,-0.305,0.035
10.572,-0.310,0.015
10.575,-0.320,0.010
10.578,-0.315,0.040
10.581,-0.300,0.045
10.583,-0.280,0.035
10.586,-0.280,0.030
10.589,-0.290,0.025
10.592,-0.295,0.030
10.594,-0.295,0.035
10.597,-0.285,0.030
10.600,-0.255,0.020
10.603,-0.270,0.000
10.606,-0.275,-0.020
10.608,-0.290,-0.025
10.611,-0.275,-0.025
10.614,-0.270,-0.020
10.617,-0.275,-0.030
10.619,-0.265,-0.075
10.622,-0.230,-0.130
10.625,-0.155,-0.180
10.628,-0.015,-0.230
10.631,0.150,-0.315
10.633,0.335,-0.395
10.636,0.520,-0.460
10.639,0.705,-0.495
10.642,0.875,-0.470
10.644,1.035,-0.400
10.647,1.145,-0.330
10.650,1.220,-0.300
10.653,1.235,-0.310
10.656,1.165,-0.315
10.658,1.035,-0.285
10.661,0.935,-0.225
10.664,0.865,-0.180
10.667,0.790,-0.160
10.669,0.690,-0.130
10.672,0.560,-0.100
10.675,0.395,-0.070
10.678,0.265,-0.040
10.681,0.195,0.000
10.683,0.145,0.010
10.686,0.060,0.010
10.689,-0.045,0.025
10.692,-0.125,0.035
10.694,-0.180,0.045
10.697,-0.230,0.090
10.700,-0.280,0.095
10.703,-0.330,0.110
10.706,-0.380,0.095
10.708,-0.420,0.095
10.711,-0.420,0.105
10.714,-0.435,0.120
10.717,-0.450,0.115
10.719,-0.465,0.100
10.722,-0.480,0.090
10.725,-0.485,0.090
10.728,-0.475,0.095
10.731,-0.460,0.115
10.733,-0.465,0.110
10.736,-0.475,0.105
10.739,-0.475,0.085
10.742,-0.480,0.090
10.744,-0.465,0.100
10.747,-0.445,0.110
10.750,-0.445,0.110
10.753,-0.445,0.110
10.756,-0.455,0.100
10.758,-0.465,0.100
10.761,-0.460,0.120
10.764,-0.445,0.125
10.767,-0.435,0.120
10.769,-0.455,0.110
10.772,-0.460,0.105
10.775,-0.470,0.110
10.778,-0.460,0.120
10.781,-0.445,0.145
10.783,-0.445,0.135
10.786,-0.435,0.130
10.789,-0.445,0.115
10.792,-0.455,0.115
10.794,-0.460,0.120
10.797,-0.445,0.130
10.800,-0.440,0.130
10.803,-0.445,0.120
10.806,-0.445,0.130
10.808,-0.455,0.125
10.811,-0.465,0.130
10.814,-0.460,0.135
10.817,-0.450,0.140
10.819,-0.450,0.140
10.822,-0.465,0.130
10.825,-0.470,0.140
10.828,-0.450,0.150
10.831,-0.460,0.160
10.833,-0.455,0.160
10.836,-0.460,0.150
10.839,-0.460,0.140
10.842,-0.465,0.150
10.844,-0.465,0.160
10.847,-0.445,0.165
10.850,-0.440,0.170
10.853,-0.440,0.160
10.856,-0.445,0.160
10.858,-0.445,0.155
10.861,-0.445,0.160
10.864,-0.425,0.175
10.867,-0.415,0.160
10.869,-0.410,0.160
10.872,-0.410,0.145
10.875,-0.415,0.160
10.878,-0.380,0.170
10.881,-0.360,0.185
10.883,-0.350,0.175
10.886,-0.330,0.160
10.889,-0.320,0.155
10.892,-0.320,0.160
10.894,-0.300,0.175
10.897,-0.275,0.195
10.900,-0.255,0.170
10.903,-0.245,0.160
10.906,-0.240,0.160
10.908,-0.235,0.150
10.911,-0.230,0.160
10.914,-0.215,0.170
10.917,-0.190,0.155
10.919,-0.175,0.145
10.922,-0.175,0.140
10.925,-0.160,0.135
10.928,-0.145,0.140
10.931,-0.130,0.135
10.933,-0.115,0.135
10.936,-0.120,0.120
10.939,-0.125,0.115
10.942,-0.140,0.120
10.944,-0.130,0.125
10.947,-0.135,0.125
10.950,-0.140,0.115
10.953,-0.140,0.100
10.956,-0.155,0.095
10.958,-0.170,0.100
10.961,-0.170,0.105
10.964,-0.165,0.110
10.967,-0.175,0.120
10.969,-0.185,0.110
10.972,-0.200,0.100
10.975,-0.205,0.090
10.978,-0.205,0.100
10.981,-0.205,0.110
10.983,-0.210,0.115
10.986,-0.220,0.095
10.989,-0.240,0.100
10.992,-0.255,0.110
10.994,-0.250,0.115
10.997,-0.240,0.120
11.000,-0.245,0.115
11.003,-0.245,0.095
11.006,-0.245,0.105
11.008,-0.265,0.105
11.011,-0.255,0.110
11.014,-0.250,0.120
11.017,-0.245,0.110
11.019,-0.250,0.110
11.022,-0.255,0.100
11.025,-0.275,0.110
11.028,-0.265,0.110
11.031,-0.270,0.125
11.033,-0.285,0.110
11.036,-0.265,0.100
11.039,-0.270,0.095
11.042,-0.280,0.095
11.044,-0.275,0.095
11.047,-0.275,0.115
11.050,-0.260,0.095
11.053,-0.270,0.095
11.056,-0.275,0.085
11.058,-0.290,0.085
11.061,-0.270,0.090
11.064,-0.275,0.100
11.067,-0.270,0.085
11.069,-0.275,0.075
11.072,-0.280,0.075
11.075,-0.280,0.060
11.078,-0.285,0.075
11.081,-0.270,0.080
11.083,-0.270,0.085
11.086,-0.265,0.075
11.089,-0.275,0.070
11.092,-0.295,0.070
11.094,-0.270,0.075
11.097,-0.260,0.080
11.100,-0.260,0.075
11.103,-0.265,0.070
11.106,-0.275,0.065
11.108,-0.295,0.070
11.111,-0.280,0.075
11.114,-0.260,0.085
11.117,-0.250,0.075
11.119,-0.265,0.060
11.122,-0.270,0.050
11.125,-0.285,0.055
11.128,-0.285,0.070
11.131,-0.275,0.085
11.133,-0.255,0.085
11.136,-0.265,0.070
11.139,-0.275,0.060
11.142,-0.285,0.065
11.144,-0.290,0.070
11.147,-0.280,0.080
11.150,-0.275,0.080
11.153,-0.270,0.070
11.156,-0.265,0.065
11.158,-0.280,0.065
11.161,-0.270,0.070
11.164,-0.260,0.080
11.167,-0.265,0.075
11.169,-0.260,0.065
11.172,-0.250,0.065
11.175,-0.260,0.070
11.178,-0.265,0.095
11.181,-0.255,0.110
11.183,-0.255,0.130
11.186,-0.235,0.135
11.189,-0.220,0.145
11.192,-0.210,0.160
11.194,-0.175,0.175
11.197,-0.150,0.180
11.200,-0.150,0.170
11.203,-0.170,0.160
11.206,-0.175,0.165
11.208,-0.205,0.155
11.211,-0.195,0.150
11.214,-0.170,0.145
11.217,-0.135,0.125
11.219,-0.115,0.115
11.222,-0.120,0.105
11.225,-0.100,0.115
11.228,-0.100,0.130
11.231,-0.080,0.130
11.233,-0.060,0.095
11.236,-0.060,0.085
11.239,-0.070,0.085
11.242,-0.090,0.085
11.244,-0.095,0.100
11.247,-0.090,0.100
11.250,-0.090,0.100
11.253,-0.105,0.080
11.256,-0.130,0.055
11.258,-0.165,0.045
11.261,-0.200,0.050
11.264,-0.240,0.060
11.267,-0.275,0.070
11.269,-0.315,0.060
11.272,-0.330,0.055
11.275,-0.340,0.050
11.278,-0.335,0.060
11.281,-0.325,0.050
11.283,-0.330,0.050
11.286,-0.325,0.040
11.289,-0.345,0.040
11.292,-0.355,0.025
11.294,-0.330,0.040
11.297,-0.325,0.055
11.300,-0.320,0.060
11.303,-0.325,0.030
11.306,-0.315,0.045
11.308,-0.335,0.030
11.311,-0.325,0.040
11.314,-0.315,0.065
11.317,-0.325,0.065
11.319,-0.320,0.040
11.322,-0.320,0.035
11.325,-0.320,0.045
11.328,-0.310,0.040
11.331,-0.295,0.055
11.333,-0.300,0.050
11.336,-0.300,0.030
11.339,-0.295,0.015
11.342,-0.315,0.020
11.344,-0.300,0.030
11.347,-0.285,0.035
11.350,-0.280,0.020
11.353,-0.290,0.005
11.356,-0.310,-0.010
11.358,-0.300,-0.040
11.361,-0.255,-0.070
11.364,-0.160,-0.105
11.367,-0.030,-0.170
11.369,0.115,-0.255
11.372,0.290,-0.345
11.375,0.470,-0.410
11.378,0.650,-0.460
11.381,0.810,-0.460
11.383,0.945,-0.445
11.386,1.030,-0.400
11.389,1.105,-0.345
11.392,1.170,-0.300
11.394,1.230,-0.275
11.397,1.160,-0.240
11.400,1.040,-0.210
11.403,0.900,-0.175
11.406,0.780,-0.155
11.408,0.645,-0.115
11.411,0.515,-0.050
11.414,0.375,-0.005
11.417,0.255,0.000
11.419,0.175,0.030
11.422,0.100,0.035
11.425,0.010,0.050
11.428,-0.080,0.065
11.431,-0.150,0.085
11.433,-0.215,0.095
11.436,-0.275,0.100
11.439,-0.330,0.110
11.442,-0.380,0.125
11.444,-0.420,0.150
11.447,-0.430,0.155
11.450,-0.440,0.140
11.453,-0.465,0.125
11.456,-0.485,0.120
11.458,-0.500,0.105
11.461,-0.525,0.125
11.464,-0.520,0.140
11.467,-0.510,0.140
11.469,-0.500,0.140
11.472,-0.515,0.130
11.475,-0.525,0.130
11.478,-0.525,0.125
11.481,-0.510,0.150
11.483,-0.500,0.140
11.486,-0.490,0.150
11.489,-0.495,0.135
11.492,-0.505,0.130
11.494,-0.500,0.160
11.497,-0.490,0.165
11.500,-0.480,0.150
11.503,-0.490,0.165
11.506,-0.500,0.140
11.508,-0.490,0.140
11.511,-0.490,0.170
11.514,-0.485,0.180
11.517,-0.480,0.160
11.519,-0.490,0.170
11.522,-0.480,0.160
11.525,-0.495,0.150
11.528,-0.495,0.155
11.531,-0.485,0.170
11.533,-0.480,0.175
11.536,-0.480,0.170
11.539,-0.480,0.165
11.542,-0.505,0.165
11.544,-0.510,0.185
11.547,-0.495,0.195
11.550,-0.485,0.180
11.553,-0.485,0.180
11.556,-0.495,0.160
11.558,-0.510,0.170
11.561,-0.520,0.190
11.564,-0.495,0.210
11.567,-0.500,0.205
11.569,-0.485,0.190
11.572,-0.490,0.180
11.575,-0.495,0.170
11.578,-0.500,0.180
11.581,-0.485,0.195
11.583,-0.485,0.200
11.586,-0.490,0.190
11.589,-0.500,0.190
11.592,-0.495,0.195
11.594,-0.480,0.210
11.597,-0.480,0.205
11.600,-0.475,0.195
11.603,-0.475,0.185
11.606,-0.475,0.180
11.608,-0.485,0.190
11.611,-0.460,0.220
11.614,-0.445,0.215
11.617,-0.425,0.210
11.619,-0.430,0.210
11.622,-0.425,0.185
11.625,-0.420,0.195
11.628,-0.395,0.200
11.631,-0.380,0.210
11.633,-0.375,0.200
11.636,-0.365,0.210
11.639,-0.360,0.210
11.642,-0.355,0.195
11.644,-0.335,0.200
11.647,-0.305,0.210
11.650,-0.285,0.210
11.653,-0.275,0.200
11.656,-0.265,0.195
11.658,-0.255,0.190
11.661,-0.240,0.195
11.664,-0.215,0.195
11.667,-0.195,0.185
11.669,-0.180,0.185
11.672,-0.175,0.175
11.675,-0.195,0.170
11.678,-0.180,0.155
11.681,-0.180,0.180
11.683,-0.155,0.175
11.686,-0.155,0.180
11.689,-0.165,0.155
11.692,-0.180,0.155
11.694,-0.180,0.170
11.697,-0.200,0.185
11.700,-0.210,0.155
11.703,-0.220,0.160
11.706,-0.220,0.140
11.708,-0.230,0.150
11.711,-0.225,0.160
11.714,-0.235,0.160
11.717,-0.250,0.150
11.719,-0.260,0.145
11.722,-0.270,0.135
11.725,-0.280,0.140
11.728,-0.270,0.150
11.731,-0.270,0.175
11.733,-0.270,0.165
11.736,-0.280,0.155
11.739,-0.300,0.140
11.742,-0.310,0.145
11.744,-0.305,0.155
11.747,-0.285,0.155
11.750,-0.290,0.160
11.753,-0.300,0.160
11.756,-0.330,0.150
11.758,-0.340,0.145
11.761,-0.330,0.155
11.764,-0.310,0.165
11.767,-0.300,0.150
11.769,-0.310,0.150
11.772,-0.320,0.145
11.775,-0.335,0.125
11.778,-0.330,0.140
11.781,-0.320,0.160
11.783,-0.325,0.145
11.786,-0.330,0.135
11.789,-0.330,0.120
11.792,-0.355,0.120
11.794,-0.345,0.140
11.797,-0.345,0.150
11.800,-0.345,0.145
11.803,-0.335,0.135
11.806,-0.345,0.125
11.808,-0.350,0.125
11.811,-0.345,0.130
11.814,-0.335,0.135
11.817,-0.330,0.140
11.819,-0.335,0.130
11.822,-0.340,0.125
11.825,-0.340,0.135
11.828,-0.335,0.140
11.831,-0.345,0.135
11.833,-0.330,0.135
11.836,-0.340,0.120
11.839,-0.355,0.105
11.842,-0.355,0.120
11.844,-0.345,0.120
11.847,-0.330,0.135
11.850,-0.345,0.135
11.853,-0.335,0.125
11.856,-0.335,0.110
11.858,-0.340,0.115
11.861,-0.345,0.125
11.864,-0.335,0.140
11.867,-0.325,0.130
11.869,-0.330,0.125
11.872,-0.335,0.110
11.875,-0.350,0.110
11.878,-0.340,0.115
11.881,-0.335,0.125
11.883,-0.315,0.130
11.886,-0.310,0.120
11.889,-0.335,0.110
11.892,-0.345,0.105
11.894,-0.340,0.120
11.897,-0.335,0.125
11.900,-0.335,0.125
11.903,-0.335,0.120
11.906,-0.345,0.105
11.908,-0.355,0.105
11.911,-0.340,0.115
11.914,-0.330,0.130
11.917,-0.320,0.130
11.919,-0.325,0.130
11.922,-0.330,0.120
11.925,-0.340,0.120
11.928,-0.335,0.130
11.931,-0.330,0.150
11.933,-0.325,0.165
11.936,-0.325,0.185
11.939,-0.325,0.190
11.942,-0.305,0.185
11.944,-0.285,0.205
11.947,-0.250,0.220
11.950,-0.240,0.200
11.953,-0.240,0.185
11.956,-0.250,0.165
11.958,-0.260,0.165
11.961,-0.240,0.170
11.964,-0.205,0.180
11.967,-0.180,0.160
11.969,-0.175,0.150
11.972,-0.175,0.155
11.975,-0.180,0.145
11.978,-0.160,0.150
11.981,-0.145,0.170
11.983,-0.135,0.135
11.986,-0.130,0.130
11.989,-0.135,0.125
11.992,-0.150,0.115
11.994,-0.160,0.140
11.997,-0.170,0.140
12.000,-0.160,0.115
12.003,-0.165,0.115
12.006,-0.180,0.100
12.008,-0.230,0.090
12.011,-0.270,0.105
12.014,-0.315,0.110
12.017,-0.355,0.110
12.019,-0.365,0.110
12.022,-0.390,0.085
12.025,-0.405,0.090
12.028,-0.395,0.085
12.031,-0.390,0.090
12.033,-0.395,0.090
12.036,-0.390,0.075
12.039,-0.390,0.080
12.042,-0.400,0.080
12.044,-0.390,0.085
12.047,-0.385,0.100
12.050,-0.380,0.095
12.053,-0.375,0.070
12.056,-0.395,0.075
12.058,-0.405,0.085
12.061,-0.390,0.090
12.064,-0.380,0.100
12.067,-0.360,0.085
12.069,-0.365,0.070
12.072,-0.365,0.060
12.075,-0.380,0.070
12.078,-0.370,0.080
12.081,-0.360,0.080
12.083,-0.345,0.075
12.086,-0.345,0.070
12.089,-0.350,0.050
12.092,-0.365,0.030
12.094,-0.350,0.030
12.097,-0.355,0.040
12.100,-0.350,0.030
12.103,-0.355,0.040
12.106,-0.360,0.035
12.108,-0.350,0.030
12.111,-0.285,0.010
12.114,-0.185,-0.025
12.117,-0.030,-0.110
12.119,0.160,-0.195
12.122,0.330,-0.285
12.125,0.515,-0.355
12.128,0.715,-0.355
12.131,0.900,-0.315
12.133,1.040,-0.245
12.136,1.135,-0.190
12.139,1.175,-0.185
12.142,1.125,-0.190
12.144,1.000,-0.200
12.147,0.875,-0.145
12.150,0.785,-0.115
12.153,0.695,-0.100
12.156,0.630,-0.080
12.158,0.495,-0.045
12.161,0.330,-0.005
12.164,0.180,0.035
12.167,0.095,0.035
12.169,0.020,0.035
12.172,-0.065,0.050
12.175,-0.170,0.075
12.178,-0.250,0.105
12.181,-0.310,0.120
12.183,-0.345,0.135
12.186,-0.410,0.140
12.189,-0.465,0.135
12.192,-0.510,0.125
12.194,-0.510,0.130
12.197,-0.510,0.145
12.200,-0.515,0.140
12.203,-0.535,0.145
12.206,-0.550,0.135
12.208,-0.565,0.135
12.211,-0.565,0.135
12.214,-0.545,0.155
12.217,-0.540,0.140
12.219,-0.540,0.140
12.222,-0.545,0.140
12.225,-0.560,0.145
12.228,-0.545,0.150
12.231,-0.535,0.160
12.233,-0.505,0.150
12.236,-0.515,0.150
12.239,-0.525,0.130
12.242,-0.530,0.130
12.244,-0.535,0.150
12.247,-0.520,0.160
12.250,-0.515,0.165
12.253,-0.505,0.155
12.256,-0.510,0.135
12.258,-0.515,0.140
12.261,-0.515,0.145
12.264,-0.510,0.160
12.267,-0.515,0.145
12.269,-0.520,0.145
12.272,-0.530,0.140
12.275,-0.530,0.140
12.278,-0.525,0.155
12.281,-0.525,0.155
12.283,-0.520,0.145
12.286,-0.535,0.130
12.289,-0.550,0.125
12.292,-0.550,0.130
12.294,-0.540,0.150
12.297,-0.520,0.160
12.300,-0.510,0.135
12.303,-0.520,0.135
12.306,-0.530,0.135
12.308,-0.535,0.140
12.311,-0.530,0.155
12.314,-0.525,0.165
12.317,-0.525,0.160
12.319,-0.520,0.165
12.322,-0.530,0.150
12.325,-0.535,0.150
12.328,-0.540,0.165
12.331,-0.530,0.160
12.333,-0.520,0.165
12.336,-0.510,0.165
12.339,-0.525,0.175
12.342,-0.530,0.170
12.344,-0.510,0.180
12.347,-0.500,0.190
12.350,-0.480,0.180
12.353,-0.480,0.180
12.356,-0.475,0.165
12.358,-0.465,0.170
12.361,-0.440,0.190
12.364,-0.425,0.195
12.367,-0.405,0.185
12.369,-0.390,0.165
12.372,-0.375,0.170
12.375,-0.380,0.165
12.378,-0.365,0.180
12.381,-0.355,0.190
12.383,-0.340,0.180
12.386,-0.330,0.175
12.389,-0.325,0.150
12.392,-0.305,0.155
12.394,-0.280,0.155
12.397,-0.255,0.165
12.400,-0.235,0.155
12.403,-0.215,0.150
12.406,-0.220,0.135
12.408,-0.230,0.150
12.411,-0.210,0.150
12.414,-0.210,0.155
12.417,-0.195,0.155
12.419,-0.205,0.135
12.422,-0.210,0.120
12.425,-0.215,0.120
12.428,-0.220,0.140
12.431,-0.225,0.145
12.433,-0.225,0.155
12.436,-0.240,0.130
12.439,-0.250,0.120
12.442,-0.250,0.130
12.444,-0.260,0.125
12.447,-0.265,0.145
12.450,-0.255,0.135
12.453,-0.270,0.125
12.456,-0.280,0.130
12.458,-0.285,0.135
12.461,-0.290,0.140
12.464,-0.285,0.145
12.467,-0.295,0.135
12.469,-0.290,0.140
12.472,-0.300,0.115
12.475,-0.310,0.120
12.478,-0.320,0.135
12.481,-0.295,0.155
12.483,-0.285,0.140
12.486,-0.290,0.130
12.489,-0.300,0.110
12.492,-0.320,0.115
12.494,-0.305,0.125
12.497,-0.300,0.130
12.500,-0.310,0.140
12.503,-0.310,0.125
12.506,-0.325,0.120
12.508,-0.325,0.115
12.511,-0.310,0.120
12.514,-0.315,0.135
12.517,-0.305,0.115
12.519,-0.310,0.115
12.522,-0.305,0.105
12.525,-0.315,0.105
12.528,-0.305,0.115
12.531,-0.315,0.125
12.533,-0.305,0.115
12.536,-0.305,0.095
12.539,-0.310,0.095
12.542,-0.315,0.085
12.544,-0.310,0.105
12.547,-0.310,0.120
12.550,-0.305,0.115
12.553,-0.310,0.100
12.556,-0.310,0.090
12.558,-0.310,0.095
12.561,-0.295,0.095
12.564,-0.285,0.110
12.567,-0.295,0.090
12.569,-0.295,0.090
12.572,-0.315,0.090
12.575,-0.325,0.080
12.578,-0.315,0.090
12.581,-0.295,0.090
12.583,-0.290,0.105
12.586,-0.295,0.075
12.589,-0.305,0.075
12.592,-0.315,0.075
12.594,-0.310,0.095
12.597,-0.305,0.100
12.600,-0.295,0.090
12.603,-0.295,0.090
12.606,-0.305,0.075
12.608,-0.325,0.075
12.611,-0.325,0.075
12.614,-0.320,0.095
12.617,-0.315,0.085
12.619,-0.305,0.085
12.622,-0.305,0.075
12.625,-0.320,0.080
12.628,-0.310,0.075
12.631,-0.295,0.090
12.633,-0.295,0.080
12.636,-0.290,0.080
12.639,-0.295,0.075
12.642,-0.305,0.075
12.644,-0.300,0.095
12.647,-0.290,0.105
12.650,-0.290,0.080
12.653,-0.290,0.080
12.656,-0.295,0.080
12.658,-0.320,0.070
12.661,-0.320,0.080
12.664,-0.295,0.110
12.667,-0.270,0.100
12.669,-0.285,0.120
12.672,-0.270,0.125
12.675,-0.270,0.125
12.678,-0.265,0.160
12.681,-0.235,0.165
12.683,-0.220,0.160
12.686,-0.195,0.150
12.689,-0.205,0.145
12.692,-0.215,0.135
12.694,-0.220,0.150
12.697,-0.195,0.165
12.700,-0.180,0.125
12.703,-0.160,0.110
12.706,-0.145,0.090
12.708,-0.140,0.100
12.711,-0.140,0.105
12.714,-0.115,0.100
12.717,-0.100,0.100
12.719,-0.080,0.075
12.722,-0.075,0.065
12.725,-0.095,0.055
12.728,-0.110,0.070
12.731,-0.110,0.090
12.733,-0.110,0.075
12.736,-0.110,0.065
12.739,-0.125,0.050
12.742,-0.125,0.050
12.744,-0.140,0.050
12.747,-0.170,0.045
12.750,-0.225,0.045
12.753,-0.270,0.035
12.756,-0.315,0.030
12.758,-0.345,0.040
12.761,-0.335,0.040
12.764,-0.340,0.060
12.767,-0.340,0.055
12.769,-0.365,0.035
12.772,-0.370,0.030
12.775,-0.375,0.020
12.778,-0.355,0.030
12.781,-0.335,0.050
12.783,-0.330,0.055
12.786,-0.340,0.035
12.789,-0.345,0.035
12.792,-0.355,0.030
12.794,-0.345,0.045
12.797,-0.340,0.055
12.800,-0.335,0.035
12.803,-0.330,0.030
12.806,-0.330,0.030
12.808,-0.330,0.035
12.811,-0.345,0.035
12.814,-0.320,0.055
12.817,-0.310,0.035
12.819,-0.315,0.010
12.822,-0.315,0.005
12.825,-0.320,-0.005
12.828,-0.315,0.000
12.831,-0.305,0.010
12.833,-0.325,0.005
12.836,-0.315,-0.010
12.839,-0.325,-0.030
12.842,-0.300,-0.050
12.844,-0.240,-0.085
12.847,-0.145,-0.105
12.850,-0.015,-0.145
12.853,0.120,-0.200
12.856,0.270,-0.300
12.858,0.395,-0.385
12.861,0.560,-0.450
12.864,0.725,-0.460
12.867,0.880,-0.430
12.869,1.020,-0.380
12.872,1.110,-0.325
12.875,1.165,-0.305
12.878,1.145,-0.280
12.881,1.055,-0.225
12.883,0.910,-0.190
12.886,0.785,-0.170
12.889,0.675,-0.145
12.892,0.535,-0.115
12.894,0.395,-0.065
12.897,0.275,-0.035
12.900,0.195,-0.020
12.903,0.115,-0.015
12.906,0.020,0.000
12.908,-0.090,0.025
12.911,-0.175,0.035
12.914,-0.225,0.060
12.917,-0.270,0.065
12.919,-0.305,0.080
12.922,-0.345,0.085
12.925,-0.390,0.110
12.928,-0.425,0.115
12.931,-0.455,0.120
12.933,-0.470,0.110
12.936,-0.480,0.105
12.939,-0.515,0.095
12.942,-0.540,0.095
12.944,-0.530,0.100
12.947,-0.520,0.120
12.950,-0.520,0.110
12.953,-0.505,0.110
12.956,-0.525,0.110
12.958,-0.535,0.090
12.961,-0.520,0.115
12.964,-0.515,0.125
12.967,-0.495,0.125
12.969,-0.490,0.115
12.972,-0.495,0.110
12.975,-0.495,0.110
12.978,-0.495,0.115
12.981,-0.500,0.140
12.983,-0.500,0.130
12.986,-0.505,0.120
12.989,-0.510,0.115
12.992,-0.515,0.110
12.994,-0.515,0.115
12.997,-0.500,0.130
13.000,-0.490,0.125
13.003,-0.500,0.120
13.006,-0.505,0.115
13.008,-0.510,0.110
13.011,-0.515,0.115
13.014,-0.495,0.125
13.017,-0.510,0.125
13.019,-0.515,0.120
13.022,-0.515,0.125
13.025,-0.540,0.120
13.028,-0.525,0.135
13.031,-0.505,0.145
13.033,-0.500,0.135
13.036,-0.515,0.125
13.039,-0.515,0.115
13.042,-0.520,0.125
13.044,-0.515,0.135
13.047,-0.510,0.150
13.050,-0.490,0.150
13.053,-0.515,0.135
13.056,-0.515,0.140
13.058,-0.520,0.120
13.061,-0.515,0.135
13.064,-0.490,0.145
13.067,-0.495,0.155
13.069,-0.515,0.155
13.072,-0.505,0.145
13.075,-0.515,0.145
13.078,-0.500,0.145
13.081,-0.475,0.165
13.083,-0.470,0.150
13.086,-0.455,0.160
13.089,-0.455,0.140
13.092,-0.450,0.140
13.094,-0.445,0.165
13.097,-0.430,0.170
13.100,-0.415,0.165
13.103,-0.400,0.165
13.106,-0.385,0.155
13.108,-0.385,0.145
13.111,-0.375,0.160
13.114,-0.360,0.170
13.117,-0.335,0.170
13.119,-0.340,0.150
13.122,-0.315,0.140
13.125,-0.295,0.140
13.128,-0.280,0.150
13.131,-0.255,0.150
13.133,-0.230,0.145
13.136,-0.230,0.130
13.139,-0.220,0.120
13.142,-0.230,0.120
13.144,-0.190,0.120
13.147,-0.175,0.125
13.150,-0.170,0.110
13.153,-0.180,0.105
13.156,-0.185,0.090
13.158,-0.190,0.095
13.161,-0.180,0.110
13.164,-0.180,0.125
13.167,-0.170,0.115
13.169,-0.185,0.100
13.172,-0.195,0.085
13.175,-0.210,0.085
13.178,-0.215,0.100
13.181,-0.210,0.095
13.183,-0.220,0.100
13.186,-0.230,0.090
13.189,-0.245,0.085
13.192,-0.260,0.075
13.194,-0.260,0.090
13.197,-0.260,0.095
13.200,-0.255,0.105
13.203,-0.260,0.095
13.206,-0.265,0.085
13.208,-0.285,0.095
13.211,-0.280,0.105
13.214,-0.275,0.105
13.217,-0.265,0.095
13.219,-0.275,0.080
13.222,-0.280,0.085
13.225,-0.295,0.085
13.228,-0.290,0.115
13.231,-0.290,0.105
13.233,-0.285,0.100
13.236,-0.300,0.095
13.239,-0.310,0.095
13.242,-0.310,0.075
13.244,-0.305,0.090
13.247,-0.285,0.105
13.250,-0.290,0.105
13.253,-0.290,0.085
13.256,-0.305,0.080
13.258,-0.305,0.075
13.261,-0.305,0.080
13.264,-0.295,0.095
13.267,-0.305,0.085
13.269,-0.320,0.080
13.272,-0.315,0.065
13.275,-0.315,0.060
13.278,-0.310,0.075
13.281,-0.315,0.080
13.283,-0.300,0.070
13.286,-0.300,0.060
13.289,-0.315,0.050
13.292,-0.315,0.055
13.294,-0.315,0.065
13.297,-0.305,0.075
13.300,-0.300,0.065
13.303,-0.300,0.050
13.306,-0.315,0.055
13.308,-0.325,0.050
13.311,-0.320,0.055
13.314,-0.305,0.075
13.317,-0.310,0.065
13.319,-0.290,0.060
13.322,-0.300,0.060
13.325,-0.300,0.060
13.328,-0.290,0.070
13.331,-0.290,0.075
13.333,-0.285,0.060
13.336,-0.290,0.060
13.339,-0.290,0.050
13.342,-0.300,0.045
13.344,-0.310,0.055
13.347,-0.305,0.070
13.350,-0.305,0.055
13.353,-0.285,0.060
13.356,-0.310,0.050
13.358,-0.305,0.045
13.361,-0.295,0.055
13.364,-0.290,0.065
13.367,-0.285,0.070
13.369,-0.310,0.055
13.372,-0.295,0.055
13.375,-0.305,0.050
13.378,-0.295,0.060
13.381,-0.310,0.070
13.383,-0.300,0.065
13.386,-0.295,0.065
13.389,-0.300,0.050
13.392,-0.305,0.060
13.394,-0.285,0.075
13.397,-0.270,0.085
13.400,-0.270,0.085
13.403,-0.270,0.095
13.406,-0.285,0.100
13.408,-0.295,0.115
13.411,-0.265,0.145
13.414,-0.240,0.165
13.417,-0.205,0.155
13.419,-0.185,0.135
13.422,-0.180,0.135
13.425,-0.195,0.130
13.428,-0.210,0.130
13.431,-0.195,0.130
13.433,-0.170,0.115
13.436,-0.155,0.090
13.439,-0.150,0.080
13.442,-0.135,0.090
13.444,-0.130,0.105
13.447,-0.110,0.115
13.450,-0.100,0.090
13.453,-0.090,0.080
13.456,-0.080,0.065
13.458,-0.095,0.055
13.461,-0.100,0.070
13.464,-0.095,0.075
13.467,-0.095,0.085
13.469,-0.110,0.080
13.472,-0.125,0.055
13.475,-0.135,0.060
13.478,-0.150,0.060
13.481,-0.170,0.045
13.483,-0.200,0.050
13.486,-0.260,0.035
13.489,-0.300,0.035
13.492,-0.340,0.030
13.494,-0.350,0.035
13.497,-0.350,0.040
13.500,-0.350,0.020
13.503,-0.355,0.025
13.506,-0.365,0.020
13.508,-0.365,0.035
13.511,-0.350,0.045
13.514,-0.340,0.040
13.517,-0.330,0.050
13.519,-0.335,0.040
13.522,-0.340,0.035
13.525,-0.345,0.025
13.528,-0.340,0.025
13.531,-0.335,0.040
13.533,-0.320,0.035
13.536,-0.330,0.030
13.539,-0.335,0.040
13.542,-0.350,0.035
13.544,-0.340,0.035
13.547,-0.320,0.050
13.550,-0.310,0.035
13.553,-0.305,0.020
13.556,-0.310,0.010
13.558,-0.325,0.005
13.561,-0.325,0.010
13.564,-0.315,0.015
13.567,-0.310,0.005
13.569,-0.320,0.005
13.572,-0.340,-0.010
13.575,-0.365,-0.015
13.578,-0.335,-0.030
13.581,-0.285,-0.045
13.583,-0.215,-0.100
13.586,-0.150,-0.165
13.589,-0.025,-0.255
13.592,0.115,-0.340
13.594,0.305,-0.410
13.597,0.505,-0.455
13.600,0.695,-0.470
13.603,0.870,-0.430
13.606,1.015,-0.370
13.608,1.125,-0.320
13.611,1.205,-0.285
13.614,1.175,-0.250
13.617,1.050,-0.205
13.619,0.905,-0.180
13.622,0.755,-0.160
13.625,0.645,-0.135
13.628,0.525,-0.085
13.631,0.375,-0.025
13.633,0.260,-0.010
13.636,0.180,0.000
13.639,0.110,0.000
13.642,0.045,0.015
13.644,-0.045,0.040
13.647,-0.110,0.070
13.650,-0.160,0.070
13.653,-0.215,0.095
13.656,-0.275,0.100
13.658,-0.350,0.115
13.661,-0.400,0.135
13.664,-0.425,0.130
13.667,-0.445,0.115
13.669,-0.460,0.110
13.672,-0.480,0.110
13.675,-0.505,0.105
13.678,-0.500,0.115
13.681,-0.490,0.120
13.683,-0.495,0.110
13.686,-0.495,0.105
13.689,-0.500,0.100
13.692,-0.505,0.095
13.694,-0.490,0.135
13.697,-0.480,0.145
13.700,-0.475,0.135
13.703,-0.480,0.115
13.706,-0.495,0.110
13.708,-0.505,0.125
13.711,-0.500,0.120
13.714,-0.485,0.130
13.717,-0.470,0.145
13.719,-0.475,0.140
13.722,-0.485,0.135
13.725,-0.495,0.130
13.728,-0.490,0.145
13.731,-0.480,0.145
13.733,-0.485,0.125
13.736,-0.485,0.120
13.739,-0.485,0.140
13.742,-0.500,0.130
13.744,-0.505,0.140
13.747,-0.490,0.145
13.750,-0.485,0.140
13.753,-0.475,0.125
13.756,-0.485,0.130
13.758,-0.510,0.130
13.761,-0.495,0.135
13.764,-0.490,0.150
13.767,-0.490,0.160
13.769,-0.485,0.155
13.772,-0.490,0.150
13.775,-0.500,0.160
13.778,-0.500,0.155
13.781,-0.500,0.165
13.783,-0.495,0.170
13.786,-0.495,0.160
13.789,-0.500,0.155
13.792,-0.515,0.165
13.794,-0.500,0.170
13.797,-0.490,0.190
13.800,-0.480,0.180
13.803,-0.480,0.170
13.806,-0.470,0.150
13.808,-0.475,0.165
13.811,-0.465,0.175
13.814,-0.445,0.190
13.817,-0.440,0.175
13.819,-0.435,0.165
13.822,-0.440,0.160
13.825,-0.420,0.165
13.828,-0.410,0.180
13.831,-0.385,0.200
13.833,-0.365,0.195
13.836,-0.340,0.190
13.839,-0.345,0.170
13.842,-0.335,0.165
13.844,-0.315,0.165
13.847,-0.295,0.180
13.850,-0.275,0.180
13.853,-0.260,0.165
13.856,-0.250,0.155
13.858,-0.240,0.150
13.861,-0.205,0.155
13.864,-0.190,0.165
13.867,-0.170,0.165
13.869,-0.170,0.155
13.872,-0.180,0.130
13.875,-0.195,0.135
13.878,-0.190,0.140
13.881,-0.175,0.150
13.883,-0.165,0.145
13.886,-0.170,0.130
13.889,-0.185,0.120
13.892,-0.200,0.110
13.894,-0.200,0.115
13.897,-0.200,0.125
13.900,-0.195,0.130
13.903,-0.205,0.105
13.906,-0.230,0.100
13.908,-0.245,0.110
13.911,-0.255,0.110
13.914,-0.240,0.130
13.917,-0.240,0.110
13.919,-0.255,0.100
13.922,-0.265,0.095
13.925,-0.280,0.100
13.928,-0.285,0.120
13.931,-0.275,0.130
13.933,-0.270,0.110
13.936,-0.270,0.105
13.939,-0.280,0.100
13.942,-0.295,0.100
13.944,-0.300,0.105
13.947,-0.300,0.120
13.950,-0.300,0.115
13.953,-0.305,0.090
13.956,-0.315,0.095
13.958,-0.315,0.085
13.961,-0.320,0.105
13.964,-0.315,0.130
13.967,-0.310,0.125
13.969,-0.315,0.105
13.972,-0.330,0.110
13.975,-0.325,0.100
13.978,-0.325,0.100
13.981,-0.320,0.095
13.983,-0.315,0.090
13.986,-0.320,0.100
13.989,-0.320,0.090
13.992,-0.320,0.090
13.994,-0.325,0.100
13.997,-0.320,0.110
14.000,-0.325,0.095
14.003,-0.330,0.090
14.006,-0.335,0.075
14.008,-0.335,0.090
14.011,-0.315,0.100
14.014,-0.305,0.110
14.017,-0.305,0.105
14.019,-0.320,0.085
14.022,-0.330,0.075
14.025,-0.355,0.075
14.028,-0.345,0.100
14.031,-0.315,0.115
14.033,-0.305,0.095
14.036,-0.305,0.100
14.039,-0.325,0.080
14.042,-0.335,0.070
14.044,-0.335,0.095
14.047,-0.320,0.075
14.050,-0.320,0.080
14.053,-0.320,0.080
14.056,-0.330,0.080
14.058,-0.325,0.080
14.061,-0.330,0.085
14.064,-0.320,0.090
14.067,-0.310,0.085
14.069,-0.305,0.090
14.072,-0.315,0.080
14.075,-0.330,0.065
14.078,-0.325,0.075
14.081,-0.310,0.090
14.083,-0.315,0.095
14.086,-0.315,0.075
14.089,-0.315,0.075
14.092,-0.325,0.065
14.094,-0.320,0.080
14.097,-0.305,0.085
14.100,-0.290,0.095
14.103,-0.300,0.095
14.106,-0.290,0.080
14.108,-0.305,0.080
14.111,-0.300,0.090
14.114,-0.300,0.105
14.117,-0.300,0.095
14.119,-0.305,0.115
14.122,-0.305,0.130
14.125,-0.285,0.150
14.128,-0.250,0.155
14.131,-0.230,0.165
14.133,-0.215,0.155
14.136,-0.215,0.140
14.139,-0.230,0.135
14.142,-0.260,0.135
14.144,-0.235,0.135
14.147,-0.205,0.140
14.150,-0.185,0.130
14.153,-0.165,0.110
14.156,-0.165,0.095
14.158,-0.170,0.100
14.161,-0.135,0.100
14.164,-0.110,0.120
14.167,-0.095,0.100
14.169,-0.105,0.075
14.172,-0.115,0.075
14.175,-0.145,0.085
14.178,-0.150,0.085
14.181,-0.140,0.100
14.183,-0.150,0.090
14.186,-0.145,0.065
14.189,-0.170,0.045
14.192,-0.220,0.050
14.194,-0.260,0.065
14.197,-0.310,0.070
14.200,-0.340,0.060
14.203,-0.345,0.045
14.206,-0.370,0.040
14.208,-0.380,0.040
14.211,-0.375,0.050
14.214,-0.375,0.065
14.217,-0.370,0.045
14.219,-0.380,0.035
14.222,-0.375,0.045
14.225,-0.385,0.030
14.228,-0.365,0.050
14.231,-0.360,0.055
14.233,-0.345,0.050
14.236,-0.345,0.040
14.239,-0.345,0.035
14.242,-0.365,0.040
14.244,-0.365,0.030
14.247,-0.355,0.050
14.250,-0.340,0.045
14.253,-0.350,0.040
14.256,-0.345,0.035
14.258,-0.345,0.035
14.261,-0.325,0.045
14.264,-0.325,0.065
14.267,-0.320,0.030
14.269,-0.315,0.015
14.272,-0.315,-0.005
14.275,-0.325,-0.005
14.278,-0.320,0.015
14.281,-0.320,0.015
14.283,-0.310,0.025
14.286,-0.310,-0.005
14.289,-0.270,-0.040
14.292,-0.165,-0.105
14.294,-0.005,-0.160
14.297,0.175,-0.230
14.300,0.370,-0.325
14.303,0.565,-0.380
14.306,0.765,-0.395
14.308,0.920,-0.360
14.311,1.055,-0.290
14.314,1.155,-0.245
14.317,1.160,-0.260
14.319,1.090,-0.270
14.322,0.935,-0.245
14.325,0.795,-0.200
14.328,0.725,-0.145
14.331,0.670,-0.125
14.333,0.585,-0.105
14.336,0.460,-0.075
14.339,0.280,-0.060
14.342,0.135,-0.025
14.344,0.050,-0.010
14.347,-0.005,0.015
14.350,-0.090,0.035
14.353,-0.175,0.040
14.356,-0.265,0.060
14.358,-0.325,0.065
14.361,-0.370,0.095
14.364,-0.410,0.100
14.367,-0.430,0.110
14.369,-0.455,0.105
14.372,-0.460,0.090
14.375,-0.485,0.095
14.378,-0.490,0.110
14.381,-0.495,0.120
14.383,-0.495,0.110
14.386,-0.500,0.095
14.389,-0.500,0.090
14.392,-0.510,0.100
14.394,-0.510,0.115
14.397,-0.505,0.130
14.400,-0.495,0.115
14.403,-0.495,0.115
14.406,-0.500,0.085
14.408,-0.505,0.105
14.411,-0.500,0.110
14.414,-0.485,0.120
14.417,-0.475,0.115
14.419,-0.470,0.110
14.422,-0.480,0.095
14.425,-0.480,0.100
14.428,-0.490,0.095
14.431,-0.485,0.100
14.433,-0.470,0.100
14.436,-0.465,0.095
14.439,-0.475,0.095
14.442,-0.500,0.115
14.444,-0.485,0.115
14.447,-0.475,0.110
14.450,-0.470,0.105
14.453,-0.480,0.090
14.456,-0.490,0.095
14.458,-0.490,0.090
14.461,-0.490,0.105
14.464,-0.490,0.120
14.467,-0.490,0.110
14.469,-0.480,0.110
14.472,-0.505,0.100
14.475,-0.510,0.110
14.478,-0.500,0.115
14.481,-0.500,0.125
14.483,-0.500,0.110
14.486,-0.515,0.110
14.489,-0.510,0.120
14.492,-0.510,0.120
14.494,-0.490,0.120
14.497,-0.475,0.130
14.500,-0.470,0.120
14.503,-0.480,0.110
14.506,-0.495,0.115
14.508,-0.500,0.115
14.511,-0.490,0.125
14.514,-0.470,0.150
14.517,-0.455,0.145
14.519,-0.460,0.130
14.522,-0.455,0.115
14.525,-0.465,0.120
14.528,-0.445,0.140
14.531,-0.430,0.155
14.533,-0.400,0.125
14.536,-0.400,0.125
14.539,-0.405,0.115
14.542,-0.410,0.105
14.544,-0.385,0.120
14.547,-0.360,0.125
14.550,-0.330,0.115
14.553,-0.320,0.115
14.556,-0.315,0.120
14.558,-0.315,0.120
14.561,-0.295,0.130
14.564,-0.280,0.135
14.567,-0.260,0.135
14.569,-0.250,0.115
14.572,-0.230,0.105
14.575,-0.225,0.105
14.578,-0.205,0.110
14.581,-0.195,0.105
14.583,-0.175,0.115
14.586,-0.175,0.090
14.589,-0.170,0.085
14.592,-0.185,0.080
14.594,-0.180,0.085
14.597,-0.175,0.095
14.600,-0.165,0.095
14.603,-0.180,0.095
14.606,-0.180,0.085
14.608,-0.200,0.070
14.611,-0.195,0.090
14.614,-0.195,0.100
14.617,-0.205,0.085
14.619,-0.220,0.085
14.622,-0.230,0.065
14.625,-0.245,0.065
14.628,-0.240,0.075
14.631,-0.230,0.085
14.633,-0.225,0.075
14.636,-0.245,0.075
14.639,-0.255,0.065
14.642,-0.255,0.075
14.644,-0.250,0.085
14.647,-0.255,0.095
14.650,-0.255,0.090
14.653,-0.275,0.080
14.656,-0.280,0.070
14.658,-0.285,0.060
14.661,-0.275,0.075
14.664,-0.265,0.075
14.667,-0.265,0.080
14.669,-0.275,0.075
14.672,-0.285,0.060
14.675,-0.295,0.070
14.678,-0.295,0.065
14.681,-0.295,0.085
14.683,-0.280,0.075
14.686,-0.285,0.050
14.689,-0.295,0.045
14.692,-0.310,0.045
14.694,-0.305,0.060
14.697,-0.285,0.055
14.700,-0.275,0.050
14.703,-0.290,0.055
14.706,-0.295,0.035
14.708,-0.295,0.035
14.711,-0.290,0.045
14.714,-0.290,0.050
14.717,-0.285,0.040
14.719,-0.275,0.030
14.722,-0.285,0.010
14.725,-0.290,0.015
14.728,-0.285,0.025
14.731,-0.275,0.035
14.733,-0.270,0.025
14.736,-0.270,0.035
14.739,-0.285,0.020
14.742,-0.300,0.025
14.744,-0.300,0.050
14.747,-0.285,0.045
14.750,-0.275,0.030
14.753,-0.290,0.025
14.756,-0.290,0.020
14.758,-0.305,0.015
14.761,-0.285,0.020
14.764,-0.290,0.030
14.767,-0.275,0.020
14.769,-0.285,0.025
14.772,-0.295,0.015
14.775,-0.305,0.000
14.778,-0.285,0.015
14.781,-0.275,0.030
14.783,-0.275,0.025
14.786,-0.270,0.020
14.789,-0.280,0.015
14.792,-0.295,0.015
14.794,-0.290,0.020
14.797,-0.275,0.030
14.800,-0.265,0.015
14.803,-0.270,0.015
14.806,-0.285,0.015
14.808,-0.290,0.000
14.811,-0.280,0.020
14.814,-0.265,0.035
14.817,-0.260,0.030
14.819,-0.260,0.020
14.822,-0.270,0.025
14.825,-0.275,0.035
14.828,-0.270,0.045
14.831,-0.250,0.085
14.833,-0.245,0.085
14.836,-0.240,0.090
14.839,-0.225,0.090
14.842,-0.215,0.085
14.844,-0.190,0.095
14.847,-0.175,0.100
14.850,-0.160,0.090
14.853,-0.170,0.080
14.856,-0.195,0.065
14.858,-0.195,0.060
14.861,-0.155,0.050
14.864,-0.115,0.070
14.867,-0.100,0.060
14.869,-0.080,0.050
14.872,-0.075,0.045
14.875,-0.080,0.025
14.878,-0.070,0.010
14.881,-0.060,0.030
14.883,-0.075,0.030
14.886,-0.085,0.045
14.889,-0.110,0.040
14.892,-0.135,0.020
14.894,-0.110,0.020
14.897,-0.115,0.025
14.900,-0.130,0.000
14.903,-0.185,-0.005
14.906,-0.245,-0.020
14.908,-0.300,-0.015
14.911,-0.330,0.005
14.914,-0.335,0.010
14.917,-0.325,-0.005
14.919,-0.335,-0.005
14.922,-0.335,-0.015
14.925,-0.335,-0.010
14.928,-0.330,-0.015
14.931,-0.315,0.005
14.933,-0.320,0.000
14.936,-0.320,-0.010
14.939,-0.320,-0.015
14.942,-0.325,-0.020
14.944,-0.320,-0.005
14.947,-0.305,0.000
14.950,-0.305,-0.010
14.953,-0.305,-0.005
14.956,-0.310,-0.005
14.958,-0.300,-0.005
14.961,-0.290,0.005
14.964,-0.285,0.005
14.967,-0.285,0.005
14.969,-0.295,-0.015
14.972,-0.295,-0.035
14.975,-0.305,-0.045
14.978,-0.290,-0.040
14.981,-0.275,-0.025
14.983,-0.290,-0.020
14.986,-0.285,-0.035
14.989,-0.270,-0.055
14.992,-0.215,-0.080
14.994,-0.090,-0.125
14.997,0.065,-0.175
15.000,0.200,-0.260
15.003,0.350,-0.360
15.006,0.530,-0.445
15.008,0.730,-0.470
15.011,0.945,-0.425
15.014,1.090,-0.350
15.017,1.175,-0.305
15.019,1.190,-0.305
15.022,1.135,-0.285
15.025,0.960,-0.235
15.028,0.810,-0.195
15.031,0.700,-0.155
15.033,0.580,-0.130
15.036,0.415,-0.090
15.039,0.250,-0.065
15.042,0.150,-0.060
15.044,0.100,-0.040
15.047,0.040,-0.015
15.050,-0.045,0.000
15.053,-0.125,0.005
15.056,-0.190,0.015
15.058,-0.260,0.030
15.061,-0.305,0.065
15.064,-0.345,0.090
15.067,-0.380,0.090
15.069,-0.405,0.070
15.072,-0.445,0.060
15.075,-0.470,0.060
15.078,-0.485,0.070
15.081,-0.480,0.085
15.083,-0.460,0.075
15.086,-0.465,0.075
15.089,-0.475,0.075
15.092,-0.485,0.070
15.094,-0.465,0.065
15.097,-0.450,0.090
15.100,-0.455,0.085
15.103,-0.450,0.080
15.106,-0.450,0.075
15.108,-0.470,0.070
15.111,-0.460,0.095
15.114,-0.460,0.095
15.117,-0.450,0.085
15.119,-0.440,0.080
15.122,-0.445,0.070
15.125,-0.470,0.075
15.128,-0.460,0.085
15.131,-0.450,0.095
15.133,-0.445,0.085
15.136,-0.435,0.085
15.139,-0.460,0.060
15.142,-0.470,0.075
15.144,-0.465,0.075
15.147,-0.460,0.100
15.150,-0.435,0.100
15.153,-0.445,0.080
15.156,-0.460,0.075
15.158,-0.460,0.075
15.161,-0.455,0.075
15.164,-0.470,0.095
15.167,-0.460,0.095
15.169,-0.465,0.100
15.172,-0.465,0.080
15.175,-0.475,0.090
15.178,-0.465,0.090
15.181,-0.465,0.105
15.183,-0.465,0.100
15.186,-0.460,0.090
15.189,-0.475,0.090
15.192,-0.480,0.090
15.194,-0.475,0.110
15.197,-0.455,0.125
15.200,-0.460,0.110
15.203,-0.450,0.105
15.206,-0.445,0.090
15.208,-0.440,0.095
15.211,-0.425,0.100
15.214,-0.410,0.120
15.217,-0.400,0.100
15.219,-0.405,0.110
15.222,-0.400,0.095
15.225,-0.395,0.090
15.228,-0.380,0.090
15.231,-0.355,0.120
15.233,-0.335,0.105
15.236,-0.330,0.105
15.239,-0.315,0.090
15.242,-0.315,0.080
15.244,-0.285,0.105
15.247,-0.260,0.115
15.250,-0.240,0.105
15.253,-0.230,0.105
15.256,-0.225,0.095
15.258,-0.210,0.085
15.261,-0.175,0.090
15.264,-0.150,0.090
15.267,-0.135,0.090
15.269,-0.150,0.075
15.272,-0.160,0.055
15.275,-0.145,0.050
15.278,-0.145,0.060
15.281,-0.130,0.065
15.283,-0.135,0.055
15.286,-0.130,0.045
15.289,-0.145,0.050
15.292,-0.160,0.035
15.294,-0.150,0.040
15.297,-0.160,0.050
15.300,-0.150,0.050
15.303,-0.170,0.040
15.306,-0.190,0.025
15.308,-0.205,0.035
15.311,-0.190,0.035
15.314,-0.200,0.050
15.317,-0.195,0.040
15.319,-0.195,0.030
15.322,-0.195,0.035
15.325,-0.210,0.030
15.328,-0.225,0.040
15.331,-0.215,0.055
15.333,-0.215,0.040
15.336,-0.220,0.035
15.339,-0.240,0.035
15.342,-0.245,0.015
15.344,-0.240,0.045
15.347,-0.235,0.045
15.350,-0.225,0.060
15.353,-0.235,0.035
15.356,-0.230,0.030
15.358,-0.250,0.025
15.361,-0.250,0.025
15.364,-0.255,0.020
15.367,-0.260,0.020
15.369,-0.270,0.005
15.372,-0.270,-0.015
15.375,-0.295,-0.020
15.378,-0.300,-0.015
15.381,-0.290,-0.030
15.383,-0.280,-0.050
15.386,-0.275,-0.095
15.389,-0.275,-0.115
15.392,-0.270,-0.135
15.394,-0.255,-0.135
15.397,-0.250,-0.120
15.400,-0.220,-0.130
15.403,-0.185,-0.175
15.406,-0.150,-0.200
15.408,-0.080,-0.265
15.411,0.025,-0.320
15.414,0.115,-0.375
15.417,0.230,-0.415
15.419,0.375,-0.415
15.422,0.520,-0.395
15.425,0.665,-0.355
15.428,0.780,-0.300
15.431,0.895,-0.245
15.433,1.050,-0.180
15.436,1.195,-0.075
15.439,1.340,0.045
15.442,1.455,0.200
15.444,1.580,0.370
15.447,1.695,0.525
15.450,1.770,0.650
15.453,1.765,0.730
15.456,1.590,0.745
15.458,1.295,0.690
15.461,0.970,0.615
15.464,0.715,0.560
15.467,0.460,0.445
15.469,0.180,0.355
15.472,-0.080,0.275
15.475,-0.295,0.230
15.478,-0.430,0.175
15.481,-0.510,0.135
15.483,-0.535,0.080
15.486,-0.560,0.030
15.489,-0.585,-0.005
15.492,-0.600,0.000
15.494,-0.590,0.010
15.497,-0.575,0.015
15.500,-0.570,0.000
15.503,-0.585,-0.015
15.506,-0.585,-0.025
15.508,-0.605,-0.035
15.511,-0.585,-0.030
15.514,-0.585,-0.035
15.517,-0.580,-0.035
15.519,-0.590,-0.055
15.522,-0.605,-0.055
15.525,-0.625,-0.050
15.528,-0.635,-0.045
15.531,-0.630,-0.030
15.533,-0.645,-0.055
15.536,-0.650,-0.075
15.539,-0.675,-0.080
15.542,-0.705,-0.090
15.544,-0.710,-0.080
15.547,-0.700,-0.095
15.550,-0.670,-0.110
15.553,-0.640,-0.130
15.556,-0.635,-0.140
15.558,-0.635,-0.135
15.561,-0.630,-0.120
15.564,-0.630,-0.105
15.567,-0.635,-0.105
15.569,-0.635,-0.110
15.572,-0.615,-0.105
15.575,-0.625,-0.090
15.578,-0.610,-0.055
15.581,-0.600,-0.030
15.583,-0.595,-0.035
15.586,-0.590,-0.040
15.589,-0.590,-0.045
15.592,-0.615,-0.055
15.594,-0.625,-0.035
15.597,-0.630,-0.020
15.600,-0.590,-0.015
15.603,-0.605,-0.025
15.606,-0.610,-0.035
15.608,-0.625,-0.040
15.611,-0.630,-0.035
15.614,-0.625,-0.025
15.617,-0.615,-0.025
15.619,-0.615,-0.020
15.622,-0.630,-0.025
15.625,-0.635,-0.035
15.628,-0.635,-0.020
15.631,-0.635,-0.015
15.633,-0.630,-0.015
15.636,-0.620,-0.025
15.639,-0.625,-0.030
15.642,-0.610,-0.010
15.644,-0.605,-0.005
15.647,-0.600,0.010
15.650,-0.575,0.000
15.653,-0.575,-0.005
15.656,-0.565,-0.025
15.658,-0.565,-0.020
15.661,-0.545,-0.005
15.664,-0.525,0.010
15.667,-0.505,-0.005
15.669,-0.490,0.000
15.672,-0.495,-0.015
15.675,-0.485,-0.015
15.678,-0.470,0.000
15.681,-0.435,0.010
15.683,-0.420,0.010
15.686,-0.400,0.010
15.689,-0.385,0.015
15.692,-0.375,0.015
15.694,-0.345,0.025
15.697,-0.315,0.030
15.700,-0.285,0.030
15.703,-0.275,0.025
15.706,-0.280,0.035
15.708,-0.275,0.045
15.711,-0.250,0.050
15.714,-0.245,0.060
15.717,-0.235,0.055
15.719,-0.215,0.050
15.722,-0.225,0.035
15.725,-0.225,0.035
15.728,-0.225,0.045
15.731,-0.210,0.070
15.733,-0.205,0.050
15.736,-0.210,0.040
15.739,-0.205,0.035
15.742,-0.225,0.045
15.744,-0.220,0.055
15.747,-0.205,0.065
15.750,-0.195,0.055
15.753,-0.205,0.050
15.756,-0.205,0.035
15.758,-0.220,0.040
15.761,-0.225,0.040
15.764,-0.220,0.050
15.767,-0.210,0.045
15.769,-0.200,0.040
15.772,-0.210,0.040
15.775,-0.210,0.030
15.778,-0.215,0.045
15.781,-0.210,0.055
15.783,-0.200,0.040
15.786,-0.210,0.035
15.789,-0.205,0.025
15.792,-0.220,0.015
15.794,-0.210,0.045
15.797,-0.215,0.040
15.800,-0.205,0.030
15.803,-0.205,0.020
15.806,-0.215,0.010
15.808,-0.225,0.010
15.811,-0.225,0.015
15.814,-0.215,0.030
15.817,-0.220,0.030
15.819,-0.225,0.030
15.822,-0.235,0.025
15.825,-0.250,0.010
15.828,-0.250,0.025
15.831,-0.235,0.020
15.833,-0.220,0.020
15.836,-0.215,0.005
15.839,-0.225,0.000
15.842,-0.245,-0.005
15.844,-0.250,0.005
15.847,-0.240,0.020
15.850,-0.245,0.010
15.853,-0.245,-0.005
15.856,-0.255,-0.005
15.858,-0.275,-0.010
15.861,-0.250,0.005
15.864,-0.245,0.015
15.867,-0.240,0.005
15.869,-0.250,-0.005
15.872,-0.265,-0.030
15.875,-0.275,-0.025
15.878,-0.260,-0.015
15.881,-0.250,-0.005
15.883,-0.245,0.000
15.886,-0.250,-0.005
15.889,-0.260,-0.005
15.892,-0.270,-0.015
15.894,-0.270,0.000
15.897,-0.270,-0.010
15.900,-0.275,0.000
15.903,-0.270,-0.025
15.906,-0.270,-0.035
15.908,-0.290,-0.015
15.911,-0.265,-0.020
15.914,-0.255,-0.020
15.917,-0.255,-0.020
15.919,-0.260,-0.035
15.922,-0.280,-0.045
15.925,-0.275,-0.035
15.928,-0.275,-0.025
15.931,-0.270,-0.010
15.933,-0.255,-0.020
15.936,-0.260,-0.015
15.939,-0.270,-0.035
15.942,-0.290,-0.035
15.944,-0.275,-0.030
15.947,-0.260,-0.015
15.950,-0.260,-0.020
15.953,-0.260,-0.030
15.956,-0.275,-0.040
15.958,-0.280,-0.040
15.961,-0.280,-0.025
15.964,-0.270,-0.010
15.967,-0.270,-0.025
15.969,-0.260,-0.025
15.972,-0.280,-0.035
15.975,-0.290,-0.030
15.978,-0.285,-0.025
15.981,-0.275,-0.005
15.983,-0.270,-0.010
15.986,-0.270,-0.020
15.989,-0.270,-0.030
15.992,-0.290,-0.035
15.994,-0.270,-0.010
15.997,-0.270,-0.015
16.000,-0.280,-0.010
16.003,-0.280,-0.010
16.006,-0.280,-0.030
16.008,-0.290,-0.020
16.011,-0.275,-0.015
16.014,-0.260,-0.020
16.017,-0.260,-0.025
16.019,-0.270,-0.030
16.022,-0.270,-0.040
16.025,-0.285,-0.025
16.028,-0.265,-0.005
16.031,-0.270,0.000
16.033,-0.255,-0.010
16.036,-0.255,-0.025
16.039,-0.270,-0.035
16.042,-0.275,-0.040
16.044,-0.275,-0.030
16.047,-0.265,-0.010
16.050,-0.265,-0.020
16.053,-0.270,-0.020
16.056,-0.275,-0.020
16.058,-0.285,-0.030
16.061,-0.295,-0.030
16.064,-0.285,-0.020
16.067,-0.260,-0.030
16.069,-0.250,-0.030
16.072,-0.275,-0.040
16.075,-0.280,-0.035
16.078,-0.275,-0.030
16.081,-0.280,-0.015
16.083,-0.255,-0.030
16.086,-0.255,-0.040
16.089,-0.265,-0.040
16.092,-0.280,-0.045
16.094,-0.275,-0.030
16.097,-0.265,-0.020
16.100,-0.260,-0.025
16.103,-0.275,-0.035
16.106,-0.270,-0.035
16.108,-0.275,-0.040
16.111,-0.280,-0.040
16.114,-0.260,-0.030
16.117,-0.260,-0.020
16.119,-0.265,-0.040
16.122,-0.265,-0.035
16.125,-0.265,-0.035
16.128,-0.245,-0.025
16.131,-0.235,-0.015
16.133,-0.235,-0.015
16.136,-0.250,-0.035
16.139,-0.270,-0.040
16.142,-0.280,-0.040
16.144,-0.275,-0.015
16.147,-0.260,-0.010
16.150,-0.250,-0.025
16.153,-0.250,-0.035
16.156,-0.260,-0.035
16.158,-0.265,-0.065
16.161,-0.270,-0.035
16.164,-0.250,-0.030
16.167,-0.240,-0.025
16.169,-0.260,-0.030
16.172,-0.260,-0.040
16.175,-0.280,-0.040
16.178,-0.270,-0.030
16.181,-0.265,-0.010
16.183,-0.255,-0.020
16.186,-0.255,-0.030
16.189,-0.260,-0.030
16.192,-0.265,-0.045
16.194,-0.265,-0.030
16.197,-0.250,-0.010
16.200,-0.260,-0.020
16.203,-0.265,-0.030
16.206,-0.270,-0.040
16.208,-0.275,-0.045
16.211,-0.255,-0.030
16.214,-0.250,-0.020
16.217,-0.245,-0.020
16.219,-0.260,-0.030
16.222,-0.255,-0.030
16.225,-0.265,-0.040
16.228,-0.255,-0.030
16.231,-0.255,-0.010
16.233,-0.255,-0.030
16.236,-0.265,-0.035
16.239,-0.255,-0.040
16.242,-0.265,-0.035
16.244,-0.260,-0.025
16.247,-0.245,0.010
16.250,-0.220,0.020
16.253,-0.220,0.020
16.256,-0.225,0.030
16.258,-0.210,0.045
16.261,-0.195,0.035
16.264,-0.170,0.050
16.267,-0.160,0.035
16.269,-0.150,0.040
16.272,-0.180,0.030
16.275,-0.175,0.020
16.278,-0.160,0.005
16.281,-0.125,-0.005
16.283,-0.100,-0.015
16.286,-0.100,-0.020
16.289,-0.100,-0.040
16.292,-0.105,-0.035
16.294,-0.095,-0.010
16.297,-0.085,0.000
16.300,-0.080,-0.015
16.303,-0.080,-0.035
16.306,-0.070,-0.035
16.308,-0.080,-0.040
16.311,-0.090,-0.030
16.314,-0.095,0.000
16.317,-0.105,-0.005
16.319,-0.100,-0.020
16.322,-0.110,-0.045
16.325,-0.160,-0.055
16.328,-0.180,-0.055
16.331,-0.225,-0.040
16.333,-0.275,-0.045
16.336,-0.310,-0.040
16.339,-0.320,-0.045
16.342,-0.315,-0.050
16.344,-0.315,-0.035
16.347,-0.310,-0.035
16.350,-0.300,-0.050
16.353,-0.315,-0.050
16.356,-0.330,-0.065
16.358,-0.335,-0.065
16.361,-0.320,-0.050
16.364,-0.315,-0.030
16.367,-0.315,-0.025
16.369,-0.315,-0.055
16.372,-0.325,-0.060
16.375,-0.330,-0.050
16.378,-0.335,-0.045
16.381,-0.315,-0.025
16.383,-0.310,-0.025
16.386,-0.300,-0.035
16.389,-0.300,-0.060
16.392,-0.295,-0.055
16.394,-0.295,-0.050
16.397,-0.290,-0.045
16.400,-0.265,-0.055
16.403,-0.275,-0.075
16.406,-0.295,-0.075
16.408,-0.305,-0.075
16.411,-0.300,-0.055
16.414,-0.300,-0.045
16.417,-0.295,-0.055
16.419,-0.270,-0.085
16.422,-0.225,-0.145
16.425,-0.130,-0.185
16.428,0.030,-0.265
16.431,0.200,-0.330
16.433,0.370,-0.425
16.436,0.555,-0.495
16.439,0.755,-0.540
16.442,0.910,-0.500
16.444,1.055,-0.440
16.447,1.150,-0.390
16.450,1.215,-0.360
16.453,1.180,-0.375
16.456,1.060,-0.370
16.458,0.895,-0.315
16.461,0.785,-0.255
16.464,0.710,-0.220
16.467,0.640,-0.185
16.469,0.505,-0.145
16.472,0.345,-0.125
16.475,0.200,-0.105
16.478,0.110,-0.065
16.481,0.035,-0.030
16.483,-0.060,-0.020
16.486,-0.165,-0.010
16.489,-0.250,0.005
16.492,-0.320,0.005
16.494,-0.370,0.045
16.497,-0.400,0.060
16.500,-0.430,0.065
16.503,-0.460,0.050
16.506,-0.470,0.060
16.508,-0.495,0.045
16.511,-0.520,0.050
16.514,-0.520,0.065
16.517,-0.535,0.050
16.519,-0.510,0.055
16.522,-0.525,0.045
16.525,-0.530,0.040
16.528,-0.540,0.055
16.531,-0.530,0.070
16.533,-0.510,0.065
16.536,-0.510,0.055
16.539,-0.510,0.055
16.542,-0.505,0.050
16.544,-0.510,0.065
16.547,-0.515,0.075
16.550,-0.500,0.065
16.553,-0.505,0.065
16.556,-0.495,0.060
16.558,-0.510,0.050
16.561,-0.495,0.060
16.564,-0.500,0.070
16.567,-0.485,0.070
16.569,-0.505,0.065
16.572,-0.510,0.055
16.575,-0.520,0.060
16.578,-0.510,0.075
16.581,-0.510,0.085
16.583,-0.475,0.080
16.586,-0.490,0.060
16.589,-0.495,0.060
16.592,-0.510,0.065
16.594,-0.505,0.070
16.597,-0.485,0.080
16.600,-0.490,0.070
16.603,-0.485,0.075
16.606,-0.485,0.065
16.608,-0.495,0.065
16.611,-0.490,0.080
16.614,-0.470,0.100
16.617,-0.470,0.090
16.619,-0.460,0.090
16.622,-0.465,0.090
16.625,-0.475,0.090
16.628,-0.465,0.105
16.631,-0.450,0.100
16.633,-0.450,0.105
16.636,-0.450,0.090
16.639,-0.455,0.090
16.642,-0.460,0.090
16.644,-0.435,0.105
16.647,-0.420,0.115
16.650,-0.400,0.115
16.653,-0.405,0.105
16.656,-0.410,0.095
16.658,-0.400,0.095
16.661,-0.375,0.120
16.664,-0.350,0.145
16.667,-0.320,0.130
16.669,-0.320,0.125
16.672,-0.320,0.115
16.675,-0.330,0.105
16.678,-0.290,0.120
16.681,-0.270,0.130
16.683,-0.255,0.115
16.686,-0.245,0.120
16.689,-0.235,0.115
16.692,-0.230,0.125
16.694,-0.210,0.125
16.697,-0.180,0.140
16.700,-0.165,0.125
16.703,-0.145,0.125
16.706,-0.135,0.115
16.708,-0.135,0.120
16.711,-0.120,0.135
16.714,-0.105,0.140
16.717,-0.090,0.140
16.719,-0.080,0.125
16.722,-0.080,0.100
16.725,-0.080,0.100
16.728,-0.055,0.105
16.731,-0.040,0.125
16.733,-0.040,0.115
16.736,-0.035,0.110
16.739,-0.045,0.085
16.742,-0.055,0.085
16.744,-0.055,0.090
16.747,-0.045,0.100
16.750,-0.070,0.095
16.753,-0.070,0.080
16.756,-0.085,0.075
16.758,-0.095,0.065
16.761,-0.100,0.080
16.764,-0.100,0.090
16.767,-0.110,0.075
16.769,-0.125,0.050
16.772,-0.145,0.050
16.775,-0.170,0.050
16.778,-0.175,0.055
16.781,-0.175,0.070
16.783,-0.180,0.070
16.786,-0.190,0.055
16.789,-0.200,0.055
16.792,-0.225,0.065
16.794,-0.225,0.070
16.797,-0.225,0.085
16.800,-0.230,0.070
16.803,-0.240,0.055
16.806,-0.250,0.055
16.808,-0.260,0.045
16.811,-0.275,0.065
16.814,-0.280,0.055
16.817,-0.280,0.055
16.819,-0.280,0.055
16.822,-0.285,0.030
16.825,-0.305,0.030
16.828,-0.300,0.040
16.831,-0.300,0.060
16.833,-0.300,0.055
16.836,-0.310,0.050
16.839,-0.320,0.030
16.842,-0.315,0.040
16.844,-0.320,0.045
16.847,-0.310,0.045
16.850,-0.325,0.030
16.853,-0.345,0.025
16.856,-0.335,0.015
16.858,-0.325,0.015
16.861,-0.320,0.020
16.864,-0.320,0.015
16.867,-0.320,0.010
16.869,-0.330,0.015
16.872,-0.330,0.000
16.875,-0.350,0.000
16.878,-0.330,0.005
16.881,-0.325,0.015
16.883,-0.325,0.000
16.886,-0.330,0.005
16.889,-0.340,-0.010
16.892,-0.345,-0.005
16.894,-0.345,-0.020
16.897,-0.330,0.015
16.900,-0.325,-0.005
16.903,-0.345,0.000
16.906,-0.345,-0.005
16.908,-0.345,-0.020
16.911,-0.345,-0.010
16.914,-0.325,0.010
16.917,-0.330,-0.005
16.919,-0.335,-0.020
16.922,-0.335,-0.025
16.925,-0.345,-0.015
16.928,-0.335,-0.005
16.931,-0.325,0.015
16.933,-0.315,-0.005
16.936,-0.325,-0.005
16.939,-0.320,-0.015
16.942,-0.320,-0.025
16.944,-0.320,-0.015
16.947,-0.320,0.010
16.950,-0.320,-0.015
16.953,-0.325,-0.015
16.956,-0.325,-0.030
16.958,-0.325,-0.020
16.961,-0.315,-0.010
16.964,-0.305,0.000
16.967,-0.310,0.000
16.969,-0.320,-0.015
16.972,-0.320,-0.020
16.975,-0.335,-0.015
16.978,-0.325,-0.015
16.981,-0.315,0.010
16.983,-0.300,-0.005
16.986,-0.310,0.000
16.989,-0.315,0.000
16.992,-0.310,0.010
16.994,-0.305,0.030
16.997,-0.275,0.050
17.000,-0.260,0.055
17.003,-0.250,0.055
17.006,-0.240,0.050
17.008,-0.235,0.040
17.011,-0.235,0.055
17.014,-0.230,0.060
17.017,-0.220,0.050
17.019,-0.205,0.035
17.022,-0.185,0.015
17.025,-0.180,0.015
17.028,-0.175,0.010
17.031,-0.145,0.025
17.033,-0.145,0.020
17.036,-0.135,0.020
17.039,-0.120,-0.005
17.042,-0.115,-0.020
17.044,-0.100,-0.020
17.047,-0.095,-0.020
17.050,-0.100,-0.010
17.053,-0.105,-0.015
17.056,-0.135,-0.025
17.058,-0.140,-0.020
17.061,-0.160,-0.030
17.064,-0.135,-0.035
17.067,-0.150,-0.035
17.069,-0.185,-0.055
17.072,-0.230,-0.060
17.075,-0.290,-0.065
17.078,-0.320,-0.050
17.081,-0.330,-0.035
17.083,-0.335,-0.040
17.086,-0.340,-0.050
17.089,-0.360,-0.050
17.092,-0.385,-0.045
17.094,-0.380,-0.045
17.097,-0.375,-0.040
17.100,-0.360,-0.055
17.103,-0.360,-0.055
17.106,-0.370,-0.065
17.108,-0.375,-0.065
