'Elapsed time','MLII','V1'
'seconds','mV','mV'
0.000,-0.310,0.195
0.003,-0.310,0.195
0.006,-0.310,0.195
0.008,-0.310,0.195
0.011,-0.310,0.195
0.014,-0.310,0.195
0.017,-0.310,0.195
0.019,-0.310,0.195
0.022,-0.290,0.195
0.025,-0.285,0.175
0.028,-0.295,0.175
0.031,-0.315,0.170
0.033,-0.305,0.170
0.036,-0.300,0.185
0.039,-0.280,0.185
0.042,-0.275,0.175
0.044,-0.275,0.170
0.047,-0.270,0.170
0.050,-0.260,0.195
0.053,-0.240,0.210
0.056,-0.225,0.205
0.058,-0.215,0.205
0.061,-0.205,0.160
0.064,-0.220,0.120
0.067,-0.205,0.115
0.069,-0.170,0.120
0.072,-0.150,0.145
0.075,-0.155,0.145
0.078,-0.140,0.145
0.081,-0.130,0.125
0.083,-0.115,0.120
0.086,-0.075,0.140
0.089,-0.050,0.135
0.092,-0.060,0.130
0.094,-0.050,0.130
0.097,-0.040,0.125
0.100,-0.015,0.145
0.103,0.005,0.145
0.106,0.030,0.150
0.108,0.045,0.125
0.111,0.070,0.110
0.114,0.080,0.120
0.117,0.105,0.145
0.119,0.130,0.170
0.122,0.185,0.170
0.125,0.225,0.165
0.128,0.255,0.155
0.131,0.270,0.130
0.133,0.305,0.120
0.136,0.345,0.120
0.139,0.400,0.115
0.142,0.430,0.105
0.144,0.460,0.080
0.147,0.460,0.065
0.150,0.475,0.085
0.153,0.520,0.090
0.156,0.555,0.110
0.158,0.585,0.100
0.161,0.575,0.095
0.164,0.575,0.095
0.167,0.565,0.105
0.169,0.570,0.125
0.172,0.560,0.115
0.175,0.550,0.120
0.178,0.530,0.115
0.181,0.485,0.125
0.183,0.480,0.140
0.186,0.465,0.155
0.189,0.460,0.150
0.192,0.420,0.110
0.194,0.385,0.105
0.197,0.355,0.085
0.200,0.305,0.080
0.203,0.285,0.100
0.206,0.255,0.100
0.208,0.210,0.115
0.211,0.165,0.115
0.214,0.120,0.130
0.217,0.105,0.150
0.219,0.085,0.170
0.222,0.075,0.160
0.225,0.040,0.135
0.228,0.005,0.115
0.231,-0.040,0.100
0.233,-0.045,0.090
0.236,-0.055,0.100
0.239,-0.040,0.105
0.242,-0.070,0.105
0.244,-0.100,0.105
0.247,-0.125,0.115
0.250,-0.135,0.150
0.253,-0.140,0.175
0.256,-0.155,0.145
0.258,-0.190,0.120
0.261,-0.190,0.095
0.264,-0.195,0.100
0.267,-0.205,0.135
0.269,-0.200,0.145
0.272,-0.215,0.165
0.275,-0.250,0.150
0.278,-0.285,0.120
0.281,-0.295,0.105
0.283,-0.290,0.115
0.286,-0.285,0.140
0.289,-0.265,0.145
0.292,-0.270,0.135
0.294,-0.285,0.120
0.297,-0.330,0.130
0.300,-0.350,0.135
0.303,-0.350,0.165
0.306,-0.310,0.170
0.308,-0.300,0.170
0.311,-0.305,0.165
0.314,-0.330,0.150
0.317,-0.350,0.145
0.319,-0.340,0.140
0.322,-0.335,0.130
0.325,-0.335,0.110
0.328,-0.330,0.100
0.331,-0.340,0.115
0.333,-0.345,0.120
0.336,-0.335,0.150
0.339,-0.335,0.170
0.342,-0.330,0.200
0.344,-0.325,0.190
0.347,-0.340,0.175
0.350,-0.340,0.165
0.353,-0.335,0.170
0.356,-0.315,0.165
0.358,-0.310,0.150
0.361,-0.315,0.105
0.364,-0.330,0.110
0.367,-0.320,0.110
0.369,-0.315,0.125
0.372,-0.280,0.120
0.375,-0.275,0.110
0.378,-0.280,0.095
0.381,-0.280,0.115
0.383,-0.275,0.155
0.386,-0.250,0.195
0.389,-0.230,0.180
0.392,-0.230,0.150
0.394,-0.245,0.115
0.397,-0.260,0.085
0.400,-0.250,0.095
0.403,-0.235,0.105
0.406,-0.215,0.125
0.408,-0.210,0.100
0.411,-0.250,0.105
0.414,-0.285,0.110
0.417,-0.280,0.135
0.419,-0.245,0.160
0.422,-0.235,0.145
0.425,-0.235,0.125
0.428,-0.260,0.080
0.431,-0.255,0.075
0.433,-0.260,0.100
0.436,-0.245,0.125
0.439,-0.215,0.125
0.442,-0.230,0.130
0.444,-0.245,0.125
0.447,-0.275,0.130
0.450,-0.295,0.145
0.453,-0.280,0.160
0.456,-0.255,0.145
0.458,-0.250,0.135
0.461,-0.265,0.110
0.464,-0.300,0.100
0.467,-0.290,0.115
0.469,-0.290,0.135
0.472,-0.260,0.145
0.475,-0.265,0.110
0.478,-0.275,0.100
0.481,-0.280,0.095
0.483,-0.285,0.090
0.486,-0.265,0.115
0.489,-0.240,0.125
0.492,-0.265,0.140
0.494,-0.295,0.140
0.497,-0.330,0.130
0.500,-0.340,0.130
0.503,-0.295,0.115
0.506,-0.285,0.105
0.508,-0.295,0.120
0.511,-0.330,0.095
0.514,-0.345,0.105
0.517,-0.345,0.120
0.519,-0.320,0.120
0.522,-0.310,0.105
0.525,-0.335,0.085
0.528,-0.340,0.075
0.531,-0.350,0.080
0.533,-0.340,0.115
0.536,-0.350,0.155
0.539,-0.315,0.160
0.542,-0.335,0.160
0.544,-0.345,0.130
0.547,-0.325,0.095
0.550,-0.320,0.070
0.553,-0.300,0.095
0.556,-0.305,0.105
0.558,-0.305,0.105
0.561,-0.325,0.090
0.564,-0.355,0.080
0.567,-0.370,0.100
0.569,-0.350,0.105
0.572,-0.345,0.120
0.575,-0.325,0.115
0.578,-0.355,0.100
0.581,-0.365,0.090
0.583,-0.355,0.105
0.586,-0.365,0.120
0.589,-0.350,0.140
0.592,-0.345,0.130
0.594,-0.340,0.120
0.597,-0.355,0.110
0.600,-0.350,0.100
0.603,-0.340,0.085
0.606,-0.345,0.095
0.608,-0.345,0.090
0.611,-0.360,0.090
0.614,-0.360,0.090
0.617,-0.355,0.090
0.619,-0.340,0.095
0.622,-0.330,0.100
0.625,-0.340,0.090
0.628,-0.350,0.085
0.631,-0.370,0.065
0.633,-0.360,0.100
0.636,-0.345,0.105
0.639,-0.360,0.110
0.642,-0.370,0.115
0.644,-0.370,0.110
0.647,-0.370,0.105
0.650,-0.375,0.110
0.653,-0.360,0.125
0.656,-0.355,0.115
0.658,-0.355,0.110
0.661,-0.365,0.090
0.664,-0.390,0.095
0.667,-0.390,0.095
0.669,-0.380,0.120
0.672,-0.365,0.125
0.675,-0.385,0.110
0.678,-0.380,0.105
0.681,-0.375,0.100
0.683,-0.375,0.090
0.686,-0.355,0.090
0.689,-0.340,0.100
0.692,-0.335,0.080
0.694,-0.335,0.060
0.697,-0.350,0.050
0.700,-0.365,0.060
0.703,-0.375,0.090
0.706,-0.365,0.095
0.708,-0.370,0.100
0.711,-0.375,0.095
0.714,-0.395,0.105
0.717,-0.400,0.120
0.719,-0.380,0.135
0.722,-0.350,0.125
0.725,-0.345,0.105
0.728,-0.345,0.075
0.731,-0.350,0.065
0.733,-0.360,0.085
0.736,-0.355,0.110
0.739,-0.345,0.115
0.742,-0.365,0.110
0.744,-0.395,0.075
0.747,-0.400,0.050
0.750,-0.395,0.050
0.753,-0.350,0.065
0.756,-0.325,0.070
0.758,-0.335,0.075
0.761,-0.350,0.075
0.764,-0.385,0.090
0.767,-0.370,0.110
0.769,-0.360,0.135
0.772,-0.345,0.145
0.775,-0.330,0.120
0.778,-0.335,0.090
0.781,-0.340,0.055
0.783,-0.360,0.065
0.786,-0.340,0.065
0.789,-0.335,0.060
0.792,-0.345,0.075
0.794,-0.390,0.090
0.797,-0.400,0.075
0.800,-0.395,0.080
0.803,-0.360,0.075
0.806,-0.345,0.095
0.808,-0.345,0.090
0.811,-0.345,0.090
0.814,-0.340,0.100
0.817,-0.350,0.120
0.819,-0.315,0.120
0.822,-0.290,0.090
0.825,-0.300,0.070
0.828,-0.320,0.055
0.831,-0.325,0.060
0.833,-0.305,0.070
0.836,-0.310,0.100
0.839,-0.280,0.110
0.842,-0.265,0.140
0.844,-0.245,0.175
0.847,-0.235,0.175
0.850,-0.185,0.160
0.853,-0.100,0.125
0.856,-0.005,0.060
0.858,0.035,0.010
0.861,0.010,-0.015
0.864,-0.030,0.000
0.867,-0.070,0.040
0.869,-0.090,0.075
0.872,-0.100,0.095
0.875,-0.115,0.090
0.878,-0.135,0.065
0.881,-0.160,0.060
0.883,-0.185,0.065
0.886,-0.180,0.065
0.889,-0.185,0.075
0.892,-0.225,0.070
0.894,-0.235,0.040
0.897,-0.260,0.035
0.900,-0.290,0.040
0.903,-0.305,0.060
0.906,-0.315,0.085
0.908,-0.360,0.085
0.911,-0.385,0.090
0.914,-0.385,0.080
0.917,-0.380,0.095
0.919,-0.355,0.110
0.922,-0.335,0.105
0.925,-0.320,0.090
0.928,-0.320,0.065
0.931,-0.335,0.045
0.933,-0.330,0.040
0.936,-0.335,0.070
0.939,-0.330,0.075
0.942,-0.340,0.045
0.944,-0.370,0.040
0.947,-0.425,0.005
0.950,-0.465,0.025
0.953,-0.460,0.055
0.956,-0.320,0.090
0.958,-0.035,0.075
0.961,0.400,0.035
0.964,0.895,0.015
0.967,1.335,0.035
0.969,1.685,0.100
0.972,1.900,0.165
0.975,2.010,0.200
0.978,1.980,0.215
0.981,1.815,0.195
0.983,1.470,0.160
0.986,0.940,0.100
0.989,0.300,0.080
0.992,-0.340,0.050
0.994,-0.765,-0.010
0.997,-0.725,-0.075
1.000,-0.550,-0.115
1.003,-0.450,-0.145
1.006,-0.445,-0.140
1.008,-0.460,-0.105
1.011,-0.455,-0.075
1.014,-0.435,-0.040
1.017,-0.415,0.000
1.019,-0.390,0.030
1.022,-0.395,0.050
1.025,-0.415,0.045
1.028,-0.435,0.050
1.031,-0.450,0.060
1.033,-0.440,0.075
1.036,-0.415,0.080
1.039,-0.405,0.070
1.042,-0.415,0.050
1.044,-0.425,0.035
1.047,-0.430,0.045
1.050,-0.430,0.055
1.053,-0.435,0.070
1.056,-0.425,0.080
1.058,-0.420,0.080
1.061,-0.420,0.065
1.064,-0.415,0.085
1.067,-0.410,0.085
1.069,-0.410,0.090
1.072,-0.390,0.090
1.075,-0.390,0.080
1.078,-0.415,0.075
1.081,-0.430,0.080
1.083,-0.455,0.095
1.086,-0.410,0.120
1.089,-0.385,0.145
1.092,-0.380,0.160
1.094,-0.390,0.150
1.097,-0.385,0.120
1.100,-0.380,0.075
1.103,-0.385,0.035
1.106,-0.355,0.040
1.108,-0.355,0.050
1.111,-0.350,0.035
1.114,-0.350,0.050
1.117,-0.360,0.055
1.119,-0.345,0.070
1.122,-0.315,0.075
1.125,-0.290,0.065
1.128,-0.290,0.050
1.131,-0.320,0.050
1.133,-0.300,0.085
1.136,-0.275,0.110
1.139,-0.255,0.110
1.142,-0.245,0.110
1.144,-0.255,0.090
1.147,-0.250,0.075
1.150,-0.225,0.085
1.153,-0.215,0.100
1.156,-0.220,0.095
1.158,-0.190,0.085
1.161,-0.160,0.050
1.164,-0.115,0.035
1.167,-0.075,0.030
1.169,-0.070,0.055
1.172,-0.085,0.065
1.175,-0.095,0.075
1.178,-0.095,0.070
1.181,-0.070,0.055
1.183,-0.020,0.065
1.186,0.010,0.070
1.189,0.035,0.060
1.192,0.015,0.055
1.194,0.015,0.050
1.197,0.040,0.060
1.200,0.100,0.065
1.203,0.145,0.070
1.206,0.195,0.070
1.208,0.235,0.060
1.211,0.250,0.025
1.214,0.270,0.045
1.217,0.300,0.055
1.219,0.355,0.070
1.222,0.420,0.070
1.225,0.465,0.035
1.228,0.495,0.000
1.231,0.515,-0.015
1.233,0.525,0.015
1.236,0.555,0.035
1.239,0.600,0.035
1.242,0.640,0.040
1.244,0.650,0.005
1.247,0.625,0.005
1.250,0.615,0.020
1.253,0.605,0.045
1.256,0.645,0.050
1.258,0.640,0.065
1.261,0.600,0.080
1.264,0.535,0.120
1.267,0.525,0.165
1.269,0.550,0.175
1.272,0.565,0.135
1.275,0.540,0.080
1.278,0.520,0.000
1.281,0.490,-0.055
1.283,0.450,-0.060
1.286,0.415,-0.030
1.289,0.365,0.000
1.292,0.295,0.030
1.294,0.260,0.030
1.297,0.245,0.030
1.300,0.215,0.035
1.303,0.165,0.075
1.306,0.150,0.075
1.308,0.115,0.080
1.311,0.085,0.050
1.314,0.060,0.050
1.317,0.025,0.070
1.319,0.030,0.125
1.322,0.030,0.125
1.325,0.000,0.115
1.328,-0.040,0.100
1.331,-0.060,0.065
1.333,-0.095,0.055
1.336,-0.075,0.050
1.339,-0.070,0.030
1.342,-0.075,0.005
1.344,-0.105,-0.015
1.347,-0.130,-0.030
1.350,-0.140,0.005
1.353,-0.150,0.040
1.356,-0.135,0.070
1.358,-0.170,0.055
1.361,-0.195,0.040
1.364,-0.210,0.050
1.367,-0.210,0.055
1.369,-0.195,0.055
1.372,-0.210,0.055
1.375,-0.210,0.055
1.378,-0.225,0.065
1.381,-0.245,0.095
1.383,-0.260,0.125
1.386,-0.250,0.120
1.389,-0.240,0.105
1.392,-0.240,0.055
1.394,-0.245,0.035
1.397,-0.250,0.050
1.400,-0.255,0.075
1.403,-0.250,0.095
1.406,-0.230,0.095
1.408,-0.225,0.060
1.411,-0.225,0.030
1.414,-0.205,0.010
1.417,-0.200,0.010
1.419,-0.215,0.030
1.422,-0.250,0.060
1.425,-0.285,0.070
1.428,-0.275,0.065
1.431,-0.255,0.045
1.433,-0.245,0.045
1.436,-0.220,0.065
1.439,-0.210,0.090
1.442,-0.235,0.085
1.444,-0.260,0.070
1.447,-0.265,0.070
1.450,-0.260,0.080
1.453,-0.230,0.105
1.456,-0.185,0.100
1.458,-0.160,0.065
1.461,-0.190,0.065
1.464,-0.190,0.060
1.467,-0.175,0.065
1.469,-0.160,0.065
1.472,-0.145,0.070
1.475,-0.145,0.075
1.478,-0.155,0.085
1.481,-0.160,0.070
1.483,-0.150,0.070
1.486,-0.140,0.075
1.489,-0.135,0.080
1.492,-0.130,0.065
1.494,-0.140,0.040
1.497,-0.155,0.035
1.500,-0.170,0.035
1.503,-0.160,0.050
1.506,-0.155,0.055
1.508,-0.165,0.050
1.511,-0.170,0.035
1.514,-0.170,0.015
1.517,-0.165,0.025
1.519,-0.155,0.035
1.522,-0.125,0.045
1.525,-0.130,0.030
1.528,-0.170,0.030
1.531,-0.205,0.050
1.533,-0.220,0.055
1.536,-0.210,0.070
1.539,-0.195,0.075
1.542,-0.205,0.075
1.544,-0.210,0.050
1.547,-0.210,0.045
1.550,-0.185,0.070
1.553,-0.175,0.070
1.556,-0.180,0.095
1.558,-0.195,0.090
1.561,-0.200,0.080
1.564,-0.215,0.070
1.567,-0.235,0.075
1.569,-0.225,0.075
1.572,-0.210,0.080
1.575,-0.225,0.080
1.578,-0.245,0.075
1.581,-0.245,0.060
1.583,-0.250,0.050
1.586,-0.255,0.075
1.589,-0.245,0.100
1.592,-0.270,0.125
1.594,-0.270,0.125
1.597,-0.250,0.120
1.600,-0.255,0.105
1.603,-0.245,0.075
1.606,-0.215,0.035
1.608,-0.215,0.010
1.611,-0.245,0.005
1.614,-0.270,0.005
1.617,-0.290,0.025
1.619,-0.285,0.030
1.622,-0.240,0.030
1.625,-0.235,0.010
1.628,-0.255,0.015
1.631,-0.275,0.035
1.633,-0.320,0.030
1.636,-0.305,0.045
1.639,-0.265,0.045
1.642,-0.255,0.040
1.644,-0.260,0.025
1.647,-0.290,0.045
1.650,-0.335,0.055
1.653,-0.310,0.070
1.656,-0.265,0.075
1.658,-0.270,0.075
1.661,-0.305,0.090
1.664,-0.335,0.080
1.667,-0.335,0.075
1.669,-0.315,0.070
1.672,-0.295,0.055
1.675,-0.290,0.035
1.678,-0.300,0.030
1.681,-0.310,0.020
1.683,-0.310,0.050
1.686,-0.300,0.065
1.689,-0.295,0.070
1.692,-0.285,0.070
1.694,-0.290,0.070
1.697,-0.310,0.070
1.700,-0.320,0.095
1.703,-0.300,0.115
1.706,-0.285,0.110
1.708,-0.295,0.095
1.711,-0.300,0.075
1.714,-0.320,0.070
1.717,-0.345,0.070
1.719,-0.300,0.070
1.722,-0.295,0.070
1.725,-0.300,0.065
1.728,-0.305,0.055
1.731,-0.305,0.045
1.733,-0.315,0.055
1.736,-0.310,0.085
1.739,-0.295,0.095
1.742,-0.290,0.085
1.744,-0.320,0.065
1.747,-0.310,0.045
1.750,-0.315,0.050
1.753,-0.285,0.065
1.756,-0.270,0.070
1.758,-0.265,0.050
1.761,-0.275,0.030
1.764,-0.280,0.035
1.767,-0.300,0.065
1.769,-0.335,0.095
1.772,-0.325,0.115
1.775,-0.325,0.100
1.778,-0.325,0.070
1.781,-0.330,0.075
1.783,-0.340,0.105
1.786,-0.310,0.120
1.789,-0.295,0.110
1.792,-0.290,0.090
1.794,-0.290,0.055
1.797,-0.280,0.050
1.800,-0.275,0.065
1.803,-0.270,0.085
1.806,-0.260,0.105
1.808,-0.270,0.090
1.811,-0.295,0.070
1.814,-0.310,0.075
1.817,-0.310,0.090
1.819,-0.295,0.105
1.822,-0.275,0.110
1.825,-0.285,0.100
1.828,-0.315,0.085
1.831,-0.315,0.080
1.833,-0.310,0.085
1.836,-0.295,0.085
1.839,-0.280,0.075
1.842,-0.280,0.055
1.844,-0.285,0.045
1.847,-0.290,0.025
1.850,-0.295,0.040
1.853,-0.285,0.060
1.856,-0.285,0.085
1.858,-0.260,0.080
1.861,-0.275,0.085
1.864,-0.290,0.090
1.867,-0.280,0.115
1.869,-0.285,0.165
1.872,-0.235,0.165
1.875,-0.210,0.150
1.878,-0.185,0.130
1.881,-0.175,0.120
1.883,-0.150,0.130
1.886,-0.110,0.140
1.889,-0.085,0.150
1.892,-0.025,0.125
1.894,0.025,0.070
1.897,0.060,0.040
1.900,0.050,0.030
1.903,0.030,0.035
1.906,-0.005,0.060
1.908,-0.045,0.085
1.911,-0.095,0.090
1.914,-0.115,0.085
1.917,-0.110,0.065
1.919,-0.110,0.050
1.922,-0.090,0.040
1.925,-0.100,0.030
1.928,-0.135,0.035
1.931,-0.180,0.050
1.933,-0.225,0.065
1.936,-0.240,0.085
1.939,-0.230,0.075
1.942,-0.255,0.070
1.944,-0.285,0.055
1.947,-0.310,0.055
1.950,-0.310,0.050
1.953,-0.280,0.065
1.956,-0.260,0.065
1.958,-0.270,0.070
1.961,-0.285,0.070
1.964,-0.320,0.085
1.967,-0.320,0.085
1.969,-0.300,0.090
1.972,-0.260,0.100
1.975,-0.265,0.085
1.978,-0.300,0.080
1.981,-0.370,0.065
1.983,-0.415,0.055
1.986,-0.450,0.055
1.989,-0.435,0.060
1.992,-0.345,0.070
1.994,-0.130,0.055
1.997,0.280,0.030
2.000,0.790,0.010
2.003,1.290,0.030
2.006,1.650,0.090
2.008,1.865,0.145
2.011,1.995,0.185
2.014,2.030,0.225
2.017,1.970,0.250
2.019,1.805,0.240
2.022,1.440,0.185
2.025,0.800,0.115
2.028,0.160,0.035
2.031,-0.480,-0.040
2.033,-0.740,-0.085
2.036,-0.535,-0.130
2.039,-0.355,-0.160
2.042,-0.330,-0.170
2.044,-0.360,-0.130
2.047,-0.390,-0.080
2.050,-0.365,-0.015
2.053,-0.340,0.025
2.056,-0.295,0.060
2.058,-0.320,0.065
2.061,-0.365,0.060
2.064,-0.420,0.085
2.067,-0.425,0.100
2.069,-0.410,0.115
2.072,-0.395,0.110
2.075,-0.395,0.100
2.078,-0.405,0.095
2.081,-0.415,0.105
2.083,-0.420,0.105
2.086,-0.410,0.125
2.089,-0.395,0.130
2.092,-0.405,0.120
2.094,-0.405,0.105
2.097,-0.415,0.120
2.100,-0.400,0.135
2.103,-0.370,0.145
2.106,-0.360,0.145
2.108,-0.355,0.125
2.111,-0.365,0.120
2.114,-0.390,0.125
2.117,-0.390,0.150
2.119,-0.375,0.165
2.122,-0.335,0.175
2.125,-0.325,0.140
2.128,-0.340,0.105
2.131,-0.365,0.080
2.133,-0.370,0.095
2.136,-0.340,0.115
2.139,-0.315,0.125
2.142,-0.300,0.125
2.144,-0.310,0.110
2.147,-0.305,0.090
2.150,-0.300,0.095
2.153,-0.290,0.125
2.156,-0.265,0.145
2.158,-0.255,0.125
2.161,-0.260,0.110
2.164,-0.260,0.115
2.167,-0.255,0.130
2.169,-0.275,0.165
2.172,-0.255,0.170
2.175,-0.240,0.170
2.178,-0.245,0.140
2.181,-0.220,0.125
2.183,-0.200,0.115
2.186,-0.160,0.120
2.189,-0.150,0.120
2.192,-0.150,0.115
2.194,-0.145,0.145
2.197,-0.135,0.140
2.200,-0.115,0.135
2.203,-0.100,0.135
2.206,-0.080,0.110
2.208,-0.045,0.095
2.211,-0.025,0.075
2.214,-0.010,0.075
2.217,0.015,0.075
2.219,0.050,0.095
2.222,0.095,0.085
2.225,0.120,0.075
2.228,0.125,0.055
2.231,0.130,0.060
2.233,0.165,0.075
2.236,0.220,0.100
2.239,0.275,0.115
2.242,0.310,0.105
2.244,0.350,0.085
2.247,0.375,0.080
2.250,0.395,0.080
2.253,0.425,0.095
2.256,0.480,0.105
2.258,0.545,0.095
2.261,0.575,0.070
2.264,0.570,0.070
2.267,0.575,0.070
2.269,0.600,0.075
2.272,0.640,0.075
2.275,0.635,0.075
2.278,0.615,0.060
2.281,0.615,0.045
2.283,0.605,0.030
2.286,0.610,0.020
2.289,0.600,0.040
2.292,0.575,0.055
2.294,0.515,0.040
2.297,0.495,0.035
2.300,0.440,0.055
2.303,0.440,0.080
2.306,0.445,0.080
2.308,0.410,0.095
2.311,0.340,0.090
2.314,0.265,0.065
2.317,0.245,0.065
2.319,0.230,0.090
2.322,0.215,0.105
2.325,0.175,0.100
2.328,0.125,0.110
2.331,0.055,0.105
2.333,0.035,0.085
2.336,0.015,0.110
2.339,0.010,0.130
2.342,-0.015,0.100
2.344,-0.040,0.085
2.347,-0.045,0.055
2.350,-0.070,0.060
2.353,-0.055,0.095
2.356,-0.060,0.100
2.358,-0.090,0.110
2.361,-0.125,0.095
2.364,-0.165,0.095
2.367,-0.210,0.095
2.369,-0.200,0.105
2.372,-0.200,0.115
2.375,-0.205,0.115
2.378,-0.220,0.100
2.381,-0.255,0.105
2.383,-0.255,0.095
2.386,-0.270,0.100
2.389,-0.265,0.105
2.392,-0.255,0.095
2.394,-0.250,0.100
2.397,-0.275,0.105
2.400,-0.285,0.130
2.403,-0.295,0.140
2.406,-0.290,0.130
2.408,-0.275,0.095
2.411,-0.280,0.065
2.414,-0.300,0.060
2.417,-0.310,0.070
2.419,-0.315,0.100
2.422,-0.320,0.110
2.425,-0.285,0.110
2.428,-0.325,0.100
2.431,-0.340,0.105
2.433,-0.355,0.115
2.436,-0.350,0.150
2.439,-0.340,0.160
2.442,-0.335,0.150
2.444,-0.335,0.125
2.447,-0.345,0.115
2.450,-0.325,0.115
2.453,-0.330,0.115
2.456,-0.345,0.135
2.458,-0.345,0.120
2.461,-0.360,0.130
2.464,-0.330,0.140
2.467,-0.320,0.140
2.469,-0.330,0.160
2.472,-0.325,0.145
2.475,-0.330,0.105
2.478,-0.335,0.080
2.481,-0.315,0.095
2.483,-0.310,0.120
2.486,-0.300,0.115
2.489,-0.270,0.105
2.492,-0.270,0.075
2.494,-0.275,0.075
2.497,-0.290,0.070
2.500,-0.295,0.105
2.503,-0.300,0.115
2.506,-0.280,0.115
2.508,-0.295,0.105
2.511,-0.285,0.090
2.514,-0.295,0.090
2.517,-0.280,0.100
2.519,-0.260,0.110
2.522,-0.270,0.115
2.525,-0.285,0.110
2.528,-0.300,0.100
2.531,-0.290,0.105
2.533,-0.290,0.115
2.536,-0.290,0.125
2.539,-0.275,0.135
2.542,-0.300,0.120
2.544,-0.305,0.105
2.547,-0.290,0.095
2.550,-0.290,0.100
2.553,-0.280,0.120
2.556,-0.280,0.125
2.558,-0.270,0.130
2.561,-0.295,0.115
2.564,-0.305,0.120
2.567,-0.320,0.135
2.569,-0.320,0.140
2.572,-0.300,0.135
2.575,-0.290,0.120
2.578,-0.285,0.110
2.581,-0.300,0.095
2.583,-0.305,0.095
2.586,-0.305,0.110
2.589,-0.300,0.110
2.592,-0.315,0.105
2.594,-0.320,0.090
2.597,-0.315,0.095
2.600,-0.325,0.105
2.603,-0.305,0.125
2.606,-0.270,0.120
2.608,-0.275,0.115
2.611,-0.290,0.090
2.614,-0.320,0.100
2.617,-0.320,0.100
2.619,-0.285,0.110
2.622,-0.260,0.115
2.625,-0.300,0.120
2.628,-0.335,0.125
2.631,-0.355,0.140
2.633,-0.340,0.160
2.636,-0.310,0.140
2.639,-0.295,0.135
2.642,-0.295,0.120
2.644,-0.310,0.100
2.647,-0.330,0.105
2.650,-0.355,0.110
2.653,-0.330,0.105
2.656,-0.325,0.105
2.658,-0.315,0.080
2.661,-0.330,0.070
2.664,-0.340,0.080
2.667,-0.340,0.100
2.669,-0.300,0.120
2.672,-0.275,0.125
2.675,-0.295,0.100
2.678,-0.330,0.095
2.681,-0.365,0.075
2.683,-0.360,0.085
2.686,-0.330,0.105
2.689,-0.315,0.100
2.692,-0.310,0.110
2.694,-0.315,0.095
2.697,-0.335,0.090
2.700,-0.340,0.115
2.703,-0.325,0.130
2.706,-0.320,0.130
2.708,-0.310,0.120
2.711,-0.320,0.115
2.714,-0.305,0.095
2.717,-0.310,0.090
2.719,-0.310,0.090
2.722,-0.315,0.085
2.725,-0.315,0.075
2.728,-0.325,0.075
2.731,-0.330,0.075
2.733,-0.345,0.105
2.736,-0.320,0.130
2.739,-0.300,0.130
2.742,-0.300,0.135
2.744,-0.305,0.135
2.747,-0.320,0.150
2.750,-0.320,0.165
2.753,-0.305,0.165
2.756,-0.310,0.145
2.758,-0.340,0.095
2.761,-0.365,0.075
2.764,-0.365,0.085
2.767,-0.340,0.115
2.769,-0.325,0.150
2.772,-0.325,0.170
2.775,-0.310,0.095
2.778,-0.315,0.040
2.781,-0.305,0.015
2.783,-0.290,0.025
2.786,-0.285,0.025
2.789,-0.285,0.025
2.792,-0.310,0.030
2.794,-0.320,0.035
2.797,-0.300,0.065
2.800,-0.290,0.090
2.803,-0.285,0.105
2.806,-0.330,0.100
2.808,-0.350,0.095
2.811,-0.355,0.095
2.814,-0.340,0.115
2.817,-0.320,0.115
2.819,-0.320,0.120
2.822,-0.315,0.115
2.825,-0.330,0.115
2.828,-0.330,0.090
2.831,-0.325,0.080
2.833,-0.295,0.055
2.836,-0.290,0.045
2.839,-0.295,0.040
2.842,-0.280,0.045
2.844,-0.330,0.060
2.847,-0.330,0.100
2.850,-0.330,0.115
2.853,-0.300,0.110
2.856,-0.290,0.085
2.858,-0.290,0.060
2.861,-0.295,0.050
2.864,-0.315,0.070
2.867,-0.325,0.085
2.869,-0.285,0.095
2.872,-0.280,0.085
2.875,-0.260,0.095
2.878,-0.265,0.105
2.881,-0.250,0.120
2.883,-0.205,0.135
2.886,-0.165,0.155
2.889,-0.140,0.165
2.892,-0.135,0.155
2.894,-0.140,0.130
2.897,-0.105,0.125
2.900,-0.075,0.130
2.903,0.010,0.145
2.906,0.035,0.150
2.908,0.035,0.115
2.911,0.025,0.075
2.914,-0.010,0.040
2.917,-0.030,0.045
2.919,-0.070,0.050
2.922,-0.105,0.055
2.925,-0.115,0.055
2.928,-0.125,0.050
2.931,-0.160,0.065
2.933,-0.165,0.085
2.936,-0.170,0.105
2.939,-0.185,0.105
2.942,-0.210,0.105
2.944,-0.250,0.110
2.947,-0.265,0.095
2.950,-0.275,0.090
2.953,-0.275,0.085
2.956,-0.305,0.070
2.958,-0.285,0.065
2.961,-0.275,0.075
2.964,-0.250,0.075
2.967,-0.245,0.075
2.969,-0.260,0.075
2.972,-0.295,0.075
2.975,-0.305,0.080
2.978,-0.325,0.075
2.981,-0.340,0.090
2.983,-0.345,0.100
2.986,-0.360,0.115
2.989,-0.390,0.095
2.992,-0.435,0.060
2.994,-0.430,0.025
2.997,-0.285,0.020
3.000,0.020,0.060
3.003,0.470,0.075
3.006,1.005,0.100
3.008,1.470,0.110
3.011,1.770,0.135
3.014,1.950,0.170
3.017,2.030,0.195
3.019,2.010,0.215
3.022,1.865,0.215
3.025,1.535,0.170
3.028,0.950,0.100
3.031,0.310,0.050
3.033,-0.330,-0.020
3.036,-0.750,-0.070
3.039,-0.615,-0.130
3.042,-0.415,-0.170
3.044,-0.355,-0.165
3.047,-0.385,-0.125
3.050,-0.405,-0.045
3.053,-0.365,0.015
3.056,-0.330,0.050
3.058,-0.335,0.075
3.061,-0.350,0.075
3.064,-0.390,0.100
3.067,-0.410,0.130
3.069,-0.410,0.150
3.072,-0.415,0.150
3.075,-0.390,0.125
3.078,-0.390,0.095
3.081,-0.380,0.085
3.083,-0.385,0.105
3.086,-0.380,0.125
3.089,-0.395,0.125
3.092,-0.415,0.105
3.094,-0.435,0.105
3.097,-0.425,0.120
3.100,-0.405,0.145
3.103,-0.385,0.175
3.106,-0.390,0.155
3.108,-0.395,0.150
3.111,-0.400,0.115
3.114,-0.405,0.125
3.117,-0.390,0.125
3.119,-0.375,0.125
3.122,-0.385,0.110
3.125,-0.370,0.110
3.128,-0.360,0.110
3.131,-0.355,0.120
3.133,-0.335,0.120
3.136,-0.315,0.125
3.139,-0.330,0.130
3.142,-0.360,0.115
3.144,-0.355,0.105
3.147,-0.350,0.125
3.150,-0.345,0.135
3.153,-0.305,0.135
3.156,-0.295,0.135
3.158,-0.260,0.115
3.161,-0.295,0.115
3.164,-0.300,0.135
3.167,-0.290,0.170
3.169,-0.265,0.185
3.172,-0.255,0.165
3.175,-0.240,0.120
3.178,-0.250,0.105
3.181,-0.250,0.120
3.183,-0.235,0.160
3.186,-0.220,0.170
3.189,-0.185,0.145
3.192,-0.165,0.105
3.194,-0.150,0.070
3.197,-0.155,0.075
3.200,-0.130,0.105
3.203,-0.120,0.150
3.206,-0.105,0.155
3.208,-0.095,0.130
3.211,-0.060,0.100
3.214,-0.040,0.090
3.217,0.000,0.110
3.219,0.020,0.105
3.222,0.030,0.090
3.225,0.050,0.070
3.228,0.060,0.060
3.231,0.095,0.070
3.233,0.125,0.085
3.236,0.170,0.110
3.239,0.200,0.105
3.242,0.245,0.090
3.244,0.255,0.085
3.247,0.285,0.095
3.250,0.330,0.100
3.253,0.375,0.095
3.256,0.400,0.085
3.258,0.420,0.075
3.261,0.420,0.055
3.264,0.455,0.055
3.267,0.500,0.070
3.269,0.540,0.070
3.272,0.560,0.080
3.275,0.560,0.080
3.278,0.580,0.085
3.281,0.580,0.075
3.283,0.585,0.070
3.286,0.595,0.075
3.289,0.585,0.070
3.292,0.560,0.055
3.294,0.525,0.050
3.297,0.490,0.085
3.300,0.475,0.120
3.303,0.455,0.125
3.306,0.435,0.100
3.308,0.410,0.060
3.311,0.355,0.035
3.314,0.285,0.040
3.317,0.245,0.080
3.319,0.205,0.100
3.322,0.175,0.085
3.325,0.150,0.075
3.328,0.145,0.075
3.331,0.120,0.095
3.333,0.060,0.125
3.336,0.030,0.165
3.339,-0.005,0.145
3.342,-0.050,0.125
3.344,-0.065,0.090
3.347,-0.060,0.085
3.350,-0.065,0.075
3.353,-0.080,0.085
3.356,-0.095,0.075
3.358,-0.125,0.075
3.361,-0.150,0.065
3.364,-0.160,0.090
3.367,-0.160,0.090
3.369,-0.160,0.095
3.372,-0.185,0.095
3.375,-0.220,0.080
3.378,-0.250,0.085
3.381,-0.245,0.120
3.383,-0.245,0.130
3.386,-0.245,0.140
3.389,-0.265,0.140
3.392,-0.270,0.120
3.394,-0.275,0.105
3.397,-0.260,0.100
3.400,-0.255,0.110
3.403,-0.260,0.105
3.406,-0.300,0.125
3.408,-0.335,0.110
3.411,-0.345,0.115
3.414,-0.325,0.110
3.417,-0.315,0.125
3.419,-0.290,0.120
3.422,-0.290,0.100
3.425,-0.310,0.080
3.428,-0.330,0.075
3.431,-0.340,0.090
3.433,-0.335,0.090
3.436,-0.320,0.115
3.439,-0.320,0.100
3.442,-0.330,0.080
3.444,-0.335,0.075
3.447,-0.340,0.085
3.450,-0.320,0.110
3.453,-0.285,0.120
3.456,-0.265,0.115
3.458,-0.280,0.120
3.461,-0.290,0.095
3.464,-0.315,0.095
3.467,-0.305,0.110
3.469,-0.280,0.110
3.472,-0.290,0.115
3.475,-0.300,0.115
3.478,-0.305,0.110
3.481,-0.290,0.130
3.483,-0.275,0.130
3.486,-0.270,0.150
3.489,-0.280,0.185
3.492,-0.295,0.160
3.494,-0.315,0.145
3.497,-0.280,0.120
3.500,-0.240,0.110
3.503,-0.225,0.110
3.506,-0.245,0.110
3.508,-0.255,0.105
3.511,-0.260,0.085
3.514,-0.265,0.075
3.517,-0.270,0.090
3.519,-0.250,0.110
3.522,-0.245,0.120
3.525,-0.250,0.125
3.528,-0.250,0.110
3.531,-0.255,0.100
3.533,-0.255,0.110
3.536,-0.225,0.100
3.539,-0.215,0.100
3.542,-0.250,0.075
3.544,-0.255,0.095
3.547,-0.255,0.095
3.550,-0.245,0.120
3.553,-0.230,0.110
3.556,-0.225,0.115
3.558,-0.235,0.105
3.561,-0.245,0.110
3.564,-0.240,0.100
3.567,-0.250,0.095
3.569,-0.265,0.095
3.572,-0.275,0.080
3.575,-0.290,0.080
3.578,-0.295,0.075
3.581,-0.310,0.075
3.583,-0.300,0.095
3.586,-0.290,0.110
3.589,-0.285,0.125
3.592,-0.290,0.120
3.594,-0.305,0.095
3.597,-0.300,0.080
3.600,-0.290,0.080
3.603,-0.295,0.075
3.606,-0.305,0.090
3.608,-0.310,0.105
3.611,-0.315,0.095
3.614,-0.320,0.100
3.617,-0.285,0.105
3.619,-0.275,0.120
3.622,-0.280,0.095
3.625,-0.295,0.075
3.628,-0.300,0.055
3.631,-0.310,0.045
3.633,-0.295,0.050
3.636,-0.290,0.075
3.639,-0.305,0.090
3.642,-0.320,0.100
3.644,-0.335,0.110
3.647,-0.320,0.100
3.650,-0.310,0.110
3.653,-0.305,0.095
3.656,-0.300,0.085
3.658,-0.315,0.070
3.661,-0.330,0.060
3.664,-0.345,0.085
3.667,-0.335,0.100
3.669,-0.320,0.110
3.672,-0.310,0.100
3.675,-0.325,0.080
3.678,-0.345,0.080
3.681,-0.370,0.085
3.683,-0.345,0.105
3.686,-0.325,0.120
3.689,-0.325,0.120
3.692,-0.325,0.105
3.694,-0.335,0.090
3.697,-0.335,0.095
3.700,-0.315,0.090
3.703,-0.300,0.095
3.706,-0.315,0.065
3.708,-0.310,0.055
3.711,-0.315,0.050
3.714,-0.330,0.080
3.717,-0.320,0.100
3.719,-0.300,0.120
3.722,-0.315,0.120
3.725,-0.325,0.095
3.728,-0.335,0.075
3.731,-0.325,0.090
3.733,-0.315,0.125
3.736,-0.315,0.150
3.739,-0.310,0.110
3.742,-0.350,0.090
3.744,-0.360,0.075
3.747,-0.345,0.065
3.750,-0.320,0.065
3.753,-0.295,0.080
3.756,-0.290,0.070
3.758,-0.295,0.060
3.761,-0.320,0.035
3.764,-0.325,0.045
3.767,-0.325,0.080
3.769,-0.320,0.095
3.772,-0.340,0.105
3.775,-0.330,0.095
3.778,-0.330,0.075
3.781,-0.335,0.075
3.783,-0.305,0.075
3.786,-0.310,0.085
3.789,-0.295,0.075
3.792,-0.325,0.075
3.794,-0.340,0.075
3.797,-0.340,0.095
3.800,-0.315,0.120
3.803,-0.305,0.140
3.806,-0.310,0.130
3.808,-0.320,0.100
3.811,-0.330,0.095
3.814,-0.325,0.100
3.817,-0.310,0.110
3.819,-0.290,0.085
3.822,-0.295,0.035
3.825,-0.310,0.005
3.828,-0.305,-0.010
3.831,-0.305,0.015
3.833,-0.295,0.050
3.836,-0.285,0.075
3.839,-0.290,0.070
3.842,-0.285,0.070
3.844,-0.295,0.060
3.847,-0.310,0.060
3.850,-0.315,0.060
3.853,-0.315,0.080
3.856,-0.330,0.055
3.858,-0.325,0.065
3.861,-0.335,0.050
3.864,-0.320,0.060
3.867,-0.300,0.075
3.869,-0.275,0.095
3.872,-0.260,0.080
3.875,-0.265,0.070
3.878,-0.295,0.075
3.881,-0.300,0.095
3.883,-0.290,0.130
3.886,-0.235,0.170
3.889,-0.225,0.165
3.892,-0.190,0.150
3.894,-0.190,0.140
3.897,-0.155,0.130
3.900,-0.085,0.115
3.903,-0.020,0.100
3.906,0.055,0.065
3.908,0.070,0.035
3.911,0.025,0.015
3.914,0.005,0.010
3.917,-0.020,0.015
3.919,-0.060,0.035
3.922,-0.080,0.045
3.925,-0.085,0.040
3.928,-0.115,0.040
3.931,-0.135,0.040
3.933,-0.140,0.060
3.936,-0.175,0.065
3.939,-0.210,0.080
3.942,-0.235,0.075
3.944,-0.265,0.065
3.947,-0.285,0.055
3.950,-0.295,0.055
3.953,-0.305,0.075
3.956,-0.330,0.080
3.958,-0.325,0.065
3.961,-0.325,0.080
3.964,-0.330,0.065
3.967,-0.310,0.040
3.969,-0.310,0.040
3.972,-0.315,0.040
3.975,-0.345,0.060
3.978,-0.350,0.065
3.981,-0.335,0.050
3.983,-0.315,0.055
3.986,-0.310,0.050
3.989,-0.325,0.050
3.992,-0.390,0.030
3.994,-0.480,0.020
3.997,-0.500,0.015
4.000,-0.445,0.020
4.003,-0.265,0.035
4.006,0.020,0.025
4.008,0.455,0.030
4.011,0.940,0.050
4.014,1.420,0.100
4.017,1.730,0.125
4.019,1.920,0.145
4.022,2.010,0.135
4.025,1.990,0.150
4.028,1.825,0.180
4.031,1.480,0.175
4.033,0.950,0.150
4.036,0.310,0.100
4.039,-0.330,0.010
4.042,-0.755,-0.085
4.044,-0.700,-0.155
4.047,-0.510,-0.195
4.050,-0.420,-0.185
4.053,-0.410,-0.160
4.056,-0.415,-0.105
4.058,-0.390,-0.080
4.061,-0.405,-0.055
4.064,-0.405,-0.015
4.067,-0.425,0.035
4.069,-0.410,0.075
4.072,-0.410,0.060
4.075,-0.410,0.070
4.078,-0.425,0.055
4.081,-0.435,0.040
4.083,-0.430,0.045
4.086,-0.425,0.060
4.089,-0.430,0.070
4.092,-0.435,0.070
4.094,-0.450,0.080
4.097,-0.465,0.100
4.100,-0.445,0.120
4.103,-0.435,0.095
4.106,-0.430,0.060
4.108,-0.450,0.035
4.111,-0.465,0.045
4.114,-0.470,0.085
4.117,-0.455,0.090
4.119,-0.420,0.095
4.122,-0.420,0.100
4.125,-0.410,0.090
4.128,-0.425,0.065
4.131,-0.415,0.060
4.133,-0.395,0.080
4.136,-0.375,0.070
4.139,-0.390,0.070
4.142,-0.405,0.055
4.144,-0.400,0.060
4.147,-0.400,0.070
4.150,-0.395,0.090
4.153,-0.405,0.110
4.156,-0.380,0.090
4.158,-0.350,0.065
4.161,-0.345,0.060
4.164,-0.345,0.070
4.167,-0.320,0.085
4.169,-0.300,0.085
4.172,-0.320,0.085
4.175,-0.340,0.075
4.178,-0.355,0.070
4.181,-0.350,0.070
4.183,-0.330,0.070
4.186,-0.285,0.095
4.189,-0.265,0.070
4.192,-0.280,0.075
4.194,-0.285,0.080
4.197,-0.275,0.085
4.200,-0.245,0.090
4.203,-0.215,0.095
4.206,-0.205,0.055
4.208,-0.200,0.030
4.211,-0.185,0.015
4.214,-0.180,0.030
4.217,-0.160,0.050
4.219,-0.140,0.050
4.222,-0.125,0.030
4.225,-0.115,0.020
4.228,-0.105,0.020
4.231,-0.100,0.030
4.233,-0.080,0.040
4.236,-0.045,0.065
4.239,-0.045,0.065
4.242,-0.030,0.070
4.244,0.005,0.055
4.247,0.035,0.050
4.250,0.090,0.045
4.253,0.130,0.060
4.256,0.175,0.065
4.258,0.180,0.070
4.261,0.190,0.070
4.264,0.235,0.055
4.267,0.265,0.060
4.269,0.345,0.040
4.272,0.390,0.010
4.275,0.395,-0.005
4.278,0.395,0.000
4.281,0.415,0.025
4.283,0.450,0.030
4.286,0.495,0.025
4.289,0.530,0.020
4.292,0.535,0.000
4.294,0.550,-0.025
4.297,0.540,-0.015
4.300,0.545,0.015
4.303,0.550,0.030
4.306,0.560,0.010
4.308,0.545,-0.020
4.311,0.535,-0.040
4.314,0.515,-0.035
4.317,0.490,-0.015
4.319,0.475,-0.005
4.322,0.430,-0.005
4.325,0.395,-0.015
4.328,0.355,-0.010
4.331,0.310,0.010
4.333,0.280,0.035
4.336,0.255,0.055
4.339,0.225,0.075
4.342,0.175,0.050
4.344,0.150,0.040
4.347,0.120,0.045
4.350,0.105,0.035
4.353,0.100,0.055
4.356,0.050,0.055
4.358,0.025,0.045
4.361,-0.010,0.040
4.364,-0.020,0.040
4.367,-0.035,0.045
4.369,-0.055,0.030
4.372,-0.080,0.020
4.375,-0.090,0.000
4.378,-0.130,-0.005
4.381,-0.155,0.015
4.383,-0.185,0.040
4.386,-0.180,0.060
4.389,-0.190,0.050
4.392,-0.200,0.035
4.394,-0.225,0.025
4.397,-0.245,0.025
4.400,-0.240,0.050
4.403,-0.245,0.045
4.406,-0.250,0.050
4.408,-0.280,0.045
4.411,-0.300,0.045
4.414,-0.325,0.075
4.417,-0.330,0.080
4.419,-0.315,0.070
4.422,-0.335,0.070
4.425,-0.350,0.045
4.428,-0.370,0.040
4.431,-0.360,0.055
4.433,-0.350,0.055
4.436,-0.330,0.060
4.439,-0.325,0.055
4.442,-0.330,0.030
4.444,-0.365,0.025
4.447,-0.390,0.025
4.450,-0.395,0.040
4.453,-0.390,0.055
4.456,-0.365,0.060
4.458,-0.370,0.055
4.461,-0.375,0.055
4.464,-0.380,0.070
4.467,-0.365,0.100
4.469,-0.345,0.090
4.472,-0.355,0.080
4.475,-0.365,0.065
4.478,-0.370,0.070
4.481,-0.390,0.075
4.483,-0.370,0.075
4.486,-0.355,0.090
4.489,-0.350,0.085
4.492,-0.360,0.070
4.494,-0.375,0.050
4.497,-0.370,0.030
4.500,-0.370,0.040
4.503,-0.350,0.060
4.506,-0.345,0.055
4.508,-0.345,0.045
4.511,-0.365,0.055
4.514,-0.350,0.085
4.517,-0.345,0.120
4.519,-0.335,0.120
4.522,-0.330,0.105
4.525,-0.335,0.070
4.528,-0.320,0.055
4.531,-0.315,0.050
4.533,-0.305,0.065
4.536,-0.295,0.075
4.539,-0.305,0.100
4.542,-0.310,0.095
4.544,-0.305,0.080
4.547,-0.295,0.085
4.550,-0.290,0.070
4.553,-0.295,0.050
4.556,-0.310,0.035
4.558,-0.325,0.010
4.561,-0.335,-0.010
4.564,-0.320,0.020
4.567,-0.290,0.035
4.569,-0.295,0.040
4.572,-0.300,0.040
4.575,-0.310,0.035
4.578,-0.320,0.040
4.581,-0.315,0.060
4.583,-0.285,0.080
4.586,-0.260,0.075
4.589,-0.275,0.060
4.592,-0.300,0.025
4.594,-0.315,0.005
4.597,-0.310,0.020
4.600,-0.300,0.040
4.603,-0.290,0.050
4.606,-0.300,0.045
4.608,-0.315,0.025
4.611,-0.315,0.010
4.614,-0.315,0.025
4.617,-0.315,0.055
4.619,-0.310,0.065
4.622,-0.315,0.055
4.625,-0.315,0.015
4.628,-0.340,0.010
4.631,-0.355,0.020
4.633,-0.345,0.040
4.636,-0.330,0.040
4.639,-0.325,0.035
4.642,-0.315,0.030
4.644,-0.350,0.020
4.647,-0.345,0.015
4.650,-0.340,0.025
4.653,-0.335,0.015
4.656,-0.340,0.015
4.658,-0.355,0.000
4.661,-0.375,0.015
4.664,-0.365,0.050
4.667,-0.350,0.070
4.669,-0.335,0.095
4.672,-0.350,0.085
4.675,-0.360,0.075
4.678,-0.370,0.045
4.681,-0.370,0.040
4.683,-0.370,0.030
4.686,-0.355,0.015
4.689,-0.355,0.005
4.692,-0.370,0.000
4.694,-0.385,0.005
4.697,-0.375,0.015
4.700,-0.365,0.035
4.703,-0.340,0.020
4.706,-0.345,0.015
4.708,-0.360,0.015
4.711,-0.370,0.010
4.714,-0.365,0.025
4.717,-0.360,0.020
4.719,-0.365,0.025
4.722,-0.350,0.020
4.725,-0.355,0.025
4.728,-0.380,0.005
4.731,-0.390,0.020
4.733,-0.390,0.045
4.736,-0.365,0.055
4.739,-0.350,0.055
4.742,-0.360,0.035
4.744,-0.400,0.025
4.747,-0.415,0.030
4.750,-0.395,0.025
4.753,-0.385,0.025
4.756,-0.385,0.015
4.758,-0.370,0.010
4.761,-0.385,0.015
4.764,-0.375,0.005
4.767,-0.375,0.020
4.769,-0.365,0.040
4.772,-0.350,0.040
4.775,-0.380,0.025
4.778,-0.390,0.015
4.781,-0.385,0.010
4.783,-0.400,0.030
4.786,-0.365,0.045
4.789,-0.375,0.035
4.792,-0.390,0.010
4.794,-0.410,0.000
4.797,-0.395,0.005
4.800,-0.400,0.015
4.803,-0.400,0.045
4.806,-0.405,0.050
4.808,-0.400,0.025
4.811,-0.385,0.020
4.814,-0.380,0.005
4.817,-0.365,0.005
4.819,-0.390,0.015
4.822,-0.395,0.025
4.825,-0.415,0.025
4.828,-0.430,0.035
4.831,-0.420,0.050
4.833,-0.405,0.055
4.836,-0.390,0.040
4.839,-0.370,0.035
4.842,-0.380,0.010
4.844,-0.380,0.005
4.847,-0.395,0.005
4.850,-0.400,0.015
4.853,-0.395,0.040
4.856,-0.385,0.035
4.858,-0.395,0.030
4.861,-0.405,0.015
4.864,-0.395,0.020
4.867,-0.400,0.035
4.869,-0.385,0.025
4.872,-0.370,0.030
4.875,-0.390,0.020
4.878,-0.395,-0.010
4.881,-0.395,-0.005
4.883,-0.390,0.010
4.886,-0.380,0.035
4.889,-0.395,0.030
4.892,-0.420,0.035
4.894,-0.415,0.025
4.897,-0.385,0.020
4.900,-0.355,0.015
4.903,-0.355,0.010
4.906,-0.355,0.010
4.908,-0.365,0.005
4.911,-0.380,0.005
4.914,-0.375,0.015
4.917,-0.375,0.045
4.919,-0.365,0.055
4.922,-0.370,0.050
4.925,-0.370,0.050
4.928,-0.390,0.060
4.931,-0.385,0.060
4.933,-0.365,0.055
4.936,-0.330,0.075
4.939,-0.320,0.065
4.942,-0.300,0.085
4.944,-0.310,0.065
4.947,-0.290,0.075
4.950,-0.255,0.085
4.953,-0.215,0.075
4.956,-0.140,0.055
4.958,-0.080,0.025
4.961,-0.065,-0.020
4.964,-0.060,-0.030
4.967,-0.085,-0.035
4.969,-0.095,-0.030
4.972,-0.125,-0.030
4.975,-0.175,-0.020
4.978,-0.190,-0.005
4.981,-0.215,0.020
4.983,-0.220,0.025
4.986,-0.200,0.030
4.989,-0.205,0.015
4.992,-0.240,-0.010
4.994,-0.290,-0.020
4.997,-0.290,-0.015
5.000,-0.305,-0.020
5.003,-0.310,-0.010
5.006,-0.360,0.000
5.008,-0.415,0.025
5.011,-0.455,0.035
5.014,-0.445,0.065
5.017,-0.435,0.070
5.019,-0.410,0.060
5.022,-0.400,0.040
5.025,-0.410,0.020
5.028,-0.425,0.005
5.031,-0.435,0.030
5.033,-0.410,0.055
5.036,-0.390,0.040
5.039,-0.370,0.010
5.042,-0.385,-0.030
5.044,-0.405,-0.035
5.047,-0.430,-0.015
5.050,-0.470,0.005
5.053,-0.510,0.010
5.056,-0.530,-0.010
5.058,-0.505,-0.025
5.061,-0.405,-0.030
5.064,-0.150,-0.025
5.067,0.285,-0.010
5.069,0.830,-0.015
5.072,1.330,-0.005
5.075,1.675,0.035
5.078,1.850,0.065
5.081,1.940,0.110
5.083,1.955,0.165
5.086,1.860,0.210
5.089,1.595,0.185
5.092,1.100,0.110
5.094,0.460,0.045
5.097,-0.180,-0.005
5.100,-0.820,-0.040
5.103,-0.830,-0.080
5.106,-0.650,-0.130
5.108,-0.540,-0.185
5.111,-0.540,-0.230
5.114,-0.545,-0.210
5.117,-0.530,-0.160
5.119,-0.500,-0.105
5.122,-0.505,-0.055
5.125,-0.500,-0.035
5.128,-0.530,-0.010
5.131,-0.510,0.020
5.133,-0.505,0.050
5.136,-0.495,0.060
5.139,-0.480,0.040
5.142,-0.510,-0.005
5.144,-0.525,-0.010
5.147,-0.520,0.010
5.150,-0.505,0.045
5.153,-0.485,0.055
5.156,-0.495,0.030
5.158,-0.515,0.015
5.161,-0.530,0.010
5.164,-0.535,0.040
5.167,-0.525,0.070
5.169,-0.500,0.075
5.172,-0.485,0.075
5.175,-0.520,0.075
5.178,-0.505,0.075
5.181,-0.505,0.085
5.183,-0.485,0.085
5.186,-0.475,0.075
5.189,-0.465,0.035
5.192,-0.475,0.015
5.194,-0.485,0.000
5.197,-0.485,0.015
5.200,-0.460,0.040
5.203,-0.460,0.045
5.206,-0.490,0.035
5.208,-0.500,0.040
5.211,-0.500,0.045
5.214,-0.475,0.045
5.217,-0.455,0.065
5.219,-0.430,0.075
5.222,-0.405,0.070
5.225,-0.415,0.050
5.228,-0.445,0.025
5.231,-0.470,0.010
5.233,-0.440,0.025
5.236,-0.395,0.030
5.239,-0.405,0.035
5.242,-0.415,0.035
5.244,-0.430,0.035
5.247,-0.420,0.030
5.250,-0.410,0.050
5.253,-0.360,0.050
5.256,-0.335,0.070
5.258,-0.340,0.070
5.261,-0.340,0.070
5.264,-0.330,0.055
5.267,-0.305,0.055
5.269,-0.270,0.045
5.272,-0.285,0.025
5.275,-0.290,0.035
5.278,-0.290,0.050
5.281,-0.265,0.050
5.283,-0.225,0.055
5.286,-0.175,0.035
5.289,-0.150,0.005
5.292,-0.125,-0.015
5.294,-0.135,-0.045
5.297,-0.130,-0.025
5.300,-0.135,0.020
5.303,-0.110,0.055
5.306,-0.100,0.050
5.308,-0.065,0.040
5.311,-0.050,0.025
5.314,0.005,0.025
5.317,0.035,0.040
5.319,0.090,0.055
5.322,0.125,0.045
5.325,0.155,0.030
5.328,0.170,0.000
5.331,0.210,-0.005
5.333,0.260,0.000
5.336,0.300,0.010
5.339,0.345,0.000
5.342,0.375,-0.025
5.344,0.405,-0.050
5.347,0.410,-0.040
5.350,0.435,-0.040
5.353,0.470,-0.020
5.356,0.495,-0.020
5.358,0.495,-0.035
5.361,0.490,-0.020
5.364,0.485,0.000
5.367,0.495,0.040
5.369,0.520,0.040
5.372,0.520,0.015
5.375,0.500,-0.020
5.378,0.465,-0.035
5.381,0.415,-0.020
5.383,0.410,0.020
5.386,0.400,0.025
5.389,0.385,0.000
5.392,0.355,0.000
5.394,0.290,-0.010
5.397,0.250,0.010
5.400,0.245,0.035
5.403,0.230,0.040
5.406,0.200,0.020
5.408,0.150,0.010
5.411,0.100,0.020
5.414,0.090,0.035
5.417,0.060,0.050
5.419,0.050,0.045
5.422,0.035,0.010
5.425,0.010,-0.010
5.428,-0.040,-0.015
5.431,-0.080,0.025
5.433,-0.080,0.055
5.436,-0.095,0.075
5.439,-0.105,0.090
5.442,-0.115,0.070
5.444,-0.150,0.050
5.447,-0.175,0.035
5.450,-0.160,0.025
5.453,-0.155,0.015
5.456,-0.165,0.010
5.458,-0.195,0.005
5.461,-0.210,0.010
5.464,-0.230,0.030
5.467,-0.225,0.035
5.469,-0.240,0.065
5.472,-0.255,0.055
5.475,-0.265,0.040
5.478,-0.310,0.030
5.481,-0.320,0.045
5.483,-0.310,0.080
5.486,-0.295,0.100
5.489,-0.300,0.100
5.492,-0.310,0.090
5.494,-0.320,0.075
5.497,-0.330,0.055
5.500,-0.345,0.075
5.503,-0.360,0.065
5.506,-0.345,0.060
5.508,-0.345,0.050
5.511,-0.355,0.060
5.514,-0.350,0.080
5.517,-0.350,0.100
5.519,-0.355,0.105
5.522,-0.340,0.090
5.525,-0.355,0.085
5.528,-0.355,0.065
5.531,-0.360,0.090
5.533,-0.330,0.115
5.536,-0.310,0.135
5.539,-0.320,0.105
5.542,-0.325,0.065
5.544,-0.335,0.055
5.547,-0.350,0.060
5.550,-0.355,0.080
5.553,-0.355,0.105
5.556,-0.330,0.110
5.558,-0.355,0.095
5.561,-0.330,0.075
5.564,-0.335,0.065
5.567,-0.330,0.060
5.569,-0.305,0.075
5.572,-0.280,0.060
5.575,-0.275,0.030
5.578,-0.265,0.005
5.581,-0.270,0.010
5.583,-0.260,0.025
5.586,-0.255,0.050
5.589,-0.255,0.045
5.592,-0.270,0.035
5.594,-0.275,0.030
5.597,-0.265,0.035
5.600,-0.290,0.040
5.603,-0.260,0.075
5.606,-0.245,0.060
5.608,-0.240,0.050
5.611,-0.250,0.045
5.614,-0.255,0.060
5.617,-0.265,0.095
5.619,-0.265,0.110
5.622,-0.275,0.095
5.625,-0.270,0.090
5.628,-0.275,0.080
5.631,-0.270,0.065
5.633,-0.260,0.070
5.636,-0.235,0.055
5.639,-0.245,0.020
5.642,-0.260,0.005
5.644,-0.280,-0.005
5.647,-0.280,0.000
5.650,-0.270,0.015
5.653,-0.240,0.035
5.656,-0.245,0.025
5.658,-0.275,0.030
5.661,-0.285,0.025
5.664,-0.270,0.020
5.667,-0.265,0.030
5.669,-0.255,0.030
5.672,-0.280,0.030
5.675,-0.285,0.020
5.678,-0.300,0.005
5.681,-0.300,0.020
5.683,-0.300,0.045
5.686,-0.305,0.075
5.689,-0.330,0.080
5.692,-0.315,0.080
5.694,-0.335,0.055
5.697,-0.340,0.050
5.700,-0.310,0.065
5.703,-0.305,0.075
5.706,-0.315,0.085
5.708,-0.340,0.080
5.711,-0.355,0.075
5.714,-0.340,0.050
5.717,-0.320,0.030
5.719,-0.315,0.060
5.722,-0.335,0.035
5.725,-0.350,0.055
5.728,-0.355,0.055
5.731,-0.335,0.035
5.733,-0.315,0.010
5.736,-0.305,0.000
5.739,-0.345,-0.005
5.742,-0.360,0.005
5.744,-0.375,0.030
5.747,-0.365,0.045
5.750,-0.360,0.065
5.753,-0.350,0.075
5.756,-0.340,0.055
5.758,-0.340,0.030
5.761,-0.350,0.010
5.764,-0.335,0.015
5.767,-0.315,0.030
5.769,-0.320,0.040
5.772,-0.315,0.025
5.775,-0.340,0.035
5.778,-0.390,0.040
5.781,-0.385,0.065
5.783,-0.365,0.085
5.786,-0.365,0.105
5.789,-0.360,0.100
5.792,-0.360,0.075
5.794,-0.370,0.045
5.797,-0.365,0.045
5.800,-0.350,0.045
5.803,-0.355,0.070
5.806,-0.355,0.055
5.808,-0.360,0.055
5.811,-0.395,0.050
5.814,-0.400,0.050
5.817,-0.395,0.075
5.819,-0.385,0.095
5.822,-0.375,0.100
5.825,-0.360,0.080
5.828,-0.390,0.070
5.831,-0.400,0.055
5.833,-0.395,0.030
5.836,-0.335,0.015
5.839,-0.330,-0.010
5.842,-0.355,-0.010
5.844,-0.380,-0.010
5.847,-0.395,0.020
5.850,-0.390,0.050
5.853,-0.370,0.065
5.856,-0.350,0.065
5.858,-0.355,0.040
5.861,-0.350,0.005
5.864,-0.375,0.010
5.867,-0.365,0.025
5.869,-0.350,0.040
5.872,-0.330,0.040
5.875,-0.365,0.030
5.878,-0.365,0.035
5.881,-0.360,0.035
5.883,-0.350,0.035
5.886,-0.335,0.065
5.889,-0.335,0.045
5.892,-0.365,0.035
5.894,-0.395,0.035
5.897,-0.385,0.035
5.900,-0.370,0.035
5.903,-0.365,0.060
5.906,-0.370,0.065
5.908,-0.400,0.065
5.911,-0.410,0.085
5.914,-0.390,0.095
5.917,-0.400,0.090
5.919,-0.375,0.085
5.922,-0.370,0.070
5.925,-0.370,0.055
5.928,-0.395,0.045
5.931,-0.380,0.055
5.933,-0.375,0.065
5.936,-0.360,0.075
5.939,-0.355,0.055
5.942,-0.350,0.035
5.944,-0.340,0.020
5.947,-0.335,0.045
5.950,-0.340,0.075
5.953,-0.320,0.090
5.956,-0.310,0.080
5.958,-0.310,0.065
5.961,-0.310,0.060
5.964,-0.290,0.085
5.967,-0.255,0.110
5.969,-0.215,0.135
5.972,-0.185,0.125
5.975,-0.150,0.110
5.978,-0.115,0.080
5.981,-0.075,0.050
5.983,-0.050,0.030
5.986,-0.060,0.040
5.989,-0.075,0.020
5.992,-0.120,0.015
5.994,-0.140,0.015
5.997,-0.180,0.020
6.000,-0.190,0.040
6.003,-0.180,0.050
6.006,-0.185,0.055
6.008,-0.205,0.045
6.011,-0.230,0.050
6.014,-0.255,0.065
6.017,-0.265,0.060
6.019,-0.280,0.065
6.022,-0.295,0.035
6.025,-0.315,0.030
6.028,-0.350,0.025
6.031,-0.365,0.050
6.033,-0.365,0.075
6.036,-0.350,0.090
6.039,-0.355,0.065
6.042,-0.380,0.050
6.044,-0.400,0.030
6.047,-0.400,0.045
6.050,-0.380,0.050
6.053,-0.360,0.060
6.056,-0.355,0.050
6.058,-0.365,0.035
6.061,-0.380,0.025
6.064,-0.375,0.050
6.067,-0.390,0.055
6.069,-0.375,0.080
6.072,-0.395,0.070
6.075,-0.450,0.050
6.078,-0.510,0.055
6.081,-0.480,0.050
6.083,-0.340,0.075
6.086,-0.060,0.090
6.089,0.310,0.055
6.092,0.770,0.025
6.094,1.210,0.010
6.097,1.575,0.065
6.100,1.810,0.155
6.103,1.935,0.235
6.106,1.965,0.275
6.108,1.920,0.280
6.111,1.710,0.235
6.114,1.330,0.165
6.117,0.775,0.120
6.119,0.135,0.085
6.122,-0.495,0.000
6.125,-0.790,-0.060
6.128,-0.720,-0.110
6.131,-0.530,-0.145
6.133,-0.440,-0.135
6.136,-0.440,-0.115
6.139,-0.450,-0.095
6.142,-0.440,-0.080
6.144,-0.420,-0.055
6.147,-0.420,0.000
6.150,-0.430,0.055
6.153,-0.430,0.090
6.156,-0.455,0.090
6.158,-0.445,0.065
6.161,-0.460,0.055
6.164,-0.460,0.050
6.167,-0.470,0.080
6.169,-0.465,0.115
6.172,-0.445,0.115
6.175,-0.445,0.100
6.178,-0.445,0.100
6.181,-0.465,0.100
6.183,-0.460,0.110
6.186,-0.445,0.125
6.189,-0.440,0.110
6.192,-0.465,0.095
6.194,-0.455,0.085
6.197,-0.445,0.075
6.200,-0.430,0.075
6.203,-0.425,0.080
6.206,-0.420,0.095
6.208,-0.410,0.080
6.211,-0.415,0.065
6.214,-0.425,0.070
6.217,-0.415,0.080
6.219,-0.395,0.100
6.222,-0.400,0.100
6.225,-0.410,0.090
6.228,-0.435,0.085
6.231,-0.435,0.085
6.233,-0.400,0.095
6.236,-0.385,0.105
6.239,-0.385,0.100
6.242,-0.395,0.095
6.244,-0.390,0.100
6.247,-0.390,0.105
6.250,-0.360,0.110
6.253,-0.350,0.120
6.256,-0.360,0.090
6.258,-0.385,0.095
6.261,-0.370,0.080
6.264,-0.340,0.115
6.267,-0.325,0.115
6.269,-0.305,0.120
6.272,-0.305,0.125
6.275,-0.295,0.125
6.278,-0.290,0.100
6.281,-0.290,0.105
6.283,-0.275,0.105
6.286,-0.250,0.120
6.289,-0.235,0.135
6.292,-0.245,0.125
6.294,-0.240,0.110
6.297,-0.240,0.105
6.300,-0.200,0.095
6.303,-0.160,0.095
6.306,-0.140,0.095
6.308,-0.135,0.080
6.311,-0.130,0.075
6.314,-0.110,0.075
6.317,-0.090,0.080
6.319,-0.055,0.085
6.322,-0.040,0.090
6.325,-0.040,0.080
6.328,-0.030,0.085
6.331,-0.005,0.070
6.333,0.050,0.070
6.336,0.085,0.070
6.339,0.095,0.065
6.342,0.140,0.065
6.344,0.140,0.065
6.347,0.165,0.080
6.350,0.210,0.105
6.353,0.270,0.110
6.356,0.315,0.095
6.358,0.335,0.085
6.361,0.330,0.080
6.364,0.375,0.085
6.367,0.410,0.105
6.369,0.450,0.115
6.372,0.480,0.105
6.375,0.485,0.090
6.378,0.510,0.095
6.381,0.550,0.085
6.383,0.565,0.070
6.386,0.590,0.070
6.389,0.595,0.040
6.392,0.565,0.025
6.394,0.555,0.045
6.397,0.540,0.070
6.400,0.540,0.090
6.403,0.535,0.105
6.406,0.515,0.090
6.408,0.480,0.070
6.411,0.445,0.060
6.414,0.435,0.045
6.417,0.405,0.070
6.419,0.375,0.085
6.422,0.330,0.085
6.425,0.300,0.075
6.428,0.240,0.055
6.431,0.210,0.075
6.433,0.170,0.080
6.436,0.170,0.090
6.439,0.145,0.080
6.442,0.100,0.070
6.444,0.040,0.055
6.447,0.020,0.070
6.450,0.005,0.085
6.453,-0.010,0.100
6.456,-0.035,0.095
6.458,-0.060,0.090
6.461,-0.105,0.105
6.464,-0.130,0.125
6.467,-0.130,0.120
6.469,-0.120,0.120
6.472,-0.120,0.085
6.475,-0.155,0.065
6.478,-0.185,0.050
6.481,-0.195,0.070
6.483,-0.205,0.075
6.486,-0.200,0.080
6.489,-0.225,0.080
6.492,-0.240,0.075
6.494,-0.265,0.065
6.497,-0.285,0.080
6.500,-0.280,0.085
6.503,-0.285,0.095
6.506,-0.270,0.085
6.508,-0.295,0.080
6.511,-0.315,0.075
6.514,-0.330,0.080
6.517,-0.335,0.100
6.519,-0.335,0.115
6.522,-0.345,0.110
6.525,-0.360,0.100
6.528,-0.375,0.090
6.531,-0.375,0.095
6.533,-0.365,0.115
6.536,-0.360,0.140
6.539,-0.345,0.150
6.542,-0.345,0.130
6.544,-0.365,0.095
6.547,-0.370,0.085
6.550,-0.380,0.100
6.553,-0.355,0.115
6.556,-0.325,0.100
6.558,-0.330,0.095
6.561,-0.355,0.080
6.564,-0.365,0.085
6.567,-0.375,0.095
6.569,-0.355,0.095
6.572,-0.350,0.095
6.575,-0.355,0.085
6.578,-0.360,0.080
6.581,-0.345,0.080
6.583,-0.335,0.090
6.586,-0.310,0.090
6.589,-0.325,0.090
6.592,-0.330,0.065
6.594,-0.350,0.050
6.597,-0.340,0.060
6.600,-0.345,0.080
6.603,-0.345,0.095
6.606,-0.345,0.110
6.608,-0.335,0.095
6.611,-0.350,0.085
6.614,-0.360,0.100
6.617,-0.360,0.115
6.619,-0.335,0.135
6.622,-0.330,0.135
6.625,-0.335,0.125
6.628,-0.335,0.115
6.631,-0.330,0.130
6.633,-0.295,0.145
6.636,-0.280,0.155
6.639,-0.300,0.125
6.642,-0.330,0.090
6.644,-0.350,0.085
6.647,-0.330,0.090
6.650,-0.315,0.125
6.653,-0.295,0.135
6.656,-0.315,0.135
6.658,-0.310,0.115
6.661,-0.305,0.075
6.664,-0.295,0.085
6.667,-0.280,0.085
6.669,-0.265,0.110
6.672,-0.255,0.120
6.675,-0.275,0.100
6.678,-0.295,0.110
6.681,-0.325,0.105
6.683,-0.320,0.110
6.686,-0.275,0.105
6.689,-0.265,0.080
6.692,-0.275,0.050
6.694,-0.300,0.040
6.697,-0.315,0.050
6.700,-0.315,0.080
6.703,-0.285,0.085
6.706,-0.260,0.085
6.708,-0.280,0.080
6.711,-0.300,0.060
6.714,-0.325,0.085
6.717,-0.330,0.095
6.719,-0.315,0.125
6.722,-0.325,0.125
6.725,-0.335,0.115
6.728,-0.340,0.115
6.731,-0.350,0.125
6.733,-0.320,0.120
6.736,-0.310,0.115
6.739,-0.305,0.095
6.742,-0.310,0.090
6.744,-0.345,0.090
6.747,-0.325,0.090
6.750,-0.315,0.085
6.753,-0.300,0.075
6.756,-0.305,0.075
6.758,-0.330,0.055
6.761,-0.355,0.050
6.764,-0.330,0.045
6.767,-0.305,0.070
6.769,-0.310,0.090
6.772,-0.315,0.090
6.775,-0.320,0.090
6.778,-0.340,0.070
6.781,-0.355,0.080
6.783,-0.340,0.095
6.786,-0.325,0.085
6.789,-0.315,0.090
6.792,-0.315,0.065
6.794,-0.335,0.080
6.797,-0.335,0.080
6.800,-0.320,0.090
6.803,-0.290,0.095
6.806,-0.250,0.065
6.808,-0.280,0.035
6.811,-0.325,0.035
6.814,-0.330,0.045
6.817,-0.330,0.070
6.819,-0.320,0.075
6.822,-0.315,0.070
6.825,-0.290,0.055
6.828,-0.255,0.060
6.831,-0.250,0.055
6.833,-0.245,0.055
6.836,-0.275,0.065
6.839,-0.270,0.065
6.842,-0.255,0.045
6.844,-0.245,0.040
6.847,-0.210,0.035
6.850,-0.205,0.070
6.853,-0.180,0.060
6.856,-0.165,0.050
6.858,-0.195,0.050
6.861,-0.230,0.055
6.864,-0.255,0.065
6.867,-0.260,0.070
6.869,-0.270,0.090
6.872,-0.260,0.080
6.875,-0.250,0.065
6.878,-0.235,0.050
6.881,-0.225,0.055
6.883,-0.185,0.050
6.886,-0.160,0.055
6.889,-0.125,0.060
6.892,-0.130,0.035
6.894,-0.155,0.030
6.897,-0.180,0.025
6.900,-0.190,0.055
6.903,-0.170,0.095
6.906,-0.155,0.095
6.908,-0.150,0.070
6.911,-0.130,0.040
6.914,-0.115,0.015
6.917,-0.110,0.010
6.919,-0.110,0.010
6.922,-0.125,0.015
6.925,-0.120,0.005
6.928,-0.145,0.005
6.931,-0.145,0.005
6.933,-0.120,0.015
6.936,-0.120,0.040
6.939,-0.100,0.035
6.942,-0.095,0.015
6.944,-0.110,0.020
6.947,-0.135,0.015
6.950,-0.125,0.035
6.953,-0.100,0.035
6.956,-0.095,0.025
6.958,-0.125,0.020
6.961,-0.150,0.030
6.964,-0.155,0.050
6.967,-0.130,0.050
6.969,-0.110,0.070
6.972,-0.100,0.040
6.975,-0.120,0.025
6.978,-0.120,0.020
6.981,-0.120,0.030
6.983,-0.090,0.040
6.986,-0.050,0.055
6.989,-0.040,0.065
6.992,-0.030,0.050
6.994,-0.015,0.050
6.997,-0.015,0.045
7.000,-0.020,0.080
7.003,-0.005,0.100
7.006,0.025,0.105
7.008,0.050,0.090
7.011,0.045,0.090
7.014,0.100,0.095
7.017,0.170,0.080
7.019,0.210,0.075
7.022,0.215,0.050
7.025,0.200,0.030
7.028,0.155,0.035
7.031,0.165,0.045
7.033,0.195,0.070
7.036,0.200,0.075
7.039,0.165,0.070
7.042,0.115,0.075
7.044,0.090,0.065
7.047,0.075,0.075
7.050,0.065,0.075
7.053,0.050,0.085
7.056,0.000,0.085
7.058,-0.045,0.105
7.061,-0.095,0.105
7.064,-0.090,0.075
7.067,-0.055,0.080
7.069,-0.030,0.075
7.072,-0.050,0.080
7.075,-0.070,0.075
7.078,-0.115,0.065
7.081,-0.155,0.075
7.083,-0.200,0.095
7.086,-0.225,0.115
7.089,-0.220,0.125
7.092,-0.175,0.100
7.094,-0.155,0.100
7.097,-0.150,0.100
7.100,-0.150,0.120
7.103,-0.145,0.130
7.106,-0.165,0.115
7.108,-0.200,0.105
7.111,-0.220,0.090
7.114,-0.235,0.090
7.117,-0.250,0.080
7.119,-0.185,0.085
7.122,-0.020,0.070
7.125,0.240,0.045
7.128,0.605,0.025
7.131,1.090,0.015
7.133,1.545,0.060
7.136,1.875,0.125
7.139,2.030,0.185
7.142,2.075,0.230
7.144,2.025,0.280
7.147,1.910,0.370
7.150,1.660,0.395
7.153,1.200,0.365
7.156,0.560,0.285
7.158,-0.080,0.170
7.161,-0.510,0.060
7.164,-0.470,-0.010
7.167,-0.260,-0.075
7.169,-0.150,-0.115
7.172,-0.170,-0.135
7.175,-0.210,-0.120
7.178,-0.190,-0.075
7.181,-0.170,-0.015
7.183,-0.130,0.035
7.186,-0.140,0.070
7.189,-0.120,0.060
7.192,-0.130,0.050
7.194,-0.150,0.050
7.197,-0.175,0.060
7.200,-0.165,0.080
7.203,-0.155,0.115
7.206,-0.160,0.105
7.208,-0.190,0.100
7.211,-0.215,0.090
7.214,-0.215,0.110
7.217,-0.220,0.135
7.219,-0.220,0.170
7.222,-0.240,0.175
7.225,-0.250,0.165
7.228,-0.250,0.155
7.231,-0.230,0.150
7.233,-0.220,0.150
7.236,-0.185,0.155
7.239,-0.165,0.140
7.242,-0.175,0.130
7.244,-0.170,0.110
7.247,-0.150,0.125
7.250,-0.145,0.145
7.253,-0.145,0.140
7.256,-0.190,0.120
7.258,-0.220,0.115
7.261,-0.225,0.095
7.264,-0.220,0.090
7.267,-0.165,0.100
7.269,-0.130,0.095
7.272,-0.145,0.080
7.275,-0.175,0.080
7.278,-0.185,0.085
7.281,-0.170,0.100
7.283,-0.140,0.110
7.286,-0.105,0.105
7.289,-0.110,0.110
7.292,-0.125,0.090
7.294,-0.145,0.090
7.297,-0.155,0.095
7.300,-0.095,0.115
7.303,-0.040,0.120
7.306,0.010,0.120
7.308,0.040,0.105
7.311,0.030,0.085
7.314,0.000,0.075
7.317,-0.020,0.085
7.319,-0.040,0.110
7.322,-0.070,0.120
7.325,-0.070,0.115
7.328,-0.060,0.100
7.331,-0.005,0.105
7.333,0.025,0.110
7.336,0.030,0.115
7.339,0.055,0.115
7.342,0.065,0.105
7.344,0.050,0.105
7.347,0.070,0.110
7.350,0.115,0.130
7.353,0.140,0.150
7.356,0.160,0.140
7.358,0.185,0.125
7.361,0.205,0.100
7.364,0.255,0.110
7.367,0.295,0.110
7.369,0.325,0.100
7.372,0.355,0.095
7.375,0.350,0.080
7.378,0.365,0.085
7.381,0.410,0.095
7.383,0.455,0.090
7.386,0.480,0.105
7.389,0.500,0.080
7.392,0.515,0.080
7.394,0.540,0.060
7.397,0.570,0.075
7.400,0.580,0.075
7.403,0.625,0.105
7.406,0.635,0.085
7.408,0.650,0.075
7.411,0.665,0.065
7.414,0.690,0.060
7.417,0.710,0.065
7.419,0.710,0.085
7.422,0.710,0.075
7.425,0.690,0.070
7.428,0.660,0.060
7.431,0.635,0.070
7.433,0.615,0.095
7.436,0.590,0.105
7.439,0.565,0.105
7.442,0.525,0.085
7.444,0.495,0.090
7.447,0.465,0.090
7.450,0.440,0.090
7.453,0.450,0.095
7.456,0.435,0.085
7.458,0.380,0.085
7.461,0.320,0.085
7.464,0.315,0.090
7.467,0.280,0.105
7.469,0.250,0.110
7.472,0.210,0.105
7.475,0.175,0.095
7.478,0.135,0.105
7.481,0.125,0.110
7.483,0.135,0.115
7.486,0.130,0.115
7.489,0.100,0.100
7.492,0.060,0.100
7.494,0.045,0.085
7.497,0.045,0.105
7.500,0.010,0.135
7.503,-0.025,0.160
7.506,-0.075,0.165
7.508,-0.110,0.160
7.511,-0.130,0.135
7.514,-0.140,0.125
7.517,-0.110,0.130
7.519,-0.080,0.135
7.522,-0.080,0.120
7.525,-0.115,0.105
7.528,-0.155,0.110
7.531,-0.175,0.115
7.533,-0.155,0.135
7.536,-0.110,0.150
7.539,-0.105,0.135
7.542,-0.130,0.120
7.544,-0.160,0.120
7.547,-0.190,0.125
7.550,-0.160,0.135
7.553,-0.150,0.155
7.556,-0.165,0.155
7.558,-0.180,0.150
7.561,-0.190,0.150
7.564,-0.170,0.150
7.567,-0.155,0.150
7.569,-0.155,0.130
7.572,-0.145,0.135
7.575,-0.145,0.135
7.578,-0.155,0.125
7.581,-0.165,0.130
7.583,-0.170,0.130
7.586,-0.140,0.145
7.589,-0.155,0.130
7.592,-0.180,0.130
7.594,-0.210,0.140
7.597,-0.205,0.150
7.600,-0.180,0.165
7.603,-0.145,0.155
7.606,-0.150,0.150
7.608,-0.160,0.135
7.611,-0.200,0.125
7.614,-0.210,0.140
7.617,-0.210,0.160
7.619,-0.160,0.175
7.622,-0.140,0.175
7.625,-0.140,0.165
7.628,-0.155,0.145
7.631,-0.145,0.140
7.633,-0.135,0.160
7.636,-0.120,0.165
7.639,-0.115,0.145
7.642,-0.135,0.140
7.644,-0.150,0.130
7.647,-0.160,0.140
7.650,-0.160,0.150
7.653,-0.155,0.155
7.656,-0.155,0.140
7.658,-0.180,0.145
7.661,-0.195,0.115
7.664,-0.180,0.115
7.667,-0.170,0.125
7.669,-0.140,0.155
7.672,-0.150,0.140
7.675,-0.150,0.115
7.678,-0.170,0.105
7.681,-0.185,0.115
7.683,-0.175,0.125
7.686,-0.170,0.135
7.689,-0.165,0.125
7.692,-0.180,0.120
7.694,-0.215,0.120
7.697,-0.210,0.120
7.700,-0.180,0.130
7.703,-0.175,0.135
7.706,-0.185,0.135
7.708,-0.205,0.125
7.711,-0.190,0.120
7.714,-0.180,0.120
7.717,-0.175,0.105
7.719,-0.210,0.130
7.722,-0.225,0.125
7.725,-0.240,0.115
7.728,-0.250,0.100
7.731,-0.255,0.100
7.733,-0.230,0.110
7.736,-0.225,0.125
7.739,-0.240,0.110
7.742,-0.255,0.105
7.744,-0.255,0.085
7.747,-0.255,0.115
7.750,-0.245,0.135
7.753,-0.250,0.150
7.756,-0.265,0.145
7.758,-0.255,0.130
7.761,-0.295,0.105
7.764,-0.285,0.085
7.767,-0.270,0.085
7.769,-0.260,0.090
7.772,-0.275,0.095
7.775,-0.295,0.075
7.778,-0.320,0.080
7.781,-0.315,0.080
7.783,-0.295,0.095
7.786,-0.280,0.105
7.789,-0.305,0.090
7.792,-0.355,0.095
7.794,-0.400,0.090
7.797,-0.385,0.115
7.800,-0.320,0.125
7.803,-0.270,0.135
7.806,-0.260,0.130
7.808,-0.275,0.125
7.811,-0.310,0.110
7.814,-0.325,0.120
7.817,-0.315,0.135
7.819,-0.285,0.145
7.822,-0.285,0.120
7.825,-0.320,0.100
7.828,-0.355,0.095
7.831,-0.355,0.115
7.833,-0.330,0.120
7.836,-0.310,0.135
7.839,-0.285,0.130
7.842,-0.285,0.105
7.844,-0.295,0.105
7.847,-0.305,0.110
7.850,-0.305,0.130
7.853,-0.295,0.130
7.856,-0.315,0.105
7.858,-0.340,0.060
7.861,-0.370,0.050
7.864,-0.400,0.060
7.867,-0.390,0.090
7.869,-0.375,0.110
7.872,-0.345,0.100
7.875,-0.340,0.080
7.878,-0.355,0.065
7.881,-0.335,0.055
7.883,-0.320,0.070
7.886,-0.305,0.090
7.889,-0.330,0.080
7.892,-0.385,0.090
7.894,-0.395,0.080
7.897,-0.370,0.095
7.900,-0.320,0.100
7.903,-0.275,0.100
7.906,-0.265,0.100
7.908,-0.285,0.095
7.911,-0.320,0.085
7.914,-0.335,0.075
7.917,-0.340,0.090
7.919,-0.335,0.085
7.922,-0.345,0.080
7.925,-0.360,0.090
7.928,-0.370,0.085
7.931,-0.365,0.090
7.933,-0.375,0.095
7.936,-0.390,0.115
7.939,-0.385,0.110
7.942,-0.390,0.090
7.944,-0.400,0.075
7.947,-0.405,0.085
7.950,-0.385,0.110
7.953,-0.360,0.120
7.956,-0.325,0.110
7.958,-0.305,0.100
7.961,-0.315,0.100
7.964,-0.295,0.100
7.967,-0.270,0.110
7.969,-0.255,0.140
7.972,-0.210,0.160
7.975,-0.185,0.175
7.978,-0.180,0.180
7.981,-0.135,0.165
7.983,-0.090,0.150
7.986,-0.010,0.115
7.989,0.040,0.085
7.992,0.075,0.065
7.994,0.050,0.025
7.997,0.005,0.010
8.000,-0.040,0.010
8.003,-0.055,0.015
8.006,-0.105,0.015
8.008,-0.165,0.020
8.011,-0.225,0.040
8.014,-0.205,0.060
8.017,-0.165,0.065
8.019,-0.145,0.065
8.022,-0.190,0.070
8.025,-0.280,0.090
8.028,-0.365,0.080
8.031,-0.415,0.095
8.033,-0.395,0.110
8.036,-0.375,0.125
8.039,-0.415,0.110
8.042,-0.460,0.095
8.044,-0.480,0.090
8.047,-0.460,0.095
8.050,-0.445,0.115
8.053,-0.435,0.125
8.056,-0.450,0.130
8.058,-0.420,0.120
8.061,-0.420,0.095
8.064,-0.430,0.100
8.067,-0.495,0.095
8.069,-0.505,0.120
8.072,-0.495,0.115
8.075,-0.495,0.110
8.078,-0.565,0.100
8.081,-0.625,0.110
8.083,-0.615,0.135
8.086,-0.495,0.170
8.089,-0.250,0.175
8.092,0.125,0.150
8.094,0.580,0.110
8.097,1.070,0.095
8.100,1.460,0.110
8.103,1.705,0.170
8.106,1.845,0.190
8.108,1.900,0.215
8.111,1.830,0.255
8.114,1.625,0.320
8.117,1.175,0.355
8.119,0.535,0.325
8.122,-0.105,0.265
8.125,-0.745,0.170
8.128,-1.035,0.040
8.131,-0.795,-0.075
8.133,-0.595,-0.165
8.136,-0.570,-0.205
8.139,-0.605,-0.175
8.142,-0.620,-0.110
8.144,-0.590,-0.030
8.147,-0.565,0.040
8.150,-0.550,0.085
8.153,-0.550,0.115
8.156,-0.540,0.100
8.158,-0.540,0.050
8.161,-0.530,0.025
8.164,-0.525,0.025
8.167,-0.530,0.015
8.169,-0.550,0.035
8.172,-0.580,0.055
8.175,-0.580,0.090
8.178,-0.610,0.095
8.181,-0.625,0.100
8.183,-0.640,0.100
8.186,-0.645,0.090
8.189,-0.665,0.080
8.192,-0.705,0.095
8.194,-0.725,0.120
8.197,-0.710,0.125
8.200,-0.670,0.135
8.203,-0.645,0.125
8.206,-0.615,0.100
8.208,-0.590,0.070
8.211,-0.555,0.035
8.214,-0.550,0.015
8.217,-0.580,0.025
8.219,-0.600,0.040
8.222,-0.635,0.060
8.225,-0.635,0.070
8.228,-0.640,0.070
8.231,-0.625,0.085
8.233,-0.620,0.095
8.236,-0.610,0.110
8.239,-0.610,0.090
8.242,-0.610,0.075
8.244,-0.595,0.065
8.247,-0.575,0.075
8.250,-0.540,0.080
8.253,-0.530,0.090
8.256,-0.530,0.075
8.258,-0.525,0.055
8.261,-0.525,0.060
8.264,-0.500,0.050
8.267,-0.490,0.055
8.269,-0.495,0.065
8.272,-0.485,0.075
8.275,-0.465,0.060
8.278,-0.475,0.055
8.281,-0.455,0.055
8.283,-0.435,0.070
8.286,-0.380,0.085
8.289,-0.340,0.065
8.292,-0.355,0.055
8.294,-0.410,0.035
8.297,-0.420,0.055
8.300,-0.395,0.085
8.303,-0.340,0.105
8.306,-0.295,0.100
8.308,-0.265,0.065
8.311,-0.250,0.040
8.314,-0.225,0.045
8.317,-0.210,0.070
8.319,-0.200,0.090
8.322,-0.180,0.100
8.325,-0.145,0.100
8.328,-0.110,0.085
8.331,-0.035,0.040
8.333,0.015,-0.010
8.336,0.045,-0.025
8.339,0.075,-0.030
8.342,0.105,-0.020
8.344,0.140,-0.035
8.347,0.170,-0.020
8.350,0.200,-0.030
8.353,0.230,-0.045
8.356,0.265,-0.075
8.358,0.295,-0.095
8.361,0.315,-0.095
8.364,0.345,-0.075
8.367,0.375,-0.065
8.369,0.405,-0.050
8.372,0.410,-0.060
8.375,0.380,-0.065
8.378,0.355,-0.075
8.381,0.325,-0.065
8.383,0.305,-0.030
8.386,0.265,-0.005
8.389,0.225,-0.005
8.392,0.195,-0.010
8.394,0.170,-0.005
8.397,0.150,-0.015
8.400,0.125,0.005
8.403,0.080,0.015
8.406,0.040,0.020
8.408,0.010,0.000
8.411,-0.010,-0.005
8.414,-0.040,-0.015
8.417,-0.090,0.010
8.419,-0.130,0.050
8.422,-0.145,0.055
8.425,-0.200,0.030
8.428,-0.245,0.010
8.431,-0.270,0.020
8.433,-0.275,0.035
8.436,-0.300,0.055
8.439,-0.310,0.030
8.442,-0.330,0.000
8.444,-0.350,0.000
8.447,-0.370,0.020
8.450,-0.390,0.020
8.453,-0.400,0.030
8.456,-0.425,0.005
8.458,-0.460,0.005
8.461,-0.475,-0.005
8.464,-0.470,0.015
8.467,-0.465,0.030
8.469,-0.470,0.035
8.472,-0.470,0.015
8.475,-0.485,-0.005
8.478,-0.520,-0.005
8.481,-0.545,0.020
8.483,-0.560,0.040
8.486,-0.560,0.060
8.489,-0.565,0.055
8.492,-0.570,0.030
8.494,-0.565,0.025
8.497,-0.565,0.045
8.500,-0.560,0.065
8.503,-0.550,0.065
8.506,-0.530,0.045
8.508,-0.525,0.010
8.511,-0.550,-0.010
8.514,-0.555,0.020
8.517,-0.560,0.050
8.519,-0.530,0.065
8.522,-0.525,0.055
8.525,-0.515,0.045
8.528,-0.520,0.030
8.531,-0.515,0.025
8.533,-0.510,0.045
8.536,-0.520,0.060
8.539,-0.515,0.055
8.542,-0.500,0.045
8.544,-0.500,0.015
8.547,-0.480,0.040
8.550,-0.465,0.060
8.553,-0.455,0.060
8.556,-0.475,0.070
8.558,-0.490,0.070
8.561,-0.495,0.055
8.564,-0.495,0.050
8.567,-0.485,0.060
8.569,-0.465,0.050
8.572,-0.430,0.045
8.575,-0.420,0.025
8.578,-0.410,0.020
8.581,-0.425,0.030
8.583,-0.450,0.055
8.586,-0.460,0.095
8.589,-0.450,0.095
8.592,-0.430,0.060
8.594,-0.430,0.030
8.597,-0.415,0.025
8.600,-0.410,0.035
8.603,-0.425,0.055
8.606,-0.440,0.040
8.608,-0.465,0.035
8.611,-0.470,0.010
8.614,-0.465,0.015
8.617,-0.440,0.025
8.619,-0.400,0.030
8.622,-0.375,0.035
8.625,-0.400,0.030
8.628,-0.440,0.015
8.631,-0.460,0.010
8.633,-0.460,0.015
8.636,-0.445,0.020
8.639,-0.460,0.030
8.642,-0.430,0.020
8.644,-0.455,0.020
8.647,-0.465,0.025
8.650,-0.455,0.025
8.653,-0.430,0.010
8.656,-0.410,0.000
8.658,-0.435,0.000
8.661,-0.475,0.005
8.664,-0.495,0.030
8.667,-0.470,0.045
8.669,-0.445,0.060
8.672,-0.435,0.075
8.675,-0.440,0.060
8.678,-0.450,0.030
8.681,-0.475,-0.005
8.683,-0.485,-0.020
8.686,-0.470,-0.020
8.689,-0.505,-0.030
8.692,-0.510,-0.020
8.694,-0.535,-0.020
8.697,-0.545,0.000
8.700,-0.530,0.035
8.703,-0.515,0.055
8.706,-0.500,0.045
8.708,-0.490,0.050
8.711,-0.485,0.030
8.714,-0.485,0.025
8.717,-0.485,0.010
8.719,-0.490,0.035
8.722,-0.490,0.030
8.725,-0.515,0.040
8.728,-0.505,0.025
8.731,-0.500,0.010
8.733,-0.480,0.000
8.736,-0.465,0.000
8.739,-0.475,0.000
8.742,-0.470,-0.020
8.744,-0.475,-0.025
8.747,-0.470,-0.015
8.750,-0.475,0.000
8.753,-0.480,0.045
8.756,-0.455,0.040
8.758,-0.485,0.045
8.761,-0.525,0.050
8.764,-0.535,0.055
8.767,-0.515,0.010
8.769,-0.510,0.010
8.772,-0.485,0.000
8.775,-0.495,0.015
8.778,-0.495,0.015
8.781,-0.485,0.020
8.783,-0.495,0.005
8.786,-0.480,0.020
8.789,-0.485,0.000
8.792,-0.495,0.010
8.794,-0.510,0.020
8.797,-0.505,0.020
8.800,-0.460,0.030
8.803,-0.445,0.030
8.806,-0.440,0.010
8.808,-0.455,0.010
8.811,-0.495,0.015
8.814,-0.490,0.020
8.817,-0.485,0.025
8.819,-0.445,-0.015
8.822,-0.425,-0.035
8.825,-0.435,-0.025
8.828,-0.450,-0.025
8.831,-0.450,0.000
8.833,-0.395,0.010
8.836,-0.360,0.005
8.839,-0.350,-0.005
8.842,-0.345,-0.015
8.844,-0.375,0.000
8.847,-0.355,0.025
8.850,-0.350,0.070
8.853,-0.340,0.110
8.856,-0.325,0.130
8.858,-0.270,0.135
8.861,-0.220,0.130
8.864,-0.150,0.120
8.867,-0.100,0.060
8.869,-0.080,0.020
8.872,-0.085,-0.025
8.875,-0.110,-0.040
8.878,-0.170,-0.050
8.881,-0.185,-0.030
8.883,-0.205,0.000
8.886,-0.220,0.040
8.889,-0.225,0.030
8.892,-0.275,0.005
8.894,-0.320,-0.010
8.897,-0.360,-0.010
8.900,-0.380,0.010
8.903,-0.390,0.015
8.906,-0.385,0.020
8.908,-0.380,-0.010
8.911,-0.410,-0.025
8.914,-0.455,-0.030
8.917,-0.480,-0.005
8.919,-0.470,0.015
8.922,-0.475,0.020
8.925,-0.465,-0.005
8.928,-0.490,-0.020
8.931,-0.495,-0.010
8.933,-0.485,0.015
8.936,-0.465,0.020
8.939,-0.450,0.015
8.942,-0.445,-0.005
8.944,-0.475,-0.020
8.947,-0.490,-0.020
8.950,-0.500,0.010
8.953,-0.540,0.015
8.956,-0.580,0.005
8.958,-0.595,-0.035
8.961,-0.520,-0.040
8.964,-0.330,-0.025
8.967,0.010,-0.010
8.969,0.505,-0.010
8.972,1.030,-0.020
8.975,1.470,0.005
8.978,1.720,0.050
8.981,1.855,0.105
8.983,1.915,0.185
8.986,1.885,0.250
8.989,1.735,0.280
8.992,1.350,0.230
8.994,0.710,0.135
8.997,0.070,0.055
9.000,-0.570,0.015
9.003,-1.050,-0.035
9.006,-0.880,-0.115
9.008,-0.675,-0.200
9.011,-0.625,-0.275
9.014,-0.635,-0.260
9.017,-0.625,-0.220
9.019,-0.590,-0.155
9.022,-0.575,-0.095
9.025,-0.560,-0.065
9.028,-0.565,-0.045
9.031,-0.575,-0.025
9.033,-0.560,0.010
9.036,-0.575,0.030
9.039,-0.570,0.035
9.042,-0.580,0.030
9.044,-0.585,0.010
9.047,-0.575,0.035
9.050,-0.555,0.035
9.053,-0.560,0.065
9.056,-0.570,0.070
9.058,-0.595,0.060
9.061,-0.620,0.035
9.064,-0.605,0.055
9.067,-0.600,0.050
9.069,-0.575,0.075
9.072,-0.565,0.070
9.075,-0.555,0.065
9.078,-0.570,0.070
9.081,-0.575,0.070
9.083,-0.555,0.070
9.086,-0.540,0.075
9.089,-0.525,0.045
9.092,-0.530,0.040
9.094,-0.550,0.025
9.097,-0.550,0.045
9.100,-0.535,0.070
9.103,-0.535,0.075
9.106,-0.525,0.080
9.108,-0.505,0.075
9.111,-0.530,0.045
9.114,-0.545,0.050
9.117,-0.530,0.075
9.119,-0.515,0.115
9.122,-0.490,0.125
9.125,-0.480,0.100
9.128,-0.475,0.070
9.131,-0.475,0.045
9.133,-0.465,0.060
9.136,-0.445,0.045
9.139,-0.405,0.015
9.142,-0.385,-0.015
9.144,-0.385,-0.050
9.147,-0.410,-0.030
9.150,-0.425,0.010
9.153,-0.415,0.035
9.156,-0.415,0.060
9.158,-0.390,0.070
9.161,-0.365,0.070
9.164,-0.350,0.090
9.167,-0.320,0.095
9.169,-0.290,0.095
9.172,-0.275,0.090
9.175,-0.285,0.085
9.178,-0.310,0.085
9.181,-0.285,0.085
9.183,-0.255,0.100
9.186,-0.195,0.090
9.189,-0.155,0.050
9.192,-0.120,-0.010
9.194,-0.125,-0.050
9.197,-0.100,-0.050
9.200,-0.065,-0.025
9.203,0.005,0.000
9.206,0.055,0.015
9.208,0.080,-0.010
9.211,0.105,-0.040
9.214,0.100,-0.050
9.217,0.095,-0.030
9.219,0.115,-0.010
9.222,0.195,0.000
9.225,0.230,-0.005
9.228,0.285,-0.020
9.231,0.305,-0.005
9.233,0.345,0.005
9.236,0.390,0.030
9.239,0.430,0.015
9.242,0.445,0.025
9.244,0.440,0.025
9.247,0.455,0.025
9.250,0.465,0.030
9.253,0.475,0.015
9.256,0.480,0.005
9.258,0.450,-0.005
9.261,0.430,-0.025
9.264,0.390,-0.005
9.267,0.370,0.015
9.269,0.355,0.055
9.272,0.340,0.065
9.275,0.310,0.060
9.278,0.275,0.045
9.281,0.250,0.065
9.283,0.225,0.075
9.286,0.220,0.075
9.289,0.185,0.045
9.292,0.135,0.005
9.294,0.085,0.000
9.297,0.065,0.020
9.300,0.040,0.040
9.303,0.025,0.065
9.306,-0.030,0.060
9.308,-0.090,0.040
9.311,-0.135,0.025
9.314,-0.135,0.020
9.317,-0.155,0.030
9.319,-0.155,0.040
9.322,-0.175,0.045
9.325,-0.220,0.040
9.328,-0.250,0.025
9.331,-0.270,0.035
9.333,-0.255,0.035
9.336,-0.255,0.055
9.339,-0.270,0.045
9.342,-0.290,0.045
9.344,-0.305,0.045
9.347,-0.335,0.050
9.350,-0.325,0.055
9.353,-0.330,0.070
9.356,-0.360,0.080
9.358,-0.380,0.080
9.361,-0.370,0.065
9.364,-0.355,0.055
9.367,-0.350,0.050
9.369,-0.360,0.070
9.372,-0.380,0.065
9.375,-0.410,0.050
9.378,-0.440,0.050
9.381,-0.435,0.050
9.383,-0.445,0.080
9.386,-0.470,0.115
9.389,-0.490,0.115
9.392,-0.515,0.095
9.394,-0.510,0.080
9.397,-0.495,0.070
9.400,-0.475,0.090
9.403,-0.460,0.090
9.406,-0.445,0.080
9.408,-0.450,0.045
9.411,-0.465,0.030
9.414,-0.495,0.065
9.417,-0.475,0.085
9.419,-0.460,0.100
9.422,-0.445,0.095
9.425,-0.435,0.085
9.428,-0.455,0.065
9.431,-0.445,0.065
9.433,-0.440,0.060
9.436,-0.405,0.065
9.439,-0.415,0.055
9.442,-0.415,0.060
9.444,-0.435,0.035
9.447,-0.450,0.070
9.450,-0.430,0.090
9.453,-0.400,0.110
9.456,-0.400,0.095
9.458,-0.405,0.085
9.461,-0.420,0.075
9.464,-0.420,0.115
9.467,-0.415,0.125
9.469,-0.405,0.110
9.472,-0.390,0.080
9.475,-0.400,0.075
9.478,-0.390,0.065
9.481,-0.375,0.080
9.483,-0.365,0.080
9.486,-0.345,0.060
9.489,-0.340,0.035
9.492,-0.355,0.035
9.494,-0.385,0.055
9.497,-0.380,0.085
9.500,-0.375,0.100
9.503,-0.370,0.110
9.506,-0.355,0.065
9.508,-0.345,0.045
9.511,-0.380,0.030
9.514,-0.390,0.030
9.517,-0.375,0.045
9.519,-0.360,0.055
9.522,-0.355,0.075
9.525,-0.365,0.075
9.528,-0.365,0.065
9.531,-0.355,0.055
9.533,-0.340,0.055
9.536,-0.350,0.050
9.539,-0.370,0.060
9.542,-0.385,0.050
9.544,-0.425,0.055
9.547,-0.405,0.065
9.550,-0.420,0.095
9.553,-0.395,0.105
9.556,-0.390,0.100
9.558,-0.390,0.100
9.561,-0.395,0.095
9.564,-0.410,0.105
9.567,-0.390,0.115
9.569,-0.370,0.085
9.572,-0.380,0.045
9.575,-0.410,0.025
9.578,-0.440,0.010
9.581,-0.455,0.035
9.583,-0.435,0.065
9.586,-0.410,0.075
9.589,-0.410,0.070
9.592,-0.410,0.055
9.594,-0.435,0.040
9.597,-0.455,0.050
9.600,-0.470,0.060
9.603,-0.445,0.070
9.606,-0.420,0.065
9.608,-0.405,0.045
9.611,-0.425,0.045
9.614,-0.445,0.060
9.617,-0.445,0.060
9.619,-0.440,0.070
9.622,-0.425,0.070
9.625,-0.445,0.060
9.628,-0.445,0.040
9.631,-0.430,0.055
9.633,-0.425,0.055
9.636,-0.425,0.080
9.639,-0.440,0.090
9.642,-0.455,0.065
9.644,-0.465,0.055
9.647,-0.480,0.065
9.650,-0.490,0.085
9.653,-0.465,0.110
9.656,-0.450,0.095
9.658,-0.450,0.060
9.661,-0.465,0.040
9.664,-0.455,0.055
9.667,-0.440,0.085
9.669,-0.410,0.075
9.672,-0.435,0.030
9.675,-0.455,-0.005
9.678,-0.455,-0.010
9.681,-0.460,0.015
9.683,-0.460,0.055
9.686,-0.455,0.075
9.689,-0.475,0.060
9.692,-0.475,0.040
9.694,-0.495,0.010
9.697,-0.495,0.020
9.700,-0.480,0.035
9.703,-0.460,0.055
9.706,-0.440,0.045
9.708,-0.440,0.035
9.711,-0.465,0.045
9.714,-0.470,0.055
9.717,-0.475,0.085
9.719,-0.450,0.085
9.722,-0.455,0.065
9.725,-0.445,0.045
9.728,-0.460,0.030
9.731,-0.470,0.030
9.733,-0.495,0.055
9.736,-0.475,0.075
9.739,-0.445,0.085
9.742,-0.435,0.075
9.744,-0.465,0.050
9.747,-0.470,0.065
9.750,-0.445,0.080
9.753,-0.440,0.085
9.756,-0.460,0.085
9.758,-0.480,0.095
9.761,-0.475,0.075
9.764,-0.465,0.080
9.767,-0.440,0.070
9.769,-0.395,0.095
9.772,-0.390,0.100
9.775,-0.380,0.105
9.778,-0.375,0.095
9.781,-0.340,0.110
9.783,-0.315,0.140
9.786,-0.265,0.165
9.789,-0.245,0.175
9.792,-0.200,0.170
9.794,-0.150,0.120
9.797,-0.115,0.095
9.800,-0.100,0.100
9.803,-0.100,0.105
9.806,-0.100,0.115
9.808,-0.095,0.095
9.811,-0.100,0.070
9.814,-0.145,0.060
9.817,-0.150,0.065
9.819,-0.150,0.060
9.822,-0.185,0.055
9.825,-0.255,0.055
9.828,-0.335,0.060
9.831,-0.370,0.095
9.833,-0.370,0.125
9.836,-0.360,0.110
9.839,-0.355,0.105
9.842,-0.385,0.090
9.844,-0.435,0.070
9.847,-0.460,0.075
9.850,-0.480,0.065
9.853,-0.480,0.075
9.856,-0.450,0.055
9.858,-0.440,0.045
9.861,-0.435,0.025
9.864,-0.460,0.025
9.867,-0.460,0.030
9.869,-0.450,0.045
9.872,-0.450,0.065
9.875,-0.475,0.065
9.878,-0.495,0.065
9.881,-0.510,0.070
9.883,-0.510,0.070
9.886,-0.520,0.060
9.889,-0.565,0.055
9.892,-0.605,0.045
9.894,-0.615,0.035
9.897,-0.540,0.020
9.900,-0.340,0.010
9.903,-0.030,0.005
9.906,0.440,-0.025
9.908,0.950,-0.070
9.911,1.350,-0.045
9.914,1.630,0.025
9.917,1.790,0.115
9.919,1.870,0.180
9.922,1.845,0.230
9.925,1.750,0.285
9.928,1.500,0.280
9.931,1.050,0.250
9.933,0.410,0.210
9.936,-0.230,0.160
9.939,-0.785,0.090
9.942,-0.855,-0.030
9.944,-0.710,-0.155
9.947,-0.585,-0.220
9.950,-0.590,-0.220
9.953,-0.585,-0.180
9.956,-0.570,-0.145
9.958,-0.545,-0.100
9.961,-0.530,-0.050
9.964,-0.535,-0.010
9.967,-0.545,0.025
9.969,-0.550,0.050
9.972,-0.565,0.070
9.975,-0.590,0.055
9.978,-0.590,0.065
9.981,-0.595,0.070
9.983,-0.590,0.075
9.986,-0.580,0.085
9.989,-0.570,0.085
9.992,-0.575,0.075
9.994,-0.570,0.105
9.997,-0.570,0.110
10.000,-0.555,0.105
10.003,-0.535,0.100
10.006,-0.510,0.080
10.008,-0.520,0.050
10.011,-0.535,0.055
10.014,-0.560,0.060
10.017,-0.570,0.095
10.019,-0.570,0.105
10.022,-0.560,0.095
10.025,-0.555,0.080
10.028,-0.545,0.070
10.031,-0.555,0.070
10.033,-0.520,0.065
10.036,-0.505,0.065
10.039,-0.505,0.050
10.042,-0.520,0.065
10.044,-0.535,0.055
10.047,-0.520,0.070
10.050,-0.510,0.080
10.053,-0.490,0.090
10.056,-0.485,0.090
10.058,-0.495,0.090
10.061,-0.480,0.100
10.064,-0.470,0.110
10.067,-0.445,0.100
10.069,-0.420,0.085
10.072,-0.415,0.070
10.075,-0.435,0.060
10.078,-0.445,0.050
10.081,-0.450,0.060
10.083,-0.425,0.090
10.086,-0.405,0.105
10.089,-0.410,0.085
10.092,-0.405,0.060
10.094,-0.410,0.035
10.097,-0.380,0.040
10.100,-0.375,0.050
10.103,-0.350,0.080
10.106,-0.345,0.075
10.108,-0.350,0.075
10.111,-0.365,0.065
10.114,-0.375,0.085
10.117,-0.330,0.100
10.119,-0.290,0.100
10.122,-0.260,0.070
10.125,-0.250,0.050
10.128,-0.250,0.045
10.131,-0.235,0.045
10.133,-0.195,0.065
10.136,-0.180,0.080
10.139,-0.145,0.075
10.142,-0.130,0.065
10.144,-0.110,0.055
10.147,-0.100,0.060
10.150,-0.070,0.080
10.153,-0.040,0.075
10.156,-0.005,0.090
10.158,0.020,0.075
10.161,0.030,0.070
10.164,0.050,0.080
10.167,0.075,0.115
10.169,0.110,0.135
10.172,0.160,0.125
10.175,0.205,0.085
10.178,0.230,0.035
10.181,0.245,0.010
10.183,0.275,0.015
10.186,0.325,0.030
10.189,0.335,0.015
10.192,0.375,-0.020
10.194,0.390,-0.030
10.197,0.425,-0.035
10.200,0.455,-0.005
10.203,0.490,0.000
10.206,0.490,-0.010
10.208,0.445,-0.010
10.211,0.365,-0.015
10.214,0.335,0.020
10.217,0.350,0.060
10.219,0.370,0.060
10.222,0.370,0.060
10.225,0.340,0.050
10.228,0.315,0.050
10.231,0.300,0.070
10.233,0.275,0.095
10.236,0.250,0.115
10.239,0.215,0.100
10.242,0.170,0.100
10.244,0.120,0.080
10.247,0.085,0.095
10.250,0.075,0.125
10.253,0.055,0.160
10.256,0.035,0.140
10.258,-0.005,0.095
10.261,-0.045,0.030
10.264,-0.075,-0.005
10.267,-0.085,0.015
10.269,-0.105,0.065
10.272,-0.145,0.105
10.275,-0.175,0.140
10.278,-0.195,0.135
10.281,-0.205,0.110
10.283,-0.210,0.050
10.286,-0.200,0.015
10.289,-0.215,-0.015
10.292,-0.235,-0.005
10.294,-0.275,-0.010
10.297,-0.315,-0.010
10.300,-0.340,0.025
10.303,-0.350,0.055
10.306,-0.380,0.060
10.308,-0.400,0.050
10.311,-0.420,0.050
10.314,-0.430,0.055
10.317,-0.420,0.075
10.319,-0.405,0.100
10.322,-0.435,0.095
10.325,-0.465,0.090
10.328,-0.500,0.095
10.331,-0.495,0.110
10.333,-0.465,0.140
10.336,-0.475,0.160
10.339,-0.465,0.140
10.342,-0.470,0.100
10.344,-0.495,0.075
10.347,-0.505,0.075
10.350,-0.505,0.115
10.353,-0.500,0.150
10.356,-0.505,0.145
10.358,-0.510,0.125
10.361,-0.520,0.105
10.364,-0.505,0.085
10.367,-0.500,0.075
10.369,-0.495,0.080
10.372,-0.495,0.100
10.375,-0.490,0.110
10.378,-0.520,0.110
10.381,-0.515,0.105
10.383,-0.530,0.080
10.386,-0.510,0.080
10.389,-0.510,0.085
10.392,-0.510,0.090
10.394,-0.520,0.080
10.397,-0.510,0.105
10.400,-0.475,0.130
10.403,-0.465,0.160
10.406,-0.475,0.120
10.408,-0.470,0.070
10.411,-0.470,0.030
10.414,-0.495,0.015
10.417,-0.510,0.050
10.419,-0.510,0.080
10.422,-0.510,0.090
10.425,-0.530,0.085
10.428,-0.515,0.060
10.431,-0.500,0.080
10.433,-0.495,0.110
10.436,-0.500,0.135
10.439,-0.495,0.150
10.442,-0.485,0.140
10.444,-0.480,0.130
10.447,-0.495,0.095
10.450,-0.485,0.075
10.453,-0.480,0.080
10.456,-0.460,0.080
10.458,-0.465,0.080
10.461,-0.440,0.090
10.464,-0.410,0.075
10.467,-0.390,0.050
10.469,-0.410,0.050
10.472,-0.470,0.040
10.475,-0.555,0.055
10.478,-0.615,0.085
10.481,-0.635,0.110
10.483,-0.605,0.130
10.486,-0.580,0.140
10.489,-0.570,0.140
10.492,-0.555,0.125
10.494,-0.565,0.115
10.497,-0.560,0.120
10.500,-0.525,0.135
10.503,-0.465,0.150
10.506,-0.415,0.135
10.508,-0.415,0.105
10.511,-0.505,0.070
10.514,-0.600,0.050
10.517,-0.615,0.090
10.519,-0.540,0.115
10.522,-0.455,0.105
10.525,-0.380,0.050
10.528,-0.410,-0.005
10.531,-0.480,0.005
10.533,-0.525,0.050
10.536,-0.485,0.095
10.539,-0.455,0.075
10.542,-0.545,0.055
10.544,-0.670,0.085
10.547,-0.710,0.140
10.550,-0.665,0.140
10.553,-0.655,0.105
10.556,-0.730,0.100
10.558,-0.810,0.135
10.561,-0.780,0.175
10.564,-0.670,0.185
10.567,-0.640,0.170
10.569,-0.660,0.150
10.572,-0.695,0.155
10.575,-0.740,0.150
10.578,-0.730,0.165
10.581,-0.700,0.185
10.583,-0.675,0.185
10.586,-0.670,0.170
10.589,-0.660,0.130
10.592,-0.660,0.090
10.594,-0.670,0.080
10.597,-0.670,0.105
10.600,-0.675,0.120
10.603,-0.670,0.110
10.606,-0.650,0.085
10.608,-0.635,0.085
10.611,-0.655,0.085
10.614,-0.675,0.095
10.617,-0.665,0.100
10.619,-0.650,0.105
10.622,-0.635,0.065
10.625,-0.660,0.050
10.628,-0.685,0.035
10.631,-0.685,0.035
10.633,-0.670,0.055
10.636,-0.665,0.080
10.639,-0.665,0.090
10.642,-0.675,0.095
10.644,-0.690,0.080
10.647,-0.695,0.070
10.650,-0.680,0.090
10.653,-0.670,0.095
10.656,-0.650,0.100
10.658,-0.665,0.090
10.661,-0.685,0.075
10.664,-0.685,0.070
10.667,-0.665,0.085
10.669,-0.640,0.110
10.672,-0.665,0.105
10.675,-0.700,0.105
10.678,-0.740,0.085
10.681,-0.715,0.080
10.683,-0.680,0.095
10.686,-0.660,0.105
10.689,-0.645,0.100
10.692,-0.655,0.075
10.694,-0.670,0.075
10.697,-0.680,0.065
10.700,-0.675,0.095
10.703,-0.680,0.115
10.706,-0.680,0.120
10.708,-0.675,0.095
10.711,-0.685,0.085
10.714,-0.670,0.075
10.717,-0.695,0.095
10.719,-0.690,0.110
10.722,-0.675,0.110
10.725,-0.660,0.085
10.728,-0.685,0.085
10.731,-0.685,0.095
10.733,-0.675,0.095
10.736,-0.665,0.110
10.739,-0.660,0.105
10.742,-0.665,0.095
10.744,-0.675,0.095
10.747,-0.675,0.090
10.750,-0.670,0.095
10.753,-0.650,0.125
10.756,-0.635,0.120
10.758,-0.640,0.100
10.761,-0.645,0.100
10.764,-0.660,0.110
10.767,-0.650,0.120
10.769,-0.625,0.120
10.772,-0.610,0.135
10.775,-0.610,0.145
10.778,-0.585,0.150
10.781,-0.580,0.170
10.783,-0.545,0.200
10.786,-0.515,0.215
10.789,-0.475,0.205
10.792,-0.430,0.200
10.794,-0.390,0.190
10.797,-0.345,0.185
10.800,-0.325,0.170
10.803,-0.315,0.200
10.806,-0.310,0.195
10.808,-0.325,0.185
10.811,-0.350,0.145
10.814,-0.365,0.125
10.817,-0.365,0.120
10.819,-0.345,0.110
10.822,-0.370,0.110
10.825,-0.420,0.095
10.828,-0.480,0.080
10.831,-0.510,0.085
10.833,-0.510,0.100
10.836,-0.515,0.115
10.839,-0.540,0.105
10.842,-0.560,0.085
10.844,-0.575,0.080
10.847,-0.580,0.075
10.850,-0.575,0.080
10.853,-0.600,0.100
10.856,-0.605,0.080
10.858,-0.645,0.075
10.861,-0.665,0.085
10.864,-0.680,0.105
10.867,-0.655,0.125
10.869,-0.640,0.125
10.872,-0.635,0.120
10.875,-0.615,0.105
10.878,-0.620,0.090
10.881,-0.630,0.085
10.883,-0.630,0.090
10.886,-0.650,0.070
10.889,-0.685,0.030
10.892,-0.730,0.020
10.894,-0.695,0.020
10.897,-0.565,0.030
10.900,-0.300,0.040
10.903,0.085,0.045
10.906,0.575,0.025
10.908,1.055,0.035
10.911,1.410,0.075
10.914,1.670,0.125
10.917,1.840,0.175
10.919,1.930,0.195
10.922,1.905,0.195
10.925,1.750,0.205
10.928,1.395,0.190
10.931,0.830,0.160
10.933,0.190,0.140
10.936,-0.450,0.135
10.939,-0.975,0.090
10.942,-1.025,0.015
10.944,-0.900,-0.075
10.947,-0.790,-0.145
10.950,-0.770,-0.190
10.953,-0.750,-0.195
10.956,-0.755,-0.190
10.958,-0.745,-0.165
10.961,-0.745,-0.105
10.964,-0.715,-0.040
10.967,-0.690,0.005
10.969,-0.660,0.050
10.972,-0.685,0.050
10.975,-0.690,0.065
10.978,-0.675,0.045
10.981,-0.670,0.040
10.983,-0.660,0.065
10.986,-0.675,0.105
10.989,-0.660,0.120
10.992,-0.670,0.120
10.994,-0.715,0.090
10.997,-0.740,0.090
11.000,-0.725,0.105
11.003,-0.680,0.110
11.006,-0.630,0.085
11.008,-0.615,0.050
11.011,-0.650,0.045
11.014,-0.655,0.055
11.017,-0.680,0.085
11.019,-0.690,0.095
11.022,-0.655,0.090
11.025,-0.660,0.070
11.028,-0.675,0.055
11.031,-0.670,0.070
11.033,-0.650,0.085
11.036,-0.620,0.090
11.039,-0.615,0.095
11.042,-0.635,0.090
11.044,-0.650,0.080
11.047,-0.630,0.080
11.050,-0.610,0.090
11.053,-0.570,0.100
11.056,-0.560,0.100
11.058,-0.585,0.090
11.061,-0.600,0.060
11.064,-0.575,0.050
11.067,-0.545,0.040
11.069,-0.520,0.055
11.072,-0.515,0.045
11.075,-0.545,0.040
11.078,-0.525,0.030
11.081,-0.515,0.040
11.083,-0.505,0.055
11.086,-0.475,0.080
11.089,-0.450,0.075
11.092,-0.455,0.055
11.094,-0.475,0.040
11.097,-0.490,0.050
11.100,-0.475,0.060
11.103,-0.430,0.065
11.106,-0.405,0.045
11.108,-0.400,0.055
11.111,-0.390,0.040
11.114,-0.405,0.045
11.117,-0.370,0.070
11.119,-0.350,0.095
11.122,-0.325,0.080
11.125,-0.330,0.080
11.128,-0.330,0.065
11.131,-0.330,0.070
11.133,-0.290,0.075
11.136,-0.260,0.075
11.139,-0.225,0.065
11.142,-0.225,0.050
11.144,-0.210,0.035
11.147,-0.195,0.055
11.150,-0.165,0.065
11.153,-0.125,0.070
11.156,-0.090,0.070
11.158,-0.085,0.060
11.161,-0.100,0.035
11.164,-0.070,0.035
11.167,-0.010,0.055
11.169,0.050,0.075
11.172,0.090,0.060
11.175,0.085,0.050
11.178,0.100,0.015
11.181,0.120,0.025
11.183,0.175,0.025
11.186,0.200,0.030
11.189,0.230,0.030
11.192,0.255,0.020
11.194,0.255,0.015
11.197,0.265,0.005
11.200,0.275,0.025
11.203,0.315,0.045
11.206,0.320,0.050
11.208,0.325,0.060
11.211,0.310,0.035
11.214,0.310,0.035
11.217,0.290,0.040
11.219,0.320,0.050
11.222,0.320,0.040
11.225,0.310,0.050
11.228,0.280,0.040
11.231,0.230,0.060
11.233,0.170,0.065
11.236,0.135,0.085
11.239,0.135,0.090
11.242,0.155,0.070
11.244,0.145,0.025
11.247,0.115,0.005
11.250,0.050,0.020
11.253,-0.025,0.045
11.256,-0.115,0.070
11.258,-0.155,0.105
11.261,-0.175,0.110
11.264,-0.190,0.125
11.267,-0.200,0.135
11.269,-0.195,0.140
11.272,-0.210,0.130
11.275,-0.250,0.120
11.278,-0.270,0.085
11.281,-0.300,0.075
11.283,-0.305,0.090
11.286,-0.310,0.105
11.289,-0.305,0.105
11.292,-0.330,0.100
11.294,-0.365,0.090
11.297,-0.380,0.105
11.300,-0.370,0.130
11.303,-0.365,0.135
11.306,-0.360,0.145
11.308,-0.395,0.120
11.311,-0.425,0.115
11.314,-0.445,0.125
11.317,-0.445,0.125
11.319,-0.430,0.140
11.322,-0.450,0.130
11.325,-0.455,0.115
11.328,-0.455,0.105
11.331,-0.470,0.115
11.333,-0.465,0.140
11.336,-0.465,0.160
11.339,-0.450,0.140
11.342,-0.460,0.105
11.344,-0.475,0.105
11.347,-0.480,0.120
11.350,-0.465,0.125
11.353,-0.445,0.120
11.356,-0.440,0.125
11.358,-0.460,0.110
11.361,-0.495,0.125
11.364,-0.495,0.120
11.367,-0.475,0.125
11.369,-0.455,0.115
11.372,-0.445,0.100
11.375,-0.440,0.075
11.378,-0.455,0.065
11.381,-0.470,0.085
11.383,-0.470,0.085
11.386,-0.445,0.100
11.389,-0.415,0.085
11.392,-0.420,0.050
11.394,-0.440,0.045
11.397,-0.455,0.050
11.400,-0.430,0.060
11.403,-0.415,0.060
11.406,-0.415,0.055
11.408,-0.420,0.050
11.411,-0.425,0.050
11.414,-0.415,0.045
11.417,-0.380,0.065
11.419,-0.365,0.080
11.422,-0.370,0.080
11.425,-0.355,0.055
11.428,-0.370,0.050
11.431,-0.365,0.050
11.433,-0.355,0.070
11.436,-0.345,0.080
11.439,-0.335,0.050
11.442,-0.340,0.025
11.444,-0.340,0.020
11.447,-0.345,0.030
11.450,-0.335,0.050
11.453,-0.320,0.060
11.456,-0.310,0.050
11.458,-0.320,0.045
11.461,-0.350,0.045
11.464,-0.370,0.050
11.467,-0.355,0.080
11.469,-0.335,0.095
11.472,-0.325,0.065
11.475,-0.345,0.040
11.478,-0.350,0.015
11.481,-0.360,0.020
11.483,-0.365,0.035
11.486,-0.370,0.050
11.489,-0.390,0.030
11.492,-0.370,0.025
11.494,-0.365,0.015
11.497,-0.365,0.015
11.500,-0.370,0.005
11.503,-0.365,0.020
11.506,-0.370,0.025
11.508,-0.365,0.015
11.511,-0.375,0.000
11.514,-0.395,-0.025
11.517,-0.390,-0.015
11.519,-0.370,0.005
11.522,-0.365,0.000
11.525,-0.375,0.000
11.528,-0.400,0.000
11.531,-0.405,0.015
11.533,-0.400,0.035
11.536,-0.385,0.045
11.539,-0.380,0.025
11.542,-0.400,0.000
11.544,-0.430,0.015
11.547,-0.415,0.025
11.550,-0.420,0.040
11.553,-0.425,0.045
11.556,-0.410,0.040
11.558,-0.410,0.025
11.561,-0.435,0.000
11.564,-0.440,0.025
11.567,-0.420,0.025
11.569,-0.400,0.035
11.572,-0.410,0.025
11.575,-0.435,0.030
11.578,-0.445,0.025
11.581,-0.465,0.025
11.583,-0.450,0.045
11.586,-0.435,0.055
11.589,-0.415,0.045
11.592,-0.415,0.040
11.594,-0.445,0.010
11.597,-0.465,0.005
11.600,-0.460,-0.010
11.603,-0.425,-0.010
11.606,-0.415,-0.015
11.608,-0.425,-0.020
11.611,-0.460,-0.020
11.614,-0.455,-0.020
11.617,-0.435,-0.005
11.619,-0.425,0.025
11.622,-0.415,0.015
11.625,-0.420,0.005
11.628,-0.450,-0.025
11.631,-0.460,-0.020
11.633,-0.445,-0.020
11.636,-0.415,0.005
11.639,-0.400,0.005
11.642,-0.410,0.000
11.644,-0.430,-0.005
11.647,-0.450,0.000
11.650,-0.470,0.010
11.653,-0.470,0.030
11.656,-0.450,0.010
11.658,-0.420,-0.015
11.661,-0.425,-0.015
11.664,-0.445,-0.015
11.667,-0.440,-0.005
11.669,-0.415,0.010
11.672,-0.405,0.000
11.675,-0.430,0.005
11.678,-0.435,-0.005
11.681,-0.435,0.000
11.683,-0.430,0.000
11.686,-0.410,0.015
11.689,-0.420,0.010
11.692,-0.400,-0.005
11.694,-0.400,-0.015
11.697,-0.400,-0.005
11.700,-0.415,-0.005
11.703,-0.400,0.010
11.706,-0.390,-0.005
11.708,-0.405,-0.005
11.711,-0.450,-0.025
11.714,-0.440,-0.010
11.717,-0.410,-0.015
11.719,-0.385,-0.020
11.722,-0.390,-0.025
11.725,-0.410,-0.045
11.728,-0.435,-0.045
11.731,-0.435,-0.055
11.733,-0.395,-0.035
11.736,-0.365,-0.010
11.739,-0.350,0.000
11.742,-0.330,-0.005
11.744,-0.345,0.000
11.747,-0.335,0.005
11.750,-0.320,0.040
11.753,-0.270,0.075
11.756,-0.235,0.095
11.758,-0.220,0.100
11.761,-0.230,0.090
11.764,-0.205,0.105
11.767,-0.170,0.110
11.769,-0.120,0.125
11.772,-0.060,0.100
11.775,-0.035,0.055
11.778,-0.055,0.030
11.781,-0.060,0.000
11.783,-0.050,0.010
11.786,-0.045,0.030
11.789,-0.050,0.025
11.792,-0.050,0.005
11.794,-0.095,-0.005
11.797,-0.135,-0.015
11.800,-0.175,-0.010
11.803,-0.205,0.010
11.806,-0.225,0.030
11.808,-0.250,0.025
11.811,-0.290,-0.020
11.814,-0.305,-0.035
11.817,-0.305,-0.030
11.819,-0.310,-0.025
11.822,-0.330,-0.010
11.825,-0.335,-0.005
11.828,-0.365,-0.005
11.831,-0.375,-0.020
11.833,-0.360,-0.035
11.836,-0.350,-0.040
11.839,-0.335,-0.035
11.842,-0.345,-0.040
11.844,-0.380,-0.045
11.847,-0.400,-0.065
11.850,-0.395,-0.055
11.853,-0.380,-0.055
11.856,-0.375,-0.050
11.858,-0.405,-0.070
11.861,-0.450,-0.075
11.864,-0.490,-0.065
11.867,-0.530,-0.065
11.869,-0.480,-0.055
11.872,-0.320,-0.060
11.875,-0.055,-0.045
11.878,0.345,-0.045
11.881,0.835,-0.075
11.883,1.300,-0.065
11.886,1.670,-0.025
11.889,1.895,0.030
11.892,2.050,0.095
11.894,2.095,0.140
11.897,2.030,0.190
11.900,1.855,0.215
11.903,1.505,0.155
11.906,0.950,0.065
11.908,0.310,-0.035
11.911,-0.330,-0.125
11.914,-0.755,-0.185
11.917,-0.675,-0.240
11.919,-0.465,-0.280
11.922,-0.365,-0.305
11.925,-0.395,-0.305
11.928,-0.440,-0.275
11.931,-0.470,-0.225
11.933,-0.450,-0.165
11.936,-0.395,-0.125
11.939,-0.400,-0.090
11.942,-0.395,-0.070
11.944,-0.415,-0.055
11.947,-0.425,-0.055
11.950,-0.435,-0.050
11.953,-0.435,-0.020
11.956,-0.410,-0.015
11.958,-0.430,-0.005
11.961,-0.430,-0.015
11.964,-0.425,-0.020
11.967,-0.400,0.005
11.969,-0.395,0.025
11.972,-0.390,0.030
11.975,-0.430,0.030
11.978,-0.485,0.025
11.981,-0.450,0.015
11.983,-0.400,0.020
11.986,-0.355,0.015
11.989,-0.370,0.000
11.992,-0.405,-0.020
11.994,-0.420,-0.070
11.997,-0.415,-0.070
12.000,-0.390,-0.070
12.003,-0.370,-0.045
12.006,-0.360,-0.040
12.008,-0.350,-0.025
12.011,-0.355,-0.010
12.014,-0.385,-0.005
12.017,-0.410,0.000
12.019,-0.400,-0.035
12.022,-0.365,-0.060
12.025,-0.340,-0.080
12.028,-0.340,-0.075
12.031,-0.350,-0.070
12.033,-0.335,-0.045
12.036,-0.345,-0.040
12.039,-0.345,-0.030
12.042,-0.325,-0.030
12.044,-0.310,-0.035
12.047,-0.300,-0.030
12.050,-0.295,-0.030
12.053,-0.290,-0.025
12.056,-0.260,-0.030
12.058,-0.250,-0.030
12.061,-0.255,-0.010
12.064,-0.270,-0.010
12.067,-0.260,-0.010
12.069,-0.260,-0.005
12.072,-0.235,-0.010
12.075,-0.215,-0.020
12.078,-0.205,-0.030
12.081,-0.215,-0.005
12.083,-0.215,-0.010
12.086,-0.195,-0.010
12.089,-0.180,-0.040
12.092,-0.160,-0.035
12.094,-0.150,-0.040
12.097,-0.140,-0.045
12.100,-0.110,-0.030
12.103,-0.085,-0.015
12.106,-0.090,-0.020
12.108,-0.060,-0.030
12.111,-0.045,-0.050
12.114,-0.035,-0.035
12.117,-0.015,-0.025
12.119,0.045,-0.010
12.122,0.065,-0.015
12.125,0.090,-0.020
12.128,0.110,-0.025
12.131,0.120,-0.020
12.133,0.165,-0.010
12.136,0.215,-0.005
12.139,0.250,-0.040
12.142,0.285,-0.050
12.144,0.310,-0.065
12.147,0.320,-0.045
12.150,0.350,-0.030
12.153,0.410,-0.035
12.156,0.450,-0.040
12.158,0.470,-0.055
12.161,0.485,-0.075
12.164,0.500,-0.075
12.167,0.540,-0.055
12.169,0.570,-0.040
12.172,0.590,-0.045
12.175,0.595,-0.055
12.178,0.570,-0.065
12.181,0.550,-0.065
12.183,0.570,-0.070
12.186,0.580,-0.055
12.189,0.585,-0.065
12.192,0.585,-0.070
12.194,0.565,-0.070
12.197,0.535,-0.070
12.200,0.535,-0.060
12.203,0.520,-0.050
12.206,0.515,-0.060
12.208,0.460,-0.070
12.211,0.415,-0.080
12.214,0.365,-0.070
12.217,0.335,-0.050
12.219,0.310,-0.045
12.222,0.275,-0.055
12.225,0.255,-0.040
12.228,0.205,-0.030
12.231,0.175,-0.020
12.233,0.150,-0.030
12.236,0.135,-0.035
12.239,0.120,-0.055
12.242,0.070,-0.030
12.244,0.070,-0.040
12.247,0.045,-0.015
12.250,0.040,-0.025
12.253,0.015,-0.020
12.256,-0.020,-0.030
12.258,-0.030,-0.075
12.261,-0.025,-0.100
12.264,-0.060,-0.105
12.267,-0.070,-0.090
12.269,-0.070,-0.065
12.272,-0.095,-0.055
12.275,-0.115,-0.080
12.278,-0.130,-0.120
12.281,-0.135,-0.135
12.283,-0.130,-0.115
12.286,-0.115,-0.080
12.289,-0.120,-0.075
12.292,-0.135,-0.100
12.294,-0.170,-0.090
12.297,-0.180,-0.080
12.300,-0.180,-0.055
12.303,-0.170,-0.055
12.306,-0.150,-0.060
12.308,-0.155,-0.055
12.311,-0.195,-0.045
12.314,-0.220,-0.045
12.317,-0.220,-0.055
12.319,-0.195,-0.050
12.322,-0.190,-0.060
12.325,-0.210,-0.050
12.328,-0.230,-0.070
12.331,-0.230,-0.080
12.333,-0.215,-0.085
12.336,-0.200,-0.060
12.339,-0.215,-0.065
12.342,-0.225,-0.075
12.344,-0.270,-0.095
12.347,-0.280,-0.085
12.350,-0.275,-0.065
12.353,-0.240,-0.050
12.356,-0.225,-0.065
12.358,-0.240,-0.080
12.361,-0.270,-0.105
12.364,-0.260,-0.095
12.367,-0.255,-0.080
12.369,-0.245,-0.060
12.372,-0.240,-0.075
12.375,-0.255,-0.065
12.378,-0.275,-0.080
12.381,-0.280,-0.060
12.383,-0.250,-0.050
12.386,-0.245,-0.035
12.389,-0.255,-0.035
12.392,-0.265,-0.050
12.394,-0.265,-0.070
12.397,-0.265,-0.070
12.400,-0.245,-0.055
12.403,-0.225,-0.055
12.406,-0.225,-0.045
12.408,-0.235,-0.050
12.411,-0.245,-0.065
12.414,-0.245,-0.060
12.417,-0.245,-0.055
12.419,-0.220,-0.035
12.422,-0.225,-0.040
12.425,-0.215,-0.055
12.428,-0.230,-0.080
12.431,-0.215,-0.075
12.433,-0.210,-0.060
12.436,-0.195,-0.055
12.439,-0.195,-0.040
12.442,-0.205,-0.015
12.444,-0.235,-0.015
12.447,-0.245,-0.005
12.450,-0.220,-0.030
12.453,-0.200,-0.050
12.456,-0.200,-0.085
12.458,-0.210,-0.105
12.461,-0.220,-0.100
12.464,-0.230,-0.100
12.467,-0.240,-0.085
12.469,-0.205,-0.080
12.472,-0.210,-0.100
12.475,-0.210,-0.100
12.478,-0.250,-0.110
12.481,-0.255,-0.085
12.483,-0.265,-0.095
12.486,-0.250,-0.075
12.489,-0.230,-0.080
12.492,-0.215,-0.080
12.494,-0.215,-0.070
12.497,-0.235,-0.070
12.500,-0.270,-0.070
12.503,-0.270,-0.070
12.506,-0.235,-0.085
12.508,-0.205,-0.090
12.511,-0.205,-0.095
12.514,-0.220,-0.100
12.517,-0.260,-0.080
12.519,-0.285,-0.065
12.522,-0.300,-0.075
12.525,-0.285,-0.090
12.528,-0.285,-0.095
12.531,-0.300,-0.095
12.533,-0.265,-0.065
12.536,-0.250,-0.035
12.539,-0.260,-0.040
12.542,-0.265,-0.035
12.544,-0.245,-0.055
12.547,-0.250,-0.065
12.550,-0.270,-0.065
12.553,-0.260,-0.045
12.556,-0.250,-0.035
12.558,-0.240,-0.035
12.561,-0.245,-0.045
12.564,-0.270,-0.060
12.567,-0.290,-0.050
12.569,-0.315,-0.020
12.572,-0.315,-0.015
12.575,-0.315,-0.030
12.578,-0.300,-0.055
12.581,-0.295,-0.070
12.583,-0.315,-0.080
12.586,-0.340,-0.120
12.589,-0.330,-0.135
12.592,-0.305,-0.105
12.594,-0.285,-0.090
12.597,-0.285,-0.085
12.600,-0.295,-0.070
12.603,-0.295,-0.070
12.606,-0.275,-0.075
12.608,-0.260,-0.075
12.611,-0.265,-0.070
12.614,-0.275,-0.070
12.617,-0.265,-0.070
12.619,-0.260,-0.040
12.622,-0.275,-0.035
12.625,-0.285,-0.035
12.628,-0.325,-0.050
12.631,-0.320,-0.040
12.633,-0.300,-0.040
12.636,-0.290,-0.020
12.639,-0.295,-0.025
12.642,-0.310,-0.035
12.644,-0.310,-0.045
12.647,-0.300,-0.025
12.650,-0.300,-0.010
12.653,-0.270,-0.010
12.656,-0.260,-0.030
12.658,-0.270,-0.030
12.661,-0.255,-0.025
12.664,-0.245,-0.045
12.667,-0.230,-0.045
12.669,-0.210,-0.040
12.672,-0.170,-0.040
12.675,-0.155,0.000
12.678,-0.125,0.035
12.681,-0.125,0.060
12.683,-0.075,0.085
12.686,-0.025,0.105
12.689,0.020,0.115
12.692,0.045,0.110
12.694,0.050,0.100
12.697,0.025,0.075
12.700,0.030,0.090
12.703,0.070,0.095
12.706,0.105,0.085
12.708,0.080,0.045
12.711,0.040,0.020
12.714,0.020,0.005
12.717,0.005,0.005
12.719,-0.015,0.010
12.722,-0.060,-0.005
12.725,-0.115,-0.005
12.728,-0.160,-0.005
12.731,-0.195,0.015
12.733,-0.200,0.025
12.736,-0.210,0.040
12.739,-0.230,0.040
12.742,-0.260,0.055
12.744,-0.300,0.035
12.747,-0.325,-0.015
12.750,-0.365,-0.060
12.753,-0.320,-0.070
12.756,-0.290,-0.065
12.758,-0.285,-0.050
12.761,-0.300,-0.080
12.764,-0.335,-0.115
12.767,-0.325,-0.105
12.769,-0.335,-0.100
12.772,-0.340,-0.115
12.775,-0.335,-0.115
12.778,-0.345,-0.130
12.781,-0.380,-0.130
12.783,-0.445,-0.110
12.786,-0.445,-0.110
12.789,-0.430,-0.105
12.792,-0.335,-0.110
12.794,-0.120,-0.080
12.797,0.245,-0.060
12.800,0.775,-0.070
12.803,1.285,-0.055
12.806,1.700,-0.005
12.808,1.950,0.095
12.811,2.055,0.170
12.814,2.065,0.210
12.817,1.970,0.275
12.819,1.750,0.280
12.822,1.275,0.205
12.825,0.635,0.095
12.828,-0.005,-0.015
12.831,-0.645,-0.100
12.833,-0.775,-0.150
12.836,-0.600,-0.200
12.839,-0.445,-0.255
12.842,-0.415,-0.310
12.844,-0.470,-0.310
12.847,-0.485,-0.270
12.850,-0.440,-0.185
12.853,-0.435,-0.110
12.856,-0.415,-0.060
12.858,-0.410,-0.035
12.861,-0.435,-0.035
12.864,-0.455,-0.025
12.867,-0.450,0.005
12.869,-0.440,0.030
12.872,-0.435,0.030
12.875,-0.445,0.030
12.878,-0.445,0.020
12.881,-0.460,0.010
12.883,-0.455,0.015
12.886,-0.430,0.015
12.889,-0.430,0.005
12.892,-0.450,0.005
12.894,-0.470,0.010
12.897,-0.475,0.020
12.900,-0.450,0.035
12.903,-0.415,0.035
12.906,-0.405,0.025
12.908,-0.440,0.020
12.911,-0.515,-0.015
12.914,-0.540,-0.030
12.917,-0.455,-0.030
12.919,-0.420,-0.025
12.922,-0.415,-0.045
12.925,-0.425,-0.055
12.928,-0.440,-0.065
12.931,-0.440,-0.065
12.933,-0.425,-0.050
12.936,-0.415,-0.050
12.939,-0.410,-0.060
12.942,-0.405,-0.075
12.944,-0.410,-0.085
12.947,-0.420,-0.060
12.950,-0.405,-0.035
12.953,-0.390,-0.010
12.956,-0.355,0.005
12.958,-0.355,0.000
12.961,-0.370,-0.010
12.964,-0.380,-0.010
12.967,-0.350,0.000
12.969,-0.330,0.015
12.972,-0.370,0.010
12.975,-0.395,0.010
12.978,-0.380,0.020
12.981,-0.305,0.035
12.983,-0.250,0.020
12.986,-0.265,-0.025
12.989,-0.290,-0.055
12.992,-0.295,-0.075
12.994,-0.320,-0.080
12.997,-0.330,-0.060
13.000,-0.235,-0.030
13.003,-0.215,-0.005
13.006,-0.275,-0.005
13.008,-0.260,-0.015
13.011,-0.230,-0.035
13.014,-0.215,-0.015
13.017,-0.215,-0.010
13.019,-0.155,0.005
13.022,-0.125,0.015
13.025,-0.105,0.015
13.028,-0.105,0.000
13.031,-0.090,-0.010
13.033,-0.060,0.010
13.036,-0.025,0.035
13.039,0.005,0.035
13.042,0.040,0.025
13.044,0.040,0.005
13.047,0.080,0.015
13.050,0.120,0.035
13.053,0.140,0.045
13.056,0.180,0.035
13.058,0.210,0.020
13.061,0.230,0.000
13.064,0.265,-0.005
13.067,0.290,0.015
13.069,0.320,0.030
13.072,0.360,0.020
13.075,0.370,0.005
13.078,0.390,0.000
13.081,0.420,0.000
13.083,0.445,0.020
13.086,0.460,0.035
13.089,0.485,0.040
13.092,0.485,0.030
13.094,0.450,0.020
13.097,0.435,0.045
13.100,0.450,0.075
13.103,0.455,0.105
13.106,0.435,0.095
13.108,0.420,0.075
13.111,0.385,0.050
13.114,0.370,0.040
13.117,0.335,0.045
13.119,0.315,0.050
13.122,0.305,0.050
13.125,0.270,0.045
13.128,0.220,0.055
13.131,0.175,0.055
13.133,0.130,0.045
13.136,0.110,0.055
13.139,0.095,0.050
13.142,0.075,0.045
13.144,0.040,0.035
13.147,-0.025,0.025
13.150,-0.070,0.040
13.153,-0.060,0.065
13.156,-0.055,0.055
13.158,-0.080,0.070
13.161,-0.150,0.045
13.164,-0.170,0.040
13.167,-0.150,0.030
13.169,-0.160,0.035
13.172,-0.160,0.035
13.175,-0.185,0.020
13.178,-0.220,0.030
13.181,-0.240,0.025
13.183,-0.205,0.045
13.186,-0.200,0.035
13.189,-0.255,0.005
13.192,-0.300,-0.020
13.194,-0.315,-0.035
13.197,-0.290,-0.015
13.200,-0.310,0.020
13.203,-0.340,0.025
13.206,-0.345,0.020
13.208,-0.330,-0.005
13.211,-0.330,-0.015
13.214,-0.350,0.020
13.217,-0.355,0.025
13.219,-0.345,0.050
13.222,-0.340,0.050
13.225,-0.350,0.045
13.228,-0.365,0.030
13.231,-0.360,0.030
13.233,-0.350,0.040
13.236,-0.335,0.050
13.239,-0.340,0.035
13.242,-0.350,0.015
13.244,-0.370,0.005
13.247,-0.390,0.010
13.250,-0.375,0.015
13.253,-0.360,0.020
13.256,-0.335,0.010
13.258,-0.360,0.025
13.261,-0.360,0.025
13.264,-0.365,0.025
13.267,-0.335,0.045
13.269,-0.325,0.045
13.272,-0.335,0.045
13.275,-0.345,0.035
13.278,-0.355,0.045
13.281,-0.345,0.060
13.283,-0.360,0.085
13.286,-0.350,0.095
13.289,-0.320,0.080
13.292,-0.310,0.060
13.294,-0.305,0.050
13.297,-0.285,0.065
13.300,-0.270,0.095
13.303,-0.265,0.105
13.306,-0.245,0.065
13.308,-0.240,0.030
13.311,-0.240,0.000
13.314,-0.245,0.010
13.317,-0.260,0.045
13.319,-0.250,0.065
13.322,-0.250,0.070
13.325,-0.240,0.050
13.328,-0.270,0.045
13.331,-0.295,0.050
13.333,-0.285,0.075
13.336,-0.260,0.080
13.339,-0.245,0.070
13.342,-0.250,0.050
13.344,-0.280,0.030
13.347,-0.295,0.035
13.350,-0.290,0.060
13.353,-0.275,0.070
13.356,-0.270,0.085
13.358,-0.295,0.080
13.361,-0.315,0.095
13.364,-0.305,0.095
13.367,-0.295,0.095
13.369,-0.270,0.065
13.372,-0.260,0.015
13.375,-0.275,0.020
13.378,-0.290,0.020
13.381,-0.295,0.050
13.383,-0.325,0.055
13.386,-0.310,0.060
13.389,-0.305,0.050
13.392,-0.310,0.055
13.394,-0.310,0.065
13.397,-0.310,0.075
13.400,-0.305,0.060
13.403,-0.315,0.050
13.406,-0.335,0.015
13.408,-0.340,-0.010
13.411,-0.360,0.000
13.414,-0.340,0.020
13.417,-0.320,0.030
13.419,-0.320,0.020
13.422,-0.320,-0.015
13.425,-0.355,-0.020
13.428,-0.360,-0.015
13.431,-0.355,-0.005
13.433,-0.335,0.005
13.436,-0.335,0.025
13.439,-0.340,0.050
13.442,-0.340,0.035
13.444,-0.350,0.015
13.447,-0.365,0.010
13.450,-0.360,0.020
13.453,-0.345,0.035
13.456,-0.345,0.015
13.458,-0.350,0.010
13.461,-0.380,-0.015
13.464,-0.390,0.000
13.467,-0.385,0.015
13.469,-0.360,0.035
13.472,-0.355,0.020
13.475,-0.380,0.015
13.478,-0.385,0.010
13.481,-0.385,0.005
13.483,-0.390,0.025
13.486,-0.405,0.040
13.489,-0.395,0.050
13.492,-0.385,0.055
13.494,-0.365,0.040
13.497,-0.405,0.005
13.500,-0.440,-0.005
13.503,-0.415,0.000
13.506,-0.365,0.015
13.508,-0.350,0.035
13.511,-0.400,0.030
13.514,-0.425,0.035
13.517,-0.420,0.040
13.519,-0.395,0.060
13.522,-0.390,0.090
13.525,-0.400,0.105
13.528,-0.410,0.105
13.531,-0.405,0.095
13.533,-0.405,0.075
13.536,-0.405,0.100
13.539,-0.410,0.095
13.542,-0.410,0.060
13.544,-0.405,0.005
13.547,-0.415,-0.025
13.550,-0.415,-0.010
13.553,-0.415,0.035
13.556,-0.415,0.035
13.558,-0.415,0.045
13.561,-0.430,0.040
13.564,-0.450,0.040
13.567,-0.445,0.015
13.569,-0.415,0.000
13.572,-0.405,-0.025
13.575,-0.390,-0.020
13.578,-0.420,-0.025
13.581,-0.435,0.000
13.583,-0.440,0.020
13.586,-0.420,0.035
13.589,-0.380,0.020
13.592,-0.380,-0.040
13.594,-0.400,-0.070
13.597,-0.420,-0.055
13.600,-0.410,-0.020
13.603,-0.385,0.020
13.606,-0.355,0.015
13.608,-0.330,0.010
13.611,-0.325,0.000
13.614,-0.315,0.045
13.617,-0.285,0.090
13.619,-0.260,0.140
13.622,-0.230,0.135
13.625,-0.175,0.110
13.628,-0.120,0.095
13.631,-0.105,0.100
13.633,-0.105,0.130
13.636,-0.105,0.145
13.639,-0.090,0.125
13.642,-0.085,0.065
13.644,-0.115,0.025
13.647,-0.125,-0.005
13.650,-0.155,-0.005
13.653,-0.200,0.010
13.656,-0.235,0.005
13.658,-0.300,0.005
13.661,-0.335,-0.010
13.664,-0.360,0.005
13.667,-0.385,0.030
13.669,-0.390,0.080
13.672,-0.410,0.100
13.675,-0.450,0.095
13.678,-0.485,0.045
13.681,-0.510,0.025
13.683,-0.495,0.000
13.686,-0.485,0.025
13.689,-0.470,0.005
13.692,-0.470,0.000
13.694,-0.485,0.000
13.697,-0.505,0.025
13.700,-0.500,0.050
13.703,-0.490,0.045
13.706,-0.490,0.035
13.708,-0.510,0.010
13.711,-0.570,0.005
13.714,-0.630,-0.030
13.717,-0.660,-0.070
13.719,-0.660,-0.095
13.722,-0.565,-0.090
13.725,-0.315,-0.055
13.728,0.085,-0.055
13.731,0.655,-0.110
13.733,1.220,-0.100
13.736,1.660,0.020
13.739,1.925,0.135
13.742,2.045,0.210
13.744,2.025,0.255
13.747,1.920,0.290
13.750,1.605,0.270
13.753,1.065,0.165
13.756,0.425,0.065
13.758,-0.215,-0.035
13.761,-0.855,-0.120
13.764,-0.810,-0.200
13.767,-0.630,-0.290
13.769,-0.555,-0.340
13.772,-0.580,-0.355
13.775,-0.595,-0.320
13.778,-0.600,-0.260
13.781,-0.580,-0.160
13.783,-0.570,-0.105
13.786,-0.585,-0.075
13.789,-0.595,-0.075
13.792,-0.615,-0.080
13.794,-0.625,-0.060
13.797,-0.625,-0.055
13.800,-0.630,-0.075
13.803,-0.610,-0.090
13.806,-0.605,-0.095
13.808,-0.610,-0.080
13.811,-0.630,-0.075
13.814,-0.645,-0.075
13.817,-0.630,-0.045
13.819,-0.625,-0.005
13.822,-0.610,0.000
13.825,-0.615,0.010
13.828,-0.630,0.000
13.831,-0.650,0.005
13.833,-0.640,0.035
13.836,-0.620,0.045
13.839,-0.595,0.015
13.842,-0.615,-0.020
13.844,-0.610,-0.035
13.847,-0.595,-0.030
13.850,-0.575,-0.030
13.853,-0.560,-0.075
13.856,-0.565,-0.120
13.858,-0.575,-0.110
13.861,-0.590,-0.090
13.864,-0.590,-0.050
13.867,-0.580,-0.045
13.869,-0.570,-0.035
13.872,-0.550,-0.035
13.875,-0.555,-0.055
13.878,-0.565,-0.065
13.881,-0.575,-0.050
13.883,-0.565,-0.015
13.886,-0.535,0.005
13.889,-0.510,0.000
13.892,-0.510,-0.030
13.894,-0.520,-0.055
13.897,-0.510,-0.065
13.900,-0.500,-0.030
13.903,-0.495,0.015
13.906,-0.475,0.035
13.908,-0.455,0.040
13.911,-0.460,0.015
13.914,-0.435,-0.005
13.917,-0.430,-0.050
13.919,-0.415,-0.065
13.922,-0.390,-0.055
13.925,-0.375,-0.025
13.928,-0.365,-0.005
13.931,-0.350,0.045
13.933,-0.340,0.075
13.936,-0.310,0.090
13.939,-0.290,0.060
13.942,-0.265,0.025
13.944,-0.255,-0.020
13.947,-0.235,-0.045
13.950,-0.190,-0.010
13.953,-0.160,0.025
13.956,-0.135,0.015
13.958,-0.110,-0.030
13.961,-0.115,-0.100
13.964,-0.095,-0.130
13.967,-0.040,-0.110
13.969,0.005,-0.070
13.972,0.025,-0.050
13.975,0.050,-0.060
13.978,0.070,-0.070
13.981,0.095,-0.055
13.983,0.135,-0.040
13.986,0.175,-0.020
13.989,0.210,-0.020
13.992,0.220,-0.045
13.994,0.225,-0.065
13.997,0.215,-0.050
14.000,0.250,-0.020
14.003,0.270,0.020
14.006,0.295,0.050
14.008,0.285,0.035
14.011,0.255,0.010
14.014,0.220,0.000
14.017,0.220,0.000
14.019,0.255,-0.005
14.022,0.250,-0.075
14.025,0.215,-0.150
14.028,0.165,-0.160
14.031,0.130,-0.095
14.033,0.120,-0.060
14.036,0.105,-0.040
14.039,0.080,-0.050
14.042,0.055,-0.075
14.044,-0.015,-0.105
14.047,-0.055,-0.120
14.050,-0.085,-0.100
14.053,-0.090,-0.095
14.056,-0.090,-0.090
14.058,-0.135,-0.065
14.061,-0.180,-0.035
14.064,-0.220,-0.010
14.067,-0.235,-0.005
14.069,-0.235,-0.015
14.072,-0.255,-0.055
14.075,-0.295,-0.060
14.078,-0.335,-0.075
14.081,-0.355,-0.080
14.083,-0.335,-0.050
14.086,-0.355,-0.015
14.089,-0.365,-0.005
14.092,-0.390,-0.010
14.094,-0.410,-0.010
14.097,-0.435,-0.020
14.100,-0.435,-0.020
14.103,-0.410,-0.025
14.106,-0.395,-0.005
14.108,-0.425,0.005
14.111,-0.455,0.005
14.114,-0.460,0.020
14.117,-0.465,0.005
14.119,-0.450,-0.005
14.122,-0.460,-0.050
14.125,-0.455,-0.095
14.128,-0.455,-0.110
14.131,-0.470,-0.075
14.133,-0.460,-0.030
14.136,-0.460,-0.010
14.139,-0.455,-0.005
14.142,-0.470,-0.035
14.144,-0.465,-0.045
14.147,-0.470,-0.045
14.150,-0.455,-0.015
14.153,-0.440,0.020
14.156,-0.450,0.005
14.158,-0.460,-0.030
14.161,-0.475,-0.030
14.164,-0.470,-0.010
14.167,-0.460,0.005
14.169,-0.445,-0.030
14.172,-0.435,-0.075
14.175,-0.435,-0.110
14.178,-0.445,-0.100
14.181,-0.440,-0.080
14.183,-0.445,-0.050
14.186,-0.430,-0.025
14.189,-0.410,-0.025
14.192,-0.415,-0.035
14.194,-0.420,-0.050
14.197,-0.435,-0.045
14.200,-0.420,-0.020
14.203,-0.400,0.030
14.206,-0.390,0.060
14.208,-0.400,0.080
14.211,-0.400,0.100
14.214,-0.410,0.100
14.217,-0.400,0.050
14.219,-0.390,-0.020
14.222,-0.380,-0.115
14.225,-0.395,-0.135
14.228,-0.400,-0.110
14.231,-0.400,-0.080
14.233,-0.370,-0.040
14.236,-0.345,-0.020
14.239,-0.350,-0.010
14.242,-0.390,-0.020
14.244,-0.390,-0.040
14.247,-0.375,-0.050
14.250,-0.370,-0.045
14.253,-0.350,-0.030
14.256,-0.355,-0.060
14.258,-0.360,-0.095
14.261,-0.380,-0.110
14.264,-0.395,-0.090
14.267,-0.385,-0.060
14.269,-0.365,-0.035
14.272,-0.365,-0.040
14.275,-0.375,-0.065
14.278,-0.380,-0.060
14.281,-0.385,-0.055
14.283,-0.380,-0.055
14.286,-0.375,-0.025
14.289,-0.370,-0.025
14.292,-0.375,-0.020
14.294,-0.380,-0.040
14.297,-0.405,-0.030
14.300,-0.390,-0.020
14.303,-0.380,0.000
14.306,-0.350,0.005
14.308,-0.375,-0.040
14.311,-0.390,-0.070
14.314,-0.395,-0.080
14.317,-0.390,-0.045
14.319,-0.385,-0.030
14.322,-0.375,-0.015
14.325,-0.380,-0.030
14.328,-0.400,-0.075
14.331,-0.405,-0.095
14.333,-0.395,-0.090
14.336,-0.375,-0.075
14.339,-0.355,-0.070
14.342,-0.360,-0.065
14.344,-0.380,-0.060
14.347,-0.405,-0.045
14.350,-0.380,-0.015
14.353,-0.360,0.005
14.356,-0.355,0.015
14.358,-0.350,0.015
14.361,-0.365,0.005
14.364,-0.395,0.000
14.367,-0.390,-0.020
14.369,-0.375,0.000
14.372,-0.350,0.000
14.375,-0.350,-0.005
14.378,-0.355,0.010
14.381,-0.360,0.020
14.383,-0.365,0.045
14.386,-0.375,0.035
14.389,-0.365,-0.035
14.392,-0.345,-0.115
14.394,-0.345,-0.170
14.397,-0.360,-0.130
14.400,-0.355,-0.110
14.403,-0.345,-0.105
14.406,-0.335,-0.115
14.408,-0.330,-0.115
14.411,-0.340,-0.110
14.414,-0.375,-0.085
14.417,-0.360,-0.070
14.419,-0.335,-0.045
14.422,-0.320,-0.035
14.425,-0.330,-0.040
14.428,-0.350,-0.040
14.431,-0.335,-0.040
14.433,-0.340,-0.025
14.436,-0.315,-0.025
14.439,-0.285,-0.025
14.442,-0.275,-0.030
14.444,-0.295,-0.005
14.447,-0.295,0.020
14.450,-0.275,0.030
14.453,-0.230,0.015
14.456,-0.215,0.000
14.458,-0.210,0.030
14.461,-0.190,0.060
14.464,-0.185,0.065
14.467,-0.175,0.060
14.469,-0.155,0.040
14.472,-0.120,0.045
14.475,-0.050,0.065
14.478,0.000,0.080
14.481,0.015,0.115
14.483,0.025,0.070
14.486,0.035,0.050
14.489,0.050,0.010
14.492,0.050,0.015
14.494,0.025,0.000
14.497,0.005,-0.015
14.500,0.000,-0.025
14.503,-0.030,-0.020
14.506,-0.075,-0.020
14.508,-0.120,-0.025
14.511,-0.155,-0.025
14.514,-0.170,-0.015
14.517,-0.175,-0.010
14.519,-0.195,0.020
14.522,-0.230,0.025
14.525,-0.270,0.025
14.528,-0.305,-0.010
14.531,-0.310,-0.015
14.533,-0.290,-0.015
14.536,-0.285,0.000
14.539,-0.295,-0.010
14.542,-0.310,-0.030
14.544,-0.325,-0.025
14.547,-0.330,-0.035
14.550,-0.320,-0.045
14.553,-0.320,-0.050
14.556,-0.290,-0.050
14.558,-0.290,-0.065
14.561,-0.325,-0.065
14.564,-0.350,-0.060
14.567,-0.370,-0.050
14.569,-0.375,-0.050
14.572,-0.350,-0.070
14.575,-0.285,-0.065
14.578,-0.130,-0.050
14.581,0.195,-0.020
14.583,0.690,-0.005
14.586,1.215,0.005
14.589,1.665,0.045
14.592,1.935,0.100
14.594,2.070,0.130
14.597,2.100,0.165
14.600,2.050,0.210
14.603,1.895,0.230
14.606,1.530,0.195
14.608,0.940,0.100
14.611,0.300,0.000
14.614,-0.340,-0.060
14.617,-0.750,-0.090
14.619,-0.605,-0.135
14.622,-0.395,-0.180
14.625,-0.355,-0.220
14.628,-0.390,-0.225
14.631,-0.440,-0.200
14.633,-0.410,-0.155
14.636,-0.385,-0.090
14.639,-0.360,-0.055
14.642,-0.365,-0.040
14.644,-0.400,-0.025
14.647,-0.400,-0.030
14.650,-0.390,-0.015
14.653,-0.385,0.005
14.656,-0.365,0.005
14.658,-0.370,-0.005
14.661,-0.400,0.005
14.664,-0.425,0.030
14.667,-0.395,0.060
14.669,-0.375,0.050
14.672,-0.370,0.060
14.675,-0.370,0.040
14.678,-0.375,0.065
14.681,-0.385,0.110
14.683,-0.365,0.135
14.686,-0.355,0.110
14.689,-0.355,0.040
14.692,-0.370,-0.005
14.694,-0.365,-0.025
14.697,-0.355,-0.005
14.700,-0.355,0.020
14.703,-0.350,0.035
14.706,-0.330,0.035
14.708,-0.320,0.035
14.711,-0.345,0.025
14.714,-0.350,0.025
14.717,-0.345,0.055
14.719,-0.335,0.060
14.722,-0.310,0.050
14.725,-0.305,0.035
14.728,-0.305,0.020
14.731,-0.315,0.035
14.733,-0.305,0.055
14.736,-0.285,0.080
14.739,-0.260,0.095
14.742,-0.270,0.095
14.744,-0.280,0.070
14.747,-0.275,0.065
14.750,-0.265,0.065
14.753,-0.245,0.050
14.756,-0.235,0.035
14.758,-0.230,0.005
14.761,-0.230,-0.005
14.764,-0.230,-0.005
14.767,-0.210,-0.005
14.769,-0.185,0.015
14.772,-0.165,0.025
14.775,-0.165,0.010
14.778,-0.165,-0.010
14.781,-0.165,-0.015
14.783,-0.140,0.005
14.786,-0.115,0.015
14.789,-0.080,0.015
14.792,-0.060,0.010
14.794,-0.030,-0.010
14.797,-0.010,0.005
14.800,0.035,0.015
14.803,0.055,0.045
14.806,0.035,0.045
14.808,0.015,0.025
14.811,0.035,0.010
14.814,0.095,0.015
14.817,0.145,0.010
14.819,0.185,0.030
14.822,0.210,0.030
14.825,0.240,0.035
14.828,0.260,0.040
14.831,0.285,0.030
14.833,0.325,0.040
14.836,0.370,0.050
14.839,0.410,0.045
14.842,0.435,0.035
14.844,0.435,0.030
14.847,0.450,0.050
14.850,0.475,0.070
14.853,0.485,0.090
14.856,0.510,0.085
14.858,0.500,0.095
14.861,0.500,0.100
14.864,0.500,0.075
14.867,0.535,0.045
14.869,0.520,0.010
14.872,0.490,-0.005
14.875,0.435,0.005
14.878,0.420,0.030
14.881,0.390,0.030
14.883,0.390,0.040
14.886,0.380,0.055
14.889,0.350,0.055
14.892,0.315,0.050
14.894,0.275,0.045
14.897,0.240,0.055
14.900,0.210,0.055
14.903,0.195,0.075
14.906,0.185,0.080
14.908,0.120,0.070
14.911,0.070,0.075
14.914,0.025,0.085
14.917,0.015,0.135
14.919,0.015,0.175
14.922,0.005,0.165
14.925,-0.040,0.095
14.928,-0.080,0.015
14.931,-0.100,-0.025
14.933,-0.105,-0.015
14.936,-0.110,0.030
14.939,-0.105,0.065
14.942,-0.125,0.050
14.944,-0.170,0.040
14.947,-0.200,0.035
14.950,-0.200,0.060
14.953,-0.205,0.105
14.956,-0.190,0.075
14.958,-0.220,0.015
14.961,-0.265,-0.035
14.964,-0.295,-0.040
14.967,-0.280,-0.020
14.969,-0.270,0.015
14.972,-0.255,0.020
14.975,-0.260,0.020
14.978,-0.290,0.015
14.981,-0.310,0.015
14.983,-0.300,0.035
14.986,-0.275,0.035
14.989,-0.270,0.035
14.992,-0.290,0.035
14.994,-0.295,0.035
14.997,-0.315,0.050
15.000,-0.315,0.060
15.003,-0.285,0.070
15.006,-0.275,0.045
15.008,-0.285,0.040
15.011,-0.285,0.025
15.014,-0.290,0.035
15.017,-0.285,0.040
15.019,-0.270,0.055
15.022,-0.260,0.050
15.025,-0.265,0.035
15.028,-0.275,0.025
15.031,-0.270,0.035
15.033,-0.260,0.065
15.036,-0.245,0.055
15.039,-0.235,0.070
15.042,-0.220,0.050
15.044,-0.235,0.025
15.047,-0.220,0.035
15.050,-0.215,0.055
15.053,-0.195,0.060
15.056,-0.195,0.050
15.058,-0.205,0.045
15.061,-0.200,0.025
15.064,-0.205,0.030
15.067,-0.195,0.035
15.069,-0.190,0.055
15.072,-0.200,0.035
15.075,-0.210,0.035
15.078,-0.205,0.015
15.081,-0.225,0.020
15.083,-0.225,0.020
15.086,-0.210,0.030
15.089,-0.195,0.015
15.092,-0.195,0.015
15.094,-0.215,0.015
15.097,-0.230,0.020
15.100,-0.235,0.020
15.103,-0.220,0.035
15.106,-0.205,0.045
15.108,-0.215,0.030
15.111,-0.225,0.015
15.114,-0.255,0.020
15.117,-0.235,0.020
15.119,-0.230,0.035
15.122,-0.240,0.035
15.125,-0.240,0.035
15.128,-0.245,0.045
15.131,-0.260,0.055
15.133,-0.265,0.060
15.136,-0.260,0.055
15.139,-0.250,0.035
15.142,-0.260,0.025
15.144,-0.285,-0.015
15.147,-0.295,-0.020
15.150,-0.295,-0.010
15.153,-0.275,0.005
15.156,-0.265,0.030
15.158,-0.270,0.025
15.161,-0.285,0.015
15.164,-0.290,0.005
15.167,-0.295,-0.020
15.169,-0.285,-0.040
15.172,-0.265,-0.045
15.175,-0.270,-0.040
15.178,-0.285,-0.035
15.181,-0.285,-0.005
15.183,-0.270,0.000
15.186,-0.270,0.010
15.189,-0.290,0.025
15.192,-0.330,0.020
15.194,-0.335,0.005
15.197,-0.320,-0.015
15.200,-0.295,-0.025
15.203,-0.305,-0.030
15.206,-0.290,-0.035
15.208,-0.295,-0.035
15.211,-0.305,-0.045
15.214,-0.325,-0.055
15.217,-0.320,-0.040
15.219,-0.320,-0.030
15.222,-0.305,-0.015
15.225,-0.305,-0.030
15.228,-0.330,-0.030
15.231,-0.335,-0.030
15.233,-0.345,-0.005
15.236,-0.325,0.010
15.239,-0.315,0.015
15.242,-0.310,0.000
15.244,-0.325,-0.020
15.247,-0.355,-0.015
15.250,-0.335,0.000
15.253,-0.320,0.010
15.256,-0.310,0.010
15.258,-0.320,0.000
15.261,-0.335,0.000
15.264,-0.340,0.015
15.267,-0.335,0.035
15.269,-0.330,0.035
15.272,-0.310,0.035
15.275,-0.325,0.005
15.278,-0.345,0.010
15.281,-0.345,0.020
15.283,-0.335,0.035
15.286,-0.310,0.045
15.289,-0.290,0.050
15.292,-0.275,0.045
15.294,-0.270,0.045
15.297,-0.290,0.070
15.300,-0.240,0.120
15.303,-0.200,0.160
15.306,-0.195,0.185
15.308,-0.175,0.190
15.311,-0.165,0.195
15.314,-0.140,0.205
15.317,-0.085,0.215
15.319,-0.055,0.215
15.322,-0.030,0.205
15.325,-0.015,0.170
15.328,-0.010,0.135
15.331,-0.030,0.145
15.333,-0.025,0.145
15.336,-0.020,0.125
15.339,0.005,0.090
15.342,-0.005,0.055
15.344,-0.065,0.025
15.347,-0.145,0.015
15.350,-0.195,0.015
15.353,-0.220,0.050
15.356,-0.220,0.040
15.358,-0.225,0.055
15.361,-0.275,0.045
15.364,-0.330,0.040
15.367,-0.340,0.035
15.369,-0.350,0.040
15.372,-0.340,0.040
15.375,-0.345,0.030
15.378,-0.350,0.020
15.381,-0.380,0.030
15.383,-0.390,0.040
15.386,-0.390,0.040
15.389,-0.390,0.035
15.392,-0.375,0.030
15.394,-0.380,0.035
15.397,-0.395,0.035
15.400,-0.395,0.050
15.403,-0.405,0.040
15.406,-0.420,0.045
15.408,-0.480,0.035
15.411,-0.555,0.020
15.414,-0.590,0.020
15.417,-0.530,0.040
15.419,-0.380,0.060
15.422,-0.070,0.065
15.425,0.395,0.045
15.428,0.955,0.025
15.431,1.475,0.065
15.433,1.870,0.125
15.436,2.090,0.225
15.439,2.155,0.285
15.442,2.120,0.280
15.444,1.970,0.185
15.447,1.660,0.050
15.450,1.130,-0.045
15.453,0.490,-0.115
15.456,-0.150,-0.185
15.458,-0.720,-0.255
15.461,-0.685,-0.305
15.464,-0.490,-0.325
15.467,-0.405,-0.310
15.469,-0.415,-0.270
15.472,-0.430,-0.215
15.475,-0.425,-0.175
15.478,-0.440,-0.145
15.481,-0.460,-0.125
15.483,-0.465,-0.100
15.486,-0.480,-0.075
15.489,-0.455,-0.060
15.492,-0.460,-0.065
15.494,-0.480,-0.075
15.497,-0.490,-0.060
15.500,-0.485,-0.055
15.503,-0.495,-0.030
15.506,-0.480,-0.040
15.508,-0.475,-0.050
15.511,-0.500,-0.070
15.514,-0.510,-0.050
15.517,-0.520,-0.040
15.519,-0.510,-0.015
15.522,-0.490,0.000
15.525,-0.485,-0.005
15.528,-0.490,-0.025
15.531,-0.490,-0.020
15.533,-0.495,0.000
15.536,-0.475,0.010
15.539,-0.465,0.010
15.542,-0.490,-0.010
15.544,-0.500,-0.035
15.547,-0.505,-0.015
15.550,-0.500,0.010
15.553,-0.460,0.035
15.556,-0.435,0.040
15.558,-0.435,0.040
15.561,-0.445,0.035
15.564,-0.470,0.060
15.567,-0.470,0.085
15.569,-0.440,0.075
15.572,-0.400,0.045
15.575,-0.400,0.015
15.578,-0.430,-0.005
15.581,-0.440,-0.005
15.583,-0.425,0.015
15.586,-0.400,0.025
15.589,-0.375,0.025
15.592,-0.385,0.040
15.594,-0.390,0.040
15.597,-0.380,0.040
15.600,-0.365,0.040
15.603,-0.345,0.050
15.606,-0.330,0.040
15.608,-0.320,0.045
15.611,-0.335,0.010
15.614,-0.315,0.020
15.617,-0.315,0.050
15.619,-0.310,0.085
15.622,-0.275,0.105
15.625,-0.260,0.070
15.628,-0.275,0.050
15.631,-0.265,0.080
15.633,-0.240,0.130
15.636,-0.215,0.140
15.639,-0.200,0.030
15.642,-0.155,-0.070
15.644,-0.155,-0.115
15.647,-0.150,-0.095
15.650,-0.140,-0.065
15.653,-0.100,-0.015
15.656,-0.085,-0.010
15.658,-0.050,-0.030
15.661,-0.035,-0.045
15.664,-0.015,-0.050
15.667,0.015,-0.050
15.669,0.050,-0.035
15.672,0.075,-0.030
15.675,0.105,-0.035
15.678,0.110,-0.050
15.681,0.135,-0.050
15.683,0.160,-0.035
15.686,0.185,-0.030
15.689,0.215,-0.035
15.692,0.230,-0.050
15.694,0.230,-0.050
15.697,0.245,-0.035
15.700,0.260,-0.025
15.703,0.275,-0.010
15.706,0.300,0.020
15.708,0.295,0.035
15.711,0.280,0.035
15.714,0.285,0.035
15.717,0.280,0.035
15.719,0.290,0.025
15.722,0.280,-0.005
15.725,0.250,-0.040
15.728,0.230,-0.065
15.731,0.200,-0.065
15.733,0.200,-0.055
15.736,0.185,-0.060
15.739,0.175,-0.075
15.742,0.135,-0.075
15.744,0.105,-0.060
15.747,0.060,-0.050
15.750,0.045,-0.035
15.753,0.020,-0.010
15.756,0.000,-0.010
15.758,-0.030,-0.025
15.761,-0.070,-0.045
15.764,-0.100,-0.040
15.767,-0.125,-0.010
15.769,-0.150,0.020
15.772,-0.145,0.030
15.775,-0.165,0.020
15.778,-0.200,0.000
15.781,-0.235,0.005
15.783,-0.230,0.010
15.786,-0.220,0.025
15.789,-0.210,0.020
15.792,-0.230,0.020
15.794,-0.250,0.015
15.797,-0.280,0.020
15.800,-0.290,0.035
15.803,-0.295,0.030
15.806,-0.280,0.030
15.808,-0.270,0.025
15.811,-0.295,0.000
15.814,-0.320,0.030
15.817,-0.325,0.055
15.819,-0.310,0.070
15.822,-0.295,0.045
15.825,-0.290,0.025
15.828,-0.315,0.005
15.831,-0.335,-0.010
15.833,-0.310,-0.010
15.836,-0.310,-0.010
15.839,-0.300,0.000
15.842,-0.285,-0.005
15.844,-0.305,-0.025
15.847,-0.295,-0.020
15.850,-0.315,0.010
15.853,-0.305,0.040
15.856,-0.280,0.030
15.858,-0.280,-0.005
15.861,-0.280,-0.055
15.864,-0.280,-0.055
15.867,-0.285,-0.040
15.869,-0.280,-0.015
15.872,-0.260,-0.020
15.875,-0.265,-0.015
15.878,-0.280,-0.030
15.881,-0.280,-0.020
15.883,-0.265,0.010
15.886,-0.255,0.010
15.889,-0.230,0.005
15.892,-0.245,0.000
15.894,-0.250,0.010
15.897,-0.265,0.030
15.900,-0.260,0.065
15.903,-0.245,0.080
15.906,-0.230,0.065
15.908,-0.240,0.050
15.911,-0.245,0.020
15.914,-0.235,0.035
15.917,-0.240,0.045
15.919,-0.240,0.060
15.922,-0.220,0.060
15.925,-0.235,0.025
15.928,-0.245,-0.010
15.931,-0.265,-0.045
15.933,-0.250,-0.055
15.936,-0.230,-0.020
15.939,-0.225,0.000
15.942,-0.210,-0.020
15.944,-0.225,-0.035
15.947,-0.240,-0.040
15.950,-0.250,-0.030
15.953,-0.240,0.010
15.956,-0.235,0.010
15.958,-0.230,0.010
15.961,-0.225,0.015
15.964,-0.225,0.020
15.967,-0.225,0.025
15.969,-0.220,0.040
15.972,-0.235,0.000
15.975,-0.255,-0.030
15.978,-0.285,-0.040
15.981,-0.285,-0.020
15.983,-0.270,0.030
15.986,-0.270,0.065
15.989,-0.290,0.030
15.992,-0.290,-0.040
15.994,-0.295,-0.080
15.997,-0.320,-0.075
16.000,-0.325,-0.015
16.003,-0.320,0.010
16.006,-0.285,-0.045
16.008,-0.290,-0.120
16.011,-0.320,-0.170
16.014,-0.320,-0.165
16.017,-0.305,-0.125
16.019,-0.305,-0.080
16.022,-0.300,-0.090
16.025,-0.295,-0.090
16.028,-0.315,-0.095
16.031,-0.320,-0.075
16.033,-0.315,-0.040
16.036,-0.305,-0.020
16.039,-0.280,-0.015
16.042,-0.290,-0.010
16.044,-0.275,-0.035
16.047,-0.285,-0.030
16.050,-0.280,-0.005
16.053,-0.275,0.005
16.056,-0.280,0.000
16.058,-0.285,-0.035
16.061,-0.300,-0.050
16.064,-0.320,-0.045
16.067,-0.320,-0.015
16.069,-0.310,0.050
16.072,-0.295,0.095
16.075,-0.295,0.075
16.078,-0.270,-0.010
16.081,-0.285,-0.095
16.083,-0.320,-0.145
16.086,-0.320,-0.145
16.089,-0.315,-0.130
16.092,-0.295,-0.115
16.094,-0.290,-0.105
16.097,-0.305,-0.105
16.100,-0.305,-0.100
16.103,-0.300,-0.095
16.106,-0.285,-0.095
16.108,-0.275,-0.085
16.111,-0.280,-0.070
16.114,-0.270,-0.070
16.117,-0.290,-0.060
16.119,-0.290,-0.030
16.122,-0.280,-0.015
16.125,-0.280,0.015
16.128,-0.285,0.030
16.131,-0.305,0.065
16.133,-0.315,0.075
16.136,-0.280,0.060
16.139,-0.220,0.010
16.142,-0.205,-0.010
16.144,-0.205,-0.015
16.147,-0.210,0.050
16.150,-0.185,0.125
16.153,-0.160,0.200
16.156,-0.130,0.200
16.158,-0.110,0.145
16.161,-0.090,0.045
16.164,-0.020,0.005
16.167,0.025,0.020
16.169,0.045,0.055
16.172,0.050,0.080
16.175,0.035,0.075
16.178,0.035,0.060
16.181,0.015,0.045
16.183,0.030,0.015
16.186,0.030,0.000
16.189,0.035,-0.045
16.192,-0.020,-0.080
16.194,-0.085,-0.110
16.197,-0.125,-0.095
16.200,-0.165,-0.065
16.203,-0.165,-0.030
16.206,-0.180,-0.020
16.208,-0.230,0.005
16.211,-0.265,0.005
16.214,-0.315,-0.005
16.217,-0.340,-0.005
16.219,-0.315,-0.035
16.222,-0.300,-0.055
16.225,-0.320,-0.055
16.228,-0.345,-0.070
16.231,-0.345,-0.085
16.233,-0.355,-0.080
16.236,-0.335,-0.045
16.239,-0.300,-0.030
16.242,-0.300,-0.020
16.244,-0.320,-0.040
16.247,-0.340,-0.065
16.250,-0.370,-0.085
16.253,-0.390,-0.070
16.256,-0.445,-0.070
16.258,-0.500,-0.085
16.261,-0.510,-0.120
16.264,-0.425,-0.120
16.267,-0.205,-0.050
16.269,0.170,0.050
16.272,0.685,0.075
16.275,1.220,0.055
16.278,1.645,0.015
16.281,1.920,0.000
16.283,2.060,0.035
16.286,2.115,0.100
16.289,2.070,0.150
16.292,1.910,0.185
16.294,1.590,0.165
16.297,1.035,0.115
16.300,0.395,0.050
16.303,-0.245,-0.005
16.306,-0.680,-0.090
16.308,-0.630,-0.185
16.311,-0.480,-0.260
16.314,-0.405,-0.310
16.317,-0.415,-0.300
16.319,-0.425,-0.250
16.322,-0.400,-0.175
16.325,-0.400,-0.105
16.328,-0.400,-0.080
16.331,-0.430,-0.070
16.333,-0.445,-0.050
16.336,-0.445,-0.055
16.339,-0.425,-0.060
16.342,-0.430,-0.065
16.344,-0.440,-0.070
16.347,-0.450,-0.060
16.350,-0.445,-0.025
16.353,-0.445,0.025
16.356,-0.440,0.050
16.358,-0.445,0.015
16.361,-0.460,-0.065
16.364,-0.460,-0.085
16.367,-0.455,-0.090
16.369,-0.445,-0.045
16.372,-0.430,-0.030
16.375,-0.425,-0.035
16.378,-0.430,-0.040
16.381,-0.450,-0.035
16.383,-0.450,-0.010
16.386,-0.440,0.000
16.389,-0.430,0.020
16.392,-0.425,0.010
16.394,-0.425,0.000
16.397,-0.455,-0.015
16.400,-0.440,-0.010
16.403,-0.445,0.015
16.406,-0.420,0.025
16.408,-0.415,0.020
16.411,-0.415,0.005
16.414,-0.420,-0.015
16.417,-0.415,-0.015
16.419,-0.405,-0.010
16.422,-0.390,-0.020
16.425,-0.390,-0.030
16.428,-0.395,-0.040
16.431,-0.390,-0.035
16.433,-0.385,-0.030
16.436,-0.370,-0.030
16.439,-0.360,-0.015
16.442,-0.355,-0.025
16.444,-0.355,-0.040
16.447,-0.375,-0.045
16.450,-0.360,-0.035
16.453,-0.365,-0.020
16.456,-0.340,-0.010
16.458,-0.315,-0.005
16.461,-0.320,-0.015
16.464,-0.315,-0.010
16.467,-0.295,0.025
16.469,-0.285,0.045
16.472,-0.255,0.025
16.475,-0.255,-0.010
16.478,-0.270,-0.045
16.481,-0.275,-0.065
16.483,-0.255,-0.080
16.486,-0.240,-0.070
16.489,-0.210,-0.035
16.492,-0.200,-0.035
16.494,-0.185,-0.030
16.497,-0.180,-0.020
16.500,-0.170,-0.005
16.503,-0.135,0.020
16.506,-0.105,0.020
16.508,-0.105,0.015
16.511,-0.095,-0.035
16.514,-0.110,-0.050
16.517,-0.075,-0.065
16.519,-0.020,-0.040
16.522,-0.010,-0.045
16.525,0.015,-0.050
16.528,0.015,-0.060
16.531,0.020,-0.050
16.533,0.045,-0.030
16.536,0.085,-0.020
16.539,0.130,-0.010
16.542,0.135,-0.025
16.544,0.145,-0.035
16.547,0.160,-0.040
16.550,0.180,-0.025
16.553,0.205,-0.010
16.556,0.240,-0.025
16.558,0.240,-0.040
16.561,0.250,-0.040
16.564,0.240,-0.035
16.567,0.255,-0.005
16.569,0.275,0.000
16.572,0.310,0.005
16.575,0.310,0.010
16.578,0.290,0.015
16.581,0.275,0.055
16.583,0.280,0.090
16.586,0.290,0.105
16.589,0.295,0.080
16.592,0.260,0.040
16.594,0.245,0.000
16.597,0.190,-0.035
16.600,0.155,-0.045
16.603,0.115,-0.040
16.606,0.115,-0.010
16.608,0.120,0.025
16.611,0.120,0.075
16.614,0.075,0.080
16.617,0.060,0.060
16.619,0.060,0.045
16.622,0.065,0.040
16.625,0.010,0.050
16.628,-0.055,0.030
16.631,-0.125,0.010
16.633,-0.140,-0.025
16.636,-0.110,-0.045
16.639,-0.075,-0.040
16.642,-0.100,-0.025
16.644,-0.150,-0.050
16.647,-0.180,-0.060
16.650,-0.180,-0.040
16.653,-0.160,0.005
16.656,-0.160,0.035
16.658,-0.180,0.030
16.661,-0.200,0.020
16.664,-0.245,0.010
16.667,-0.250,0.025
16.669,-0.240,0.030
16.672,-0.215,-0.035
16.675,-0.225,-0.070
16.678,-0.245,-0.090
16.681,-0.270,-0.070
16.683,-0.285,-0.020
16.686,-0.285,0.015
16.689,-0.265,0.035
16.692,-0.270,0.050
16.694,-0.285,0.065
16.697,-0.280,0.095
16.700,-0.275,0.130
16.703,-0.280,0.150
16.706,-0.295,0.130
16.708,-0.290,0.150
16.711,-0.255,0.115
16.714,-0.260,0.045
16.717,-0.245,-0.040
16.719,-0.250,-0.075
16.722,-0.265,-0.100
16.725,-0.270,-0.070
16.728,-0.275,-0.040
16.731,-0.270,0.015
16.733,-0.270,0.100
16.736,-0.270,0.125
16.739,-0.265,0.080
16.742,-0.245,0.005
16.744,-0.225,-0.090
16.747,-0.235,-0.110
16.750,-0.240,-0.105
16.753,-0.215,-0.060
16.756,-0.190,-0.035
16.758,-0.200,-0.040
16.761,-0.205,-0.060
16.764,-0.220,-0.065
16.767,-0.235,-0.075
16.769,-0.220,-0.055
16.772,-0.205,-0.040
16.775,-0.200,-0.030
16.778,-0.220,-0.030
16.781,-0.225,-0.005
16.783,-0.225,-0.010
16.786,-0.205,-0.010
16.789,-0.190,-0.025
16.792,-0.190,-0.030
16.794,-0.210,-0.035
16.797,-0.230,-0.020
16.800,-0.215,0.005
16.803,-0.205,0.000
16.806,-0.195,-0.040
16.808,-0.205,-0.055
16.811,-0.205,-0.060
16.814,-0.230,-0.050
16.817,-0.225,-0.025
16.819,-0.210,-0.010
16.822,-0.215,-0.005
16.825,-0.210,-0.015
16.828,-0.235,-0.020
16.831,-0.235,-0.025
16.833,-0.250,-0.010
16.836,-0.230,-0.005
16.839,-0.240,0.010
16.842,-0.245,0.010
16.844,-0.250,0.005
16.847,-0.275,0.010
16.850,-0.270,0.015
16.853,-0.250,0.035
16.856,-0.245,0.040
16.858,-0.250,0.045
16.861,-0.285,0.020
16.864,-0.290,0.015
16.867,-0.275,0.020
16.869,-0.270,0.025
16.872,-0.260,0.010
16.875,-0.275,-0.010
16.878,-0.310,-0.030
16.881,-0.305,-0.025
16.883,-0.290,-0.015
16.886,-0.270,0.010
16.889,-0.265,0.010
16.892,-0.300,0.010
16.894,-0.330,0.000
16.897,-0.320,0.005
16.900,-0.300,0.005
16.903,-0.280,0.025
16.906,-0.290,0.050
16.908,-0.305,0.070
16.911,-0.335,0.085
16.914,-0.355,0.055
16.917,-0.345,-0.005
16.919,-0.315,-0.020
16.922,-0.295,-0.045
16.925,-0.300,-0.035
16.928,-0.325,-0.030
16.931,-0.335,-0.035
16.933,-0.345,-0.015
16.936,-0.310,0.000
16.939,-0.290,0.010
16.942,-0.300,0.000
16.944,-0.330,0.005
16.947,-0.345,0.005
16.950,-0.335,0.030
16.953,-0.320,0.035
16.956,-0.310,0.040
16.958,-0.320,0.020
16.961,-0.320,0.010
16.964,-0.330,0.010
16.967,-0.340,0.035
16.969,-0.325,0.040
16.972,-0.310,0.060
16.975,-0.325,0.035
16.978,-0.320,0.035
16.981,-0.330,0.050
16.983,-0.325,0.065
16.986,-0.305,0.075
16.989,-0.300,0.065
16.992,-0.295,0.075
16.994,-0.300,0.045
16.997,-0.315,0.055
17.000,-0.305,0.080
17.003,-0.280,0.090
17.006,-0.250,0.095
17.008,-0.230,0.105
17.011,-0.225,0.115
17.014,-0.220,0.145
17.017,-0.220,0.205
17.019,-0.180,0.235
17.022,-0.145,0.230
17.025,-0.115,0.215
17.028,-0.080,0.200
17.031,-0.030,0.195
17.033,0.000,0.190
17.036,0.035,0.205
17.039,0.040,0.185
17.042,0.035,0.160
17.044,0.030,0.140
17.047,0.040,0.120
17.050,0.060,0.105
17.053,0.045,0.085
17.056,0.005,0.050
17.058,-0.085,0.005
17.061,-0.175,-0.010
17.064,-0.200,-0.010
17.067,-0.195,0.015
17.069,-0.215,0.025
17.072,-0.230,0.025
17.075,-0.260,0.030
17.078,-0.295,0.025
17.081,-0.350,0.030
17.083,-0.370,0.015
17.086,-0.360,0.035
17.089,-0.345,0.045
17.092,-0.345,0.025
17.094,-0.355,-0.010
17.097,-0.365,-0.010
17.100,-0.355,-0.025
17.103,-0.360,0.000
17.106,-0.340,0.005
17.108,-0.340,0.005
17.111,-0.355,-0.010
17.114,-0.380,-0.015
17.117,-0.415,0.005
