'Elapsed time','MLII','V1'
'seconds','mV','mV'
0.000,-2.045,-1.245
0.003,-2.045,-1.245
0.006,-2.045,-1.245
0.008,-2.045,-1.245
0.011,-2.045,-1.245
0.014,-2.090,-1.245
0.017,-2.140,-1.245
0.019,-2.205,-1.345
0.022,-2.270,-1.445
0.025,-2.340,-1.575
0.028,-2.405,-1.720
0.031,-2.465,-1.830
0.033,-2.545,-1.830
0.036,-2.580,-1.715
0.039,-2.555,-1.515
0.042,-2.435,-1.310
0.044,-2.220,-1.095
0.047,-1.940,-0.910
0.050,-1.640,-0.780
0.053,-1.425,-0.690
0.056,-1.215,-0.605
0.058,-1.050,-0.480
0.061,-0.935,-0.355
0.064,-0.840,-0.210
0.067,-0.780,-0.095
0.069,-0.720,-0.015
0.072,-0.690,0.045
0.075,-0.640,0.105
0.078,-0.595,0.150
0.081,-0.570,0.215
0.083,-0.540,0.290
0.086,-0.500,0.340
0.089,-0.480,0.380
0.092,-0.450,0.415
0.094,-0.395,0.440
0.097,-0.325,0.480
0.100,-0.250,0.515
0.103,-0.200,0.550
0.106,-0.165,0.570
0.108,-0.140,0.600
0.111,-0.115,0.640
0.114,-0.080,0.695
0.117,-0.035,0.715
0.119,0.005,0.750
0.122,0.045,0.745
0.125,0.090,0.745
0.128,0.140,0.745
0.131,0.180,0.760
0.133,0.235,0.750
0.136,0.270,0.770
0.139,0.300,0.770
0.142,0.295,0.770
0.144,0.300,0.775
0.147,0.300,0.795
0.150,0.320,0.815
0.153,0.340,0.820
0.156,0.345,0.820
0.158,0.355,0.820
0.161,0.375,0.835
0.164,0.400,0.850
0.167,0.430,0.870
0.169,0.460,0.855
0.172,0.475,0.865
0.175,0.480,0.865
0.178,0.495,0.865
0.181,0.525,0.900
0.183,0.560,0.915
0.186,0.600,0.940
0.189,0.635,0.945
0.192,0.650,0.935
0.194,0.680,0.960
0.197,0.710,0.985
0.200,0.755,0.995
0.203,0.785,0.995
0.206,0.810,1.010
0.208,0.820,1.015
0.211,0.840,1.035
0.214,0.870,1.055
0.217,0.920,1.070
0.219,0.965,1.075
0.222,0.980,1.090
0.225,1.000,1.095
0.228,1.030,1.100
0.231,1.070,1.130
0.233,1.095,1.145
0.236,1.105,1.135
0.239,1.100,1.140
0.242,1.100,1.135
0.244,1.115,1.135
0.247,1.130,1.150
0.250,1.145,1.160
0.253,1.155,1.150
0.256,1.150,1.130
0.258,1.140,1.130
0.261,1.130,1.110
0.264,1.125,1.115
0.267,1.130,1.105
0.269,1.110,1.095
0.272,1.085,1.080
0.275,1.045,1.050
0.278,1.015,1.030
0.281,0.985,1.020
0.283,0.955,1.010
0.286,0.920,0.980
0.289,0.880,0.940
0.292,0.840,0.915
0.294,0.785,0.895
0.297,0.745,0.885
0.300,0.720,0.865
0.303,0.685,0.815
0.306,0.635,0.790
0.308,0.575,0.745
0.311,0.515,0.715
0.314,0.470,0.710
0.317,0.425,0.695
0.319,0.365,0.670
0.322,0.305,0.650
0.325,0.250,0.625
0.328,0.190,0.590
0.331,0.160,0.595
0.333,0.140,0.580
0.336,0.095,0.560
0.339,0.050,0.540
0.342,0.005,0.520
0.344,-0.050,0.520
0.347,-0.085,0.515
0.350,-0.110,0.525
0.353,-0.130,0.510
0.356,-0.150,0.505
0.358,-0.190,0.485
0.361,-0.225,0.475
0.364,-0.235,0.475
0.367,-0.230,0.495
0.369,-0.250,0.490
0.372,-0.260,0.470
0.375,-0.280,0.460
0.378,-0.315,0.470
0.381,-0.305,0.475
0.383,-0.310,0.470
0.386,-0.320,0.465
0.389,-0.345,0.450
0.392,-0.365,0.440
0.394,-0.375,0.440
0.397,-0.370,0.460
0.400,-0.360,0.465
0.403,-0.365,0.460
0.406,-0.380,0.455
0.408,-0.375,0.445
0.411,-0.390,0.445
0.414,-0.390,0.445
0.417,-0.375,0.460
0.419,-0.385,0.455
0.422,-0.390,0.440
0.425,-0.410,0.440
0.428,-0.395,0.430
0.431,-0.400,0.445
0.433,-0.380,0.450
0.436,-0.380,0.440
0.439,-0.375,0.445
0.442,-0.390,0.435
0.444,-0.395,0.430
0.447,-0.405,0.440
0.450,-0.380,0.455
0.453,-0.375,0.445
0.456,-0.380,0.445
0.458,-0.390,0.430
0.461,-0.415,0.430
0.464,-0.410,0.440
0.467,-0.385,0.440
0.469,-0.390,0.440
0.472,-0.395,0.430
0.475,-0.390,0.405
0.478,-0.385,0.405
0.481,-0.370,0.425
0.483,-0.360,0.430
0.486,-0.350,0.425
0.489,-0.350,0.410
0.492,-0.345,0.410
0.494,-0.350,0.410
0.497,-0.330,0.410
0.500,-0.325,0.415
0.503,-0.330,0.395
0.506,-0.335,0.390
0.508,-0.340,0.375
0.511,-0.350,0.380
0.514,-0.345,0.380
0.517,-0.350,0.390
0.519,-0.335,0.395
0.522,-0.340,0.385
0.525,-0.335,0.365
0.528,-0.355,0.350
0.531,-0.335,0.365
0.533,-0.315,0.360
0.536,-0.320,0.365
0.539,-0.335,0.360
0.542,-0.365,0.355
0.544,-0.375,0.335
0.547,-0.360,0.340
0.550,-0.340,0.345
0.553,-0.325,0.350
0.556,-0.335,0.335
0.558,-0.340,0.320
0.561,-0.360,0.320
0.564,-0.380,0.330
0.567,-0.370,0.340
0.569,-0.360,0.330
0.572,-0.355,0.330
0.575,-0.375,0.310
0.578,-0.375,0.310
0.581,-0.360,0.320
0.583,-0.355,0.320
0.586,-0.350,0.330
0.589,-0.350,0.310
0.592,-0.365,0.300
0.594,-0.365,0.300
0.597,-0.355,0.305
0.600,-0.345,0.305
0.603,-0.355,0.305
0.606,-0.350,0.300
0.608,-0.370,0.290
0.611,-0.365,0.295
0.614,-0.350,0.305
0.617,-0.350,0.310
0.619,-0.350,0.295
0.622,-0.365,0.290
0.625,-0.360,0.280
0.628,-0.365,0.285
0.631,-0.355,0.285
0.633,-0.345,0.310
0.636,-0.345,0.305
0.639,-0.345,0.280
0.642,-0.360,0.280
0.644,-0.360,0.275
0.647,-0.335,0.270
0.650,-0.340,0.280
0.653,-0.340,0.280
0.656,-0.345,0.270
0.658,-0.360,0.255
0.661,-0.370,0.255
0.664,-0.355,0.275
0.667,-0.340,0.280
0.669,-0.340,0.265
0.672,-0.350,0.255
0.675,-0.365,0.245
0.678,-0.365,0.255
0.681,-0.355,0.265
0.683,-0.340,0.275
0.686,-0.325,0.255
0.689,-0.325,0.240
0.692,-0.335,0.235
0.694,-0.360,0.245
0.697,-0.335,0.265
0.700,-0.310,0.290
0.703,-0.300,0.330
0.706,-0.300,0.335
0.708,-0.285,0.325
0.711,-0.280,0.340
0.714,-0.245,0.345
0.717,-0.215,0.335
0.719,-0.190,0.295
0.722,-0.160,0.150
0.725,-0.125,-0.165
0.728,-0.055,-0.545
0.731,0.085,-0.610
0.733,0.325,-0.315
0.736,0.805,-0.050
0.739,1.400,0.010
0.742,1.800,-0.040
0.744,1.890,-0.050
0.747,1.815,-0.030
0.750,1.730,-0.025
0.753,1.665,-0.050
0.756,1.620,-0.080
0.758,1.540,-0.120
0.761,1.440,-0.150
0.764,1.330,-0.165
0.767,1.260,-0.185
0.769,1.165,-0.215
0.772,1.100,-0.245
0.775,1.005,-0.280
0.778,0.895,-0.295
0.781,0.790,-0.300
0.783,0.675,-0.315
0.786,0.530,-0.350
0.789,0.390,-0.405
0.792,0.210,-0.450
0.794,0.020,-0.530
0.797,-0.175,-0.585
0.800,-0.390,-0.630
0.803,-0.610,-0.680
0.806,-0.865,-0.715
0.808,-1.105,-0.755
0.811,-1.310,-0.825
0.814,-1.500,-0.925
0.817,-1.650,-1.050
0.819,-1.805,-1.240
0.822,-1.945,-1.400
0.825,-2.045,-1.495
0.828,-2.120,-1.565
0.831,-2.170,-1.655
0.833,-2.195,-1.745
0.836,-2.260,-1.845
0.839,-2.345,-1.950
0.842,-2.430,-2.030
0.844,-2.500,-2.135
0.847,-2.530,-2.245
0.850,-2.565,-2.335
0.853,-2.630,-2.335
0.856,-2.675,-2.225
0.858,-2.690,-2.055
0.861,-2.600,-1.855
0.864,-2.395,-1.660
0.867,-2.165,-1.460
0.869,-1.940,-1.290
0.872,-1.750,-1.115
0.875,-1.580,-1.010
0.878,-1.455,-0.865
0.881,-1.340,-0.725
0.883,-1.260,-0.595
0.886,-1.185,-0.490
0.889,-1.135,-0.410
0.892,-1.090,-0.350
0.894,-1.065,-0.260
0.897,-1.010,-0.170
0.900,-0.980,-0.105
0.903,-0.975,-0.070
0.906,-0.970,-0.030
0.908,-0.965,-0.005
0.911,-0.950,0.035
0.914,-0.875,0.085
0.917,-0.810,0.130
0.919,-0.750,0.160
0.922,-0.690,0.185
0.925,-0.650,0.210
0.928,-0.605,0.255
0.931,-0.555,0.300
0.933,-0.465,0.315
0.936,-0.405,0.345
0.939,-0.340,0.355
0.942,-0.275,0.360
0.944,-0.215,0.375
0.947,-0.170,0.400
0.950,-0.095,0.410
0.953,-0.035,0.415
0.956,0.000,0.415
0.958,0.045,0.425
0.961,0.050,0.430
0.964,0.050,0.450
0.967,0.075,0.460
0.969,0.085,0.460
0.972,0.105,0.455
0.975,0.105,0.465
0.978,0.120,0.470
0.981,0.145,0.500
0.983,0.185,0.510
0.986,0.215,0.520
0.989,0.235,0.530
0.992,0.255,0.510
0.994,0.265,0.535
0.997,0.300,0.555
1.000,0.335,0.565
1.003,0.360,0.585
1.006,0.365,0.590
1.008,0.370,0.595
1.011,0.400,0.605
1.014,0.435,0.615
1.017,0.490,0.640
1.019,0.525,0.650
1.022,0.560,0.645
1.025,0.585,0.655
1.028,0.600,0.665
1.031,0.635,0.700
1.033,0.685,0.705
1.036,0.720,0.735
1.039,0.750,0.720
1.042,0.775,0.730
1.044,0.810,0.750
1.047,0.845,0.755
1.050,0.880,0.770
1.053,0.910,0.775
1.056,0.940,0.755
1.058,0.960,0.755
1.061,0.950,0.770
1.064,0.970,0.790
1.067,0.995,0.815
1.069,1.015,0.805
1.072,1.010,0.790
1.075,1.010,0.785
1.078,1.010,0.795
1.081,1.015,0.800
1.083,1.035,0.795
1.086,1.035,0.785
1.089,1.010,0.765
1.092,0.990,0.755
1.094,0.965,0.725
1.097,0.950,0.730
1.100,0.955,0.710
1.103,0.925,0.695
1.106,0.875,0.655
1.108,0.865,0.630
1.111,0.830,0.610
1.114,0.800,0.605
1.117,0.790,0.575
1.119,0.750,0.540
1.122,0.720,0.510
1.125,0.670,0.485
1.128,0.620,0.445
1.131,0.585,0.440
1.133,0.540,0.405
1.136,0.495,0.370
1.139,0.450,0.320
1.142,0.385,0.285
1.144,0.320,0.275
1.147,0.290,0.265
1.150,0.250,0.245
1.153,0.225,0.225
1.156,0.175,0.190
1.158,0.120,0.165
1.161,0.065,0.150
1.164,0.040,0.140
1.167,0.010,0.160
1.169,-0.020,0.155
1.172,-0.055,0.125
1.175,-0.090,0.115
1.178,-0.135,0.100
1.181,-0.150,0.105
1.183,-0.165,0.110
1.186,-0.185,0.100
1.189,-0.210,0.085
1.192,-0.220,0.065
1.194,-0.240,0.065
1.197,-0.260,0.075
1.200,-0.260,0.085
1.203,-0.280,0.080
1.206,-0.295,0.045
1.208,-0.310,0.040
1.211,-0.330,0.060
1.214,-0.320,0.075
1.217,-0.330,0.075
1.219,-0.320,0.070
1.222,-0.335,0.060
1.225,-0.345,0.055
1.228,-0.350,0.060
1.231,-0.350,0.045
1.233,-0.335,0.055
1.236,-0.345,0.065
1.239,-0.360,0.070
1.242,-0.375,0.065
1.244,-0.390,0.060
1.247,-0.390,0.065
1.250,-0.370,0.085
1.253,-0.370,0.105
1.256,-0.385,0.090
1.258,-0.395,0.075
1.261,-0.390,0.070
1.264,-0.385,0.075
1.267,-0.375,0.090
1.269,-0.365,0.085
1.272,-0.370,0.075
1.275,-0.385,0.060
1.278,-0.395,0.065
1.281,-0.400,0.095
1.283,-0.385,0.115
1.286,-0.365,0.105
1.289,-0.370,0.090
1.292,-0.390,0.070
1.294,-0.400,0.075
1.297,-0.385,0.095
1.300,-0.345,0.095
1.303,-0.320,0.095
1.306,-0.310,0.085
1.308,-0.335,0.070
1.311,-0.345,0.075
1.314,-0.355,0.080
1.317,-0.345,0.085
1.319,-0.330,0.085
1.322,-0.325,0.075
1.325,-0.340,0.055
1.328,-0.345,0.055
1.331,-0.330,0.065
1.333,-0.325,0.065
1.336,-0.325,0.070
1.339,-0.345,0.050
1.342,-0.355,0.040
1.344,-0.355,0.045
1.347,-0.350,0.035
1.350,-0.345,0.035
1.353,-0.340,0.040
1.356,-0.360,0.045
1.358,-0.355,0.045
1.361,-0.360,0.030
1.364,-0.350,0.035
1.367,-0.350,0.045
1.369,-0.350,0.030
1.372,-0.375,0.025
1.375,-0.375,0.015
1.378,-0.385,0.010
1.381,-0.380,0.020
1.383,-0.365,0.040
1.386,-0.350,0.050
1.389,-0.360,0.055
1.392,-0.380,0.055
1.394,-0.375,0.075
1.397,-0.345,0.110
1.400,-0.325,0.145
1.403,-0.305,0.185
1.406,-0.295,0.175
1.408,-0.295,0.170
1.411,-0.285,0.175
1.414,-0.255,0.210
1.417,-0.210,0.230
1.419,-0.170,0.240
1.422,-0.130,0.220
1.425,-0.120,0.200
1.428,-0.115,0.185
1.431,-0.095,0.165
1.433,-0.075,0.105
1.436,-0.060,0.060
1.439,-0.025,0.040
1.442,-0.015,0.030
1.444,-0.015,0.030
1.447,-0.020,0.015
1.450,-0.030,0.005
1.453,-0.050,-0.020
1.456,-0.060,-0.050
1.458,-0.080,-0.065
1.461,-0.100,-0.065
1.464,-0.080,-0.025
1.467,-0.065,-0.020
1.469,-0.075,-0.030
1.472,-0.090,-0.050
1.475,-0.110,-0.065
1.478,-0.115,-0.075
1.481,-0.110,-0.070
1.483,-0.120,-0.055
1.486,-0.150,-0.055
1.489,-0.185,-0.065
1.492,-0.215,-0.070
1.494,-0.250,-0.065
1.497,-0.265,-0.055
1.500,-0.270,-0.040
1.503,-0.295,-0.040
1.506,-0.325,-0.060
1.508,-0.345,-0.075
1.511,-0.370,-0.070
1.514,-0.375,-0.070
1.517,-0.380,-0.070
1.519,-0.385,-0.090
1.522,-0.390,-0.110
1.525,-0.410,-0.120
1.528,-0.435,-0.130
1.531,-0.425,-0.105
1.533,-0.445,-0.105
1.536,-0.440,-0.110
1.539,-0.445,-0.130
1.542,-0.440,-0.180
1.544,-0.425,-0.215
1.547,-0.400,-0.300
1.550,-0.370,-0.540
1.553,-0.330,-0.955
1.556,-0.255,-1.205
1.558,-0.075,-1.045
1.561,0.335,-0.730
1.564,0.950,-0.525
1.567,1.515,-0.485
1.569,1.740,-0.470
1.572,1.640,-0.460
1.575,1.470,-0.450
1.578,1.365,-0.435
1.581,1.320,-0.435
1.583,1.295,-0.435
1.586,1.210,-0.455
1.589,1.135,-0.480
1.592,1.035,-0.505
1.594,0.930,-0.515
1.597,0.875,-0.515
1.600,0.800,-0.540
1.603,0.720,-0.560
1.606,0.625,-0.595
1.608,0.500,-0.630
1.611,0.385,-0.645
1.614,0.290,-0.660
1.617,0.170,-0.705
1.619,0.055,-0.750
1.622,-0.095,-0.830
1.625,-0.250,-0.930
1.628,-0.395,-1.000
1.631,-0.520,-1.040
1.633,-0.650,-1.085
1.636,-0.795,-1.125
1.639,-0.970,-1.210
1.642,-1.155,-1.340
1.644,-1.350,-1.470
1.647,-1.490,-1.630
1.650,-1.575,-1.740
1.653,-1.620,-1.850
1.656,-1.660,-1.935
1.658,-1.720,-2.005
1.661,-1.755,-2.085
1.664,-1.805,-2.175
1.667,-1.905,-2.260
1.669,-2.010,-2.345
1.672,-2.125,-2.460
1.675,-2.215,-2.545
1.678,-2.290,-2.630
1.681,-2.375,-2.645
1.683,-2.425,-2.545
1.686,-2.475,-2.385
1.689,-2.445,-2.235
1.692,-2.350,-2.080
1.694,-2.205,-1.905
1.697,-2.030,-1.735
1.700,-1.850,-1.570
1.703,-1.675,-1.410
1.706,-1.505,-1.265
1.708,-1.400,-1.125
1.711,-1.345,-0.980
1.714,-1.280,-0.860
1.717,-1.230,-0.755
1.719,-1.180,-0.660
1.722,-1.140,-0.570
1.725,-1.100,-0.490
1.728,-1.075,-0.400
1.731,-1.045,-0.335
1.733,-1.030,-0.275
1.736,-1.010,-0.215
1.739,-0.985,-0.165
1.742,-0.940,-0.135
1.744,-0.885,-0.080
1.747,-0.810,-0.040
1.750,-0.745,0.005
1.753,-0.660,0.055
1.756,-0.615,0.070
1.758,-0.585,0.090
1.761,-0.525,0.120
1.764,-0.440,0.150
1.767,-0.365,0.185
1.769,-0.275,0.195
1.772,-0.215,0.210
1.775,-0.150,0.210
1.778,-0.105,0.225
1.781,-0.045,0.230
1.783,0.015,0.255
1.786,0.050,0.260
1.789,0.065,0.260
1.792,0.085,0.260
1.794,0.100,0.265
1.797,0.125,0.280
1.800,0.150,0.300
1.803,0.170,0.300
1.806,0.175,0.310
1.808,0.185,0.295
1.811,0.205,0.325
1.814,0.220,0.335
1.817,0.255,0.340
1.819,0.270,0.355
1.822,0.285,0.350
1.825,0.305,0.340
1.828,0.310,0.355
1.831,0.340,0.370
1.833,0.365,0.390
1.836,0.385,0.415
1.839,0.415,0.415
1.842,0.435,0.410
1.844,0.445,0.430
1.847,0.485,0.450
1.850,0.515,0.460
1.853,0.555,0.480
1.856,0.565,0.485
1.858,0.595,0.470
1.861,0.610,0.490
1.864,0.645,0.505
1.867,0.675,0.520
1.869,0.710,0.540
1.872,0.730,0.530
1.875,0.755,0.545
1.878,0.775,0.575
1.881,0.810,0.585
1.883,0.830,0.605
1.886,0.850,0.610
1.889,0.870,0.610
1.892,0.880,0.615
1.894,0.905,0.625
1.897,0.915,0.650
1.900,0.935,0.650
1.903,0.950,0.650
1.906,0.940,0.645
1.908,0.950,0.635
1.911,0.940,0.630
1.914,0.955,0.640
1.917,0.960,0.635
1.919,0.950,0.665
1.922,0.945,0.645
1.925,0.930,0.625
1.928,0.925,0.615
1.931,0.920,0.615
1.933,0.910,0.595
1.936,0.880,0.590
1.939,0.865,0.560
1.942,0.830,0.535
1.944,0.805,0.520
1.947,0.785,0.500
1.950,0.770,0.485
1.953,0.745,0.455
1.956,0.715,0.435
1.958,0.680,0.400
1.961,0.650,0.375
1.964,0.620,0.360
1.967,0.595,0.340
1.969,0.555,0.290
1.972,0.525,0.255
1.975,0.485,0.205
1.978,0.420,0.190
1.981,0.395,0.170
1.983,0.365,0.170
1.986,0.330,0.155
1.989,0.290,0.115
1.992,0.235,0.070
1.994,0.195,0.050
1.997,0.170,0.045
2.000,0.155,0.045
2.003,0.100,0.025
2.006,0.060,-0.005
2.008,0.025,-0.015
2.011,-0.025,-0.015
2.014,-0.040,-0.020
2.017,-0.075,-0.030
2.019,-0.100,-0.045
2.022,-0.135,-0.060
2.025,-0.165,-0.070
2.028,-0.210,-0.065
2.031,-0.210,-0.060
2.033,-0.210,-0.065
2.036,-0.230,-0.065
2.039,-0.250,-0.085
2.042,-0.265,-0.090
2.044,-0.295,-0.090
2.047,-0.295,-0.085
2.050,-0.290,-0.080
2.053,-0.305,-0.085
2.056,-0.310,-0.100
2.058,-0.315,-0.095
2.061,-0.325,-0.095
2.064,-0.340,-0.085
2.067,-0.345,-0.065
2.069,-0.350,-0.075
2.072,-0.355,-0.085
2.075,-0.355,-0.100
2.078,-0.365,-0.085
2.081,-0.360,-0.090
2.083,-0.345,-0.080
2.086,-0.360,-0.085
2.089,-0.370,-0.090
2.092,-0.375,-0.095
2.094,-0.385,-0.090
2.097,-0.375,-0.080
2.100,-0.365,-0.070
2.103,-0.380,-0.055
2.106,-0.380,-0.065
2.108,-0.375,-0.045
2.111,-0.375,-0.010
2.114,-0.370,0.030
2.117,-0.355,0.055
2.119,-0.340,0.065
2.122,-0.330,0.065
2.125,-0.320,0.060
2.128,-0.310,0.090
2.131,-0.270,0.110
2.133,-0.230,0.130
2.136,-0.180,0.145
2.139,-0.150,0.135
2.142,-0.120,0.145
2.144,-0.110,0.150
2.147,-0.085,0.135
2.150,-0.060,0.125
2.153,-0.050,0.065
2.156,-0.035,0.020
2.158,-0.025,-0.005
2.161,-0.015,-0.020
2.164,0.005,-0.025
2.167,0.005,-0.035
2.169,-0.025,-0.060
2.172,-0.055,-0.090
2.175,-0.085,-0.095
2.178,-0.100,-0.100
2.181,-0.100,-0.110
2.183,-0.095,-0.110
2.186,-0.080,-0.125
2.189,-0.075,-0.135
2.192,-0.085,-0.140
2.194,-0.100,-0.140
2.197,-0.075,-0.135
2.200,-0.080,-0.140
2.203,-0.095,-0.145
2.206,-0.110,-0.145
2.208,-0.130,-0.170
2.211,-0.155,-0.175
2.214,-0.165,-0.155
2.217,-0.200,-0.145
2.219,-0.225,-0.145
2.222,-0.245,-0.140
2.225,-0.255,-0.130
2.228,-0.290,-0.140
2.231,-0.305,-0.145
2.233,-0.330,-0.150
2.236,-0.330,-0.160
2.239,-0.360,-0.175
2.242,-0.385,-0.175
2.244,-0.405,-0.170
2.247,-0.420,-0.165
2.250,-0.425,-0.180
2.253,-0.450,-0.190
2.256,-0.440,-0.190
2.258,-0.480,-0.205
2.261,-0.475,-0.200
2.264,-0.470,-0.200
2.267,-0.470,-0.200
2.269,-0.480,-0.200
2.272,-0.495,-0.205
2.275,-0.495,-0.220
2.278,-0.505,-0.210
2.281,-0.495,-0.215
2.283,-0.485,-0.200
2.286,-0.490,-0.205
2.289,-0.490,-0.220
2.292,-0.495,-0.240
2.294,-0.510,-0.230
2.297,-0.515,-0.225
2.300,-0.500,-0.225
2.303,-0.505,-0.220
2.306,-0.510,-0.230
2.308,-0.510,-0.230
2.311,-0.515,-0.225
2.314,-0.510,-0.225
2.317,-0.495,-0.220
2.319,-0.505,-0.225
2.322,-0.505,-0.215
2.325,-0.510,-0.245
2.328,-0.515,-0.225
2.331,-0.510,-0.220
2.333,-0.500,-0.220
2.336,-0.505,-0.215
2.339,-0.520,-0.235
2.342,-0.520,-0.245
2.344,-0.535,-0.250
2.347,-0.530,-0.225
2.350,-0.515,-0.230
2.353,-0.510,-0.230
2.356,-0.505,-0.230
2.358,-0.515,-0.240
2.361,-0.520,-0.230
2.364,-0.530,-0.220
2.367,-0.505,-0.215
2.369,-0.500,-0.215
2.372,-0.500,-0.240
2.375,-0.505,-0.250
2.378,-0.520,-0.240
2.381,-0.515,-0.235
2.383,-0.500,-0.220
2.386,-0.495,-0.240
2.389,-0.500,-0.245
2.392,-0.515,-0.250
2.394,-0.510,-0.235
2.397,-0.515,-0.220
2.400,-0.500,-0.220
2.403,-0.480,-0.225
2.406,-0.475,-0.235
2.408,-0.485,-0.260
2.411,-0.485,-0.265
2.414,-0.475,-0.270
2.417,-0.450,-0.270
2.419,-0.440,-0.285
2.422,-0.425,-0.325
2.425,-0.420,-0.460
2.428,-0.400,-0.750
2.431,-0.350,-1.115
2.433,-0.240,-1.200
2.436,-0.010,-0.985
2.439,0.415,-0.770
2.442,0.970,-0.675
2.444,1.465,-0.630
2.447,1.660,-0.605
2.450,1.590,-0.565
2.453,1.470,-0.535
2.456,1.375,-0.555
2.458,1.315,-0.555
2.461,1.260,-0.560
2.464,1.185,-0.565
2.467,1.110,-0.600
2.469,1.015,-0.620
2.472,0.935,-0.625
2.475,0.840,-0.655
2.478,0.755,-0.665
2.481,0.695,-0.680
2.483,0.620,-0.705
2.486,0.515,-0.740
2.489,0.395,-0.760
2.492,0.265,-0.775
2.494,0.130,-0.795
2.497,0.000,-0.815
2.500,-0.130,-0.865
2.503,-0.290,-0.950
2.506,-0.480,-1.030
2.508,-0.690,-1.100
2.511,-0.900,-1.140
2.514,-1.090,-1.170
2.517,-1.280,-1.225
2.519,-1.460,-1.290
2.522,-1.640,-1.400
2.525,-1.830,-1.515
2.528,-1.990,-1.640
2.531,-2.080,-1.740
2.533,-2.130,-1.810
2.536,-2.170,-1.855
2.539,-2.185,-1.930
2.542,-2.215,-2.010
2.544,-2.250,-2.080
2.547,-2.305,-2.130
2.550,-2.380,-2.180
2.553,-2.470,-2.255
2.556,-2.535,-2.365
2.558,-2.585,-2.475
2.561,-2.630,-2.510
2.564,-2.665,-2.450
2.567,-2.650,-2.310
2.569,-2.590,-2.150
2.572,-2.485,-2.010
2.575,-2.340,-1.880
2.578,-2.230,-1.710
2.581,-2.050,-1.555
2.583,-1.875,-1.410
2.586,-1.700,-1.295
2.589,-1.545,-1.190
2.592,-1.435,-1.075
2.594,-1.380,-0.970
2.597,-1.295,-0.870
2.600,-1.225,-0.780
2.603,-1.145,-0.685
2.606,-1.105,-0.630
2.608,-1.060,-0.580
2.611,-1.015,-0.515
2.614,-0.965,-0.445
2.617,-0.935,-0.385
2.619,-0.915,-0.330
2.622,-0.905,-0.300
2.625,-0.885,-0.275
2.628,-0.835,-0.225
2.631,-0.750,-0.175
2.633,-0.675,-0.135
2.636,-0.620,-0.090
2.639,-0.570,-0.075
2.642,-0.530,-0.050
2.644,-0.470,-0.025
2.647,-0.405,0.020
2.650,-0.335,0.060
2.653,-0.270,0.080
2.656,-0.220,0.085
2.658,-0.160,0.090
2.661,-0.095,0.120
2.664,-0.025,0.135
2.667,0.020,0.145
2.669,0.090,0.150
2.672,0.135,0.140
2.675,0.155,0.140
2.678,0.175,0.150
2.681,0.200,0.185
2.683,0.220,0.205
2.686,0.235,0.205
2.689,0.235,0.200
2.692,0.245,0.205
2.694,0.265,0.215
2.697,0.305,0.240
2.700,0.330,0.255
2.703,0.350,0.255
2.706,0.340,0.265
2.708,0.355,0.255
2.711,0.360,0.270
2.714,0.390,0.280
2.717,0.420,0.305
2.719,0.425,0.310
2.722,0.440,0.300
2.725,0.440,0.310
2.728,0.460,0.335
2.731,0.490,0.340
2.733,0.525,0.350
2.736,0.535,0.365
2.739,0.550,0.375
2.742,0.570,0.375
2.744,0.585,0.375
2.747,0.600,0.410
2.750,0.630,0.430
2.753,0.650,0.435
2.756,0.675,0.430
2.758,0.705,0.435
2.761,0.730,0.450
2.764,0.765,0.475
2.767,0.800,0.500
2.769,0.805,0.505
2.772,0.795,0.510
2.775,0.815,0.535
2.778,0.850,0.560
2.781,0.880,0.560
2.783,0.895,0.570
2.786,0.895,0.565
2.789,0.895,0.570
2.792,0.885,0.595
2.794,0.905,0.595
2.797,0.920,0.615
2.800,0.925,0.610
2.803,0.925,0.600
2.806,0.920,0.595
2.808,0.930,0.605
2.811,0.940,0.615
2.814,0.955,0.615
2.817,0.945,0.605
2.819,0.930,0.590
2.822,0.905,0.585
2.825,0.890,0.575
2.828,0.880,0.570
2.831,0.880,0.565
2.833,0.855,0.550
2.836,0.835,0.525
2.839,0.815,0.495
2.842,0.790,0.495
2.844,0.780,0.475
2.847,0.755,0.465
2.850,0.740,0.435
2.853,0.710,0.405
2.856,0.675,0.375
2.858,0.650,0.355
2.861,0.620,0.345
2.864,0.615,0.340
2.867,0.600,0.340
2.869,0.555,0.320
2.872,0.525,0.310
2.875,0.495,0.305
2.878,0.475,0.305
2.881,0.455,0.315
2.883,0.450,0.285
2.886,0.435,0.255
2.889,0.405,0.230
2.892,0.400,0.220
2.894,0.395,0.220
2.897,0.405,0.230
2.900,0.400,0.205
2.903,0.385,0.170
2.906,0.365,0.125
2.908,0.325,0.090
2.911,0.320,0.055
2.914,0.315,0.035
2.917,0.310,-0.005
2.919,0.300,-0.030
2.922,0.285,-0.070
2.925,0.235,-0.095
2.928,0.195,-0.105
2.931,0.160,-0.115
2.933,0.110,-0.120
2.936,0.080,-0.130
2.939,0.040,-0.140
2.942,0.010,-0.145
2.944,0.020,-0.135
2.947,0.020,-0.135
2.950,0.015,-0.135
2.953,-0.010,-0.140
2.956,-0.035,-0.150
2.958,-0.050,-0.145
2.961,-0.070,-0.120
2.964,-0.085,-0.120
2.967,-0.105,-0.130
2.969,-0.120,-0.140
2.972,-0.150,-0.135
2.975,-0.180,-0.125
2.978,-0.210,-0.125
2.981,-0.230,-0.110
2.983,-0.250,-0.100
2.986,-0.290,-0.115
2.989,-0.320,-0.125
2.992,-0.360,-0.125
2.994,-0.370,-0.125
2.997,-0.400,-0.110
3.000,-0.415,-0.100
3.003,-0.435,-0.110
3.006,-0.460,-0.125
3.008,-0.470,-0.135
3.011,-0.465,-0.130
3.014,-0.480,-0.120
3.017,-0.490,-0.130
3.019,-0.515,-0.130
3.022,-0.535,-0.140
3.025,-0.550,-0.120
3.028,-0.545,-0.115
3.031,-0.540,-0.115
3.033,-0.545,-0.115
3.036,-0.550,-0.120
3.039,-0.545,-0.115
3.042,-0.560,-0.110
3.044,-0.555,-0.095
3.047,-0.550,-0.100
3.050,-0.555,-0.105
3.053,-0.560,-0.115
3.056,-0.565,-0.115
3.058,-0.585,-0.115
3.061,-0.570,-0.100
3.064,-0.550,-0.095
3.067,-0.565,-0.105
3.069,-0.555,-0.120
3.072,-0.575,-0.120
3.075,-0.570,-0.125
3.078,-0.570,-0.110
3.081,-0.555,-0.095
3.083,-0.550,-0.120
3.086,-0.555,-0.115
3.089,-0.550,-0.145
3.092,-0.560,-0.140
3.094,-0.560,-0.130
3.097,-0.545,-0.125
3.100,-0.550,-0.125
3.103,-0.550,-0.140
3.106,-0.565,-0.150
3.108,-0.550,-0.140
3.111,-0.555,-0.135
3.114,-0.540,-0.120
3.117,-0.565,-0.125
3.119,-0.575,-0.145
3.122,-0.595,-0.145
3.125,-0.615,-0.140
3.128,-0.620,-0.125
3.131,-0.605,-0.135
3.133,-0.580,-0.140
3.136,-0.585,-0.150
3.139,-0.585,-0.150
3.142,-0.595,-0.140
3.144,-0.600,-0.130
3.147,-0.590,-0.135
3.150,-0.605,-0.130
3.153,-0.600,-0.145
3.156,-0.585,-0.150
3.158,-0.580,-0.135
3.161,-0.575,-0.130
3.164,-0.575,-0.135
3.167,-0.590,-0.120
3.169,-0.595,-0.130
3.172,-0.615,-0.120
3.175,-0.585,-0.135
3.178,-0.565,-0.115
3.181,-0.545,-0.105
3.183,-0.555,-0.110
3.186,-0.560,-0.110
3.189,-0.570,-0.115
3.192,-0.575,-0.115
3.194,-0.560,-0.095
3.197,-0.570,-0.090
3.200,-0.585,-0.105
3.203,-0.590,-0.105
3.206,-0.590,-0.110
3.208,-0.590,-0.095
3.211,-0.580,-0.080
3.214,-0.570,-0.075
3.217,-0.550,-0.075
3.219,-0.535,-0.085
3.222,-0.540,-0.095
3.225,-0.550,-0.075
3.228,-0.535,-0.065
3.231,-0.515,-0.060
3.233,-0.515,-0.080
3.236,-0.525,-0.075
3.239,-0.545,-0.070
3.242,-0.565,-0.060
3.244,-0.560,-0.055
3.247,-0.550,-0.045
3.250,-0.515,-0.065
3.253,-0.510,-0.065
3.256,-0.510,-0.065
3.258,-0.530,-0.065
3.261,-0.515,-0.060
3.264,-0.515,-0.060
3.267,-0.500,-0.065
3.269,-0.495,-0.060
3.272,-0.495,-0.070
3.275,-0.490,-0.080
3.278,-0.490,-0.065
3.281,-0.480,-0.060
3.283,-0.475,-0.060
3.286,-0.470,-0.065
3.289,-0.470,-0.085
3.292,-0.465,-0.070
3.294,-0.465,-0.065
3.297,-0.455,-0.070
3.300,-0.460,-0.090
3.303,-0.450,-0.085
3.306,-0.435,-0.090
3.308,-0.440,-0.100
3.311,-0.425,-0.110
3.314,-0.405,-0.145
3.317,-0.400,-0.260
3.319,-0.380,-0.545
3.322,-0.325,-0.955
3.325,-0.215,-1.125
3.328,0.050,-0.900
3.331,0.540,-0.615
3.333,1.150,-0.470
3.336,1.595,-0.455
3.339,1.705,-0.450
3.342,1.570,-0.420
3.344,1.430,-0.390
3.347,1.360,-0.375
3.350,1.315,-0.380
3.353,1.250,-0.405
3.356,1.160,-0.415
3.358,1.055,-0.425
3.361,0.965,-0.425
3.364,0.885,-0.440
3.367,0.795,-0.455
3.369,0.715,-0.480
3.372,0.600,-0.520
3.375,0.470,-0.525
3.378,0.340,-0.530
3.381,0.215,-0.535
3.383,0.065,-0.570
3.386,-0.095,-0.610
3.389,-0.265,-0.685
3.392,-0.435,-0.750
3.394,-0.615,-0.805
3.397,-0.820,-0.860
3.400,-1.025,-0.880
3.403,-1.240,-0.935
3.406,-1.425,-0.990
3.408,-1.600,-1.070
3.411,-1.745,-1.190
3.414,-1.900,-1.310
3.417,-2.005,-1.430
3.419,-2.085,-1.515
3.422,-2.140,-1.570
3.425,-2.170,-1.645
3.428,-2.190,-1.705
3.431,-2.230,-1.785
3.433,-2.295,-1.895
3.436,-2.395,-2.005
3.439,-2.470,-2.110
3.442,-2.550,-2.240
3.444,-2.590,-2.340
3.447,-2.640,-2.365
3.450,-2.680,-2.270
3.453,-2.685,-2.130
3.456,-2.610,-1.985
3.458,-2.460,-1.815
3.461,-2.265,-1.650
3.464,-2.070,-1.485
3.467,-1.870,-1.325
3.469,-1.685,-1.180
3.472,-1.545,-1.085
3.475,-1.460,-0.950
3.478,-1.385,-0.820
3.481,-1.315,-0.685
3.483,-1.230,-0.575
3.486,-1.170,-0.495
3.489,-1.120,-0.425
3.492,-1.065,-0.345
3.494,-1.000,-0.255
3.497,-0.955,-0.180
3.500,-0.940,-0.125
3.503,-0.935,-0.080
3.506,-0.935,-0.045
3.508,-0.915,0.015
3.511,-0.845,0.055
3.514,-0.775,0.090
3.517,-0.700,0.120
3.519,-0.655,0.150
3.522,-0.605,0.180
3.525,-0.550,0.220
3.528,-0.495,0.260
3.531,-0.435,0.285
3.533,-0.375,0.325
3.536,-0.320,0.335
3.539,-0.240,0.340
3.542,-0.165,0.370
3.544,-0.095,0.390
3.547,-0.045,0.405
3.550,0.015,0.395
3.553,0.060,0.405
3.556,0.090,0.400
3.558,0.120,0.420
3.561,0.145,0.445
3.564,0.175,0.450
3.567,0.185,0.465
3.569,0.195,0.460
3.572,0.200,0.455
3.575,0.230,0.475
3.578,0.255,0.490
3.581,0.285,0.505
3.583,0.285,0.515
3.586,0.300,0.515
3.589,0.310,0.530
3.592,0.340,0.540
3.594,0.380,0.575
3.597,0.410,0.605
3.600,0.435,0.635
3.603,0.460,0.655
3.606,0.485,0.685
3.608,0.515,0.705
3.611,0.540,0.750
3.614,0.580,0.760
3.617,0.625,0.775
3.619,0.655,0.785
3.622,0.710,0.795
3.625,0.765,0.825
3.628,0.825,0.855
3.631,0.895,0.885
3.633,0.930,0.890
3.636,0.980,0.875
3.639,1.005,0.845
3.642,1.040,0.835
3.644,1.080,0.820
3.647,1.105,0.820
3.650,1.145,0.820
3.653,1.170,0.815
3.656,1.195,0.780
3.658,1.195,0.785
3.661,1.195,0.795
3.664,1.195,0.805
3.667,1.195,0.790
3.669,1.200,0.790
3.672,1.200,0.780
3.675,1.210,0.805
3.678,1.200,0.810
3.681,1.220,0.830
3.683,1.225,0.830
3.686,1.210,0.810
3.689,1.185,0.805
3.692,1.175,0.800
3.694,1.175,0.815
3.697,1.160,0.790
3.700,1.125,0.780
3.703,1.080,0.775
3.706,1.045,0.745
3.708,1.005,0.755
3.711,0.975,0.750
3.714,0.945,0.735
3.717,0.895,0.720
3.719,0.850,0.675
3.722,0.795,0.655
3.725,0.745,0.620
3.728,0.700,0.600
3.731,0.665,0.570
3.733,0.635,0.535
3.736,0.570,0.500
3.739,0.530,0.455
3.742,0.475,0.435
3.744,0.430,0.410
3.747,0.380,0.390
3.750,0.325,0.355
3.753,0.275,0.340
3.756,0.225,0.305
3.758,0.180,0.275
3.761,0.140,0.270
3.764,0.105,0.250
3.767,0.045,0.225
3.769,-0.005,0.190
3.772,-0.070,0.175
3.775,-0.110,0.165
3.778,-0.140,0.160
3.781,-0.160,0.160
3.783,-0.195,0.140
3.786,-0.245,0.125
3.789,-0.280,0.115
3.792,-0.320,0.100
3.794,-0.345,0.105
3.797,-0.370,0.100
3.800,-0.400,0.105
3.803,-0.435,0.085
3.806,-0.455,0.075
3.808,-0.475,0.090
3.811,-0.480,0.085
3.814,-0.490,0.095
3.817,-0.505,0.080
3.819,-0.535,0.080
3.822,-0.545,0.065
3.825,-0.565,0.070
3.828,-0.570,0.085
3.831,-0.570,0.085
3.833,-0.580,0.080
3.836,-0.595,0.070
3.839,-0.620,0.070
3.842,-0.640,0.065
3.844,-0.630,0.085
3.847,-0.635,0.095
3.850,-0.630,0.095
3.853,-0.640,0.085
3.856,-0.665,0.080
3.858,-0.655,0.080
3.861,-0.660,0.090
3.864,-0.650,0.090
3.867,-0.660,0.095
3.869,-0.665,0.100
3.872,-0.680,0.095
3.875,-0.690,0.105
3.878,-0.675,0.115
3.881,-0.675,0.115
3.883,-0.675,0.110
3.886,-0.690,0.120
3.889,-0.690,0.100
3.892,-0.690,0.105
3.894,-0.675,0.120
3.897,-0.680,0.135
3.900,-0.690,0.130
3.903,-0.690,0.115
3.906,-0.705,0.110
3.908,-0.690,0.130
3.911,-0.675,0.145
3.914,-0.665,0.150
3.917,-0.665,0.145
3.919,-0.660,0.140
3.922,-0.675,0.135
3.925,-0.675,0.140
3.928,-0.670,0.155
3.931,-0.660,0.170
3.933,-0.645,0.170
3.936,-0.660,0.155
3.939,-0.670,0.155
3.942,-0.670,0.165
3.944,-0.655,0.170
3.947,-0.645,0.160
3.950,-0.640,0.150
3.953,-0.640,0.145
3.956,-0.645,0.150
3.958,-0.645,0.150
3.961,-0.640,0.145
3.964,-0.620,0.150
3.967,-0.620,0.150
3.969,-0.625,0.145
3.972,-0.610,0.135
3.975,-0.625,0.140
3.978,-0.605,0.155
3.981,-0.605,0.155
3.983,-0.610,0.135
3.986,-0.610,0.130
3.989,-0.615,0.120
3.992,-0.615,0.125
3.994,-0.605,0.125
3.997,-0.595,0.145
4.000,-0.600,0.135
4.003,-0.595,0.120
4.006,-0.600,0.110
4.008,-0.605,0.105
4.011,-0.585,0.120
4.014,-0.570,0.125
4.017,-0.570,0.115
4.019,-0.585,0.105
4.022,-0.600,0.105
4.025,-0.610,0.105
4.028,-0.605,0.115
4.031,-0.595,0.115
4.033,-0.595,0.115
4.036,-0.605,0.100
4.039,-0.600,0.095
4.042,-0.610,0.110
4.044,-0.590,0.110
4.047,-0.585,0.120
4.050,-0.580,0.095
4.053,-0.585,0.090
4.056,-0.595,0.095
4.058,-0.600,0.095
4.061,-0.595,0.095
4.064,-0.585,0.110
4.067,-0.585,0.105
4.069,-0.590,0.095
4.072,-0.590,0.090
4.075,-0.580,0.090
4.078,-0.575,0.105
4.081,-0.565,0.100
4.083,-0.565,0.100
4.086,-0.580,0.080
4.089,-0.580,0.090
4.092,-0.580,0.085
4.094,-0.570,0.095
4.097,-0.565,0.100
4.100,-0.560,0.090
4.103,-0.575,0.080
4.106,-0.585,0.080
4.108,-0.590,0.090
4.111,-0.555,0.100
4.114,-0.555,0.095
4.117,-0.565,0.090
4.119,-0.560,0.075
4.122,-0.555,0.070
4.125,-0.550,0.085
4.128,-0.535,0.095
4.131,-0.530,0.095
4.133,-0.540,0.090
4.136,-0.550,0.080
4.139,-0.545,0.065
4.142,-0.565,0.075
4.144,-0.555,0.085
4.147,-0.540,0.075
4.150,-0.540,0.075
4.153,-0.540,0.065
4.156,-0.530,0.060
4.158,-0.535,0.060
4.161,-0.535,0.070
4.164,-0.520,0.075
4.167,-0.510,0.060
4.169,-0.510,0.040
4.172,-0.515,0.025
4.175,-0.520,0.030
4.178,-0.485,0.020
4.181,-0.470,0.005
4.183,-0.465,-0.025
4.186,-0.445,-0.105
4.189,-0.445,-0.315
4.192,-0.420,-0.710
4.194,-0.350,-1.035
4.197,-0.190,-0.950
4.200,0.155,-0.655
4.203,0.715,-0.435
4.206,1.300,-0.390
4.208,1.595,-0.360
4.211,1.550,-0.345
4.214,1.370,-0.310
4.217,1.260,-0.310
4.219,1.185,-0.325
4.222,1.125,-0.340
4.225,1.025,-0.345
4.228,0.925,-0.350
4.231,0.810,-0.380
4.233,0.705,-0.400
4.236,0.595,-0.435
4.239,0.475,-0.455
4.242,0.350,-0.460
4.244,0.245,-0.470
4.247,0.105,-0.490
4.250,-0.070,-0.525
4.253,-0.260,-0.570
4.256,-0.450,-0.620
4.258,-0.640,-0.670
4.261,-0.835,-0.725
4.264,-1.030,-0.780
4.267,-1.280,-0.830
4.269,-1.510,-0.880
4.272,-1.715,-0.930
4.275,-1.895,-0.985
4.278,-2.065,-1.070
4.281,-2.195,-1.205
4.283,-2.295,-1.345
4.286,-2.395,-1.465
4.289,-2.460,-1.555
4.292,-2.485,-1.600
4.294,-2.510,-1.680
4.297,-2.540,-1.760
4.300,-2.615,-1.865
4.303,-2.690,-1.965
4.306,-2.760,-2.075
4.308,-2.820,-2.185
4.311,-2.875,-2.295
4.314,-2.910,-2.335
4.317,-2.945,-2.270
4.319,-2.940,-2.145
4.322,-2.845,-1.980
4.325,-2.665,-1.790
4.328,-2.440,-1.550
4.331,-2.200,-1.355
4.333,-1.975,-1.165
4.336,-1.770,-1.010
4.339,-1.625,-0.880
4.342,-1.535,-0.745
4.344,-1.425,-0.595
4.347,-1.330,-0.455
4.350,-1.220,-0.335
4.353,-1.105,-0.245
4.356,-1.015,-0.155
4.358,-0.925,-0.075
4.361,-0.845,-0.020
4.364,-0.780,0.010
4.367,-0.730,0.020
4.369,-0.675,0.010
4.372,-0.630,0.025
4.375,-0.550,0.045
4.378,-0.445,0.065
4.381,-0.355,0.090
4.383,-0.315,0.095
4.386,-0.295,0.105
4.389,-0.260,0.130
4.392,-0.220,0.150
4.394,-0.150,0.190
4.397,-0.080,0.200
4.400,-0.005,0.225
4.403,0.070,0.235
4.406,0.105,0.245
4.408,0.160,0.250
4.411,0.220,0.270
4.414,0.270,0.295
4.417,0.290,0.290
4.419,0.310,0.280
4.422,0.290,0.290
4.425,0.275,0.315
4.428,0.280,0.340
4.431,0.270,0.370
4.433,0.265,0.375
4.436,0.255,0.385
4.439,0.240,0.380
4.442,0.245,0.385
4.444,0.255,0.395
4.447,0.270,0.400
4.450,0.270,0.405
4.453,0.275,0.405
4.456,0.255,0.390
4.458,0.270,0.415
4.461,0.305,0.420
4.464,0.320,0.450
4.467,0.325,0.450
4.469,0.320,0.460
4.472,0.340,0.470
4.475,0.355,0.495
4.478,0.390,0.520
4.481,0.415,0.535
4.483,0.450,0.540
4.486,0.480,0.555
4.489,0.500,0.560
4.492,0.515,0.590
4.494,0.550,0.620
4.497,0.590,0.625
4.500,0.615,0.635
4.503,0.640,0.645
4.506,0.665,0.645
4.508,0.685,0.670
4.511,0.715,0.695
4.514,0.745,0.710
4.517,0.760,0.720
4.519,0.770,0.720
4.522,0.775,0.725
4.525,0.785,0.740
4.528,0.805,0.750
4.531,0.825,0.760
4.533,0.830,0.755
4.536,0.815,0.755
4.539,0.810,0.760
4.542,0.810,0.740
4.544,0.820,0.750
4.547,0.825,0.745
4.550,0.800,0.725
4.553,0.775,0.710
4.556,0.755,0.690
4.558,0.735,0.680
4.561,0.700,0.665
4.564,0.675,0.640
4.567,0.655,0.620
4.569,0.615,0.595
4.572,0.595,0.555
4.575,0.540,0.535
4.578,0.525,0.520
4.581,0.475,0.490
4.583,0.430,0.465
4.586,0.375,0.435
4.589,0.335,0.390
4.592,0.280,0.370
4.594,0.240,0.355
4.597,0.200,0.335
4.600,0.155,0.300
4.603,0.100,0.260
4.606,0.045,0.240
4.608,0.000,0.220
4.611,-0.035,0.210
4.614,-0.065,0.185
4.617,-0.125,0.165
4.619,-0.175,0.145
4.622,-0.235,0.130
4.625,-0.275,0.130
4.628,-0.305,0.130
4.631,-0.335,0.120
4.633,-0.375,0.100
4.636,-0.415,0.085
4.639,-0.465,0.075
4.642,-0.490,0.080
4.644,-0.490,0.080
4.647,-0.500,0.090
4.650,-0.540,0.085
4.653,-0.570,0.060
4.656,-0.595,0.060
4.658,-0.615,0.070
4.661,-0.620,0.075
4.664,-0.620,0.070
4.667,-0.630,0.065
4.669,-0.640,0.060
4.672,-0.655,0.045
4.675,-0.665,0.055
4.678,-0.665,0.080
4.681,-0.665,0.075
4.683,-0.680,0.070
4.686,-0.690,0.065
4.689,-0.705,0.070
4.692,-0.710,0.075
4.694,-0.690,0.080
4.697,-0.690,0.085
4.700,-0.695,0.090
4.703,-0.695,0.075
4.706,-0.710,0.080
4.708,-0.705,0.070
4.711,-0.705,0.090
4.714,-0.680,0.110
4.717,-0.710,0.095
4.719,-0.725,0.085
4.722,-0.720,0.075
4.725,-0.730,0.080
4.728,-0.710,0.085
4.731,-0.710,0.095
4.733,-0.705,0.085
4.736,-0.705,0.085
4.739,-0.695,0.080
4.742,-0.705,0.095
4.744,-0.685,0.100
4.747,-0.675,0.110
4.750,-0.680,0.095
4.753,-0.690,0.090
4.756,-0.700,0.090
4.758,-0.695,0.090
4.761,-0.680,0.095
4.764,-0.670,0.100
4.767,-0.680,0.100
4.769,-0.675,0.085
4.772,-0.670,0.080
4.775,-0.675,0.090
4.778,-0.660,0.100
4.781,-0.645,0.100
4.783,-0.650,0.095
4.786,-0.655,0.085
4.789,-0.665,0.070
4.792,-0.655,0.085
4.794,-0.640,0.090
4.797,-0.615,0.085
4.800,-0.630,0.090
4.803,-0.640,0.090
4.806,-0.655,0.070
4.808,-0.650,0.085
4.811,-0.645,0.075
4.814,-0.620,0.075
4.817,-0.620,0.065
4.819,-0.610,0.070
4.822,-0.630,0.050
4.825,-0.645,0.050
4.828,-0.635,0.065
4.831,-0.630,0.070
4.833,-0.625,0.055
4.836,-0.630,0.050
4.839,-0.640,0.050
4.842,-0.640,0.040
4.844,-0.625,0.055
4.847,-0.625,0.060
4.850,-0.635,0.060
4.853,-0.635,0.045
4.856,-0.640,0.030
4.858,-0.645,0.045
4.861,-0.635,0.050
4.864,-0.625,0.060
4.867,-0.635,0.055
4.869,-0.630,0.040
4.872,-0.630,0.015
4.875,-0.635,0.030
4.878,-0.625,0.025
4.881,-0.635,0.040
4.883,-0.635,0.045
4.886,-0.645,0.030
4.889,-0.650,0.015
4.892,-0.640,0.025
4.894,-0.625,0.045
4.897,-0.610,0.045
4.900,-0.610,0.035
4.903,-0.615,0.030
4.906,-0.625,0.020
4.908,-0.630,0.010
4.911,-0.630,0.035
4.914,-0.625,0.040
4.917,-0.605,0.030
4.919,-0.610,0.015
4.922,-0.615,0.015
4.925,-0.630,0.025
4.928,-0.605,0.030
4.931,-0.600,0.040
4.933,-0.600,0.035
4.936,-0.610,0.020
4.939,-0.620,0.015
4.942,-0.630,0.030
4.944,-0.615,0.035
4.947,-0.580,0.030
4.950,-0.590,0.035
4.953,-0.600,0.020
4.956,-0.610,0.005
4.958,-0.610,0.010
4.961,-0.600,0.015
4.964,-0.605,0.020
4.967,-0.595,0.030
4.969,-0.605,0.000
4.972,-0.600,-0.010
4.975,-0.605,0.005
4.978,-0.575,0.020
4.981,-0.575,0.020
4.983,-0.585,0.005
4.986,-0.585,0.000
4.989,-0.585,-0.010
4.992,-0.580,0.005
4.994,-0.565,0.010
4.997,-0.555,0.000
5.000,-0.560,0.000
5.003,-0.570,-0.030
5.006,-0.575,-0.030
5.008,-0.575,-0.040
5.011,-0.560,-0.030
5.014,-0.540,-0.045
5.017,-0.525,-0.065
5.019,-0.505,-0.115
5.022,-0.485,-0.225
5.025,-0.470,-0.500
5.028,-0.425,-0.875
5.031,-0.315,-0.945
5.033,-0.075,-0.665
5.036,0.410,-0.380
5.039,1.025,-0.255
5.042,1.445,-0.195
5.044,1.460,-0.170
5.047,1.280,-0.160
5.050,1.115,-0.130
5.053,1.075,-0.135
5.056,1.035,-0.145
5.058,1.000,-0.140
5.061,0.930,-0.160
5.064,0.845,-0.180
5.067,0.745,-0.250
5.069,0.640,-0.330
5.072,0.540,-0.395
5.075,0.445,-0.435
5.078,0.375,-0.465
5.081,0.285,-0.485
5.083,0.135,-0.525
5.086,-0.040,-0.590
5.089,-0.230,-0.645
5.092,-0.450,-0.695
5.094,-0.655,-0.760
5.097,-0.860,-0.840
5.100,-1.105,-0.900
5.103,-1.370,-0.960
5.106,-1.605,-0.985
5.108,-1.810,-1.055
5.111,-1.980,-1.160
5.114,-2.130,-1.285
5.117,-2.255,-1.430
5.119,-2.320,-1.565
5.122,-2.390,-1.655
5.125,-2.440,-1.725
5.128,-2.450,-1.795
5.131,-2.500,-1.865
5.133,-2.610,-1.955
5.136,-2.710,-2.035
5.139,-2.790,-2.130
5.142,-2.865,-2.240
5.144,-2.910,-2.340
5.147,-2.945,-2.375
5.150,-2.960,-2.305
5.153,-2.950,-2.175
5.156,-2.870,-2.015
5.158,-2.695,-1.860
5.161,-2.490,-1.670
5.164,-2.305,-1.510
5.167,-2.135,-1.350
5.169,-1.980,-1.230
5.172,-1.850,-1.125
5.175,-1.735,-0.975
5.178,-1.625,-0.835
5.181,-1.515,-0.700
5.183,-1.425,-0.610
5.186,-1.355,-0.520
5.189,-1.290,-0.455
5.192,-1.220,-0.370
5.194,-1.180,-0.275
5.197,-1.145,-0.245
5.200,-1.135,-0.205
5.203,-1.115,-0.170
5.206,-1.085,-0.120
5.208,-1.050,-0.070
5.211,-0.955,-0.050
5.214,-0.890,-0.005
5.217,-0.810,0.030
5.219,-0.755,0.050
5.222,-0.700,0.065
5.225,-0.640,0.105
5.228,-0.540,0.150
5.231,-0.450,0.170
5.233,-0.380,0.185
5.236,-0.335,0.180
5.239,-0.280,0.200
5.242,-0.230,0.215
5.244,-0.170,0.230
5.247,-0.090,0.240
5.250,-0.045,0.250
5.253,-0.020,0.250
5.256,-0.010,0.250
5.258,0.010,0.275
5.261,0.030,0.290
5.264,0.065,0.305
5.267,0.075,0.320
5.269,0.095,0.315
5.272,0.110,0.315
5.275,0.125,0.340
5.278,0.160,0.365
5.281,0.175,0.380
5.283,0.195,0.380
5.286,0.205,0.385
5.289,0.225,0.385
5.292,0.240,0.410
5.294,0.265,0.440
5.297,0.290,0.450
5.300,0.325,0.450
5.303,0.355,0.460
5.306,0.390,0.470
5.308,0.415,0.490
5.311,0.465,0.515
5.314,0.475,0.535
5.317,0.510,0.540
5.319,0.535,0.545
5.322,0.570,0.550
5.325,0.600,0.575
5.328,0.645,0.600
5.331,0.695,0.610
5.333,0.720,0.625
5.336,0.750,0.630
5.339,0.770,0.630
5.342,0.800,0.650
5.344,0.865,0.660
5.347,0.895,0.680
5.350,0.915,0.690
5.353,0.940,0.680
5.356,0.940,0.680
5.358,0.965,0.695
5.361,0.990,0.715
5.364,1.010,0.710
5.367,1.020,0.705
5.369,1.020,0.695
5.372,1.010,0.680
5.375,1.015,0.680
5.378,1.025,0.690
5.381,1.035,0.675
5.383,1.020,0.665
5.386,1.000,0.640
5.389,0.975,0.615
5.392,0.945,0.615
5.394,0.915,0.600
5.397,0.890,0.580
5.400,0.855,0.555
5.403,0.830,0.515
5.406,0.785,0.480
5.408,0.750,0.465
5.411,0.725,0.440
5.414,0.680,0.425
5.417,0.635,0.385
5.419,0.590,0.335
5.422,0.545,0.315
5.425,0.485,0.295
5.428,0.455,0.285
5.431,0.420,0.255
5.433,0.375,0.220
5.436,0.320,0.180
5.439,0.270,0.155
5.442,0.210,0.140
5.444,0.170,0.120
5.447,0.145,0.105
5.450,0.090,0.090
5.453,0.045,0.055
5.456,-0.005,0.045
5.458,-0.050,0.045
5.461,-0.080,0.030
5.464,-0.115,0.030
5.467,-0.165,0.015
5.469,-0.220,-0.020
5.472,-0.275,-0.020
5.475,-0.300,-0.010
5.478,-0.320,-0.030
5.481,-0.340,-0.035
5.483,-0.350,-0.030
5.486,-0.370,-0.030
5.489,-0.385,-0.040
5.492,-0.420,-0.035
5.494,-0.440,-0.025
5.497,-0.425,-0.035
5.500,-0.420,-0.030
5.503,-0.405,-0.050
5.506,-0.415,-0.060
5.508,-0.445,-0.040
5.511,-0.465,-0.035
5.514,-0.455,-0.030
5.517,-0.465,-0.040
5.519,-0.485,-0.055
5.522,-0.495,-0.055
5.525,-0.505,-0.045
5.528,-0.495,-0.030
5.531,-0.490,-0.020
5.533,-0.525,-0.025
5.536,-0.530,-0.040
5.539,-0.545,-0.050
5.542,-0.545,-0.040
5.544,-0.515,-0.035
5.547,-0.485,-0.025
5.550,-0.490,-0.025
5.553,-0.500,-0.030
5.556,-0.505,-0.030
5.558,-0.510,-0.015
5.561,-0.500,-0.030
5.564,-0.505,-0.015
5.567,-0.540,-0.030
5.569,-0.550,-0.020
5.572,-0.520,-0.025
5.575,-0.495,-0.020
5.578,-0.495,-0.015
5.581,-0.510,-0.010
5.583,-0.505,0.000
5.586,-0.485,-0.020
5.589,-0.490,-0.025
5.592,-0.495,-0.025
5.594,-0.490,-0.010
5.597,-0.480,0.000
5.600,-0.480,-0.010
5.603,-0.495,-0.030
5.606,-0.505,-0.040
5.608,-0.505,-0.035
5.611,-0.490,0.000
5.614,-0.480,-0.015
5.617,-0.485,-0.030
5.619,-0.480,-0.040
5.622,-0.490,-0.040
5.625,-0.475,-0.040
5.628,-0.465,-0.030
5.631,-0.455,-0.035
5.633,-0.455,-0.045
5.636,-0.465,-0.055
5.639,-0.490,-0.060
5.642,-0.490,-0.055
5.644,-0.495,-0.060
5.647,-0.450,-0.055
5.650,-0.445,-0.055
5.653,-0.440,-0.060
5.656,-0.455,-0.090
5.658,-0.470,-0.065
5.661,-0.470,-0.075
5.664,-0.485,-0.060
5.667,-0.480,-0.075
5.669,-0.490,-0.075
5.672,-0.495,-0.085
5.675,-0.485,-0.075
5.678,-0.475,-0.080
5.681,-0.470,-0.075
5.683,-0.485,-0.090
5.686,-0.495,-0.090
5.689,-0.500,-0.110
5.692,-0.505,-0.100
5.694,-0.490,-0.090
5.697,-0.485,-0.090
5.700,-0.490,-0.100
5.703,-0.495,-0.105
5.706,-0.495,-0.110
5.708,-0.495,-0.105
5.711,-0.490,-0.090
5.714,-0.485,-0.100
5.717,-0.495,-0.100
5.719,-0.505,-0.105
5.722,-0.520,-0.095
5.725,-0.510,-0.080
5.728,-0.500,-0.040
5.731,-0.475,-0.010
5.733,-0.485,0.005
5.736,-0.455,0.020
5.739,-0.460,0.030
5.742,-0.435,0.045
5.744,-0.410,0.060
5.747,-0.395,0.080
5.750,-0.370,0.085
5.753,-0.315,0.100
5.756,-0.270,0.105
5.758,-0.245,0.100
5.761,-0.205,0.090
5.764,-0.185,0.045
5.767,-0.190,-0.005
5.769,-0.195,-0.045
5.772,-0.185,-0.070
5.775,-0.170,-0.080
5.778,-0.130,-0.085
5.781,-0.080,-0.095
5.783,-0.090,-0.125
5.786,-0.110,-0.140
5.789,-0.135,-0.155
5.792,-0.160,-0.155
5.794,-0.165,-0.165
5.797,-0.170,-0.180
5.800,-0.175,-0.175
5.803,-0.180,-0.160
5.806,-0.195,-0.165
5.808,-0.190,-0.175
5.811,-0.195,-0.160
5.814,-0.215,-0.170
5.817,-0.230,-0.175
5.819,-0.230,-0.190
5.822,-0.255,-0.200
5.825,-0.280,-0.195
5.828,-0.295,-0.175
5.831,-0.310,-0.180
5.833,-0.330,-0.170
5.836,-0.365,-0.165
5.839,-0.395,-0.180
5.842,-0.415,-0.175
5.844,-0.425,-0.200
5.847,-0.425,-0.215
5.850,-0.435,-0.260
5.853,-0.430,-0.355
5.856,-0.430,-0.635
5.858,-0.400,-1.015
5.861,-0.275,-1.155
5.864,0.020,-0.925
5.867,0.540,-0.640
5.869,1.175,-0.530
5.872,1.545,-0.530
5.875,1.460,-0.525
5.878,1.210,-0.490
5.881,1.045,-0.480
5.883,0.980,-0.490
5.886,0.905,-0.520
5.889,0.800,-0.545
5.892,0.695,-0.545
5.894,0.590,-0.565
5.897,0.485,-0.585
5.900,0.350,-0.605
5.903,0.235,-0.635
5.906,0.125,-0.675
5.908,0.015,-0.675
5.911,-0.125,-0.665
5.914,-0.280,-0.700
5.917,-0.455,-0.740
5.919,-0.595,-0.815
5.922,-0.735,-0.890
5.925,-0.880,-0.955
5.928,-1.015,-1.010
5.931,-1.160,-1.055
5.933,-1.355,-1.115
5.936,-1.580,-1.200
5.939,-1.795,-1.280
5.942,-1.975,-1.380
5.944,-2.135,-1.530
5.947,-2.255,-1.670
5.950,-2.300,-1.790
5.953,-2.340,-1.895
5.956,-2.375,-1.970
5.958,-2.395,-2.035
5.961,-2.420,-2.130
5.964,-2.470,-2.215
5.967,-2.565,-2.305
5.969,-2.650,-2.390
5.972,-2.725,-2.465
5.975,-2.770,-2.525
5.978,-2.815,-2.565
5.981,-2.855,-2.530
5.983,-2.875,-2.395
5.986,-2.835,-2.240
5.989,-2.735,-2.070
5.992,-2.540,-1.900
5.994,-2.320,-1.720
5.997,-2.115,-1.535
6.000,-1.920,-1.380
6.003,-1.755,-1.235
6.006,-1.640,-1.075
6.008,-1.565,-0.935
6.011,-1.475,-0.810
6.014,-1.400,-0.690
6.017,-1.355,-0.605
6.019,-1.310,-0.515
6.022,-1.265,-0.455
6.025,-1.240,-0.380
6.028,-1.205,-0.305
6.031,-1.155,-0.240
6.033,-1.100,-0.185
6.036,-1.055,-0.155
6.039,-1.000,-0.105
6.042,-0.910,-0.050
6.044,-0.810,-0.010
6.047,-0.755,0.015
6.050,-0.730,0.030
6.053,-0.700,0.055
6.056,-0.595,0.090
6.058,-0.450,0.110
6.061,-0.300,0.155
6.064,-0.225,0.160
6.067,-0.205,0.180
6.069,-0.175,0.175
6.072,-0.125,0.180
6.075,-0.055,0.195
6.078,0.000,0.200
6.081,0.020,0.215
6.083,0.050,0.230
6.086,0.065,0.225
6.089,0.080,0.245
6.092,0.095,0.245
6.094,0.120,0.275
6.097,0.165,0.270
6.100,0.200,0.280
6.103,0.230,0.280
6.106,0.255,0.285
6.108,0.295,0.300
6.111,0.325,0.330
6.114,0.360,0.340
6.117,0.370,0.355
6.119,0.395,0.360
6.122,0.410,0.365
6.125,0.435,0.380
6.128,0.470,0.395
6.131,0.515,0.410
6.133,0.545,0.425
6.136,0.550,0.425
6.139,0.590,0.435
6.142,0.615,0.465
6.144,0.645,0.480
6.147,0.700,0.490
6.150,0.740,0.505
6.153,0.775,0.505
6.156,0.810,0.515
6.158,0.825,0.540
6.161,0.860,0.565
6.164,0.900,0.575
6.167,0.920,0.590
6.169,0.940,0.585
6.172,0.955,0.595
6.175,0.970,0.605
6.178,1.000,0.630
6.181,1.025,0.630
6.183,1.015,0.635
6.186,1.030,0.630
6.189,1.020,0.630
6.192,1.015,0.640
6.194,1.020,0.645
6.197,1.030,0.635
6.200,1.015,0.630
6.203,1.005,0.610
6.206,0.995,0.600
6.208,0.975,0.590
6.211,0.950,0.585
6.214,0.945,0.590
6.217,0.910,0.560
6.219,0.875,0.525
6.222,0.835,0.500
6.225,0.800,0.490
6.228,0.780,0.485
6.231,0.750,0.460
6.233,0.700,0.415
6.236,0.660,0.380
6.239,0.600,0.340
6.242,0.560,0.325
6.244,0.530,0.300
6.247,0.495,0.275
6.250,0.445,0.245
6.253,0.395,0.200
6.256,0.355,0.165
6.258,0.295,0.150
6.261,0.260,0.135
6.264,0.225,0.120
6.267,0.175,0.080
6.269,0.120,0.050
6.272,0.060,0.030
6.275,0.010,0.020
6.278,-0.020,0.020
6.281,-0.055,0.005
6.283,-0.095,-0.010
6.286,-0.140,-0.035
6.289,-0.185,-0.050
6.292,-0.225,-0.055
6.294,-0.255,-0.055
6.297,-0.270,-0.050
6.300,-0.295,-0.060
6.303,-0.325,-0.085
6.306,-0.355,-0.090
6.308,-0.375,-0.090
6.311,-0.385,-0.065
6.314,-0.405,-0.070
6.317,-0.415,-0.070
6.319,-0.440,-0.085
6.322,-0.460,-0.085
6.325,-0.480,-0.080
6.328,-0.455,-0.070
6.331,-0.460,-0.070
6.333,-0.470,-0.065
6.336,-0.480,-0.085
6.339,-0.490,-0.095
6.342,-0.500,-0.085
6.344,-0.495,-0.065
6.347,-0.495,-0.065
6.350,-0.490,-0.060
6.353,-0.510,-0.070
6.356,-0.520,-0.075
6.358,-0.525,-0.070
6.361,-0.525,-0.060
6.364,-0.515,-0.055
6.367,-0.515,-0.055
6.369,-0.530,-0.070
6.372,-0.525,-0.070
6.375,-0.540,-0.065
6.378,-0.530,-0.050
6.381,-0.525,-0.040
6.383,-0.530,-0.045
6.386,-0.525,-0.060
6.389,-0.535,-0.055
6.392,-0.545,-0.055
6.394,-0.540,-0.030
6.397,-0.525,-0.045
6.400,-0.525,-0.030
6.403,-0.540,-0.045
6.406,-0.535,-0.040
6.408,-0.535,-0.015
6.411,-0.510,0.020
6.414,-0.500,0.040
6.417,-0.495,0.060
6.419,-0.510,0.085
6.422,-0.505,0.100
6.425,-0.490,0.120
6.428,-0.460,0.130
6.431,-0.435,0.130
6.433,-0.395,0.160
6.436,-0.365,0.155
6.439,-0.325,0.175
6.442,-0.265,0.200
6.444,-0.240,0.205
6.447,-0.200,0.175
6.450,-0.180,0.140
6.453,-0.175,0.080
6.456,-0.180,0.050
6.458,-0.170,0.035
6.461,-0.130,0.020
6.464,-0.100,0.000
6.467,-0.095,-0.020
6.469,-0.110,-0.040
6.472,-0.145,-0.060
6.475,-0.180,-0.050
6.478,-0.185,-0.065
6.481,-0.190,-0.080
6.483,-0.190,-0.095
6.486,-0.205,-0.100
6.489,-0.225,-0.100
6.492,-0.220,-0.090
6.494,-0.225,-0.085
6.497,-0.230,-0.085
6.500,-0.250,-0.100
6.503,-0.265,-0.110
6.506,-0.280,-0.120
6.508,-0.315,-0.115
6.511,-0.345,-0.095
6.514,-0.350,-0.095
6.517,-0.390,-0.080
6.519,-0.420,-0.090
6.522,-0.460,-0.075
6.525,-0.485,-0.075
6.528,-0.505,-0.075
6.531,-0.515,-0.090
6.533,-0.535,-0.100
6.536,-0.550,-0.110
6.539,-0.580,-0.115
6.542,-0.600,-0.120
6.544,-0.610,-0.120
6.547,-0.605,-0.120
6.550,-0.615,-0.140
6.553,-0.650,-0.145
6.556,-0.675,-0.145
6.558,-0.680,-0.135
6.561,-0.680,-0.130
6.564,-0.655,-0.125
6.567,-0.660,-0.140
6.569,-0.665,-0.145
6.572,-0.655,-0.150
6.575,-0.650,-0.140
6.578,-0.645,-0.125
6.581,-0.640,-0.135
6.583,-0.650,-0.130
6.586,-0.670,-0.135
6.589,-0.670,-0.150
6.592,-0.700,-0.145
6.594,-0.690,-0.135
6.597,-0.675,-0.125
6.600,-0.670,-0.140
6.603,-0.675,-0.150
6.606,-0.685,-0.155
6.608,-0.690,-0.135
6.611,-0.685,-0.130
6.614,-0.690,-0.125
6.617,-0.690,-0.130
6.619,-0.700,-0.150
6.622,-0.700,-0.145
6.625,-0.690,-0.145
6.628,-0.680,-0.125
6.631,-0.665,-0.130
6.633,-0.675,-0.140
6.636,-0.690,-0.145
6.639,-0.685,-0.150
6.642,-0.685,-0.150
6.644,-0.680,-0.145
6.647,-0.660,-0.140
6.650,-0.665,-0.145
6.653,-0.670,-0.150
6.656,-0.680,-0.160
6.658,-0.690,-0.150
6.661,-0.670,-0.145
6.664,-0.640,-0.145
6.667,-0.645,-0.165
6.669,-0.635,-0.190
6.672,-0.630,-0.220
6.675,-0.610,-0.305
6.678,-0.580,-0.575
6.681,-0.530,-0.995
6.683,-0.430,-1.135
6.686,-0.225,-0.905
6.689,0.230,-0.625
6.692,0.865,-0.500
6.694,1.410,-0.480
6.697,1.475,-0.465
6.700,1.265,-0.450
6.703,1.080,-0.430
6.706,0.980,-0.435
6.708,0.920,-0.445
6.711,0.880,-0.445
6.714,0.790,-0.465
6.717,0.680,-0.475
6.719,0.590,-0.495
6.722,0.495,-0.505
6.725,0.420,-0.520
6.728,0.345,-0.530
6.731,0.250,-0.545
6.733,0.145,-0.570
6.736,0.020,-0.605
6.739,-0.090,-0.625
6.742,-0.230,-0.655
6.744,-0.345,-0.685
6.747,-0.460,-0.745
6.750,-0.600,-0.830
6.753,-0.775,-0.910
6.756,-0.940,-0.970
6.758,-1.115,-1.010
6.761,-1.275,-1.045
6.764,-1.450,-1.095
6.767,-1.610,-1.230
6.769,-1.820,-1.375
6.772,-2.005,-1.530
6.775,-2.140,-1.650
6.778,-2.215,-1.720
6.781,-2.245,-1.790
6.783,-2.270,-1.855
6.786,-2.300,-1.930
6.789,-2.350,-2.010
6.792,-2.400,-2.090
6.794,-2.470,-2.125
6.797,-2.550,-2.215
6.800,-2.625,-2.275
6.803,-2.690,-2.360
6.806,-2.750,-2.415
6.808,-2.795,-2.335
6.811,-2.800,-2.200
6.814,-2.735,-2.040
6.817,-2.625,-1.870
6.819,-2.480,-1.705
6.822,-2.310,-1.535
6.825,-2.130,-1.355
6.828,-1.925,-1.195
6.831,-1.725,-1.050
6.833,-1.610,-0.910
6.836,-1.520,-0.800
6.839,-1.480,-0.675
6.842,-1.400,-0.565
6.844,-1.315,-0.475
6.847,-1.245,-0.415
6.850,-1.185,-0.325
6.853,-1.135,-0.285
6.856,-1.110,-0.215
6.858,-1.075,-0.175
6.861,-1.060,-0.110
6.864,-1.035,-0.090
6.867,-1.000,-0.070
6.869,-0.945,-0.045
6.872,-0.890,-0.025
6.875,-0.825,0.025
6.878,-0.750,0.065
6.881,-0.685,0.095
6.883,-0.610,0.130
6.886,-0.560,0.150
6.889,-0.495,0.165
6.892,-0.410,0.200
6.894,-0.320,0.220
6.897,-0.260,0.245
6.900,-0.195,0.255
6.903,-0.140,0.255
6.906,-0.110,0.260
6.908,-0.040,0.275
6.911,0.005,0.285
6.914,0.040,0.290
6.917,0.060,0.310
6.919,0.070,0.315
6.922,0.080,0.320
6.925,0.100,0.335
6.928,0.140,0.345
6.931,0.165,0.360
6.933,0.195,0.370
6.936,0.190,0.355
6.939,0.200,0.370
6.942,0.215,0.385
6.944,0.245,0.400
6.947,0.280,0.410
6.950,0.305,0.420
6.953,0.310,0.435
6.956,0.325,0.440
6.958,0.355,0.455
6.961,0.390,0.480
6.964,0.440,0.490
6.967,0.455,0.500
6.969,0.475,0.510
6.972,0.490,0.505
6.975,0.515,0.535
6.978,0.555,0.560
6.981,0.595,0.560
6.983,0.615,0.570
6.986,0.635,0.585
6.989,0.665,0.585
6.992,0.685,0.615
6.994,0.715,0.625
6.997,0.755,0.640
7.000,0.775,0.650
7.003,0.795,0.650
7.006,0.810,0.670
7.008,0.820,0.680
7.011,0.855,0.710
7.014,0.875,0.710
7.017,0.885,0.710
7.019,0.880,0.710
7.022,0.895,0.705
7.025,0.905,0.715
7.028,0.915,0.715
7.031,0.920,0.720
7.033,0.925,0.720
7.036,0.910,0.695
7.039,0.900,0.685
7.042,0.880,0.695
7.044,0.880,0.700
7.047,0.870,0.675
7.050,0.840,0.645
7.053,0.815,0.635
7.056,0.790,0.615
7.058,0.770,0.595
7.061,0.745,0.575
7.064,0.730,0.560
7.067,0.700,0.535
7.069,0.660,0.510
7.072,0.605,0.460
7.075,0.565,0.445
7.078,0.545,0.420
7.081,0.510,0.395
7.083,0.470,0.365
7.086,0.420,0.335
7.089,0.365,0.310
7.092,0.325,0.260
7.094,0.285,0.250
7.097,0.245,0.220
7.100,0.210,0.195
7.103,0.155,0.160
7.106,0.095,0.140
7.108,0.055,0.130
7.111,0.025,0.140
7.114,0.000,0.115
7.117,-0.045,0.130
7.119,-0.090,0.120
7.122,-0.110,0.140
7.125,-0.130,0.160
7.128,-0.150,0.165
7.131,-0.150,0.185
7.133,-0.180,0.160
7.136,-0.190,0.155
7.139,-0.205,0.150
7.142,-0.190,0.160
7.144,-0.160,0.180
7.147,-0.125,0.200
7.150,-0.095,0.175
7.153,-0.080,0.155
7.156,-0.070,0.130
7.158,-0.085,0.100
7.161,-0.075,0.075
7.164,-0.055,0.045
7.167,-0.050,0.040
7.169,-0.070,-0.005
7.172,-0.075,-0.005
7.175,-0.105,-0.025
7.178,-0.150,-0.035
7.181,-0.155,-0.040
7.183,-0.205,-0.060
7.186,-0.225,-0.070
7.189,-0.250,-0.080
7.192,-0.240,-0.070
7.194,-0.245,-0.045
7.197,-0.220,-0.035
7.200,-0.235,-0.035
7.203,-0.270,-0.040
7.206,-0.290,-0.035
7.208,-0.315,-0.030
7.211,-0.315,-0.025
7.214,-0.325,-0.030
7.217,-0.360,-0.035
7.219,-0.395,-0.040
7.222,-0.425,-0.030
7.225,-0.460,-0.005
7.228,-0.480,0.015
7.231,-0.505,0.025
7.233,-0.535,0.010
7.236,-0.560,-0.010
7.239,-0.595,-0.025
7.242,-0.605,-0.010
7.244,-0.615,-0.005
7.247,-0.610,0.010
7.250,-0.625,-0.020
7.253,-0.660,-0.025
7.256,-0.670,-0.035
7.258,-0.690,-0.040
7.261,-0.685,-0.015
7.264,-0.685,-0.010
7.267,-0.695,-0.025
7.269,-0.705,-0.035
7.272,-0.715,-0.040
7.275,-0.710,-0.020
7.278,-0.710,-0.005
7.281,-0.695,-0.015
7.283,-0.695,-0.015
7.286,-0.705,-0.020
7.289,-0.720,-0.025
7.292,-0.720,-0.035
7.294,-0.695,-0.010
7.297,-0.705,-0.010
7.300,-0.715,-0.025
7.303,-0.715,-0.025
7.306,-0.720,-0.040
7.308,-0.725,-0.030
7.311,-0.720,-0.020
7.314,-0.720,-0.020
7.317,-0.725,-0.035
7.319,-0.740,-0.055
7.322,-0.755,-0.055
7.325,-0.755,-0.050
7.328,-0.740,-0.035
7.331,-0.740,-0.030
7.333,-0.740,-0.035
7.336,-0.745,-0.045
7.339,-0.755,-0.060
7.342,-0.755,-0.055
7.344,-0.750,-0.040
7.347,-0.745,-0.040
7.350,-0.755,-0.040
7.353,-0.760,-0.055
7.356,-0.775,-0.060
7.358,-0.770,-0.040
7.361,-0.765,-0.030
7.364,-0.750,-0.035
7.367,-0.745,-0.040
7.369,-0.760,-0.040
7.372,-0.780,-0.065
7.375,-0.765,-0.040
7.378,-0.770,-0.035
7.381,-0.750,-0.030
7.383,-0.755,-0.035
7.386,-0.765,-0.045
7.389,-0.765,-0.050
7.392,-0.765,-0.030
7.394,-0.755,-0.015
7.397,-0.760,-0.025
7.400,-0.765,-0.020
7.403,-0.775,-0.040
7.406,-0.770,-0.035
7.408,-0.770,-0.030
7.411,-0.760,-0.020
7.414,-0.755,-0.030
7.417,-0.745,-0.010
7.419,-0.745,-0.025
7.422,-0.755,-0.025
7.425,-0.745,-0.015
7.428,-0.735,0.005
7.431,-0.725,-0.010
7.433,-0.725,-0.005
7.436,-0.735,-0.020
7.439,-0.750,-0.010
7.442,-0.740,-0.010
7.444,-0.730,0.005
7.447,-0.720,-0.005
7.450,-0.715,0.005
7.453,-0.720,-0.005
7.456,-0.720,-0.020
7.458,-0.720,-0.015
7.461,-0.705,-0.005
7.464,-0.695,-0.005
7.467,-0.695,-0.020
7.469,-0.710,-0.025
7.472,-0.715,-0.030
7.475,-0.715,-0.025
7.478,-0.710,-0.005
7.481,-0.695,-0.010
7.483,-0.685,-0.015
7.486,-0.685,-0.030
7.489,-0.690,-0.030
7.492,-0.680,-0.030
7.494,-0.670,-0.020
7.497,-0.660,-0.035
7.500,-0.660,-0.030
7.503,-0.670,-0.045
7.506,-0.665,-0.055
7.508,-0.645,-0.055
7.511,-0.630,-0.050
7.514,-0.620,-0.060
7.517,-0.625,-0.070
7.519,-0.625,-0.095
7.522,-0.630,-0.120
7.525,-0.605,-0.185
7.528,-0.565,-0.400
7.531,-0.515,-0.770
7.533,-0.420,-0.980
7.536,-0.270,-0.870
7.539,0.090,-0.615
7.542,0.670,-0.455
7.544,1.220,-0.425
7.547,1.490,-0.420
7.550,1.400,-0.410
7.553,1.225,-0.385
7.556,1.105,-0.395
7.558,1.040,-0.390
7.561,1.010,-0.390
7.564,0.930,-0.400
7.567,0.835,-0.420
7.569,0.730,-0.445
7.572,0.615,-0.465
7.575,0.510,-0.485
7.578,0.435,-0.500
7.581,0.345,-0.520
7.583,0.230,-0.530
7.586,0.105,-0.555
7.589,-0.025,-0.580
7.592,-0.155,-0.585
7.594,-0.305,-0.620
7.597,-0.435,-0.660
7.600,-0.595,-0.715
7.603,-0.770,-0.795
7.606,-0.960,-0.870
7.608,-1.140,-0.905
7.611,-1.305,-0.940
7.614,-1.480,-0.970
7.617,-1.650,-1.015
7.619,-1.845,-1.125
7.622,-2.010,-1.235
7.625,-2.165,-1.350
7.628,-2.290,-1.470
7.631,-2.345,-1.565
7.633,-2.390,-1.630
7.636,-2.435,-1.695
7.639,-2.485,-1.765
7.642,-2.520,-1.820
7.644,-2.555,-1.895
7.647,-2.595,-1.960
7.650,-2.670,-2.035
7.653,-2.725,-2.115
7.656,-2.780,-2.220
7.658,-2.835,-2.315
7.661,-2.865,-2.325
7.664,-2.880,-2.245
7.667,-2.885,-2.105
7.669,-2.840,-1.980
7.672,-2.740,-1.845
7.675,-2.600,-1.665
7.678,-2.420,-1.515
7.681,-2.250,-1.375
7.683,-2.075,-1.255
7.686,-1.895,-1.135
7.689,-1.745,-0.985
7.692,-1.640,-0.860
7.694,-1.555,-0.725
7.697,-1.475,-0.620
7.700,-1.390,-0.520
7.703,-1.320,-0.430
7.706,-1.245,-0.350
7.708,-1.170,-0.270
7.711,-1.105,-0.195
7.714,-1.080,-0.160
7.717,-1.060,-0.120
7.719,-1.050,-0.085
7.722,-1.030,-0.050
7.725,-0.980,-0.015
7.728,-0.900,0.035
7.731,-0.830,0.055
7.733,-0.795,0.090
7.736,-0.760,0.120
7.739,-0.720,0.140
7.742,-0.650,0.180
7.744,-0.585,0.215
7.747,-0.510,0.240
7.750,-0.435,0.255
7.753,-0.365,0.270
7.756,-0.305,0.275
7.758,-0.240,0.290
7.761,-0.185,0.300
7.764,-0.115,0.320
7.767,-0.050,0.325
7.769,-0.015,0.325
7.772,0.030,0.335
7.775,0.045,0.340
7.778,0.070,0.365
7.781,0.090,0.380
7.783,0.105,0.385
7.786,0.115,0.380
7.789,0.115,0.385
7.792,0.130,0.400
7.794,0.150,0.425
7.797,0.185,0.420
7.800,0.195,0.430
7.803,0.200,0.415
7.806,0.220,0.430
7.808,0.240,0.445
7.811,0.270,0.465
7.814,0.300,0.465
7.817,0.320,0.485
7.819,0.340,0.485
7.822,0.355,0.500
7.825,0.380,0.510
7.828,0.395,0.530
7.831,0.440,0.565
7.833,0.475,0.550
7.836,0.490,0.570
7.839,0.520,0.575
7.842,0.540,0.600
7.844,0.570,0.630
7.847,0.605,0.665
7.850,0.650,0.700
7.853,0.680,0.725
7.856,0.705,0.755
7.858,0.750,0.800
7.861,0.790,0.825
7.864,0.830,0.840
7.867,0.895,0.865
7.869,0.945,0.860
7.872,0.985,0.870
7.875,1.040,0.890
7.878,1.090,0.905
7.881,1.145,0.920
7.883,1.170,0.900
7.886,1.175,0.880
7.889,1.190,0.855
7.892,1.190,0.825
7.894,1.200,0.815
7.897,1.230,0.800
7.900,1.255,0.775
7.903,1.255,0.745
7.906,1.230,0.705
7.908,1.190,0.685
7.911,1.170,0.695
7.914,1.140,0.665
7.917,1.115,0.635
7.919,1.070,0.610
7.922,1.035,0.595
7.925,1.015,0.585
7.928,0.990,0.575
7.931,0.960,0.555
7.933,0.925,0.520
7.936,0.875,0.480
7.939,0.810,0.455
7.942,0.760,0.425
7.944,0.715,0.415
7.947,0.665,0.380
7.950,0.610,0.355
7.953,0.545,0.320
7.956,0.470,0.300
7.958,0.415,0.295
7.961,0.360,0.280
7.964,0.300,0.245
7.967,0.225,0.205
7.969,0.150,0.180
7.972,0.085,0.135
7.975,0.020,0.125
7.978,-0.035,0.110
7.981,-0.075,0.090
7.983,-0.130,0.065
7.986,-0.195,0.040
7.989,-0.260,0.025
7.992,-0.310,0.025
7.994,-0.340,0.025
7.997,-0.380,0.020
8.000,-0.415,0.005
8.003,-0.460,-0.005
8.006,-0.485,-0.010
8.008,-0.510,-0.015
8.011,-0.530,-0.010
8.014,-0.535,-0.015
8.017,-0.560,-0.025
8.019,-0.565,-0.025
8.022,-0.595,-0.025
8.025,-0.615,-0.020
8.028,-0.630,-0.015
8.031,-0.645,-0.010
8.033,-0.675,-0.025
8.036,-0.680,-0.030
8.039,-0.710,-0.040
8.042,-0.700,-0.030
8.044,-0.690,-0.015
8.047,-0.695,-0.010
8.050,-0.715,-0.020
8.053,-0.715,-0.030
8.056,-0.725,-0.030
8.058,-0.730,-0.030
8.061,-0.740,-0.005
8.064,-0.735,-0.010
8.067,-0.740,-0.005
8.069,-0.740,-0.025
8.072,-0.755,-0.030
8.075,-0.750,-0.005
8.078,-0.755,0.010
8.081,-0.740,-0.010
8.083,-0.760,0.005
8.086,-0.785,-0.005
8.089,-0.800,0.000
8.092,-0.795,0.000
8.094,-0.780,0.020
8.097,-0.775,0.020
8.100,-0.765,0.015
8.103,-0.770,0.010
8.106,-0.780,0.010
8.108,-0.760,0.030
8.111,-0.755,0.035
8.114,-0.760,0.030
8.117,-0.765,0.035
8.119,-0.780,0.030
8.122,-0.795,0.025
8.125,-0.790,0.040
8.128,-0.785,0.055
8.131,-0.775,0.055
8.133,-0.760,0.045
8.136,-0.780,0.025
8.139,-0.780,0.030
8.142,-0.770,0.050
8.144,-0.775,0.055
8.147,-0.750,0.050
8.150,-0.745,0.050
8.153,-0.745,0.035
8.156,-0.755,0.045
8.158,-0.755,0.040
8.161,-0.745,0.045
8.164,-0.740,0.055
8.167,-0.740,0.055
8.169,-0.740,0.050
8.172,-0.740,0.040
8.175,-0.735,0.045
8.178,-0.735,0.030
8.181,-0.740,0.040
8.183,-0.750,0.040
8.186,-0.765,0.035
8.189,-0.770,0.030
8.192,-0.760,0.040
8.194,-0.740,0.055
8.197,-0.740,0.050
8.200,-0.725,0.040
8.203,-0.745,0.030
8.206,-0.745,0.035
8.208,-0.745,0.045
8.211,-0.730,0.055
8.214,-0.720,0.045
8.217,-0.705,0.035
8.219,-0.730,0.025
8.222,-0.735,0.015
8.225,-0.740,0.030
8.228,-0.725,0.040
8.231,-0.725,0.045
8.233,-0.705,0.050
8.236,-0.700,0.020
8.239,-0.710,0.015
8.242,-0.715,0.020
8.244,-0.695,0.030
8.247,-0.695,0.030
8.250,-0.690,0.020
8.253,-0.710,0.025
8.256,-0.715,0.015
8.258,-0.710,0.015
8.261,-0.700,0.030
8.264,-0.695,0.030
8.267,-0.690,0.005
8.269,-0.685,0.000
8.272,-0.685,0.000
8.275,-0.685,0.005
8.278,-0.680,0.015
8.281,-0.670,0.005
8.283,-0.680,0.005
8.286,-0.685,-0.015
8.289,-0.680,-0.015
8.292,-0.685,0.000
8.294,-0.690,0.005
8.297,-0.690,0.010
8.300,-0.675,0.000
8.303,-0.670,-0.010
8.306,-0.665,0.000
8.308,-0.675,0.005
8.311,-0.670,0.005
8.314,-0.635,0.005
8.317,-0.640,-0.005
8.319,-0.655,-0.020
8.322,-0.665,-0.020
8.325,-0.645,0.000
8.328,-0.630,0.010
8.331,-0.630,-0.015
8.333,-0.620,-0.015
8.336,-0.630,-0.030
8.339,-0.640,-0.025
8.342,-0.655,-0.015
8.344,-0.650,-0.005
8.347,-0.640,-0.010
8.350,-0.630,-0.030
8.353,-0.630,-0.040
8.356,-0.645,-0.040
8.358,-0.640,-0.040
8.361,-0.630,-0.030
8.364,-0.615,-0.045
8.367,-0.610,-0.045
8.369,-0.610,-0.065
8.372,-0.635,-0.060
8.375,-0.620,-0.060
8.378,-0.600,-0.065
8.381,-0.590,-0.065
8.383,-0.585,-0.085
8.386,-0.580,-0.110
8.389,-0.580,-0.145
8.392,-0.555,-0.240
8.394,-0.525,-0.500
8.397,-0.475,-0.890
8.400,-0.410,-1.040
8.403,-0.270,-0.875
8.406,0.040,-0.625
8.408,0.590,-0.465
8.411,1.145,-0.440
8.414,1.415,-0.430
8.417,1.360,-0.420
8.419,1.180,-0.405
8.422,1.045,-0.395
8.425,0.995,-0.395
8.428,0.940,-0.390
8.431,0.860,-0.405
8.433,0.770,-0.440
8.436,0.665,-0.460
8.439,0.555,-0.490
8.442,0.450,-0.495
8.444,0.340,-0.520
8.447,0.235,-0.525
8.450,0.120,-0.550
8.453,0.015,-0.580
8.456,-0.125,-0.605
8.458,-0.280,-0.610
8.461,-0.425,-0.615
8.464,-0.590,-0.645
8.467,-0.785,-0.690
8.469,-0.990,-0.760
8.472,-1.205,-0.815
8.475,-1.420,-0.860
8.478,-1.620,-0.885
8.481,-1.825,-0.935
8.483,-2.050,-0.990
8.486,-2.225,-1.045
8.489,-2.385,-1.130
8.492,-2.505,-1.220
8.494,-2.600,-1.345
8.497,-2.670,-1.455
8.500,-2.720,-1.545
8.503,-2.755,-1.605
8.506,-2.795,-1.675
8.508,-2.805,-1.740
8.511,-2.830,-1.810
8.514,-2.885,-1.900
8.517,-2.940,-1.980
8.519,-3.005,-2.085
8.522,-3.060,-2.180
8.525,-3.075,-2.255
8.528,-3.095,-2.260
8.531,-3.105,-2.175
8.533,-3.085,-2.065
8.536,-3.015,-1.915
8.539,-2.875,-1.760
8.542,-2.665,-1.580
8.544,-2.440,-1.420
8.547,-2.225,-1.300
8.550,-2.015,-1.165
8.553,-1.850,-1.060
8.556,-1.725,-0.920
8.558,-1.630,-0.810
8.561,-1.550,-0.680
8.564,-1.465,-0.585
8.567,-1.380,-0.505
8.569,-1.325,-0.460
8.572,-1.260,-0.385
8.575,-1.170,-0.300
8.578,-1.105,-0.225
8.581,-1.055,-0.165
8.583,-1.025,-0.090
8.586,-0.980,-0.050
8.589,-0.940,0.000
8.592,-0.875,0.045
8.594,-0.785,0.090
8.597,-0.685,0.140
8.600,-0.605,0.165
8.603,-0.535,0.185
8.606,-0.470,0.220
8.608,-0.380,0.275
8.611,-0.280,0.320
8.614,-0.200,0.350
8.617,-0.095,0.370
8.619,-0.015,0.365
8.622,0.065,0.350
8.625,0.155,0.340
8.628,0.225,0.315
8.631,0.300,0.295
8.633,0.385,0.275
8.636,0.460,0.255
8.639,0.530,0.245
8.642,0.565,0.245
8.644,0.565,0.240
8.647,0.575,0.230
8.650,0.545,0.225
8.653,0.545,0.215
8.656,0.530,0.210
8.658,0.555,0.230
8.661,0.590,0.245
8.664,0.620,0.250
8.667,0.650,0.260
8.669,0.655,0.270
8.672,0.640,0.250
8.675,0.650,0.285
8.678,0.665,0.300
8.681,0.695,0.305
8.683,0.680,0.315
8.686,0.670,0.320
8.689,0.675,0.330
8.692,0.680,0.355
8.694,0.705,0.385
8.697,0.720,0.405
8.700,0.730,0.415
8.703,0.725,0.410
8.706,0.725,0.415
8.708,0.755,0.425
8.711,0.780,0.440
8.714,0.795,0.445
8.717,0.810,0.445
8.719,0.815,0.445
8.722,0.815,0.455
8.725,0.810,0.475
8.728,0.855,0.490
8.731,0.875,0.510
8.733,0.915,0.500
8.736,0.935,0.505
8.739,0.940,0.510
8.742,0.960,0.525
8.744,0.985,0.550
8.747,1.010,0.545
8.750,1.030,0.555
8.753,1.030,0.545
8.756,1.025,0.540
8.758,1.045,0.575
8.761,1.055,0.580
8.764,1.060,0.580
8.767,1.060,0.575
8.769,1.035,0.560
8.772,1.015,0.560
8.775,1.015,0.560
8.778,1.005,0.570
8.781,0.990,0.555
8.783,0.955,0.535
8.786,0.920,0.520
8.789,0.885,0.510
8.792,0.870,0.500
8.794,0.865,0.495
8.797,0.845,0.470
8.800,0.815,0.440
8.803,0.770,0.410
8.806,0.715,0.385
8.808,0.670,0.370
8.811,0.645,0.365
8.814,0.600,0.335
8.817,0.555,0.310
8.819,0.495,0.265
8.822,0.445,0.235
8.825,0.415,0.220
8.828,0.370,0.210
8.831,0.330,0.180
8.833,0.285,0.150
8.836,0.225,0.120
8.839,0.160,0.095
8.842,0.125,0.085
8.844,0.090,0.060
8.847,0.040,0.035
8.850,-0.010,0.020
8.853,-0.060,0.000
8.856,-0.115,-0.025
8.858,-0.155,-0.030
8.861,-0.195,-0.025
8.864,-0.215,-0.035
8.867,-0.280,-0.040
8.869,-0.305,-0.055
8.872,-0.355,-0.065
8.875,-0.360,-0.060
8.878,-0.405,-0.060
8.881,-0.440,-0.065
8.883,-0.490,-0.065
8.886,-0.525,-0.075
8.889,-0.560,-0.095
8.892,-0.570,-0.070
8.894,-0.555,-0.070
8.897,-0.555,-0.065
8.900,-0.575,-0.065
8.903,-0.615,-0.075
8.906,-0.625,-0.075
8.908,-0.630,-0.070
8.911,-0.630,-0.050
8.914,-0.635,-0.050
8.917,-0.650,-0.050
8.919,-0.660,-0.055
8.922,-0.665,-0.050
8.925,-0.670,-0.035
8.928,-0.665,-0.030
8.931,-0.660,-0.040
8.933,-0.680,-0.030
8.936,-0.700,-0.045
8.939,-0.710,-0.025
8.942,-0.710,-0.020
8.944,-0.690,-0.015
8.947,-0.685,-0.005
8.950,-0.680,-0.010
8.953,-0.690,-0.015
8.956,-0.690,-0.005
8.958,-0.680,-0.005
8.961,-0.665,0.005
8.964,-0.660,-0.005
8.967,-0.670,0.000
8.969,-0.680,-0.010
8.972,-0.710,-0.005
8.975,-0.720,0.005
8.978,-0.705,0.020
8.981,-0.700,0.020
8.983,-0.710,0.025
8.986,-0.710,0.010
8.989,-0.710,0.005
8.992,-0.685,0.020
8.994,-0.670,0.020
8.997,-0.665,0.025
9.000,-0.660,0.015
9.003,-0.675,0.010
9.006,-0.690,0.015
9.008,-0.675,0.010
9.011,-0.655,0.020
9.014,-0.645,0.020
9.017,-0.635,0.020
9.019,-0.650,0.005
9.022,-0.655,0.005
9.025,-0.650,0.005
9.028,-0.640,0.020
9.031,-0.615,0.015
9.033,-0.615,0.000
9.036,-0.610,-0.005
9.039,-0.630,-0.020
9.042,-0.640,-0.005
9.044,-0.640,0.000
9.047,-0.635,-0.010
9.050,-0.625,0.000
9.053,-0.625,-0.020
9.056,-0.625,-0.025
9.058,-0.630,-0.010
9.061,-0.625,-0.015
9.064,-0.615,-0.020
9.067,-0.635,-0.020
9.069,-0.640,-0.030
9.072,-0.660,-0.035
9.075,-0.650,-0.025
9.078,-0.625,-0.010
9.081,-0.625,-0.030
9.083,-0.625,-0.030
9.086,-0.640,-0.035
9.089,-0.650,-0.035
9.092,-0.650,-0.035
9.094,-0.635,-0.030
9.097,-0.620,-0.025
9.100,-0.625,-0.035
9.103,-0.640,-0.045
9.106,-0.650,-0.050
9.108,-0.640,-0.035
9.111,-0.630,-0.030
9.114,-0.630,-0.030
9.117,-0.640,-0.035
9.119,-0.645,-0.040
9.122,-0.640,-0.050
9.125,-0.640,-0.045
9.128,-0.620,-0.025
9.131,-0.600,-0.030
9.133,-0.605,-0.050
9.136,-0.610,-0.040
9.139,-0.620,-0.040
9.142,-0.625,-0.040
9.144,-0.620,-0.025
9.147,-0.620,-0.030
9.150,-0.620,-0.025
9.153,-0.615,-0.045
9.156,-0.630,-0.050
9.158,-0.635,-0.050
9.161,-0.610,-0.035
9.164,-0.595,-0.035
9.167,-0.585,-0.035
9.169,-0.590,-0.050
9.172,-0.595,-0.050
9.175,-0.600,-0.035
9.178,-0.610,-0.025
9.181,-0.615,-0.030
9.183,-0.610,-0.030
9.186,-0.605,-0.040
9.189,-0.600,-0.055
9.192,-0.590,-0.050
9.194,-0.595,-0.050
9.197,-0.595,-0.045
9.200,-0.605,-0.035
9.203,-0.620,-0.050
9.206,-0.610,-0.055
9.208,-0.595,-0.045
9.211,-0.580,-0.030
9.214,-0.575,-0.050
9.217,-0.570,-0.050
9.219,-0.580,-0.070
9.222,-0.590,-0.070
9.225,-0.585,-0.055
9.228,-0.575,-0.040
9.231,-0.560,-0.055
9.233,-0.570,-0.045
9.236,-0.580,-0.070
9.239,-0.585,-0.075
9.242,-0.580,-0.075
9.244,-0.575,-0.065
9.247,-0.565,-0.065
9.250,-0.560,-0.070
9.253,-0.565,-0.090
9.256,-0.565,-0.105
9.258,-0.530,-0.110
9.261,-0.515,-0.140
9.264,-0.490,-0.210
9.267,-0.465,-0.455
9.269,-0.445,-0.825
9.272,-0.370,-1.005
9.275,-0.200,-0.830
9.278,0.140,-0.565
9.281,0.690,-0.420
9.283,1.235,-0.395
9.286,1.490,-0.390
9.289,1.390,-0.390
9.292,1.205,-0.360
9.294,1.070,-0.345
9.297,1.030,-0.355
9.300,0.975,-0.370
9.303,0.895,-0.400
9.306,0.790,-0.405
9.308,0.685,-0.410
9.311,0.590,-0.425
9.314,0.505,-0.435
9.317,0.420,-0.445
9.319,0.315,-0.445
9.322,0.190,-0.435
9.325,0.060,-0.415
9.328,-0.095,-0.405
9.331,-0.230,-0.410
9.333,-0.385,-0.440
9.336,-0.540,-0.500
9.339,-0.710,-0.560
9.342,-0.900,-0.590
9.344,-1.075,-0.605
9.347,-1.245,-0.620
9.350,-1.415,-0.670
9.353,-1.585,-0.760
9.356,-1.750,-0.885
9.358,-1.930,-1.055
9.361,-2.055,-1.215
9.364,-2.155,-1.335
9.367,-2.190,-1.425
9.369,-2.220,-1.505
9.372,-2.245,-1.585
9.375,-2.285,-1.670
9.378,-2.325,-1.735
9.381,-2.420,-1.835
9.383,-2.525,-1.945
9.386,-2.615,-2.060
9.389,-2.695,-2.165
9.392,-2.755,-2.255
9.394,-2.815,-2.255
9.397,-2.865,-2.165
9.400,-2.840,-2.045
9.403,-2.770,-1.930
9.406,-2.615,-1.770
9.408,-2.405,-1.595
9.411,-2.165,-1.450
9.414,-1.955,-1.320
9.417,-1.780,-1.190
9.419,-1.625,-1.080
9.422,-1.550,-0.965
9.425,-1.475,-0.840
9.428,-1.420,-0.705
9.431,-1.355,-0.610
9.433,-1.285,-0.550
9.436,-1.250,-0.485
9.439,-1.235,-0.415
9.442,-1.195,-0.345
9.444,-1.165,-0.270
9.447,-1.155,-0.225
9.450,-1.140,-0.195
9.453,-1.135,-0.175
9.456,-1.110,-0.155
9.458,-1.065,-0.105
9.461,-1.010,-0.065
9.464,-0.970,-0.030
9.467,-0.930,-0.015
9.469,-0.885,0.010
9.472,-0.805,0.055
9.475,-0.700,0.085
9.478,-0.620,0.125
9.481,-0.540,0.135
9.483,-0.480,0.155
9.486,-0.425,0.155
9.489,-0.390,0.190
9.492,-0.340,0.205
9.494,-0.295,0.230
9.497,-0.230,0.235
9.500,-0.175,0.230
9.503,-0.125,0.235
9.506,-0.105,0.235
9.508,-0.085,0.265
9.511,-0.070,0.285
9.514,-0.045,0.295
9.517,-0.030,0.290
9.519,-0.010,0.290
9.522,0.000,0.295
9.525,0.020,0.320
9.528,0.045,0.335
9.531,0.085,0.345
9.533,0.105,0.360
9.536,0.100,0.370
9.539,0.110,0.355
9.542,0.110,0.385
9.544,0.130,0.400
9.547,0.155,0.415
9.550,0.175,0.420
9.553,0.190,0.435
9.556,0.210,0.440
9.558,0.240,0.475
9.561,0.270,0.485
9.564,0.300,0.500
9.567,0.310,0.510
9.569,0.330,0.510
9.572,0.345,0.515
9.575,0.380,0.545
9.578,0.420,0.575
9.581,0.450,0.590
9.583,0.475,0.595
9.586,0.490,0.605
9.589,0.520,0.620
9.592,0.555,0.645
9.594,0.600,0.660
9.597,0.645,0.675
9.600,0.670,0.695
9.603,0.680,0.690
9.606,0.700,0.695
9.608,0.725,0.715
9.611,0.740,0.735
9.614,0.780,0.740
9.617,0.780,0.745
9.619,0.795,0.740
9.622,0.790,0.745
9.625,0.800,0.745
9.628,0.825,0.760
9.631,0.835,0.755
9.633,0.840,0.755
9.636,0.840,0.740
9.639,0.830,0.730
9.642,0.850,0.730
9.644,0.840,0.720
9.647,0.830,0.715
9.650,0.820,0.690
9.653,0.795,0.665
9.656,0.770,0.645
9.658,0.745,0.640
9.661,0.750,0.635
9.664,0.730,0.605
9.667,0.710,0.570
9.669,0.675,0.545
9.672,0.645,0.520
9.675,0.605,0.490
9.678,0.580,0.470
9.681,0.535,0.445
9.683,0.475,0.410
9.686,0.455,0.375
9.689,0.405,0.345
9.692,0.355,0.325
9.694,0.315,0.315
9.697,0.295,0.285
9.700,0.255,0.250
9.703,0.215,0.220
9.706,0.155,0.190
9.708,0.120,0.175
9.711,0.075,0.165
9.714,0.045,0.145
9.717,-0.005,0.125
9.719,-0.035,0.100
9.722,-0.110,0.075
9.725,-0.145,0.080
9.728,-0.160,0.065
9.731,-0.190,0.065
9.733,-0.225,0.040
9.736,-0.275,0.035
9.739,-0.305,0.025
9.742,-0.325,0.015
9.744,-0.335,0.035
9.747,-0.365,0.025
9.750,-0.370,0.025
9.753,-0.400,0.015
9.756,-0.430,0.020
9.758,-0.450,0.030
9.761,-0.445,0.015
9.764,-0.455,0.015
9.767,-0.470,0.015
9.769,-0.490,0.005
9.772,-0.510,0.000
9.775,-0.515,0.010
9.778,-0.520,0.030
9.781,-0.520,0.020
9.783,-0.520,0.020
9.786,-0.515,0.010
9.789,-0.530,0.010
9.792,-0.545,0.025
9.794,-0.530,0.035
9.797,-0.535,0.020
9.800,-0.535,0.020
9.803,-0.540,0.015
9.806,-0.565,0.020
9.808,-0.565,0.025
9.811,-0.560,0.030
9.814,-0.570,0.030
9.817,-0.570,0.035
9.819,-0.585,0.020
9.822,-0.595,0.030
9.825,-0.585,0.025
9.828,-0.565,0.055
9.831,-0.555,0.060
9.833,-0.555,0.055
9.836,-0.585,0.045
9.839,-0.585,0.030
9.842,-0.585,0.055
9.844,-0.580,0.050
9.847,-0.580,0.050
9.850,-0.575,0.060
9.853,-0.585,0.060
9.856,-0.585,0.045
9.858,-0.570,0.055
9.861,-0.550,0.060
9.864,-0.535,0.060
9.867,-0.530,0.050
9.869,-0.540,0.045
9.872,-0.560,0.050
9.875,-0.560,0.055
9.878,-0.540,0.070
9.881,-0.520,0.070
9.883,-0.525,0.055
9.886,-0.530,0.050
9.889,-0.550,0.060
9.892,-0.545,0.050
9.894,-0.535,0.065
9.897,-0.530,0.055
9.900,-0.530,0.065
9.903,-0.530,0.040
9.906,-0.530,0.030
9.908,-0.520,0.060
9.911,-0.525,0.060
9.914,-0.520,0.060
9.917,-0.525,0.040
9.919,-0.530,0.040
9.922,-0.530,0.030
9.925,-0.530,0.040
9.928,-0.515,0.050
9.931,-0.500,0.050
9.933,-0.510,0.045
9.936,-0.525,0.025
9.939,-0.555,0.015
9.942,-0.550,0.030
9.944,-0.540,0.050
9.947,-0.530,0.035
9.950,-0.535,0.035
9.953,-0.555,0.020
9.956,-0.555,0.015
9.958,-0.560,0.025
9.961,-0.560,0.035
9.964,-0.530,0.030
9.967,-0.530,0.025
9.969,-0.545,0.015
9.972,-0.570,0.025
9.975,-0.555,0.025
9.978,-0.545,0.035
9.981,-0.550,0.025
9.983,-0.540,0.015
9.986,-0.560,0.010
9.989,-0.580,0.015
9.992,-0.580,0.010
9.994,-0.565,0.020
9.997,-0.555,0.020
10.000,-0.550,0.015
10.003,-0.560,0.005
10.006,-0.575,0.000
10.008,-0.575,0.015
10.011,-0.570,0.025
10.014,-0.565,0.020
10.017,-0.545,0.015
10.019,-0.570,0.015
10.022,-0.575,0.015
10.025,-0.580,0.020
10.028,-0.560,0.020
10.031,-0.550,0.015
10.033,-0.550,0.015
10.036,-0.555,0.010
10.039,-0.570,0.005
10.042,-0.570,0.015
10.044,-0.555,0.030
10.047,-0.540,0.025
10.050,-0.545,0.030
10.053,-0.555,0.035
10.056,-0.545,0.050
10.058,-0.535,0.090
10.061,-0.520,0.135
10.064,-0.515,0.145
10.067,-0.535,0.165
10.069,-0.520,0.165
10.072,-0.510,0.185
10.075,-0.480,0.205
10.078,-0.440,0.225
10.081,-0.415,0.240
10.083,-0.385,0.255
10.086,-0.335,0.270
10.089,-0.310,0.260
10.092,-0.275,0.240
10.094,-0.230,0.205
10.097,-0.205,0.150
10.100,-0.210,0.105
10.103,-0.225,0.060
10.106,-0.220,0.035
10.108,-0.170,0.030
10.111,-0.125,0.030
10.114,-0.115,-0.010
10.117,-0.140,-0.025
10.119,-0.170,-0.035
10.122,-0.210,-0.050
10.125,-0.220,-0.070
10.128,-0.225,-0.080
10.131,-0.225,-0.090
10.133,-0.210,-0.120
10.136,-0.200,-0.265
10.139,-0.185,-0.565
10.142,-0.150,-0.875
10.144,-0.100,-0.860
10.147,0.070,-0.620
10.150,0.435,-0.420
10.153,0.955,-0.365
10.156,1.390,-0.375
10.158,1.510,-0.340
10.161,1.400,-0.325
10.164,1.245,-0.295
10.167,1.140,-0.285
10.169,1.070,-0.305
10.172,0.985,-0.325
10.175,0.900,-0.340
10.178,0.805,-0.365
10.181,0.700,-0.395
10.183,0.575,-0.410
10.186,0.460,-0.450
10.189,0.340,-0.465
10.192,0.235,-0.480
10.194,0.135,-0.500
10.197,0.030,-0.520
10.200,-0.100,-0.545
10.203,-0.270,-0.575
10.206,-0.450,-0.610
10.208,-0.615,-0.640
10.211,-0.805,-0.675
10.214,-0.975,-0.750
10.217,-1.160,-0.810
10.219,-1.360,-0.865
10.222,-1.575,-0.900
10.225,-1.740,-0.925
10.228,-1.900,-0.980
10.231,-2.050,-1.065
10.233,-2.205,-1.165
10.236,-2.300,-1.315
10.239,-2.385,-1.440
10.242,-2.445,-1.545
10.244,-2.485,-1.620
10.247,-2.505,-1.680
10.250,-2.520,-1.755
10.253,-2.545,-1.845
10.256,-2.595,-1.920
10.258,-2.650,-1.980
10.261,-2.710,-2.025
10.264,-2.750,-2.110
10.267,-2.805,-2.185
10.269,-2.885,-2.250
10.272,-2.950,-2.290
10.275,-3.000,-2.250
10.278,-3.015,-2.130
10.281,-2.970,-1.985
10.283,-2.865,-1.855
10.286,-2.690,-1.715
10.289,-2.495,-1.570
10.292,-2.265,-1.405
10.294,-2.060,-1.275
10.297,-1.925,-1.155
10.300,-1.790,-1.040
10.303,-1.660,-0.945
10.306,-1.580,-0.830
10.308,-1.505,-0.710
10.311,-1.435,-0.625
10.314,-1.405,-0.565
10.317,-1.365,-0.485
10.319,-1.330,-0.415
10.322,-1.310,-0.355
10.325,-1.275,-0.295
10.328,-1.250,-0.245
10.331,-1.240,-0.185
10.333,-1.215,-0.140
10.336,-1.190,-0.090
10.339,-1.130,-0.060
10.342,-1.060,-0.010
10.344,-0.975,0.040
10.347,-0.905,0.065
10.350,-0.850,0.110
10.353,-0.815,0.145
10.356,-0.755,0.160
10.358,-0.695,0.205
10.361,-0.615,0.245
10.364,-0.530,0.265
10.367,-0.450,0.290
10.369,-0.385,0.300
10.372,-0.330,0.325
10.375,-0.260,0.325
10.378,-0.195,0.335
10.381,-0.125,0.350
10.383,-0.080,0.340
10.386,-0.045,0.365
10.389,-0.035,0.370
10.392,-0.020,0.380
10.394,0.015,0.410
10.397,0.035,0.405
10.400,0.065,0.405
10.403,0.080,0.415
10.406,0.080,0.425
10.408,0.110,0.445
10.411,0.145,0.460
10.414,0.175,0.475
10.417,0.205,0.475
10.419,0.225,0.485
10.422,0.230,0.500
10.425,0.265,0.515
10.428,0.300,0.540
10.431,0.350,0.545
10.433,0.375,0.555
10.436,0.405,0.550
10.439,0.410,0.560
10.442,0.435,0.575
10.444,0.470,0.590
10.447,0.510,0.605
10.450,0.535,0.615
10.453,0.560,0.620
10.456,0.575,0.625
10.458,0.610,0.645
10.461,0.635,0.665
10.464,0.695,0.680
10.467,0.735,0.685
10.469,0.765,0.690
10.472,0.780,0.700
10.475,0.790,0.720
10.478,0.840,0.740
10.481,0.865,0.745
10.483,0.900,0.760
10.486,0.935,0.750
10.489,0.945,0.765
10.492,0.950,0.770
10.494,0.975,0.790
10.497,0.995,0.780
10.500,1.010,0.780
10.503,1.010,0.770
10.506,1.025,0.775
10.508,1.035,0.795
10.511,1.040,0.795
10.514,1.030,0.785
10.517,1.030,0.790
10.519,1.010,0.760
10.522,0.990,0.750
10.525,0.985,0.760
10.528,0.985,0.745
10.531,0.970,0.730
10.533,0.945,0.710
10.536,0.900,0.680
10.539,0.870,0.660
10.542,0.840,0.650
10.544,0.810,0.615
10.547,0.765,0.610
10.550,0.740,0.565
10.553,0.685,0.535
10.556,0.650,0.500
10.558,0.630,0.480
10.561,0.610,0.460
10.564,0.565,0.420
10.567,0.505,0.390
10.569,0.430,0.360
10.572,0.370,0.320
10.575,0.330,0.305
10.578,0.315,0.290
10.581,0.295,0.270
10.583,0.240,0.245
10.586,0.170,0.220
10.589,0.125,0.200
10.592,0.070,0.170
10.594,0.040,0.155
10.597,0.010,0.135
10.600,-0.030,0.120
10.603,-0.075,0.105
10.606,-0.120,0.100
10.608,-0.160,0.090
10.611,-0.190,0.090
10.614,-0.215,0.090
10.617,-0.235,0.090
10.619,-0.275,0.080
10.622,-0.315,0.070
10.625,-0.325,0.070
10.628,-0.350,0.075
10.631,-0.370,0.050
10.633,-0.390,0.050
10.636,-0.415,0.035
10.639,-0.435,0.035
10.642,-0.450,0.050
10.644,-0.465,0.060
10.647,-0.490,0.055
10.650,-0.500,0.060
10.653,-0.515,0.035
10.656,-0.515,0.035
10.658,-0.500,0.045
10.661,-0.500,0.055
10.664,-0.510,0.055
10.667,-0.515,0.065
10.669,-0.550,0.045
10.672,-0.545,0.045
10.675,-0.555,0.055
10.678,-0.540,0.070
10.681,-0.520,0.065
10.683,-0.505,0.065
10.686,-0.525,0.055
10.689,-0.535,0.050
10.692,-0.555,0.050
10.694,-0.560,0.070
10.697,-0.555,0.080
10.700,-0.545,0.065
10.703,-0.560,0.055
10.706,-0.580,0.055
10.708,-0.570,0.070
10.711,-0.565,0.065
10.714,-0.555,0.075
10.717,-0.575,0.070
10.719,-0.580,0.060
10.722,-0.590,0.070
10.725,-0.570,0.080
10.728,-0.565,0.085
10.731,-0.570,0.085
10.733,-0.580,0.095
10.736,-0.590,0.090
10.739,-0.605,0.085
10.742,-0.620,0.085
10.744,-0.605,0.095
10.747,-0.585,0.105
10.750,-0.575,0.095
10.753,-0.590,0.090
10.756,-0.590,0.085
10.758,-0.605,0.095
10.761,-0.590,0.100
10.764,-0.560,0.100
10.767,-0.560,0.090
10.769,-0.575,0.085
10.772,-0.580,0.095
10.775,-0.565,0.095
10.778,-0.570,0.105
10.781,-0.550,0.105
10.783,-0.555,0.105
10.786,-0.555,0.095
10.789,-0.560,0.115
10.792,-0.560,0.155
10.794,-0.535,0.190
10.797,-0.545,0.210
10.800,-0.520,0.225
10.803,-0.530,0.230
10.806,-0.540,0.250
10.808,-0.525,0.250
10.811,-0.500,0.280
10.814,-0.450,0.290
10.817,-0.445,0.300
10.819,-0.395,0.315
10.822,-0.355,0.320
10.825,-0.305,0.335
10.828,-0.280,0.310
10.831,-0.240,0.255
10.833,-0.240,0.230
10.836,-0.250,0.175
10.839,-0.260,0.140
10.842,-0.240,0.135
10.844,-0.210,0.125
10.847,-0.210,0.095
10.850,-0.220,0.075
10.853,-0.260,0.055
10.856,-0.300,0.050
10.858,-0.315,0.055
10.861,-0.325,0.045
10.864,-0.335,0.040
10.867,-0.340,0.035
10.869,-0.355,0.030
10.872,-0.365,0.040
10.875,-0.370,0.050
10.878,-0.375,0.055
10.881,-0.385,0.050
10.883,-0.390,0.045
10.886,-0.385,0.025
10.889,-0.410,0.025
10.892,-0.445,0.050
10.894,-0.480,0.060
10.897,-0.515,0.050
10.900,-0.555,0.070
10.903,-0.585,0.060
10.906,-0.600,0.060
10.908,-0.600,0.055
10.911,-0.625,0.065
10.914,-0.620,0.045
10.917,-0.655,0.035
10.919,-0.670,0.030
10.922,-0.715,0.015
10.925,-0.725,0.030
10.928,-0.725,0.020
10.931,-0.730,0.025
10.933,-0.735,0.025
10.936,-0.750,0.010
10.939,-0.775,0.015
10.942,-0.795,0.010
10.944,-0.790,0.035
10.947,-0.790,0.035
10.950,-0.795,0.030
10.953,-0.815,0.020
10.956,-0.815,0.025
10.958,-0.815,0.030
10.961,-0.810,0.025
10.964,-0.810,0.030
10.967,-0.810,0.020
10.969,-0.830,0.010
10.972,-0.825,0.000
10.975,-0.820,0.005
10.978,-0.805,0.015
10.981,-0.790,0.020
10.983,-0.810,0.010
10.986,-0.805,0.000
10.989,-0.805,0.000
10.992,-0.790,-0.005
10.994,-0.765,-0.015
10.997,-0.730,-0.025
11.000,-0.710,-0.120
11.003,-0.690,-0.380
11.006,-0.640,-0.750
11.008,-0.510,-0.835
11.011,-0.230,-0.590
11.014,0.295,-0.360
11.017,0.920,-0.270
11.019,1.345,-0.270
11.022,1.355,-0.270
11.025,1.150,-0.250
11.028,0.950,-0.225
11.031,0.870,-0.240
11.033,0.810,-0.250
11.036,0.730,-0.280
11.039,0.625,-0.315
11.042,0.495,-0.310
11.044,0.415,-0.320
11.047,0.345,-0.335
11.050,0.265,-0.365
11.053,0.145,-0.390
11.056,0.015,-0.410
11.058,-0.105,-0.415
11.061,-0.245,-0.435
11.064,-0.355,-0.480
11.067,-0.500,-0.515
11.069,-0.640,-0.570
11.072,-0.810,-0.650
11.075,-0.965,-0.700
11.078,-1.120,-0.740
11.081,-1.265,-0.780
11.083,-1.440,-0.830
11.086,-1.595,-0.900
11.089,-1.760,-1.005
11.092,-1.910,-1.155
11.094,-2.070,-1.280
11.097,-2.195,-1.415
11.100,-2.290,-1.515
11.103,-2.340,-1.575
11.106,-2.380,-1.645
11.108,-2.405,-1.720
11.111,-2.425,-1.790
11.114,-2.485,-1.855
11.117,-2.590,-1.945
11.119,-2.690,-2.040
11.122,-2.780,-2.130
11.125,-2.830,-2.155
11.128,-2.880,-2.105
11.131,-2.900,-1.995
11.133,-2.920,-1.850
11.136,-2.855,-1.700
11.139,-2.745,-1.545
11.142,-2.590,-1.365
11.144,-2.430,-1.195
11.147,-2.235,-1.055
11.150,-2.055,-0.900
11.153,-1.900,-0.770
11.156,-1.815,-0.635
11.158,-1.750,-0.495
11.161,-1.670,-0.390
11.164,-1.590,-0.300
11.167,-1.520,-0.220
11.169,-1.475,-0.160
11.172,-1.450,-0.090
11.175,-1.405,-0.020
11.178,-1.375,0.025
11.181,-1.355,0.085
11.183,-1.320,0.120
11.186,-1.275,0.160
11.189,-1.210,0.195
11.192,-1.145,0.235
11.194,-1.060,0.270
11.197,-0.985,0.315
11.200,-0.925,0.355
11.203,-0.865,0.375
11.206,-0.815,0.405
11.208,-0.745,0.445
11.211,-0.665,0.465
11.214,-0.570,0.480
11.217,-0.495,0.480
11.219,-0.450,0.485
11.222,-0.405,0.505
11.225,-0.340,0.525
11.228,-0.275,0.555
11.231,-0.235,0.555
11.233,-0.205,0.555
11.236,-0.205,0.560
11.239,-0.195,0.565
11.242,-0.160,0.585
11.244,-0.130,0.615
11.247,-0.110,0.620
11.250,-0.105,0.625
11.253,-0.090,0.625
11.256,-0.085,0.640
11.258,-0.050,0.660
11.261,-0.020,0.675
11.264,0.020,0.680
11.267,0.050,0.695
11.269,0.085,0.685
11.272,0.080,0.710
11.275,0.115,0.735
11.278,0.130,0.760
11.281,0.170,0.775
11.283,0.210,0.775
11.286,0.240,0.790
11.289,0.250,0.800
11.292,0.270,0.825
11.294,0.295,0.845
11.297,0.330,0.850
11.300,0.365,0.865
11.303,0.390,0.865
11.306,0.430,0.885
11.308,0.465,0.915
11.311,0.505,0.940
11.314,0.530,0.940
11.317,0.570,0.955
11.319,0.595,0.960
11.322,0.625,0.960
11.325,0.660,0.990
11.328,0.685,0.995
11.331,0.675,1.010
11.333,0.695,1.010
11.336,0.695,0.995
11.339,0.715,1.005
11.342,0.745,1.010
11.344,0.765,1.020
11.347,0.755,1.005
11.350,0.735,0.995
11.353,0.715,0.985
11.356,0.675,0.985
11.358,0.650,0.975
11.361,0.650,0.980
11.364,0.625,0.960
11.367,0.595,0.940
11.369,0.580,0.905
11.372,0.540,0.885
11.375,0.510,0.875
11.378,0.495,0.865
11.381,0.470,0.815
11.383,0.430,0.785
11.386,0.375,0.745
11.389,0.330,0.720
11.392,0.300,0.690
11.394,0.260,0.675
11.397,0.245,0.630
11.400,0.170,0.610
11.403,0.110,0.565
11.406,0.045,0.540
11.408,0.000,0.525
11.411,-0.050,0.510
11.414,-0.080,0.480
11.417,-0.125,0.460
11.419,-0.160,0.430
11.422,-0.215,0.405
11.425,-0.260,0.395
11.428,-0.300,0.400
11.431,-0.350,0.390
11.433,-0.375,0.370
11.436,-0.425,0.345
11.439,-0.480,0.335
11.442,-0.510,0.350
11.444,-0.520,0.355
11.447,-0.525,0.345
11.450,-0.555,0.335
11.453,-0.570,0.320
11.456,-0.605,0.320
11.458,-0.615,0.315
11.461,-0.635,0.325
11.464,-0.655,0.320
11.467,-0.655,0.315
11.469,-0.670,0.300
11.472,-0.685,0.290
11.475,-0.680,0.305
11.478,-0.695,0.350
11.481,-0.725,0.360
11.483,-0.720,0.365
11.486,-0.715,0.380
11.489,-0.710,0.415
11.492,-0.700,0.445
11.494,-0.680,0.470
11.497,-0.650,0.485
11.500,-0.635,0.485
11.503,-0.630,0.480
11.506,-0.610,0.485
11.508,-0.565,0.500
11.511,-0.520,0.520
11.514,-0.480,0.510
11.517,-0.440,0.495
11.519,-0.430,0.470
11.522,-0.420,0.430
11.525,-0.405,0.425
11.528,-0.390,0.415
11.531,-0.370,0.380
11.533,-0.355,0.370
11.536,-0.355,0.340
11.539,-0.370,0.325
11.542,-0.390,0.315
11.544,-0.415,0.330
11.547,-0.445,0.320
11.550,-0.470,0.295
11.553,-0.480,0.275
11.556,-0.500,0.280
11.558,-0.490,0.300
11.561,-0.475,0.315
11.564,-0.470,0.315
11.567,-0.485,0.310
11.569,-0.490,0.300
11.572,-0.515,0.300
11.575,-0.520,0.300
11.578,-0.530,0.315
11.581,-0.540,0.305
11.583,-0.560,0.310
11.586,-0.590,0.305
11.589,-0.610,0.295
11.592,-0.635,0.325
11.594,-0.650,0.345
11.597,-0.675,0.325
11.600,-0.700,0.315
11.603,-0.725,0.285
11.606,-0.750,0.285
11.608,-0.770,0.290
11.611,-0.780,0.290
11.614,-0.785,0.275
11.617,-0.805,0.260
11.619,-0.815,0.245
11.622,-0.830,0.245
11.625,-0.830,0.245
11.628,-0.830,0.260
11.631,-0.840,0.250
11.633,-0.865,0.245
11.636,-0.875,0.235
11.639,-0.880,0.225
11.642,-0.890,0.240
11.644,-0.875,0.245
11.647,-0.845,0.240
11.650,-0.860,0.225
11.653,-0.870,0.235
11.656,-0.875,0.220
11.658,-0.890,0.220
11.661,-0.870,0.215
11.664,-0.875,0.225
11.667,-0.880,0.220
11.669,-0.890,0.210
11.672,-0.895,0.195
11.675,-0.890,0.210
11.678,-0.890,0.205
11.681,-0.890,0.210
11.683,-0.900,0.215
11.686,-0.910,0.215
11.689,-0.915,0.195
11.692,-0.910,0.220
11.694,-0.895,0.220
11.697,-0.875,0.220
11.700,-0.885,0.195
11.703,-0.900,0.190
11.706,-0.900,0.195
11.708,-0.900,0.205
11.711,-0.910,0.225
11.714,-0.910,0.205
11.717,-0.910,0.205
11.719,-0.910,0.195
11.722,-0.915,0.200
11.725,-0.905,0.205
11.728,-0.890,0.210
11.731,-0.895,0.200
11.733,-0.890,0.200
11.736,-0.900,0.205
11.739,-0.910,0.205
11.742,-0.900,0.225
11.744,-0.880,0.225
11.747,-0.885,0.230
11.750,-0.870,0.235
11.753,-0.880,0.230
11.756,-0.880,0.210
11.758,-0.865,0.225
11.761,-0.855,0.230
11.764,-0.845,0.225
11.767,-0.870,0.225
11.769,-0.885,0.215
11.772,-0.890,0.220
11.775,-0.870,0.230
11.778,-0.870,0.245
11.781,-0.855,0.225
11.783,-0.860,0.210
11.786,-0.860,0.210
11.789,-0.860,0.205
11.792,-0.845,0.215
11.794,-0.835,0.230
11.797,-0.825,0.215
11.800,-0.800,0.220
11.803,-0.795,0.215
11.806,-0.815,0.195
11.808,-0.800,0.190
11.811,-0.785,0.195
11.814,-0.770,0.180
11.817,-0.770,0.160
11.819,-0.755,0.115
11.822,-0.735,-0.020
11.825,-0.705,-0.300
11.828,-0.630,-0.660
11.831,-0.520,-0.715
11.833,-0.265,-0.440
11.836,0.260,-0.205
11.839,0.895,-0.105
11.842,1.460,-0.090
11.844,1.530,-0.090
11.847,1.315,-0.065
11.850,1.095,-0.080
11.853,1.005,-0.080
11.856,0.950,-0.120
11.858,0.855,-0.130
11.861,0.770,-0.140
11.864,0.655,-0.165
11.867,0.555,-0.190
11.869,0.435,-0.230
11.872,0.330,-0.270
11.875,0.215,-0.295
11.878,0.095,-0.300
11.881,-0.025,-0.315
11.883,-0.180,-0.350
11.886,-0.345,-0.400
11.889,-0.525,-0.465
11.892,-0.700,-0.525
11.894,-0.880,-0.585
11.897,-1.080,-0.670
11.900,-1.290,-0.735
11.903,-1.505,-0.760
11.906,-1.685,-0.835
11.908,-1.840,-0.910
11.911,-2.005,-1.035
11.914,-2.155,-1.205
11.917,-2.270,-1.330
11.919,-2.350,-1.430
11.922,-2.405,-1.505
11.925,-2.425,-1.585
11.928,-2.440,-1.650
11.931,-2.475,-1.750
11.933,-2.530,-1.825
11.936,-2.610,-1.905
11.939,-2.695,-2.010
11.942,-2.755,-2.100
11.944,-2.785,-2.125
11.947,-2.800,-2.080
11.950,-2.820,-1.955
11.953,-2.785,-1.800
11.956,-2.725,-1.630
11.958,-2.575,-1.440
11.961,-2.420,-1.265
11.964,-2.235,-1.100
11.967,-2.015,-0.935
11.969,-1.795,-0.805
11.972,-1.675,-0.670
11.975,-1.585,-0.535
11.978,-1.530,-0.415
11.981,-1.450,-0.315
11.983,-1.390,-0.240
11.986,-1.335,-0.165
11.989,-1.290,-0.090
11.992,-1.225,-0.010
11.994,-1.180,0.045
11.997,-1.160,0.080
12.000,-1.125,0.115
12.003,-1.080,0.140
12.006,-1.035,0.180
12.008,-0.950,0.220
12.011,-0.875,0.260
12.014,-0.810,0.300
12.017,-0.755,0.315
12.019,-0.695,0.340
12.022,-0.625,0.370
12.025,-0.560,0.410
12.028,-0.480,0.435
12.031,-0.385,0.445
12.033,-0.300,0.455
12.036,-0.220,0.455
12.039,-0.170,0.460
12.042,-0.100,0.485
12.044,-0.055,0.520
12.047,-0.030,0.510
12.050,-0.005,0.525
12.053,0.005,0.510
12.056,0.020,0.525
12.058,0.055,0.550
12.061,0.075,0.555
12.064,0.100,0.570
12.067,0.115,0.560
12.069,0.130,0.575
12.072,0.160,0.575
12.075,0.175,0.595
12.078,0.215,0.615
12.081,0.250,0.625
12.083,0.285,0.625
12.086,0.300,0.630
12.089,0.330,0.640
12.092,0.365,0.660
12.094,0.395,0.685
12.097,0.425,0.690
12.100,0.455,0.685
12.103,0.485,0.690
12.106,0.505,0.710
12.108,0.545,0.725
12.111,0.575,0.755
12.114,0.615,0.760
12.117,0.655,0.755
12.119,0.690,0.785
12.122,0.720,0.795
12.125,0.740,0.825
12.128,0.780,0.840
12.131,0.810,0.825
12.133,0.840,0.830
12.136,0.870,0.835
12.139,0.880,0.850
12.142,0.900,0.860
12.144,0.925,0.880
12.147,0.955,0.875
12.150,0.960,0.870
12.153,0.965,0.880
12.156,0.965,0.870
12.158,0.985,0.885
12.161,1.005,0.895
12.164,1.010,0.905
12.167,1.000,0.905
12.169,0.990,0.910
12.172,0.980,0.915
12.175,0.980,0.955
12.178,0.985,0.960
12.181,0.975,0.935
12.183,0.955,0.895
12.186,0.940,0.865
12.189,0.940,0.865
12.192,0.955,0.840
12.194,0.970,0.835
12.197,0.980,0.795
12.200,0.965,0.755
12.203,0.940,0.675
12.206,0.895,0.615
12.208,0.880,0.560
12.211,0.860,0.510
12.214,0.855,0.465
12.217,0.790,0.425
12.219,0.735,0.375
12.222,0.650,0.325
12.225,0.570,0.290
12.228,0.510,0.280
12.231,0.465,0.245
12.233,0.400,0.210
12.236,0.335,0.175
12.239,0.275,0.160
12.242,0.245,0.160
12.244,0.215,0.170
12.247,0.165,0.150
12.250,0.105,0.120
12.253,0.045,0.105
12.256,-0.010,0.110
12.258,-0.055,0.110
12.261,-0.100,0.115
12.264,-0.145,0.120
12.267,-0.185,0.095
12.269,-0.235,0.080
12.272,-0.295,0.090
12.275,-0.320,0.105
12.278,-0.355,0.100
12.281,-0.375,0.095
12.283,-0.420,0.085
12.286,-0.460,0.080
12.289,-0.490,0.070
12.292,-0.515,0.075
12.294,-0.535,0.080
12.297,-0.565,0.065
12.300,-0.580,0.030
12.303,-0.625,0.020
12.306,-0.665,0.030
12.308,-0.680,0.030
12.311,-0.685,0.055
12.314,-0.660,0.035
12.317,-0.625,0.030
12.319,-0.620,0.035
12.322,-0.615,0.040
12.325,-0.620,0.040
12.328,-0.630,0.050
12.331,-0.650,0.040
12.333,-0.665,0.060
12.336,-0.680,0.050
12.339,-0.685,0.055
12.342,-0.665,0.060
12.344,-0.655,0.075
12.347,-0.640,0.050
12.350,-0.660,0.055
12.353,-0.670,0.045
12.356,-0.675,0.050
12.358,-0.680,0.060
12.361,-0.680,0.070
12.364,-0.670,0.060
12.367,-0.665,0.055
12.369,-0.675,0.050
12.372,-0.680,0.030
12.375,-0.660,0.045
12.378,-0.645,0.060
12.381,-0.635,0.070
12.383,-0.635,0.065
12.386,-0.645,0.045
12.389,-0.655,0.045
12.392,-0.660,0.050
12.394,-0.650,0.055
12.397,-0.655,0.035
12.400,-0.670,0.030
12.403,-0.680,0.035
12.406,-0.670,0.030
12.408,-0.650,0.030
12.411,-0.640,0.045
12.414,-0.630,0.045
12.417,-0.640,0.045
12.419,-0.645,0.040
12.422,-0.655,0.035
12.425,-0.665,0.045
12.428,-0.665,0.035
12.431,-0.640,0.030
12.433,-0.635,0.025
12.436,-0.645,0.035
12.439,-0.640,0.035
12.442,-0.645,0.055
12.444,-0.645,0.060
12.447,-0.640,0.035
12.450,-0.630,0.035
12.453,-0.630,0.040
12.456,-0.635,0.035
12.458,-0.635,0.065
12.461,-0.625,0.065
12.464,-0.625,0.055
12.467,-0.640,0.045
12.469,-0.645,0.065
12.472,-0.650,0.055
12.475,-0.635,0.060
12.478,-0.620,0.060
12.481,-0.625,0.060
12.483,-0.625,0.055
12.486,-0.630,0.060
12.489,-0.640,0.065
12.492,-0.625,0.065
12.494,-0.620,0.080
12.497,-0.630,0.070
12.500,-0.615,0.070
12.503,-0.605,0.060
12.506,-0.600,0.065
12.508,-0.600,0.070
12.511,-0.570,0.090
12.514,-0.565,0.085
12.517,-0.565,0.065
12.519,-0.580,0.070
12.522,-0.595,0.050
12.525,-0.590,0.070
12.528,-0.580,0.090
12.531,-0.580,0.085
12.533,-0.580,0.075
12.536,-0.605,0.075
12.539,-0.605,0.080
12.542,-0.565,0.080
12.544,-0.550,0.085
12.547,-0.545,0.065
12.550,-0.540,0.080
12.553,-0.555,0.065
12.556,-0.565,0.060
12.558,-0.550,0.070
12.561,-0.530,0.100
12.564,-0.520,0.090
12.567,-0.535,0.080
12.569,-0.545,0.055
12.572,-0.545,0.035
12.575,-0.530,0.025
12.578,-0.540,0.045
12.581,-0.550,0.050
12.583,-0.520,0.030
12.586,-0.495,0.020
12.589,-0.485,0.030
12.592,-0.485,0.060
12.594,-0.490,0.075
12.597,-0.495,0.065
12.600,-0.500,0.045
12.603,-0.495,0.045
12.606,-0.505,0.015
12.608,-0.480,0.020
12.611,-0.480,0.030
12.614,-0.485,0.020
12.617,-0.480,0.010
12.619,-0.470,0.000
12.622,-0.460,-0.015
12.625,-0.435,-0.025
12.628,-0.420,-0.050
12.631,-0.410,-0.080
12.633,-0.360,-0.155
12.636,-0.335,-0.425
12.639,-0.290,-0.775
12.642,-0.180,-0.805
12.644,0.100,-0.540
12.647,0.635,-0.320
12.650,1.270,-0.265
12.653,1.770,-0.280
12.656,1.810,-0.270
12.658,1.620,-0.250
12.661,1.490,-0.240
12.664,1.425,-0.260
12.667,1.365,-0.290
12.669,1.285,-0.330
12.672,1.140,-0.330
12.675,1.030,-0.360
12.678,0.940,-0.370
12.681,0.850,-0.400
12.683,0.755,-0.425
12.686,0.640,-0.445
12.689,0.495,-0.435
12.692,0.350,-0.430
12.694,0.190,-0.465
12.697,-0.015,-0.520
12.700,-0.245,-0.560
12.703,-0.465,-0.610
12.706,-0.675,-0.640
12.708,-0.875,-0.690
12.711,-1.080,-0.705
12.714,-1.300,-0.735
12.717,-1.520,-0.780
12.719,-1.695,-0.840
12.722,-1.840,-0.930
12.725,-1.950,-1.045
12.728,-2.015,-1.170
12.731,-2.080,-1.255
12.733,-2.140,-1.315
12.736,-2.200,-1.360
12.739,-2.225,-1.475
12.742,-2.225,-1.565
12.744,-2.255,-1.650
12.747,-2.340,-1.715
12.750,-2.440,-1.805
12.753,-2.525,-1.920
12.756,-2.585,-2.045
12.758,-2.635,-2.070
12.761,-2.680,-2.000
12.764,-2.710,-1.855
12.767,-2.690,-1.735
12.769,-2.605,-1.590
12.772,-2.435,-1.415
12.775,-2.180,-1.235
12.778,-1.955,-1.090
12.781,-1.735,-0.985
12.783,-1.580,-0.890
12.786,-1.460,-0.775
12.789,-1.375,-0.675
12.792,-1.300,-0.595
12.794,-1.260,-0.570
12.797,-1.225,-0.525
12.800,-1.170,-0.455
12.803,-1.095,-0.370
12.806,-1.040,-0.310
12.808,-1.015,-0.230
12.811,-1.020,-0.175
12.814,-0.990,-0.105
12.817,-0.920,-0.080
12.819,-0.850,-0.080
12.822,-0.765,-0.050
12.825,-0.680,0.010
12.828,-0.620,0.030
12.831,-0.570,-0.015
12.833,-0.530,0.005
12.836,-0.480,0.035
12.839,-0.410,0.055
12.842,-0.325,0.085
12.844,-0.200,0.110
12.847,-0.090,0.130
12.850,-0.025,0.140
12.853,0.005,0.145
12.856,0.030,0.160
12.858,0.070,0.205
12.861,0.140,0.240
12.864,0.185,0.285
12.867,0.235,0.310
12.869,0.260,0.310
12.872,0.285,0.280
12.875,0.335,0.285
12.878,0.380,0.335
12.881,0.405,0.360
12.883,0.415,0.405
12.886,0.455,0.415
12.889,0.515,0.395
12.892,0.610,0.410
12.894,0.655,0.410
12.897,0.675,0.380
12.900,0.695,0.345
12.903,0.740,0.305
12.906,0.790,0.290
12.908,0.845,0.265
12.911,0.880,0.255
12.914,0.885,0.240
12.917,0.900,0.220
12.919,0.925,0.230
12.922,0.980,0.225
12.925,1.015,0.230
12.928,1.045,0.225
12.931,1.040,0.240
12.933,1.020,0.260
12.936,1.035,0.305
12.939,1.045,0.325
12.942,1.095,0.355
12.944,1.140,0.350
12.947,1.175,0.340
12.950,1.190,0.325
12.953,1.215,0.355
12.956,1.250,0.400
12.958,1.270,0.455
12.961,1.255,0.455
12.964,1.250,0.390
12.967,1.230,0.370
12.969,1.240,0.375
12.972,1.235,0.400
12.975,1.215,0.420
12.978,1.185,0.415
12.981,1.155,0.385
12.983,1.155,0.365
12.986,1.140,0.380
12.989,1.130,0.360
12.992,1.135,0.360
12.994,1.145,0.370
12.997,1.115,0.360
13.000,1.080,0.345
13.003,1.055,0.295
13.006,1.020,0.260
13.008,0.990,0.225
13.011,0.930,0.200
13.014,0.865,0.180
13.017,0.820,0.175
13.019,0.815,0.165
13.022,0.815,0.125
13.025,0.790,0.090
13.028,0.710,0.060
13.031,0.610,0.000
13.033,0.535,-0.040
13.036,0.525,-0.045
13.039,0.510,-0.060
13.042,0.500,-0.065
13.044,0.455,-0.075
13.047,0.385,-0.070
13.050,0.360,-0.085
13.053,0.330,-0.145
13.056,0.250,-0.200
13.058,0.130,-0.210
13.061,0.060,-0.210
13.064,0.035,-0.235
13.067,0.065,-0.265
13.069,0.070,-0.280
13.072,0.020,-0.280
13.075,-0.030,-0.270
13.078,-0.085,-0.255
13.081,-0.120,-0.260
13.083,-0.145,-0.270
13.086,-0.210,-0.285
13.089,-0.285,-0.305
13.092,-0.300,-0.315
13.094,-0.260,-0.300
13.097,-0.220,-0.285
13.100,-0.210,-0.285
13.103,-0.270,-0.325
13.106,-0.330,-0.340
13.108,-0.345,-0.340
13.111,-0.365,-0.320
13.114,-0.390,-0.315
13.117,-0.420,-0.315
13.119,-0.410,-0.315
13.122,-0.390,-0.315
13.125,-0.345,-0.300
13.128,-0.375,-0.290
13.131,-0.400,-0.305
13.133,-0.445,-0.315
13.136,-0.470,-0.315
13.139,-0.490,-0.285
13.142,-0.460,-0.245
13.144,-0.460,-0.215
13.147,-0.455,-0.245
13.150,-0.455,-0.280
13.153,-0.455,-0.295
13.156,-0.465,-0.285
13.158,-0.465,-0.260
13.161,-0.470,-0.230
13.164,-0.495,-0.225
13.167,-0.490,-0.245
13.169,-0.440,-0.270
13.172,-0.425,-0.270
13.175,-0.420,-0.250
13.178,-0.470,-0.225
13.181,-0.510,-0.215
13.183,-0.490,-0.230
13.186,-0.455,-0.265
13.189,-0.415,-0.260
13.192,-0.385,-0.255
13.194,-0.390,-0.240
13.197,-0.410,-0.220
13.200,-0.445,-0.235
13.203,-0.455,-0.225
13.206,-0.445,-0.220
13.208,-0.405,-0.230
13.211,-0.400,-0.225
13.214,-0.425,-0.235
13.217,-0.445,-0.235
13.219,-0.465,-0.255
13.222,-0.440,-0.260
13.225,-0.425,-0.235
13.228,-0.400,-0.225
13.231,-0.395,-0.225
13.233,-0.395,-0.245
13.236,-0.395,-0.260
13.239,-0.390,-0.240
13.242,-0.365,-0.220
13.244,-0.345,-0.215
13.247,-0.320,-0.235
13.250,-0.345,-0.245
13.253,-0.375,-0.260
13.256,-0.410,-0.265
13.258,-0.370,-0.270
13.261,-0.340,-0.255
13.264,-0.320,-0.250
13.267,-0.345,-0.255
13.269,-0.360,-0.270
13.272,-0.355,-0.280
13.275,-0.365,-0.265
13.278,-0.365,-0.265
13.281,-0.390,-0.270
13.283,-0.410,-0.275
13.286,-0.405,-0.300
13.289,-0.420,-0.305
13.292,-0.410,-0.290
13.294,-0.395,-0.290
13.297,-0.380,-0.300
13.300,-0.385,-0.310
13.303,-0.370,-0.330
13.306,-0.340,-0.310
13.308,-0.315,-0.300
13.311,-0.315,-0.290
13.314,-0.355,-0.295
13.317,-0.370,-0.300
13.319,-0.360,-0.310
13.322,-0.345,-0.300
13.325,-0.345,-0.285
13.328,-0.355,-0.295
13.331,-0.355,-0.310
13.333,-0.365,-0.330
13.336,-0.370,-0.335
13.339,-0.375,-0.325
13.342,-0.370,-0.310
13.344,-0.355,-0.305
13.347,-0.330,-0.315
13.350,-0.320,-0.325
13.353,-0.345,-0.330
13.356,-0.360,-0.325
13.358,-0.360,-0.330
13.361,-0.355,-0.325
13.364,-0.350,-0.340
13.367,-0.340,-0.335
13.369,-0.345,-0.335
13.372,-0.355,-0.330
13.375,-0.330,-0.330
13.378,-0.310,-0.325
13.381,-0.295,-0.335
13.383,-0.310,-0.330
13.386,-0.330,-0.315
13.389,-0.365,-0.325
13.392,-0.345,-0.315
13.394,-0.335,-0.325
13.397,-0.320,-0.330
13.400,-0.315,-0.330
13.403,-0.315,-0.335
13.406,-0.310,-0.330
13.408,-0.310,-0.330
13.411,-0.300,-0.340
13.414,-0.300,-0.335
13.417,-0.320,-0.345
13.419,-0.315,-0.345
13.422,-0.330,-0.340
13.425,-0.320,-0.330
13.428,-0.300,-0.315
13.431,-0.305,-0.325
13.433,-0.315,-0.335
13.436,-0.320,-0.345
13.439,-0.310,-0.340
13.442,-0.305,-0.345
13.444,-0.295,-0.350
13.447,-0.290,-0.340
13.450,-0.275,-0.340
13.453,-0.270,-0.370
13.456,-0.270,-0.375
13.458,-0.240,-0.365
13.461,-0.205,-0.365
13.464,-0.195,-0.390
13.467,-0.195,-0.535
13.469,-0.185,-0.895
13.472,-0.140,-1.210
13.475,0.015,-1.165
13.478,0.360,-0.915
13.481,0.930,-0.745
13.483,1.545,-0.710
13.486,1.935,-0.705
13.489,1.975,-0.695
13.492,1.885,-0.675
13.494,1.765,-0.645
13.497,1.710,-0.650
13.500,1.655,-0.665
13.503,1.570,-0.690
13.506,1.455,-0.700
13.508,1.345,-0.705
13.511,1.245,-0.715
13.514,1.155,-0.720
13.517,1.045,-0.740
13.519,0.930,-0.770
13.522,0.785,-0.785
13.525,0.630,-0.790
13.528,0.475,-0.780
13.531,0.295,-0.795
13.533,0.105,-0.840
13.536,-0.125,-0.875
13.539,-0.355,-0.940
13.542,-0.585,-0.970
13.544,-0.810,-1.010
13.547,-1.060,-1.045
13.550,-1.310,-1.085
13.553,-1.540,-1.130
13.556,-1.740,-1.215
13.558,-1.900,-1.300
13.561,-2.030,-1.415
13.564,-2.125,-1.535
13.567,-2.230,-1.620
13.569,-2.285,-1.690
13.572,-2.300,-1.730
13.575,-2.285,-1.750
13.578,-2.280,-1.795
13.581,-2.330,-1.840
13.583,-2.420,-1.900
13.586,-2.510,-1.960
13.589,-2.580,-2.025
13.592,-2.625,-2.095
13.594,-2.660,-2.110
13.597,-2.700,-2.050
13.600,-2.705,-1.915
13.603,-2.635,-1.770
13.606,-2.470,-1.595
13.608,-2.210,-1.390
13.611,-1.935,-1.225
13.614,-1.665,-1.115
13.617,-1.430,-1.040
13.619,-1.225,-0.980
13.622,-1.060,-0.910
13.625,-0.945,-0.845
13.628,-0.855,-0.740
13.631,-0.765,-0.680
13.633,-0.680,-0.625
13.636,-0.600,-0.575
13.639,-0.535,-0.535
13.642,-0.495,-0.480
13.644,-0.480,-0.435
13.647,-0.465,-0.415
13.650,-0.470,-0.405
13.653,-0.460,-0.390
13.656,-0.450,-0.350
13.658,-0.395,-0.305
13.661,-0.295,-0.280
13.664,-0.215,-0.245
13.667,-0.155,-0.235
13.669,-0.130,-0.220
13.672,-0.090,-0.200
13.675,-0.030,-0.165
13.678,0.005,-0.130
13.681,0.065,-0.090
13.683,0.115,-0.080
13.686,0.140,-0.080
13.689,0.160,-0.060
13.692,0.215,-0.025
13.694,0.255,-0.005
13.697,0.310,-0.010
13.700,0.320,-0.015
13.703,0.310,-0.015
13.706,0.305,-0.015
13.708,0.325,0.010
13.711,0.315,0.015
13.714,0.320,0.020
13.717,0.325,0.005
13.719,0.330,0.005
13.722,0.340,0.005
13.725,0.340,0.045
13.728,0.355,0.065
13.731,0.370,0.075
13.733,0.385,0.075
13.736,0.395,0.085
13.739,0.405,0.095
13.742,0.435,0.105
13.744,0.470,0.125
13.747,0.520,0.145
13.750,0.525,0.155
13.753,0.545,0.150
13.756,0.555,0.170
13.758,0.585,0.195
13.761,0.615,0.230
13.764,0.650,0.235
13.767,0.670,0.230
13.769,0.700,0.235
13.772,0.715,0.245
13.775,0.755,0.270
13.778,0.785,0.295
13.781,0.805,0.305
13.783,0.825,0.320
13.786,0.840,0.320
13.789,0.840,0.330
13.792,0.880,0.360
13.794,0.940,0.370
13.797,0.980,0.370
13.800,0.995,0.375
13.803,0.985,0.370
13.806,0.990,0.385
13.808,1.020,0.395
13.811,1.030,0.425
13.814,1.060,0.420
13.817,1.045,0.410
13.819,1.050,0.415
13.822,1.040,0.405
13.825,1.040,0.410
13.828,1.040,0.415
13.831,1.040,0.420
13.833,1.020,0.395
13.836,0.995,0.375
13.839,0.970,0.360
13.842,0.960,0.355
13.844,0.955,0.350
13.847,0.930,0.325
13.850,0.875,0.290
13.853,0.830,0.255
13.856,0.785,0.245
13.858,0.775,0.230
13.861,0.760,0.215
13.864,0.710,0.195
13.867,0.675,0.155
13.869,0.615,0.115
13.872,0.575,0.090
13.875,0.535,0.065
13.878,0.505,0.050
13.881,0.450,0.025
13.883,0.415,0.005
13.886,0.365,-0.035
13.889,0.315,-0.055
13.892,0.275,-0.070
13.894,0.225,-0.075
13.897,0.175,-0.100
13.900,0.130,-0.120
13.903,0.105,-0.140
13.906,0.055,-0.140
13.908,0.035,-0.145
13.911,-0.015,-0.140
13.914,-0.050,-0.155
13.917,-0.100,-0.170
13.919,-0.130,-0.190
13.922,-0.180,-0.195
13.925,-0.205,-0.190
13.928,-0.230,-0.185
13.931,-0.240,-0.205
13.933,-0.255,-0.205
13.936,-0.285,-0.220
13.939,-0.325,-0.220
13.942,-0.350,-0.200
13.944,-0.360,-0.205
13.947,-0.345,-0.200
13.950,-0.365,-0.210
13.953,-0.390,-0.225
13.956,-0.405,-0.220
13.958,-0.415,-0.200
13.961,-0.420,-0.205
13.964,-0.420,-0.195
13.967,-0.430,-0.200
13.969,-0.425,-0.215
13.972,-0.440,-0.195
13.975,-0.455,-0.195
13.978,-0.435,-0.180
13.981,-0.435,-0.195
13.983,-0.450,-0.200
13.986,-0.465,-0.205
13.989,-0.480,-0.195
13.992,-0.475,-0.185
13.994,-0.455,-0.175
13.997,-0.450,-0.185
14.000,-0.455,-0.180
14.003,-0.470,-0.200
14.006,-0.490,-0.170
14.008,-0.485,-0.165
14.011,-0.485,-0.150
14.014,-0.480,-0.165
14.017,-0.485,-0.180
14.019,-0.495,-0.180
14.022,-0.500,-0.185
14.025,-0.500,-0.175
14.028,-0.500,-0.155
14.031,-0.490,-0.160
14.033,-0.485,-0.160
14.036,-0.485,-0.175
14.039,-0.510,-0.170
14.042,-0.500,-0.155
14.044,-0.490,-0.150
14.047,-0.475,-0.160
14.050,-0.465,-0.160
14.053,-0.470,-0.165
14.056,-0.470,-0.165
14.058,-0.475,-0.155
14.061,-0.470,-0.160
14.064,-0.470,-0.160
14.067,-0.470,-0.165
14.069,-0.470,-0.190
14.072,-0.470,-0.185
14.075,-0.465,-0.170
14.078,-0.470,-0.150
14.081,-0.455,-0.170
14.083,-0.460,-0.170
14.086,-0.455,-0.180
14.089,-0.470,-0.180
14.092,-0.455,-0.175
14.094,-0.430,-0.165
14.097,-0.400,-0.175
14.100,-0.425,-0.180
14.103,-0.440,-0.190
14.106,-0.450,-0.185
14.108,-0.450,-0.170
14.111,-0.455,-0.175
14.114,-0.450,-0.190
14.117,-0.440,-0.205
14.119,-0.455,-0.200
14.122,-0.465,-0.200
14.125,-0.460,-0.185
14.128,-0.460,-0.175
14.131,-0.455,-0.185
14.133,-0.460,-0.200
14.136,-0.475,-0.205
14.139,-0.490,-0.210
14.142,-0.490,-0.200
14.144,-0.485,-0.200
14.147,-0.480,-0.200
14.150,-0.475,-0.205
14.153,-0.455,-0.210
14.156,-0.465,-0.205
14.158,-0.470,-0.205
14.161,-0.475,-0.185
14.164,-0.490,-0.200
14.167,-0.475,-0.205
14.169,-0.485,-0.215
14.172,-0.500,-0.205
14.175,-0.495,-0.195
14.178,-0.490,-0.190
14.181,-0.490,-0.200
14.183,-0.490,-0.200
14.186,-0.490,-0.225
14.189,-0.490,-0.210
14.192,-0.500,-0.205
14.194,-0.485,-0.200
14.197,-0.480,-0.195
14.200,-0.490,-0.220
14.203,-0.495,-0.210
14.206,-0.505,-0.210
14.208,-0.500,-0.205
14.211,-0.490,-0.195
14.214,-0.475,-0.215
14.217,-0.470,-0.205
14.219,-0.475,-0.210
14.222,-0.490,-0.205
14.225,-0.485,-0.195
14.228,-0.485,-0.200
14.231,-0.480,-0.200
14.233,-0.485,-0.200
14.236,-0.480,-0.220
14.239,-0.495,-0.210
14.242,-0.485,-0.200
14.244,-0.480,-0.200
14.247,-0.485,-0.190
14.250,-0.495,-0.205
14.253,-0.505,-0.225
14.256,-0.525,-0.210
14.258,-0.510,-0.205
14.261,-0.485,-0.205
14.264,-0.480,-0.205
14.267,-0.475,-0.200
14.269,-0.475,-0.215
14.272,-0.490,-0.205
14.275,-0.490,-0.200
14.278,-0.485,-0.205
14.281,-0.485,-0.205
14.283,-0.480,-0.210
14.286,-0.470,-0.225
14.289,-0.470,-0.210
14.292,-0.460,-0.195
14.294,-0.455,-0.190
14.297,-0.460,-0.205
14.300,-0.465,-0.210
14.303,-0.450,-0.225
14.306,-0.465,-0.225
14.308,-0.455,-0.215
14.311,-0.455,-0.205
14.314,-0.445,-0.215
14.317,-0.445,-0.225
14.319,-0.445,-0.230
14.322,-0.435,-0.220
14.325,-0.425,-0.210
14.328,-0.375,-0.325
14.331,-0.345,-0.625
14.333,-0.280,-0.875
14.336,-0.150,-0.810
14.339,0.135,-0.585
14.342,0.645,-0.415
14.344,1.215,-0.335
14.347,1.630,-0.310
14.350,1.735,-0.290
14.353,1.635,-0.260
14.356,1.520,-0.235
14.358,1.480,-0.245
14.361,1.460,-0.285
14.364,1.400,-0.345
14.367,1.325,-0.410
14.369,1.210,-0.470
14.372,1.135,-0.490
14.375,1.080,-0.500
14.378,1.035,-0.515
14.381,0.960,-0.555
14.383,0.845,-0.585
14.386,0.710,-0.620
14.389,0.560,-0.630
14.392,0.405,-0.650
14.394,0.250,-0.675
14.397,0.090,-0.695
14.400,-0.080,-0.750
14.403,-0.260,-0.785
14.406,-0.470,-0.830
14.408,-0.690,-0.890
14.411,-0.905,-0.920
14.414,-1.125,-0.955
14.417,-1.350,-1.005
14.419,-1.570,-1.050
14.422,-1.760,-1.135
14.425,-1.930,-1.230
14.428,-2.080,-1.340
14.431,-2.190,-1.450
14.433,-2.270,-1.555
14.436,-2.360,-1.600
14.439,-2.420,-1.620
14.442,-2.450,-1.655
14.444,-2.480,-1.715
14.447,-2.535,-1.785
14.450,-2.615,-1.850
14.453,-2.690,-1.920
14.456,-2.755,-1.985
14.458,-2.800,-2.050
14.461,-2.825,-2.115
14.464,-2.865,-2.185
14.467,-2.920,-2.190
14.469,-2.960,-2.125
14.472,-2.955,-2.020
14.475,-2.875,-1.880
14.478,-2.745,-1.755
14.481,-2.580,-1.610
14.483,-2.400,-1.490
14.486,-2.215,-1.375
14.489,-2.065,-1.265
14.492,-1.910,-1.145
14.494,-1.765,-1.030
14.497,-1.650,-0.930
14.500,-1.560,-0.845
14.503,-1.485,-0.745
14.506,-1.440,-0.685
14.508,-1.370,-0.605
14.511,-1.290,-0.525
14.514,-1.215,-0.475
14.517,-1.170,-0.420
14.519,-1.145,-0.405
14.522,-1.155,-0.360
14.525,-1.135,-0.295
14.528,-1.095,-0.250
14.531,-1.030,-0.230
14.533,-0.975,-0.205
14.536,-0.925,-0.175
14.539,-0.850,-0.140
14.542,-0.765,-0.105
14.544,-0.715,-0.055
14.547,-0.660,-0.030
14.550,-0.600,0.000
14.553,-0.540,0.015
14.556,-0.475,0.040
14.558,-0.375,0.065
14.561,-0.310,0.085
14.564,-0.230,0.090
14.567,-0.180,0.090
14.569,-0.145,0.095
14.572,-0.100,0.105
14.575,-0.045,0.130
14.578,0.010,0.155
14.581,0.045,0.165
14.583,0.040,0.165
14.586,0.055,0.150
14.589,0.070,0.175
14.592,0.095,0.200
14.594,0.105,0.215
14.597,0.125,0.230
14.600,0.145,0.225
14.603,0.155,0.230
14.606,0.160,0.230
14.608,0.175,0.255
14.611,0.205,0.270
14.614,0.240,0.290
14.617,0.270,0.300
14.619,0.290,0.300
14.622,0.305,0.335
14.625,0.320,0.345
14.628,0.345,0.360
14.631,0.375,0.370
14.633,0.415,0.390
14.636,0.415,0.390
14.639,0.445,0.405
14.642,0.485,0.440
14.644,0.525,0.455
14.647,0.560,0.455
14.650,0.585,0.465
14.653,0.610,0.475
14.656,0.635,0.495
14.658,0.660,0.520
14.661,0.705,0.540
14.664,0.760,0.560
14.667,0.815,0.570
14.669,0.855,0.565
14.672,0.865,0.580
14.675,0.900,0.605
14.678,0.920,0.630
14.681,0.935,0.655
14.683,0.975,0.655
14.686,0.985,0.640
14.689,1.005,0.650
14.692,1.040,0.660
14.694,1.055,0.665
14.697,1.060,0.660
14.700,1.055,0.655
14.703,1.045,0.645
14.706,1.035,0.645
14.708,1.045,0.655
14.711,1.070,0.655
14.714,1.070,0.645
14.717,1.060,0.625
14.719,1.030,0.615
14.722,1.015,0.605
14.725,1.000,0.610
14.728,0.985,0.590
14.731,0.980,0.570
14.733,0.955,0.530
14.736,0.900,0.510
14.739,0.885,0.490
14.742,0.860,0.480
14.744,0.835,0.455
14.747,0.795,0.425
14.750,0.750,0.385
14.753,0.710,0.355
14.756,0.655,0.325
14.758,0.625,0.305
14.761,0.595,0.275
14.764,0.565,0.250
14.767,0.525,0.205
14.769,0.480,0.180
14.772,0.405,0.165
14.775,0.355,0.150
14.778,0.320,0.140
14.781,0.265,0.120
14.783,0.240,0.095
14.786,0.185,0.070
14.789,0.145,0.045
14.792,0.110,0.045
14.794,0.065,0.040
14.797,0.030,0.020
14.800,-0.020,-0.005
14.803,-0.085,-0.025
14.806,-0.115,-0.035
14.808,-0.150,-0.025
14.811,-0.175,-0.015
14.814,-0.190,-0.035
14.817,-0.225,-0.035
14.819,-0.240,-0.065
14.822,-0.255,-0.040
14.825,-0.260,-0.045
14.828,-0.270,-0.030
14.831,-0.310,-0.040
14.833,-0.335,-0.065
14.836,-0.360,-0.070
14.839,-0.380,-0.075
14.842,-0.405,-0.060
14.844,-0.405,-0.045
14.847,-0.390,-0.050
14.850,-0.380,-0.065
14.853,-0.410,-0.055
14.856,-0.420,-0.055
14.858,-0.405,-0.045
14.861,-0.405,-0.040
14.864,-0.400,-0.035
14.867,-0.415,-0.055
14.869,-0.435,-0.055
14.872,-0.450,-0.055
14.875,-0.450,-0.050
14.878,-0.435,-0.025
14.881,-0.430,-0.020
14.883,-0.440,-0.025
14.886,-0.445,-0.045
14.889,-0.465,-0.030
14.892,-0.460,-0.020
14.894,-0.440,-0.010
14.897,-0.445,0.005
14.900,-0.435,-0.015
14.903,-0.450,-0.025
14.906,-0.455,-0.025
14.908,-0.445,0.005
14.911,-0.430,0.000
14.914,-0.430,0.000
14.917,-0.445,-0.005
14.919,-0.450,-0.015
14.922,-0.450,-0.010
14.925,-0.445,0.015
14.928,-0.430,0.010
14.931,-0.420,0.020
14.933,-0.425,0.010
14.936,-0.420,0.000
14.939,-0.425,0.010
14.942,-0.415,0.020
14.944,-0.425,0.025
14.947,-0.430,0.030
14.950,-0.430,0.015
14.953,-0.410,0.010
14.956,-0.410,0.010
14.958,-0.400,0.025
14.961,-0.380,0.025
14.964,-0.380,0.025
14.967,-0.380,0.010
14.969,-0.390,0.005
14.972,-0.400,0.015
14.975,-0.390,0.025
14.978,-0.395,0.025
14.981,-0.380,0.025
14.983,-0.370,0.000
14.986,-0.385,0.000
14.989,-0.385,0.010
14.992,-0.390,0.005
14.994,-0.385,0.020
14.997,-0.385,0.015
15.000,-0.390,0.010
15.003,-0.390,-0.005
15.006,-0.400,0.000
15.008,-0.405,0.015
15.011,-0.390,0.010
15.014,-0.395,0.010
15.017,-0.405,-0.005
15.019,-0.420,-0.010
15.022,-0.420,-0.010
15.025,-0.415,0.000
15.028,-0.400,0.005
15.031,-0.400,0.005
15.033,-0.405,-0.005
15.036,-0.420,-0.005
15.039,-0.430,-0.005
15.042,-0.410,-0.010
15.044,-0.405,-0.005
15.047,-0.415,-0.005
15.050,-0.415,-0.015
15.053,-0.425,-0.030
15.056,-0.415,-0.025
15.058,-0.415,-0.015
15.061,-0.415,-0.005
15.064,-0.415,-0.020
15.067,-0.405,-0.010
15.069,-0.410,-0.035
15.072,-0.415,-0.020
15.075,-0.410,-0.005
15.078,-0.400,0.030
15.081,-0.400,0.045
15.083,-0.395,0.065
15.086,-0.395,0.080
15.089,-0.395,0.110
15.092,-0.375,0.140
15.094,-0.350,0.160
15.097,-0.335,0.170
15.100,-0.325,0.160
15.103,-0.305,0.180
15.106,-0.280,0.195
15.108,-0.235,0.225
15.111,-0.180,0.250
15.114,-0.135,0.245
15.117,-0.110,0.215
15.119,-0.110,0.175
15.122,-0.105,0.145
15.125,-0.090,0.110
15.128,-0.070,0.080
15.131,-0.045,0.065
15.133,-0.030,0.030
15.136,-0.005,0.010
15.139,0.000,0.000
15.142,0.005,-0.010
15.144,0.000,-0.020
15.147,-0.010,-0.030
15.150,-0.050,-0.050
15.153,-0.065,-0.070
15.156,-0.085,-0.080
15.158,-0.075,-0.070
15.161,-0.065,-0.055
15.164,-0.065,-0.055
15.167,-0.075,-0.060
15.169,-0.090,-0.065
15.172,-0.105,-0.065
15.175,-0.105,-0.065
15.178,-0.100,-0.075
15.181,-0.105,-0.075
15.183,-0.140,-0.080
15.186,-0.170,-0.095
15.189,-0.205,-0.080
15.192,-0.225,-0.065
15.194,-0.225,-0.055
15.197,-0.250,-0.040
15.200,-0.270,-0.040
15.203,-0.305,-0.050
15.206,-0.315,-0.065
15.208,-0.325,-0.060
15.211,-0.325,-0.060
15.214,-0.330,-0.080
15.217,-0.345,-0.090
15.219,-0.335,-0.185
15.222,-0.310,-0.475
15.225,-0.255,-0.765
15.228,-0.145,-0.790
15.231,0.120,-0.590
15.233,0.585,-0.410
15.236,1.155,-0.385
15.239,1.575,-0.370
15.242,1.695,-0.345
15.244,1.570,-0.315
15.247,1.415,-0.315
15.250,1.320,-0.320
15.253,1.260,-0.350
15.256,1.200,-0.355
15.258,1.135,-0.375
15.261,1.060,-0.375
15.264,0.970,-0.390
15.267,0.885,-0.410
15.269,0.795,-0.420
15.272,0.715,-0.430
15.275,0.655,-0.450
15.278,0.575,-0.465
15.281,0.495,-0.495
15.283,0.380,-0.515
15.286,0.260,-0.545
15.289,0.145,-0.580
15.292,0.025,-0.595
15.294,-0.080,-0.620
15.297,-0.205,-0.670
15.300,-0.345,-0.745
15.303,-0.500,-0.810
15.306,-0.625,-0.870
15.308,-0.765,-0.895
15.311,-0.910,-0.930
15.314,-1.100,-0.955
15.317,-1.275,-1.035
15.319,-1.440,-1.130
15.322,-1.615,-1.235
15.325,-1.765,-1.355
15.328,-1.865,-1.455
15.331,-1.940,-1.555
15.333,-2.015,-1.620
15.336,-2.065,-1.690
15.339,-2.115,-1.760
15.342,-2.125,-1.815
15.344,-2.140,-1.875
15.347,-2.205,-1.930
15.350,-2.325,-2.005
15.353,-2.415,-2.065
15.356,-2.490,-2.115
15.358,-2.535,-2.160
15.361,-2.600,-2.185
15.364,-2.645,-2.140
15.367,-2.675,-2.070
15.369,-2.670,-1.970
15.372,-2.585,-1.840
15.375,-2.445,-1.700
15.378,-2.300,-1.565
15.381,-2.165,-1.450
15.383,-2.020,-1.325
15.386,-1.865,-1.210
15.389,-1.720,-1.075
15.392,-1.585,-0.980
15.394,-1.505,-0.865
15.397,-1.465,-0.760
15.400,-1.425,-0.685
15.403,-1.385,-0.615
15.406,-1.350,-0.555
15.408,-1.290,-0.475
15.411,-1.245,-0.395
15.414,-1.185,-0.330
15.417,-1.165,-0.285
15.419,-1.150,-0.225
15.422,-1.145,-0.175
15.425,-1.105,-0.110
15.428,-1.060,-0.070
15.431,-0.995,-0.035
15.433,-0.935,0.010
15.436,-0.870,0.035
15.439,-0.790,0.075
15.442,-0.720,0.125
15.444,-0.660,0.155
15.447,-0.605,0.195
15.450,-0.550,0.210
15.453,-0.475,0.240
15.456,-0.390,0.255
15.458,-0.295,0.280
15.461,-0.215,0.300
15.464,-0.150,0.300
15.467,-0.095,0.315
15.469,-0.030,0.320
15.472,0.020,0.330
15.475,0.065,0.340
15.478,0.110,0.340
15.481,0.140,0.355
15.483,0.140,0.360
15.486,0.155,0.355
15.489,0.170,0.380
15.492,0.200,0.395
15.494,0.245,0.405
15.497,0.255,0.420
15.500,0.280,0.405
15.503,0.300,0.425
15.506,0.310,0.435
15.508,0.350,0.460
15.511,0.370,0.470
15.514,0.400,0.475
15.517,0.405,0.480
15.519,0.425,0.475
15.522,0.450,0.510
15.525,0.490,0.525
15.528,0.515,0.540
15.531,0.540,0.550
15.533,0.560,0.545
15.536,0.565,0.555
15.539,0.585,0.570
15.542,0.625,0.605
15.544,0.665,0.620
15.547,0.690,0.640
15.550,0.730,0.635
15.553,0.750,0.660
15.556,0.760,0.670
15.558,0.805,0.700
15.561,0.845,0.710
15.564,0.875,0.725
15.567,0.885,0.730
15.569,0.915,0.730
15.572,0.940,0.760
15.575,0.970,0.765
15.578,0.995,0.795
15.581,1.030,0.800
15.583,1.040,0.795
15.586,1.060,0.805
15.589,1.070,0.830
15.592,1.080,0.840
15.594,1.110,0.850
15.597,1.100,0.850
15.600,1.110,0.845
15.603,1.095,0.845
15.606,1.095,0.835
15.608,1.110,0.840
15.611,1.115,0.835
15.614,1.105,0.830
15.617,1.080,0.810
15.619,1.070,0.800
15.622,1.045,0.790
15.625,1.040,0.785
15.628,1.025,0.755
15.631,1.020,0.745
15.633,0.980,0.710
15.636,0.940,0.670
15.639,0.905,0.655
15.642,0.880,0.640
15.644,0.865,0.620
15.647,0.825,0.595
15.650,0.785,0.535
15.653,0.745,0.500
15.656,0.705,0.480
15.658,0.675,0.445
15.661,0.635,0.435
15.664,0.595,0.395
15.667,0.555,0.350
15.669,0.495,0.300
15.672,0.445,0.285
15.675,0.410,0.270
15.678,0.375,0.255
15.681,0.335,0.225
15.683,0.270,0.185
15.686,0.235,0.165
15.689,0.195,0.145
15.692,0.150,0.140
15.694,0.110,0.120
15.697,0.070,0.105
15.700,0.030,0.085
15.703,-0.030,0.065
15.706,-0.050,0.055
15.708,-0.075,0.080
15.711,-0.100,0.065
15.714,-0.120,0.070
15.717,-0.165,0.045
15.719,-0.200,0.020
15.722,-0.225,0.035
15.725,-0.230,0.040
15.728,-0.245,0.040
15.731,-0.255,0.045
15.733,-0.270,0.040
15.736,-0.300,0.020
15.739,-0.325,0.020
15.742,-0.325,0.040
15.744,-0.315,0.030
15.747,-0.320,0.045
15.750,-0.335,0.035
15.753,-0.345,0.025
15.756,-0.360,0.025
15.758,-0.350,0.035
15.761,-0.365,0.050
15.764,-0.365,0.050
15.767,-0.370,0.035
15.769,-0.375,0.030
15.772,-0.390,0.030
15.775,-0.385,0.045
15.778,-0.380,0.040
15.781,-0.370,0.050
15.783,-0.380,0.030
15.786,-0.395,0.040
15.789,-0.405,0.040
15.792,-0.395,0.050
15.794,-0.380,0.050
15.797,-0.380,0.045
15.800,-0.385,0.045
15.803,-0.385,0.055
15.806,-0.390,0.045
15.808,-0.380,0.060
15.811,-0.375,0.075
15.814,-0.375,0.070
15.817,-0.385,0.070
15.819,-0.385,0.060
15.822,-0.390,0.060
15.825,-0.375,0.075
15.828,-0.375,0.090
15.831,-0.370,0.105
15.833,-0.380,0.120
15.836,-0.375,0.140
15.839,-0.370,0.175
15.842,-0.345,0.210
15.844,-0.315,0.245
15.847,-0.300,0.255
15.850,-0.290,0.250
15.853,-0.280,0.250
15.856,-0.250,0.265
15.858,-0.205,0.315
15.861,-0.155,0.350
15.864,-0.115,0.365
15.867,-0.100,0.360
15.869,-0.080,0.300
15.872,-0.055,0.280
15.875,-0.035,0.225
15.878,-0.015,0.195
15.881,0.005,0.155
15.883,0.035,0.130
15.886,0.040,0.100
15.889,0.035,0.090
15.892,0.030,0.085
15.894,0.020,0.065
15.897,-0.010,0.050
15.900,-0.025,0.025
15.903,-0.045,0.010
15.906,-0.065,0.005
15.908,-0.055,0.010
15.911,-0.035,0.025
15.914,-0.055,0.015
15.917,-0.065,0.000
15.919,-0.080,-0.010
15.922,-0.100,0.000
15.925,-0.105,-0.010
15.928,-0.115,-0.005
15.931,-0.140,-0.015
15.933,-0.175,-0.020
15.936,-0.205,-0.015
15.939,-0.235,0.000
15.942,-0.250,0.025
15.944,-0.265,0.035
15.947,-0.290,0.045
15.950,-0.320,0.020
15.953,-0.350,-0.005
15.956,-0.380,0.000
15.958,-0.380,0.010
15.961,-0.400,0.010
15.964,-0.410,-0.010
15.967,-0.435,-0.010
15.969,-0.460,-0.020
15.972,-0.490,-0.015
15.975,-0.490,-0.005
15.978,-0.500,-0.005
15.981,-0.510,-0.005
15.983,-0.525,-0.025
15.986,-0.525,-0.030
15.989,-0.535,-0.025
15.992,-0.525,0.000
15.994,-0.530,-0.005
15.997,-0.530,-0.005
16.000,-0.530,-0.015
16.003,-0.540,-0.015
16.006,-0.550,-0.005
16.008,-0.545,0.010
16.011,-0.525,0.005
16.014,-0.530,0.020
16.017,-0.535,0.010
16.019,-0.540,0.000
16.022,-0.550,-0.005
16.025,-0.535,0.005
16.028,-0.530,0.010
16.031,-0.525,0.020
16.033,-0.530,0.020
16.036,-0.545,0.025
16.039,-0.540,0.025
16.042,-0.535,0.050
16.044,-0.525,0.050
16.047,-0.520,0.030
16.050,-0.515,0.020
16.053,-0.535,0.010
16.056,-0.535,0.050
16.058,-0.520,0.065
16.061,-0.515,0.070
16.064,-0.500,0.055
16.067,-0.510,0.045
16.069,-0.525,0.030
16.072,-0.525,0.045
16.075,-0.520,0.060
16.078,-0.495,0.065
16.081,-0.490,0.065
16.083,-0.470,0.045
16.086,-0.460,0.025
16.089,-0.455,0.035
16.092,-0.425,0.025
16.094,-0.395,-0.160
16.097,-0.360,-0.500
16.100,-0.260,-0.665
16.103,-0.040,-0.495
16.106,0.430,-0.255
16.108,1.065,-0.145
16.111,1.590,-0.145
16.114,1.695,-0.140
16.117,1.540,-0.130
16.119,1.350,-0.120
16.122,1.245,-0.115
16.125,1.190,-0.110
16.128,1.150,-0.130
16.131,1.065,-0.140
16.133,0.975,-0.160
16.136,0.890,-0.200
16.139,0.825,-0.200
16.142,0.770,-0.210
16.144,0.720,-0.225
16.147,0.665,-0.250
16.150,0.580,-0.295
16.153,0.480,-0.335
16.156,0.395,-0.355
16.158,0.305,-0.365
16.161,0.235,-0.405
16.164,0.135,-0.450
16.167,0.020,-0.530
16.169,-0.115,-0.605
16.172,-0.250,-0.660
16.175,-0.375,-0.695
16.178,-0.525,-0.735
16.181,-0.640,-0.775
16.183,-0.780,-0.845
16.186,-0.955,-0.940
16.189,-1.125,-1.035
16.192,-1.265,-1.125
16.194,-1.380,-1.220
16.197,-1.480,-1.290
16.200,-1.540,-1.375
16.203,-1.615,-1.430
16.206,-1.660,-1.510
16.208,-1.710,-1.560
16.211,-1.770,-1.620
16.214,-1.860,-1.670
16.217,-1.990,-1.740
16.219,-2.100,-1.820
16.222,-2.170,-1.880
16.225,-2.220,-1.930
16.228,-2.285,-1.930
16.231,-2.350,-1.830
16.233,-2.375,-1.715
16.236,-2.345,-1.595
16.239,-2.240,-1.440
16.242,-2.125,-1.275
16.244,-2.005,-1.135
16.247,-1.885,-1.005
16.250,-1.740,-0.890
16.253,-1.625,-0.820
16.256,-1.540,-0.700
16.258,-1.455,-0.590
16.261,-1.395,-0.490
16.264,-1.300,-0.400
16.267,-1.245,-0.345
16.269,-1.205,-0.280
16.272,-1.165,-0.225
16.275,-1.110,-0.155
16.278,-1.065,-0.080
16.281,-1.030,-0.045
16.283,-1.025,-0.010
16.286,-1.015,0.005
16.289,-0.990,0.050
16.292,-0.945,0.105
16.294,-0.880,0.145
16.297,-0.810,0.170
16.300,-0.750,0.200
16.303,-0.700,0.225
16.306,-0.650,0.270
16.308,-0.580,0.305
16.311,-0.500,0.340
16.314,-0.420,0.370
16.317,-0.335,0.395
16.319,-0.265,0.395
16.322,-0.205,0.425
16.325,-0.130,0.445
16.328,-0.070,0.455
16.331,-0.005,0.455
16.333,0.060,0.450
16.336,0.095,0.460
16.339,0.115,0.475
16.342,0.135,0.495
16.344,0.155,0.505
16.347,0.165,0.515
16.350,0.175,0.505
16.353,0.195,0.515
16.356,0.200,0.535
16.358,0.225,0.550
16.361,0.260,0.570
16.364,0.275,0.580
16.367,0.290,0.580
16.369,0.300,0.580
16.372,0.310,0.590
16.375,0.330,0.605
16.378,0.365,0.635
16.381,0.390,0.635
16.383,0.405,0.640
16.386,0.420,0.645
16.389,0.430,0.670
16.392,0.475,0.695
16.394,0.490,0.705
16.397,0.520,0.710
16.400,0.550,0.725
16.403,0.560,0.725
16.406,0.575,0.745
16.408,0.620,0.770
16.411,0.640,0.800
16.414,0.670,0.815
16.417,0.690,0.815
16.419,0.715,0.820
16.422,0.745,0.850
16.425,0.765,0.870
16.428,0.800,0.895
16.431,0.820,0.900
16.433,0.835,0.895
16.436,0.855,0.915
16.439,0.885,0.940
16.442,0.920,0.950
16.444,0.920,0.970
16.447,0.945,0.965
16.450,0.945,0.965
16.453,0.960,0.955
16.456,0.955,0.970
16.458,0.975,0.980
16.461,0.985,0.990
16.464,0.985,0.980
16.467,0.980,0.975
16.469,0.970,0.970
16.472,0.950,0.975
16.475,0.955,0.975
16.478,0.955,0.970
16.481,0.950,0.950
16.483,0.945,0.930
16.486,0.920,0.900
16.489,0.900,0.885
16.492,0.885,0.875
16.494,0.855,0.855
16.497,0.840,0.820
16.500,0.800,0.775
16.503,0.765,0.735
16.506,0.735,0.700
16.508,0.700,0.695
16.511,0.685,0.660
16.514,0.650,0.635
16.517,0.605,0.580
16.519,0.570,0.530
16.522,0.530,0.515
16.525,0.505,0.495
16.528,0.475,0.465
16.531,0.445,0.450
16.533,0.365,0.405
16.536,0.315,0.380
16.539,0.275,0.360
16.542,0.250,0.345
16.544,0.220,0.340
16.547,0.175,0.315
16.550,0.125,0.300
16.553,0.085,0.275
16.556,0.040,0.265
16.558,0.005,0.280
16.561,-0.015,0.305
16.564,-0.040,0.320
16.567,-0.060,0.350
16.569,-0.100,0.350
16.572,-0.115,0.365
16.575,-0.115,0.385
16.578,-0.125,0.400
16.581,-0.110,0.380
16.583,-0.100,0.395
16.586,-0.085,0.405
16.589,-0.055,0.440
16.592,0.005,0.465
16.594,0.050,0.450
16.597,0.070,0.430
16.600,0.070,0.390
16.603,0.060,0.340
16.606,0.065,0.320
16.608,0.070,0.295
16.611,0.085,0.280
16.614,0.095,0.265
16.617,0.070,0.250
16.619,0.050,0.225
16.622,0.010,0.205
16.625,-0.030,0.190
16.628,-0.050,0.190
16.631,-0.055,0.185
16.633,-0.075,0.185
16.636,-0.095,0.180
16.639,-0.100,0.195
16.642,-0.090,0.200
16.644,-0.100,0.200
16.647,-0.110,0.195
16.650,-0.150,0.195
16.653,-0.170,0.170
16.656,-0.195,0.195
16.658,-0.205,0.205
16.661,-0.210,0.215
16.664,-0.235,0.210
16.667,-0.260,0.225
16.669,-0.285,0.215
16.672,-0.330,0.225
16.675,-0.350,0.230
16.678,-0.370,0.235
16.681,-0.400,0.230
16.683,-0.420,0.220
16.686,-0.470,0.210
16.689,-0.470,0.205
16.692,-0.465,0.200
16.694,-0.450,0.200
16.697,-0.465,0.195
16.700,-0.475,0.175
16.703,-0.505,0.170
16.706,-0.545,0.185
16.708,-0.540,0.190
16.711,-0.535,0.195
16.714,-0.530,0.195
16.717,-0.545,0.200
16.719,-0.555,0.165
16.722,-0.555,0.175
16.725,-0.550,0.185
16.728,-0.545,0.195
16.731,-0.550,0.195
16.733,-0.550,0.165
16.736,-0.570,0.160
16.739,-0.585,0.165
16.742,-0.570,0.170
16.744,-0.570,0.185
16.747,-0.560,0.180
16.750,-0.580,0.175
16.753,-0.590,0.160
16.756,-0.585,0.150
16.758,-0.580,0.170
16.761,-0.585,0.165
16.764,-0.600,0.175
16.767,-0.590,0.170
16.769,-0.570,0.150
16.772,-0.565,0.155
16.775,-0.585,0.175
16.778,-0.585,0.175
16.781,-0.590,0.175
16.783,-0.585,0.185
16.786,-0.565,0.165
16.789,-0.560,0.165
16.792,-0.560,0.180
16.794,-0.560,0.175
16.797,-0.565,0.170
16.800,-0.585,0.175
16.803,-0.595,0.170
16.806,-0.585,0.165
16.808,-0.585,0.175
16.811,-0.575,0.180
16.814,-0.580,0.195
16.817,-0.590,0.195
16.819,-0.610,0.185
16.822,-0.605,0.175
16.825,-0.580,0.185
16.828,-0.570,0.185
16.831,-0.565,0.190
16.833,-0.595,0.175
16.836,-0.590,0.185
16.839,-0.590,0.200
16.842,-0.585,0.210
16.844,-0.580,0.205
16.847,-0.570,0.225
16.850,-0.570,0.200
16.853,-0.580,0.190
16.856,-0.590,0.195
16.858,-0.570,0.215
16.861,-0.565,0.230
16.864,-0.565,0.230
16.867,-0.560,0.220
16.869,-0.560,0.195
16.872,-0.575,0.215
16.875,-0.545,0.220
16.878,-0.540,0.230
16.881,-0.540,0.235
16.883,-0.545,0.230
16.886,-0.545,0.235
16.889,-0.530,0.225
16.892,-0.525,0.240
16.894,-0.510,0.240
16.897,-0.505,0.235
16.900,-0.505,0.230
16.903,-0.500,0.220
16.906,-0.500,0.225
16.908,-0.490,0.225
16.911,-0.480,0.235
16.914,-0.475,0.235
16.917,-0.470,0.215
16.919,-0.470,0.215
16.922,-0.465,0.215
16.925,-0.460,0.220
16.928,-0.450,0.220
16.931,-0.435,0.215
16.933,-0.420,0.205
16.936,-0.430,0.190
16.939,-0.405,0.140
16.942,-0.370,-0.105
16.944,-0.310,-0.415
16.947,-0.210,-0.515
16.950,0.035,-0.325
16.953,0.485,-0.140
16.956,1.115,-0.045
16.958,1.590,-0.035
16.961,1.720,-0.035
16.964,1.565,-0.025
16.967,1.385,-0.015
16.969,1.275,-0.035
16.972,1.210,-0.030
16.975,1.140,-0.050
16.978,1.060,-0.055
16.981,0.965,-0.085
16.983,0.875,-0.110
16.986,0.775,-0.135
16.989,0.675,-0.150
16.992,0.595,-0.175
16.994,0.490,-0.180
16.997,0.360,-0.205
17.000,0.220,-0.230
17.003,0.070,-0.270
17.006,-0.090,-0.310
17.008,-0.230,-0.355
17.011,-0.385,-0.415
17.014,-0.565,-0.485
17.017,-0.745,-0.545
17.019,-0.930,-0.580
17.022,-1.110,-0.630
17.025,-1.285,-0.690
17.028,-1.445,-0.765
17.031,-1.615,-0.885
17.033,-1.785,-1.025
17.036,-1.930,-1.150
17.039,-2.060,-1.225
17.042,-2.115,-1.270
17.044,-2.145,-1.345
17.047,-2.185,-1.440
