'Elapsed time','MLII','V1'
'seconds','mV','mV'
0.000,0.175,0.635
0.003,0.175,0.635
0.006,0.175,0.635
0.008,0.175,0.635
0.011,0.175,0.635
0.014,0.175,0.635
0.017,0.175,0.635
0.019,0.175,0.635
0.022,0.175,0.635
0.025,0.180,0.635
0.028,0.185,0.645
0.031,0.210,0.620
0.033,0.230,0.615
0.036,0.220,0.595
0.039,0.195,0.580
0.042,0.160,0.570
0.044,0.095,0.580
0.047,0.060,0.595
0.050,0.085,0.590
0.053,0.150,0.585
0.056,0.195,0.580
0.058,0.160,0.575
0.061,0.065,0.590
0.064,0.055,0.590
0.067,0.120,0.585
0.069,0.220,0.570
0.072,0.240,0.545
0.075,0.200,0.560
0.078,0.160,0.575
0.081,0.140,0.590
0.083,0.140,0.600
0.086,0.125,0.600
0.089,0.110,0.575
0.092,0.100,0.585
0.094,0.110,0.595
0.097,0.135,0.620
0.100,0.140,0.625
0.103,0.105,0.620
0.106,0.055,0.600
0.108,0.030,0.600
0.111,0.010,0.595
0.114,0.015,0.610
0.117,-0.015,0.610
0.119,-0.035,0.615
0.122,-0.060,0.610
0.125,-0.090,0.595
0.128,-0.125,0.620
0.131,-0.125,0.655
0.133,-0.110,0.660
0.136,-0.110,0.650
0.139,-0.110,0.605
0.142,-0.130,0.565
0.144,-0.130,0.545
0.147,-0.135,0.550
0.150,-0.140,0.565
0.153,-0.150,0.580
0.156,-0.175,0.580
0.158,-0.160,0.580
0.161,-0.165,0.580
0.164,-0.170,0.585
0.167,-0.185,0.585
0.169,-0.195,0.580
0.172,-0.180,0.570
0.175,-0.165,0.555
0.178,-0.175,0.560
0.181,-0.200,0.590
0.183,-0.215,0.590
0.186,-0.215,0.575
0.189,-0.185,0.570
0.192,-0.170,0.555
0.194,-0.190,0.550
0.197,-0.230,0.545
0.200,-0.230,0.565
0.203,-0.210,0.565
0.206,-0.175,0.545
0.208,-0.160,0.525
0.211,-0.170,0.525
0.214,-0.190,0.560
0.217,-0.195,0.560
0.219,-0.190,0.550
0.222,-0.165,0.530
0.225,-0.160,0.525
0.228,-0.180,0.540
0.231,-0.190,0.545
0.233,-0.175,0.535
0.236,-0.180,0.520
0.239,-0.175,0.520
0.242,-0.195,0.515
0.244,-0.200,0.535
0.247,-0.180,0.570
0.250,-0.185,0.570
0.253,-0.195,0.575
0.256,-0.210,0.590
0.258,-0.245,0.610
0.261,-0.240,0.625
0.264,-0.185,0.630
0.267,-0.080,0.605
0.269,0.025,0.560
0.272,0.110,0.490
0.275,0.170,0.400
0.278,0.200,0.345
0.281,0.205,0.310
0.283,0.235,0.225
0.286,0.330,0.100
0.289,0.425,-0.085
0.292,0.535,-0.260
0.294,0.600,-0.370
0.297,0.630,-0.395
0.300,0.610,-0.365
0.303,0.575,-0.365
0.306,0.550,-0.375
0.308,0.535,-0.340
0.311,0.520,-0.285
0.314,0.490,-0.220
0.317,0.445,-0.180
0.319,0.390,-0.130
0.322,0.330,-0.095
0.325,0.270,-0.060
0.328,0.220,-0.010
0.331,0.175,0.045
0.333,0.095,0.070
0.336,-0.020,0.095
0.339,-0.145,0.100
0.342,-0.280,0.130
0.344,-0.405,0.170
0.347,-0.490,0.200
0.350,-0.545,0.230
0.353,-0.570,0.255
0.356,-0.620,0.265
0.358,-0.660,0.285
0.361,-0.700,0.310
0.364,-0.690,0.325
0.367,-0.670,0.345
0.369,-0.660,0.355
0.372,-0.655,0.360
0.375,-0.660,0.380
0.378,-0.640,0.410
0.381,-0.615,0.445
0.383,-0.595,0.450
0.386,-0.590,0.470
0.389,-0.575,0.465
0.392,-0.580,0.470
0.394,-0.580,0.485
0.397,-0.560,0.515
0.400,-0.515,0.510
0.403,-0.485,0.530
0.406,-0.475,0.515
0.408,-0.485,0.510
0.411,-0.485,0.520
0.414,-0.465,0.525
0.417,-0.460,0.535
0.419,-0.460,0.520
0.422,-0.460,0.520
0.425,-0.470,0.510
0.428,-0.475,0.535
0.431,-0.465,0.535
0.433,-0.470,0.535
0.436,-0.485,0.535
0.439,-0.485,0.525
0.442,-0.505,0.520
0.444,-0.505,0.535
0.447,-0.500,0.545
0.450,-0.490,0.535
0.453,-0.490,0.530
0.456,-0.495,0.525
0.458,-0.505,0.530
0.461,-0.530,0.535
0.464,-0.530,0.560
0.467,-0.520,0.560
0.469,-0.500,0.555
0.472,-0.495,0.525
0.475,-0.505,0.530
0.478,-0.520,0.525
0.481,-0.515,0.535
0.483,-0.505,0.530
0.486,-0.505,0.525
0.489,-0.515,0.520
0.492,-0.515,0.510
0.494,-0.520,0.530
0.497,-0.500,0.535
0.500,-0.485,0.535
0.503,-0.495,0.530
0.506,-0.490,0.515
0.508,-0.485,0.510
0.511,-0.480,0.495
0.514,-0.480,0.505
0.517,-0.480,0.510
0.519,-0.455,0.505
0.522,-0.450,0.490
0.525,-0.435,0.480
0.528,-0.445,0.485
0.531,-0.415,0.490
0.533,-0.415,0.485
0.536,-0.405,0.475
0.539,-0.395,0.465
0.542,-0.385,0.460
0.544,-0.385,0.465
0.547,-0.370,0.480
0.550,-0.350,0.475
0.553,-0.350,0.470
0.556,-0.365,0.440
0.558,-0.375,0.430
0.561,-0.350,0.420
0.564,-0.305,0.450
0.567,-0.265,0.430
0.569,-0.255,0.420
0.572,-0.275,0.420
0.575,-0.285,0.390
0.578,-0.280,0.380
0.581,-0.240,0.390
0.583,-0.210,0.380
0.586,-0.215,0.370
0.589,-0.225,0.360
0.592,-0.220,0.340
0.594,-0.240,0.355
0.597,-0.230,0.350
0.600,-0.200,0.345
0.603,-0.190,0.320
0.606,-0.180,0.300
0.608,-0.185,0.305
0.611,-0.195,0.295
0.614,-0.185,0.310
0.617,-0.155,0.295
0.619,-0.160,0.285
0.622,-0.175,0.270
0.625,-0.185,0.260
0.628,-0.185,0.250
0.631,-0.180,0.265
0.633,-0.170,0.250
0.636,-0.170,0.250
0.639,-0.180,0.240
0.642,-0.175,0.240
0.644,-0.165,0.240
0.647,-0.145,0.255
0.650,-0.125,0.255
0.653,-0.125,0.230
0.656,-0.135,0.230
0.658,-0.160,0.210
0.661,-0.185,0.225
0.664,-0.195,0.210
0.667,-0.160,0.225
0.669,-0.145,0.215
0.672,-0.150,0.180
0.675,-0.180,0.170
0.678,-0.210,0.175
0.681,-0.190,0.190
0.683,-0.180,0.185
0.686,-0.185,0.180
0.689,-0.215,0.160
0.692,-0.235,0.150
0.694,-0.240,0.155
0.697,-0.200,0.160
0.700,-0.160,0.170
0.703,-0.145,0.165
0.706,-0.175,0.155
0.708,-0.195,0.160
0.711,-0.200,0.160
0.714,-0.190,0.175
0.717,-0.170,0.180
0.719,-0.185,0.170
0.722,-0.205,0.150
0.725,-0.220,0.150
0.728,-0.215,0.160
0.731,-0.195,0.175
0.733,-0.185,0.170
0.736,-0.195,0.165
0.739,-0.210,0.170
0.742,-0.240,0.160
0.744,-0.265,0.185
0.747,-0.275,0.175
0.750,-0.295,0.175
0.753,-0.320,0.185
0.756,-0.355,0.175
0.758,-0.375,0.160
0.761,-0.405,0.165
0.764,-0.425,0.185
0.767,-0.435,0.175
0.769,-0.450,0.180
0.772,-0.440,0.160
0.775,-0.440,0.150
0.778,-0.440,0.155
0.781,-0.430,0.170
0.783,-0.420,0.170
0.786,-0.430,0.160
0.789,-0.435,0.150
0.792,-0.455,0.140
0.794,-0.470,0.155
0.797,-0.475,0.155
0.800,-0.455,0.155
0.803,-0.460,0.135
0.806,-0.465,0.120
0.808,-0.485,0.120
0.811,-0.485,0.120
0.814,-0.470,0.125
0.817,-0.455,0.125
0.819,-0.450,0.130
0.822,-0.460,0.110
0.825,-0.460,0.105
0.828,-0.450,0.120
0.831,-0.440,0.125
0.833,-0.435,0.125
0.836,-0.455,0.120
0.839,-0.475,0.100
0.842,-0.480,0.105
0.844,-0.475,0.110
0.847,-0.445,0.110
0.850,-0.430,0.110
0.853,-0.470,0.100
0.856,-0.490,0.080
0.858,-0.505,0.075
0.861,-0.485,0.105
0.864,-0.445,0.105
0.867,-0.425,0.095
0.869,-0.430,0.080
0.872,-0.450,0.075
0.875,-0.470,0.060
0.878,-0.465,0.070
0.881,-0.455,0.085
0.883,-0.440,0.085
0.886,-0.460,0.075
0.889,-0.485,0.085
0.892,-0.485,0.085
0.894,-0.495,0.100
0.897,-0.485,0.155
0.900,-0.495,0.160
0.903,-0.495,0.170
0.906,-0.485,0.155
0.908,-0.415,0.125
0.911,-0.315,0.090
0.914,-0.205,0.070
0.917,-0.125,-0.010
0.919,-0.085,-0.090
0.922,-0.050,-0.165
0.925,-0.035,-0.235
0.928,0.030,-0.325
0.931,0.140,-0.465
0.933,0.255,-0.610
0.936,0.315,-0.745
0.939,0.370,-0.840
0.942,0.395,-0.875
0.944,0.400,-0.885
0.947,0.390,-0.885
0.950,0.395,-0.870
0.953,0.365,-0.845
0.956,0.345,-0.810
0.958,0.290,-0.755
0.961,0.220,-0.695
0.964,0.190,-0.630
0.967,0.170,-0.575
0.969,0.105,-0.525
0.972,0.020,-0.480
0.975,-0.065,-0.440
0.978,-0.170,-0.380
0.981,-0.305,-0.345
0.983,-0.415,-0.310
0.986,-0.555,-0.285
0.989,-0.665,-0.280
0.992,-0.750,-0.245
0.994,-0.805,-0.210
0.997,-0.845,-0.185
1.000,-0.885,-0.160
1.003,-0.910,-0.150
1.006,-0.905,-0.150
1.008,-0.910,-0.120
1.011,-0.925,-0.085
1.014,-0.905,-0.045
1.017,-0.880,-0.025
1.019,-0.850,-0.010
1.022,-0.840,-0.005
1.025,-0.830,0.000
1.028,-0.830,0.035
1.031,-0.810,0.055
1.033,-0.770,0.060
1.036,-0.760,0.060
1.039,-0.745,0.070
1.042,-0.730,0.070
1.044,-0.710,0.085
1.047,-0.710,0.090
1.050,-0.680,0.100
1.053,-0.690,0.110
1.056,-0.690,0.090
1.058,-0.695,0.090
1.061,-0.695,0.095
1.064,-0.700,0.100
1.067,-0.690,0.100
1.069,-0.695,0.100
1.072,-0.710,0.095
1.075,-0.705,0.090
1.078,-0.715,0.095
1.081,-0.715,0.120
1.083,-0.710,0.110
1.086,-0.720,0.115
1.089,-0.725,0.100
1.092,-0.735,0.110
1.094,-0.735,0.110
1.097,-0.715,0.120
1.100,-0.710,0.135
1.103,-0.720,0.145
1.106,-0.735,0.120
1.108,-0.750,0.130
1.111,-0.755,0.125
1.114,-0.740,0.130
1.117,-0.720,0.140
1.119,-0.730,0.150
1.122,-0.735,0.120
1.125,-0.735,0.130
1.128,-0.740,0.130
1.131,-0.730,0.145
1.133,-0.700,0.135
1.136,-0.710,0.140
1.139,-0.710,0.130
1.142,-0.715,0.125
1.144,-0.720,0.135
1.147,-0.695,0.155
1.150,-0.675,0.155
1.153,-0.665,0.155
1.156,-0.655,0.135
1.158,-0.665,0.115
1.161,-0.660,0.110
1.164,-0.655,0.115
1.167,-0.625,0.130
1.169,-0.605,0.125
1.172,-0.605,0.125
1.175,-0.605,0.120
1.178,-0.605,0.110
1.181,-0.590,0.115
1.183,-0.555,0.120
1.186,-0.535,0.105
1.189,-0.530,0.095
1.192,-0.525,0.085
1.194,-0.530,0.070
1.197,-0.505,0.095
1.200,-0.470,0.075
1.203,-0.455,0.075
1.206,-0.460,0.045
1.208,-0.455,0.035
1.211,-0.450,0.040
1.214,-0.420,0.035
1.217,-0.400,0.035
1.219,-0.400,0.035
1.222,-0.390,0.015
1.225,-0.390,-0.005
1.228,-0.390,0.000
1.231,-0.380,-0.005
1.233,-0.370,-0.005
1.236,-0.365,-0.020
1.239,-0.370,-0.060
1.242,-0.365,-0.055
1.244,-0.355,-0.060
1.247,-0.345,-0.055
1.250,-0.315,-0.070
1.253,-0.315,-0.080
1.256,-0.320,-0.100
1.258,-0.340,-0.105
1.261,-0.345,-0.110
1.264,-0.340,-0.105
1.267,-0.315,-0.115
1.269,-0.310,-0.115
1.272,-0.295,-0.115
1.275,-0.285,-0.130
1.278,-0.270,-0.135
1.281,-0.270,-0.135
1.283,-0.295,-0.140
1.286,-0.310,-0.135
1.289,-0.320,-0.140
1.292,-0.340,-0.135
1.294,-0.360,-0.140
1.297,-0.365,-0.140
1.300,-0.360,-0.135
1.303,-0.360,-0.135
1.306,-0.355,-0.150
1.308,-0.360,-0.145
1.311,-0.360,-0.145
1.314,-0.335,-0.130
1.317,-0.310,-0.125
1.319,-0.310,-0.140
1.322,-0.295,-0.165
1.325,-0.300,-0.165
1.328,-0.290,-0.190
1.331,-0.310,-0.175
1.333,-0.335,-0.185
1.336,-0.365,-0.180
1.339,-0.375,-0.180
1.342,-0.400,-0.160
1.344,-0.400,-0.150
1.347,-0.390,-0.125
1.350,-0.370,-0.115
1.353,-0.385,-0.110
1.356,-0.375,-0.130
1.358,-0.385,-0.140
1.361,-0.390,-0.140
1.364,-0.385,-0.135
1.367,-0.375,-0.125
1.369,-0.410,-0.135
1.372,-0.455,-0.135
1.375,-0.490,-0.110
1.378,-0.535,-0.080
1.381,-0.550,-0.050
1.383,-0.570,-0.060
1.386,-0.590,-0.060
1.389,-0.605,-0.095
1.392,-0.620,-0.120
1.394,-0.620,-0.130
1.397,-0.610,-0.130
1.400,-0.595,-0.155
1.403,-0.615,-0.155
1.406,-0.610,-0.165
1.408,-0.620,-0.180
1.411,-0.615,-0.165
1.414,-0.620,-0.175
1.417,-0.615,-0.185
1.419,-0.640,-0.175
1.422,-0.655,-0.175
1.425,-0.665,-0.185
1.428,-0.665,-0.165
1.431,-0.645,-0.150
1.433,-0.630,-0.165
1.436,-0.630,-0.185
1.439,-0.640,-0.190
1.442,-0.640,-0.190
1.444,-0.635,-0.170
1.447,-0.590,-0.145
1.450,-0.570,-0.135
1.453,-0.570,-0.160
1.456,-0.590,-0.180
1.458,-0.615,-0.205
1.461,-0.625,-0.190
1.464,-0.625,-0.160
1.467,-0.630,-0.155
1.469,-0.630,-0.155
1.472,-0.605,-0.155
1.475,-0.610,-0.155
1.478,-0.605,-0.120
1.481,-0.620,-0.085
1.483,-0.610,-0.060
1.486,-0.590,-0.040
1.489,-0.555,0.000
1.492,-0.540,0.005
1.494,-0.540,0.010
1.497,-0.575,-0.015
1.500,-0.590,-0.055
1.503,-0.620,-0.100
1.506,-0.655,-0.155
1.508,-0.665,-0.215
1.511,-0.680,-0.235
1.514,-0.645,-0.250
1.517,-0.600,-0.255
1.519,-0.620,-0.270
1.522,-0.655,-0.250
1.525,-0.720,-0.230
1.528,-0.740,-0.170
1.531,-0.740,-0.150
1.533,-0.720,-0.140
1.536,-0.665,-0.155
1.539,-0.575,-0.185
1.542,-0.445,-0.225
1.544,-0.340,-0.260
1.547,-0.230,-0.320
1.550,-0.145,-0.385
1.553,-0.095,-0.445
1.556,-0.050,-0.500
1.558,-0.005,-0.580
1.561,0.075,-0.670
1.564,0.200,-0.800
1.567,0.305,-0.920
1.569,0.410,-1.045
1.572,0.500,-1.155
1.575,0.560,-1.215
1.578,0.590,-1.225
1.581,0.585,-1.225
1.583,0.585,-1.230
1.586,0.555,-1.210
1.589,0.535,-1.180
1.592,0.480,-1.125
1.594,0.385,-1.055
1.597,0.310,-0.980
1.600,0.225,-0.900
1.603,0.160,-0.795
1.606,0.085,-0.745
1.608,0.035,-0.690
1.611,-0.050,-0.635
1.614,-0.185,-0.530
1.617,-0.365,-0.455
1.619,-0.575,-0.365
1.622,-0.760,-0.320
1.625,-0.905,-0.285
1.628,-1.025,-0.255
1.631,-1.110,-0.220
1.633,-1.150,-0.260
1.636,-1.190,-0.345
1.639,-1.205,-0.445
1.642,-1.200,-0.505
1.644,-1.205,-0.515
1.647,-1.180,-0.520
1.650,-1.165,-0.505
1.653,-1.150,-0.500
1.656,-1.125,-0.505
1.658,-1.140,-0.470
1.661,-1.155,-0.405
1.664,-1.165,-0.325
1.667,-1.155,-0.280
1.669,-1.130,-0.255
1.672,-1.095,-0.260
1.675,-1.060,-0.250
1.678,-1.010,-0.230
1.681,-0.980,-0.195
1.683,-0.965,-0.175
1.686,-0.975,-0.165
1.689,-0.980,-0.155
1.692,-0.995,-0.160
1.694,-0.990,-0.145
1.697,-0.985,-0.145
1.700,-0.975,-0.145
1.703,-0.980,-0.150
1.706,-0.960,-0.180
1.708,-0.925,-0.175
1.711,-0.915,-0.180
1.714,-0.910,-0.150
1.717,-0.935,-0.160
1.719,-0.985,-0.155
1.722,-1.005,-0.165
1.725,-1.030,-0.150
1.728,-1.055,-0.140
1.731,-1.060,-0.150
1.733,-1.070,-0.130
1.736,-1.075,-0.125
1.739,-1.080,-0.105
1.742,-1.085,-0.105
1.744,-1.080,-0.085
1.747,-1.055,-0.075
1.750,-1.040,-0.050
1.753,-1.040,-0.050
1.756,-1.025,-0.075
1.758,-1.035,-0.080
1.761,-1.040,-0.055
1.764,-1.030,-0.020
1.767,-1.025,-0.015
1.769,-1.010,-0.020
1.772,-1.010,-0.080
1.775,-1.010,-0.135
1.778,-1.010,-0.145
1.781,-0.995,-0.115
1.783,-0.980,-0.040
1.786,-0.995,0.045
1.789,-1.005,0.100
1.792,-1.015,0.090
1.794,-1.000,0.060
1.797,-0.950,-0.015
1.800,-0.915,-0.095
1.803,-0.875,-0.175
1.806,-0.885,-0.235
1.808,-0.935,-0.260
1.811,-0.960,-0.265
1.814,-0.955,-0.255
1.817,-0.925,-0.230
1.819,-0.875,-0.205
1.822,-0.835,-0.200
1.825,-0.835,-0.190
1.828,-0.855,-0.160
1.831,-0.865,-0.155
1.833,-0.880,-0.140
1.836,-0.880,-0.150
1.839,-0.870,-0.160
1.842,-0.835,-0.180
1.844,-0.815,-0.165
1.847,-0.800,-0.155
1.850,-0.780,-0.145
1.853,-0.760,-0.140
1.856,-0.740,-0.180
1.858,-0.720,-0.200
1.861,-0.720,-0.200
1.864,-0.710,-0.190
1.867,-0.690,-0.190
1.869,-0.685,-0.225
1.872,-0.675,-0.240
1.875,-0.685,-0.235
1.878,-0.635,-0.210
1.881,-0.600,-0.195
1.883,-0.565,-0.205
1.886,-0.570,-0.220
1.889,-0.595,-0.220
1.892,-0.605,-0.225
1.894,-0.590,-0.250
1.897,-0.555,-0.260
1.900,-0.545,-0.265
1.903,-0.555,-0.270
1.906,-0.560,-0.290
1.908,-0.565,-0.310
1.911,-0.580,-0.315
1.914,-0.570,-0.300
1.917,-0.550,-0.265
1.919,-0.515,-0.250
1.922,-0.465,-0.240
1.925,-0.460,-0.275
1.928,-0.465,-0.315
1.931,-0.495,-0.365
1.933,-0.545,-0.410
1.936,-0.580,-0.410
1.939,-0.570,-0.415
1.942,-0.565,-0.415
1.944,-0.550,-0.385
1.947,-0.510,-0.360
1.950,-0.500,-0.345
1.953,-0.515,-0.340
1.956,-0.580,-0.355
1.958,-0.615,-0.390
1.961,-0.605,-0.410
1.964,-0.560,-0.400
1.967,-0.540,-0.385
1.969,-0.550,-0.370
1.972,-0.600,-0.370
1.975,-0.640,-0.375
1.978,-0.660,-0.380
1.981,-0.640,-0.370
1.983,-0.605,-0.355
1.986,-0.595,-0.350
1.989,-0.575,-0.340
1.992,-0.580,-0.340
1.994,-0.615,-0.335
1.997,-0.630,-0.320
2.000,-0.625,-0.350
2.003,-0.610,-0.360
2.006,-0.600,-0.385
2.008,-0.610,-0.375
2.011,-0.630,-0.330
2.014,-0.620,-0.260
2.017,-0.610,-0.210
2.019,-0.615,-0.200
2.022,-0.635,-0.230
2.025,-0.665,-0.305
2.028,-0.705,-0.325
2.031,-0.735,-0.345
2.033,-0.765,-0.355
2.036,-0.810,-0.365
2.039,-0.815,-0.350
2.042,-0.815,-0.325
2.044,-0.805,-0.270
2.047,-0.795,-0.250
2.050,-0.815,-0.300
2.053,-0.860,-0.365
2.056,-0.885,-0.420
2.058,-0.885,-0.425
2.061,-0.855,-0.410
2.064,-0.830,-0.395
2.067,-0.820,-0.375
2.069,-0.845,-0.385
2.072,-0.870,-0.410
2.075,-0.845,-0.430
2.078,-0.820,-0.420
2.081,-0.805,-0.395
2.083,-0.820,-0.380
2.086,-0.840,-0.385
2.089,-0.865,-0.395
2.092,-0.855,-0.400
2.094,-0.860,-0.395
2.097,-0.850,-0.380
2.100,-0.800,-0.380
2.103,-0.775,-0.385
2.106,-0.770,-0.400
2.108,-0.795,-0.405
2.111,-0.845,-0.405
2.114,-0.870,-0.405
2.117,-0.870,-0.425
2.119,-0.875,-0.455
2.122,-0.890,-0.495
2.125,-0.915,-0.460
2.128,-0.915,-0.425
2.131,-0.890,-0.360
2.133,-0.850,-0.320
2.136,-0.840,-0.310
2.139,-0.855,-0.335
2.142,-0.880,-0.365
2.144,-0.895,-0.370
2.147,-0.900,-0.350
2.150,-0.865,-0.320
2.153,-0.850,-0.315
2.156,-0.855,-0.345
2.158,-0.860,-0.365
2.161,-0.895,-0.365
2.164,-0.910,-0.345
2.167,-0.885,-0.320
2.169,-0.850,-0.330
2.172,-0.830,-0.350
2.175,-0.840,-0.385
2.178,-0.850,-0.405
2.181,-0.860,-0.375
2.183,-0.870,-0.365
2.186,-0.900,-0.345
2.189,-0.930,-0.335
2.192,-0.965,-0.345
2.194,-0.930,-0.340
2.197,-0.830,-0.340
2.200,-0.655,-0.390
2.203,-0.480,-0.440
2.206,-0.360,-0.495
2.208,-0.295,-0.575
2.211,-0.230,-0.665
2.214,-0.200,-0.715
2.217,-0.180,-0.780
2.219,-0.145,-0.870
2.222,-0.080,-0.965
2.225,-0.025,-1.080
2.228,0.060,-1.225
2.231,0.145,-1.340
2.233,0.205,-1.435
2.236,0.210,-1.495
2.239,0.185,-1.525
2.242,0.140,-1.505
2.244,0.100,-1.480
2.247,0.075,-1.440
2.250,0.050,-1.400
2.253,-0.015,-1.370
2.256,-0.095,-1.325
2.258,-0.175,-1.275
2.261,-0.240,-1.210
2.264,-0.295,-1.160
2.267,-0.355,-1.115
2.269,-0.450,-1.100
2.272,-0.545,-1.040
2.275,-0.670,-0.975
2.278,-0.840,-0.900
2.281,-0.995,-0.845
2.283,-1.130,-0.805
2.286,-1.240,-0.770
2.289,-1.345,-0.755
2.292,-1.460,-0.735
2.294,-1.525,-0.675
2.297,-1.555,-0.630
2.300,-1.575,-0.605
2.303,-1.580,-0.600
2.306,-1.565,-0.600
2.308,-1.545,-0.575
2.311,-1.505,-0.545
2.314,-1.495,-0.505
2.317,-1.465,-0.490
2.319,-1.470,-0.485
2.322,-1.450,-0.485
2.325,-1.430,-0.465
2.328,-1.405,-0.425
2.331,-1.375,-0.400
2.333,-1.325,-0.380
2.336,-1.300,-0.370
2.339,-1.300,-0.365
2.342,-1.295,-0.365
2.344,-1.270,-0.350
2.347,-1.240,-0.335
2.350,-1.205,-0.305
2.353,-1.190,-0.310
2.356,-1.160,-0.310
2.358,-1.155,-0.315
2.361,-1.145,-0.305
2.364,-1.130,-0.280
2.367,-1.100,-0.280
2.369,-1.105,-0.285
2.372,-1.115,-0.295
2.375,-1.120,-0.295
2.378,-1.120,-0.295
2.381,-1.110,-0.275
2.383,-1.100,-0.265
2.386,-1.100,-0.275
2.389,-1.120,-0.290
2.392,-1.115,-0.295
2.394,-1.110,-0.265
2.397,-1.100,-0.245
2.400,-1.095,-0.235
2.403,-1.095,-0.240
2.406,-1.095,-0.260
2.408,-1.100,-0.260
2.411,-1.095,-0.240
2.414,-1.100,-0.235
2.417,-1.095,-0.245
2.419,-1.110,-0.235
2.422,-1.110,-0.240
2.425,-1.110,-0.245
2.428,-1.100,-0.245
2.431,-1.090,-0.225
2.433,-1.080,-0.225
2.436,-1.085,-0.235
2.439,-1.090,-0.240
2.442,-1.090,-0.235
2.444,-1.085,-0.225
2.447,-1.070,-0.225
2.450,-1.060,-0.215
2.453,-1.065,-0.200
2.456,-1.070,-0.210
2.458,-1.070,-0.220
2.461,-1.070,-0.205
2.464,-1.045,-0.205
2.467,-1.020,-0.210
2.469,-1.020,-0.215
2.472,-1.030,-0.205
2.475,-1.020,-0.215
2.478,-1.030,-0.210
2.481,-0.990,-0.205
2.483,-0.965,-0.210
2.486,-0.960,-0.200
2.489,-0.965,-0.210
2.492,-0.955,-0.235
2.494,-0.960,-0.215
2.497,-0.930,-0.210
2.500,-0.900,-0.210
2.503,-0.905,-0.215
2.506,-0.890,-0.220
2.508,-0.885,-0.240
2.511,-0.865,-0.235
2.514,-0.855,-0.205
2.517,-0.835,-0.220
2.519,-0.825,-0.220
2.522,-0.820,-0.230
2.525,-0.815,-0.240
2.528,-0.805,-0.245
2.531,-0.790,-0.240
2.533,-0.760,-0.245
2.536,-0.755,-0.245
2.539,-0.735,-0.260
2.542,-0.740,-0.280
2.544,-0.725,-0.275
2.547,-0.720,-0.270
2.550,-0.700,-0.265
2.553,-0.690,-0.280
2.556,-0.675,-0.290
2.558,-0.675,-0.300
2.561,-0.675,-0.310
2.564,-0.655,-0.305
2.567,-0.635,-0.330
2.569,-0.635,-0.315
2.572,-0.640,-0.330
2.575,-0.645,-0.330
2.578,-0.640,-0.335
2.581,-0.625,-0.330
2.583,-0.615,-0.325
2.586,-0.600,-0.345
2.589,-0.610,-0.355
2.592,-0.610,-0.360
2.594,-0.600,-0.345
2.597,-0.575,-0.350
2.600,-0.570,-0.355
2.603,-0.575,-0.360
2.606,-0.570,-0.370
2.608,-0.575,-0.385
2.611,-0.565,-0.375
2.614,-0.555,-0.375
2.617,-0.560,-0.380
2.619,-0.560,-0.390
2.622,-0.550,-0.405
2.625,-0.575,-0.430
2.628,-0.585,-0.430
2.631,-0.595,-0.420
2.633,-0.610,-0.440
2.636,-0.600,-0.435
2.639,-0.600,-0.455
2.642,-0.590,-0.460
2.644,-0.580,-0.435
2.647,-0.570,-0.435
2.650,-0.550,-0.435
2.653,-0.545,-0.445
2.656,-0.550,-0.460
2.658,-0.565,-0.475
2.661,-0.570,-0.450
2.664,-0.555,-0.440
2.667,-0.540,-0.435
2.669,-0.555,-0.445
2.672,-0.575,-0.435
2.675,-0.585,-0.445
2.678,-0.585,-0.440
2.681,-0.585,-0.440
2.683,-0.570,-0.445
2.686,-0.560,-0.450
2.689,-0.565,-0.470
2.692,-0.580,-0.455
2.694,-0.590,-0.455
2.697,-0.600,-0.450
2.700,-0.615,-0.445
2.703,-0.650,-0.475
2.706,-0.695,-0.500
2.708,-0.735,-0.535
2.711,-0.770,-0.550
2.714,-0.785,-0.545
2.717,-0.790,-0.505
2.719,-0.820,-0.460
2.722,-0.840,-0.410
2.725,-0.860,-0.410
2.728,-0.865,-0.390
2.731,-0.870,-0.370
2.733,-0.880,-0.350
2.736,-0.870,-0.340
2.739,-0.880,-0.340
2.742,-0.885,-0.340
2.744,-0.890,-0.340
2.747,-0.865,-0.330
2.750,-0.855,-0.350
2.753,-0.870,-0.370
2.756,-0.870,-0.370
2.758,-0.870,-0.395
2.761,-0.870,-0.390
2.764,-0.865,-0.385
2.767,-0.855,-0.375
2.769,-0.850,-0.370
2.772,-0.860,-0.390
2.775,-0.850,-0.390
2.778,-0.845,-0.375
2.781,-0.830,-0.385
2.783,-0.840,-0.380
2.786,-0.835,-0.380
2.789,-0.835,-0.390
2.792,-0.830,-0.365
2.794,-0.825,-0.365
2.797,-0.815,-0.360
2.800,-0.815,-0.370
2.803,-0.815,-0.380
2.806,-0.830,-0.385
2.808,-0.815,-0.365
2.811,-0.825,-0.350
2.814,-0.800,-0.350
2.817,-0.795,-0.360
2.819,-0.815,-0.360
2.822,-0.820,-0.365
2.825,-0.810,-0.340
2.828,-0.800,-0.325
2.831,-0.790,-0.330
2.833,-0.795,-0.330
2.836,-0.805,-0.335
2.839,-0.800,-0.330
2.842,-0.800,-0.300
2.844,-0.810,-0.285
2.847,-0.815,-0.260
2.850,-0.815,-0.235
2.853,-0.830,-0.220
2.856,-0.845,-0.215
2.858,-0.830,-0.200
2.861,-0.780,-0.195
2.864,-0.675,-0.220
2.867,-0.580,-0.270
2.869,-0.485,-0.340
2.872,-0.400,-0.410
2.875,-0.350,-0.480
2.878,-0.330,-0.545
2.881,-0.295,-0.595
2.883,-0.250,-0.700
2.886,-0.155,-0.830
2.889,-0.070,-0.995
2.892,-0.010,-1.135
2.894,0.080,-1.240
2.897,0.135,-1.300
2.900,0.145,-1.330
2.903,0.130,-1.345
2.906,0.125,-1.330
2.908,0.115,-1.305
2.911,0.115,-1.250
2.914,0.100,-1.190
2.917,0.045,-1.120
2.919,-0.010,-1.080
2.922,-0.085,-1.040
2.925,-0.130,-0.970
2.928,-0.160,-0.905
2.931,-0.210,-0.885
2.933,-0.275,-0.840
2.936,-0.385,-0.835
2.939,-0.495,-0.835
2.942,-0.630,-0.805
2.944,-0.750,-0.715
2.947,-0.860,-0.600
2.950,-1.010,-0.495
2.953,-1.115,-0.450
2.956,-1.190,-0.415
2.958,-1.230,-0.385
2.961,-1.230,-0.360
2.964,-1.240,-0.340
2.967,-1.240,-0.315
2.969,-1.245,-0.290
2.972,-1.235,-0.270
2.975,-1.240,-0.240
2.978,-1.240,-0.205
2.981,-1.220,-0.190
2.983,-1.195,-0.185
2.986,-1.170,-0.155
2.989,-1.140,-0.120
2.992,-1.125,-0.075
2.994,-1.100,-0.035
2.997,-1.075,0.000
3.000,-1.045,0.025
3.003,-1.040,0.030
3.006,-1.030,0.045
3.008,-1.000,0.075
3.011,-0.950,0.095
3.014,-0.925,0.115
3.017,-0.920,0.130
3.019,-0.915,0.135
3.022,-0.910,0.125
3.025,-0.905,0.110
3.028,-0.895,0.130
3.031,-0.885,0.165
3.033,-0.870,0.180
3.036,-0.880,0.215
3.039,-0.910,0.225
3.042,-0.910,0.235
3.044,-0.895,0.240
3.047,-0.875,0.255
3.050,-0.890,0.240
3.053,-0.885,0.250
3.056,-0.890,0.245
3.058,-0.890,0.255
3.061,-0.870,0.265
3.064,-0.860,0.275
3.067,-0.890,0.275
3.069,-0.890,0.300
3.072,-0.915,0.315
3.075,-0.890,0.340
3.078,-0.870,0.385
3.081,-0.870,0.380
3.083,-0.860,0.390
3.086,-0.885,0.365
3.089,-0.875,0.375
3.092,-0.885,0.400
3.094,-0.880,0.435
3.097,-0.860,0.450
3.100,-0.855,0.455
3.103,-0.865,0.440
3.106,-0.870,0.440
3.108,-0.875,0.480
3.111,-0.860,0.525
3.114,-0.840,0.550
3.117,-0.840,0.560
3.119,-0.820,0.535
3.122,-0.850,0.540
3.125,-0.840,0.550
3.128,-0.820,0.550
3.131,-0.810,0.560
3.133,-0.820,0.565
3.136,-0.800,0.555
3.139,-0.790,0.550
3.142,-0.765,0.565
3.144,-0.755,0.585
3.147,-0.730,0.600
3.150,-0.730,0.605
3.153,-0.725,0.595
3.156,-0.735,0.605
3.158,-0.715,0.615
3.161,-0.700,0.635
3.164,-0.680,0.630
3.167,-0.675,0.625
3.169,-0.680,0.620
3.172,-0.675,0.620
3.175,-0.670,0.620
3.178,-0.650,0.650
3.181,-0.620,0.660
3.183,-0.600,0.665
3.186,-0.610,0.640
3.189,-0.590,0.640
3.192,-0.585,0.655
3.194,-0.580,0.680
3.197,-0.540,0.670
3.200,-0.530,0.665
3.203,-0.535,0.660
3.206,-0.535,0.650
3.208,-0.525,0.660
3.211,-0.510,0.675
3.214,-0.490,0.675
3.217,-0.470,0.655
3.219,-0.465,0.645
3.222,-0.465,0.650
3.225,-0.470,0.645
3.228,-0.450,0.665
3.231,-0.420,0.660
3.233,-0.420,0.660
3.236,-0.430,0.650
3.239,-0.440,0.650
3.242,-0.440,0.665
3.244,-0.425,0.670
3.247,-0.405,0.675
3.250,-0.410,0.670
3.253,-0.410,0.665
3.256,-0.400,0.670
3.258,-0.390,0.685
3.261,-0.380,0.695
3.264,-0.385,0.690
3.267,-0.375,0.700
3.269,-0.385,0.690
3.272,-0.380,0.715
3.275,-0.350,0.710
3.278,-0.355,0.740
3.281,-0.350,0.750
3.283,-0.375,0.730
3.286,-0.385,0.715
3.289,-0.405,0.710
3.292,-0.410,0.715
3.294,-0.390,0.720
3.297,-0.370,0.725
3.300,-0.370,0.735
3.303,-0.380,0.715
3.306,-0.390,0.705
3.308,-0.375,0.710
3.311,-0.360,0.730
3.314,-0.360,0.730
3.317,-0.360,0.735
3.319,-0.380,0.735
3.322,-0.380,0.745
3.325,-0.375,0.760
3.328,-0.380,0.780
3.331,-0.365,0.785
3.333,-0.395,0.810
3.336,-0.385,0.800
3.339,-0.390,0.790
3.342,-0.415,0.810
3.344,-0.390,0.815
3.347,-0.370,0.830
3.350,-0.360,0.830
3.353,-0.365,0.825
3.356,-0.390,0.835
3.358,-0.420,0.845
3.361,-0.435,0.870
3.364,-0.450,0.850
3.367,-0.485,0.845
3.369,-0.510,0.835
3.372,-0.545,0.865
3.375,-0.580,0.890
3.378,-0.595,0.925
3.381,-0.605,0.945
3.383,-0.615,0.945
3.386,-0.620,0.930
3.389,-0.640,0.930
3.392,-0.640,0.945
3.394,-0.630,0.945
3.397,-0.635,0.950
3.400,-0.650,0.955
3.403,-0.660,0.950
3.406,-0.680,0.935
3.408,-0.675,0.960
3.411,-0.670,0.945
3.414,-0.665,0.945
3.417,-0.655,0.945
3.419,-0.660,0.935
3.422,-0.680,0.940
3.425,-0.695,0.945
3.428,-0.685,0.960
3.431,-0.685,0.955
3.433,-0.690,0.960
3.436,-0.675,0.955
3.439,-0.685,0.960
3.442,-0.685,0.960
3.444,-0.685,0.970
3.447,-0.670,0.965
3.450,-0.665,0.955
3.453,-0.660,0.950
3.456,-0.680,0.940
3.458,-0.685,0.955
3.461,-0.680,0.970
3.464,-0.665,0.960
3.467,-0.660,0.945
3.469,-0.680,0.950
3.472,-0.695,0.970
3.475,-0.685,0.990
3.478,-0.665,1.015
3.481,-0.650,1.010
3.483,-0.650,0.990
3.486,-0.655,0.975
3.489,-0.665,0.980
3.492,-0.665,0.970
3.494,-0.655,0.990
3.497,-0.640,0.985
3.500,-0.640,0.985
3.503,-0.650,0.995
3.506,-0.665,0.995
3.508,-0.650,1.025
3.511,-0.650,1.045
3.514,-0.670,1.055
3.517,-0.685,1.085
3.519,-0.715,1.105
3.522,-0.705,1.110
3.525,-0.675,1.125
3.528,-0.595,1.115
3.531,-0.490,1.080
3.533,-0.385,1.020
3.536,-0.285,0.960
3.539,-0.205,0.880
3.542,-0.175,0.790
3.544,-0.140,0.750
3.547,-0.075,0.675
3.550,0.020,0.545
3.553,0.105,0.365
3.556,0.190,0.210
3.558,0.260,0.075
3.561,0.320,0.000
3.564,0.375,-0.035
3.567,0.380,-0.040
3.569,0.360,-0.035
3.572,0.350,-0.045
3.575,0.325,-0.010
3.578,0.315,0.040
3.581,0.300,0.080
3.583,0.230,0.135
3.586,0.145,0.180
3.589,0.055,0.235
3.592,-0.005,0.290
3.594,-0.055,0.350
3.597,-0.145,0.405
3.600,-0.250,0.460
3.603,-0.410,0.505
3.606,-0.555,0.560
3.608,-0.700,0.600
3.611,-0.815,0.640
3.614,-0.925,0.655
3.617,-1.010,0.690
3.619,-1.080,0.710
3.622,-1.125,0.735
3.625,-1.155,0.760
3.628,-1.160,0.785
3.631,-1.160,0.800
3.633,-1.155,0.830
3.636,-1.155,0.835
3.639,-1.165,0.845
3.642,-1.135,0.890
3.644,-1.100,0.915
3.647,-1.055,0.930
3.650,-1.035,0.955
3.653,-1.015,0.970
3.656,-1.010,0.965
3.658,-0.985,0.995
3.661,-0.960,1.020
3.664,-0.935,1.025
3.667,-0.900,1.025
3.669,-0.895,1.035
3.672,-0.910,1.045
3.675,-0.880,1.065
3.678,-0.865,1.070
3.681,-0.825,1.065
3.683,-0.815,1.060
3.686,-0.810,1.050
3.689,-0.815,1.050
3.692,-0.820,1.045
3.694,-0.825,1.060
3.697,-0.810,1.050
3.700,-0.820,1.040
3.703,-0.825,1.035
3.706,-0.825,1.040
3.708,-0.815,1.045
3.711,-0.820,1.040
3.714,-0.810,1.050
3.717,-0.810,1.040
3.719,-0.815,1.045
3.722,-0.830,1.030
3.725,-0.820,1.050
3.728,-0.810,1.030
3.731,-0.805,1.040
3.733,-0.805,1.040
3.736,-0.815,1.020
3.739,-0.825,1.015
3.742,-0.835,1.030
3.744,-0.820,1.035
3.747,-0.795,1.030
3.750,-0.795,1.030
3.753,-0.805,1.020
3.756,-0.805,1.005
3.758,-0.815,1.005
3.761,-0.795,1.015
3.764,-0.800,1.010
3.767,-0.785,1.005
3.769,-0.780,0.985
3.772,-0.790,0.985
3.775,-0.780,0.985
3.778,-0.770,0.995
3.781,-0.750,0.990
3.783,-0.750,0.985
3.786,-0.755,0.955
3.789,-0.745,0.940
3.792,-0.720,0.950
3.794,-0.690,0.950
3.797,-0.690,0.935
3.800,-0.680,0.930
3.803,-0.685,0.910
3.806,-0.685,0.880
3.808,-0.665,0.900
3.811,-0.640,0.900
3.814,-0.615,0.890
3.817,-0.605,0.875
3.819,-0.610,0.860
3.822,-0.610,0.845
3.825,-0.595,0.835
3.828,-0.595,0.825
3.831,-0.575,0.825
3.833,-0.545,0.815
3.836,-0.535,0.805
3.839,-0.545,0.780
3.842,-0.515,0.785
3.844,-0.500,0.790
3.847,-0.490,0.780
3.850,-0.475,0.755
3.853,-0.460,0.725
3.856,-0.460,0.705
3.858,-0.450,0.705
3.861,-0.435,0.710
3.864,-0.420,0.685
3.867,-0.420,0.670
3.869,-0.425,0.665
3.872,-0.400,0.645
3.875,-0.405,0.635
3.878,-0.400,0.630
3.881,-0.375,0.605
3.883,-0.370,0.590
3.886,-0.380,0.575
3.889,-0.385,0.555
3.892,-0.360,0.555
3.894,-0.365,0.545
3.897,-0.335,0.530
3.900,-0.340,0.515
3.903,-0.330,0.480
3.906,-0.335,0.480
3.908,-0.335,0.485
3.911,-0.310,0.480
3.914,-0.315,0.470
3.917,-0.305,0.465
3.919,-0.320,0.425
3.922,-0.335,0.420
3.925,-0.330,0.435
3.928,-0.310,0.425
3.931,-0.300,0.405
3.933,-0.315,0.380
3.936,-0.330,0.360
3.939,-0.360,0.350
3.942,-0.375,0.340
3.944,-0.370,0.350
3.947,-0.325,0.335
3.950,-0.315,0.330
3.953,-0.315,0.325
3.956,-0.330,0.310
3.958,-0.335,0.310
3.961,-0.310,0.305
3.964,-0.310,0.300
3.967,-0.315,0.295
3.969,-0.305,0.280
3.972,-0.315,0.265
3.975,-0.325,0.270
3.978,-0.320,0.280
3.981,-0.325,0.280
3.983,-0.345,0.265
3.986,-0.360,0.250
3.989,-0.385,0.255
3.992,-0.370,0.275
3.994,-0.355,0.265
3.997,-0.355,0.255
4.000,-0.365,0.275
4.003,-0.365,0.255
4.006,-0.375,0.240
4.008,-0.405,0.240
4.011,-0.435,0.240
4.014,-0.450,0.245
4.017,-0.490,0.255
4.019,-0.535,0.250
4.022,-0.585,0.240
4.025,-0.585,0.245
4.028,-0.595,0.265
4.031,-0.600,0.240
4.033,-0.610,0.225
4.036,-0.615,0.215
4.039,-0.615,0.195
4.042,-0.615,0.200
4.044,-0.620,0.220
4.047,-0.605,0.215
4.050,-0.605,0.195
4.053,-0.620,0.175
4.056,-0.625,0.160
4.058,-0.625,0.165
4.061,-0.625,0.165
4.064,-0.610,0.155
4.067,-0.595,0.155
4.069,-0.610,0.135
4.072,-0.610,0.135
4.075,-0.610,0.130
4.078,-0.600,0.140
4.081,-0.590,0.130
4.083,-0.595,0.130
4.086,-0.590,0.105
4.089,-0.610,0.090
4.092,-0.620,0.100
4.094,-0.600,0.095
4.097,-0.585,0.100
4.100,-0.595,0.075
4.103,-0.605,0.080
4.106,-0.610,0.065
4.108,-0.615,0.070
4.111,-0.605,0.085
4.114,-0.580,0.065
4.117,-0.595,0.060
4.119,-0.595,0.045
4.122,-0.600,0.050
4.125,-0.600,0.050
4.128,-0.595,0.045
4.131,-0.580,0.040
4.133,-0.575,0.045
4.136,-0.580,0.020
4.139,-0.585,0.015
4.142,-0.575,0.015
4.144,-0.565,0.005
4.147,-0.550,-0.015
4.150,-0.555,-0.010
4.153,-0.565,0.000
4.156,-0.590,0.000
4.158,-0.580,0.035
4.161,-0.565,0.045
4.164,-0.555,0.060
4.167,-0.570,0.070
4.169,-0.575,0.060
4.172,-0.590,0.060
4.175,-0.570,0.060
4.178,-0.505,0.035
4.181,-0.405,0.000
4.183,-0.280,-0.065
4.186,-0.150,-0.140
4.189,0.000,-0.235
4.192,0.115,-0.305
4.194,0.145,-0.390
4.197,0.140,-0.455
4.200,0.150,-0.535
4.203,0.175,-0.630
4.206,0.205,-0.785
4.208,0.250,-0.915
4.211,0.320,-1.030
4.214,0.410,-1.140
4.217,0.460,-1.210
4.219,0.480,-1.240
4.222,0.475,-1.245
4.225,0.470,-1.240
4.228,0.480,-1.215
4.231,0.475,-1.175
4.233,0.440,-1.135
4.236,0.350,-1.085
4.239,0.255,-1.030
4.242,0.170,-0.965
4.244,0.090,-0.895
4.247,0.035,-0.855
4.250,-0.055,-0.790
4.253,-0.180,-0.765
4.256,-0.340,-0.700
4.258,-0.485,-0.645
4.261,-0.610,-0.595
4.264,-0.705,-0.560
4.267,-0.815,-0.535
4.269,-0.915,-0.505
4.272,-1.015,-0.485
4.275,-1.060,-0.435
4.278,-1.080,-0.405
4.281,-1.085,-0.375
4.283,-1.085,-0.365
4.286,-1.090,-0.375
4.289,-1.080,-0.345
4.292,-1.075,-0.315
4.294,-1.055,-0.280
4.297,-1.035,-0.260
4.300,-1.025,-0.245
4.303,-0.990,-0.235
4.306,-0.965,-0.215
4.308,-0.925,-0.200
4.311,-0.890,-0.155
4.314,-0.855,-0.145
4.317,-0.835,-0.120
4.319,-0.830,-0.115
4.322,-0.815,-0.095
4.325,-0.780,-0.085
4.328,-0.755,-0.075
4.331,-0.720,-0.065
4.333,-0.700,-0.070
4.336,-0.690,-0.060
4.339,-0.685,-0.060
4.342,-0.675,-0.065
4.344,-0.655,-0.045
4.347,-0.655,-0.050
4.350,-0.645,-0.055
4.353,-0.660,-0.080
4.356,-0.685,-0.070
4.358,-0.680,-0.060
4.361,-0.660,-0.050
4.364,-0.645,-0.065
4.367,-0.650,-0.060
4.369,-0.660,-0.075
4.372,-0.680,-0.070
4.375,-0.695,-0.070
4.378,-0.685,-0.070
4.381,-0.680,-0.070
4.383,-0.675,-0.080
4.386,-0.680,-0.090
4.389,-0.695,-0.085
4.392,-0.715,-0.065
4.394,-0.710,-0.050
4.397,-0.680,-0.040
4.400,-0.680,-0.040
4.403,-0.685,-0.060
4.406,-0.695,-0.065
4.408,-0.705,-0.055
4.411,-0.675,-0.060
4.414,-0.665,-0.055
4.417,-0.680,-0.055
4.419,-0.695,-0.055
4.422,-0.695,-0.070
4.425,-0.685,-0.070
4.428,-0.675,-0.055
4.431,-0.675,-0.060
4.433,-0.665,-0.050
4.436,-0.660,-0.070
4.439,-0.660,-0.095
4.442,-0.655,-0.080
4.444,-0.640,-0.080
4.447,-0.630,-0.075
4.450,-0.620,-0.070
4.453,-0.620,-0.085
4.456,-0.620,-0.095
4.458,-0.610,-0.075
4.461,-0.605,-0.075
4.464,-0.595,-0.065
4.467,-0.590,-0.080
4.469,-0.585,-0.090
4.472,-0.580,-0.115
4.475,-0.570,-0.110
4.478,-0.535,-0.100
4.481,-0.515,-0.100
4.483,-0.510,-0.110
4.486,-0.495,-0.130
4.489,-0.505,-0.145
4.492,-0.475,-0.140
4.494,-0.475,-0.135
4.497,-0.450,-0.140
4.500,-0.435,-0.150
4.503,-0.420,-0.165
4.506,-0.435,-0.175
4.508,-0.410,-0.175
4.511,-0.385,-0.160
4.514,-0.380,-0.160
4.517,-0.375,-0.175
4.519,-0.380,-0.195
4.522,-0.370,-0.210
4.525,-0.360,-0.230
4.528,-0.345,-0.245
4.531,-0.330,-0.250
4.533,-0.325,-0.250
4.536,-0.315,-0.250
4.539,-0.330,-0.265
4.542,-0.305,-0.270
4.544,-0.280,-0.265
4.547,-0.265,-0.280
4.550,-0.260,-0.285
4.553,-0.265,-0.300
4.556,-0.260,-0.305
4.558,-0.245,-0.305
4.561,-0.235,-0.315
4.564,-0.215,-0.345
4.567,-0.210,-0.360
4.569,-0.220,-0.365
4.572,-0.230,-0.345
4.575,-0.215,-0.335
4.578,-0.200,-0.315
4.581,-0.190,-0.320
4.583,-0.190,-0.330
4.586,-0.195,-0.345
4.589,-0.210,-0.360
4.592,-0.210,-0.370
4.594,-0.205,-0.375
4.597,-0.195,-0.375
4.600,-0.205,-0.380
4.603,-0.210,-0.390
4.606,-0.220,-0.420
4.608,-0.230,-0.435
4.611,-0.235,-0.425
4.614,-0.240,-0.450
4.617,-0.230,-0.455
4.619,-0.235,-0.485
4.622,-0.245,-0.460
4.625,-0.245,-0.435
4.628,-0.220,-0.435
4.631,-0.200,-0.430
4.633,-0.200,-0.455
4.636,-0.205,-0.465
4.639,-0.220,-0.455
4.642,-0.220,-0.440
4.644,-0.225,-0.405
4.647,-0.205,-0.415
4.650,-0.210,-0.425
4.653,-0.240,-0.440
4.656,-0.260,-0.450
4.658,-0.265,-0.455
4.661,-0.265,-0.460
4.664,-0.265,-0.460
4.667,-0.260,-0.460
4.669,-0.260,-0.470
4.672,-0.255,-0.455
4.675,-0.260,-0.440
4.678,-0.270,-0.445
4.681,-0.295,-0.435
4.683,-0.320,-0.430
4.686,-0.350,-0.450
4.689,-0.380,-0.465
4.692,-0.410,-0.460
4.694,-0.430,-0.455
4.697,-0.455,-0.460
4.700,-0.455,-0.440
4.703,-0.475,-0.455
4.706,-0.495,-0.445
4.708,-0.505,-0.440
4.711,-0.495,-0.430
4.714,-0.490,-0.410
4.717,-0.490,-0.430
4.719,-0.485,-0.445
4.722,-0.490,-0.455
4.725,-0.495,-0.465
4.728,-0.505,-0.460
4.731,-0.500,-0.445
4.733,-0.510,-0.450
4.736,-0.525,-0.475
4.739,-0.520,-0.485
4.742,-0.510,-0.465
4.744,-0.490,-0.460
4.747,-0.490,-0.490
4.750,-0.490,-0.495
4.753,-0.500,-0.505
4.756,-0.510,-0.495
4.758,-0.515,-0.485
4.761,-0.525,-0.465
4.764,-0.505,-0.480
4.767,-0.505,-0.490
4.769,-0.510,-0.495
4.772,-0.515,-0.495
4.775,-0.510,-0.510
4.778,-0.500,-0.490
4.781,-0.490,-0.505
4.783,-0.500,-0.500
4.786,-0.485,-0.495
4.789,-0.500,-0.520
4.792,-0.505,-0.510
4.794,-0.515,-0.515
4.797,-0.510,-0.535
4.800,-0.490,-0.525
4.803,-0.480,-0.530
4.806,-0.475,-0.520
4.808,-0.475,-0.520
4.811,-0.470,-0.505
4.814,-0.475,-0.500
4.817,-0.480,-0.500
4.819,-0.475,-0.510
4.822,-0.490,-0.520
4.825,-0.495,-0.510
4.828,-0.470,-0.495
4.831,-0.465,-0.495
4.833,-0.455,-0.480
4.836,-0.465,-0.485
4.839,-0.480,-0.480
4.842,-0.495,-0.460
4.844,-0.480,-0.450
4.847,-0.475,-0.415
4.850,-0.465,-0.425
4.853,-0.425,-0.435
4.856,-0.360,-0.445
4.858,-0.245,-0.460
4.861,-0.105,-0.490
4.864,0.035,-0.545
4.867,0.140,-0.615
4.869,0.235,-0.720
4.872,0.280,-0.795
4.875,0.305,-0.855
4.878,0.330,-0.895
4.881,0.380,-0.970
4.883,0.440,-1.065
4.886,0.515,-1.205
4.889,0.565,-1.325
4.892,0.655,-1.450
4.894,0.715,-1.540
4.897,0.730,-1.635
4.900,0.720,-1.670
4.903,0.685,-1.665
4.906,0.635,-1.645
4.908,0.585,-1.600
4.911,0.530,-1.560
4.914,0.455,-1.515
4.917,0.345,-1.440
4.919,0.240,-1.400
4.922,0.160,-1.350
4.925,0.070,-1.290
4.928,-0.030,-1.235
4.931,-0.140,-1.185
4.933,-0.260,-1.170
4.936,-0.390,-1.125
4.939,-0.540,-1.065
4.942,-0.670,-0.995
4.944,-0.780,-0.940
4.947,-0.865,-0.900
4.950,-0.960,-0.885
4.953,-1.065,-0.845
4.956,-1.140,-0.795
4.958,-1.165,-0.750
4.961,-1.170,-0.720
4.964,-1.150,-0.720
4.967,-1.130,-0.715
4.969,-1.130,-0.705
4.972,-1.130,-0.685
4.975,-1.115,-0.645
4.978,-1.090,-0.610
4.981,-1.050,-0.580
4.983,-1.015,-0.560
4.986,-1.015,-0.545
4.989,-0.985,-0.525
4.992,-0.945,-0.490
4.994,-0.910,-0.480
4.997,-0.875,-0.470
5.000,-0.845,-0.475
5.003,-0.825,-0.465
5.006,-0.815,-0.440
5.008,-0.785,-0.405
5.011,-0.755,-0.385
5.014,-0.735,-0.375
5.017,-0.715,-0.370
5.019,-0.695,-0.375
5.022,-0.705,-0.390
5.025,-0.715,-0.385
5.028,-0.705,-0.385
5.031,-0.680,-0.385
5.033,-0.670,-0.375
5.036,-0.690,-0.385
5.039,-0.695,-0.370
5.042,-0.685,-0.375
5.044,-0.675,-0.385
5.047,-0.665,-0.410
5.050,-0.670,-0.415
5.053,-0.685,-0.405
5.056,-0.685,-0.385
5.058,-0.675,-0.360
5.061,-0.675,-0.335
5.064,-0.675,-0.325
5.067,-0.690,-0.330
5.069,-0.680,-0.345
5.072,-0.685,-0.365
5.075,-0.690,-0.375
5.078,-0.685,-0.355
5.081,-0.685,-0.345
5.083,-0.690,-0.335
5.086,-0.690,-0.350
5.089,-0.700,-0.375
5.092,-0.685,-0.365
5.094,-0.680,-0.335
5.097,-0.670,-0.325
5.100,-0.665,-0.320
5.103,-0.670,-0.345
5.106,-0.680,-0.345
5.108,-0.695,-0.330
5.111,-0.690,-0.325
5.114,-0.660,-0.320
5.117,-0.655,-0.320
5.119,-0.655,-0.345
5.122,-0.640,-0.360
5.125,-0.640,-0.350
5.128,-0.620,-0.345
5.131,-0.610,-0.325
5.133,-0.600,-0.325
5.136,-0.590,-0.330
5.139,-0.590,-0.345
5.142,-0.580,-0.340
5.144,-0.565,-0.315
5.147,-0.535,-0.315
5.150,-0.525,-0.335
5.153,-0.530,-0.370
5.156,-0.525,-0.375
5.158,-0.490,-0.365
5.161,-0.460,-0.365
5.164,-0.435,-0.365
5.167,-0.430,-0.365
5.169,-0.420,-0.370
5.172,-0.430,-0.390
5.175,-0.425,-0.390
5.178,-0.395,-0.390
5.181,-0.385,-0.395
5.183,-0.370,-0.400
5.186,-0.360,-0.395
5.189,-0.355,-0.405
5.192,-0.335,-0.400
5.194,-0.320,-0.415
5.197,-0.300,-0.420
5.200,-0.300,-0.425
5.203,-0.295,-0.440
5.206,-0.290,-0.445
5.208,-0.270,-0.450
5.211,-0.255,-0.435
5.214,-0.250,-0.435
5.217,-0.240,-0.435
5.219,-0.235,-0.455
5.222,-0.240,-0.465
5.225,-0.225,-0.470
5.228,-0.205,-0.470
5.231,-0.200,-0.480
5.233,-0.210,-0.480
5.236,-0.210,-0.495
5.239,-0.215,-0.505
5.242,-0.200,-0.515
5.244,-0.185,-0.520
5.247,-0.165,-0.515
5.250,-0.150,-0.510
5.253,-0.160,-0.500
5.256,-0.170,-0.515
5.258,-0.175,-0.515
5.261,-0.180,-0.510
5.264,-0.165,-0.520
5.267,-0.170,-0.560
5.269,-0.185,-0.575
5.272,-0.220,-0.575
5.275,-0.220,-0.570
5.278,-0.210,-0.545
5.281,-0.205,-0.540
5.283,-0.205,-0.535
5.286,-0.200,-0.555
5.289,-0.205,-0.545
5.292,-0.185,-0.550
5.294,-0.180,-0.535
5.297,-0.175,-0.555
5.300,-0.190,-0.565
5.303,-0.200,-0.590
5.306,-0.215,-0.600
5.308,-0.215,-0.600
5.311,-0.225,-0.570
5.314,-0.220,-0.555
5.317,-0.225,-0.545
5.319,-0.240,-0.565
5.322,-0.265,-0.565
5.325,-0.250,-0.565
5.328,-0.240,-0.540
5.331,-0.220,-0.520
5.333,-0.250,-0.520
5.336,-0.290,-0.530
5.339,-0.325,-0.515
5.342,-0.345,-0.500
5.344,-0.345,-0.495
5.347,-0.370,-0.490
5.350,-0.395,-0.505
5.353,-0.435,-0.525
5.356,-0.460,-0.515
5.358,-0.465,-0.495
5.361,-0.470,-0.490
5.364,-0.470,-0.500
5.367,-0.455,-0.505
5.369,-0.465,-0.505
5.372,-0.475,-0.495
5.375,-0.490,-0.485
5.378,-0.470,-0.460
5.381,-0.490,-0.480
5.383,-0.485,-0.505
5.386,-0.480,-0.535
5.389,-0.510,-0.530
5.392,-0.490,-0.520
5.394,-0.475,-0.510
5.397,-0.465,-0.505
5.400,-0.485,-0.505
5.403,-0.500,-0.520
5.406,-0.495,-0.515
5.408,-0.490,-0.505
5.411,-0.495,-0.485
5.414,-0.495,-0.495
5.417,-0.505,-0.500
5.419,-0.515,-0.505
5.422,-0.540,-0.495
5.425,-0.540,-0.480
5.428,-0.520,-0.460
5.431,-0.515,-0.475
5.433,-0.505,-0.505
5.436,-0.495,-0.525
5.439,-0.500,-0.535
5.442,-0.500,-0.540
5.444,-0.480,-0.515
5.447,-0.490,-0.490
5.450,-0.495,-0.475
5.453,-0.485,-0.500
5.456,-0.495,-0.490
5.458,-0.495,-0.485
5.461,-0.470,-0.480
5.464,-0.455,-0.490
5.467,-0.450,-0.510
5.469,-0.425,-0.540
5.472,-0.395,-0.540
5.475,-0.360,-0.535
5.478,-0.350,-0.525
5.481,-0.365,-0.505
5.483,-0.390,-0.460
5.486,-0.440,-0.430
5.489,-0.490,-0.410
5.492,-0.515,-0.380
5.494,-0.510,-0.370
5.497,-0.445,-0.370
5.500,-0.335,-0.400
5.503,-0.210,-0.440
5.506,-0.090,-0.490
5.508,0.030,-0.570
5.511,0.115,-0.660
5.514,0.180,-0.750
5.517,0.190,-0.810
5.519,0.245,-0.915
5.522,0.290,-1.030
5.525,0.330,-1.155
5.528,0.360,-1.265
5.531,0.410,-1.390
5.533,0.425,-1.490
5.536,0.435,-1.540
5.539,0.400,-1.535
5.542,0.365,-1.525
5.544,0.360,-1.475
5.547,0.340,-1.435
5.550,0.300,-1.390
5.553,0.215,-1.345
5.556,0.155,-1.290
5.558,0.090,-1.225
5.561,0.045,-1.160
5.564,-0.015,-1.105
5.567,-0.090,-1.070
5.569,-0.185,-1.030
5.572,-0.320,-1.010
5.575,-0.445,-0.985
5.578,-0.555,-0.930
5.581,-0.645,-0.875
5.583,-0.750,-0.835
5.586,-0.870,-0.805
5.589,-0.960,-0.780
5.592,-0.985,-0.725
5.594,-0.965,-0.685
5.597,-0.945,-0.665
5.600,-0.945,-0.655
5.603,-0.985,-0.635
5.606,-1.005,-0.605
5.608,-0.995,-0.580
5.611,-0.955,-0.535
5.614,-0.890,-0.535
5.617,-0.840,-0.520
5.619,-0.815,-0.505
5.622,-0.835,-0.505
5.625,-0.850,-0.460
5.628,-0.865,-0.410
5.631,-0.865,-0.370
5.633,-0.835,-0.365
5.636,-0.785,-0.365
5.639,-0.715,-0.355
5.642,-0.655,-0.330
5.644,-0.640,-0.325
5.647,-0.645,-0.310
5.650,-0.670,-0.320
5.653,-0.685,-0.320
5.656,-0.690,-0.320
5.658,-0.665,-0.305
5.661,-0.635,-0.300
5.664,-0.615,-0.310
5.667,-0.615,-0.315
5.669,-0.615,-0.330
5.672,-0.615,-0.330
5.675,-0.620,-0.315
5.678,-0.610,-0.295
5.681,-0.600,-0.300
5.683,-0.595,-0.310
5.686,-0.615,-0.310
5.689,-0.625,-0.315
5.692,-0.635,-0.310
5.694,-0.635,-0.280
5.697,-0.645,-0.280
5.700,-0.615,-0.285
5.703,-0.620,-0.290
5.706,-0.630,-0.290
5.708,-0.635,-0.280
5.711,-0.625,-0.285
5.714,-0.600,-0.260
5.717,-0.595,-0.275
5.719,-0.600,-0.285
5.722,-0.600,-0.290
5.725,-0.600,-0.280
5.728,-0.595,-0.270
5.731,-0.570,-0.255
5.733,-0.570,-0.265
5.736,-0.575,-0.270
5.739,-0.565,-0.270
5.742,-0.545,-0.265
5.744,-0.535,-0.250
5.747,-0.525,-0.255
5.750,-0.530,-0.255
5.753,-0.545,-0.275
5.756,-0.550,-0.270
5.758,-0.540,-0.270
5.761,-0.520,-0.265
5.764,-0.520,-0.260
5.767,-0.505,-0.275
5.769,-0.495,-0.275
5.772,-0.505,-0.285
5.775,-0.490,-0.280
5.778,-0.475,-0.270
5.781,-0.440,-0.275
5.783,-0.435,-0.280
5.786,-0.435,-0.290
5.789,-0.420,-0.305
5.792,-0.400,-0.300
5.794,-0.385,-0.295
5.797,-0.370,-0.300
5.800,-0.355,-0.305
5.803,-0.350,-0.325
5.806,-0.350,-0.345
5.808,-0.335,-0.325
5.811,-0.320,-0.325
5.814,-0.310,-0.340
5.817,-0.280,-0.350
5.819,-0.285,-0.360
5.822,-0.290,-0.365
5.825,-0.275,-0.355
5.828,-0.265,-0.345
5.831,-0.245,-0.355
5.833,-0.240,-0.360
5.836,-0.245,-0.385
5.839,-0.250,-0.405
5.842,-0.250,-0.390
5.844,-0.220,-0.390
5.847,-0.210,-0.395
5.850,-0.210,-0.410
5.853,-0.195,-0.425
5.856,-0.200,-0.430
5.858,-0.185,-0.430
5.861,-0.175,-0.415
5.864,-0.155,-0.420
5.867,-0.165,-0.440
5.869,-0.165,-0.455
5.872,-0.175,-0.475
5.875,-0.155,-0.455
5.878,-0.135,-0.470
5.881,-0.120,-0.465
5.883,-0.125,-0.465
5.886,-0.145,-0.485
5.889,-0.155,-0.495
5.892,-0.150,-0.485
5.894,-0.150,-0.485
5.897,-0.135,-0.495
5.900,-0.150,-0.510
5.903,-0.160,-0.530
5.906,-0.180,-0.530
5.908,-0.165,-0.520
5.911,-0.145,-0.525
5.914,-0.150,-0.530
5.917,-0.150,-0.525
5.919,-0.135,-0.550
5.922,-0.145,-0.555
5.925,-0.145,-0.555
5.928,-0.135,-0.545
5.931,-0.145,-0.540
5.933,-0.155,-0.540
5.936,-0.170,-0.560
5.939,-0.200,-0.555
5.942,-0.205,-0.545
5.944,-0.205,-0.530
5.947,-0.195,-0.540
5.950,-0.180,-0.545
5.953,-0.195,-0.545
5.956,-0.185,-0.545
5.958,-0.160,-0.530
5.961,-0.160,-0.530
5.964,-0.170,-0.500
5.967,-0.225,-0.510
5.969,-0.270,-0.525
5.972,-0.290,-0.540
5.975,-0.310,-0.520
5.978,-0.310,-0.505
5.981,-0.335,-0.500
5.983,-0.355,-0.495
5.986,-0.390,-0.500
5.989,-0.410,-0.505
5.992,-0.420,-0.500
5.994,-0.435,-0.485
5.997,-0.420,-0.485
6.000,-0.415,-0.490
6.003,-0.440,-0.495
6.006,-0.445,-0.505
6.008,-0.455,-0.495
6.011,-0.435,-0.495
6.014,-0.430,-0.500
6.017,-0.420,-0.500
6.019,-0.435,-0.505
6.022,-0.450,-0.525
6.025,-0.455,-0.510
6.028,-0.445,-0.510
6.031,-0.445,-0.515
6.033,-0.425,-0.520
6.036,-0.435,-0.520
6.039,-0.435,-0.525
6.042,-0.445,-0.525
6.044,-0.430,-0.515
6.047,-0.420,-0.520
6.050,-0.425,-0.525
6.053,-0.430,-0.525
6.056,-0.440,-0.530
6.058,-0.435,-0.510
6.061,-0.415,-0.505
6.064,-0.405,-0.520
6.067,-0.410,-0.530
6.069,-0.415,-0.545
6.072,-0.435,-0.530
6.075,-0.420,-0.525
6.078,-0.410,-0.515
6.081,-0.420,-0.520
6.083,-0.410,-0.525
6.086,-0.440,-0.525
6.089,-0.450,-0.540
6.092,-0.440,-0.525
6.094,-0.405,-0.525
6.097,-0.410,-0.530
6.100,-0.400,-0.530
6.103,-0.410,-0.535
6.106,-0.405,-0.520
6.108,-0.420,-0.490
6.111,-0.420,-0.450
6.114,-0.430,-0.430
6.117,-0.435,-0.415
6.119,-0.445,-0.420
6.122,-0.415,-0.430
6.125,-0.325,-0.465
6.128,-0.185,-0.500
6.131,-0.070,-0.575
6.133,0.000,-0.685
6.136,0.025,-0.785
6.139,0.035,-0.865
6.142,0.095,-0.980
6.144,0.185,-1.130
6.147,0.300,-1.330
6.150,0.385,-1.515
6.153,0.435,-1.620
6.156,0.430,-1.645
6.158,0.435,-1.635
6.161,0.430,-1.620
6.164,0.430,-1.590
6.167,0.405,-1.535
6.169,0.360,-1.485
6.172,0.275,-1.430
6.175,0.210,-1.375
6.178,0.160,-1.285
6.181,0.115,-1.235
6.183,0.045,-1.165
6.186,-0.045,-1.125
6.189,-0.170,-1.090
6.192,-0.290,-1.035
6.194,-0.410,-0.975
6.197,-0.535,-0.930
6.200,-0.670,-0.905
6.203,-0.775,-0.875
6.206,-0.855,-0.850
6.208,-0.890,-0.805
6.211,-0.915,-0.775
6.214,-0.920,-0.740
6.217,-0.920,-0.730
6.219,-0.895,-0.705
6.222,-0.905,-0.675
6.225,-0.920,-0.645
6.228,-0.900,-0.615
6.231,-0.850,-0.585
6.233,-0.800,-0.550
6.236,-0.780,-0.550
6.239,-0.765,-0.520
6.242,-0.755,-0.500
6.244,-0.720,-0.470
6.247,-0.675,-0.445
6.250,-0.650,-0.445
6.253,-0.645,-0.435
6.256,-0.630,-0.435
6.258,-0.605,-0.405
6.261,-0.590,-0.390
6.264,-0.585,-0.395
6.267,-0.575,-0.380
6.269,-0.575,-0.390
6.272,-0.580,-0.405
6.275,-0.575,-0.400
6.278,-0.560,-0.390
6.281,-0.555,-0.385
6.283,-0.570,-0.385
6.286,-0.585,-0.395
6.289,-0.600,-0.380
6.292,-0.580,-0.370
6.294,-0.575,-0.365
6.297,-0.570,-0.365
6.300,-0.570,-0.370
6.303,-0.575,-0.350
6.306,-0.595,-0.340
6.308,-0.575,-0.340
6.311,-0.560,-0.325
6.314,-0.560,-0.310
6.317,-0.565,-0.325
6.319,-0.575,-0.340
6.322,-0.585,-0.340
6.325,-0.580,-0.325
6.328,-0.565,-0.305
6.331,-0.560,-0.305
6.333,-0.555,-0.315
6.336,-0.570,-0.320
6.339,-0.580,-0.310
6.342,-0.565,-0.315
6.344,-0.555,-0.300
6.347,-0.535,-0.305
6.350,-0.525,-0.300
6.353,-0.550,-0.310
6.356,-0.535,-0.325
6.358,-0.520,-0.310
6.361,-0.510,-0.305
6.364,-0.500,-0.295
6.367,-0.485,-0.310
6.369,-0.495,-0.315
6.372,-0.490,-0.330
6.375,-0.480,-0.310
6.378,-0.465,-0.315
6.381,-0.445,-0.320
6.383,-0.435,-0.325
6.386,-0.415,-0.345
6.389,-0.415,-0.350
6.392,-0.400,-0.350
6.394,-0.385,-0.335
6.397,-0.395,-0.340
6.400,-0.375,-0.340
6.403,-0.350,-0.370
6.406,-0.340,-0.380
6.408,-0.340,-0.360
6.411,-0.305,-0.370
6.414,-0.295,-0.375
6.417,-0.275,-0.370
6.419,-0.280,-0.395
6.422,-0.275,-0.415
6.425,-0.255,-0.400
6.428,-0.245,-0.400
6.431,-0.230,-0.400
6.433,-0.225,-0.415
6.436,-0.230,-0.445
6.439,-0.225,-0.450
6.442,-0.205,-0.450
6.444,-0.200,-0.440
6.447,-0.175,-0.465
6.450,-0.180,-0.460
6.453,-0.175,-0.470
6.456,-0.155,-0.485
6.458,-0.165,-0.465
6.461,-0.140,-0.475
6.464,-0.135,-0.465
6.467,-0.110,-0.485
6.469,-0.125,-0.490
6.472,-0.115,-0.510
6.475,-0.100,-0.490
6.478,-0.080,-0.490
6.481,-0.085,-0.510
6.483,-0.080,-0.515
6.486,-0.080,-0.515
6.489,-0.100,-0.530
6.492,-0.105,-0.535
6.494,-0.110,-0.545
6.497,-0.115,-0.540
6.500,-0.120,-0.540
6.503,-0.110,-0.550
6.506,-0.120,-0.555
6.508,-0.095,-0.560
6.511,-0.085,-0.540
6.514,-0.075,-0.550
6.517,-0.070,-0.555
6.519,-0.085,-0.565
6.522,-0.110,-0.580
6.525,-0.105,-0.565
6.528,-0.090,-0.550
6.531,-0.095,-0.555
6.533,-0.100,-0.550
6.536,-0.115,-0.555
6.539,-0.135,-0.560
6.542,-0.140,-0.555
6.544,-0.145,-0.540
6.547,-0.140,-0.545
6.550,-0.135,-0.550
6.553,-0.140,-0.555
6.556,-0.155,-0.540
6.558,-0.165,-0.520
6.561,-0.190,-0.510
6.564,-0.210,-0.505
6.567,-0.245,-0.520
6.569,-0.265,-0.525
6.572,-0.300,-0.525
6.575,-0.320,-0.510
6.578,-0.350,-0.500
6.581,-0.355,-0.505
6.583,-0.375,-0.505
6.586,-0.405,-0.520
6.589,-0.405,-0.515
6.592,-0.400,-0.505
6.594,-0.395,-0.495
6.597,-0.400,-0.505
6.600,-0.400,-0.500
6.603,-0.410,-0.520
6.606,-0.420,-0.525
6.608,-0.420,-0.505
6.611,-0.405,-0.500
6.614,-0.410,-0.505
6.617,-0.405,-0.500
6.619,-0.410,-0.515
6.622,-0.430,-0.520
6.625,-0.425,-0.515
6.628,-0.405,-0.510
6.631,-0.390,-0.520
6.633,-0.400,-0.520
6.636,-0.405,-0.535
6.639,-0.425,-0.535
6.642,-0.415,-0.525
6.644,-0.390,-0.520
6.647,-0.400,-0.520
6.650,-0.390,-0.500
6.653,-0.395,-0.515
6.656,-0.400,-0.525
6.658,-0.405,-0.520
6.661,-0.405,-0.510
6.664,-0.400,-0.515
6.667,-0.395,-0.525
6.669,-0.410,-0.540
6.672,-0.425,-0.545
6.675,-0.405,-0.540
6.678,-0.390,-0.525
6.681,-0.380,-0.515
6.683,-0.375,-0.525
6.686,-0.400,-0.535
6.689,-0.405,-0.540
6.692,-0.395,-0.535
6.694,-0.370,-0.515
6.697,-0.365,-0.520
6.700,-0.360,-0.515
6.703,-0.380,-0.520
6.706,-0.395,-0.490
6.708,-0.405,-0.470
6.711,-0.405,-0.440
6.714,-0.415,-0.420
6.717,-0.420,-0.405
6.719,-0.425,-0.405
6.722,-0.375,-0.445
6.725,-0.255,-0.470
6.728,-0.135,-0.510
6.731,-0.015,-0.590
6.733,0.060,-0.700
6.736,0.080,-0.790
6.739,0.090,-0.880
6.742,0.160,-0.970
6.744,0.270,-1.110
6.747,0.395,-1.310
6.750,0.490,-1.480
6.753,0.555,-1.600
6.756,0.590,-1.645
6.758,0.615,-1.650
6.761,0.615,-1.635
6.764,0.605,-1.610
6.767,0.580,-1.560
6.769,0.525,-1.515
6.772,0.430,-1.450
6.775,0.355,-1.375
6.778,0.295,-1.305
6.781,0.240,-1.240
6.783,0.165,-1.170
6.786,0.060,-1.135
6.789,-0.095,-1.070
6.792,-0.255,-1.000
6.794,-0.400,-0.945
6.797,-0.525,-0.900
6.800,-0.650,-0.885
6.803,-0.765,-0.860
6.806,-0.835,-0.825
6.808,-0.870,-0.785
6.811,-0.880,-0.735
6.814,-0.870,-0.700
6.817,-0.880,-0.685
6.819,-0.880,-0.670
6.822,-0.890,-0.650
6.825,-0.880,-0.610
6.828,-0.870,-0.580
6.831,-0.835,-0.555
6.833,-0.795,-0.515
6.836,-0.785,-0.510
6.839,-0.760,-0.480
6.842,-0.730,-0.445
6.844,-0.705,-0.410
6.847,-0.670,-0.400
6.850,-0.650,-0.395
6.853,-0.650,-0.380
6.856,-0.635,-0.370
6.858,-0.605,-0.365
6.861,-0.575,-0.345
6.864,-0.555,-0.330
6.867,-0.550,-0.335
6.869,-0.555,-0.330
6.872,-0.560,-0.340
6.875,-0.540,-0.325
6.878,-0.540,-0.310
6.881,-0.545,-0.315
6.883,-0.545,-0.315
6.886,-0.540,-0.320
6.889,-0.550,-0.320
6.892,-0.560,-0.315
6.894,-0.545,-0.285
6.897,-0.535,-0.295
6.900,-0.530,-0.295
6.903,-0.540,-0.300
6.906,-0.560,-0.295
6.908,-0.550,-0.290
6.911,-0.545,-0.270
6.914,-0.535,-0.260
6.917,-0.530,-0.270
6.919,-0.545,-0.275
6.922,-0.555,-0.275
6.925,-0.555,-0.255
6.928,-0.540,-0.245
6.931,-0.525,-0.240
6.933,-0.515,-0.240
6.936,-0.520,-0.255
6.939,-0.535,-0.250
6.942,-0.525,-0.225
6.944,-0.500,-0.230
6.947,-0.495,-0.225
6.950,-0.490,-0.235
6.953,-0.495,-0.240
6.956,-0.495,-0.250
6.958,-0.495,-0.235
6.961,-0.465,-0.230
6.964,-0.465,-0.220
6.967,-0.450,-0.220
6.969,-0.460,-0.235
6.972,-0.460,-0.230
6.975,-0.435,-0.220
6.978,-0.415,-0.205
6.981,-0.420,-0.215
6.983,-0.405,-0.225
6.986,-0.410,-0.230
6.989,-0.410,-0.235
6.992,-0.380,-0.230
6.994,-0.365,-0.205
6.997,-0.330,-0.215
7.000,-0.325,-0.220
7.003,-0.315,-0.240
7.006,-0.315,-0.255
7.008,-0.315,-0.250
7.011,-0.285,-0.240
7.014,-0.260,-0.230
7.017,-0.240,-0.230
7.019,-0.230,-0.235
7.022,-0.235,-0.265
7.025,-0.235,-0.275
7.028,-0.220,-0.275
7.031,-0.205,-0.255
7.033,-0.185,-0.245
7.036,-0.200,-0.255
7.039,-0.200,-0.260
7.042,-0.180,-0.300
7.044,-0.160,-0.325
7.047,-0.130,-0.365
7.050,-0.115,-0.360
7.053,-0.115,-0.360
7.056,-0.135,-0.355
7.058,-0.130,-0.355
7.061,-0.125,-0.370
7.064,-0.105,-0.380
7.067,-0.105,-0.375
7.069,-0.095,-0.385
7.072,-0.080,-0.385
7.075,-0.055,-0.390
7.078,-0.010,-0.375
7.081,0.010,-0.405
7.083,0.010,-0.415
7.086,-0.020,-0.430
7.089,-0.035,-0.435
7.092,0.005,-0.440
7.094,0.050,-0.440
7.097,0.065,-0.460
7.100,0.015,-0.460
7.103,-0.065,-0.465
7.106,-0.150,-0.435
7.108,-0.180,-0.430
7.111,-0.165,-0.410
7.114,-0.145,-0.410
7.117,-0.115,-0.420
7.119,-0.105,-0.420
7.122,-0.095,-0.450
7.125,-0.075,-0.420
7.128,-0.065,-0.420
7.131,-0.065,-0.430
7.133,-0.080,-0.430
7.136,-0.080,-0.440
7.139,-0.070,-0.440
7.142,-0.070,-0.425
7.144,-0.060,-0.400
7.147,-0.060,-0.415
7.150,-0.060,-0.400
7.153,-0.075,-0.425
7.156,-0.105,-0.435
7.158,-0.115,-0.400
7.161,-0.115,-0.340
7.164,-0.115,-0.260
7.167,-0.110,-0.235
7.169,-0.110,-0.285
7.172,-0.135,-0.350
7.175,-0.155,-0.430
7.178,-0.175,-0.470
7.181,-0.200,-0.500
7.183,-0.220,-0.515
7.186,-0.245,-0.525
7.189,-0.260,-0.515
7.192,-0.255,-0.490
7.194,-0.260,-0.465
7.197,-0.280,-0.450
7.200,-0.320,-0.425
7.203,-0.350,-0.430
7.206,-0.365,-0.430
7.208,-0.340,-0.420
7.211,-0.265,-0.410
7.214,-0.205,-0.435
7.217,-0.185,-0.460
7.219,-0.225,-0.460
7.222,-0.300,-0.440
7.225,-0.360,-0.425
7.228,-0.405,-0.370
7.231,-0.435,-0.350
7.233,-0.455,-0.320
7.236,-0.475,-0.305
7.239,-0.475,-0.295
7.242,-0.455,-0.230
7.244,-0.445,-0.195
7.247,-0.425,-0.175
7.250,-0.400,-0.145
7.253,-0.395,-0.165
7.256,-0.400,-0.210
7.258,-0.425,-0.290
7.261,-0.430,-0.355
7.264,-0.415,-0.440
7.267,-0.390,-0.480
7.269,-0.385,-0.485
7.272,-0.410,-0.415
7.275,-0.425,-0.330
7.278,-0.425,-0.285
7.281,-0.400,-0.335
7.283,-0.375,-0.435
7.286,-0.355,-0.525
7.289,-0.355,-0.575
7.292,-0.345,-0.570
7.294,-0.330,-0.535
7.297,-0.295,-0.515
7.300,-0.275,-0.495
7.303,-0.260,-0.490
7.306,-0.285,-0.480
7.308,-0.285,-0.460
7.311,-0.300,-0.450
7.314,-0.330,-0.440
7.317,-0.350,-0.430
7.319,-0.350,-0.430
7.322,-0.325,-0.410
7.325,-0.315,-0.385
7.328,-0.330,-0.345
7.331,-0.355,-0.320
7.333,-0.355,-0.295
7.336,-0.325,-0.305
7.339,-0.235,-0.315
7.342,-0.145,-0.345
7.344,-0.070,-0.360
7.347,-0.040,-0.410
7.350,0.005,-0.475
7.353,0.065,-0.550
7.356,0.140,-0.590
7.358,0.230,-0.595
7.361,0.330,-0.625
7.364,0.405,-0.705
7.367,0.435,-0.820
7.369,0.460,-0.970
7.372,0.520,-1.130
7.375,0.625,-1.255
7.378,0.695,-1.270
7.381,0.700,-1.215
7.383,0.650,-1.125
7.386,0.595,-1.095
7.389,0.575,-1.185
7.392,0.595,-1.275
7.394,0.600,-1.260
7.397,0.550,-1.145
7.400,0.475,-0.935
7.403,0.405,-0.865
7.406,0.330,-0.955
7.408,0.265,-1.150
7.411,0.195,-1.320
7.414,0.100,-1.385
7.417,-0.045,-1.330
7.419,-0.215,-1.205
7.422,-0.405,-1.070
7.425,-0.560,-0.940
7.428,-0.690,-0.835
7.431,-0.750,-0.775
7.433,-0.800,-0.725
7.436,-0.850,-0.685
7.439,-0.920,-0.630
7.442,-0.945,-0.595
7.444,-0.955,-0.560
7.447,-0.945,-0.535
7.450,-0.915,-0.505
7.453,-0.930,-0.490
7.456,-0.920,-0.470
7.458,-0.865,-0.425
7.461,-0.810,-0.375
7.464,-0.770,-0.360
7.467,-0.740,-0.350
7.469,-0.715,-0.340
7.472,-0.680,-0.305
7.475,-0.665,-0.260
7.478,-0.620,-0.245
7.481,-0.600,-0.225
7.483,-0.590,-0.215
7.486,-0.585,-0.155
7.489,-0.560,-0.105
7.492,-0.505,-0.070
7.494,-0.480,-0.050
7.497,-0.475,-0.055
7.500,-0.480,-0.055
7.503,-0.490,-0.085
7.506,-0.455,-0.135
7.508,-0.425,-0.185
7.511,-0.415,-0.220
7.514,-0.390,-0.225
7.517,-0.355,-0.190
7.519,-0.360,-0.150
7.522,-0.425,-0.125
7.525,-0.485,-0.090
7.528,-0.525,-0.155
7.531,-0.505,-0.295
7.533,-0.530,-0.445
7.536,-0.560,-0.495
7.539,-0.620,-0.400
7.542,-0.635,-0.235
7.544,-0.630,-0.110
7.547,-0.615,-0.085
7.550,-0.615,-0.100
7.553,-0.605,-0.165
7.556,-0.605,-0.200
7.558,-0.605,-0.190
7.561,-0.610,-0.140
7.564,-0.595,-0.130
7.567,-0.590,-0.105
7.569,-0.595,-0.110
7.572,-0.590,-0.105
7.575,-0.575,-0.110
7.578,-0.565,-0.105
7.581,-0.565,-0.090
7.583,-0.525,-0.070
7.586,-0.515,-0.045
7.589,-0.505,-0.005
7.592,-0.500,0.010
7.594,-0.495,0.010
7.597,-0.475,-0.040
7.600,-0.450,-0.115
7.603,-0.440,-0.165
7.606,-0.420,-0.140
7.608,-0.400,-0.035
7.611,-0.335,0.110
7.614,-0.280,0.135
7.617,-0.250,0.015
7.619,-0.270,-0.135
7.622,-0.330,-0.215
7.625,-0.410,-0.210
7.628,-0.445,-0.170
7.631,-0.420,-0.115
7.633,-0.355,-0.045
7.636,-0.285,-0.050
7.639,-0.235,-0.115
7.642,-0.200,-0.200
7.644,-0.205,-0.285
7.647,-0.185,-0.320
7.650,-0.150,-0.315
7.653,-0.145,-0.280
7.656,-0.175,-0.240
7.658,-0.205,-0.215
7.661,-0.185,-0.190
7.664,-0.155,-0.190
7.667,-0.115,-0.205
7.669,-0.115,-0.215
7.672,-0.125,-0.210
7.675,-0.120,-0.225
7.678,-0.150,-0.205
7.681,-0.165,-0.210
7.683,-0.180,-0.195
7.686,-0.195,-0.220
7.689,-0.225,-0.215
7.692,-0.200,-0.210
7.694,-0.155,-0.200
7.697,-0.055,-0.215
7.700,0.050,-0.230
7.703,0.075,-0.245
7.706,0.070,-0.250
7.708,0.015,-0.245
7.711,-0.050,-0.240
7.714,-0.080,-0.235
7.717,-0.080,-0.255
7.719,-0.060,-0.265
7.722,-0.030,-0.280
7.725,0.015,-0.300
7.728,0.055,-0.295
7.731,0.080,-0.315
7.733,0.095,-0.315
7.736,0.110,-0.335
7.739,0.145,-0.340
7.742,0.105,-0.330
7.744,-0.025,-0.300
7.747,-0.135,-0.270
7.750,-0.175,-0.260
7.753,-0.145,-0.260
7.756,-0.110,-0.265
7.758,-0.120,-0.265
7.761,-0.170,-0.255
7.764,-0.195,-0.270
7.767,-0.150,-0.275
7.769,-0.105,-0.295
7.772,-0.060,-0.300
7.775,-0.030,-0.285
7.778,-0.055,-0.270
7.781,-0.065,-0.260
7.783,-0.080,-0.255
7.786,-0.105,-0.255
7.789,-0.155,-0.250
7.792,-0.215,-0.245
7.794,-0.280,-0.235
7.797,-0.295,-0.225
7.800,-0.290,-0.235
7.803,-0.285,-0.245
7.806,-0.305,-0.255
7.808,-0.310,-0.240
7.811,-0.320,-0.235
7.814,-0.310,-0.235
7.817,-0.300,-0.235
7.819,-0.280,-0.235
7.822,-0.310,-0.255
7.825,-0.320,-0.250
7.828,-0.300,-0.245
7.831,-0.255,-0.245
7.833,-0.235,-0.245
7.836,-0.285,-0.255
7.839,-0.365,-0.255
7.842,-0.400,-0.235
7.844,-0.405,-0.225
7.847,-0.355,-0.220
7.850,-0.370,-0.230
7.853,-0.405,-0.225
7.856,-0.440,-0.225
7.858,-0.425,-0.215
7.861,-0.400,-0.200
7.864,-0.370,-0.200
7.867,-0.350,-0.235
7.869,-0.350,-0.245
7.872,-0.355,-0.240
7.875,-0.350,-0.245
7.878,-0.340,-0.230
7.881,-0.350,-0.240
7.883,-0.350,-0.235
7.886,-0.370,-0.225
7.889,-0.350,-0.225
7.892,-0.340,-0.210
7.894,-0.335,-0.190
7.897,-0.335,-0.205
7.900,-0.330,-0.210
7.903,-0.320,-0.215
7.906,-0.325,-0.230
7.908,-0.320,-0.220
7.911,-0.315,-0.215
7.914,-0.285,-0.205
7.917,-0.280,-0.210
7.919,-0.290,-0.235
7.922,-0.280,-0.240
7.925,-0.265,-0.225
7.928,-0.240,-0.205
7.931,-0.230,-0.210
7.933,-0.270,-0.200
7.936,-0.300,-0.200
7.939,-0.345,-0.190
7.942,-0.365,-0.175
7.944,-0.360,-0.120
7.947,-0.345,-0.105
7.950,-0.340,-0.095
7.953,-0.335,-0.090
7.956,-0.310,-0.105
7.958,-0.235,-0.110
7.961,-0.110,-0.145
7.964,-0.005,-0.185
7.967,0.085,-0.260
7.969,0.165,-0.340
7.972,0.205,-0.435
7.975,0.200,-0.480
7.978,0.200,-0.540
7.981,0.250,-0.630
7.983,0.345,-0.770
7.986,0.445,-0.925
7.989,0.540,-1.085
7.992,0.635,-1.180
7.994,0.725,-1.240
7.997,0.795,-1.275
8.000,0.805,-1.295
8.003,0.790,-1.315
8.006,0.755,-1.310
8.008,0.745,-1.265
8.011,0.725,-1.210
8.014,0.680,-1.155
8.017,0.570,-1.085
8.019,0.485,-1.040
8.022,0.425,-0.985
8.025,0.360,-0.915
8.028,0.290,-0.855
8.031,0.200,-0.795
8.033,0.065,-0.750
8.036,-0.075,-0.700
8.039,-0.215,-0.670
8.042,-0.325,-0.625
8.044,-0.430,-0.575
8.047,-0.530,-0.560
8.050,-0.615,-0.525
8.053,-0.695,-0.490
8.056,-0.745,-0.470
8.058,-0.775,-0.435
8.061,-0.785,-0.400
8.064,-0.800,-0.390
8.067,-0.800,-0.360
8.069,-0.795,-0.360
8.072,-0.795,-0.345
8.075,-0.800,-0.310
8.078,-0.810,-0.290
8.081,-0.785,-0.260
8.083,-0.765,-0.240
8.086,-0.725,-0.220
8.089,-0.695,-0.190
8.092,-0.655,-0.150
8.094,-0.625,-0.130
8.097,-0.605,-0.115
8.100,-0.590,-0.095
8.103,-0.590,-0.085
8.106,-0.590,-0.090
8.108,-0.560,-0.055
8.111,-0.535,-0.025
8.114,-0.510,-0.010
8.117,-0.475,-0.010
8.119,-0.475,-0.025
8.122,-0.460,-0.020
8.125,-0.450,0.005
8.128,-0.435,0.015
8.131,-0.420,0.000
8.133,-0.420,0.000
8.136,-0.440,-0.005
8.139,-0.435,-0.005
8.142,-0.425,0.005
8.144,-0.420,0.020
8.147,-0.435,0.010
8.150,-0.425,0.020
8.153,-0.435,0.025
8.156,-0.440,0.025
8.158,-0.450,0.020
8.161,-0.435,0.035
8.164,-0.430,0.050
8.167,-0.440,0.040
8.169,-0.445,0.045
8.172,-0.460,0.040
8.175,-0.450,0.055
8.178,-0.440,0.070
8.181,-0.430,0.070
8.183,-0.425,0.060
8.186,-0.440,0.070
8.189,-0.450,0.075
8.192,-0.440,0.085
8.194,-0.425,0.100
8.197,-0.425,0.085
8.200,-0.415,0.085
8.203,-0.425,0.090
8.206,-0.440,0.090
8.208,-0.425,0.085
8.211,-0.420,0.100
8.214,-0.410,0.100
8.217,-0.405,0.100
8.219,-0.415,0.090
8.222,-0.410,0.095
8.225,-0.405,0.115
8.228,-0.385,0.130
8.231,-0.360,0.115
8.233,-0.355,0.110
8.236,-0.365,0.105
8.239,-0.365,0.090
8.242,-0.340,0.105
8.244,-0.320,0.100
8.247,-0.305,0.115
8.250,-0.305,0.115
8.253,-0.295,0.090
8.256,-0.290,0.100
8.258,-0.265,0.110
8.261,-0.235,0.115
8.264,-0.225,0.090
8.267,-0.220,0.100
8.269,-0.225,0.090
8.272,-0.240,0.090
8.275,-0.215,0.080
8.278,-0.190,0.085
8.281,-0.160,0.070
8.283,-0.140,0.070
8.286,-0.135,0.055
8.289,-0.135,0.035
8.292,-0.120,0.055
8.294,-0.095,0.065
8.297,-0.080,0.070
8.300,-0.075,0.045
8.303,-0.075,0.040
8.306,-0.075,0.035
8.308,-0.055,0.025
8.311,-0.030,0.030
8.314,-0.030,0.010
8.317,-0.030,0.015
8.319,-0.015,0.000
8.322,-0.015,-0.020
8.325,-0.005,-0.015
8.328,0.015,-0.010
8.331,0.035,-0.020
8.333,0.035,-0.030
8.336,0.035,-0.035
8.339,0.030,-0.045
8.342,0.055,-0.035
8.344,0.075,-0.025
8.347,0.095,-0.030
8.350,0.100,-0.040
8.353,0.105,-0.060
8.356,0.095,-0.055
8.358,0.105,-0.060
8.361,0.115,-0.055
8.364,0.110,-0.065
8.367,0.105,-0.080
8.369,0.075,-0.100
8.372,0.065,-0.115
8.375,0.065,-0.110
8.378,0.080,-0.090
8.381,0.095,-0.095
8.383,0.095,-0.095
8.386,0.110,-0.110
8.389,0.095,-0.120
8.392,0.100,-0.110
8.394,0.110,-0.100
8.397,0.095,-0.110
8.400,0.090,-0.120
8.403,0.080,-0.115
8.406,0.060,-0.115
8.408,0.070,-0.110
8.411,0.065,-0.095
8.414,0.060,-0.090
8.417,0.065,-0.100
8.419,0.060,-0.110
8.422,0.055,-0.115
8.425,0.060,-0.100
8.428,0.080,-0.080
8.431,0.075,-0.080
8.433,0.055,-0.080
8.436,0.020,-0.090
8.439,-0.015,-0.090
8.442,-0.050,-0.075
8.444,-0.065,-0.060
8.447,-0.090,-0.060
8.450,-0.110,-0.060
8.453,-0.135,-0.080
8.456,-0.175,-0.065
8.458,-0.195,-0.075
8.461,-0.210,-0.065
8.464,-0.210,-0.055
8.467,-0.210,-0.065
8.469,-0.220,-0.075
8.472,-0.245,-0.070
8.475,-0.250,-0.065
8.478,-0.235,-0.055
8.481,-0.220,-0.065
8.483,-0.230,-0.060
8.486,-0.230,-0.075
8.489,-0.240,-0.070
8.492,-0.245,-0.065
8.494,-0.235,-0.060
8.497,-0.230,-0.065
8.500,-0.235,-0.070
8.503,-0.240,-0.080
8.506,-0.255,-0.085
8.508,-0.250,-0.075
8.511,-0.230,-0.060
8.514,-0.235,-0.070
8.517,-0.240,-0.080
8.519,-0.265,-0.095
8.522,-0.255,-0.080
8.525,-0.260,-0.085
8.528,-0.250,-0.075
8.531,-0.230,-0.080
8.533,-0.235,-0.085
8.536,-0.235,-0.095
8.539,-0.240,-0.090
8.542,-0.230,-0.085
8.544,-0.225,-0.085
8.547,-0.235,-0.080
8.550,-0.240,-0.075
8.553,-0.240,-0.080
8.556,-0.240,-0.095
8.558,-0.220,-0.090
8.561,-0.215,-0.080
8.564,-0.205,-0.085
8.567,-0.210,-0.090
8.569,-0.215,-0.085
8.572,-0.220,-0.090
8.575,-0.225,-0.070
8.578,-0.210,-0.065
8.581,-0.210,-0.070
8.583,-0.210,-0.070
8.586,-0.215,-0.060
8.589,-0.235,-0.060
8.592,-0.255,-0.030
8.594,-0.260,-0.005
8.597,-0.265,0.020
8.600,-0.265,0.045
8.603,-0.270,0.045
8.606,-0.250,0.030
8.608,-0.155,0.015
8.611,-0.040,-0.010
8.614,0.050,-0.060
8.617,0.150,-0.140
8.619,0.215,-0.220
8.622,0.275,-0.315
8.625,0.320,-0.395
8.628,0.390,-0.455
8.631,0.490,-0.585
8.633,0.595,-0.755
8.636,0.690,-0.925
8.639,0.780,-1.060
8.642,0.860,-1.165
8.644,0.935,-1.210
8.647,0.970,-1.240
8.650,0.980,-1.260
8.653,0.950,-1.270
8.656,0.940,-1.265
8.658,0.915,-1.215
8.661,0.880,-1.155
8.664,0.800,-1.095
8.667,0.685,-1.035
8.669,0.585,-0.985
8.672,0.495,-0.930
8.675,0.410,-0.865
8.678,0.315,-0.785
8.681,0.200,-0.730
8.683,0.070,-0.665
8.686,-0.100,-0.620
8.689,-0.265,-0.570
8.692,-0.375,-0.510
8.694,-0.480,-0.465
8.697,-0.590,-0.450
8.700,-0.680,-0.420
8.703,-0.750,-0.395
8.706,-0.790,-0.355
8.708,-0.825,-0.315
8.711,-0.830,-0.290
8.714,-0.835,-0.260
8.717,-0.835,-0.245
8.719,-0.830,-0.235
8.722,-0.845,-0.200
8.725,-0.845,-0.180
8.728,-0.820,-0.145
8.731,-0.775,-0.115
8.733,-0.755,-0.085
8.736,-0.730,-0.080
8.739,-0.700,-0.065
8.742,-0.670,-0.025
8.744,-0.650,0.005
8.747,-0.625,0.025
8.750,-0.610,0.055
8.753,-0.605,0.055
8.756,-0.590,0.065
8.758,-0.555,0.090
8.761,-0.515,0.120
8.764,-0.490,0.120
8.767,-0.490,0.135
8.769,-0.480,0.125
8.772,-0.490,0.135
8.775,-0.465,0.145
8.778,-0.455,0.165
8.781,-0.455,0.160
8.783,-0.445,0.160
8.786,-0.450,0.150
8.789,-0.460,0.155
8.792,-0.465,0.165
8.794,-0.460,0.170
8.797,-0.465,0.180
8.800,-0.455,0.175
8.803,-0.475,0.185
8.806,-0.475,0.170
8.808,-0.475,0.190
8.811,-0.460,0.200
8.814,-0.465,0.190
8.817,-0.460,0.185
8.819,-0.475,0.180
8.822,-0.485,0.195
8.825,-0.495,0.210
8.828,-0.485,0.220
8.831,-0.480,0.225
8.833,-0.480,0.225
8.836,-0.500,0.225
8.839,-0.510,0.235
8.842,-0.505,0.245
8.844,-0.490,0.260
8.847,-0.490,0.260
8.850,-0.495,0.245
8.853,-0.495,0.240
8.856,-0.500,0.245
8.858,-0.500,0.250
8.861,-0.485,0.260
8.864,-0.470,0.265
8.867,-0.475,0.255
8.869,-0.470,0.250
8.872,-0.475,0.250
8.875,-0.470,0.265
8.878,-0.450,0.270
8.881,-0.435,0.275
8.883,-0.435,0.265
8.886,-0.435,0.270
8.889,-0.430,0.260
8.892,-0.415,0.260
8.894,-0.410,0.275
8.897,-0.390,0.270
8.900,-0.390,0.275
8.903,-0.385,0.255
8.906,-0.385,0.250
8.908,-0.375,0.255
8.911,-0.365,0.265
8.914,-0.335,0.260
8.917,-0.315,0.250
8.919,-0.310,0.245
8.922,-0.315,0.240
8.925,-0.305,0.235
8.928,-0.285,0.245
8.931,-0.255,0.255
8.933,-0.245,0.240
8.936,-0.235,0.245
8.939,-0.240,0.235
8.942,-0.225,0.230
8.944,-0.215,0.245
8.947,-0.175,0.225
8.950,-0.160,0.215
8.953,-0.145,0.195
8.956,-0.155,0.200
8.958,-0.150,0.200
8.961,-0.135,0.210
8.964,-0.120,0.205
8.967,-0.120,0.195
8.969,-0.110,0.160
8.972,-0.110,0.165
8.975,-0.100,0.170
8.978,-0.080,0.170
8.981,-0.060,0.175
8.983,-0.050,0.160
8.986,-0.045,0.145
8.989,-0.055,0.135
8.992,-0.040,0.140
8.994,-0.040,0.135
8.997,-0.010,0.135
9.000,0.015,0.125
9.003,0.020,0.110
9.006,0.015,0.120
9.008,0.000,0.120
9.011,0.010,0.135
9.014,0.025,0.120
9.017,0.025,0.115
9.019,0.020,0.100
9.022,0.015,0.095
9.025,0.015,0.085
9.028,0.025,0.090
9.031,0.015,0.080
9.033,-0.005,0.065
9.036,-0.025,0.065
9.039,-0.035,0.050
9.042,-0.025,0.055
9.044,0.000,0.080
9.047,0.025,0.070
9.050,0.030,0.055
9.053,0.015,0.055
9.056,-0.005,0.065
9.058,-0.015,0.075
9.061,-0.005,0.110
9.064,-0.005,0.145
9.067,-0.005,0.190
9.069,-0.030,0.195
9.072,-0.035,0.185
9.075,-0.035,0.165
9.078,-0.035,0.125
9.081,-0.030,0.105
9.083,-0.035,0.080
9.086,-0.060,0.110
9.089,-0.065,0.135
9.092,-0.050,0.150
9.094,-0.040,0.135
9.097,-0.045,0.100
9.100,-0.060,0.060
9.103,-0.095,0.015
9.106,-0.135,-0.020
9.108,-0.160,-0.030
9.111,-0.180,-0.025
9.114,-0.200,-0.005
9.117,-0.225,-0.010
9.119,-0.265,0.000
9.122,-0.290,0.015
9.125,-0.320,0.040
9.128,-0.325,0.060
9.131,-0.335,0.075
9.133,-0.345,0.080
9.136,-0.360,0.070
9.139,-0.385,0.080
9.142,-0.370,0.080
9.144,-0.360,0.090
9.147,-0.335,0.095
9.150,-0.345,0.075
9.153,-0.345,0.070
9.156,-0.360,0.075
9.158,-0.365,0.075
9.161,-0.350,0.085
9.164,-0.335,0.080
9.167,-0.340,0.075
9.169,-0.355,0.060
9.172,-0.365,0.055
9.175,-0.360,0.070
9.178,-0.345,0.080
9.181,-0.335,0.085
9.183,-0.345,0.075
9.186,-0.360,0.065
9.189,-0.365,0.070
9.192,-0.360,0.070
9.194,-0.350,0.095
9.197,-0.335,0.070
9.200,-0.345,0.065
9.203,-0.350,0.065
9.206,-0.375,0.065
9.208,-0.350,0.075
9.211,-0.340,0.075
9.214,-0.320,0.080
9.217,-0.325,0.075
9.219,-0.335,0.075
9.222,-0.345,0.065
9.225,-0.345,0.070
9.228,-0.340,0.080
9.231,-0.330,0.075
9.233,-0.305,0.075
9.236,-0.315,0.075
9.239,-0.330,0.070
9.242,-0.330,0.085
9.244,-0.310,0.100
9.247,-0.315,0.100
9.250,-0.310,0.110
9.253,-0.325,0.125
9.256,-0.355,0.140
9.258,-0.350,0.165
9.261,-0.305,0.185
9.264,-0.220,0.185
9.267,-0.110,0.160
9.269,0.020,0.100
9.272,0.120,0.050
9.275,0.200,-0.010
9.278,0.285,-0.085
9.281,0.345,-0.165
9.283,0.395,-0.220
9.286,0.430,-0.295
9.289,0.495,-0.365
9.292,0.565,-0.470
9.294,0.655,-0.585
9.297,0.740,-0.725
9.300,0.805,-0.855
9.303,0.820,-0.960
9.306,0.795,-1.000
9.308,0.755,-0.980
9.311,0.730,-0.940
9.314,0.700,-0.890
9.317,0.650,-0.850
9.319,0.560,-0.815
9.322,0.445,-0.765
9.325,0.365,-0.705
9.328,0.295,-0.665
9.331,0.210,-0.610
9.333,0.110,-0.545
9.336,0.005,-0.515
9.339,-0.150,-0.465
9.342,-0.305,-0.390
9.344,-0.450,-0.350
9.347,-0.555,-0.315
9.350,-0.660,-0.295
9.353,-0.770,-0.275
9.356,-0.870,-0.250
9.358,-0.925,-0.195
9.361,-0.950,-0.140
9.364,-0.970,-0.115
9.367,-0.960,-0.115
9.369,-0.975,-0.100
9.372,-0.975,-0.080
9.375,-0.950,-0.050
9.378,-0.940,-0.020
9.381,-0.915,0.000
9.383,-0.895,0.025
9.386,-0.860,0.035
9.389,-0.840,0.060
9.392,-0.820,0.090
9.394,-0.775,0.125
9.397,-0.750,0.140
9.400,-0.720,0.150
9.403,-0.725,0.160
9.406,-0.705,0.165
9.408,-0.685,0.185
9.411,-0.640,0.205
9.414,-0.610,0.220
9.417,-0.610,0.220
9.419,-0.600,0.215
9.422,-0.610,0.220
9.425,-0.575,0.240
9.428,-0.545,0.250
9.431,-0.530,0.240
9.433,-0.530,0.240
9.436,-0.545,0.235
9.439,-0.555,0.235
9.442,-0.560,0.230
9.444,-0.555,0.245
9.447,-0.550,0.245
9.450,-0.545,0.245
9.453,-0.560,0.240
9.456,-0.565,0.225
9.458,-0.565,0.255
9.461,-0.565,0.270
9.464,-0.540,0.260
9.467,-0.560,0.260
9.469,-0.565,0.250
9.472,-0.580,0.265
9.475,-0.565,0.275
9.478,-0.555,0.270
9.481,-0.540,0.275
9.483,-0.550,0.265
9.486,-0.560,0.270
9.489,-0.560,0.270
9.492,-0.545,0.275
9.494,-0.540,0.285
9.497,-0.525,0.290
9.500,-0.535,0.275
9.503,-0.535,0.275
9.506,-0.545,0.280
9.508,-0.535,0.290
9.511,-0.525,0.285
9.514,-0.510,0.300
9.517,-0.505,0.295
9.519,-0.500,0.290
9.522,-0.500,0.295
9.525,-0.475,0.305
9.528,-0.460,0.295
9.531,-0.435,0.300
9.533,-0.435,0.290
9.536,-0.445,0.285
9.539,-0.445,0.275
9.542,-0.420,0.280
9.544,-0.410,0.285
9.547,-0.395,0.290
9.550,-0.385,0.285
9.553,-0.400,0.270
9.556,-0.380,0.275
9.558,-0.370,0.280
9.561,-0.360,0.275
9.564,-0.340,0.285
9.567,-0.320,0.265
9.569,-0.325,0.250
9.572,-0.330,0.260
9.575,-0.315,0.255
9.578,-0.285,0.270
9.581,-0.265,0.275
9.583,-0.255,0.255
9.586,-0.230,0.250
9.589,-0.225,0.255
9.592,-0.210,0.270
9.594,-0.205,0.275
9.597,-0.175,0.240
9.600,-0.175,0.220
9.603,-0.160,0.190
9.606,-0.175,0.195
9.608,-0.170,0.200
9.611,-0.160,0.200
9.614,-0.135,0.190
9.617,-0.140,0.200
9.619,-0.135,0.180
9.622,-0.135,0.180
9.625,-0.120,0.180
9.628,-0.110,0.190
9.631,-0.100,0.185
9.633,-0.085,0.195
9.636,-0.085,0.195
9.639,-0.090,0.200
9.642,-0.065,0.200
9.644,-0.050,0.205
9.647,-0.040,0.165
9.650,-0.050,0.135
9.653,-0.045,0.125
9.656,-0.050,0.130
9.658,-0.040,0.135
9.661,-0.020,0.145
9.664,-0.015,0.120
9.667,-0.035,0.105
9.669,-0.055,0.065
9.672,-0.075,0.075
9.675,-0.085,0.085
9.678,-0.050,0.075
9.681,-0.040,0.075
9.683,-0.040,0.075
9.686,-0.050,0.070
9.689,-0.055,0.065
9.692,-0.075,0.085
9.694,-0.075,0.085
9.697,-0.065,0.080
9.700,-0.065,0.075
9.703,-0.075,0.070
9.706,-0.080,0.075
9.708,-0.085,0.075
9.711,-0.075,0.085
9.714,-0.065,0.085
9.717,-0.070,0.085
9.719,-0.075,0.065
9.722,-0.095,0.065
9.725,-0.105,0.075
9.728,-0.090,0.095
9.731,-0.080,0.095
9.733,-0.080,0.090
9.736,-0.090,0.085
9.739,-0.110,0.090
9.742,-0.130,0.105
9.744,-0.135,0.115
9.747,-0.170,0.115
9.750,-0.185,0.105
9.753,-0.225,0.100
9.756,-0.265,0.100
9.758,-0.290,0.115
9.761,-0.305,0.120
9.764,-0.325,0.120
9.767,-0.340,0.120
9.769,-0.365,0.125
9.772,-0.360,0.150
9.775,-0.355,0.165
9.778,-0.350,0.170
9.781,-0.355,0.170
9.783,-0.360,0.145
9.786,-0.365,0.110
9.789,-0.375,0.100
9.792,-0.365,0.110
9.794,-0.365,0.105
9.797,-0.350,0.095
9.800,-0.360,0.095
9.803,-0.380,0.070
9.806,-0.370,0.070
9.808,-0.370,0.080
9.811,-0.350,0.080
9.814,-0.355,0.080
9.817,-0.375,0.090
9.819,-0.380,0.090
9.822,-0.395,0.085
9.825,-0.380,0.085
9.828,-0.365,0.095
9.831,-0.355,0.095
9.833,-0.335,0.095
9.836,-0.355,0.095
9.839,-0.365,0.080
9.842,-0.365,0.080
9.844,-0.370,0.105
9.847,-0.355,0.090
9.850,-0.360,0.080
9.853,-0.360,0.090
9.856,-0.370,0.090
9.858,-0.360,0.095
9.861,-0.365,0.105
9.864,-0.350,0.085
9.867,-0.350,0.095
9.869,-0.345,0.075
9.872,-0.370,0.085
9.875,-0.365,0.095
9.878,-0.355,0.090
9.881,-0.350,0.110
9.883,-0.345,0.090
9.886,-0.340,0.085
9.889,-0.330,0.090
9.892,-0.325,0.115
9.894,-0.320,0.140
9.897,-0.335,0.145
9.900,-0.360,0.170
9.903,-0.380,0.165
9.906,-0.390,0.175
9.908,-0.365,0.200
9.911,-0.320,0.205
9.914,-0.205,0.175
9.917,-0.080,0.125
9.919,0.025,0.075
9.922,0.085,0.005
9.925,0.145,-0.050
9.928,0.170,-0.105
9.931,0.195,-0.175
9.933,0.240,-0.260
9.936,0.295,-0.380
9.939,0.355,-0.525
9.942,0.430,-0.665
9.944,0.510,-0.785
9.947,0.585,-0.900
9.950,0.595,-0.965
9.953,0.590,-0.980
9.956,0.550,-0.980
9.958,0.545,-0.955
9.961,0.540,-0.915
9.964,0.530,-0.900
9.967,0.505,-0.850
9.969,0.435,-0.795
9.972,0.360,-0.740
9.975,0.300,-0.680
9.978,0.235,-0.615
9.981,0.175,-0.560
9.983,0.110,-0.510
9.986,0.000,-0.470
9.989,-0.125,-0.425
9.992,-0.245,-0.375
9.994,-0.355,-0.320
9.997,-0.465,-0.290
10.000,-0.595,-0.270
10.003,-0.700,-0.255
10.006,-0.790,-0.220
10.008,-0.840,-0.160
10.011,-0.855,-0.115
10.014,-0.865,-0.100
10.017,-0.870,-0.080
10.019,-0.885,-0.085
10.022,-0.890,-0.050
10.025,-0.890,-0.015
10.028,-0.875,0.020
10.031,-0.855,0.030
10.033,-0.840,0.065
10.036,-0.825,0.065
10.039,-0.790,0.085
10.042,-0.755,0.115
10.044,-0.725,0.145
10.047,-0.705,0.165
10.050,-0.690,0.175
10.053,-0.685,0.185
10.056,-0.670,0.200
10.058,-0.635,0.220
10.061,-0.600,0.240
10.064,-0.585,0.245
10.067,-0.575,0.245
10.069,-0.565,0.240
10.072,-0.570,0.240
10.075,-0.560,0.260
10.078,-0.540,0.265
10.081,-0.525,0.270
10.083,-0.530,0.265
10.086,-0.540,0.250
10.089,-0.540,0.255
10.092,-0.545,0.265
10.094,-0.540,0.280
10.097,-0.530,0.275
10.100,-0.540,0.275
10.103,-0.545,0.280
10.106,-0.560,0.265
10.108,-0.570,0.285
10.111,-0.550,0.300
10.114,-0.530,0.295
10.117,-0.525,0.285
10.119,-0.535,0.290
10.122,-0.550,0.290
10.125,-0.560,0.305
10.128,-0.540,0.310
10.131,-0.535,0.315
10.133,-0.535,0.315
10.136,-0.535,0.305
10.139,-0.535,0.310
10.142,-0.540,0.320
10.144,-0.545,0.335
10.147,-0.555,0.345
10.150,-0.550,0.350
10.153,-0.545,0.335
10.156,-0.545,0.345
10.158,-0.535,0.340
10.161,-0.525,0.350
10.164,-0.510,0.355
10.167,-0.505,0.350
10.169,-0.485,0.335
10.172,-0.500,0.335
10.175,-0.485,0.350
10.178,-0.460,0.355
10.181,-0.435,0.355
10.183,-0.440,0.335
10.186,-0.440,0.335
10.189,-0.435,0.325
10.192,-0.415,0.345
10.194,-0.400,0.350
10.197,-0.395,0.330
10.200,-0.380,0.335
10.203,-0.390,0.315
10.206,-0.370,0.315
10.208,-0.350,0.330
10.211,-0.330,0.320
10.214,-0.315,0.315
10.217,-0.310,0.315
10.219,-0.300,0.305
10.222,-0.305,0.300
10.225,-0.290,0.295
10.228,-0.275,0.310
10.231,-0.250,0.295
10.233,-0.230,0.280
10.236,-0.230,0.270
10.239,-0.245,0.270
10.242,-0.230,0.270
10.244,-0.210,0.275
10.247,-0.185,0.270
10.250,-0.165,0.250
10.253,-0.165,0.240
10.256,-0.175,0.220
10.258,-0.165,0.230
10.261,-0.160,0.240
10.264,-0.135,0.225
10.267,-0.140,0.215
10.269,-0.155,0.190
10.272,-0.170,0.165
10.275,-0.155,0.185
10.278,-0.140,0.195
10.281,-0.120,0.195
10.283,-0.105,0.205
10.286,-0.100,0.185
10.289,-0.090,0.185
10.292,-0.080,0.195
10.294,-0.065,0.195
10.297,-0.055,0.185
10.300,-0.060,0.180
10.303,-0.060,0.165
10.306,-0.055,0.160
10.308,-0.050,0.185
10.311,-0.055,0.195
10.314,-0.065,0.170
10.317,-0.095,0.135
10.319,-0.100,0.090
10.322,-0.100,0.095
10.325,-0.085,0.100
10.328,-0.070,0.080
10.331,-0.060,0.055
10.333,-0.060,0.025
10.336,-0.060,0.035
10.339,-0.055,0.030
10.342,-0.050,0.035
10.344,-0.045,0.065
10.347,-0.035,0.075
10.350,-0.030,0.085
10.353,-0.055,0.100
10.356,-0.075,0.110
10.358,-0.095,0.130
10.361,-0.120,0.160
10.364,-0.125,0.200
10.367,-0.130,0.225
10.369,-0.140,0.250
10.372,-0.140,0.305
10.375,-0.135,0.375
10.378,-0.135,0.500
10.381,-0.160,0.605
10.383,-0.180,0.570
10.386,-0.215,0.420
10.389,-0.215,0.225
10.392,-0.215,0.090
10.394,-0.215,0.020
10.397,-0.245,0.000
10.400,-0.310,0.015
10.403,-0.385,0.035
10.406,-0.405,0.025
10.408,-0.380,0.015
10.411,-0.345,-0.020
10.414,-0.330,-0.030
10.417,-0.340,-0.025
10.419,-0.395,-0.015
10.422,-0.440,0.020
10.425,-0.435,0.040
10.428,-0.425,0.070
10.431,-0.405,0.075
10.433,-0.395,0.075
10.436,-0.400,0.075
10.439,-0.410,0.090
10.442,-0.395,0.080
10.444,-0.390,0.090
10.447,-0.395,0.110
10.450,-0.390,0.100
10.453,-0.395,0.090
10.456,-0.400,0.095
10.458,-0.385,0.095
10.461,-0.390,0.100
10.464,-0.370,0.105
10.467,-0.380,0.090
10.469,-0.385,0.085
10.472,-0.390,0.090
10.475,-0.385,0.085
10.478,-0.370,0.105
10.481,-0.355,0.100
10.483,-0.365,0.090
10.486,-0.380,0.070
10.489,-0.380,0.085
10.492,-0.385,0.070
10.494,-0.370,0.105
10.497,-0.355,0.090
10.500,-0.370,0.085
10.503,-0.375,0.075
10.506,-0.365,0.075
10.508,-0.355,0.080
10.511,-0.350,0.080
10.514,-0.345,0.095
10.517,-0.340,0.095
10.519,-0.340,0.085
10.522,-0.355,0.090
10.525,-0.370,0.115
10.528,-0.360,0.145
10.531,-0.385,0.170
10.533,-0.390,0.185
10.536,-0.405,0.185
10.539,-0.410,0.195
10.542,-0.370,0.215
10.544,-0.290,0.195
10.547,-0.170,0.145
10.550,-0.065,0.085
10.553,0.015,0.000
10.556,0.055,-0.075
10.558,0.080,-0.135
10.561,0.115,-0.185
10.564,0.195,-0.280
10.567,0.275,-0.425
10.569,0.365,-0.590
10.572,0.435,-0.755
10.575,0.505,-0.865
10.578,0.570,-0.930
10.581,0.610,-0.965
10.583,0.625,-0.985
10.586,0.610,-0.995
10.589,0.600,-0.970
10.592,0.600,-0.930
10.594,0.565,-0.855
10.597,0.515,-0.815
10.600,0.425,-0.750
10.603,0.340,-0.700
10.606,0.275,-0.640
10.608,0.230,-0.570
10.611,0.170,-0.520
10.614,0.065,-0.465
10.617,-0.050,-0.430
10.619,-0.195,-0.390
10.622,-0.330,-0.350
10.625,-0.465,-0.295
10.628,-0.580,-0.250
10.631,-0.665,-0.235
10.633,-0.725,-0.215
10.636,-0.785,-0.190
10.639,-0.825,-0.160
10.642,-0.850,-0.125
10.644,-0.855,-0.105
10.647,-0.860,-0.085
10.650,-0.840,-0.070
10.653,-0.850,-0.050
10.656,-0.870,-0.015
10.658,-0.870,0.010
10.661,-0.845,0.050
10.664,-0.810,0.070
10.667,-0.775,0.080
10.669,-0.755,0.100
10.672,-0.760,0.100
10.675,-0.715,0.150
10.678,-0.695,0.175
10.681,-0.680,0.190
10.683,-0.650,0.205
10.686,-0.640,0.210
10.689,-0.615,0.220
10.692,-0.595,0.240
10.694,-0.570,0.260
10.697,-0.545,0.250
10.700,-0.540,0.265
10.703,-0.530,0.255
10.706,-0.550,0.265
10.708,-0.540,0.260
10.711,-0.520,0.280
10.714,-0.510,0.285
10.717,-0.500,0.280
10.719,-0.515,0.275
10.722,-0.530,0.275
10.725,-0.520,0.280
10.728,-0.510,0.295
10.731,-0.505,0.310
10.733,-0.525,0.305
10.736,-0.535,0.290
10.739,-0.550,0.295
10.742,-0.550,0.305
10.744,-0.545,0.320
10.747,-0.535,0.320
10.750,-0.525,0.325
10.753,-0.535,0.310
10.756,-0.545,0.320
10.758,-0.545,0.330
10.761,-0.530,0.345
10.764,-0.530,0.340
10.767,-0.540,0.350
10.769,-0.535,0.340
10.772,-0.550,0.345
10.775,-0.545,0.360
10.778,-0.535,0.365
10.781,-0.525,0.360
10.783,-0.525,0.355
10.786,-0.530,0.355
10.789,-0.525,0.360
10.792,-0.520,0.360
10.794,-0.510,0.385
10.797,-0.485,0.375
10.800,-0.485,0.375
10.803,-0.495,0.365
10.806,-0.500,0.375
10.808,-0.475,0.375
10.811,-0.460,0.380
10.814,-0.435,0.385
10.817,-0.435,0.385
10.819,-0.425,0.380
10.822,-0.410,0.405
10.825,-0.390,0.450
10.828,-0.365,0.480
10.831,-0.360,0.520
10.833,-0.350,0.495
10.836,-0.335,0.440
10.839,-0.345,0.390
10.842,-0.345,0.355
10.844,-0.330,0.350
10.847,-0.325,0.365
10.850,-0.320,0.395
10.853,-0.315,0.420
10.856,-0.320,0.445
10.858,-0.305,0.490
10.861,-0.300,0.555
10.864,-0.285,0.585
10.867,-0.240,0.490
10.869,-0.200,0.355
10.872,-0.170,0.210
10.875,-0.165,0.155
10.878,-0.170,0.145
10.881,-0.190,0.160
10.883,-0.215,0.170
10.886,-0.245,0.180
10.889,-0.235,0.175
10.892,-0.215,0.190
10.894,-0.180,0.205
10.897,-0.165,0.195
10.900,-0.145,0.205
10.903,-0.135,0.200
10.906,-0.140,0.180
10.908,-0.110,0.185
10.911,-0.085,0.170
10.914,-0.055,0.160
10.917,-0.045,0.145
10.919,-0.045,0.130
10.922,-0.050,0.135
10.925,-0.040,0.145
10.928,-0.030,0.160
10.931,-0.010,0.160
10.933,-0.015,0.150
10.936,-0.010,0.145
10.939,-0.030,0.135
10.942,-0.040,0.135
10.944,-0.035,0.135
10.947,-0.045,0.120
10.950,-0.055,0.110
10.953,-0.055,0.105
10.956,-0.060,0.095
10.958,-0.040,0.095
10.961,-0.025,0.115
10.964,-0.015,0.110
10.967,-0.010,0.090
10.969,-0.025,0.095
10.972,-0.040,0.090
10.975,-0.035,0.095
10.978,-0.035,0.110
10.981,-0.025,0.115
10.983,-0.050,0.110
10.986,-0.070,0.115
10.989,-0.075,0.095
10.992,-0.075,0.100
10.994,-0.060,0.115
10.997,-0.060,0.115
11.000,-0.055,0.105
11.003,-0.070,0.105
11.006,-0.070,0.115
11.008,-0.070,0.135
11.011,-0.085,0.130
11.014,-0.105,0.125
11.017,-0.155,0.120
11.019,-0.185,0.125
11.022,-0.220,0.130
11.025,-0.245,0.130
11.028,-0.275,0.155
11.031,-0.290,0.150
11.033,-0.310,0.135
11.036,-0.325,0.135
11.039,-0.360,0.145
11.042,-0.350,0.145
11.044,-0.355,0.160
11.047,-0.355,0.165
11.050,-0.360,0.145
11.053,-0.360,0.140
11.056,-0.375,0.135
11.058,-0.395,0.145
11.061,-0.370,0.155
11.064,-0.375,0.145
11.067,-0.370,0.130
11.069,-0.380,0.130
11.072,-0.400,0.125
11.075,-0.390,0.135
11.078,-0.380,0.135
11.081,-0.370,0.135
11.083,-0.375,0.145
11.086,-0.400,0.130
11.089,-0.400,0.125
11.092,-0.385,0.130
11.094,-0.380,0.140
11.097,-0.365,0.135
11.100,-0.365,0.120
11.103,-0.390,0.110
11.106,-0.385,0.110
11.108,-0.375,0.120
11.111,-0.365,0.130
11.114,-0.350,0.130
11.117,-0.360,0.120
11.119,-0.370,0.115
11.122,-0.375,0.115
11.125,-0.365,0.130
11.128,-0.365,0.135
11.131,-0.360,0.140
11.133,-0.350,0.125
11.136,-0.355,0.125
11.139,-0.360,0.125
11.142,-0.355,0.125
11.144,-0.345,0.140
11.147,-0.335,0.140
11.150,-0.335,0.140
11.153,-0.350,0.125
11.156,-0.360,0.135
11.158,-0.370,0.160
11.161,-0.360,0.190
11.164,-0.375,0.210
11.167,-0.405,0.240
11.169,-0.425,0.245
11.172,-0.425,0.255
11.175,-0.380,0.250
11.178,-0.300,0.230
11.181,-0.200,0.195
11.183,-0.090,0.135
11.186,0.005,0.050
11.189,0.075,-0.040
11.192,0.125,-0.105
11.194,0.165,-0.170
11.197,0.245,-0.280
11.200,0.345,-0.415
11.203,0.455,-0.580
11.206,0.535,-0.755
11.208,0.640,-0.890
11.211,0.725,-0.960
11.214,0.785,-1.005
11.217,0.820,-1.035
11.219,0.820,-1.050
11.222,0.795,-1.040
11.225,0.775,-0.995
11.228,0.755,-0.930
11.231,0.700,-0.885
11.233,0.600,-0.825
11.236,0.500,-0.765
11.239,0.410,-0.695
11.242,0.330,-0.620
11.244,0.270,-0.550
11.247,0.170,-0.510
11.250,0.050,-0.460
11.253,-0.105,-0.415
11.256,-0.265,-0.365
11.258,-0.385,-0.330
11.261,-0.500,-0.270
11.264,-0.620,-0.240
11.267,-0.745,-0.220
11.269,-0.810,-0.190
11.272,-0.860,-0.155
11.275,-0.895,-0.125
11.278,-0.905,-0.100
11.281,-0.900,-0.075
11.283,-0.900,-0.050
11.286,-0.915,-0.040
11.289,-0.930,-0.015
11.292,-0.915,0.025
11.294,-0.895,0.050
11.297,-0.855,0.075
11.300,-0.820,0.095
11.303,-0.785,0.115
11.306,-0.775,0.140
11.308,-0.745,0.170
11.311,-0.715,0.200
11.314,-0.710,0.225
11.317,-0.680,0.230
11.319,-0.670,0.250
11.322,-0.670,0.250
11.325,-0.635,0.280
11.328,-0.610,0.305
11.331,-0.580,0.305
11.333,-0.565,0.305
11.336,-0.575,0.290
11.339,-0.570,0.305
11.342,-0.555,0.305
11.344,-0.545,0.320
11.347,-0.545,0.320
11.350,-0.530,0.310
11.353,-0.545,0.300
11.356,-0.560,0.315
11.358,-0.550,0.335
11.361,-0.535,0.345
11.364,-0.535,0.335
11.367,-0.545,0.330
11.369,-0.550,0.330
11.372,-0.555,0.335
11.375,-0.560,0.340
11.378,-0.555,0.355
11.381,-0.555,0.355
11.383,-0.560,0.360
11.386,-0.570,0.355
11.389,-0.580,0.375
11.392,-0.565,0.365
11.394,-0.550,0.380
11.397,-0.550,0.375
11.400,-0.550,0.385
11.403,-0.560,0.375
11.406,-0.575,0.375
11.408,-0.565,0.405
11.411,-0.560,0.405
11.414,-0.555,0.400
11.417,-0.540,0.395
11.419,-0.550,0.390
11.422,-0.550,0.390
11.425,-0.560,0.405
11.428,-0.545,0.420
11.431,-0.530,0.410
11.433,-0.515,0.405
11.436,-0.515,0.400
11.439,-0.525,0.400
11.442,-0.505,0.405
11.444,-0.490,0.410
11.447,-0.485,0.410
11.450,-0.470,0.400
11.453,-0.460,0.400
11.456,-0.465,0.390
11.458,-0.450,0.405
11.461,-0.430,0.415
11.464,-0.410,0.405
11.467,-0.395,0.395
11.469,-0.395,0.380
11.472,-0.390,0.380
11.475,-0.385,0.395
11.478,-0.365,0.395
11.481,-0.320,0.385
11.483,-0.320,0.375
11.486,-0.310,0.360
11.489,-0.320,0.355
11.492,-0.295,0.365
11.494,-0.275,0.365
11.497,-0.265,0.355
11.500,-0.265,0.355
11.503,-0.250,0.335
11.506,-0.245,0.315
11.508,-0.235,0.330
11.511,-0.210,0.335
11.514,-0.195,0.330
11.517,-0.185,0.315
11.519,-0.180,0.300
11.522,-0.185,0.295
11.525,-0.170,0.300
11.528,-0.150,0.305
11.531,-0.145,0.295
11.533,-0.130,0.280
11.536,-0.135,0.265
11.539,-0.135,0.265
11.542,-0.120,0.270
11.544,-0.100,0.275
11.547,-0.075,0.260
11.550,-0.065,0.255
11.553,-0.055,0.240
11.556,-0.055,0.235
11.558,-0.045,0.245
11.561,-0.015,0.245
11.564,-0.005,0.230
11.567,-0.010,0.215
11.569,-0.005,0.195
11.572,-0.025,0.190
11.575,-0.020,0.205
11.578,-0.040,0.195
11.581,-0.030,0.180
11.583,-0.030,0.175
11.586,-0.040,0.155
11.589,-0.050,0.150
11.592,-0.040,0.150
11.594,-0.035,0.170
11.597,-0.020,0.145
11.600,-0.010,0.150
11.603,-0.020,0.145
11.606,-0.030,0.140
11.608,-0.035,0.145
11.611,-0.030,0.145
11.614,-0.025,0.150
11.617,-0.030,0.155
11.619,-0.035,0.145
11.622,-0.055,0.150
11.625,-0.065,0.145
11.628,-0.070,0.160
11.631,-0.055,0.160
11.633,-0.070,0.145
11.636,-0.070,0.150
11.639,-0.080,0.145
11.642,-0.080,0.165
11.644,-0.075,0.180
11.647,-0.095,0.180
11.650,-0.120,0.185
11.653,-0.160,0.170
11.656,-0.220,0.170
11.658,-0.240,0.170
11.661,-0.265,0.195
11.664,-0.275,0.190
11.667,-0.300,0.175
11.669,-0.335,0.175
11.672,-0.355,0.180
11.675,-0.350,0.195
11.678,-0.360,0.205
11.681,-0.355,0.190
11.683,-0.360,0.190
11.686,-0.380,0.190
11.689,-0.405,0.190
11.692,-0.400,0.190
11.694,-0.385,0.195
11.697,-0.375,0.190
11.700,-0.370,0.185
11.703,-0.380,0.170
11.706,-0.395,0.175
11.708,-0.390,0.185
11.711,-0.380,0.200
11.714,-0.380,0.180
11.717,-0.385,0.180
11.719,-0.390,0.170
11.722,-0.395,0.155
11.725,-0.390,0.180
11.728,-0.380,0.185
11.731,-0.380,0.170
11.733,-0.390,0.155
11.736,-0.395,0.165
11.739,-0.415,0.165
11.742,-0.395,0.175
11.744,-0.385,0.180
11.747,-0.370,0.185
11.750,-0.370,0.170
11.753,-0.370,0.165
11.756,-0.390,0.165
11.758,-0.395,0.175
11.761,-0.395,0.185
11.764,-0.380,0.185
11.767,-0.375,0.170
11.769,-0.380,0.160
11.772,-0.395,0.160
11.775,-0.385,0.170
11.778,-0.375,0.185
11.781,-0.365,0.195
11.783,-0.370,0.190
11.786,-0.375,0.190
11.789,-0.400,0.205
11.792,-0.405,0.240
11.794,-0.425,0.280
11.797,-0.415,0.295
11.800,-0.400,0.290
11.803,-0.370,0.300
11.806,-0.255,0.270
11.808,-0.100,0.220
11.811,0.070,0.155
11.814,0.185,0.050
11.817,0.270,-0.070
11.819,0.320,-0.175
11.822,0.375,-0.265
11.825,0.490,-0.395
11.828,0.610,-0.560
11.831,0.715,-0.760
11.833,0.820,-0.915
11.836,0.900,-1.005
11.839,0.920,-1.035
11.842,0.930,-1.020
11.844,0.910,-1.000
11.847,0.885,-0.960
11.850,0.815,-0.910
11.853,0.705,-0.845
11.856,0.570,-0.785
11.858,0.440,-0.700
11.861,0.325,-0.630
11.864,0.240,-0.565
11.867,0.110,-0.510
11.869,-0.025,-0.455
11.872,-0.205,-0.395
11.875,-0.375,-0.320
11.878,-0.515,-0.265
11.881,-0.645,-0.230
11.883,-0.785,-0.210
11.886,-0.900,-0.180
11.889,-0.980,-0.140
11.892,-1.010,-0.090
11.894,-1.030,-0.055
11.897,-1.040,-0.025
11.900,-1.020,-0.015
11.903,-1.015,0.010
11.906,-1.025,0.030
11.908,-1.010,0.065
11.911,-0.990,0.115
11.914,-0.955,0.140
11.917,-0.905,0.155
11.919,-0.870,0.170
11.922,-0.840,0.185
11.925,-0.830,0.220
11.928,-0.790,0.250
11.931,-0.780,0.275
11.933,-0.750,0.280
11.936,-0.735,0.305
11.939,-0.715,0.305
11.942,-0.685,0.330
11.944,-0.655,0.360
11.947,-0.630,0.355
11.950,-0.620,0.355
11.953,-0.620,0.355
11.956,-0.635,0.355
11.958,-0.625,0.360
11.961,-0.610,0.375
11.964,-0.605,0.375
11.967,-0.610,0.360
11.969,-0.625,0.370
11.972,-0.630,0.365
11.975,-0.635,0.380
11.978,-0.630,0.400
11.981,-0.620,0.385
11.983,-0.625,0.390
11.986,-0.640,0.380
11.989,-0.640,0.365
11.992,-0.640,0.395
11.994,-0.645,0.400
11.997,-0.640,0.420
12.000,-0.645,0.405
12.003,-0.635,0.405
12.006,-0.650,0.410
12.008,-0.650,0.430
12.011,-0.630,0.430
12.014,-0.630,0.425
12.017,-0.625,0.420
12.019,-0.640,0.425
12.022,-0.645,0.425
12.025,-0.635,0.445
12.028,-0.625,0.450
12.031,-0.610,0.440
12.033,-0.610,0.450
12.036,-0.615,0.445
12.039,-0.615,0.440
12.042,-0.595,0.450
12.044,-0.580,0.450
12.047,-0.565,0.450
12.050,-0.570,0.445
12.053,-0.565,0.440
12.056,-0.550,0.435
12.058,-0.530,0.440
12.061,-0.510,0.445
12.064,-0.490,0.450
12.067,-0.495,0.420
12.069,-0.475,0.425
12.072,-0.480,0.415
12.075,-0.460,0.435
12.078,-0.440,0.440
12.081,-0.420,0.420
12.083,-0.405,0.425
12.086,-0.395,0.405
12.089,-0.385,0.405
12.092,-0.375,0.415
12.094,-0.360,0.400
12.097,-0.330,0.395
12.100,-0.305,0.380
12.103,-0.305,0.380
12.106,-0.325,0.365
12.108,-0.300,0.380
12.111,-0.280,0.385
12.114,-0.255,0.380
12.117,-0.240,0.360
12.119,-0.235,0.335
12.122,-0.225,0.345
12.125,-0.215,0.335
12.128,-0.205,0.350
12.131,-0.185,0.340
12.133,-0.170,0.330
12.136,-0.170,0.315
12.139,-0.165,0.315
12.142,-0.145,0.315
12.144,-0.115,0.315
12.147,-0.100,0.305
12.150,-0.100,0.300
12.153,-0.105,0.275
12.156,-0.095,0.290
12.158,-0.095,0.280
12.161,-0.080,0.280
12.164,-0.075,0.275
12.167,-0.080,0.260
12.169,-0.085,0.240
12.172,-0.110,0.225
12.175,-0.115,0.220
12.178,-0.110,0.220
12.181,-0.110,0.215
12.183,-0.095,0.215
12.186,-0.095,0.205
12.189,-0.085,0.195
12.192,-0.070,0.195
12.194,-0.080,0.205
12.197,-0.070,0.205
12.200,-0.090,0.190
12.203,-0.095,0.185
12.206,-0.100,0.190
12.208,-0.095,0.195
12.211,-0.100,0.200
12.214,-0.110,0.200
12.217,-0.125,0.200
12.219,-0.140,0.185
12.222,-0.150,0.170
12.225,-0.145,0.190
12.228,-0.140,0.210
12.231,-0.120,0.210
12.233,-0.130,0.210
12.236,-0.155,0.195
12.239,-0.185,0.215
12.242,-0.220,0.220
12.244,-0.235,0.235
12.247,-0.265,0.235
12.250,-0.310,0.215
12.253,-0.360,0.230
12.256,-0.405,0.230
12.258,-0.410,0.230
12.261,-0.405,0.240
12.264,-0.420,0.235
12.267,-0.420,0.230
12.269,-0.435,0.220
12.272,-0.460,0.225
12.275,-0.455,0.240
12.278,-0.445,0.250
12.281,-0.450,0.250
12.283,-0.445,0.230
12.286,-0.455,0.230
12.289,-0.465,0.225
12.292,-0.460,0.235
12.294,-0.460,0.240
12.297,-0.460,0.235
12.300,-0.460,0.230
12.303,-0.470,0.225
12.306,-0.480,0.220
12.308,-0.475,0.225
12.311,-0.465,0.235
12.314,-0.450,0.230
12.317,-0.450,0.230
12.319,-0.445,0.220
12.322,-0.445,0.210
12.325,-0.440,0.220
12.328,-0.445,0.225
12.331,-0.445,0.210
12.333,-0.455,0.200
12.336,-0.450,0.200
12.339,-0.450,0.200
12.342,-0.445,0.210
12.344,-0.440,0.215
12.347,-0.430,0.215
12.350,-0.425,0.210
12.353,-0.430,0.205
12.356,-0.445,0.195
12.358,-0.440,0.215
12.361,-0.420,0.215
12.364,-0.420,0.215
12.367,-0.410,0.200
12.369,-0.415,0.190
12.372,-0.420,0.200
12.375,-0.410,0.215
12.378,-0.420,0.225
12.381,-0.415,0.225
12.383,-0.410,0.235
12.386,-0.410,0.245
12.389,-0.445,0.270
12.392,-0.445,0.295
12.394,-0.435,0.335
12.397,-0.415,0.320
12.400,-0.370,0.340
12.403,-0.280,0.310
12.406,-0.160,0.260
12.408,-0.015,0.225
12.411,0.100,0.165
12.414,0.195,0.090
12.417,0.260,-0.010
12.419,0.275,-0.085
12.422,0.305,-0.170
12.425,0.385,-0.275
12.428,0.485,-0.410
12.431,0.575,-0.565
12.433,0.640,-0.715
12.436,0.695,-0.835
12.439,0.695,-0.890
12.442,0.675,-0.895
12.444,0.640,-0.850
12.447,0.610,-0.830
12.450,0.570,-0.805
12.453,0.505,-0.755
12.456,0.400,-0.690
12.458,0.310,-0.600
12.461,0.225,-0.530
12.464,0.135,-0.490
12.467,0.055,-0.420
12.469,-0.050,-0.395
12.472,-0.190,-0.335
12.475,-0.345,-0.280
12.478,-0.480,-0.235
12.481,-0.605,-0.200
12.483,-0.735,-0.165
12.486,-0.855,-0.145
12.489,-0.945,-0.105
12.492,-1.000,-0.050
12.494,-1.015,-0.020
12.497,-1.030,0.000
12.500,-1.030,0.015
12.503,-1.030,0.030
12.506,-1.030,0.055
12.508,-1.025,0.085
12.511,-1.005,0.140
12.514,-0.970,0.150
12.517,-0.935,0.160
12.519,-0.905,0.180
12.522,-0.885,0.205
12.525,-0.850,0.240
12.528,-0.820,0.265
12.531,-0.810,0.280
12.533,-0.795,0.285
12.536,-0.780,0.295
12.539,-0.755,0.300
12.542,-0.710,0.330
12.544,-0.680,0.350
12.547,-0.660,0.350
12.550,-0.650,0.355
12.553,-0.655,0.350
12.556,-0.650,0.350
12.558,-0.635,0.345
12.561,-0.625,0.365
12.564,-0.625,0.365
12.567,-0.625,0.345
12.569,-0.620,0.345
12.572,-0.640,0.350
12.575,-0.640,0.375
12.578,-0.630,0.390
12.581,-0.610,0.380
12.583,-0.625,0.380
12.586,-0.625,0.370
12.589,-0.650,0.375
12.592,-0.630,0.385
12.594,-0.625,0.395
12.597,-0.620,0.405
12.600,-0.630,0.390
12.603,-0.640,0.395
12.606,-0.645,0.390
12.608,-0.640,0.400
12.611,-0.625,0.425
12.614,-0.605,0.415
12.617,-0.625,0.420
12.619,-0.625,0.410
12.622,-0.630,0.420
12.625,-0.615,0.420
12.628,-0.610,0.425
12.631,-0.595,0.425
12.633,-0.580,0.425
12.636,-0.585,0.410
12.639,-0.585,0.415
12.642,-0.570,0.440
12.644,-0.555,0.445
12.647,-0.545,0.430
12.650,-0.530,0.420
12.653,-0.525,0.410
12.656,-0.515,0.405
12.658,-0.500,0.410
12.661,-0.475,0.420
12.664,-0.455,0.415
12.667,-0.450,0.410
12.669,-0.430,0.390
12.672,-0.435,0.390
12.675,-0.425,0.400
12.678,-0.395,0.415
12.681,-0.375,0.400
12.683,-0.360,0.385
12.686,-0.345,0.390
12.689,-0.345,0.380
12.692,-0.325,0.380
12.694,-0.305,0.390
12.697,-0.285,0.370
12.700,-0.275,0.370
12.703,-0.265,0.350
12.706,-0.265,0.340
12.708,-0.245,0.340
12.711,-0.230,0.345
12.714,-0.215,0.345
12.717,-0.200,0.340
12.719,-0.195,0.310
12.722,-0.195,0.305
12.725,-0.180,0.315
12.728,-0.170,0.320
12.731,-0.150,0.300
12.733,-0.145,0.305
12.736,-0.145,0.280
12.739,-0.130,0.285
12.742,-0.135,0.280
12.744,-0.110,0.300
12.747,-0.090,0.270
12.750,-0.100,0.270
12.753,-0.085,0.255
12.756,-0.085,0.255
12.758,-0.080,0.250
12.761,-0.060,0.255
12.764,-0.055,0.235
12.767,-0.090,0.220
12.769,-0.110,0.190
12.772,-0.140,0.205
12.775,-0.130,0.195
12.778,-0.115,0.200
12.781,-0.100,0.210
12.783,-0.085,0.195
12.786,-0.085,0.195
12.789,-0.100,0.185
12.792,-0.085,0.190
12.794,-0.090,0.180
12.797,-0.090,0.190
12.800,-0.090,0.195
12.803,-0.110,0.185
12.806,-0.125,0.190
12.808,-0.125,0.195
12.811,-0.115,0.205
12.814,-0.120,0.200
12.817,-0.120,0.195
12.819,-0.135,0.205
12.822,-0.140,0.205
12.825,-0.140,0.225
12.828,-0.155,0.235
12.831,-0.170,0.230
12.833,-0.210,0.230
12.836,-0.245,0.230
12.839,-0.275,0.220
12.842,-0.305,0.235
12.844,-0.320,0.245
12.847,-0.350,0.240
12.850,-0.375,0.250
12.853,-0.390,0.245
12.856,-0.415,0.240
12.858,-0.415,0.250
12.861,-0.410,0.260
12.864,-0.410,0.245
12.867,-0.410,0.250
12.869,-0.415,0.235
12.872,-0.425,0.235
12.875,-0.425,0.250
12.878,-0.425,0.245
12.881,-0.415,0.245
12.883,-0.425,0.230
12.886,-0.425,0.230
12.889,-0.435,0.230
12.892,-0.430,0.235
12.894,-0.415,0.245
12.897,-0.410,0.245
12.900,-0.415,0.230
12.903,-0.425,0.215
12.906,-0.430,0.220
12.908,-0.435,0.230
12.911,-0.430,0.230
12.914,-0.410,0.230
12.917,-0.405,0.215
12.919,-0.435,0.225
12.922,-0.410,0.220
12.925,-0.415,0.230
12.928,-0.415,0.225
12.931,-0.405,0.225
12.933,-0.405,0.220
12.936,-0.420,0.215
12.939,-0.425,0.200
12.942,-0.405,0.205
12.944,-0.400,0.215
12.947,-0.395,0.235
12.950,-0.385,0.215
12.953,-0.385,0.210
12.956,-0.395,0.220
12.958,-0.385,0.230
12.961,-0.375,0.235
12.964,-0.370,0.235
12.967,-0.375,0.250
12.969,-0.390,0.265
12.972,-0.420,0.290
12.975,-0.420,0.325
12.978,-0.415,0.340
12.981,-0.390,0.345
12.983,-0.305,0.325
12.986,-0.185,0.270
12.989,-0.065,0.215
12.992,0.040,0.160
12.994,0.110,0.075
12.997,0.140,0.005
13.000,0.155,-0.075
13.003,0.215,-0.170
13.006,0.305,-0.290
13.008,0.405,-0.445
13.011,0.495,-0.590
13.014,0.575,-0.725
13.017,0.630,-0.830
13.019,0.655,-0.865
13.022,0.640,-0.870
13.025,0.630,-0.855
13.028,0.625,-0.840
13.031,0.625,-0.785
13.033,0.575,-0.755
13.036,0.500,-0.705
13.039,0.400,-0.650
13.042,0.325,-0.580
13.044,0.280,-0.505
13.047,0.210,-0.465
13.050,0.145,-0.425
13.053,0.040,-0.375
13.056,-0.090,-0.315
13.058,-0.225,-0.275
13.061,-0.380,-0.215
13.064,-0.485,-0.190
13.067,-0.625,-0.155
13.069,-0.740,-0.140
13.072,-0.820,-0.120
13.075,-0.870,-0.065
13.078,-0.885,-0.025
13.081,-0.900,-0.015
13.083,-0.925,0.010
13.086,-0.930,0.020
13.089,-0.935,0.040
13.092,-0.915,0.085
13.094,-0.915,0.115
13.097,-0.895,0.135
13.100,-0.870,0.155
13.103,-0.850,0.185
13.106,-0.820,0.205
13.108,-0.790,0.225
13.111,-0.745,0.265
13.114,-0.730,0.275
13.117,-0.715,0.290
13.119,-0.720,0.295
13.122,-0.695,0.310
13.125,-0.660,0.325
13.128,-0.630,0.350
13.131,-0.605,0.350
13.133,-0.595,0.355
13.136,-0.590,0.345
13.139,-0.585,0.350
13.142,-0.570,0.360
13.144,-0.570,0.370
13.147,-0.555,0.375
13.150,-0.555,0.370
13.153,-0.560,0.360
13.156,-0.580,0.360
13.158,-0.570,0.365
13.161,-0.570,0.390
13.164,-0.565,0.390
13.167,-0.570,0.390
13.169,-0.565,0.375
13.172,-0.585,0.370
13.175,-0.575,0.380
13.178,-0.575,0.395
13.181,-0.565,0.395
13.183,-0.575,0.405
13.186,-0.585,0.395
13.189,-0.595,0.395
13.192,-0.585,0.400
13.194,-0.585,0.430
13.197,-0.580,0.420
13.200,-0.585,0.420
13.203,-0.590,0.415
13.206,-0.585,0.405
13.208,-0.585,0.430
13.211,-0.565,0.440
13.214,-0.555,0.435
13.217,-0.550,0.430
13.219,-0.560,0.425
13.222,-0.565,0.440
13.225,-0.550,0.440
13.228,-0.535,0.460
13.231,-0.520,0.450
13.233,-0.520,0.440
13.236,-0.520,0.425
13.239,-0.520,0.430
13.242,-0.505,0.440
13.244,-0.485,0.445
13.247,-0.460,0.440
13.250,-0.460,0.425
13.253,-0.450,0.430
13.256,-0.460,0.420
13.258,-0.440,0.420
13.261,-0.410,0.430
13.264,-0.380,0.430
13.267,-0.380,0.415
13.269,-0.360,0.410
13.272,-0.360,0.400
13.275,-0.340,0.420
13.278,-0.320,0.410
13.281,-0.310,0.410
13.283,-0.285,0.400
13.286,-0.290,0.385
13.289,-0.280,0.380
13.292,-0.260,0.385
13.294,-0.235,0.395
13.297,-0.220,0.370
13.300,-0.210,0.360
13.303,-0.205,0.340
13.306,-0.200,0.335
13.308,-0.180,0.345
13.311,-0.170,0.345
13.314,-0.150,0.335
13.317,-0.140,0.325
13.319,-0.145,0.305
13.322,-0.145,0.290
13.325,-0.120,0.295
13.328,-0.105,0.290
13.331,-0.085,0.280
13.333,-0.085,0.285
13.336,-0.075,0.265
13.339,-0.075,0.260
13.342,-0.060,0.265
13.344,-0.040,0.260
13.347,-0.025,0.260
13.350,-0.015,0.230
13.353,-0.030,0.230
13.356,-0.035,0.220
13.358,-0.025,0.235
13.361,-0.010,0.240
13.364,-0.025,0.210
13.367,-0.035,0.195
13.369,-0.065,0.165
13.372,-0.075,0.170
13.375,-0.065,0.180
13.378,-0.050,0.185
13.381,-0.030,0.170
13.383,-0.020,0.180
13.386,-0.030,0.165
13.389,-0.030,0.160
13.392,-0.035,0.160
13.394,-0.050,0.180
13.397,-0.030,0.175
13.400,-0.035,0.165
13.403,-0.040,0.165
13.406,-0.055,0.170
13.408,-0.065,0.185
13.411,-0.075,0.190
13.414,-0.070,0.195
13.417,-0.070,0.180
13.419,-0.075,0.180
13.422,-0.085,0.185
13.425,-0.070,0.200
13.428,-0.080,0.200
13.431,-0.090,0.215
13.433,-0.140,0.205
13.436,-0.175,0.200
13.439,-0.215,0.215
13.442,-0.245,0.210
13.444,-0.260,0.235
13.447,-0.275,0.225
13.450,-0.300,0.215
13.453,-0.340,0.205
13.456,-0.355,0.215
13.458,-0.350,0.225
13.461,-0.340,0.255
13.464,-0.355,0.235
13.467,-0.355,0.230
13.469,-0.380,0.210
13.472,-0.385,0.215
13.475,-0.385,0.225
13.478,-0.375,0.235
13.481,-0.380,0.230
13.483,-0.375,0.215
13.486,-0.370,0.210
13.489,-0.375,0.215
13.492,-0.385,0.215
13.494,-0.370,0.215
13.497,-0.365,0.215
13.500,-0.365,0.205
13.503,-0.375,0.200
13.506,-0.380,0.200
13.508,-0.370,0.205
13.511,-0.360,0.210
13.514,-0.355,0.200
13.517,-0.350,0.195
13.519,-0.370,0.190
13.522,-0.380,0.180
13.525,-0.365,0.195
13.528,-0.370,0.210
13.531,-0.355,0.195
13.533,-0.365,0.200
13.536,-0.355,0.180
13.539,-0.350,0.180
13.542,-0.350,0.185
13.544,-0.340,0.195
13.547,-0.330,0.200
13.550,-0.330,0.195
13.553,-0.335,0.175
13.556,-0.340,0.175
13.558,-0.340,0.195
13.561,-0.325,0.195
13.564,-0.305,0.195
13.567,-0.320,0.205
13.569,-0.335,0.200
13.572,-0.360,0.225
13.575,-0.375,0.265
13.578,-0.380,0.300
13.581,-0.395,0.320
13.583,-0.375,0.310
13.586,-0.345,0.300
13.589,-0.270,0.265
13.592,-0.125,0.220
13.594,-0.005,0.165
13.597,0.085,0.080
13.600,0.125,-0.020
13.603,0.145,-0.100
13.606,0.185,-0.180
13.608,0.295,-0.290
13.611,0.405,-0.440
13.614,0.525,-0.615
13.617,0.615,-0.785
13.619,0.695,-0.900
13.622,0.745,-0.950
13.625,0.785,-0.965
13.628,0.810,-0.965
13.631,0.820,-0.975
13.633,0.815,-0.960
13.636,0.775,-0.900
13.639,0.715,-0.850
13.642,0.625,-0.780
13.644,0.530,-0.700
13.647,0.455,-0.640
13.650,0.390,-0.580
13.653,0.290,-0.535
13.656,0.160,-0.475
13.658,0.055,-0.405
13.661,-0.070,-0.350
13.664,-0.220,-0.295
13.667,-0.380,-0.255
13.669,-0.535,-0.230
13.672,-0.655,-0.200
13.675,-0.740,-0.165
13.678,-0.775,-0.120
13.681,-0.805,-0.090
13.683,-0.845,-0.070
13.686,-0.860,-0.060
13.689,-0.880,-0.035
13.692,-0.875,0.000
13.694,-0.870,0.040
13.697,-0.865,0.065
13.700,-0.865,0.085
13.703,-0.850,0.105
13.706,-0.840,0.135
13.708,-0.790,0.160
13.711,-0.750,0.205
13.714,-0.715,0.215
13.717,-0.705,0.230
13.719,-0.700,0.255
13.722,-0.685,0.260
13.725,-0.655,0.290
13.728,-0.630,0.320
13.731,-0.590,0.325
13.733,-0.580,0.330
13.736,-0.570,0.335
13.739,-0.565,0.345
13.742,-0.540,0.355
13.744,-0.525,0.370
13.747,-0.505,0.360
13.750,-0.505,0.360
13.753,-0.510,0.360
13.756,-0.515,0.360
13.758,-0.515,0.360
13.761,-0.510,0.375
13.764,-0.505,0.375
13.767,-0.510,0.375
13.769,-0.515,0.375
13.772,-0.535,0.370
13.775,-0.530,0.380
13.778,-0.530,0.400
13.781,-0.515,0.390
13.783,-0.520,0.395
13.786,-0.525,0.385
13.789,-0.540,0.395
13.792,-0.535,0.410
13.794,-0.515,0.425
13.797,-0.515,0.415
13.800,-0.520,0.425
13.803,-0.535,0.415
13.806,-0.545,0.420
13.808,-0.520,0.430
13.811,-0.510,0.445
13.814,-0.505,0.440
13.817,-0.520,0.435
13.819,-0.520,0.430
13.822,-0.525,0.415
13.825,-0.505,0.440
13.828,-0.495,0.460
13.831,-0.500,0.465
13.833,-0.495,0.460
13.836,-0.500,0.445
13.839,-0.500,0.450
13.842,-0.480,0.445
13.844,-0.460,0.465
13.847,-0.455,0.450
13.850,-0.450,0.450
13.853,-0.450,0.430
13.856,-0.450,0.440
13.858,-0.435,0.445
13.861,-0.405,0.470
13.864,-0.390,0.445
13.867,-0.375,0.440
13.869,-0.375,0.425
13.872,-0.375,0.430
13.875,-0.355,0.425
13.878,-0.335,0.455
13.881,-0.315,0.440
13.883,-0.300,0.430
13.886,-0.290,0.425
13.889,-0.300,0.400
13.892,-0.285,0.410
13.894,-0.255,0.415
13.897,-0.240,0.410
13.900,-0.230,0.390
13.903,-0.220,0.385
13.906,-0.220,0.375
13.908,-0.200,0.380
13.911,-0.185,0.375
13.914,-0.150,0.365
13.917,-0.160,0.345
13.919,-0.150,0.350
13.922,-0.150,0.325
13.925,-0.120,0.335
13.928,-0.105,0.345
13.931,-0.100,0.320
13.933,-0.095,0.310
13.936,-0.085,0.300
13.939,-0.075,0.290
13.942,-0.065,0.295
13.944,-0.035,0.305
13.947,-0.020,0.285
13.950,-0.010,0.280
13.953,-0.010,0.260
13.956,0.005,0.275
13.958,0.015,0.275
13.961,0.025,0.280
13.964,0.030,0.260
13.967,0.040,0.245
13.969,0.040,0.225
13.972,0.030,0.220
13.975,0.030,0.225
13.978,0.020,0.205
13.981,0.015,0.195
13.983,0.020,0.185
13.986,0.020,0.175
13.989,0.025,0.170
13.992,0.045,0.165
13.994,0.050,0.175
13.997,0.040,0.165
14.000,0.045,0.150
14.003,0.035,0.140
14.006,0.015,0.140
14.008,0.025,0.165
14.011,0.045,0.175
14.014,0.045,0.165
14.017,0.025,0.165
14.019,0.015,0.160
14.022,0.000,0.155
14.025,0.000,0.175
14.028,0.000,0.170
14.031,-0.005,0.185
14.033,-0.005,0.165
14.036,-0.005,0.160
14.039,-0.035,0.165
14.042,-0.035,0.185
14.044,-0.050,0.200
14.047,-0.070,0.200
14.050,-0.115,0.185
14.053,-0.150,0.180
14.056,-0.180,0.180
14.058,-0.215,0.205
14.061,-0.240,0.205
14.064,-0.275,0.205
14.067,-0.295,0.215
14.069,-0.310,0.195
14.072,-0.320,0.205
14.075,-0.325,0.205
14.078,-0.320,0.215
14.081,-0.330,0.215
14.083,-0.335,0.195
14.086,-0.340,0.195
14.089,-0.355,0.195
14.092,-0.345,0.205
14.094,-0.345,0.215
14.097,-0.340,0.195
14.100,-0.340,0.195
14.103,-0.350,0.185
14.106,-0.365,0.190
14.108,-0.350,0.200
14.111,-0.345,0.200
14.114,-0.340,0.190
14.117,-0.335,0.180
14.119,-0.340,0.180
14.122,-0.355,0.185
14.125,-0.360,0.200
14.128,-0.345,0.200
14.131,-0.330,0.195
14.133,-0.330,0.175
14.136,-0.340,0.165
14.139,-0.345,0.170
14.142,-0.340,0.175
14.144,-0.335,0.185
14.147,-0.325,0.180
14.150,-0.330,0.170
14.153,-0.340,0.170
14.156,-0.330,0.160
14.158,-0.325,0.170
14.161,-0.305,0.190
14.164,-0.310,0.175
14.167,-0.320,0.165
14.169,-0.330,0.155
14.172,-0.315,0.160
14.175,-0.310,0.180
14.178,-0.300,0.210
14.181,-0.315,0.220
14.183,-0.330,0.230
14.186,-0.365,0.240
14.189,-0.395,0.270
14.192,-0.405,0.310
14.194,-0.385,0.310
14.197,-0.320,0.290
14.200,-0.215,0.240
14.203,-0.090,0.180
14.206,0.030,0.115
14.208,0.115,0.030
14.211,0.185,-0.045
14.214,0.230,-0.125
14.217,0.295,-0.220
14.219,0.390,-0.370
14.222,0.500,-0.540
14.225,0.620,-0.705
14.228,0.720,-0.840
14.231,0.815,-0.955
14.233,0.890,-1.010
14.236,0.930,-1.050
14.239,0.935,-1.050
14.242,0.945,-1.025
14.244,0.930,-0.990
14.247,0.895,-0.930
14.250,0.810,-0.875
14.253,0.685,-0.830
14.256,0.560,-0.760
14.258,0.475,-0.670
14.261,0.400,-0.610
14.264,0.300,-0.545
14.267,0.165,-0.490
14.269,-0.010,-0.430
14.272,-0.175,-0.385
14.275,-0.350,-0.320
14.278,-0.475,-0.255
14.281,-0.615,-0.230
14.283,-0.730,-0.195
14.286,-0.795,-0.175
14.289,-0.850,-0.140
14.292,-0.870,-0.105
14.294,-0.895,-0.070
14.297,-0.905,-0.055
14.300,-0.900,-0.030
14.303,-0.900,-0.010
14.306,-0.905,0.010
14.308,-0.910,0.040
14.311,-0.870,0.080
14.314,-0.840,0.110
14.317,-0.800,0.130
14.319,-0.785,0.155
14.322,-0.755,0.175
14.325,-0.725,0.215
14.328,-0.695,0.250
14.331,-0.675,0.260
14.333,-0.655,0.265
14.336,-0.650,0.285
14.339,-0.630,0.300
14.342,-0.605,0.320
14.344,-0.570,0.340
14.347,-0.555,0.340
14.350,-0.540,0.340
14.353,-0.545,0.340
14.356,-0.545,0.335
14.358,-0.535,0.360
14.361,-0.515,0.360
14.364,-0.515,0.360
14.367,-0.520,0.360
14.369,-0.540,0.345
14.372,-0.555,0.350
14.375,-0.540,0.360
14.378,-0.545,0.370
14.381,-0.535,0.370
14.383,-0.545,0.385
14.386,-0.560,0.370
14.389,-0.550,0.375
14.392,-0.555,0.370
14.394,-0.545,0.400
14.397,-0.550,0.400
14.400,-0.550,0.395
14.403,-0.565,0.390
14.406,-0.575,0.390
14.408,-0.560,0.415
14.411,-0.550,0.420
14.414,-0.555,0.430
14.417,-0.555,0.420
14.419,-0.560,0.410
14.422,-0.560,0.415
14.425,-0.545,0.435
14.428,-0.535,0.440
14.431,-0.540,0.440
14.433,-0.535,0.430
14.436,-0.540,0.430
14.439,-0.540,0.420
14.442,-0.535,0.440
14.444,-0.515,0.460
14.447,-0.505,0.445
14.450,-0.505,0.445
14.453,-0.510,0.435
14.456,-0.510,0.435
14.458,-0.490,0.445
14.461,-0.470,0.445
14.464,-0.450,0.440
14.467,-0.445,0.435
14.469,-0.440,0.425
14.472,-0.440,0.425
14.475,-0.430,0.435
14.478,-0.405,0.440
14.481,-0.380,0.425
14.483,-0.375,0.420
14.486,-0.380,0.400
14.489,-0.375,0.400
14.492,-0.355,0.415
14.494,-0.325,0.415
14.497,-0.305,0.405
14.500,-0.295,0.390
14.503,-0.290,0.395
14.506,-0.295,0.375
14.508,-0.275,0.380
14.511,-0.255,0.400
14.514,-0.240,0.375
14.517,-0.230,0.365
14.519,-0.215,0.360
14.522,-0.205,0.340
14.525,-0.195,0.340
14.528,-0.180,0.345
14.531,-0.160,0.345
14.533,-0.150,0.325
14.536,-0.145,0.315
14.539,-0.140,0.295
14.542,-0.120,0.305
14.544,-0.100,0.310
14.547,-0.090,0.295
14.550,-0.090,0.290
14.553,-0.075,0.280
14.556,-0.080,0.265
14.558,-0.060,0.265
14.561,-0.020,0.285
14.564,-0.015,0.265
14.567,-0.010,0.250
14.569,-0.025,0.240
14.572,-0.025,0.250
14.575,-0.005,0.245
14.578,0.005,0.255
14.581,0.020,0.235
14.583,0.030,0.230
14.586,0.010,0.205
14.589,-0.015,0.200
14.592,-0.015,0.195
14.594,-0.010,0.190
14.597,-0.005,0.165
14.600,-0.010,0.165
14.603,-0.025,0.155
14.606,-0.015,0.150
14.608,0.000,0.160
14.611,0.015,0.165
14.614,0.015,0.155
14.617,0.010,0.145
14.619,0.005,0.145
14.622,-0.010,0.135
14.625,-0.010,0.145
14.628,0.015,0.140
14.631,0.005,0.155
14.633,-0.010,0.130
14.636,-0.020,0.135
14.639,-0.045,0.135
14.642,-0.055,0.145
14.644,-0.040,0.150
14.647,-0.040,0.150
14.650,-0.055,0.135
14.653,-0.065,0.135
14.656,-0.070,0.145
14.658,-0.055,0.150
14.661,-0.050,0.165
14.664,-0.060,0.155
14.667,-0.105,0.165
14.669,-0.150,0.165
14.672,-0.180,0.175
14.675,-0.205,0.175
14.678,-0.215,0.190
14.681,-0.250,0.195
14.683,-0.280,0.185
14.686,-0.310,0.175
14.689,-0.335,0.180
14.692,-0.350,0.195
14.694,-0.340,0.200
14.697,-0.345,0.190
14.700,-0.355,0.185
14.703,-0.370,0.195
14.706,-0.380,0.185
14.708,-0.385,0.195
14.711,-0.375,0.195
14.714,-0.370,0.190
14.717,-0.380,0.175
14.719,-0.390,0.180
14.722,-0.395,0.170
14.725,-0.385,0.185
14.728,-0.375,0.195
14.731,-0.380,0.180
14.733,-0.385,0.180
14.736,-0.390,0.180
14.739,-0.400,0.155
14.742,-0.400,0.175
14.744,-0.380,0.185
14.747,-0.375,0.175
14.750,-0.390,0.175
14.753,-0.395,0.150
14.756,-0.405,0.150
14.758,-0.400,0.175
14.761,-0.375,0.185
14.764,-0.365,0.175
14.767,-0.370,0.170
14.769,-0.380,0.160
14.772,-0.385,0.150
14.775,-0.370,0.175
14.778,-0.370,0.180
14.781,-0.365,0.170
14.783,-0.370,0.155
14.786,-0.385,0.155
14.789,-0.380,0.145
14.792,-0.360,0.155
14.794,-0.355,0.155
14.797,-0.350,0.160
14.800,-0.350,0.160
14.803,-0.345,0.150
14.806,-0.350,0.150
14.808,-0.355,0.165
14.811,-0.340,0.180
14.814,-0.330,0.170
14.817,-0.350,0.185
14.819,-0.360,0.195
14.822,-0.380,0.210
14.825,-0.400,0.240
14.828,-0.395,0.280
14.831,-0.395,0.285
14.833,-0.390,0.280
14.836,-0.350,0.280
14.839,-0.275,0.265
14.842,-0.130,0.230
14.844,0.015,0.195
14.847,0.145,0.125
14.850,0.245,0.030
14.853,0.315,-0.065
14.856,0.350,-0.140
14.858,0.415,-0.210
14.861,0.525,-0.310
14.864,0.635,-0.465
14.867,0.740,-0.625
14.869,0.825,-0.795
14.872,0.915,-0.930
14.875,1.010,-1.005
14.878,1.055,-1.020
14.881,1.065,-1.025
14.883,1.040,-1.030
14.886,1.015,-1.010
14.889,0.970,-0.965
14.892,0.890,-0.905
14.894,0.785,-0.825
14.897,0.650,-0.775
14.900,0.525,-0.705
14.903,0.420,-0.645
14.906,0.305,-0.590
14.908,0.195,-0.525
14.911,0.090,-0.470
14.914,-0.060,-0.410
14.917,-0.245,-0.365
14.919,-0.415,-0.320
14.922,-0.570,-0.275
14.925,-0.695,-0.230
14.928,-0.810,-0.195
14.931,-0.905,-0.165
14.933,-0.975,-0.135
14.936,-1.010,-0.110
14.939,-1.050,-0.075
14.942,-1.045,-0.045
14.944,-1.035,-0.030
14.947,-1.020,0.000
14.950,-1.030,0.025
14.953,-1.035,0.045
14.956,-1.030,0.085
14.958,-0.990,0.110
14.961,-0.935,0.145
14.964,-0.895,0.160
14.967,-0.875,0.180
14.969,-0.840,0.200
14.972,-0.830,0.225
14.975,-0.790,0.250
14.978,-0.770,0.265
14.981,-0.745,0.285
14.983,-0.715,0.285
14.986,-0.705,0.285
14.989,-0.685,0.300
14.992,-0.660,0.340
14.994,-0.645,0.355
14.997,-0.625,0.350
15.000,-0.635,0.340
15.003,-0.640,0.335
15.006,-0.635,0.340
15.008,-0.635,0.345
15.011,-0.630,0.355
15.014,-0.615,0.355
15.017,-0.625,0.350
15.019,-0.635,0.345
15.022,-0.635,0.350
15.025,-0.645,0.355
15.028,-0.620,0.380
15.031,-0.615,0.375
15.033,-0.635,0.365
15.036,-0.640,0.360
15.039,-0.655,0.360
15.042,-0.660,0.375
15.044,-0.640,0.385
15.047,-0.645,0.390
15.050,-0.640,0.385
15.053,-0.650,0.375
15.056,-0.665,0.380
15.058,-0.655,0.395
15.061,-0.630,0.405
15.064,-0.635,0.415
15.067,-0.650,0.405
15.069,-0.660,0.390
15.072,-0.675,0.405
15.075,-0.665,0.405
15.078,-0.645,0.435
15.081,-0.640,0.425
15.083,-0.645,0.435
15.086,-0.635,0.420
15.089,-0.635,0.415
15.092,-0.630,0.420
15.094,-0.595,0.435
15.097,-0.590,0.430
15.100,-0.585,0.425
15.103,-0.580,0.415
15.106,-0.575,0.420
15.108,-0.570,0.435
15.111,-0.555,0.435
15.114,-0.540,0.430
15.117,-0.525,0.415
15.119,-0.520,0.400
15.122,-0.515,0.410
15.125,-0.500,0.420
15.128,-0.480,0.425
15.131,-0.460,0.420
15.133,-0.440,0.400
15.136,-0.430,0.395
15.139,-0.430,0.395
15.142,-0.410,0.380
15.144,-0.395,0.410
15.147,-0.360,0.395
15.150,-0.350,0.375
15.153,-0.345,0.370
15.156,-0.325,0.365
15.158,-0.310,0.365
15.161,-0.290,0.370
15.164,-0.275,0.365
15.167,-0.270,0.355
15.169,-0.270,0.355
15.172,-0.275,0.325
15.175,-0.250,0.340
15.178,-0.230,0.355
15.181,-0.210,0.335
15.183,-0.205,0.315
15.186,-0.210,0.300
15.189,-0.195,0.295
15.192,-0.155,0.285
15.194,-0.150,0.290
15.197,-0.145,0.285
15.200,-0.135,0.275
15.203,-0.135,0.275
15.206,-0.125,0.270
15.208,-0.090,0.270
15.211,-0.080,0.270
15.214,-0.060,0.275
15.217,-0.055,0.255
15.219,-0.075,0.230
15.222,-0.065,0.225
15.225,-0.055,0.240
15.228,-0.040,0.235
15.231,-0.040,0.210
15.233,-0.040,0.205
15.236,-0.065,0.175
15.239,-0.085,0.165
15.242,-0.075,0.160
15.244,-0.080,0.165
15.247,-0.080,0.160
15.250,-0.075,0.160
15.253,-0.070,0.140
15.256,-0.070,0.135
15.258,-0.050,0.165
15.261,-0.040,0.160
15.264,-0.040,0.155
15.267,-0.050,0.130
15.269,-0.065,0.145
15.272,-0.075,0.135
15.275,-0.065,0.140
15.278,-0.065,0.175
15.281,-0.075,0.150
15.283,-0.080,0.145
15.286,-0.095,0.150
15.289,-0.115,0.145
15.292,-0.110,0.150
15.294,-0.105,0.155
15.297,-0.100,0.170
15.300,-0.090,0.150
15.303,-0.110,0.155
15.306,-0.140,0.160
15.308,-0.135,0.170
15.311,-0.160,0.180
15.314,-0.170,0.180
15.317,-0.210,0.175
15.319,-0.245,0.170
15.322,-0.285,0.170
15.325,-0.305,0.185
15.328,-0.330,0.200
15.331,-0.360,0.195
15.333,-0.380,0.195
15.336,-0.400,0.190
15.339,-0.420,0.195
15.342,-0.420,0.210
15.344,-0.410,0.215
15.347,-0.410,0.200
15.350,-0.415,0.200
15.353,-0.430,0.185
15.356,-0.440,0.175
15.358,-0.435,0.200
15.361,-0.425,0.185
15.364,-0.430,0.200
15.367,-0.425,0.190
15.369,-0.435,0.185
15.372,-0.455,0.185
15.375,-0.450,0.175
15.378,-0.445,0.185
15.381,-0.440,0.180
15.383,-0.440,0.175
15.386,-0.455,0.180
15.389,-0.465,0.170
15.392,-0.455,0.180
15.394,-0.445,0.185
15.397,-0.455,0.195
15.400,-0.445,0.170
15.403,-0.450,0.160
15.406,-0.445,0.160
15.408,-0.445,0.170
15.411,-0.425,0.195
15.414,-0.420,0.170
15.417,-0.430,0.160
15.419,-0.430,0.160
15.422,-0.425,0.165
15.425,-0.425,0.165
15.428,-0.410,0.175
15.431,-0.425,0.160
15.433,-0.420,0.170
15.436,-0.430,0.160
15.439,-0.435,0.170
15.442,-0.430,0.165
15.444,-0.415,0.185
15.447,-0.390,0.165
15.450,-0.395,0.165
15.453,-0.405,0.165
15.456,-0.420,0.155
15.458,-0.415,0.180
15.461,-0.400,0.200
15.464,-0.395,0.200
15.467,-0.405,0.195
15.469,-0.430,0.225
15.472,-0.450,0.245
15.475,-0.435,0.275
15.478,-0.405,0.300
15.481,-0.375,0.300
15.483,-0.320,0.285
15.486,-0.230,0.260
15.489,-0.090,0.215
15.492,0.030,0.180
15.494,0.135,0.130
15.497,0.230,0.040
15.500,0.265,-0.030
15.503,0.285,-0.105
15.506,0.325,-0.180
15.508,0.410,-0.270
15.511,0.515,-0.365
15.514,0.600,-0.510
15.517,0.675,-0.665
15.519,0.725,-0.785
15.522,0.770,-0.895
15.525,0.805,-0.925
15.528,0.805,-0.930
15.531,0.780,-0.930
15.533,0.755,-0.925
15.536,0.720,-0.905
15.539,0.685,-0.860
15.542,0.615,-0.800
15.544,0.540,-0.745
15.547,0.445,-0.685
15.550,0.365,-0.635
15.553,0.290,-0.585
15.556,0.205,-0.540
15.558,0.140,-0.485
15.561,0.050,-0.425
15.564,-0.045,-0.395
15.567,-0.185,-0.345
15.569,-0.340,-0.315
15.572,-0.475,-0.275
15.575,-0.585,-0.235
15.578,-0.690,-0.195
15.581,-0.780,-0.170
15.583,-0.870,-0.145
15.586,-0.940,-0.125
15.589,-0.985,-0.090
15.592,-1.000,-0.060
15.594,-1.000,-0.035
15.597,-1.010,-0.015
15.600,-1.005,0.015
15.603,-1.015,0.020
15.606,-1.015,0.045
15.608,-1.000,0.085
15.611,-0.975,0.125
15.614,-0.950,0.140
15.617,-0.910,0.150
15.619,-0.885,0.175
15.622,-0.860,0.195
15.625,-0.835,0.215
15.628,-0.790,0.250
15.631,-0.770,0.260
15.633,-0.765,0.275
15.636,-0.745,0.280
15.639,-0.730,0.295
15.642,-0.690,0.310
15.644,-0.665,0.340
15.647,-0.650,0.345
15.650,-0.645,0.350
15.653,-0.645,0.345
15.656,-0.630,0.350
15.658,-0.625,0.350
15.661,-0.610,0.355
15.664,-0.590,0.340
15.667,-0.605,0.340
15.669,-0.620,0.345
15.672,-0.630,0.340
15.675,-0.630,0.355
15.678,-0.615,0.365
15.681,-0.615,0.365
15.683,-0.625,0.355
15.686,-0.635,0.355
15.689,-0.655,0.360
15.692,-0.630,0.380
15.694,-0.610,0.380
15.697,-0.625,0.385
15.700,-0.620,0.385
15.703,-0.635,0.375
15.706,-0.645,0.370
15.708,-0.635,0.385
15.711,-0.635,0.400
15.714,-0.615,0.400
15.717,-0.615,0.390
15.719,-0.620,0.390
15.722,-0.630,0.390
15.725,-0.630,0.395
15.728,-0.615,0.405
15.731,-0.605,0.415
15.733,-0.615,0.400
15.736,-0.615,0.400
15.739,-0.610,0.410
15.742,-0.600,0.415
15.744,-0.595,0.430
15.747,-0.570,0.415
15.750,-0.575,0.410
15.753,-0.575,0.405
15.756,-0.580,0.405
15.758,-0.555,0.410
15.761,-0.530,0.420
15.764,-0.520,0.415
15.767,-0.500,0.410
15.769,-0.515,0.405
15.772,-0.510,0.410
15.775,-0.480,0.405
15.778,-0.455,0.425
15.781,-0.440,0.415
15.783,-0.420,0.400
15.786,-0.400,0.385
15.789,-0.395,0.385
15.792,-0.395,0.390
15.794,-0.380,0.400
15.797,-0.345,0.385
15.800,-0.335,0.375
15.803,-0.330,0.360
15.806,-0.315,0.360
15.808,-0.295,0.370
15.811,-0.280,0.375
15.814,-0.270,0.355
15.817,-0.245,0.345
15.819,-0.235,0.340
15.822,-0.235,0.330
15.825,-0.215,0.340
15.828,-0.210,0.340
15.831,-0.185,0.320
15.833,-0.175,0.315
15.836,-0.185,0.300
15.839,-0.175,0.280
15.842,-0.160,0.295
15.844,-0.135,0.300
15.847,-0.120,0.280
15.850,-0.120,0.265
15.853,-0.120,0.260
15.856,-0.120,0.265
15.858,-0.115,0.270
15.861,-0.090,0.275
15.864,-0.070,0.265
15.867,-0.065,0.245
15.869,-0.060,0.230
15.872,-0.070,0.230
15.875,-0.060,0.230
15.878,-0.040,0.230
15.881,-0.030,0.220
15.883,-0.035,0.215
15.886,-0.050,0.190
15.889,-0.075,0.165
15.892,-0.080,0.185
15.894,-0.070,0.180
15.897,-0.060,0.170
15.900,-0.060,0.170
15.903,-0.060,0.170
15.906,-0.075,0.160
15.908,-0.060,0.165
15.911,-0.040,0.160
15.914,-0.030,0.155
15.917,-0.040,0.155
15.919,-0.055,0.130
15.922,-0.060,0.145
15.925,-0.055,0.160
15.928,-0.060,0.160
15.931,-0.065,0.160
15.933,-0.080,0.155
15.936,-0.100,0.150
15.939,-0.100,0.140
15.942,-0.100,0.170
15.944,-0.110,0.170
15.947,-0.080,0.170
15.950,-0.090,0.170
15.953,-0.115,0.165
15.956,-0.150,0.180
15.958,-0.160,0.190
15.961,-0.190,0.195
15.964,-0.205,0.195
15.967,-0.235,0.205
15.969,-0.265,0.185
15.972,-0.315,0.195
15.975,-0.325,0.205
15.978,-0.335,0.215
15.981,-0.350,0.205
15.983,-0.350,0.195
15.986,-0.370,0.195
15.989,-0.370,0.190
15.992,-0.375,0.205
15.994,-0.370,0.210
15.997,-0.375,0.210
16.000,-0.395,0.195
16.003,-0.395,0.190
16.006,-0.410,0.180
16.008,-0.420,0.195
16.011,-0.405,0.205
16.014,-0.415,0.190
16.017,-0.410,0.195
16.019,-0.410,0.190
16.022,-0.415,0.185
16.025,-0.410,0.185
16.028,-0.400,0.195
16.031,-0.395,0.195
16.033,-0.400,0.190
16.036,-0.420,0.180
16.039,-0.425,0.170
16.042,-0.430,0.185
16.044,-0.410,0.190
16.047,-0.395,0.195
16.050,-0.400,0.175
16.053,-0.405,0.180
16.056,-0.420,0.170
16.058,-0.400,0.180
16.061,-0.395,0.190
16.064,-0.390,0.185
16.067,-0.385,0.165
16.069,-0.400,0.160
16.072,-0.395,0.165
16.075,-0.375,0.165
16.078,-0.380,0.185
16.081,-0.370,0.180
16.083,-0.375,0.185
16.086,-0.380,0.160
16.089,-0.380,0.165
16.092,-0.380,0.180
16.094,-0.360,0.185
16.097,-0.355,0.185
16.100,-0.370,0.185
16.103,-0.385,0.210
16.106,-0.410,0.230
16.108,-0.415,0.265
16.111,-0.420,0.290
16.114,-0.405,0.295
16.117,-0.370,0.300
16.119,-0.330,0.275
16.122,-0.220,0.250
16.125,-0.080,0.205
16.128,0.040,0.155
16.131,0.135,0.070
16.133,0.170,-0.015
16.136,0.195,-0.100
16.139,0.245,-0.190
16.142,0.345,-0.290
16.144,0.495,-0.435
16.147,0.610,-0.605
16.150,0.690,-0.775
16.153,0.775,-0.890
16.156,0.815,-0.935
16.158,0.840,-0.960
16.161,0.855,-0.940
16.164,0.850,-0.955
16.167,0.825,-0.945
16.169,0.790,-0.905
16.172,0.740,-0.835
16.175,0.640,-0.780
16.178,0.560,-0.710
16.181,0.485,-0.655
16.183,0.420,-0.605
16.186,0.330,-0.570
16.189,0.235,-0.510
16.192,0.130,-0.450
16.194,0.005,-0.385
16.197,-0.130,-0.340
16.200,-0.275,-0.300
16.203,-0.420,-0.265
16.206,-0.560,-0.230
16.208,-0.690,-0.205
16.211,-0.770,-0.155
16.214,-0.825,-0.135
16.217,-0.865,-0.110
16.219,-0.920,-0.090
16.222,-0.930,-0.070
16.225,-0.935,-0.030
16.228,-0.930,0.005
16.231,-0.925,0.020
16.233,-0.925,0.030
16.236,-0.935,0.065
16.239,-0.930,0.085
16.242,-0.895,0.115
16.244,-0.860,0.155
16.247,-0.820,0.170
16.250,-0.790,0.185
16.253,-0.765,0.190
16.256,-0.765,0.225
16.258,-0.740,0.255
16.261,-0.715,0.275
16.264,-0.690,0.290
16.267,-0.660,0.300
16.269,-0.660,0.315
16.272,-0.625,0.315
16.275,-0.610,0.330
16.278,-0.605,0.355
16.281,-0.580,0.350
16.283,-0.565,0.350
16.286,-0.570,0.350
16.289,-0.570,0.350
16.292,-0.565,0.360
16.294,-0.560,0.365
16.297,-0.560,0.360
16.300,-0.565,0.355
16.303,-0.575,0.355
16.306,-0.585,0.355
16.308,-0.580,0.375
16.311,-0.575,0.375
16.314,-0.580,0.385
16.317,-0.585,0.375
16.319,-0.585,0.375
16.322,-0.605,0.380
16.325,-0.600,0.390
16.328,-0.585,0.395
16.331,-0.570,0.400
16.333,-0.595,0.400
16.336,-0.595,0.400
16.339,-0.605,0.405
16.342,-0.610,0.410
16.344,-0.600,0.425
16.347,-0.590,0.430
16.350,-0.585,0.415
16.353,-0.590,0.430
16.356,-0.595,0.415
16.358,-0.590,0.425
16.361,-0.580,0.455
16.364,-0.570,0.445
16.367,-0.560,0.430
16.369,-0.580,0.425
16.372,-0.585,0.440
16.375,-0.560,0.440
16.378,-0.545,0.450
16.381,-0.535,0.440
16.383,-0.535,0.435
16.386,-0.535,0.430
16.389,-0.545,0.425
16.392,-0.510,0.440
16.394,-0.500,0.435
16.397,-0.475,0.445
16.400,-0.470,0.430
16.403,-0.465,0.420
16.406,-0.460,0.415
16.408,-0.445,0.420
16.411,-0.420,0.430
16.414,-0.405,0.425
16.417,-0.390,0.410
16.419,-0.385,0.405
16.422,-0.375,0.395
16.425,-0.355,0.405
16.428,-0.335,0.410
16.431,-0.315,0.400
16.433,-0.295,0.385
16.436,-0.295,0.365
16.439,-0.285,0.370
16.442,-0.270,0.370
16.444,-0.245,0.385
16.447,-0.235,0.375
16.450,-0.205,0.360
16.453,-0.215,0.345
16.456,-0.195,0.335
16.458,-0.185,0.340
16.461,-0.165,0.340
16.464,-0.150,0.320
16.467,-0.150,0.310
16.469,-0.150,0.305
16.472,-0.150,0.305
16.475,-0.125,0.300
16.478,-0.115,0.300
16.481,-0.085,0.285
16.483,-0.080,0.265
16.486,-0.080,0.260
16.489,-0.085,0.260
16.492,-0.060,0.260
16.494,-0.035,0.260
16.497,-0.020,0.245
16.500,-0.010,0.245
16.503,-0.020,0.245
16.506,-0.015,0.230
16.508,0.000,0.230
16.511,0.010,0.235
16.514,0.020,0.230
16.517,0.015,0.210
16.519,-0.005,0.185
16.522,-0.030,0.170
16.525,-0.035,0.175
16.528,-0.025,0.180
16.531,-0.020,0.165
16.533,-0.035,0.160
16.536,-0.020,0.145
16.539,-0.025,0.150
16.542,-0.010,0.155
16.544,0.005,0.150
16.547,0.000,0.165
16.550,0.000,0.150
16.553,-0.020,0.160
16.556,-0.025,0.135
16.558,-0.030,0.170
16.561,-0.020,0.175
16.564,-0.020,0.160
16.567,-0.025,0.145
16.569,-0.065,0.155
16.572,-0.070,0.155
16.575,-0.070,0.160
16.578,-0.060,0.165
16.581,-0.070,0.165
16.583,-0.050,0.170
16.586,-0.065,0.155
16.589,-0.070,0.160
16.592,-0.085,0.180
16.594,-0.100,0.195
16.597,-0.125,0.190
16.600,-0.155,0.180
16.603,-0.195,0.160
16.606,-0.240,0.165
16.608,-0.255,0.185
16.611,-0.275,0.195
16.614,-0.300,0.190
16.617,-0.320,0.190
16.619,-0.335,0.175
16.622,-0.355,0.185
16.625,-0.350,0.200
16.628,-0.345,0.220
16.631,-0.335,0.210
16.633,-0.360,0.200
16.636,-0.370,0.190
16.639,-0.380,0.175
16.642,-0.380,0.195
16.644,-0.365,0.195
16.647,-0.360,0.190
16.650,-0.375,0.190
16.653,-0.385,0.180
16.656,-0.385,0.175
16.658,-0.380,0.185
16.661,-0.375,0.195
16.664,-0.370,0.185
16.667,-0.365,0.165
16.669,-0.380,0.170
16.672,-0.385,0.170
16.675,-0.375,0.170
16.678,-0.370,0.180
16.681,-0.355,0.190
16.683,-0.365,0.175
16.686,-0.370,0.165
16.689,-0.370,0.160
16.692,-0.370,0.165
16.694,-0.365,0.175
16.697,-0.355,0.180
16.700,-0.350,0.170
16.703,-0.360,0.160
16.706,-0.370,0.145
16.708,-0.360,0.160
16.711,-0.340,0.175
16.714,-0.340,0.155
16.717,-0.335,0.165
16.719,-0.350,0.150
16.722,-0.345,0.145
16.725,-0.345,0.160
16.728,-0.330,0.170
16.731,-0.330,0.180
16.733,-0.340,0.185
16.736,-0.370,0.200
16.739,-0.390,0.215
16.742,-0.410,0.255
16.744,-0.405,0.275
16.747,-0.410,0.290
16.750,-0.380,0.295
16.753,-0.305,0.260
16.756,-0.200,0.205
16.758,-0.070,0.155
16.761,0.055,0.090
16.764,0.130,-0.015
16.767,0.180,-0.100
16.769,0.240,-0.185
16.772,0.315,-0.300
16.775,0.460,-0.450
16.778,0.590,-0.635
16.781,0.705,-0.815
16.783,0.790,-0.935
16.786,0.855,-1.000
16.789,0.910,-1.025
16.792,0.945,-1.045
16.794,0.975,-1.030
16.797,0.965,-1.020
16.800,0.935,-0.965
16.803,0.870,-0.925
16.806,0.760,-0.850
16.808,0.645,-0.785
16.811,0.550,-0.700
16.814,0.465,-0.655
16.817,0.365,-0.580
16.819,0.230,-0.535
16.822,0.100,-0.480
16.825,-0.055,-0.405
16.828,-0.225,-0.355
16.831,-0.360,-0.305
16.833,-0.515,-0.275
16.836,-0.645,-0.250
16.839,-0.745,-0.220
16.842,-0.800,-0.170
16.844,-0.840,-0.130
16.847,-0.880,-0.110
16.850,-0.895,-0.075
16.853,-0.905,-0.070
16.856,-0.910,-0.040
16.858,-0.900,-0.015
16.861,-0.895,0.025
16.864,-0.890,0.050
16.867,-0.870,0.065
16.869,-0.850,0.095
16.872,-0.815,0.120
16.875,-0.785,0.155
16.878,-0.740,0.195
16.881,-0.720,0.220
16.883,-0.715,0.235
