'Elapsed time','MLII','V1'
'seconds','mV','mV'
0.000,-0.750,-0.620
0.003,-0.750,-0.620
0.006,-0.750,-0.620
0.008,-0.750,-0.620
0.011,-0.750,-0.620
0.014,-0.750,-0.620
0.017,-0.750,-0.620
0.019,-0.760,-0.620
0.022,-0.770,-0.630
0.025,-0.775,-0.615
0.028,-0.775,-0.620
0.031,-0.785,-0.605
0.033,-0.780,-0.595
0.036,-0.760,-0.595
0.039,-0.770,-0.590
0.042,-0.770,-0.585
0.044,-0.770,-0.595
0.047,-0.780,-0.615
0.050,-0.780,-0.615
0.053,-0.790,-0.620
0.056,-0.790,-0.625
0.058,-0.800,-0.635
0.061,-0.795,-0.625
0.064,-0.795,-0.615
0.067,-0.785,-0.610
0.069,-0.785,-0.610
0.072,-0.765,-0.595
0.075,-0.780,-0.620
0.078,-0.795,-0.630
0.081,-0.790,-0.625
0.083,-0.800,-0.630
0.086,-0.820,-0.640
0.089,-0.810,-0.645
0.092,-0.815,-0.635
0.094,-0.805,-0.635
0.097,-0.795,-0.630
0.100,-0.800,-0.620
0.103,-0.790,-0.610
0.106,-0.785,-0.605
0.108,-0.775,-0.600
0.111,-0.770,-0.600
0.114,-0.795,-0.615
0.117,-0.805,-0.625
0.119,-0.790,-0.640
0.122,-0.800,-0.620
0.125,-0.795,-0.640
0.128,-0.785,-0.620
0.131,-0.795,-0.605
0.133,-0.780,-0.610
0.136,-0.755,-0.600
0.139,-0.750,-0.605
0.142,-0.745,-0.610
0.144,-0.740,-0.620
0.147,-0.730,-0.620
0.150,-0.715,-0.635
0.153,-0.710,-0.625
0.156,-0.710,-0.620
0.158,-0.720,-0.615
0.161,-0.715,-0.625
0.164,-0.720,-0.610
0.167,-0.690,-0.615
0.169,-0.685,-0.600
0.172,-0.680,-0.605
0.175,-0.675,-0.610
0.178,-0.680,-0.625
0.181,-0.660,-0.625
0.183,-0.670,-0.635
0.186,-0.670,-0.635
0.189,-0.675,-0.655
0.192,-0.690,-0.645
0.194,-0.710,-0.650
0.197,-0.710,-0.635
0.200,-0.720,-0.625
0.203,-0.740,-0.640
0.206,-0.735,-0.625
0.208,-0.750,-0.635
0.211,-0.750,-0.645
0.214,-0.745,-0.670
0.217,-0.750,-0.675
0.219,-0.760,-0.670
0.222,-0.780,-0.680
0.225,-0.800,-0.685
0.228,-0.820,-0.670
0.231,-0.830,-0.650
0.233,-0.825,-0.625
0.236,-0.830,-0.605
0.239,-0.830,-0.600
0.242,-0.840,-0.590
0.244,-0.845,-0.590
0.247,-0.845,-0.605
0.250,-0.865,-0.615
0.253,-0.865,-0.630
0.256,-0.860,-0.650
0.258,-0.870,-0.635
0.261,-0.865,-0.635
0.264,-0.870,-0.620
0.267,-0.850,-0.620
0.269,-0.860,-0.610
0.272,-0.855,-0.600
0.275,-0.845,-0.615
0.278,-0.845,-0.610
0.281,-0.845,-0.610
0.283,-0.860,-0.625
0.286,-0.855,-0.640
0.289,-0.865,-0.635
0.292,-0.865,-0.635
0.294,-0.860,-0.630
0.297,-0.860,-0.625
0.300,-0.860,-0.610
0.303,-0.855,-0.590
0.306,-0.845,-0.595
0.308,-0.845,-0.590
0.311,-0.830,-0.590
0.314,-0.835,-0.600
0.317,-0.835,-0.605
0.319,-0.830,-0.610
0.322,-0.800,-0.610
0.325,-0.760,-0.620
0.328,-0.690,-0.610
0.331,-0.600,-0.605
0.333,-0.475,-0.625
0.336,-0.345,-0.645
0.339,-0.220,-0.665
0.342,-0.125,-0.690
0.344,-0.045,-0.720
0.347,-0.045,-0.740
0.350,-0.145,-0.770
0.353,-0.290,-0.790
0.356,-0.445,-0.810
0.358,-0.640,-0.815
0.361,-0.845,-0.800
0.364,-1.030,-0.735
0.367,-1.150,-0.650
0.369,-1.190,-0.545
0.372,-1.175,-0.425
0.375,-1.155,-0.345
0.378,-1.110,-0.315
0.381,-1.085,-0.350
0.383,-1.060,-0.420
0.386,-1.040,-0.505
0.389,-1.025,-0.585
0.392,-1.025,-0.605
0.394,-1.000,-0.620
0.397,-0.975,-0.615
0.400,-0.960,-0.620
0.403,-0.955,-0.615
0.406,-0.945,-0.600
0.408,-0.940,-0.615
0.411,-0.945,-0.615
0.414,-0.960,-0.620
0.417,-0.960,-0.630
0.419,-0.965,-0.635
0.422,-0.980,-0.640
0.425,-0.980,-0.640
0.428,-0.970,-0.625
0.431,-0.970,-0.620
0.433,-0.970,-0.620
0.436,-0.955,-0.625
0.439,-0.950,-0.615
0.442,-0.955,-0.615
0.444,-0.945,-0.620
0.447,-0.955,-0.635
0.450,-0.965,-0.645
0.453,-0.965,-0.655
0.456,-0.970,-0.655
0.458,-0.975,-0.655
0.461,-0.975,-0.635
0.464,-0.980,-0.640
0.467,-0.965,-0.630
0.469,-0.965,-0.620
0.472,-0.975,-0.625
0.475,-0.980,-0.625
0.478,-0.975,-0.635
0.481,-0.975,-0.640
0.483,-0.980,-0.650
0.486,-0.990,-0.655
0.489,-0.995,-0.650
0.492,-1.000,-0.660
0.494,-1.015,-0.660
0.497,-1.010,-0.640
0.500,-1.010,-0.645
0.503,-1.010,-0.640
0.506,-0.990,-0.630
0.508,-0.990,-0.640
0.511,-0.990,-0.640
0.514,-1.010,-0.655
0.517,-1.020,-0.665
0.519,-1.030,-0.665
0.522,-1.035,-0.670
0.525,-1.045,-0.670
0.528,-1.040,-0.670
0.531,-1.040,-0.660
0.533,-1.040,-0.665
0.536,-1.035,-0.660
0.539,-1.030,-0.655
0.542,-1.025,-0.655
0.544,-1.040,-0.660
0.547,-1.040,-0.675
0.550,-1.050,-0.685
0.553,-1.060,-0.680
0.556,-1.065,-0.685
0.558,-1.080,-0.685
0.561,-1.070,-0.685
0.564,-1.070,-0.675
0.567,-1.070,-0.665
0.569,-1.055,-0.655
0.572,-1.060,-0.655
0.575,-1.060,-0.650
0.578,-1.060,-0.650
0.581,-1.060,-0.655
0.583,-1.070,-0.670
0.586,-1.070,-0.685
0.589,-1.075,-0.685
0.592,-1.065,-0.680
0.594,-1.065,-0.680
0.597,-1.065,-0.675
0.600,-1.055,-0.675
0.603,-1.055,-0.660
0.606,-1.045,-0.665
0.608,-1.040,-0.680
0.611,-1.030,-0.680
0.614,-1.015,-0.680
0.617,-1.025,-0.680
0.619,-1.010,-0.685
0.622,-1.020,-0.705
0.625,-1.005,-0.705
0.628,-1.000,-0.705
0.631,-0.965,-0.680
0.633,-0.945,-0.685
0.636,-0.915,-0.675
0.639,-0.895,-0.685
0.642,-0.875,-0.685
0.644,-0.855,-0.690
0.647,-0.840,-0.700
0.650,-0.825,-0.705
0.653,-0.805,-0.705
0.656,-0.800,-0.715
0.658,-0.785,-0.710
0.661,-0.775,-0.700
0.664,-0.755,-0.690
0.667,-0.740,-0.675
0.669,-0.720,-0.675
0.672,-0.710,-0.675
0.675,-0.700,-0.655
0.678,-0.690,-0.665
0.681,-0.695,-0.670
0.683,-0.705,-0.685
0.686,-0.710,-0.685
0.689,-0.720,-0.685
0.692,-0.705,-0.670
0.694,-0.715,-0.660
0.697,-0.710,-0.655
0.700,-0.710,-0.630
0.703,-0.715,-0.625
0.706,-0.715,-0.625
0.708,-0.710,-0.630
0.711,-0.720,-0.625
0.714,-0.715,-0.630
0.717,-0.730,-0.635
0.719,-0.740,-0.650
0.722,-0.760,-0.665
0.725,-0.745,-0.660
0.728,-0.750,-0.660
0.731,-0.765,-0.645
0.733,-0.750,-0.635
0.736,-0.745,-0.635
0.739,-0.745,-0.630
0.742,-0.745,-0.630
0.744,-0.755,-0.640
0.747,-0.765,-0.650
0.750,-0.775,-0.640
0.753,-0.770,-0.650
0.756,-0.790,-0.655
0.758,-0.790,-0.660
0.761,-0.795,-0.635
0.764,-0.785,-0.645
0.767,-0.785,-0.630
0.769,-0.790,-0.635
0.772,-0.790,-0.620
0.775,-0.790,-0.625
0.778,-0.770,-0.635
0.781,-0.790,-0.640
0.783,-0.795,-0.645
0.786,-0.800,-0.655
0.789,-0.795,-0.660
0.792,-0.800,-0.665
0.794,-0.805,-0.665
0.797,-0.795,-0.660
0.800,-0.795,-0.650
0.803,-0.790,-0.645
0.806,-0.780,-0.645
0.808,-0.790,-0.650
0.811,-0.785,-0.655
0.814,-0.795,-0.660
0.817,-0.790,-0.675
0.819,-0.805,-0.680
0.822,-0.825,-0.685
0.825,-0.820,-0.675
0.828,-0.810,-0.670
0.831,-0.805,-0.665
0.833,-0.795,-0.660
0.836,-0.785,-0.655
0.839,-0.780,-0.635
0.842,-0.780,-0.645
0.844,-0.785,-0.645
0.847,-0.790,-0.640
0.850,-0.790,-0.660
0.853,-0.805,-0.665
0.856,-0.815,-0.675
0.858,-0.810,-0.665
0.861,-0.800,-0.655
0.864,-0.790,-0.645
0.867,-0.780,-0.645
0.869,-0.760,-0.640
0.872,-0.750,-0.630
0.875,-0.745,-0.635
0.878,-0.735,-0.625
0.881,-0.720,-0.630
0.883,-0.710,-0.635
0.886,-0.710,-0.660
0.889,-0.715,-0.650
0.892,-0.705,-0.645
0.894,-0.710,-0.645
0.897,-0.710,-0.645
0.900,-0.705,-0.635
0.903,-0.695,-0.630
0.906,-0.675,-0.625
0.908,-0.670,-0.645
0.911,-0.660,-0.635
0.914,-0.655,-0.655
0.917,-0.655,-0.655
0.919,-0.670,-0.665
0.922,-0.685,-0.680
0.925,-0.710,-0.685
0.928,-0.720,-0.680
0.931,-0.750,-0.680
0.933,-0.745,-0.670
0.936,-0.745,-0.660
0.939,-0.740,-0.670
0.942,-0.745,-0.670
0.944,-0.745,-0.680
0.947,-0.755,-0.675
0.950,-0.780,-0.700
0.953,-0.800,-0.700
0.956,-0.830,-0.705
0.958,-0.845,-0.690
0.961,-0.840,-0.670
0.964,-0.850,-0.655
0.967,-0.850,-0.625
0.969,-0.850,-0.620
0.972,-0.840,-0.615
0.975,-0.840,-0.620
0.978,-0.855,-0.635
0.981,-0.850,-0.630
0.983,-0.870,-0.645
0.986,-0.865,-0.660
0.989,-0.875,-0.670
0.992,-0.875,-0.650
0.994,-0.865,-0.650
0.997,-0.875,-0.645
1.000,-0.860,-0.645
1.003,-0.860,-0.635
1.006,-0.855,-0.640
1.008,-0.855,-0.635
1.011,-0.860,-0.625
1.014,-0.855,-0.640
1.017,-0.860,-0.650
1.019,-0.860,-0.645
1.022,-0.870,-0.655
1.025,-0.865,-0.650
1.028,-0.845,-0.645
1.031,-0.855,-0.630
1.033,-0.835,-0.620
1.036,-0.800,-0.605
1.039,-0.760,-0.600
1.042,-0.705,-0.615
1.044,-0.625,-0.620
1.047,-0.530,-0.645
1.050,-0.415,-0.660
1.053,-0.295,-0.705
1.056,-0.190,-0.730
1.058,-0.105,-0.755
1.061,-0.055,-0.760
1.064,-0.095,-0.765
1.067,-0.185,-0.775
1.069,-0.310,-0.795
1.072,-0.430,-0.800
1.075,-0.575,-0.805
1.078,-0.725,-0.800
1.081,-0.890,-0.790
1.083,-1.050,-0.755
1.086,-1.160,-0.685
1.089,-1.210,-0.600
1.092,-1.195,-0.495
1.094,-1.160,-0.405
1.097,-1.125,-0.345
1.100,-1.095,-0.335
1.103,-1.085,-0.395
1.106,-1.055,-0.455
1.108,-1.035,-0.525
1.111,-1.020,-0.590
1.114,-1.005,-0.615
1.117,-0.990,-0.625
1.119,-0.980,-0.640
1.122,-0.975,-0.645
1.125,-0.975,-0.650
1.128,-0.965,-0.650
1.131,-0.975,-0.650
1.133,-0.965,-0.640
1.136,-0.955,-0.630
1.139,-0.960,-0.620
1.142,-0.955,-0.630
1.144,-0.955,-0.635
1.147,-0.965,-0.645
1.150,-0.980,-0.645
1.153,-0.980,-0.665
1.156,-0.985,-0.665
1.158,-0.985,-0.660
1.161,-0.990,-0.660
1.164,-0.980,-0.645
1.167,-0.985,-0.650
1.169,-0.985,-0.660
1.172,-0.980,-0.640
1.175,-0.960,-0.650
1.178,-0.975,-0.650
1.181,-0.980,-0.655
1.183,-0.985,-0.655
1.186,-0.995,-0.665
1.189,-1.000,-0.660
1.192,-1.010,-0.660
1.194,-1.005,-0.655
1.197,-1.010,-0.645
1.200,-1.000,-0.650
1.203,-1.005,-0.630
1.206,-1.005,-0.640
1.208,-1.000,-0.645
1.211,-1.005,-0.640
1.214,-1.010,-0.640
1.217,-1.025,-0.665
1.219,-1.030,-0.675
1.222,-1.035,-0.675
1.225,-1.040,-0.675
1.228,-1.045,-0.670
1.231,-1.055,-0.650
1.233,-1.045,-0.655
1.236,-1.030,-0.640
1.239,-1.030,-0.645
1.242,-1.030,-0.655
1.244,-1.040,-0.665
1.247,-1.045,-0.665
1.250,-1.055,-0.680
1.253,-1.070,-0.690
1.256,-1.090,-0.695
1.258,-1.085,-0.695
1.261,-1.095,-0.700
1.264,-1.095,-0.685
1.267,-1.085,-0.695
1.269,-1.085,-0.670
1.272,-1.075,-0.660
1.275,-1.075,-0.670
1.278,-1.075,-0.670
1.281,-1.080,-0.685
1.283,-1.100,-0.700
1.286,-1.100,-0.690
1.289,-1.095,-0.695
1.292,-1.105,-0.690
1.294,-1.105,-0.685
1.297,-1.115,-0.690
1.300,-1.100,-0.675
1.303,-1.100,-0.670
1.306,-1.090,-0.665
1.308,-1.090,-0.670
1.311,-1.075,-0.680
1.314,-1.075,-0.685
1.317,-1.080,-0.705
1.319,-1.085,-0.700
1.322,-1.080,-0.710
1.325,-1.080,-0.700
1.328,-1.080,-0.705
1.331,-1.065,-0.700
1.333,-1.060,-0.695
1.336,-1.040,-0.685
1.339,-1.045,-0.680
1.342,-1.020,-0.680
1.344,-1.010,-0.675
1.347,-0.985,-0.695
1.350,-0.985,-0.710
1.353,-0.975,-0.735
1.356,-0.965,-0.725
1.358,-0.950,-0.730
1.361,-0.925,-0.720
1.364,-0.915,-0.705
1.367,-0.875,-0.710
1.369,-0.860,-0.705
1.372,-0.830,-0.695
1.375,-0.805,-0.695
1.378,-0.785,-0.705
1.381,-0.780,-0.710
1.383,-0.765,-0.710
1.386,-0.765,-0.710
1.389,-0.770,-0.710
1.392,-0.765,-0.710
1.394,-0.750,-0.705
1.397,-0.745,-0.695
1.400,-0.735,-0.670
1.403,-0.735,-0.665
1.406,-0.730,-0.650
1.408,-0.730,-0.655
1.411,-0.730,-0.665
1.414,-0.740,-0.660
1.417,-0.755,-0.670
1.419,-0.765,-0.685
1.422,-0.775,-0.670
1.425,-0.780,-0.685
1.428,-0.770,-0.675
1.431,-0.775,-0.670
1.433,-0.775,-0.660
1.436,-0.770,-0.660
1.439,-0.770,-0.645
1.442,-0.775,-0.660
1.444,-0.790,-0.660
1.447,-0.790,-0.655
1.450,-0.805,-0.670
1.453,-0.805,-0.665
1.456,-0.810,-0.685
1.458,-0.815,-0.675
1.461,-0.815,-0.665
1.464,-0.815,-0.660
1.467,-0.810,-0.650
1.469,-0.800,-0.655
1.472,-0.795,-0.635
1.475,-0.805,-0.645
1.478,-0.800,-0.650
1.481,-0.815,-0.665
1.483,-0.825,-0.660
1.486,-0.835,-0.660
1.489,-0.830,-0.665
1.492,-0.845,-0.680
1.494,-0.845,-0.675
1.497,-0.835,-0.665
1.500,-0.835,-0.655
1.503,-0.835,-0.640
1.506,-0.830,-0.650
1.508,-0.840,-0.645
1.511,-0.825,-0.650
1.514,-0.820,-0.660
1.517,-0.825,-0.675
1.519,-0.825,-0.675
1.522,-0.840,-0.680
1.525,-0.845,-0.685
1.528,-0.855,-0.690
1.531,-0.855,-0.680
1.533,-0.835,-0.680
1.536,-0.830,-0.665
1.539,-0.840,-0.675
1.542,-0.825,-0.675
1.544,-0.830,-0.665
1.547,-0.830,-0.670
1.550,-0.835,-0.680
1.553,-0.840,-0.675
1.556,-0.840,-0.680
1.558,-0.840,-0.685
1.561,-0.845,-0.685
1.564,-0.855,-0.670
1.567,-0.840,-0.675
1.569,-0.835,-0.670
1.572,-0.825,-0.660
1.575,-0.820,-0.660
1.578,-0.820,-0.670
1.581,-0.830,-0.665
1.583,-0.815,-0.670
1.586,-0.820,-0.690
1.589,-0.825,-0.690
1.592,-0.815,-0.685
1.594,-0.810,-0.675
1.597,-0.790,-0.675
1.600,-0.785,-0.660
1.603,-0.760,-0.640
1.606,-0.745,-0.635
1.608,-0.735,-0.630
1.611,-0.730,-0.650
1.614,-0.730,-0.650
1.617,-0.750,-0.660
1.619,-0.745,-0.675
1.622,-0.750,-0.680
1.625,-0.755,-0.675
1.628,-0.740,-0.685
1.631,-0.735,-0.665
1.633,-0.720,-0.665
1.636,-0.720,-0.665
1.639,-0.700,-0.655
1.642,-0.700,-0.660
1.644,-0.720,-0.675
1.647,-0.755,-0.690
1.650,-0.770,-0.685
1.653,-0.790,-0.695
1.656,-0.810,-0.710
1.658,-0.825,-0.710
1.661,-0.825,-0.705
1.664,-0.815,-0.695
1.667,-0.800,-0.705
1.669,-0.810,-0.695
1.672,-0.815,-0.695
1.675,-0.835,-0.705
1.678,-0.845,-0.700
1.681,-0.865,-0.685
1.683,-0.870,-0.675
1.686,-0.890,-0.665
1.689,-0.895,-0.670
1.692,-0.905,-0.650
1.694,-0.905,-0.645
1.697,-0.900,-0.650
1.700,-0.905,-0.645
1.703,-0.900,-0.645
1.706,-0.905,-0.635
1.708,-0.895,-0.645
1.711,-0.895,-0.650
1.714,-0.905,-0.660
1.717,-0.920,-0.665
1.719,-0.915,-0.670
1.722,-0.915,-0.680
1.725,-0.930,-0.680
1.728,-0.930,-0.685
1.731,-0.910,-0.660
1.733,-0.930,-0.645
1.736,-0.895,-0.650
1.739,-0.910,-0.640
1.742,-0.890,-0.635
1.744,-0.880,-0.630
1.747,-0.900,-0.640
1.750,-0.905,-0.655
1.753,-0.895,-0.650
1.756,-0.895,-0.650
1.758,-0.895,-0.640
1.761,-0.895,-0.630
1.764,-0.890,-0.625
1.767,-0.870,-0.620
1.769,-0.830,-0.615
1.772,-0.765,-0.605
1.775,-0.695,-0.625
1.778,-0.605,-0.630
1.781,-0.490,-0.675
1.783,-0.365,-0.705
1.786,-0.240,-0.735
1.789,-0.145,-0.765
1.792,-0.105,-0.785
1.794,-0.150,-0.800
1.797,-0.265,-0.810
1.800,-0.410,-0.825
1.803,-0.565,-0.820
1.806,-0.755,-0.815
1.808,-0.945,-0.790
1.811,-1.120,-0.745
1.814,-1.245,-0.665
1.817,-1.270,-0.575
1.819,-1.255,-0.465
1.822,-1.225,-0.390
1.825,-1.195,-0.365
1.828,-1.150,-0.390
1.831,-1.135,-0.450
1.833,-1.115,-0.510
1.836,-1.090,-0.565
1.839,-1.060,-0.595
1.842,-1.045,-0.620
1.844,-1.025,-0.630
1.847,-1.020,-0.645
1.850,-1.000,-0.655
1.853,-1.005,-0.660
1.856,-1.005,-0.655
1.858,-1.010,-0.660
1.861,-1.015,-0.660
1.864,-1.020,-0.655
1.867,-1.015,-0.655
1.869,-1.015,-0.645
1.872,-1.005,-0.640
1.875,-0.995,-0.635
1.878,-1.005,-0.650
1.881,-1.005,-0.665
1.883,-1.015,-0.675
1.886,-1.025,-0.670
1.889,-1.040,-0.675
1.892,-1.040,-0.675
1.894,-1.040,-0.680
1.897,-1.040,-0.670
1.900,-1.040,-0.655
1.903,-1.035,-0.650
1.906,-1.035,-0.635
1.908,-1.015,-0.645
1.911,-1.020,-0.660
1.914,-1.025,-0.650
1.917,-1.045,-0.665
1.919,-1.055,-0.660
1.922,-1.060,-0.675
1.925,-1.070,-0.680
1.928,-1.065,-0.670
1.931,-1.055,-0.665
1.933,-1.050,-0.665
1.936,-1.040,-0.655
1.939,-1.040,-0.645
1.942,-1.045,-0.640
1.944,-1.045,-0.655
1.947,-1.050,-0.655
1.950,-1.070,-0.660
1.953,-1.075,-0.670
1.956,-1.080,-0.685
1.958,-1.090,-0.690
1.961,-1.095,-0.680
1.964,-1.095,-0.670
1.967,-1.085,-0.655
1.969,-1.080,-0.655
1.972,-1.085,-0.645
1.975,-1.065,-0.660
1.978,-1.080,-0.680
1.981,-1.085,-0.685
1.983,-1.110,-0.680
1.986,-1.110,-0.690
1.989,-1.125,-0.705
1.992,-1.135,-0.705
1.994,-1.130,-0.705
1.997,-1.140,-0.700
2.000,-1.140,-0.685
2.003,-1.130,-0.680
2.006,-1.135,-0.670
2.008,-1.120,-0.680
2.011,-1.120,-0.685
2.014,-1.125,-0.695
2.017,-1.125,-0.705
2.019,-1.135,-0.715
2.022,-1.140,-0.725
2.025,-1.140,-0.725
2.028,-1.135,-0.710
2.031,-1.130,-0.705
2.033,-1.120,-0.695
2.036,-1.115,-0.695
2.039,-1.110,-0.690
2.042,-1.090,-0.685
2.044,-1.105,-0.685
2.047,-1.095,-0.700
2.050,-1.095,-0.720
2.053,-1.080,-0.725
2.056,-1.065,-0.730
2.058,-1.065,-0.730
2.061,-1.035,-0.735
2.064,-1.015,-0.735
2.067,-0.985,-0.725
2.069,-0.965,-0.715
2.072,-0.940,-0.705
2.075,-0.920,-0.715
2.078,-0.905,-0.725
2.081,-0.880,-0.730
2.083,-0.875,-0.735
2.086,-0.860,-0.740
2.089,-0.850,-0.740
2.092,-0.840,-0.740
2.094,-0.825,-0.730
2.097,-0.810,-0.725
2.100,-0.795,-0.705
2.103,-0.785,-0.700
2.106,-0.765,-0.685
2.108,-0.775,-0.690
2.111,-0.770,-0.685
2.114,-0.780,-0.690
2.117,-0.765,-0.695
2.119,-0.780,-0.695
2.122,-0.780,-0.700
2.125,-0.790,-0.700
2.128,-0.800,-0.685
2.131,-0.785,-0.690
2.133,-0.785,-0.675
2.136,-0.795,-0.670
2.139,-0.790,-0.660
2.142,-0.785,-0.665
2.144,-0.795,-0.665
2.147,-0.795,-0.675
2.150,-0.810,-0.680
2.153,-0.815,-0.680
2.156,-0.840,-0.690
2.158,-0.845,-0.675
2.161,-0.840,-0.680
2.164,-0.845,-0.665
2.167,-0.845,-0.670
2.169,-0.835,-0.660
2.172,-0.840,-0.645
2.175,-0.830,-0.665
2.178,-0.835,-0.660
2.181,-0.845,-0.670
2.183,-0.850,-0.655
2.186,-0.855,-0.670
2.189,-0.875,-0.685
2.192,-0.875,-0.690
2.194,-0.875,-0.685
2.197,-0.860,-0.680
2.200,-0.875,-0.670
2.203,-0.850,-0.665
2.206,-0.860,-0.650
2.208,-0.860,-0.655
2.211,-0.870,-0.670
2.214,-0.875,-0.685
2.217,-0.885,-0.690
2.219,-0.890,-0.690
2.222,-0.895,-0.695
2.225,-0.905,-0.705
2.228,-0.895,-0.695
2.231,-0.890,-0.695
2.233,-0.880,-0.685
2.236,-0.865,-0.680
2.239,-0.870,-0.675
2.242,-0.865,-0.665
2.244,-0.865,-0.690
2.247,-0.865,-0.700
2.250,-0.875,-0.710
2.253,-0.880,-0.700
2.256,-0.895,-0.695
2.258,-0.895,-0.710
2.261,-0.885,-0.700
2.264,-0.890,-0.690
2.267,-0.880,-0.685
2.269,-0.870,-0.680
2.272,-0.875,-0.670
2.275,-0.870,-0.670
2.278,-0.870,-0.665
2.281,-0.855,-0.690
2.283,-0.855,-0.700
2.286,-0.855,-0.680
2.289,-0.860,-0.695
2.292,-0.850,-0.710
2.294,-0.845,-0.690
2.297,-0.830,-0.680
2.300,-0.815,-0.665
2.303,-0.800,-0.660
2.306,-0.780,-0.645
2.308,-0.770,-0.640
2.311,-0.775,-0.655
2.314,-0.765,-0.655
2.317,-0.770,-0.660
2.319,-0.780,-0.675
2.322,-0.790,-0.695
2.325,-0.790,-0.685
2.328,-0.780,-0.695
2.331,-0.770,-0.680
2.333,-0.755,-0.695
2.336,-0.750,-0.680
2.339,-0.745,-0.680
2.342,-0.735,-0.680
2.344,-0.765,-0.685
2.347,-0.790,-0.705
2.350,-0.815,-0.705
2.353,-0.830,-0.710
2.356,-0.840,-0.715
2.358,-0.845,-0.730
2.361,-0.830,-0.725
2.364,-0.840,-0.720
2.367,-0.840,-0.720
2.369,-0.845,-0.700
2.372,-0.870,-0.690
2.375,-0.885,-0.690
2.378,-0.895,-0.680
2.381,-0.905,-0.665
2.383,-0.920,-0.670
2.386,-0.925,-0.660
2.389,-0.950,-0.670
2.392,-0.960,-0.680
2.394,-0.945,-0.675
2.397,-0.955,-0.680
2.400,-0.945,-0.680
2.403,-0.935,-0.675
2.406,-0.915,-0.655
2.408,-0.915,-0.650
2.411,-0.920,-0.665
2.414,-0.925,-0.670
2.417,-0.930,-0.670
2.419,-0.935,-0.680
2.422,-0.955,-0.695
2.425,-0.950,-0.700
2.428,-0.945,-0.685
2.431,-0.935,-0.675
2.433,-0.935,-0.665
2.436,-0.915,-0.660
2.439,-0.905,-0.645
2.442,-0.900,-0.635
2.444,-0.900,-0.650
2.447,-0.910,-0.640
2.450,-0.905,-0.650
2.453,-0.900,-0.650
2.456,-0.875,-0.655
2.458,-0.840,-0.665
2.461,-0.760,-0.655
2.464,-0.670,-0.680
2.467,-0.555,-0.680
2.469,-0.415,-0.695
2.472,-0.285,-0.710
2.475,-0.180,-0.735
2.478,-0.115,-0.770
2.481,-0.120,-0.780
2.483,-0.200,-0.805
2.486,-0.320,-0.825
2.489,-0.475,-0.845
2.492,-0.615,-0.855
2.494,-0.765,-0.850
2.497,-0.930,-0.820
2.500,-1.090,-0.780
2.503,-1.190,-0.705
2.506,-1.225,-0.625
2.508,-1.220,-0.505
2.511,-1.205,-0.415
2.514,-1.175,-0.360
2.517,-1.165,-0.375
2.519,-1.140,-0.415
2.522,-1.145,-0.480
2.525,-1.125,-0.555
2.528,-1.115,-0.615
2.531,-1.085,-0.635
2.533,-1.065,-0.645
2.536,-1.035,-0.640
2.539,-1.015,-0.640
2.542,-1.015,-0.655
2.544,-1.010,-0.660
2.547,-1.010,-0.660
2.550,-1.015,-0.675
2.553,-1.025,-0.680
2.556,-1.040,-0.685
2.558,-1.040,-0.685
2.561,-1.050,-0.695
2.564,-1.045,-0.680
2.567,-1.020,-0.675
2.569,-1.010,-0.670
2.572,-1.015,-0.660
2.575,-1.000,-0.670
2.578,-1.005,-0.660
2.581,-1.010,-0.680
2.583,-1.020,-0.685
2.586,-1.025,-0.700
2.589,-1.030,-0.720
2.592,-1.040,-0.710
2.594,-1.040,-0.710
2.597,-1.030,-0.715
2.600,-1.030,-0.695
2.603,-1.030,-0.680
2.606,-1.030,-0.675
2.608,-1.030,-0.675
2.611,-1.035,-0.675
2.614,-1.050,-0.685
2.617,-1.045,-0.695
2.619,-1.065,-0.695
2.622,-1.065,-0.715
2.625,-1.070,-0.715
2.628,-1.065,-0.710
2.631,-1.065,-0.705
2.633,-1.060,-0.685
2.636,-1.070,-0.680
2.639,-1.065,-0.690
2.642,-1.045,-0.690
2.644,-1.055,-0.690
2.647,-1.060,-0.695
2.650,-1.075,-0.705
2.653,-1.085,-0.715
2.656,-1.090,-0.705
2.658,-1.100,-0.715
2.661,-1.095,-0.700
2.664,-1.115,-0.710
2.667,-1.105,-0.700
2.669,-1.095,-0.685
2.672,-1.095,-0.685
2.675,-1.095,-0.690
2.678,-1.100,-0.690
2.681,-1.100,-0.705
2.683,-1.110,-0.730
2.686,-1.110,-0.730
2.689,-1.120,-0.740
2.692,-1.130,-0.735
2.694,-1.135,-0.745
2.697,-1.135,-0.715
2.700,-1.145,-0.715
2.703,-1.140,-0.720
2.706,-1.135,-0.720
2.708,-1.130,-0.715
2.711,-1.125,-0.720
2.714,-1.130,-0.720
2.717,-1.145,-0.720
2.719,-1.145,-0.725
2.722,-1.150,-0.745
2.725,-1.145,-0.750
2.728,-1.150,-0.740
2.731,-1.140,-0.735
2.733,-1.120,-0.725
2.736,-1.115,-0.715
2.739,-1.110,-0.705
2.742,-1.090,-0.715
2.744,-1.085,-0.715
2.747,-1.090,-0.720
2.750,-1.080,-0.735
2.753,-1.080,-0.730
2.756,-1.080,-0.740
2.758,-1.070,-0.745
2.761,-1.075,-0.755
2.764,-1.055,-0.750
2.767,-1.030,-0.735
2.769,-0.995,-0.740
2.772,-0.985,-0.730
2.775,-0.925,-0.745
2.778,-0.905,-0.750
2.781,-0.885,-0.755
2.783,-0.875,-0.755
2.786,-0.870,-0.760
2.789,-0.865,-0.750
2.792,-0.835,-0.755
2.794,-0.820,-0.745
2.797,-0.820,-0.730
2.800,-0.780,-0.730
2.803,-0.770,-0.715
2.806,-0.765,-0.705
2.808,-0.775,-0.720
2.811,-0.775,-0.715
2.814,-0.775,-0.720
2.817,-0.790,-0.730
2.819,-0.795,-0.730
2.822,-0.790,-0.735
2.825,-0.790,-0.725
2.828,-0.790,-0.710
2.831,-0.795,-0.705
2.833,-0.800,-0.690
2.836,-0.790,-0.680
2.839,-0.800,-0.690
2.842,-0.795,-0.690
2.844,-0.800,-0.695
2.847,-0.810,-0.715
2.850,-0.815,-0.700
2.853,-0.820,-0.715
2.856,-0.825,-0.720
2.858,-0.830,-0.715
2.861,-0.840,-0.705
2.864,-0.855,-0.705
2.867,-0.845,-0.705
2.869,-0.845,-0.700
2.872,-0.840,-0.715
2.875,-0.830,-0.705
2.878,-0.835,-0.700
2.881,-0.840,-0.705
2.883,-0.835,-0.715
2.886,-0.840,-0.715
2.889,-0.845,-0.720
2.892,-0.860,-0.705
2.894,-0.860,-0.690
2.897,-0.870,-0.690
2.900,-0.870,-0.675
2.903,-0.860,-0.675
2.906,-0.860,-0.665
2.908,-0.860,-0.675
2.911,-0.865,-0.685
2.914,-0.875,-0.690
2.917,-0.875,-0.710
2.919,-0.885,-0.705
2.922,-0.880,-0.720
2.925,-0.880,-0.715
2.928,-0.875,-0.700
2.931,-0.870,-0.695
2.933,-0.870,-0.690
2.936,-0.865,-0.675
2.939,-0.865,-0.690
2.942,-0.865,-0.700
2.944,-0.880,-0.705
2.947,-0.885,-0.715
2.950,-0.890,-0.705
2.953,-0.895,-0.710
2.956,-0.890,-0.730
2.958,-0.890,-0.715
2.961,-0.905,-0.710
2.964,-0.890,-0.705
2.967,-0.895,-0.690
2.969,-0.875,-0.690
2.972,-0.865,-0.685
2.975,-0.865,-0.680
2.978,-0.865,-0.680
2.981,-0.870,-0.680
2.983,-0.870,-0.690
2.986,-0.885,-0.710
2.989,-0.885,-0.710
2.992,-0.890,-0.705
2.994,-0.900,-0.700
2.997,-0.870,-0.690
3.000,-0.855,-0.675
3.003,-0.835,-0.670
3.006,-0.815,-0.655
3.008,-0.815,-0.665
3.011,-0.805,-0.665
3.014,-0.810,-0.670
3.017,-0.810,-0.670
3.019,-0.815,-0.680
3.022,-0.820,-0.695
3.025,-0.830,-0.690
3.028,-0.820,-0.690
3.031,-0.815,-0.695
3.033,-0.800,-0.680
3.036,-0.785,-0.685
3.039,-0.770,-0.685
3.042,-0.765,-0.700
3.044,-0.765,-0.710
3.047,-0.780,-0.710
3.050,-0.790,-0.725
3.053,-0.815,-0.730
3.056,-0.845,-0.735
3.058,-0.875,-0.735
3.061,-0.875,-0.720
3.064,-0.865,-0.705
3.067,-0.845,-0.715
3.069,-0.845,-0.705
3.072,-0.850,-0.715
3.075,-0.860,-0.720
3.078,-0.890,-0.730
3.081,-0.910,-0.730
3.083,-0.935,-0.730
3.086,-0.950,-0.725
3.089,-0.970,-0.710
3.092,-0.970,-0.690
3.094,-0.975,-0.660
3.097,-0.975,-0.650
3.100,-0.970,-0.650
3.103,-0.960,-0.640
3.106,-0.960,-0.660
3.108,-0.970,-0.655
3.111,-0.960,-0.660
3.114,-0.975,-0.680
3.117,-0.980,-0.675
3.119,-0.975,-0.675
3.122,-0.975,-0.700
3.125,-0.975,-0.690
3.128,-0.970,-0.680
3.131,-0.970,-0.690
3.133,-0.985,-0.670
3.136,-0.970,-0.665
3.139,-0.975,-0.670
3.142,-0.960,-0.670
3.144,-0.965,-0.675
3.147,-0.965,-0.670
3.150,-0.975,-0.690
3.153,-0.985,-0.690
3.156,-0.985,-0.690
3.158,-0.975,-0.680
3.161,-0.970,-0.680
3.164,-0.965,-0.655
3.167,-0.955,-0.640
3.169,-0.915,-0.625
3.172,-0.860,-0.635
3.175,-0.800,-0.645
3.178,-0.705,-0.660
3.181,-0.600,-0.685
3.183,-0.465,-0.720
3.186,-0.350,-0.755
3.189,-0.230,-0.775
3.192,-0.185,-0.800
3.194,-0.205,-0.795
3.197,-0.300,-0.800
3.200,-0.440,-0.785
3.203,-0.585,-0.765
3.206,-0.765,-0.715
3.208,-0.985,-0.670
3.211,-1.155,-0.590
3.214,-1.250,-0.505
3.217,-1.280,-0.385
3.219,-1.255,-0.280
3.222,-1.245,-0.210
3.225,-1.230,-0.220
3.228,-1.225,-0.295
3.231,-1.205,-0.405
3.233,-1.185,-0.510
3.236,-1.155,-0.580
3.239,-1.125,-0.635
3.242,-1.095,-0.660
3.244,-1.085,-0.670
3.247,-1.075,-0.680
3.250,-1.085,-0.685
3.253,-1.095,-0.695
3.256,-1.090,-0.705
3.258,-1.105,-0.700
3.261,-1.110,-0.695
3.264,-1.105,-0.700
3.267,-1.095,-0.690
3.269,-1.100,-0.685
3.272,-1.085,-0.695
3.275,-1.090,-0.695
3.278,-1.085,-0.690
3.281,-1.095,-0.705
3.283,-1.105,-0.705
3.286,-1.105,-0.715
3.289,-1.100,-0.715
3.292,-1.125,-0.720
3.294,-1.130,-0.720
3.297,-1.120,-0.705
3.300,-1.120,-0.700
3.303,-1.115,-0.695
3.306,-1.110,-0.705
3.308,-1.125,-0.705
3.311,-1.125,-0.705
3.314,-1.125,-0.710
3.317,-1.135,-0.705
3.319,-1.145,-0.725
3.322,-1.140,-0.730
3.325,-1.155,-0.730
3.328,-1.150,-0.715
3.331,-1.135,-0.720
3.333,-1.120,-0.715
3.336,-1.115,-0.710
3.339,-1.115,-0.700
3.342,-1.125,-0.700
3.344,-1.115,-0.710
3.347,-1.135,-0.710
3.350,-1.160,-0.710
3.353,-1.165,-0.725
3.356,-1.170,-0.735
3.358,-1.165,-0.725
3.361,-1.175,-0.720
3.364,-1.175,-0.715
3.367,-1.165,-0.710
3.369,-1.165,-0.715
3.372,-1.160,-0.710
3.375,-1.150,-0.720
3.378,-1.150,-0.730
3.381,-1.170,-0.740
3.383,-1.180,-0.740
3.386,-1.195,-0.755
3.389,-1.195,-0.765
3.392,-1.220,-0.770
3.394,-1.215,-0.760
3.397,-1.220,-0.760
3.400,-1.215,-0.740
3.403,-1.215,-0.735
3.406,-1.205,-0.730
3.408,-1.220,-0.730
3.411,-1.225,-0.735
3.414,-1.230,-0.740
3.417,-1.230,-0.745
3.419,-1.235,-0.755
3.422,-1.225,-0.745
3.425,-1.225,-0.765
3.428,-1.225,-0.750
3.431,-1.210,-0.750
3.433,-1.200,-0.740
3.436,-1.210,-0.730
3.439,-1.195,-0.740
3.442,-1.190,-0.735
3.444,-1.185,-0.750
3.447,-1.200,-0.760
3.450,-1.170,-0.765
3.453,-1.175,-0.770
3.456,-1.180,-0.790
3.458,-1.165,-0.785
3.461,-1.145,-0.765
3.464,-1.125,-0.765
3.467,-1.110,-0.755
3.469,-1.070,-0.750
3.472,-1.045,-0.755
3.475,-1.035,-0.770
3.478,-1.020,-0.775
3.481,-1.000,-0.780
3.483,-0.995,-0.790
3.486,-0.980,-0.805
3.489,-0.970,-0.790
3.492,-0.960,-0.785
3.494,-0.935,-0.780
3.497,-0.915,-0.750
3.500,-0.910,-0.745
3.503,-0.890,-0.735
3.506,-0.885,-0.725
3.508,-0.870,-0.730
3.511,-0.870,-0.725
3.514,-0.875,-0.720
3.517,-0.885,-0.735
3.519,-0.890,-0.730
3.522,-0.900,-0.735
3.525,-0.910,-0.725
3.528,-0.915,-0.710
3.531,-0.920,-0.700
3.533,-0.905,-0.700
3.536,-0.885,-0.680
3.539,-0.880,-0.675
3.542,-0.890,-0.680
3.544,-0.885,-0.680
3.547,-0.900,-0.685
3.550,-0.905,-0.700
3.553,-0.915,-0.710
3.556,-0.930,-0.710
3.558,-0.945,-0.720
3.561,-0.935,-0.700
3.564,-0.935,-0.705
3.567,-0.925,-0.700
3.569,-0.915,-0.685
3.572,-0.915,-0.685
3.575,-0.930,-0.680
3.578,-0.930,-0.680
3.581,-0.940,-0.700
3.583,-0.950,-0.710
3.586,-0.960,-0.715
3.589,-0.955,-0.700
3.592,-0.960,-0.710
3.594,-0.950,-0.710
3.597,-0.950,-0.705
3.600,-0.945,-0.685
3.603,-0.940,-0.685
3.606,-0.935,-0.685
3.608,-0.950,-0.700
3.611,-0.960,-0.700
3.614,-0.950,-0.710
3.617,-0.965,-0.700
3.619,-0.965,-0.715
3.622,-0.960,-0.715
3.625,-0.970,-0.715
3.628,-0.960,-0.715
3.631,-0.950,-0.700
3.633,-0.955,-0.700
3.636,-0.945,-0.690
3.639,-0.940,-0.700
3.642,-0.945,-0.700
3.644,-0.945,-0.690
3.647,-0.960,-0.715
3.650,-0.955,-0.715
3.653,-0.955,-0.720
3.656,-0.955,-0.710
3.658,-0.950,-0.720
3.661,-0.955,-0.715
3.664,-0.930,-0.715
3.667,-0.920,-0.705
3.669,-0.920,-0.695
3.672,-0.910,-0.690
3.675,-0.905,-0.690
3.678,-0.910,-0.695
3.681,-0.900,-0.700
3.683,-0.895,-0.700
3.686,-0.885,-0.710
3.689,-0.880,-0.695
3.692,-0.885,-0.685
3.694,-0.865,-0.670
3.697,-0.865,-0.665
3.700,-0.865,-0.645
3.703,-0.865,-0.655
3.706,-0.855,-0.665
3.708,-0.850,-0.675
3.711,-0.840,-0.680
3.714,-0.825,-0.690
3.717,-0.825,-0.695
3.719,-0.810,-0.705
3.722,-0.810,-0.715
3.725,-0.825,-0.715
3.728,-0.835,-0.705
3.731,-0.830,-0.720
3.733,-0.830,-0.725
3.736,-0.835,-0.720
3.739,-0.830,-0.725
3.742,-0.835,-0.725
3.744,-0.845,-0.725
3.747,-0.860,-0.740
3.750,-0.885,-0.735
3.753,-0.885,-0.730
3.756,-0.895,-0.740
3.758,-0.910,-0.740
3.761,-0.910,-0.710
3.764,-0.920,-0.710
3.767,-0.935,-0.690
3.769,-0.930,-0.670
3.772,-0.920,-0.670
3.775,-0.935,-0.670
3.778,-0.945,-0.675
3.781,-0.955,-0.685
3.783,-0.955,-0.695
3.786,-0.980,-0.700
3.789,-0.985,-0.705
3.792,-0.985,-0.700
3.794,-0.980,-0.700
3.797,-0.965,-0.680
3.800,-0.970,-0.670
3.803,-0.955,-0.675
3.806,-0.945,-0.670
3.808,-0.950,-0.675
3.811,-0.960,-0.670
3.814,-0.965,-0.680
3.817,-0.965,-0.695
3.819,-0.975,-0.700
3.822,-0.970,-0.700
3.825,-0.970,-0.705
3.828,-0.965,-0.685
3.831,-0.950,-0.690
3.833,-0.945,-0.685
3.836,-0.945,-0.670
3.839,-0.915,-0.660
3.842,-0.915,-0.665
3.844,-0.895,-0.675
3.847,-0.840,-0.680
3.850,-0.775,-0.690
3.853,-0.700,-0.700
3.856,-0.595,-0.720
3.858,-0.475,-0.735
3.861,-0.345,-0.760
3.864,-0.220,-0.765
3.867,-0.130,-0.785
3.869,-0.095,-0.795
3.872,-0.115,-0.795
3.875,-0.215,-0.815
3.878,-0.360,-0.830
3.881,-0.500,-0.845
3.883,-0.655,-0.825
3.886,-0.815,-0.805
3.889,-0.985,-0.765
3.892,-1.140,-0.695
3.894,-1.240,-0.625
3.897,-1.255,-0.495
3.900,-1.210,-0.365
3.903,-1.170,-0.255
3.906,-1.150,-0.210
3.908,-1.160,-0.260
3.911,-1.180,-0.355
3.914,-1.180,-0.460
3.917,-1.170,-0.575
3.919,-1.140,-0.630
3.922,-1.110,-0.675
3.925,-1.085,-0.695
3.928,-1.060,-0.685
3.931,-1.045,-0.680
3.933,-1.035,-0.680
3.936,-1.040,-0.670
3.939,-1.030,-0.675
3.942,-1.040,-0.665
3.944,-1.040,-0.675
3.947,-1.045,-0.680
3.950,-1.055,-0.685
3.953,-1.060,-0.685
3.956,-1.055,-0.700
3.958,-1.060,-0.690
3.961,-1.070,-0.680
3.964,-1.065,-0.675
3.967,-1.065,-0.675
3.969,-1.060,-0.670
3.972,-1.040,-0.675
3.975,-1.045,-0.685
3.978,-1.045,-0.680
3.981,-1.060,-0.695
3.983,-1.065,-0.700
3.986,-1.060,-0.715
3.989,-1.075,-0.700
3.992,-1.090,-0.705
3.994,-1.085,-0.705
3.997,-1.090,-0.705
4.000,-1.085,-0.700
4.003,-1.080,-0.685
4.006,-1.060,-0.680
4.008,-1.070,-0.690
4.011,-1.075,-0.695
4.014,-1.080,-0.710
4.017,-1.100,-0.725
4.019,-1.100,-0.720
4.022,-1.105,-0.725
4.025,-1.105,-0.715
4.028,-1.110,-0.725
4.031,-1.100,-0.695
4.033,-1.110,-0.695
4.036,-1.105,-0.680
4.039,-1.090,-0.695
4.042,-1.105,-0.700
4.044,-1.100,-0.700
4.047,-1.110,-0.715
4.050,-1.120,-0.715
4.053,-1.125,-0.725
4.056,-1.135,-0.725
4.058,-1.145,-0.730
4.061,-1.145,-0.725
4.064,-1.135,-0.705
4.067,-1.140,-0.710
4.069,-1.130,-0.710
4.072,-1.125,-0.705
4.075,-1.135,-0.710
4.078,-1.145,-0.720
4.081,-1.150,-0.735
4.083,-1.160,-0.725
4.086,-1.165,-0.750
4.089,-1.190,-0.765
4.092,-1.175,-0.755
4.094,-1.175,-0.745
4.097,-1.165,-0.745
4.100,-1.160,-0.735
4.103,-1.155,-0.740
4.106,-1.135,-0.730
4.108,-1.140,-0.740
4.111,-1.145,-0.740
4.114,-1.160,-0.755
4.117,-1.140,-0.760
4.119,-1.145,-0.765
4.122,-1.145,-0.770
4.125,-1.150,-0.755
4.128,-1.125,-0.755
4.131,-1.115,-0.755
4.133,-1.105,-0.750
4.136,-1.085,-0.745
4.139,-1.075,-0.740
4.142,-1.055,-0.730
4.144,-1.045,-0.750
4.147,-1.040,-0.750
4.150,-1.035,-0.760
4.153,-1.010,-0.760
4.156,-0.995,-0.765
4.158,-0.990,-0.755
4.161,-0.970,-0.770
4.164,-0.950,-0.760
4.167,-0.940,-0.750
4.169,-0.895,-0.740
4.172,-0.880,-0.735
4.175,-0.855,-0.740
4.178,-0.855,-0.735
4.181,-0.840,-0.745
4.183,-0.820,-0.745
4.186,-0.830,-0.745
4.189,-0.825,-0.745
4.192,-0.820,-0.730
4.194,-0.805,-0.720
4.197,-0.795,-0.705
4.200,-0.790,-0.690
4.203,-0.785,-0.685
4.206,-0.785,-0.670
4.208,-0.780,-0.670
4.211,-0.790,-0.665
4.214,-0.805,-0.660
4.217,-0.805,-0.675
4.219,-0.815,-0.680
4.222,-0.820,-0.675
4.225,-0.845,-0.670
4.228,-0.835,-0.680
4.231,-0.820,-0.660
4.233,-0.810,-0.645
4.236,-0.815,-0.635
4.239,-0.805,-0.640
4.242,-0.805,-0.645
4.244,-0.810,-0.650
4.247,-0.815,-0.650
4.250,-0.830,-0.680
4.253,-0.845,-0.685
4.256,-0.850,-0.675
4.258,-0.860,-0.675
4.261,-0.850,-0.660
4.264,-0.855,-0.660
4.267,-0.845,-0.655
4.269,-0.835,-0.650
4.272,-0.835,-0.650
4.275,-0.830,-0.660
4.278,-0.835,-0.655
4.281,-0.845,-0.675
4.283,-0.845,-0.675
4.286,-0.855,-0.675
4.289,-0.860,-0.695
4.292,-0.860,-0.685
4.294,-0.860,-0.680
4.297,-0.855,-0.665
4.300,-0.850,-0.655
4.303,-0.850,-0.655
4.306,-0.845,-0.635
4.308,-0.840,-0.655
4.311,-0.855,-0.650
4.314,-0.855,-0.650
4.317,-0.870,-0.670
4.319,-0.865,-0.665
4.322,-0.865,-0.680
4.325,-0.865,-0.685
4.328,-0.865,-0.680
4.331,-0.865,-0.660
4.333,-0.850,-0.655
4.336,-0.845,-0.645
4.339,-0.835,-0.635
4.342,-0.845,-0.650
4.344,-0.855,-0.645
4.347,-0.845,-0.665
4.350,-0.850,-0.670
4.353,-0.850,-0.680
4.356,-0.860,-0.680
4.358,-0.855,-0.670
4.361,-0.865,-0.675
4.364,-0.855,-0.660
4.367,-0.845,-0.660
4.369,-0.835,-0.630
4.372,-0.845,-0.660
4.375,-0.835,-0.665
4.378,-0.845,-0.650
4.381,-0.840,-0.655
4.383,-0.835,-0.670
4.386,-0.830,-0.660
4.389,-0.825,-0.665
4.392,-0.815,-0.655
4.394,-0.815,-0.635
4.397,-0.790,-0.630
4.400,-0.785,-0.615
4.403,-0.760,-0.615
4.406,-0.765,-0.605
4.408,-0.765,-0.615
4.411,-0.775,-0.620
4.414,-0.775,-0.640
4.417,-0.770,-0.645
4.419,-0.775,-0.655
4.422,-0.780,-0.675
4.425,-0.765,-0.670
4.428,-0.760,-0.670
4.431,-0.755,-0.655
4.433,-0.740,-0.655
4.436,-0.745,-0.645
4.439,-0.755,-0.650
4.442,-0.780,-0.655
4.444,-0.795,-0.655
4.447,-0.825,-0.685
4.450,-0.830,-0.690
4.453,-0.840,-0.695
4.456,-0.840,-0.705
4.458,-0.840,-0.700
4.461,-0.845,-0.710
4.464,-0.865,-0.695
4.467,-0.870,-0.685
4.469,-0.875,-0.655
4.472,-0.875,-0.660
4.475,-0.890,-0.635
4.478,-0.895,-0.640
4.481,-0.905,-0.640
4.483,-0.930,-0.630
4.486,-0.930,-0.655
4.489,-0.945,-0.655
4.492,-0.940,-0.655
4.494,-0.955,-0.645
4.497,-0.950,-0.640
4.500,-0.935,-0.630
4.503,-0.945,-0.615
4.506,-0.925,-0.620
4.508,-0.920,-0.625
4.511,-0.930,-0.625
4.514,-0.940,-0.650
4.517,-0.950,-0.655
4.519,-0.960,-0.650
4.522,-0.960,-0.665
4.525,-0.965,-0.660
4.528,-0.945,-0.655
4.531,-0.945,-0.655
4.533,-0.950,-0.640
4.536,-0.930,-0.620
4.539,-0.925,-0.615
4.542,-0.910,-0.630
4.544,-0.915,-0.620
4.547,-0.915,-0.620
4.550,-0.915,-0.645
4.553,-0.900,-0.640
4.556,-0.860,-0.640
4.558,-0.805,-0.645
4.561,-0.730,-0.640
4.564,-0.635,-0.645
4.567,-0.500,-0.645
4.569,-0.365,-0.665
4.572,-0.240,-0.675
4.575,-0.130,-0.695
4.578,-0.060,-0.710
4.581,-0.070,-0.710
4.583,-0.165,-0.745
4.586,-0.315,-0.765
4.589,-0.475,-0.775
4.592,-0.655,-0.760
4.594,-0.845,-0.740
4.597,-1.010,-0.675
4.600,-1.125,-0.605
4.603,-1.175,-0.510
4.606,-1.175,-0.405
4.608,-1.140,-0.340
4.611,-1.100,-0.325
4.614,-1.070,-0.375
4.617,-1.045,-0.445
4.619,-1.035,-0.510
4.622,-1.035,-0.585
4.625,-1.045,-0.615
4.628,-1.055,-0.640
4.631,-1.065,-0.640
4.633,-1.055,-0.635
4.636,-1.055,-0.635
4.639,-1.035,-0.635
4.642,-1.030,-0.640
4.644,-1.040,-0.630
4.647,-1.035,-0.630
4.650,-1.045,-0.655
4.653,-1.045,-0.665
4.656,-1.070,-0.665
4.658,-1.060,-0.660
4.661,-1.065,-0.655
4.664,-1.075,-0.645
4.667,-1.055,-0.640
4.669,-1.045,-0.630
4.672,-1.060,-0.625
4.675,-1.065,-0.635
4.678,-1.050,-0.650
4.681,-1.055,-0.645
4.683,-1.070,-0.655
4.686,-1.090,-0.650
4.689,-1.085,-0.660
4.692,-1.085,-0.665
4.694,-1.080,-0.655
4.697,-1.085,-0.645
4.700,-1.070,-0.640
4.703,-1.065,-0.635
4.706,-1.055,-0.635
4.708,-1.070,-0.635
4.711,-1.080,-0.640
4.714,-1.085,-0.655
4.717,-1.090,-0.650
4.719,-1.100,-0.675
4.722,-1.110,-0.675
4.725,-1.105,-0.665
4.728,-1.115,-0.665
4.731,-1.115,-0.655
4.733,-1.105,-0.650
4.736,-1.100,-0.650
4.739,-1.105,-0.625
4.742,-1.110,-0.645
4.744,-1.120,-0.650
4.747,-1.130,-0.655
4.750,-1.135,-0.655
4.753,-1.145,-0.665
4.756,-1.160,-0.660
4.758,-1.155,-0.660
4.761,-1.150,-0.670
4.764,-1.140,-0.655
4.767,-1.140,-0.660
4.769,-1.145,-0.645
4.772,-1.140,-0.640
4.775,-1.145,-0.660
4.778,-1.150,-0.665
4.781,-1.165,-0.670
4.783,-1.185,-0.670
4.786,-1.190,-0.680
4.789,-1.200,-0.690
4.792,-1.200,-0.685
4.794,-1.205,-0.675
4.797,-1.205,-0.670
4.800,-1.190,-0.670
4.803,-1.185,-0.665
4.806,-1.175,-0.675
4.808,-1.180,-0.665
4.811,-1.185,-0.670
4.814,-1.190,-0.680
4.817,-1.190,-0.690
4.819,-1.185,-0.695
4.822,-1.190,-0.710
4.825,-1.190,-0.700
4.828,-1.185,-0.695
4.831,-1.170,-0.695
4.833,-1.165,-0.680
4.836,-1.150,-0.660
4.839,-1.135,-0.660
4.842,-1.130,-0.660
4.844,-1.120,-0.670
4.847,-1.110,-0.675
4.850,-1.105,-0.680
4.853,-1.100,-0.685
4.856,-1.095,-0.690
4.858,-1.080,-0.700
4.861,-1.060,-0.695
4.864,-1.030,-0.700
4.867,-1.010,-0.690
4.869,-0.985,-0.685
4.872,-0.960,-0.690
4.875,-0.945,-0.685
4.878,-0.920,-0.685
4.881,-0.900,-0.700
4.883,-0.885,-0.710
4.886,-0.880,-0.705
4.889,-0.875,-0.715
4.892,-0.865,-0.695
4.894,-0.850,-0.710
4.897,-0.835,-0.690
4.900,-0.825,-0.685
4.903,-0.795,-0.675
4.906,-0.800,-0.665
4.908,-0.795,-0.665
4.911,-0.800,-0.670
4.914,-0.805,-0.670
4.917,-0.800,-0.670
4.919,-0.810,-0.670
4.922,-0.840,-0.670
4.925,-0.825,-0.660
4.928,-0.835,-0.640
4.931,-0.830,-0.635
4.933,-0.830,-0.620
4.936,-0.825,-0.615
4.939,-0.825,-0.610
4.942,-0.835,-0.615
4.944,-0.835,-0.615
4.947,-0.835,-0.630
4.950,-0.840,-0.635
4.953,-0.855,-0.635
4.956,-0.865,-0.655
4.958,-0.865,-0.650
4.961,-0.865,-0.650
4.964,-0.865,-0.645
4.967,-0.855,-0.635
4.969,-0.855,-0.625
4.972,-0.850,-0.615
4.975,-0.855,-0.615
4.978,-0.870,-0.630
4.981,-0.870,-0.640
4.983,-0.870,-0.645
4.986,-0.875,-0.650
4.989,-0.895,-0.655
4.992,-0.895,-0.650
4.994,-0.905,-0.655
4.997,-0.905,-0.650
5.000,-0.905,-0.635
5.003,-0.895,-0.625
5.006,-0.890,-0.630
5.008,-0.885,-0.635
5.011,-0.885,-0.625
5.014,-0.890,-0.650
5.017,-0.905,-0.635
5.019,-0.915,-0.655
5.022,-0.920,-0.655
5.025,-0.915,-0.645
5.028,-0.900,-0.640
5.031,-0.895,-0.625
5.033,-0.890,-0.615
5.036,-0.885,-0.630
5.039,-0.885,-0.625
5.042,-0.880,-0.615
5.044,-0.890,-0.630
5.047,-0.885,-0.625
5.050,-0.895,-0.635
5.053,-0.890,-0.650
5.056,-0.895,-0.650
5.058,-0.890,-0.650
5.061,-0.875,-0.630
5.064,-0.865,-0.615
5.067,-0.855,-0.630
5.069,-0.845,-0.605
5.072,-0.840,-0.600
5.075,-0.830,-0.585
5.078,-0.825,-0.600
5.081,-0.840,-0.610
5.083,-0.840,-0.600
5.086,-0.850,-0.610
5.089,-0.845,-0.630
5.092,-0.835,-0.635
5.094,-0.815,-0.625
5.097,-0.805,-0.620
5.100,-0.790,-0.620
5.103,-0.775,-0.630
5.106,-0.770,-0.610
5.108,-0.765,-0.625
5.111,-0.780,-0.630
5.114,-0.795,-0.645
5.117,-0.815,-0.655
5.119,-0.835,-0.685
5.122,-0.845,-0.675
5.125,-0.850,-0.690
5.128,-0.865,-0.685
5.131,-0.865,-0.680
5.133,-0.870,-0.675
5.136,-0.875,-0.660
5.139,-0.895,-0.655
5.142,-0.905,-0.640
5.144,-0.905,-0.640
5.147,-0.910,-0.640
5.150,-0.935,-0.625
5.153,-0.955,-0.630
5.156,-0.970,-0.635
5.158,-0.975,-0.645
5.161,-0.980,-0.630
5.164,-0.970,-0.640
5.167,-0.970,-0.630
5.169,-0.960,-0.630
5.172,-0.965,-0.620
5.175,-0.965,-0.630
5.178,-0.960,-0.620
5.181,-0.965,-0.640
5.183,-0.970,-0.630
5.186,-0.985,-0.650
5.189,-0.990,-0.665
5.192,-0.990,-0.660
5.194,-1.000,-0.650
5.197,-0.990,-0.640
5.200,-0.995,-0.625
5.203,-0.985,-0.620
5.206,-0.965,-0.615
5.208,-0.955,-0.620
5.211,-0.965,-0.615
5.214,-0.960,-0.615
5.217,-0.975,-0.635
5.219,-0.980,-0.620
5.222,-0.980,-0.635
5.225,-0.980,-0.625
5.228,-0.950,-0.625
5.231,-0.915,-0.600
5.233,-0.850,-0.600
5.236,-0.775,-0.610
5.239,-0.670,-0.620
5.242,-0.540,-0.640
5.244,-0.390,-0.670
5.247,-0.260,-0.690
5.250,-0.160,-0.720
5.253,-0.120,-0.740
5.256,-0.150,-0.730
5.258,-0.255,-0.750
5.261,-0.370,-0.755
5.264,-0.505,-0.760
5.267,-0.615,-0.755
5.269,-0.755,-0.740
5.272,-0.880,-0.715
5.275,-1.025,-0.670
5.278,-1.135,-0.625
5.281,-1.195,-0.550
5.283,-1.210,-0.455
5.286,-1.185,-0.390
5.289,-1.165,-0.345
5.292,-1.125,-0.360
5.294,-1.100,-0.395
5.297,-1.080,-0.465
5.300,-1.065,-0.515
5.303,-1.070,-0.545
5.306,-1.075,-0.570
5.308,-1.080,-0.595
5.311,-1.100,-0.610
5.314,-1.095,-0.615
5.317,-1.090,-0.645
5.319,-1.090,-0.640
5.322,-1.090,-0.645
5.325,-1.090,-0.660
5.328,-1.095,-0.655
5.331,-1.095,-0.645
5.333,-1.085,-0.625
5.336,-1.090,-0.625
5.339,-1.100,-0.620
5.342,-1.095,-0.635
5.344,-1.105,-0.640
5.347,-1.100,-0.655
5.350,-1.095,-0.670
5.353,-1.105,-0.675
5.356,-1.120,-0.680
5.358,-1.115,-0.680
5.361,-1.115,-0.670
5.364,-1.110,-0.675
5.367,-1.110,-0.660
5.369,-1.110,-0.645
5.372,-1.115,-0.655
5.375,-1.105,-0.645
5.378,-1.105,-0.645
5.381,-1.110,-0.655
5.383,-1.115,-0.665
5.386,-1.120,-0.665
5.389,-1.135,-0.670
5.392,-1.140,-0.655
5.394,-1.145,-0.660
5.397,-1.140,-0.660
5.400,-1.135,-0.640
5.403,-1.130,-0.645
5.406,-1.140,-0.625
5.408,-1.130,-0.635
5.411,-1.125,-0.635
5.414,-1.125,-0.650
5.417,-1.145,-0.655
5.419,-1.160,-0.665
5.422,-1.165,-0.665
5.425,-1.170,-0.685
5.428,-1.175,-0.665
5.431,-1.165,-0.655
5.433,-1.165,-0.650
5.436,-1.170,-0.645
5.439,-1.155,-0.640
5.442,-1.165,-0.655
5.444,-1.175,-0.660
5.447,-1.180,-0.670
5.450,-1.200,-0.675
5.453,-1.210,-0.685
5.456,-1.215,-0.695
5.458,-1.235,-0.695
5.461,-1.235,-0.685
5.464,-1.230,-0.680
5.467,-1.230,-0.670
5.469,-1.225,-0.665
5.472,-1.205,-0.660
5.475,-1.225,-0.655
5.478,-1.230,-0.665
5.481,-1.240,-0.680
5.483,-1.240,-0.670
5.486,-1.250,-0.680
5.489,-1.245,-0.680
5.492,-1.255,-0.675
5.494,-1.255,-0.680
5.497,-1.250,-0.670
5.500,-1.245,-0.675
5.503,-1.240,-0.665
5.506,-1.240,-0.645
5.508,-1.230,-0.650
5.511,-1.230,-0.665
5.514,-1.255,-0.680
5.517,-1.235,-0.685
5.519,-1.235,-0.690
5.522,-1.235,-0.690
5.525,-1.235,-0.690
5.528,-1.225,-0.685
5.531,-1.205,-0.680
5.533,-1.190,-0.680
5.536,-1.180,-0.680
5.539,-1.160,-0.670
5.542,-1.145,-0.680
5.544,-1.145,-0.690
5.547,-1.130,-0.675
5.550,-1.135,-0.690
5.553,-1.125,-0.705
5.556,-1.105,-0.695
5.558,-1.090,-0.705
5.561,-1.070,-0.705
5.564,-1.040,-0.685
5.567,-1.010,-0.685
5.569,-0.980,-0.675
5.572,-0.965,-0.660
5.575,-0.955,-0.665
5.578,-0.940,-0.670
5.581,-0.930,-0.675
5.583,-0.930,-0.690
5.586,-0.930,-0.675
5.589,-0.930,-0.690
5.592,-0.930,-0.680
5.594,-0.915,-0.665
5.597,-0.910,-0.645
5.600,-0.900,-0.655
5.603,-0.905,-0.645
5.606,-0.890,-0.625
5.608,-0.890,-0.630
5.611,-0.890,-0.635
5.614,-0.905,-0.640
5.617,-0.920,-0.640
5.619,-0.925,-0.655
5.622,-0.925,-0.655
5.625,-0.945,-0.655
5.628,-0.940,-0.655
5.631,-0.940,-0.650
5.633,-0.940,-0.630
5.636,-0.950,-0.630
5.639,-0.930,-0.625
5.642,-0.920,-0.625
5.644,-0.945,-0.635
5.647,-0.935,-0.625
5.650,-0.960,-0.640
5.653,-0.970,-0.645
5.656,-0.980,-0.655
5.658,-0.985,-0.650
5.661,-0.980,-0.640
5.664,-0.970,-0.630
5.667,-0.955,-0.625
5.669,-0.955,-0.625
5.672,-0.945,-0.605
5.675,-0.965,-0.610
5.678,-0.970,-0.625
5.681,-0.980,-0.640
5.683,-0.985,-0.645
5.686,-0.995,-0.645
5.689,-1.005,-0.655
5.692,-1.015,-0.650
5.694,-0.985,-0.645
5.697,-0.985,-0.650
5.700,-0.980,-0.640
5.703,-0.980,-0.635
5.706,-0.970,-0.625
5.708,-0.980,-0.645
5.711,-0.975,-0.645
5.714,-0.980,-0.650
5.717,-0.990,-0.655
5.719,-0.985,-0.650
5.722,-0.995,-0.660
5.725,-0.995,-0.670
5.728,-1.000,-0.660
5.731,-1.000,-0.640
5.733,-1.000,-0.640
5.736,-1.000,-0.640
5.739,-0.990,-0.635
5.742,-0.980,-0.635
5.744,-0.975,-0.640
5.747,-0.980,-0.635
5.750,-0.990,-0.650
5.753,-0.985,-0.640
5.756,-0.990,-0.650
5.758,-0.985,-0.660
5.761,-0.990,-0.645
5.764,-0.975,-0.635
5.767,-0.970,-0.625
5.769,-0.965,-0.625
5.772,-0.940,-0.615
5.775,-0.930,-0.620
5.778,-0.915,-0.615
5.781,-0.925,-0.610
5.783,-0.910,-0.620
5.786,-0.905,-0.615
5.789,-0.915,-0.625
5.792,-0.925,-0.615
5.794,-0.920,-0.610
5.797,-0.915,-0.615
5.800,-0.905,-0.600
5.803,-0.915,-0.595
5.806,-0.910,-0.600
5.808,-0.900,-0.615
5.811,-0.905,-0.625
5.814,-0.905,-0.635
5.817,-0.885,-0.660
5.819,-0.880,-0.655
5.822,-0.875,-0.660
5.825,-0.880,-0.670
5.828,-0.890,-0.670
5.831,-0.905,-0.655
5.833,-0.935,-0.660
5.836,-0.945,-0.650
5.839,-0.950,-0.650
5.842,-0.945,-0.650
5.844,-0.950,-0.680
5.847,-0.945,-0.670
5.850,-0.965,-0.675
5.853,-0.980,-0.675
5.856,-1.000,-0.670
5.858,-1.025,-0.670
5.861,-1.045,-0.640
5.864,-1.050,-0.635
5.867,-1.050,-0.610
5.869,-1.045,-0.605
5.872,-1.045,-0.605
5.875,-1.035,-0.605
5.878,-1.050,-0.625
5.881,-1.045,-0.625
5.883,-1.050,-0.635
5.886,-1.060,-0.635
5.889,-1.070,-0.640
5.892,-1.070,-0.645
5.894,-1.065,-0.655
5.897,-1.065,-0.635
5.900,-1.050,-0.640
5.903,-1.045,-0.630
5.906,-1.035,-0.625
5.908,-1.030,-0.620
5.911,-1.035,-0.630
5.914,-1.040,-0.635
5.917,-1.045,-0.630
5.919,-1.055,-0.640
5.922,-1.055,-0.635
5.925,-1.050,-0.640
5.928,-1.040,-0.625
5.931,-1.040,-0.610
5.933,-1.025,-0.590
5.936,-1.000,-0.585
5.939,-0.960,-0.580
5.942,-0.915,-0.585
5.944,-0.860,-0.600
5.947,-0.765,-0.625
5.950,-0.665,-0.645
5.953,-0.565,-0.665
5.956,-0.435,-0.690
5.958,-0.330,-0.710
5.961,-0.255,-0.710
5.964,-0.240,-0.715
5.967,-0.295,-0.715
5.969,-0.395,-0.720
5.972,-0.510,-0.720
5.975,-0.625,-0.730
5.978,-0.770,-0.720
5.981,-0.910,-0.720
5.983,-1.070,-0.680
5.986,-1.195,-0.645
5.989,-1.275,-0.570
5.992,-1.285,-0.470
5.994,-1.270,-0.370
5.997,-1.230,-0.310
6.000,-1.220,-0.285
6.003,-1.200,-0.330
6.006,-1.170,-0.380
6.008,-1.165,-0.455
6.011,-1.165,-0.525
6.014,-1.165,-0.570
6.017,-1.170,-0.625
6.019,-1.160,-0.630
6.022,-1.165,-0.635
6.025,-1.160,-0.650
6.028,-1.165,-0.630
6.031,-1.160,-0.625
6.033,-1.155,-0.620
6.036,-1.160,-0.605
6.039,-1.155,-0.615
6.042,-1.145,-0.605
6.044,-1.150,-0.620
6.047,-1.165,-0.625
6.050,-1.170,-0.640
6.053,-1.170,-0.635
6.056,-1.170,-0.650
6.058,-1.185,-0.655
6.061,-1.180,-0.650
6.064,-1.185,-0.650
6.067,-1.185,-0.640
6.069,-1.185,-0.645
6.072,-1.185,-0.630
6.075,-1.180,-0.640
6.078,-1.175,-0.650
6.081,-1.175,-0.650
6.083,-1.185,-0.655
6.086,-1.190,-0.660
6.089,-1.205,-0.655
6.092,-1.210,-0.665
6.094,-1.205,-0.660
6.097,-1.200,-0.655
6.100,-1.205,-0.650
6.103,-1.200,-0.635
6.106,-1.200,-0.630
6.108,-1.195,-0.640
6.111,-1.200,-0.630
6.114,-1.200,-0.640
6.117,-1.210,-0.650
6.119,-1.225,-0.665
6.122,-1.230,-0.665
6.125,-1.225,-0.660
6.128,-1.240,-0.670
6.131,-1.230,-0.660
6.133,-1.230,-0.640
6.136,-1.225,-0.640
6.139,-1.220,-0.635
6.142,-1.210,-0.645
6.144,-1.230,-0.645
6.147,-1.240,-0.665
6.150,-1.235,-0.665
6.153,-1.265,-0.675
6.156,-1.265,-0.670
6.158,-1.265,-0.685
6.161,-1.265,-0.685
6.164,-1.260,-0.680
6.167,-1.255,-0.670
6.169,-1.260,-0.660
6.172,-1.250,-0.665
6.175,-1.250,-0.665
6.178,-1.260,-0.660
6.181,-1.260,-0.675
6.183,-1.265,-0.680
6.186,-1.265,-0.685
6.189,-1.280,-0.690
6.192,-1.270,-0.690
6.194,-1.280,-0.670
6.197,-1.265,-0.675
6.200,-1.270,-0.670
6.203,-1.270,-0.665
6.206,-1.265,-0.650
6.208,-1.250,-0.660
6.211,-1.255,-0.660
6.214,-1.240,-0.680
6.217,-1.235,-0.685
6.219,-1.245,-0.695
6.222,-1.235,-0.690
6.225,-1.235,-0.690
6.228,-1.235,-0.700
6.231,-1.215,-0.680
6.233,-1.200,-0.680
6.236,-1.180,-0.675
6.239,-1.155,-0.665
6.242,-1.135,-0.685
6.244,-1.130,-0.685
6.247,-1.105,-0.695
6.250,-1.095,-0.705
6.253,-1.080,-0.710
6.256,-1.065,-0.715
6.258,-1.040,-0.720
6.261,-1.030,-0.715
6.264,-1.000,-0.705
6.267,-0.975,-0.705
6.269,-0.950,-0.700
6.272,-0.930,-0.670
6.275,-0.915,-0.680
6.278,-0.905,-0.680
6.281,-0.915,-0.690
6.283,-0.910,-0.690
6.286,-0.910,-0.680
6.289,-0.905,-0.680
6.292,-0.925,-0.670
6.294,-0.920,-0.665
6.297,-0.910,-0.655
6.300,-0.905,-0.655
6.303,-0.900,-0.635
6.306,-0.895,-0.630
6.308,-0.905,-0.630
6.311,-0.905,-0.640
6.314,-0.915,-0.635
6.317,-0.925,-0.645
6.319,-0.925,-0.655
6.322,-0.935,-0.655
6.325,-0.945,-0.660
6.328,-0.940,-0.655
6.331,-0.950,-0.635
6.333,-0.950,-0.635
6.336,-0.940,-0.630
6.339,-0.930,-0.615
6.342,-0.930,-0.615
6.344,-0.930,-0.630
6.347,-0.945,-0.630
6.350,-0.950,-0.650
6.353,-0.950,-0.645
6.356,-0.960,-0.645
6.358,-0.970,-0.650
6.361,-0.970,-0.650
6.364,-0.965,-0.645
6.367,-0.955,-0.620
6.369,-0.955,-0.610
6.372,-0.965,-0.615
6.375,-0.960,-0.615
6.378,-0.965,-0.625
6.381,-0.955,-0.625
6.383,-0.965,-0.630
6.386,-0.970,-0.645
6.389,-0.975,-0.645
6.392,-0.985,-0.645
6.394,-0.985,-0.645
6.397,-0.980,-0.640
6.400,-0.975,-0.635
6.403,-0.970,-0.620
6.406,-0.965,-0.610
6.408,-0.955,-0.625
6.411,-0.965,-0.630
6.414,-0.965,-0.630
6.417,-0.970,-0.640
6.419,-0.990,-0.650
6.422,-0.990,-0.660
6.425,-0.985,-0.670
6.428,-0.990,-0.660
6.431,-0.990,-0.650
6.433,-0.980,-0.640
6.436,-0.975,-0.635
6.439,-0.970,-0.635
6.442,-0.965,-0.635
6.444,-0.960,-0.630
6.447,-0.960,-0.630
6.450,-0.970,-0.640
6.453,-0.960,-0.640
6.456,-0.950,-0.635
6.458,-0.960,-0.640
6.461,-0.925,-0.635
6.464,-0.905,-0.615
6.467,-0.895,-0.615
6.469,-0.875,-0.600
6.472,-0.865,-0.595
6.475,-0.850,-0.595
6.478,-0.850,-0.595
6.481,-0.875,-0.605
6.483,-0.880,-0.615
6.486,-0.885,-0.620
6.489,-0.900,-0.630
6.492,-0.890,-0.635
6.494,-0.880,-0.645
6.497,-0.865,-0.625
6.500,-0.840,-0.635
6.503,-0.835,-0.635
6.506,-0.825,-0.625
6.508,-0.830,-0.640
6.511,-0.860,-0.650
6.514,-0.875,-0.655
6.517,-0.905,-0.680
6.519,-0.915,-0.690
6.522,-0.920,-0.700
6.525,-0.930,-0.700
6.528,-0.925,-0.700
6.531,-0.930,-0.695
6.533,-0.930,-0.680
6.536,-0.930,-0.670
6.539,-0.935,-0.645
6.542,-0.940,-0.635
6.544,-0.965,-0.625
6.547,-0.975,-0.620
6.550,-0.995,-0.615
6.553,-1.000,-0.630
6.556,-1.005,-0.625
6.558,-1.015,-0.640
6.561,-1.015,-0.645
6.564,-1.015,-0.630
6.567,-1.010,-0.615
6.569,-1.005,-0.610
6.572,-0.990,-0.600
6.575,-0.980,-0.600
6.578,-0.985,-0.605
6.581,-0.980,-0.615
6.583,-0.980,-0.620
6.586,-0.995,-0.630
6.589,-0.985,-0.635
6.592,-0.990,-0.630
6.594,-0.985,-0.625
6.597,-0.985,-0.615
6.600,-0.985,-0.610
6.603,-0.985,-0.605
6.606,-0.975,-0.605
6.608,-0.975,-0.605
6.611,-0.970,-0.615
6.614,-0.970,-0.605
6.617,-0.970,-0.610
6.619,-0.980,-0.615
6.622,-0.955,-0.610
6.625,-0.920,-0.605
6.628,-0.850,-0.615
6.631,-0.750,-0.620
6.633,-0.625,-0.630
6.636,-0.480,-0.650
6.639,-0.340,-0.670
6.642,-0.220,-0.690
6.644,-0.195,-0.690
6.647,-0.215,-0.725
6.650,-0.315,-0.735
6.653,-0.460,-0.760
6.656,-0.605,-0.765
6.658,-0.775,-0.755
6.661,-0.950,-0.725
6.664,-1.100,-0.670
6.667,-1.220,-0.600
6.669,-1.250,-0.490
6.672,-1.260,-0.385
6.675,-1.230,-0.310
6.678,-1.190,-0.290
6.681,-1.145,-0.325
6.683,-1.125,-0.395
6.686,-1.110,-0.480
6.689,-1.120,-0.540
6.692,-1.135,-0.590
6.694,-1.115,-0.605
6.697,-1.100,-0.610
6.700,-1.085,-0.600
6.703,-1.065,-0.605
6.706,-1.050,-0.600
6.708,-1.050,-0.600
6.711,-1.050,-0.600
6.714,-1.055,-0.610
6.717,-1.060,-0.605
6.719,-1.075,-0.615
6.722,-1.075,-0.630
6.725,-1.090,-0.625
6.728,-1.085,-0.620
6.731,-1.080,-0.610
6.733,-1.060,-0.610
6.736,-1.060,-0.605
6.739,-1.050,-0.595
6.742,-1.055,-0.590
6.744,-1.050,-0.595
6.747,-1.055,-0.595
6.750,-1.055,-0.610
6.753,-1.070,-0.605
6.756,-1.085,-0.625
6.758,-1.080,-0.620
6.761,-1.085,-0.625
6.764,-1.070,-0.615
6.767,-1.070,-0.610
6.769,-1.055,-0.605
6.772,-1.055,-0.590
6.775,-1.050,-0.605
6.778,-1.060,-0.610
6.781,-1.060,-0.615
6.783,-1.065,-0.630
6.786,-1.085,-0.625
6.789,-1.090,-0.630
6.792,-1.090,-0.635
6.794,-1.085,-0.630
6.797,-1.085,-0.620
6.800,-1.080,-0.620
6.803,-1.090,-0.625
6.806,-1.080,-0.605
6.808,-1.070,-0.605
6.811,-1.090,-0.595
6.814,-1.095,-0.620
6.817,-1.105,-0.610
6.819,-1.115,-0.620
6.822,-1.125,-0.615
6.825,-1.125,-0.625
6.828,-1.130,-0.640
6.831,-1.120,-0.620
6.833,-1.125,-0.615
6.836,-1.115,-0.615
6.839,-1.115,-0.605
6.842,-1.115,-0.605
6.844,-1.120,-0.620
6.847,-1.120,-0.620
6.850,-1.130,-0.625
6.853,-1.130,-0.635
6.856,-1.140,-0.640
6.858,-1.150,-0.655
6.861,-1.150,-0.650
6.864,-1.145,-0.650
6.867,-1.135,-0.640
6.869,-1.140,-0.625
6.872,-1.140,-0.635
6.875,-1.130,-0.635
6.878,-1.120,-0.640
6.881,-1.130,-0.645
6.883,-1.125,-0.660
6.886,-1.130,-0.650
6.889,-1.130,-0.670
6.892,-1.135,-0.670
6.894,-1.140,-0.660
6.897,-1.130,-0.660
6.900,-1.115,-0.640
6.903,-1.115,-0.645
6.906,-1.080,-0.645
6.908,-1.075,-0.640
6.911,-1.080,-0.645
6.914,-1.070,-0.640
6.917,-1.070,-0.655
6.919,-1.045,-0.660
6.922,-1.045,-0.655
6.925,-1.035,-0.680
6.928,-1.020,-0.660
6.931,-0.995,-0.655
6.933,-0.970,-0.650
6.936,-0.950,-0.660
6.939,-0.920,-0.660
6.942,-0.895,-0.650
6.944,-0.875,-0.660
6.947,-0.865,-0.665
6.950,-0.840,-0.675
6.953,-0.855,-0.690
6.956,-0.845,-0.685
6.958,-0.835,-0.675
6.961,-0.820,-0.675
6.964,-0.810,-0.660
6.967,-0.790,-0.645
6.969,-0.780,-0.635
6.972,-0.770,-0.635
6.975,-0.770,-0.620
6.978,-0.775,-0.635
6.981,-0.790,-0.630
6.983,-0.790,-0.625
6.986,-0.805,-0.625
6.989,-0.810,-0.630
6.992,-0.805,-0.620
6.994,-0.810,-0.610
6.997,-0.810,-0.610
7.000,-0.800,-0.585
7.003,-0.805,-0.580
7.006,-0.790,-0.585
7.008,-0.785,-0.585
7.011,-0.805,-0.580
7.014,-0.815,-0.595
7.017,-0.825,-0.600
7.019,-0.830,-0.615
7.022,-0.830,-0.625
7.025,-0.840,-0.635
7.028,-0.850,-0.630
7.031,-0.840,-0.605
7.033,-0.845,-0.610
7.036,-0.845,-0.595
7.039,-0.845,-0.575
7.042,-0.835,-0.580
7.044,-0.845,-0.585
7.047,-0.845,-0.595
7.050,-0.850,-0.615
7.053,-0.860,-0.620
7.056,-0.870,-0.615
7.058,-0.870,-0.620
7.061,-0.880,-0.620
7.064,-0.870,-0.625
7.067,-0.860,-0.620
7.069,-0.865,-0.615
7.072,-0.855,-0.605
7.075,-0.855,-0.600
7.078,-0.855,-0.610
7.081,-0.865,-0.605
7.083,-0.870,-0.610
7.086,-0.880,-0.615
7.089,-0.875,-0.635
7.092,-0.885,-0.625
7.094,-0.885,-0.630
7.097,-0.870,-0.620
7.100,-0.870,-0.615
7.103,-0.865,-0.610
7.106,-0.850,-0.610
7.108,-0.835,-0.595
7.111,-0.845,-0.610
7.114,-0.845,-0.615
7.117,-0.840,-0.620
7.119,-0.835,-0.625
7.122,-0.840,-0.625
7.125,-0.830,-0.635
7.128,-0.820,-0.625
7.131,-0.820,-0.605
7.133,-0.810,-0.600
7.136,-0.800,-0.595
7.139,-0.785,-0.570
7.142,-0.785,-0.580
7.144,-0.795,-0.590
7.147,-0.790,-0.600
7.150,-0.785,-0.605
7.153,-0.785,-0.620
7.156,-0.775,-0.630
7.158,-0.765,-0.625
7.161,-0.745,-0.635
7.164,-0.740,-0.625
7.167,-0.735,-0.615
7.169,-0.750,-0.620
7.172,-0.750,-0.620
7.175,-0.765,-0.630
7.178,-0.775,-0.630
7.181,-0.785,-0.650
7.183,-0.790,-0.650
7.186,-0.810,-0.670
7.189,-0.810,-0.660
7.192,-0.820,-0.670
7.194,-0.840,-0.660
7.197,-0.850,-0.635
7.200,-0.855,-0.625
7.203,-0.865,-0.615
7.206,-0.875,-0.605
7.208,-0.880,-0.590
7.211,-0.880,-0.600
7.214,-0.900,-0.595
7.217,-0.900,-0.625
7.219,-0.915,-0.620
7.222,-0.930,-0.630
7.225,-0.925,-0.645
7.228,-0.935,-0.625
7.231,-0.930,-0.625
7.233,-0.925,-0.625
7.236,-0.925,-0.620
7.239,-0.915,-0.605
7.242,-0.915,-0.610
7.244,-0.920,-0.610
7.247,-0.910,-0.615
7.250,-0.915,-0.620
7.253,-0.930,-0.620
7.256,-0.935,-0.625
7.258,-0.945,-0.635
7.261,-0.930,-0.630
7.264,-0.930,-0.615
7.267,-0.915,-0.610
7.269,-0.895,-0.600
7.272,-0.895,-0.585
7.275,-0.870,-0.575
7.278,-0.860,-0.590
7.281,-0.850,-0.585
7.283,-0.785,-0.605
7.286,-0.730,-0.625
7.289,-0.660,-0.645
7.292,-0.555,-0.665
7.294,-0.435,-0.670
7.297,-0.325,-0.685
7.300,-0.215,-0.690
7.303,-0.150,-0.695
7.306,-0.135,-0.700
7.308,-0.165,-0.705
7.311,-0.265,-0.720
7.314,-0.390,-0.720
7.317,-0.520,-0.730
7.319,-0.630,-0.715
7.322,-0.775,-0.725
7.325,-0.930,-0.685
7.328,-1.075,-0.620
7.331,-1.165,-0.535
7.333,-1.185,-0.420
7.336,-1.155,-0.295
7.339,-1.130,-0.195
7.342,-1.105,-0.145
7.344,-1.115,-0.185
7.347,-1.125,-0.280
7.350,-1.125,-0.390
7.353,-1.115,-0.480
7.356,-1.100,-0.550
7.358,-1.070,-0.600
7.361,-1.050,-0.625
7.364,-1.025,-0.610
7.367,-1.000,-0.615
7.369,-0.985,-0.600
7.372,-0.990,-0.595
7.375,-0.990,-0.610
7.378,-0.995,-0.615
7.381,-1.000,-0.620
7.383,-1.010,-0.620
7.386,-1.025,-0.635
7.389,-1.035,-0.635
7.392,-1.030,-0.650
7.394,-1.030,-0.640
7.397,-1.040,-0.635
7.400,-1.030,-0.625
7.403,-1.020,-0.635
7.406,-1.015,-0.620
7.408,-1.015,-0.620
7.411,-1.005,-0.640
7.414,-1.010,-0.640
7.417,-1.025,-0.650
7.419,-1.030,-0.655
7.422,-1.035,-0.660
7.425,-1.025,-0.660
7.428,-1.020,-0.640
7.431,-1.025,-0.640
7.433,-1.030,-0.635
7.436,-1.035,-0.625
7.439,-1.025,-0.610
7.442,-1.015,-0.625
7.444,-1.035,-0.625
7.447,-1.035,-0.645
7.450,-1.045,-0.650
7.453,-1.050,-0.650
7.456,-1.065,-0.660
7.458,-1.070,-0.660
7.461,-1.070,-0.650
7.464,-1.065,-0.650
7.467,-1.065,-0.650
7.469,-1.060,-0.645
7.472,-1.050,-0.635
7.475,-1.045,-0.645
7.478,-1.045,-0.645
7.481,-1.055,-0.655
7.483,-1.060,-0.665
7.486,-1.055,-0.675
7.489,-1.075,-0.670
7.492,-1.085,-0.670
7.494,-1.075,-0.670
7.497,-1.060,-0.670
7.500,-1.060,-0.670
7.503,-1.065,-0.665
7.506,-1.060,-0.665
7.508,-1.050,-0.660
7.511,-1.075,-0.675
7.514,-1.070,-0.670
7.517,-1.080,-0.670
7.519,-1.085,-0.665
7.522,-1.095,-0.670
7.525,-1.095,-0.675
7.528,-1.110,-0.685
7.531,-1.115,-0.685
7.533,-1.110,-0.680
7.536,-1.110,-0.665
7.539,-1.100,-0.665
7.542,-1.075,-0.670
7.544,-1.075,-0.665
7.547,-1.080,-0.675
7.550,-1.065,-0.685
7.553,-1.080,-0.705
7.556,-1.075,-0.715
7.558,-1.070,-0.710
7.561,-1.070,-0.710
7.564,-1.065,-0.700
7.567,-1.050,-0.690
7.569,-1.045,-0.685
7.572,-1.030,-0.670
7.575,-1.015,-0.675
7.578,-1.010,-0.670
7.581,-1.030,-0.685
7.583,-1.025,-0.690
7.586,-1.015,-0.700
7.589,-0.995,-0.715
7.592,-0.985,-0.700
7.594,-0.980,-0.705
7.597,-0.950,-0.705
7.600,-0.930,-0.700
7.603,-0.905,-0.705
7.606,-0.880,-0.690
7.608,-0.840,-0.695
7.611,-0.835,-0.690
7.614,-0.830,-0.690
7.617,-0.830,-0.700
7.619,-0.830,-0.700
7.622,-0.825,-0.705
7.625,-0.815,-0.695
7.628,-0.800,-0.685
7.631,-0.780,-0.680
7.633,-0.770,-0.670
7.636,-0.755,-0.650
7.639,-0.740,-0.660
7.642,-0.730,-0.650
7.644,-0.725,-0.645
7.647,-0.730,-0.640
7.650,-0.740,-0.640
7.653,-0.755,-0.645
7.656,-0.760,-0.645
7.658,-0.775,-0.650
7.661,-0.775,-0.640
7.664,-0.780,-0.630
7.667,-0.775,-0.620
7.669,-0.775,-0.615
7.672,-0.790,-0.610
7.675,-0.785,-0.605
7.678,-0.785,-0.610
7.681,-0.795,-0.620
7.683,-0.810,-0.615
7.686,-0.805,-0.625
7.689,-0.810,-0.640
7.692,-0.810,-0.640
7.694,-0.815,-0.635
7.697,-0.825,-0.630
7.700,-0.825,-0.620
7.703,-0.825,-0.610
7.706,-0.820,-0.600
7.708,-0.820,-0.600
7.711,-0.830,-0.600
7.714,-0.820,-0.610
7.717,-0.815,-0.625
7.719,-0.810,-0.625
7.722,-0.820,-0.640
7.725,-0.830,-0.645
7.728,-0.835,-0.640
7.731,-0.840,-0.620
7.733,-0.840,-0.620
7.736,-0.835,-0.625
7.739,-0.820,-0.610
7.742,-0.820,-0.610
7.744,-0.830,-0.605
7.747,-0.830,-0.610
7.750,-0.835,-0.625
7.753,-0.845,-0.630
7.756,-0.845,-0.640
7.758,-0.850,-0.640
7.761,-0.850,-0.640
7.764,-0.855,-0.635
7.767,-0.850,-0.635
7.769,-0.840,-0.620
7.772,-0.835,-0.620
7.775,-0.825,-0.620
7.778,-0.830,-0.625
7.781,-0.840,-0.625
7.783,-0.850,-0.630
7.786,-0.865,-0.635
7.789,-0.885,-0.635
7.792,-0.865,-0.645
7.794,-0.855,-0.640
7.797,-0.855,-0.640
7.800,-0.850,-0.620
7.803,-0.840,-0.610
7.806,-0.840,-0.610
7.808,-0.825,-0.600
7.811,-0.815,-0.595
7.814,-0.805,-0.610
7.817,-0.805,-0.610
7.819,-0.795,-0.615
7.822,-0.805,-0.615
7.825,-0.805,-0.610
7.828,-0.810,-0.595
7.831,-0.825,-0.590
7.833,-0.825,-0.585
7.836,-0.820,-0.580
7.839,-0.820,-0.590
7.842,-0.785,-0.570
7.844,-0.775,-0.590
7.847,-0.765,-0.590
7.850,-0.745,-0.595
7.853,-0.755,-0.615
7.856,-0.750,-0.630
7.858,-0.770,-0.640
7.861,-0.780,-0.645
7.864,-0.780,-0.645
7.867,-0.785,-0.645
7.869,-0.780,-0.635
7.872,-0.795,-0.630
7.875,-0.795,-0.640
7.878,-0.805,-0.650
7.881,-0.820,-0.645
7.883,-0.830,-0.655
7.886,-0.840,-0.655
7.889,-0.860,-0.630
7.892,-0.880,-0.635
7.894,-0.895,-0.630
7.897,-0.905,-0.610
7.900,-0.915,-0.620
7.903,-0.905,-0.605
7.906,-0.910,-0.605
7.908,-0.915,-0.610
7.911,-0.915,-0.620
7.914,-0.930,-0.615
7.917,-0.935,-0.620
7.919,-0.925,-0.630
7.922,-0.945,-0.630
7.925,-0.945,-0.635
7.928,-0.940,-0.620
7.931,-0.945,-0.610
7.933,-0.925,-0.605
7.936,-0.920,-0.615
7.939,-0.920,-0.600
7.942,-0.905,-0.605
7.944,-0.910,-0.610
7.947,-0.915,-0.630
7.950,-0.920,-0.625
7.953,-0.915,-0.630
7.956,-0.920,-0.640
7.958,-0.915,-0.630
7.961,-0.910,-0.625
7.964,-0.905,-0.620
7.967,-0.895,-0.605
7.969,-0.890,-0.590
7.972,-0.880,-0.595
7.975,-0.845,-0.585
7.978,-0.815,-0.585
7.981,-0.765,-0.595
7.983,-0.680,-0.605
7.986,-0.575,-0.630
7.989,-0.450,-0.650
7.992,-0.310,-0.680
7.994,-0.180,-0.690
7.997,-0.085,-0.705
8.000,-0.045,-0.720
8.003,-0.065,-0.720
8.006,-0.160,-0.735
8.008,-0.285,-0.730
8.011,-0.435,-0.735
8.014,-0.585,-0.720
8.017,-0.745,-0.705
8.019,-0.925,-0.675
8.022,-1.105,-0.630
8.025,-1.235,-0.575
8.028,-1.295,-0.460
8.031,-1.270,-0.345
8.033,-1.215,-0.240
8.036,-1.160,-0.180
8.039,-1.155,-0.185
8.042,-1.150,-0.230
8.044,-1.170,-0.340
8.047,-1.150,-0.430
8.050,-1.125,-0.520
8.053,-1.100,-0.570
8.056,-1.070,-0.605
8.058,-1.040,-0.625
8.061,-1.025,-0.635
8.064,-1.025,-0.625
8.067,-1.015,-0.620
8.069,-1.015,-0.625
8.072,-1.010,-0.600
8.075,-1.005,-0.600
8.078,-1.015,-0.590
8.081,-1.015,-0.600
8.083,-1.005,-0.630
8.086,-1.015,-0.635
8.089,-1.025,-0.635
8.092,-1.025,-0.650
8.094,-1.030,-0.640
8.097,-1.035,-0.640
8.100,-1.020,-0.620
8.103,-1.010,-0.615
8.106,-1.015,-0.615
8.108,-1.010,-0.610
8.111,-1.015,-0.620
8.114,-1.005,-0.630
8.117,-1.015,-0.635
8.119,-1.025,-0.645
8.122,-1.030,-0.660
8.125,-1.030,-0.670
8.128,-1.025,-0.660
8.131,-1.035,-0.655
8.133,-1.030,-0.645
8.136,-1.025,-0.640
8.139,-1.035,-0.630
8.142,-1.025,-0.640
8.144,-1.025,-0.640
8.147,-1.030,-0.640
8.150,-1.050,-0.645
8.153,-1.045,-0.645
8.156,-1.060,-0.665
8.158,-1.070,-0.655
8.161,-1.060,-0.655
8.164,-1.065,-0.645
8.167,-1.055,-0.635
8.169,-1.060,-0.645
8.172,-1.045,-0.635
8.175,-1.025,-0.635
8.178,-1.035,-0.640
8.181,-1.035,-0.635
8.183,-1.045,-0.645
8.186,-1.050,-0.660
8.189,-1.065,-0.660
8.192,-1.075,-0.670
8.194,-1.090,-0.665
8.197,-1.095,-0.665
8.200,-1.095,-0.655
8.203,-1.085,-0.655
8.206,-1.085,-0.650
8.208,-1.065,-0.650
8.211,-1.075,-0.655
8.214,-1.080,-0.665
8.217,-1.090,-0.665
8.219,-1.090,-0.680
8.222,-1.095,-0.695
8.225,-1.095,-0.695
8.228,-1.100,-0.690
8.231,-1.090,-0.690
8.233,-1.100,-0.690
8.236,-1.070,-0.675
8.239,-1.070,-0.675
8.242,-1.070,-0.680
8.244,-1.065,-0.665
8.247,-1.065,-0.680
8.250,-1.070,-0.675
8.253,-1.075,-0.685
8.256,-1.075,-0.695
8.258,-1.070,-0.695
8.261,-1.060,-0.695
8.264,-1.050,-0.685
8.267,-1.035,-0.685
8.269,-1.015,-0.675
8.272,-1.010,-0.670
8.275,-0.985,-0.680
8.278,-0.985,-0.675
8.281,-0.965,-0.675
8.283,-0.950,-0.705
8.286,-0.950,-0.710
8.289,-0.930,-0.710
8.292,-0.900,-0.710
8.294,-0.895,-0.700
8.297,-0.865,-0.705
8.300,-0.840,-0.685
8.303,-0.815,-0.680
8.306,-0.785,-0.675
8.308,-0.760,-0.680
8.311,-0.745,-0.660
8.314,-0.755,-0.665
8.317,-0.745,-0.670
8.319,-0.735,-0.675
8.322,-0.730,-0.675
8.325,-0.720,-0.675
8.328,-0.715,-0.665
8.331,-0.710,-0.645
8.333,-0.705,-0.625
8.336,-0.695,-0.620
8.339,-0.705,-0.600
8.342,-0.700,-0.595
8.344,-0.715,-0.615
8.347,-0.705,-0.595
8.350,-0.710,-0.610
8.353,-0.715,-0.610
8.356,-0.725,-0.620
8.358,-0.720,-0.630
8.361,-0.730,-0.620
8.364,-0.740,-0.605
8.367,-0.725,-0.585
8.369,-0.725,-0.590
8.372,-0.730,-0.585
8.375,-0.710,-0.570
8.378,-0.720,-0.595
8.381,-0.720,-0.595
8.383,-0.720,-0.595
8.386,-0.730,-0.595
8.389,-0.735,-0.605
8.392,-0.745,-0.625
8.394,-0.755,-0.620
8.397,-0.750,-0.630
8.400,-0.740,-0.610
8.403,-0.740,-0.605
8.406,-0.740,-0.595
8.408,-0.740,-0.585
8.411,-0.750,-0.600
8.414,-0.735,-0.605
8.417,-0.730,-0.615
8.419,-0.750,-0.615
8.422,-0.765,-0.630
8.425,-0.760,-0.630
8.428,-0.760,-0.625
8.431,-0.760,-0.620
8.433,-0.750,-0.620
8.436,-0.750,-0.610
8.439,-0.745,-0.610
8.442,-0.735,-0.590
8.444,-0.740,-0.610
8.447,-0.730,-0.605
8.450,-0.745,-0.625
8.453,-0.740,-0.620
8.456,-0.750,-0.635
8.458,-0.745,-0.625
8.461,-0.750,-0.620
8.464,-0.755,-0.620
8.467,-0.750,-0.600
8.469,-0.735,-0.605
8.472,-0.725,-0.605
8.475,-0.720,-0.590
8.478,-0.705,-0.590
8.481,-0.720,-0.590
8.483,-0.725,-0.610
8.486,-0.735,-0.610
8.489,-0.735,-0.625
8.492,-0.740,-0.635
8.494,-0.735,-0.620
8.497,-0.715,-0.610
8.500,-0.700,-0.615
8.503,-0.680,-0.605
8.506,-0.680,-0.585
8.508,-0.670,-0.570
8.511,-0.670,-0.570
8.514,-0.665,-0.555
8.517,-0.680,-0.575
8.519,-0.690,-0.580
8.522,-0.680,-0.590
8.525,-0.685,-0.600
8.528,-0.675,-0.600
8.531,-0.655,-0.600
8.533,-0.635,-0.600
8.536,-0.615,-0.590
8.539,-0.605,-0.590
8.542,-0.595,-0.595
8.544,-0.600,-0.605
8.547,-0.605,-0.600
8.550,-0.620,-0.605
8.553,-0.635,-0.625
8.556,-0.655,-0.655
8.558,-0.675,-0.640
8.561,-0.675,-0.640
8.564,-0.695,-0.645
8.567,-0.685,-0.635
8.569,-0.680,-0.630
8.572,-0.685,-0.615
8.575,-0.685,-0.610
8.578,-0.700,-0.610
8.581,-0.720,-0.620
8.583,-0.740,-0.610
8.586,-0.755,-0.615
8.589,-0.760,-0.620
8.592,-0.775,-0.620
8.594,-0.795,-0.610
8.597,-0.790,-0.610
8.600,-0.785,-0.610
8.603,-0.775,-0.610
8.606,-0.780,-0.605
8.608,-0.770,-0.585
8.611,-0.775,-0.590
8.614,-0.775,-0.600
8.617,-0.780,-0.590
8.619,-0.790,-0.605
8.622,-0.790,-0.610
8.625,-0.795,-0.615
8.628,-0.805,-0.620
8.631,-0.800,-0.610
8.633,-0.795,-0.585
8.636,-0.775,-0.590
8.639,-0.775,-0.580
8.642,-0.760,-0.575
8.644,-0.770,-0.590
8.647,-0.770,-0.575
8.650,-0.770,-0.580
8.653,-0.775,-0.585
8.656,-0.775,-0.600
8.658,-0.790,-0.595
8.661,-0.780,-0.595
8.664,-0.775,-0.590
8.667,-0.745,-0.570
8.669,-0.675,-0.565
8.672,-0.605,-0.570
8.675,-0.505,-0.585
8.678,-0.370,-0.605
8.681,-0.225,-0.635
8.683,-0.075,-0.660
8.686,0.045,-0.685
8.689,0.095,-0.710
8.692,0.050,-0.725
8.694,-0.070,-0.730
8.697,-0.220,-0.715
8.700,-0.395,-0.700
8.703,-0.600,-0.675
8.706,-0.800,-0.620
8.708,-0.965,-0.550
8.711,-1.060,-0.470
8.714,-1.080,-0.370
8.717,-1.060,-0.260
8.719,-1.045,-0.205
8.722,-1.025,-0.225
8.725,-1.010,-0.295
8.728,-1.000,-0.385
8.731,-0.970,-0.465
8.733,-0.940,-0.525
8.736,-0.915,-0.540
8.739,-0.900,-0.560
8.742,-0.875,-0.565
8.744,-0.860,-0.565
8.747,-0.870,-0.585
8.750,-0.870,-0.590
8.753,-0.865,-0.590
8.756,-0.860,-0.595
8.758,-0.880,-0.610
8.761,-0.875,-0.610
8.764,-0.885,-0.595
8.767,-0.885,-0.590
8.769,-0.875,-0.585
8.772,-0.860,-0.580
8.775,-0.840,-0.595
8.778,-0.850,-0.600
8.781,-0.855,-0.595
8.783,-0.855,-0.600
8.786,-0.865,-0.605
8.789,-0.885,-0.605
8.792,-0.875,-0.610
8.794,-0.885,-0.615
8.797,-0.875,-0.605
8.800,-0.870,-0.600
8.803,-0.865,-0.590
8.806,-0.860,-0.585
8.808,-0.865,-0.585
8.811,-0.870,-0.585
8.814,-0.870,-0.585
8.817,-0.870,-0.595
8.819,-0.880,-0.605
8.822,-0.885,-0.615
8.825,-0.890,-0.605
8.828,-0.885,-0.620
8.831,-0.885,-0.615
8.833,-0.895,-0.600
8.836,-0.890,-0.600
8.839,-0.890,-0.590
8.842,-0.885,-0.585
8.844,-0.880,-0.600
8.847,-0.885,-0.605
8.850,-0.890,-0.625
8.853,-0.900,-0.630
8.856,-0.905,-0.635
8.858,-0.910,-0.640
8.861,-0.920,-0.630
8.864,-0.920,-0.630
8.867,-0.920,-0.615
8.869,-0.930,-0.610
8.872,-0.915,-0.615
8.875,-0.905,-0.605
8.878,-0.905,-0.620
8.881,-0.910,-0.615
8.883,-0.905,-0.625
8.886,-0.925,-0.625
8.889,-0.940,-0.635
8.892,-0.940,-0.635
8.894,-0.950,-0.640
8.897,-0.950,-0.635
8.900,-0.945,-0.625
8.903,-0.940,-0.625
8.906,-0.940,-0.620
8.908,-0.950,-0.620
8.911,-0.940,-0.615
8.914,-0.960,-0.615
8.917,-0.960,-0.625
8.919,-0.965,-0.640
8.922,-0.975,-0.650
8.925,-0.965,-0.660
8.928,-0.975,-0.665
8.931,-0.970,-0.645
8.933,-0.965,-0.635
8.936,-0.945,-0.645
8.939,-0.935,-0.635
8.942,-0.935,-0.640
8.944,-0.925,-0.635
8.947,-0.925,-0.645
8.950,-0.925,-0.665
8.953,-0.935,-0.660
8.956,-0.935,-0.670
8.958,-0.945,-0.675
8.961,-0.940,-0.665
8.964,-0.925,-0.655
8.967,-0.910,-0.660
8.969,-0.865,-0.655
8.972,-0.850,-0.640
8.975,-0.830,-0.620
8.978,-0.815,-0.625
8.981,-0.795,-0.630
8.983,-0.775,-0.650
8.986,-0.765,-0.655
8.989,-0.740,-0.665
8.992,-0.730,-0.670
8.994,-0.705,-0.675
8.997,-0.690,-0.660
9.000,-0.660,-0.640
9.003,-0.640,-0.645
9.006,-0.610,-0.625
9.008,-0.600,-0.615
9.011,-0.590,-0.630
9.014,-0.585,-0.615
9.017,-0.575,-0.625
9.019,-0.580,-0.630
9.022,-0.570,-0.625
9.025,-0.580,-0.640
9.028,-0.585,-0.620
9.031,-0.580,-0.625
9.033,-0.575,-0.610
9.036,-0.565,-0.585
9.039,-0.560,-0.585
9.042,-0.555,-0.570
9.044,-0.560,-0.580
9.047,-0.575,-0.570
9.050,-0.585,-0.580
9.053,-0.590,-0.585
9.056,-0.590,-0.585
9.058,-0.600,-0.585
9.061,-0.620,-0.575
9.064,-0.605,-0.570
9.067,-0.600,-0.545
9.069,-0.605,-0.555
9.072,-0.595,-0.540
9.075,-0.595,-0.540
9.078,-0.595,-0.545
9.081,-0.600,-0.540
9.083,-0.600,-0.560
9.086,-0.605,-0.565
9.089,-0.615,-0.570
9.092,-0.625,-0.570
9.094,-0.620,-0.575
9.097,-0.615,-0.565
9.100,-0.610,-0.560
9.103,-0.610,-0.560
9.106,-0.620,-0.565
9.108,-0.600,-0.550
9.111,-0.605,-0.565
9.114,-0.620,-0.560
9.117,-0.625,-0.570
9.119,-0.630,-0.585
9.122,-0.650,-0.585
9.125,-0.645,-0.590
9.128,-0.660,-0.595
9.131,-0.645,-0.585
9.133,-0.645,-0.585
9.136,-0.630,-0.580
9.139,-0.630,-0.570
9.142,-0.610,-0.575
9.144,-0.620,-0.570
9.147,-0.635,-0.565
9.150,-0.635,-0.570
9.153,-0.650,-0.580
9.156,-0.645,-0.585
9.158,-0.660,-0.595
9.161,-0.650,-0.595
9.164,-0.635,-0.590
9.167,-0.640,-0.590
9.169,-0.640,-0.585
9.172,-0.630,-0.570
9.175,-0.640,-0.565
9.178,-0.625,-0.580
9.181,-0.635,-0.570
9.183,-0.635,-0.575
9.186,-0.630,-0.585
9.189,-0.640,-0.585
9.192,-0.620,-0.595
9.194,-0.630,-0.595
9.197,-0.615,-0.580
9.200,-0.600,-0.570
9.203,-0.580,-0.555
9.206,-0.560,-0.545
9.208,-0.550,-0.540
9.211,-0.540,-0.545
9.214,-0.530,-0.535
9.217,-0.540,-0.535
9.219,-0.550,-0.550
9.222,-0.550,-0.565
9.225,-0.555,-0.570
9.228,-0.555,-0.560
9.231,-0.550,-0.565
9.233,-0.540,-0.570
9.236,-0.525,-0.575
9.239,-0.520,-0.555
9.242,-0.500,-0.555
9.244,-0.495,-0.565
9.247,-0.500,-0.560
9.250,-0.510,-0.570
9.253,-0.535,-0.590
9.256,-0.555,-0.605
9.258,-0.580,-0.615
9.261,-0.590,-0.615
9.264,-0.600,-0.615
9.267,-0.595,-0.610
9.269,-0.595,-0.600
9.272,-0.595,-0.590
9.275,-0.585,-0.595
9.278,-0.615,-0.595
9.281,-0.620,-0.590
9.283,-0.625,-0.580
9.286,-0.645,-0.580
9.289,-0.665,-0.575
9.292,-0.675,-0.575
9.294,-0.700,-0.585
9.297,-0.700,-0.570
9.300,-0.695,-0.575
9.303,-0.695,-0.570
9.306,-0.690,-0.570
9.308,-0.700,-0.565
9.311,-0.695,-0.575
9.314,-0.685,-0.555
9.317,-0.695,-0.575
9.319,-0.705,-0.575
9.322,-0.710,-0.590
9.325,-0.720,-0.600
9.328,-0.720,-0.590
9.331,-0.710,-0.580
9.333,-0.705,-0.565
9.336,-0.700,-0.560
9.339,-0.690,-0.550
9.342,-0.690,-0.535
9.344,-0.685,-0.535
9.347,-0.685,-0.545
9.350,-0.695,-0.530
9.353,-0.690,-0.540
9.356,-0.675,-0.540
9.358,-0.650,-0.550
9.361,-0.600,-0.545
9.364,-0.530,-0.565
9.367,-0.425,-0.555
9.369,-0.300,-0.570
9.372,-0.175,-0.580
9.375,-0.025,-0.585
9.378,0.090,-0.615
9.381,0.170,-0.620
9.383,0.195,-0.630
9.386,0.140,-0.650
9.389,0.030,-0.660
9.392,-0.120,-0.670
9.394,-0.270,-0.675
9.397,-0.415,-0.665
9.400,-0.580,-0.635
9.403,-0.730,-0.595
9.406,-0.855,-0.535
9.408,-0.905,-0.440
9.411,-0.915,-0.345
9.414,-0.910,-0.285
9.417,-0.865,-0.260
9.419,-0.840,-0.280
9.422,-0.810,-0.335
9.425,-0.790,-0.400
9.428,-0.785,-0.470
9.431,-0.790,-0.505
9.433,-0.790,-0.525
9.436,-0.795,-0.535
9.439,-0.805,-0.540
9.442,-0.795,-0.540
9.444,-0.795,-0.545
9.447,-0.790,-0.555
9.450,-0.790,-0.565
9.453,-0.790,-0.575
9.456,-0.795,-0.580
9.458,-0.810,-0.575
9.461,-0.820,-0.585
9.464,-0.840,-0.575
9.467,-0.840,-0.565
9.469,-0.820,-0.565
9.472,-0.800,-0.565
9.475,-0.800,-0.560
9.478,-0.795,-0.560
9.481,-0.805,-0.575
9.483,-0.810,-0.575
9.486,-0.820,-0.590
9.489,-0.820,-0.590
9.492,-0.830,-0.600
9.494,-0.840,-0.600
9.497,-0.840,-0.590
9.500,-0.835,-0.590
9.503,-0.825,-0.575
9.506,-0.825,-0.575
9.508,-0.820,-0.575
9.511,-0.825,-0.565
9.514,-0.835,-0.575
9.517,-0.840,-0.580
9.519,-0.850,-0.575
9.522,-0.855,-0.595
9.525,-0.865,-0.595
9.528,-0.885,-0.590
9.531,-0.865,-0.595
9.533,-0.875,-0.590
9.536,-0.875,-0.585
9.539,-0.875,-0.570
9.542,-0.880,-0.565
9.544,-0.885,-0.585
9.547,-0.895,-0.585
9.550,-0.905,-0.595
9.553,-0.905,-0.600
9.556,-0.920,-0.610
9.558,-0.920,-0.605
9.561,-0.920,-0.605
9.564,-0.930,-0.605
9.567,-0.925,-0.595
9.569,-0.930,-0.595
9.572,-0.930,-0.585
9.575,-0.920,-0.580
9.578,-0.925,-0.590
9.581,-0.920,-0.595
9.583,-0.940,-0.595
9.586,-0.955,-0.600
9.589,-0.950,-0.605
9.592,-0.965,-0.610
9.594,-0.960,-0.595
9.597,-0.955,-0.605
9.600,-0.950,-0.605
9.603,-0.960,-0.585
9.606,-0.950,-0.585
9.608,-0.950,-0.580
9.611,-0.945,-0.580
9.614,-0.955,-0.585
9.617,-0.955,-0.600
9.619,-0.965,-0.610
9.622,-0.960,-0.605
9.625,-0.965,-0.620
9.628,-0.965,-0.620
9.631,-0.950,-0.605
9.633,-0.940,-0.595
9.636,-0.925,-0.590
9.639,-0.920,-0.585
9.642,-0.910,-0.575
9.644,-0.890,-0.590
9.647,-0.885,-0.595
9.650,-0.880,-0.610
9.653,-0.870,-0.605
9.656,-0.865,-0.615
9.658,-0.860,-0.625
9.661,-0.835,-0.640
9.664,-0.810,-0.630
9.667,-0.795,-0.620
9.669,-0.770,-0.615
9.672,-0.730,-0.610
9.675,-0.695,-0.605
9.678,-0.665,-0.610
9.681,-0.645,-0.610
9.683,-0.625,-0.610
9.686,-0.610,-0.610
9.689,-0.620,-0.615
9.692,-0.610,-0.610
9.694,-0.605,-0.610
9.697,-0.595,-0.605
9.700,-0.585,-0.590
9.703,-0.565,-0.575
9.706,-0.570,-0.570
9.708,-0.550,-0.555
9.711,-0.555,-0.555
9.714,-0.560,-0.560
9.717,-0.565,-0.560
9.719,-0.570,-0.570
9.722,-0.585,-0.575
9.725,-0.590,-0.575
9.728,-0.595,-0.585
9.731,-0.600,-0.570
9.733,-0.595,-0.560
9.736,-0.590,-0.565
9.739,-0.590,-0.570
9.742,-0.580,-0.550
9.744,-0.580,-0.550
9.747,-0.590,-0.560
9.750,-0.620,-0.560
9.753,-0.610,-0.570
9.756,-0.610,-0.565
9.758,-0.625,-0.575
9.761,-0.620,-0.570
9.764,-0.620,-0.555
9.767,-0.615,-0.555
9.769,-0.620,-0.540
9.772,-0.625,-0.545
9.775,-0.625,-0.525
9.778,-0.620,-0.535
9.781,-0.615,-0.550
9.783,-0.615,-0.555
9.786,-0.625,-0.560
9.789,-0.630,-0.570
9.792,-0.640,-0.565
9.794,-0.640,-0.565
9.797,-0.655,-0.565
9.800,-0.650,-0.555
9.803,-0.640,-0.545
9.806,-0.640,-0.550
9.808,-0.640,-0.545
9.811,-0.630,-0.545
9.814,-0.635,-0.545
9.817,-0.660,-0.545
9.819,-0.660,-0.565
9.822,-0.650,-0.565
9.825,-0.655,-0.580
9.828,-0.650,-0.580
9.831,-0.650,-0.565
9.833,-0.650,-0.575
9.836,-0.635,-0.555
9.839,-0.640,-0.550
9.842,-0.640,-0.555
9.844,-0.630,-0.545
9.847,-0.620,-0.565
9.850,-0.620,-0.580
9.853,-0.635,-0.575
9.856,-0.635,-0.575
9.858,-0.655,-0.565
9.861,-0.655,-0.580
9.864,-0.645,-0.565
9.867,-0.630,-0.560
9.869,-0.615,-0.550
9.872,-0.600,-0.540
9.875,-0.585,-0.530
9.878,-0.565,-0.525
9.881,-0.570,-0.525
9.883,-0.575,-0.515
9.886,-0.555,-0.530
9.889,-0.550,-0.530
9.892,-0.560,-0.540
9.894,-0.550,-0.530
9.897,-0.555,-0.520
9.900,-0.545,-0.525
9.903,-0.545,-0.515
9.906,-0.550,-0.520
9.908,-0.535,-0.520
9.911,-0.525,-0.530
9.914,-0.510,-0.560
9.917,-0.515,-0.570
9.919,-0.530,-0.585
9.922,-0.540,-0.600
9.925,-0.550,-0.600
9.928,-0.565,-0.605
9.931,-0.590,-0.605
9.933,-0.595,-0.605
9.936,-0.615,-0.605
9.939,-0.620,-0.580
9.942,-0.610,-0.575
9.944,-0.615,-0.585
9.947,-0.635,-0.585
9.950,-0.635,-0.595
9.953,-0.645,-0.580
9.956,-0.660,-0.580
9.958,-0.675,-0.560
9.961,-0.685,-0.560
9.964,-0.690,-0.555
9.967,-0.690,-0.540
9.969,-0.695,-0.545
9.972,-0.695,-0.525
9.975,-0.685,-0.525
9.978,-0.680,-0.535
9.981,-0.700,-0.540
9.983,-0.710,-0.540
9.986,-0.720,-0.545
9.989,-0.710,-0.560
9.992,-0.725,-0.570
9.994,-0.725,-0.560
9.997,-0.720,-0.560
10.000,-0.710,-0.550
10.003,-0.700,-0.545
10.006,-0.705,-0.545
10.008,-0.690,-0.530
10.011,-0.690,-0.530
10.014,-0.685,-0.540
10.017,-0.690,-0.540
10.019,-0.710,-0.550
10.022,-0.695,-0.535
10.025,-0.710,-0.540
10.028,-0.710,-0.550
10.031,-0.700,-0.535
10.033,-0.680,-0.520
10.036,-0.655,-0.510
10.039,-0.605,-0.505
10.042,-0.550,-0.495
10.044,-0.475,-0.515
10.047,-0.400,-0.525
10.050,-0.290,-0.550
10.053,-0.165,-0.575
10.056,-0.045,-0.590
10.058,0.055,-0.605
10.061,0.120,-0.620
10.064,0.145,-0.620
10.067,0.090,-0.610
10.069,-0.010,-0.610
10.072,-0.145,-0.620
10.075,-0.270,-0.630
10.078,-0.410,-0.615
10.081,-0.570,-0.615
10.083,-0.730,-0.570
10.086,-0.870,-0.505
10.089,-0.930,-0.425
10.092,-0.940,-0.335
10.094,-0.915,-0.275
10.097,-0.875,-0.265
10.100,-0.820,-0.300
10.103,-0.775,-0.355
10.106,-0.770,-0.415
10.108,-0.765,-0.440
10.111,-0.790,-0.490
10.114,-0.815,-0.510
10.117,-0.830,-0.530
10.119,-0.830,-0.545
10.122,-0.835,-0.560
10.125,-0.840,-0.555
10.128,-0.840,-0.565
10.131,-0.820,-0.545
10.133,-0.810,-0.540
10.136,-0.815,-0.525
10.139,-0.820,-0.525
10.142,-0.815,-0.510
10.144,-0.815,-0.515
10.147,-0.815,-0.530
10.150,-0.820,-0.540
10.153,-0.825,-0.545
10.156,-0.830,-0.555
10.158,-0.835,-0.555
10.161,-0.850,-0.555
10.164,-0.845,-0.550
10.167,-0.850,-0.550
10.169,-0.840,-0.540
10.172,-0.835,-0.530
10.175,-0.830,-0.520
10.178,-0.835,-0.520
10.181,-0.845,-0.520
10.183,-0.850,-0.540
10.186,-0.850,-0.550
10.189,-0.860,-0.560
10.192,-0.870,-0.555
10.194,-0.875,-0.565
10.197,-0.880,-0.550
10.200,-0.875,-0.550
10.203,-0.870,-0.550
10.206,-0.870,-0.535
10.208,-0.860,-0.520
10.211,-0.860,-0.530
10.214,-0.875,-0.535
10.217,-0.880,-0.535
10.219,-0.880,-0.550
10.222,-0.890,-0.560
10.225,-0.900,-0.555
10.228,-0.900,-0.560
10.231,-0.900,-0.555
10.233,-0.900,-0.535
10.236,-0.895,-0.535
10.239,-0.895,-0.535
10.242,-0.900,-0.530
10.244,-0.895,-0.525
10.247,-0.905,-0.545
10.250,-0.910,-0.550
10.253,-0.920,-0.565
10.256,-0.930,-0.565
10.258,-0.935,-0.570
10.261,-0.935,-0.570
10.264,-0.935,-0.565
10.267,-0.940,-0.565
10.269,-0.940,-0.550
10.272,-0.945,-0.545
10.275,-0.945,-0.535
10.278,-0.950,-0.545
10.281,-0.960,-0.545
10.283,-0.970,-0.560
10.286,-0.980,-0.580
10.289,-0.980,-0.580
10.292,-0.985,-0.590
10.294,-0.990,-0.595
10.297,-0.990,-0.575
10.300,-0.985,-0.575
10.303,-0.965,-0.560
10.306,-0.970,-0.550
10.308,-0.970,-0.545
10.311,-0.955,-0.560
10.314,-0.955,-0.560
10.317,-0.955,-0.565
10.319,-0.955,-0.570
10.322,-0.955,-0.585
10.325,-0.950,-0.585
10.328,-0.950,-0.575
10.331,-0.940,-0.575
10.333,-0.930,-0.570
10.336,-0.915,-0.570
10.339,-0.895,-0.560
10.342,-0.880,-0.555
10.344,-0.870,-0.560
10.347,-0.845,-0.555
10.350,-0.825,-0.575
10.353,-0.810,-0.580
10.356,-0.795,-0.590
10.358,-0.790,-0.600
10.361,-0.775,-0.605
10.364,-0.745,-0.600
10.367,-0.720,-0.595
10.369,-0.695,-0.590
10.372,-0.660,-0.580
10.375,-0.645,-0.565
10.378,-0.630,-0.570
10.381,-0.610,-0.570
10.383,-0.605,-0.580
10.386,-0.605,-0.580
10.389,-0.605,-0.590
10.392,-0.605,-0.595
10.394,-0.610,-0.580
10.397,-0.605,-0.575
10.400,-0.595,-0.555
10.403,-0.590,-0.540
10.406,-0.585,-0.540
10.408,-0.580,-0.540
10.411,-0.580,-0.525
10.414,-0.580,-0.530
10.417,-0.590,-0.540
10.419,-0.600,-0.540
10.422,-0.595,-0.550
10.425,-0.620,-0.545
10.428,-0.620,-0.555
10.431,-0.620,-0.545
10.433,-0.620,-0.545
10.436,-0.615,-0.540
10.439,-0.615,-0.540
10.442,-0.610,-0.530
10.444,-0.610,-0.530
10.447,-0.610,-0.545
10.450,-0.605,-0.540
10.453,-0.625,-0.550
10.456,-0.630,-0.555
10.458,-0.635,-0.575
10.461,-0.645,-0.565
10.464,-0.650,-0.565
10.467,-0.645,-0.555
10.469,-0.650,-0.555
10.472,-0.645,-0.535
10.475,-0.645,-0.530
10.478,-0.630,-0.535
10.481,-0.640,-0.540
10.483,-0.655,-0.540
10.486,-0.650,-0.550
10.489,-0.655,-0.560
10.492,-0.665,-0.550
10.494,-0.665,-0.555
10.497,-0.665,-0.555
10.500,-0.680,-0.550
10.503,-0.680,-0.545
10.506,-0.670,-0.535
10.508,-0.660,-0.525
10.511,-0.655,-0.525
10.514,-0.670,-0.535
10.517,-0.655,-0.535
10.519,-0.660,-0.555
10.522,-0.680,-0.560
10.525,-0.685,-0.570
10.528,-0.690,-0.580
10.531,-0.685,-0.560
10.533,-0.690,-0.560
10.536,-0.680,-0.545
10.539,-0.680,-0.535
10.542,-0.675,-0.540
10.544,-0.665,-0.535
10.547,-0.665,-0.540
10.550,-0.670,-0.550
10.553,-0.680,-0.550
10.556,-0.675,-0.570
10.558,-0.680,-0.560
10.561,-0.665,-0.570
10.564,-0.665,-0.565
10.567,-0.640,-0.550
10.569,-0.625,-0.540
10.572,-0.605,-0.520
10.575,-0.595,-0.505
10.578,-0.580,-0.500
10.581,-0.585,-0.505
10.583,-0.580,-0.505
10.586,-0.570,-0.520
10.589,-0.585,-0.520
10.592,-0.590,-0.530
10.594,-0.600,-0.530
10.597,-0.605,-0.540
10.600,-0.590,-0.535
10.603,-0.575,-0.545
10.606,-0.560,-0.540
10.608,-0.555,-0.530
10.611,-0.540,-0.540
10.614,-0.545,-0.555
10.617,-0.550,-0.570
10.619,-0.575,-0.590
10.622,-0.590,-0.585
10.625,-0.620,-0.600
10.628,-0.640,-0.600
10.631,-0.655,-0.595
10.633,-0.655,-0.595
10.636,-0.645,-0.595
10.639,-0.650,-0.580
10.642,-0.650,-0.575
10.644,-0.655,-0.575
10.647,-0.655,-0.580
10.650,-0.670,-0.570
10.653,-0.705,-0.575
10.656,-0.720,-0.565
10.658,-0.730,-0.540
10.661,-0.745,-0.555
10.664,-0.750,-0.545
10.667,-0.755,-0.545
10.669,-0.750,-0.535
10.672,-0.755,-0.520
10.675,-0.735,-0.515
10.678,-0.745,-0.525
10.681,-0.750,-0.525
10.683,-0.755,-0.540
10.686,-0.755,-0.545
10.689,-0.765,-0.560
10.692,-0.755,-0.560
10.694,-0.760,-0.550
10.697,-0.765,-0.555
10.700,-0.760,-0.550
10.703,-0.745,-0.540
10.706,-0.745,-0.515
10.708,-0.735,-0.515
10.711,-0.735,-0.525
10.714,-0.735,-0.535
10.717,-0.725,-0.535
10.719,-0.740,-0.535
10.722,-0.735,-0.535
10.725,-0.740,-0.530
10.728,-0.730,-0.530
10.731,-0.665,-0.530
10.733,-0.610,-0.525
10.736,-0.520,-0.535
10.739,-0.400,-0.550
10.742,-0.265,-0.560
10.744,-0.145,-0.580
10.747,-0.020,-0.605
10.750,0.055,-0.630
10.753,0.060,-0.630
10.756,-0.010,-0.640
10.758,-0.125,-0.655
10.761,-0.260,-0.665
10.764,-0.385,-0.675
10.767,-0.525,-0.675
10.769,-0.675,-0.645
10.772,-0.810,-0.590
10.775,-0.910,-0.520
10.778,-0.940,-0.430
10.781,-0.950,-0.345
10.783,-0.925,-0.275
10.786,-0.900,-0.245
10.789,-0.875,-0.285
10.792,-0.855,-0.360
10.794,-0.850,-0.420
10.797,-0.850,-0.485
10.800,-0.875,-0.505
10.803,-0.870,-0.535
10.806,-0.870,-0.550
10.808,-0.865,-0.555
10.811,-0.855,-0.560
10.814,-0.850,-0.560
10.817,-0.860,-0.565
10.819,-0.865,-0.565
10.822,-0.860,-0.585
10.825,-0.865,-0.580
10.828,-0.865,-0.595
10.831,-0.880,-0.575
10.833,-0.870,-0.585
10.836,-0.860,-0.570
10.839,-0.860,-0.560
10.842,-0.865,-0.550
10.844,-0.845,-0.555
10.847,-0.845,-0.555
10.850,-0.855,-0.560
10.853,-0.865,-0.575
10.856,-0.875,-0.575
10.858,-0.885,-0.595
10.861,-0.905,-0.580
10.864,-0.895,-0.575
10.867,-0.890,-0.565
10.869,-0.880,-0.560
10.872,-0.870,-0.560
10.875,-0.880,-0.550
10.878,-0.880,-0.555
10.881,-0.880,-0.555
10.883,-0.890,-0.560
10.886,-0.915,-0.580
10.889,-0.915,-0.580
10.892,-0.930,-0.575
10.894,-0.925,-0.595
10.897,-0.930,-0.595
10.900,-0.915,-0.605
10.903,-0.910,-0.580
10.906,-0.910,-0.570
10.908,-0.915,-0.570
10.911,-0.905,-0.570
10.914,-0.920,-0.575
10.917,-0.915,-0.570
10.919,-0.940,-0.585
10.922,-0.960,-0.590
10.925,-0.945,-0.585
10.928,-0.960,-0.585
10.931,-0.960,-0.580
10.933,-0.965,-0.575
10.936,-0.965,-0.575
10.939,-0.955,-0.570
10.942,-0.955,-0.560
10.944,-0.960,-0.560
10.947,-0.955,-0.575
10.950,-0.965,-0.570
10.953,-0.985,-0.585
10.956,-0.990,-0.595
10.958,-1.005,-0.590
10.961,-0.995,-0.605
10.964,-1.000,-0.600
10.967,-1.000,-0.585
10.969,-1.000,-0.580
10.972,-1.000,-0.580
10.975,-0.985,-0.580
10.978,-0.995,-0.580
10.981,-0.990,-0.590
10.983,-0.990,-0.590
10.986,-1.010,-0.600
10.989,-1.010,-0.610
10.992,-1.015,-0.620
10.994,-1.015,-0.615
10.997,-1.005,-0.615
11.000,-0.995,-0.605
11.003,-0.995,-0.610
11.006,-0.980,-0.600
11.008,-0.975,-0.590
11.011,-0.955,-0.585
11.014,-0.950,-0.590
11.017,-0.960,-0.590
11.019,-0.970,-0.595
11.022,-0.955,-0.600
11.025,-0.960,-0.610
11.028,-0.955,-0.610
11.031,-0.940,-0.605
11.033,-0.920,-0.590
11.036,-0.900,-0.590
11.039,-0.875,-0.595
11.042,-0.865,-0.590
11.044,-0.835,-0.590
11.047,-0.810,-0.595
11.050,-0.785,-0.600
11.053,-0.765,-0.610
11.056,-0.765,-0.615
11.058,-0.745,-0.620
11.061,-0.725,-0.625
11.064,-0.720,-0.610
11.067,-0.705,-0.615
11.069,-0.700,-0.610
11.072,-0.675,-0.600
11.075,-0.660,-0.590
11.078,-0.645,-0.590
11.081,-0.635,-0.590
11.083,-0.625,-0.585
11.086,-0.630,-0.590
11.089,-0.645,-0.600
11.092,-0.630,-0.605
11.094,-0.650,-0.605
11.097,-0.630,-0.600
11.100,-0.635,-0.585
11.103,-0.635,-0.570
11.106,-0.625,-0.570
11.108,-0.625,-0.565
11.111,-0.615,-0.555
11.114,-0.635,-0.550
11.117,-0.630,-0.560
11.119,-0.650,-0.555
11.122,-0.660,-0.570
11.125,-0.675,-0.575
11.128,-0.670,-0.575
11.131,-0.685,-0.570
11.133,-0.680,-0.555
11.136,-0.685,-0.550
11.139,-0.685,-0.550
11.142,-0.675,-0.535
11.144,-0.670,-0.540
11.147,-0.670,-0.545
11.150,-0.670,-0.555
11.153,-0.675,-0.565
11.156,-0.685,-0.580
11.158,-0.700,-0.575
11.161,-0.705,-0.575
11.164,-0.705,-0.575
11.167,-0.700,-0.575
11.169,-0.695,-0.570
11.172,-0.690,-0.565
11.175,-0.695,-0.565
11.178,-0.685,-0.555
11.181,-0.690,-0.575
11.183,-0.685,-0.570
11.186,-0.705,-0.580
11.189,-0.715,-0.575
11.192,-0.720,-0.595
11.194,-0.720,-0.595
11.197,-0.715,-0.585
11.200,-0.720,-0.575
11.203,-0.720,-0.560
11.206,-0.710,-0.555
11.208,-0.710,-0.550
11.211,-0.700,-0.545
11.214,-0.710,-0.555
11.217,-0.715,-0.570
11.219,-0.710,-0.560
11.222,-0.720,-0.570
11.225,-0.725,-0.570
11.228,-0.730,-0.585
11.231,-0.735,-0.580
11.233,-0.730,-0.570
11.236,-0.720,-0.565
11.239,-0.710,-0.555
11.242,-0.700,-0.560
11.244,-0.695,-0.560
11.247,-0.700,-0.565
11.250,-0.700,-0.570
11.253,-0.680,-0.565
11.256,-0.685,-0.570
11.258,-0.675,-0.585
11.261,-0.670,-0.580
11.264,-0.665,-0.570
11.267,-0.645,-0.550
11.269,-0.630,-0.545
11.272,-0.620,-0.540
11.275,-0.615,-0.530
11.278,-0.600,-0.535
11.281,-0.625,-0.535
11.283,-0.625,-0.535
11.286,-0.630,-0.540
11.289,-0.635,-0.555
11.292,-0.645,-0.565
11.294,-0.635,-0.575
11.297,-0.635,-0.580
11.300,-0.620,-0.585
11.303,-0.600,-0.590
11.306,-0.600,-0.590
11.308,-0.605,-0.580
11.311,-0.615,-0.570
11.314,-0.645,-0.575
11.317,-0.680,-0.585
11.319,-0.710,-0.590
11.322,-0.700,-0.595
11.325,-0.705,-0.615
11.328,-0.710,-0.625
11.331,-0.715,-0.615
11.333,-0.725,-0.595
11.336,-0.730,-0.590
11.339,-0.730,-0.575
11.342,-0.760,-0.555
11.344,-0.750,-0.535
11.347,-0.775,-0.530
11.350,-0.765,-0.545
11.353,-0.775,-0.555
11.356,-0.795,-0.570
11.358,-0.795,-0.580
11.361,-0.815,-0.570
11.364,-0.805,-0.575
11.367,-0.805,-0.565
11.369,-0.800,-0.570
11.372,-0.795,-0.560
11.375,-0.790,-0.545
11.378,-0.785,-0.555
11.381,-0.795,-0.550
11.383,-0.785,-0.545
11.386,-0.805,-0.565
11.389,-0.805,-0.545
11.392,-0.795,-0.570
11.394,-0.790,-0.570
11.397,-0.800,-0.565
11.400,-0.795,-0.565
11.403,-0.790,-0.555
11.406,-0.785,-0.535
11.408,-0.790,-0.525
11.411,-0.770,-0.515
11.414,-0.775,-0.515
11.417,-0.750,-0.515
11.419,-0.720,-0.530
11.422,-0.675,-0.545
11.425,-0.605,-0.565
11.428,-0.500,-0.575
11.431,-0.390,-0.595
11.433,-0.255,-0.610
11.436,-0.135,-0.635
11.439,-0.025,-0.640
11.442,0.015,-0.645
11.444,0.000,-0.650
11.447,-0.095,-0.655
11.450,-0.225,-0.675
11.453,-0.360,-0.690
11.456,-0.475,-0.705
11.458,-0.590,-0.700
11.461,-0.730,-0.685
11.464,-0.860,-0.645
11.467,-0.965,-0.590
11.469,-1.025,-0.495
11.472,-1.035,-0.410
11.475,-1.010,-0.300
11.478,-0.970,-0.240
11.481,-0.945,-0.220
11.483,-0.940,-0.265
11.486,-0.940,-0.325
11.489,-0.935,-0.420
11.492,-0.940,-0.475
11.494,-0.945,-0.515
11.497,-0.940,-0.540
11.500,-0.925,-0.545
11.503,-0.910,-0.555
11.506,-0.905,-0.540
11.508,-0.895,-0.545
11.511,-0.885,-0.545
11.514,-0.890,-0.555
11.517,-0.905,-0.545
11.519,-0.900,-0.555
11.522,-0.915,-0.565
11.525,-0.930,-0.585
11.528,-0.915,-0.585
11.531,-0.920,-0.580
11.533,-0.920,-0.580
11.536,-0.925,-0.560
11.539,-0.910,-0.560
11.542,-0.910,-0.550
11.544,-0.900,-0.550
11.547,-0.900,-0.555
11.550,-0.910,-0.550
11.553,-0.925,-0.565
11.556,-0.925,-0.575
11.558,-0.940,-0.585
11.561,-0.940,-0.580
11.564,-0.925,-0.575
11.567,-0.940,-0.575
11.569,-0.940,-0.565
11.572,-0.950,-0.555
11.575,-0.935,-0.540
11.578,-0.930,-0.540
11.581,-0.935,-0.550
11.583,-0.935,-0.550
11.586,-0.945,-0.555
11.589,-0.955,-0.580
11.592,-0.960,-0.590
11.594,-0.960,-0.590
11.597,-0.970,-0.580
11.600,-0.975,-0.585
11.603,-0.965,-0.575
11.606,-0.960,-0.575
11.608,-0.960,-0.575
11.611,-0.950,-0.570
11.614,-0.970,-0.575
11.617,-0.965,-0.580
11.619,-0.970,-0.595
11.622,-0.980,-0.595
11.625,-0.990,-0.615
11.628,-0.990,-0.620
11.631,-1.000,-0.605
11.633,-1.005,-0.590
11.636,-1.000,-0.595
11.639,-0.995,-0.580
11.642,-1.000,-0.580
11.644,-0.995,-0.580
11.647,-0.995,-0.590
11.650,-1.005,-0.590
11.653,-1.015,-0.605
11.656,-1.030,-0.605
11.658,-1.035,-0.605
11.661,-1.040,-0.610
11.664,-1.045,-0.615
11.667,-1.035,-0.600
11.669,-1.025,-0.590
11.672,-1.015,-0.590
11.675,-1.015,-0.580
11.678,-1.005,-0.570
11.681,-1.005,-0.575
11.683,-1.000,-0.585
11.686,-1.005,-0.595
11.689,-1.005,-0.590
11.692,-1.010,-0.600
11.694,-1.010,-0.600
11.697,-1.010,-0.610
11.700,-0.990,-0.605
11.703,-0.980,-0.590
11.706,-0.965,-0.595
11.708,-0.950,-0.595
11.711,-0.935,-0.580
11.714,-0.920,-0.590
11.717,-0.915,-0.590
11.719,-0.905,-0.610
11.722,-0.900,-0.615
11.725,-0.895,-0.620
11.728,-0.870,-0.630
11.731,-0.860,-0.625
11.733,-0.830,-0.605
11.736,-0.805,-0.610
11.739,-0.775,-0.595
11.742,-0.755,-0.585
11.744,-0.720,-0.600
11.747,-0.695,-0.610
11.750,-0.700,-0.605
11.753,-0.685,-0.620
11.756,-0.690,-0.615
11.758,-0.675,-0.620
11.761,-0.675,-0.620
11.764,-0.655,-0.615
11.767,-0.655,-0.600
11.769,-0.645,-0.575
11.772,-0.635,-0.580
11.775,-0.635,-0.565
11.778,-0.625,-0.560
11.781,-0.640,-0.560
11.783,-0.645,-0.575
11.786,-0.650,-0.575
11.789,-0.660,-0.590
11.792,-0.670,-0.595
11.794,-0.670,-0.590
11.797,-0.675,-0.590
11.800,-0.685,-0.580
11.803,-0.695,-0.565
11.806,-0.680,-0.555
11.808,-0.685,-0.560
11.811,-0.685,-0.550
11.814,-0.700,-0.570
11.817,-0.690,-0.560
11.819,-0.705,-0.575
11.822,-0.710,-0.575
11.825,-0.715,-0.580
11.828,-0.720,-0.585
11.831,-0.735,-0.570
11.833,-0.730,-0.575
11.836,-0.725,-0.555
11.839,-0.720,-0.545
11.842,-0.720,-0.530
11.844,-0.715,-0.545
11.847,-0.720,-0.535
11.850,-0.730,-0.550
11.853,-0.725,-0.565
11.856,-0.730,-0.555
11.858,-0.735,-0.570
11.861,-0.745,-0.575
11.864,-0.745,-0.575
11.867,-0.750,-0.565
11.869,-0.755,-0.565
11.872,-0.750,-0.565
11.875,-0.745,-0.545
11.878,-0.745,-0.540
11.881,-0.740,-0.555
11.883,-0.745,-0.565
11.886,-0.745,-0.580
11.889,-0.765,-0.585
11.892,-0.775,-0.590
11.894,-0.765,-0.580
11.897,-0.770,-0.580
11.900,-0.760,-0.570
11.903,-0.740,-0.570
11.906,-0.740,-0.555
11.908,-0.735,-0.550
11.911,-0.735,-0.555
11.914,-0.745,-0.555
11.917,-0.755,-0.555
11.919,-0.755,-0.565
11.922,-0.750,-0.565
11.925,-0.750,-0.580
11.928,-0.755,-0.575
11.931,-0.755,-0.585
11.933,-0.755,-0.570
11.936,-0.740,-0.565
11.939,-0.725,-0.555
11.942,-0.710,-0.550
11.944,-0.685,-0.540
11.947,-0.685,-0.545
11.950,-0.675,-0.545
11.953,-0.670,-0.545
11.956,-0.655,-0.550
11.958,-0.655,-0.555
11.961,-0.665,-0.545
11.964,-0.660,-0.550
11.967,-0.665,-0.550
11.969,-0.660,-0.545
11.972,-0.660,-0.550
11.975,-0.655,-0.545
11.978,-0.640,-0.550
11.981,-0.640,-0.555
11.983,-0.645,-0.565
11.986,-0.630,-0.580
11.989,-0.625,-0.595
11.992,-0.630,-0.600
11.994,-0.635,-0.600
11.997,-0.650,-0.615
12.000,-0.675,-0.595
12.003,-0.685,-0.585
12.006,-0.690,-0.585
12.008,-0.695,-0.585
12.011,-0.695,-0.565
12.014,-0.690,-0.590
12.017,-0.715,-0.590
12.019,-0.710,-0.605
12.022,-0.730,-0.615
12.025,-0.735,-0.615
12.028,-0.755,-0.610
12.031,-0.775,-0.585
12.033,-0.790,-0.570
12.036,-0.795,-0.560
12.039,-0.785,-0.540
12.042,-0.790,-0.530
12.044,-0.785,-0.530
12.047,-0.795,-0.525
12.050,-0.805,-0.550
12.053,-0.810,-0.560
12.056,-0.820,-0.570
12.058,-0.820,-0.575
12.061,-0.820,-0.570
12.064,-0.820,-0.575
12.067,-0.815,-0.565
12.069,-0.825,-0.555
12.072,-0.805,-0.555
12.075,-0.795,-0.555
12.078,-0.790,-0.550
12.081,-0.795,-0.555
12.083,-0.800,-0.555
12.086,-0.810,-0.555
12.089,-0.810,-0.565
12.092,-0.815,-0.565
12.094,-0.810,-0.565
12.097,-0.810,-0.550
12.100,-0.820,-0.555
12.103,-0.800,-0.550
12.106,-0.795,-0.520
12.108,-0.780,-0.515
12.111,-0.750,-0.515
12.114,-0.710,-0.530
12.117,-0.665,-0.515
12.119,-0.590,-0.545
12.122,-0.485,-0.565
12.125,-0.365,-0.590
12.128,-0.230,-0.620
12.131,-0.125,-0.640
12.133,-0.060,-0.655
12.136,-0.055,-0.660
12.139,-0.110,-0.655
12.142,-0.220,-0.665
12.144,-0.360,-0.675
12.147,-0.495,-0.685
12.150,-0.640,-0.680
12.153,-0.800,-0.670
12.156,-0.965,-0.640
12.158,-1.080,-0.580
12.161,-1.115,-0.500
12.164,-1.110,-0.380
12.167,-1.090,-0.295
12.169,-1.050,-0.250
12.172,-1.025,-0.270
12.175,-0.990,-0.295
12.178,-0.975,-0.375
12.181,-0.970,-0.440
12.183,-0.965,-0.480
12.186,-0.955,-0.510
12.189,-0.950,-0.545
12.192,-0.940,-0.555
12.194,-0.930,-0.560
12.197,-0.930,-0.565
12.200,-0.930,-0.570
12.203,-0.915,-0.545
12.206,-0.915,-0.540
12.208,-0.910,-0.535
12.211,-0.900,-0.530
12.214,-0.900,-0.540
12.217,-0.915,-0.545
12.219,-0.910,-0.565
12.222,-0.915,-0.570
12.225,-0.940,-0.570
12.228,-0.940,-0.585
12.231,-0.945,-0.570
12.233,-0.940,-0.570
12.236,-0.925,-0.565
12.239,-0.920,-0.560
12.242,-0.920,-0.560
12.244,-0.915,-0.555
12.247,-0.915,-0.560
12.250,-0.925,-0.565
12.253,-0.930,-0.575
12.256,-0.940,-0.585
12.258,-0.935,-0.595
12.261,-0.935,-0.590
12.264,-0.945,-0.585
12.267,-0.955,-0.585
12.269,-0.955,-0.580
12.272,-0.945,-0.560
12.275,-0.945,-0.555
12.278,-0.930,-0.550
12.281,-0.940,-0.555
12.283,-0.945,-0.565
12.286,-0.945,-0.570
12.289,-0.955,-0.580
12.292,-0.965,-0.590
12.294,-0.970,-0.595
12.297,-0.980,-0.580
12.300,-0.985,-0.575
12.303,-0.970,-0.570
12.306,-0.965,-0.565
12.308,-0.970,-0.565
12.311,-0.960,-0.550
12.314,-0.975,-0.565
12.317,-0.970,-0.565
12.319,-0.980,-0.580
12.322,-0.990,-0.590
12.325,-0.990,-0.600
12.328,-1.000,-0.605
12.331,-1.025,-0.605
12.333,-1.020,-0.605
12.336,-1.015,-0.600
12.339,-1.000,-0.580
12.342,-1.015,-0.585
12.344,-1.000,-0.585
12.347,-1.000,-0.580
12.350,-1.005,-0.595
12.353,-1.025,-0.610
12.356,-1.030,-0.615
12.358,-1.040,-0.615
12.361,-1.040,-0.620
12.364,-1.045,-0.615
12.367,-1.040,-0.600
12.369,-1.030,-0.610
12.372,-1.015,-0.590
12.375,-1.015,-0.585
12.378,-1.000,-0.580
12.381,-1.005,-0.600
12.383,-1.000,-0.600
12.386,-1.010,-0.610
12.389,-1.015,-0.610
12.392,-1.020,-0.620
12.394,-1.020,-0.615
12.397,-1.025,-0.615
12.400,-1.015,-0.615
12.403,-0.985,-0.605
12.406,-0.965,-0.605
12.408,-0.950,-0.595
12.411,-0.930,-0.595
12.414,-0.910,-0.605
12.417,-0.920,-0.610
12.419,-0.900,-0.620
12.422,-0.880,-0.635
12.425,-0.870,-0.640
12.428,-0.855,-0.640
12.431,-0.845,-0.650
12.433,-0.805,-0.650
12.436,-0.785,-0.635
12.439,-0.765,-0.630
12.442,-0.750,-0.625
12.444,-0.725,-0.625
12.447,-0.715,-0.620
12.450,-0.705,-0.615
12.453,-0.695,-0.620
12.456,-0.700,-0.620
12.458,-0.680,-0.625
12.461,-0.680,-0.620
12.464,-0.680,-0.630
12.467,-0.675,-0.605
12.469,-0.665,-0.610
12.472,-0.660,-0.605
12.475,-0.655,-0.585
12.478,-0.650,-0.580
12.481,-0.645,-0.575
12.483,-0.665,-0.585
12.486,-0.680,-0.600
12.489,-0.685,-0.585
12.492,-0.690,-0.600
12.494,-0.685,-0.590
12.497,-0.700,-0.590
12.500,-0.700,-0.580
12.503,-0.705,-0.575
12.506,-0.695,-0.570
12.508,-0.690,-0.570
12.511,-0.690,-0.555
12.514,-0.705,-0.565
12.517,-0.720,-0.575
12.519,-0.720,-0.590
12.522,-0.720,-0.575
12.525,-0.730,-0.585
12.528,-0.745,-0.600
12.531,-0.750,-0.590
12.533,-0.750,-0.590
12.536,-0.740,-0.575
12.539,-0.740,-0.575
12.542,-0.745,-0.580
12.544,-0.735,-0.560
12.547,-0.735,-0.570
12.550,-0.740,-0.565
12.553,-0.745,-0.575
12.556,-0.755,-0.585
12.558,-0.765,-0.590
12.561,-0.770,-0.590
12.564,-0.785,-0.605
12.567,-0.785,-0.590
12.569,-0.785,-0.590
12.572,-0.770,-0.580
12.575,-0.760,-0.560
12.578,-0.755,-0.565
12.581,-0.755,-0.570
12.583,-0.760,-0.575
12.586,-0.785,-0.590
12.589,-0.775,-0.600
12.592,-0.795,-0.605
12.594,-0.795,-0.605
12.597,-0.795,-0.600
12.600,-0.805,-0.605
12.603,-0.775,-0.585
12.606,-0.775,-0.595
12.608,-0.770,-0.580
12.611,-0.760,-0.580
12.614,-0.760,-0.595
12.617,-0.765,-0.580
12.619,-0.760,-0.590
12.622,-0.775,-0.605
12.625,-0.785,-0.610
12.628,-0.790,-0.605
12.631,-0.790,-0.610
12.633,-0.790,-0.605
12.636,-0.785,-0.595
12.639,-0.775,-0.590
12.642,-0.765,-0.565
12.644,-0.765,-0.575
12.647,-0.760,-0.570
12.650,-0.755,-0.565
12.653,-0.740,-0.575
12.656,-0.745,-0.575
12.658,-0.740,-0.590
12.661,-0.725,-0.590
12.664,-0.720,-0.590
12.667,-0.705,-0.580
12.669,-0.695,-0.560
12.672,-0.690,-0.560
12.675,-0.685,-0.555
12.678,-0.680,-0.550
12.681,-0.685,-0.565
12.683,-0.685,-0.575
12.686,-0.690,-0.585
12.689,-0.700,-0.610
12.692,-0.695,-0.620
12.694,-0.690,-0.630
12.697,-0.685,-0.625
12.700,-0.675,-0.630
12.703,-0.665,-0.620
12.706,-0.675,-0.620
12.708,-0.690,-0.620
12.711,-0.710,-0.620
12.714,-0.725,-0.615
12.717,-0.735,-0.620
12.719,-0.740,-0.625
12.722,-0.755,-0.635
12.725,-0.760,-0.640
12.728,-0.765,-0.635
12.731,-0.765,-0.640
12.733,-0.770,-0.640
12.736,-0.785,-0.620
12.739,-0.790,-0.615
12.742,-0.800,-0.595
12.744,-0.805,-0.565
12.747,-0.805,-0.550
12.750,-0.825,-0.555
12.753,-0.835,-0.565
12.756,-0.835,-0.565
12.758,-0.855,-0.580
12.761,-0.855,-0.590
12.764,-0.855,-0.585
12.767,-0.855,-0.580
12.769,-0.850,-0.565
12.772,-0.845,-0.565
12.775,-0.845,-0.565
12.778,-0.835,-0.555
12.781,-0.835,-0.560
12.783,-0.840,-0.580
12.786,-0.840,-0.570
12.789,-0.855,-0.580
12.792,-0.850,-0.580
12.794,-0.865,-0.590
12.797,-0.855,-0.590
12.800,-0.855,-0.585
12.803,-0.850,-0.585
12.806,-0.840,-0.565
12.808,-0.835,-0.560
12.811,-0.825,-0.555
12.814,-0.825,-0.560
12.817,-0.820,-0.535
12.819,-0.795,-0.540
12.822,-0.775,-0.545
12.825,-0.725,-0.555
12.828,-0.660,-0.580
12.831,-0.580,-0.580
12.833,-0.470,-0.610
12.836,-0.330,-0.605
12.839,-0.235,-0.620
12.842,-0.135,-0.620
12.844,-0.080,-0.625
12.847,-0.100,-0.645
12.850,-0.175,-0.655
12.853,-0.280,-0.690
12.856,-0.405,-0.690
12.858,-0.530,-0.695
12.861,-0.655,-0.695
12.864,-0.810,-0.675
12.867,-0.955,-0.640
12.869,-1.075,-0.565
12.872,-1.125,-0.480
12.875,-1.130,-0.370
12.878,-1.110,-0.275
12.881,-1.090,-0.230
12.883,-1.080,-0.225
12.886,-1.070,-0.290
12.889,-1.075,-0.365
12.892,-1.055,-0.455
12.894,-1.055,-0.535
12.897,-1.030,-0.565
12.900,-0.990,-0.580
12.903,-0.975,-0.570
12.906,-0.955,-0.570
12.908,-0.960,-0.550
12.911,-0.955,-0.555
12.914,-0.950,-0.570
12.917,-0.955,-0.575
12.919,-0.965,-0.580
12.922,-0.970,-0.580
12.925,-0.975,-0.590
12.928,-0.985,-0.590
12.931,-1.000,-0.590
12.933,-0.980,-0.590
12.936,-0.980,-0.585
12.939,-0.990,-0.575
12.942,-0.970,-0.570
12.944,-0.955,-0.565
12.947,-0.960,-0.565
12.950,-0.965,-0.575
12.953,-0.960,-0.585
12.956,-0.980,-0.590
12.958,-0.980,-0.600
12.961,-0.985,-0.605
12.964,-0.990,-0.605
12.967,-0.990,-0.595
12.969,-0.985,-0.600
12.972,-0.980,-0.585
12.975,-0.980,-0.590
12.978,-0.970,-0.585
12.981,-0.975,-0.585
12.983,-0.970,-0.590
12.986,-0.985,-0.595
12.989,-0.990,-0.605
12.992,-0.990,-0.610
12.994,-1.000,-0.620
12.997,-1.010,-0.625
13.000,-1.015,-0.610
13.003,-1.015,-0.600
13.006,-1.010,-0.585
13.008,-1.010,-0.595
13.011,-1.005,-0.605
13.014,-1.005,-0.600
13.017,-1.025,-0.600
13.019,-1.020,-0.615
13.022,-1.035,-0.625
13.025,-1.035,-0.630
13.028,-1.040,-0.630
13.031,-1.040,-0.635
13.033,-1.045,-0.620
13.036,-1.045,-0.625
13.039,-1.055,-0.615
13.042,-1.035,-0.605
13.044,-1.020,-0.605
13.047,-1.025,-0.605
13.050,-1.025,-0.615
13.053,-1.030,-0.615
13.056,-1.035,-0.640
13.058,-1.050,-0.640
13.061,-1.055,-0.650
13.064,-1.065,-0.655
13.067,-1.060,-0.640
13.069,-1.060,-0.650
13.072,-1.050,-0.640
13.075,-1.050,-0.630
13.078,-1.055,-0.615
13.081,-1.045,-0.630
13.083,-1.045,-0.620
13.086,-1.040,-0.630
13.089,-1.040,-0.630
13.092,-1.050,-0.635
13.094,-1.040,-0.645
13.097,-1.050,-0.640
13.100,-1.050,-0.630
13.103,-1.035,-0.625
13.106,-1.025,-0.615
13.108,-1.010,-0.615
13.111,-0.990,-0.605
13.114,-0.980,-0.615
13.117,-0.975,-0.620
13.119,-0.970,-0.630
13.122,-0.955,-0.635
13.125,-0.960,-0.650
13.128,-0.945,-0.645
13.131,-0.940,-0.650
13.133,-0.920,-0.650
13.136,-0.885,-0.640
13.139,-0.865,-0.640
13.142,-0.845,-0.630
13.144,-0.815,-0.635
13.147,-0.805,-0.645
13.150,-0.790,-0.640
13.153,-0.775,-0.655
13.156,-0.765,-0.675
13.158,-0.740,-0.675
13.161,-0.740,-0.665
13.164,-0.715,-0.665
13.167,-0.705,-0.665
13.169,-0.695,-0.645
13.172,-0.690,-0.630
13.175,-0.695,-0.615
13.178,-0.675,-0.620
13.181,-0.675,-0.610
13.183,-0.680,-0.610
13.186,-0.685,-0.630
13.189,-0.690,-0.630
13.192,-0.705,-0.625
13.194,-0.720,-0.625
13.197,-0.715,-0.610
13.200,-0.725,-0.590
13.203,-0.725,-0.585
13.206,-0.720,-0.580
13.208,-0.740,-0.575
13.211,-0.725,-0.575
13.214,-0.735,-0.565
13.217,-0.745,-0.575
13.219,-0.760,-0.585
13.222,-0.755,-0.590
13.225,-0.765,-0.605
13.228,-0.775,-0.605
13.231,-0.790,-0.615
13.233,-0.790,-0.600
13.236,-0.780,-0.590
13.239,-0.765,-0.585
13.242,-0.770,-0.580
13.244,-0.765,-0.575
13.247,-0.765,-0.580
13.250,-0.770,-0.590
13.253,-0.780,-0.590
13.256,-0.785,-0.600
13.258,-0.795,-0.600
13.261,-0.800,-0.610
13.264,-0.810,-0.605
13.267,-0.815,-0.600
13.269,-0.815,-0.590
13.272,-0.795,-0.585
13.275,-0.795,-0.585
13.278,-0.800,-0.595
13.281,-0.795,-0.595
13.283,-0.805,-0.585
13.286,-0.810,-0.610
13.289,-0.800,-0.615
13.292,-0.800,-0.630
13.294,-0.810,-0.635
13.297,-0.815,-0.630
13.300,-0.815,-0.630
13.303,-0.810,-0.610
13.306,-0.795,-0.595
13.308,-0.805,-0.580
13.311,-0.780,-0.570
13.314,-0.780,-0.575
13.317,-0.775,-0.590
13.319,-0.790,-0.590
13.322,-0.795,-0.590
13.325,-0.805,-0.615
13.328,-0.820,-0.625
13.331,-0.815,-0.610
13.333,-0.820,-0.610
13.336,-0.810,-0.600
13.339,-0.795,-0.595
13.342,-0.770,-0.580
13.344,-0.765,-0.575
13.347,-0.760,-0.580
13.350,-0.740,-0.575
13.353,-0.735,-0.575
13.356,-0.745,-0.580
13.358,-0.750,-0.565
13.361,-0.745,-0.575
13.364,-0.755,-0.580
13.367,-0.750,-0.585
13.369,-0.745,-0.580
13.372,-0.725,-0.575
13.375,-0.715,-0.580
13.378,-0.685,-0.590
13.381,-0.680,-0.595
13.383,-0.685,-0.600
13.386,-0.690,-0.630
13.389,-0.695,-0.640
13.392,-0.715,-0.635
13.394,-0.730,-0.660
13.397,-0.745,-0.655
13.400,-0.765,-0.655
13.403,-0.780,-0.630
13.406,-0.780,-0.640
13.408,-0.780,-0.620
13.411,-0.785,-0.630
13.414,-0.790,-0.630
13.417,-0.790,-0.630
13.419,-0.810,-0.625
13.422,-0.835,-0.625
13.425,-0.855,-0.625
13.428,-0.860,-0.610
13.431,-0.865,-0.610
13.433,-0.880,-0.615
13.436,-0.885,-0.590
13.439,-0.880,-0.585
13.442,-0.860,-0.580
13.444,-0.860,-0.570
13.447,-0.855,-0.575
13.450,-0.865,-0.575
13.453,-0.875,-0.590
13.456,-0.890,-0.595
13.458,-0.900,-0.605
13.461,-0.900,-0.605
13.464,-0.895,-0.605
13.467,-0.885,-0.605
13.469,-0.900,-0.575
13.472,-0.895,-0.585
13.475,-0.885,-0.580
13.478,-0.865,-0.570
13.481,-0.860,-0.585
13.483,-0.860,-0.580
13.486,-0.860,-0.585
13.489,-0.870,-0.590
13.492,-0.870,-0.600
13.494,-0.870,-0.595
13.497,-0.865,-0.595
13.500,-0.855,-0.595
13.503,-0.840,-0.580
13.506,-0.810,-0.575
13.508,-0.770,-0.565
13.511,-0.710,-0.560
13.514,-0.635,-0.570
13.517,-0.540,-0.580
13.519,-0.435,-0.610
13.522,-0.320,-0.640
13.525,-0.230,-0.665
13.528,-0.150,-0.690
13.531,-0.095,-0.715
13.533,-0.100,-0.720
13.536,-0.155,-0.705
13.539,-0.260,-0.705
13.542,-0.365,-0.705
13.544,-0.495,-0.690
13.547,-0.625,-0.680
13.550,-0.780,-0.655
13.553,-0.965,-0.610
13.556,-1.080,-0.540
13.558,-1.145,-0.435
13.561,-1.145,-0.315
13.564,-1.125,-0.205
13.567,-1.110,-0.160
13.569,-1.095,-0.195
13.572,-1.085,-0.300
13.575,-1.075,-0.400
13.578,-1.040,-0.480
13.581,-1.015,-0.560
13.583,-0.985,-0.580
13.586,-0.975,-0.610
13.589,-0.975,-0.605
13.592,-0.975,-0.610
13.594,-1.000,-0.610
13.597,-1.020,-0.605
13.600,-1.020,-0.605
13.603,-1.020,-0.610
13.606,-0.995,-0.600
13.608,-0.985,-0.585
13.611,-0.970,-0.590
13.614,-0.980,-0.590
13.617,-0.965,-0.595
13.619,-0.970,-0.590
13.622,-1.005,-0.610
13.625,-1.010,-0.615
13.628,-1.010,-0.615
13.631,-1.005,-0.620
13.633,-1.005,-0.615
13.636,-0.995,-0.590
13.639,-0.990,-0.605
13.642,-1.005,-0.600
13.644,-0.995,-0.585
13.647,-0.995,-0.585
13.650,-1.000,-0.595
13.653,-1.000,-0.605
13.656,-1.010,-0.600
13.658,-1.025,-0.625
13.661,-1.020,-0.620
13.664,-1.025,-0.625
13.667,-1.015,-0.620
13.669,-1.010,-0.610
13.672,-1.015,-0.620
13.675,-1.005,-0.605
13.678,-1.010,-0.595
13.681,-1.010,-0.605
13.683,-1.020,-0.615
13.686,-1.035,-0.620
13.689,-1.035,-0.625
13.692,-1.040,-0.630
13.694,-1.040,-0.635
13.697,-1.050,-0.635
13.700,-1.045,-0.640
13.703,-1.040,-0.635
13.706,-1.035,-0.620
13.708,-1.040,-0.615
13.711,-1.025,-0.605
13.714,-1.045,-0.610
13.717,-1.050,-0.615
13.719,-1.045,-0.615
13.722,-1.060,-0.620
13.725,-1.055,-0.640
13.728,-1.060,-0.640
13.731,-1.080,-0.635
13.733,-1.070,-0.640
13.736,-1.070,-0.625
13.739,-1.075,-0.625
13.742,-1.075,-0.615
13.744,-1.060,-0.620
13.747,-1.060,-0.615
13.750,-1.060,-0.630
13.753,-1.070,-0.640
13.756,-1.075,-0.645
13.758,-1.080,-0.665
13.761,-1.080,-0.665
13.764,-1.080,-0.660
13.767,-1.065,-0.660
13.769,-1.070,-0.665
13.772,-1.060,-0.660
13.775,-1.050,-0.650
13.778,-1.035,-0.635
13.781,-1.040,-0.640
13.783,-1.050,-0.655
13.786,-1.035,-0.645
13.789,-1.025,-0.655
13.792,-1.025,-0.665
13.794,-1.020,-0.670
13.797,-1.005,-0.685
13.800,-0.985,-0.670
13.803,-0.965,-0.675
13.806,-0.945,-0.670
13.808,-0.930,-0.665
13.811,-0.920,-0.645
13.814,-0.895,-0.655
13.817,-0.895,-0.665
13.819,-0.885,-0.665
13.822,-0.860,-0.675
13.825,-0.845,-0.680
13.828,-0.835,-0.685
13.831,-0.840,-0.685
13.833,-0.815,-0.665
13.836,-0.785,-0.660
13.839,-0.760,-0.650
13.842,-0.745,-0.640
13.844,-0.740,-0.630
13.847,-0.720,-0.625
13.850,-0.720,-0.625
13.853,-0.715,-0.625
13.856,-0.730,-0.635
13.858,-0.730,-0.640
13.861,-0.740,-0.630
13.864,-0.730,-0.635
13.867,-0.740,-0.635
13.869,-0.745,-0.615
13.872,-0.745,-0.610
13.875,-0.745,-0.595
13.878,-0.750,-0.585
13.881,-0.740,-0.580
13.883,-0.740,-0.575
13.886,-0.755,-0.595
13.889,-0.765,-0.595
13.892,-0.775,-0.600
13.894,-0.800,-0.605
13.897,-0.805,-0.595
13.900,-0.805,-0.600
13.903,-0.800,-0.585
13.906,-0.790,-0.575
13.908,-0.790,-0.575
13.911,-0.790,-0.570
13.914,-0.790,-0.565
13.917,-0.785,-0.575
13.919,-0.800,-0.580
13.922,-0.800,-0.590
13.925,-0.805,-0.610
13.928,-0.820,-0.595
13.931,-0.820,-0.595
13.933,-0.815,-0.595
13.936,-0.820,-0.580
13.939,-0.820,-0.585
13.942,-0.810,-0.575
13.944,-0.805,-0.570
13.947,-0.805,-0.585
13.950,-0.810,-0.585
13.953,-0.820,-0.605
13.956,-0.825,-0.615
13.958,-0.820,-0.625
13.961,-0.825,-0.625
13.964,-0.835,-0.615
13.967,-0.840,-0.610
13.969,-0.835,-0.605
13.972,-0.845,-0.590
13.975,-0.825,-0.580
13.978,-0.815,-0.575
13.981,-0.815,-0.580
13.983,-0.825,-0.575
13.986,-0.840,-0.615
13.989,-0.840,-0.595
13.992,-0.845,-0.605
13.994,-0.840,-0.610
13.997,-0.845,-0.620
14.000,-0.845,-0.615
14.003,-0.835,-0.615
14.006,-0.840,-0.615
14.008,-0.830,-0.595
14.011,-0.825,-0.590
14.014,-0.820,-0.585
14.017,-0.825,-0.595
14.019,-0.825,-0.590
14.022,-0.830,-0.595
14.025,-0.830,-0.605
14.028,-0.825,-0.610
14.031,-0.815,-0.620
14.033,-0.815,-0.600
14.036,-0.805,-0.590
14.039,-0.785,-0.575
14.042,-0.775,-0.560
14.044,-0.760,-0.565
14.047,-0.760,-0.570
14.050,-0.760,-0.580
14.053,-0.765,-0.580
14.056,-0.770,-0.585
14.058,-0.780,-0.585
14.061,-0.780,-0.585
14.064,-0.775,-0.590
14.067,-0.775,-0.595
14.069,-0.775,-0.585
14.072,-0.735,-0.585
14.075,-0.730,-0.575
14.078,-0.720,-0.580
14.081,-0.705,-0.585
14.083,-0.715,-0.595
14.086,-0.745,-0.600
14.089,-0.785,-0.610
14.092,-0.785,-0.620
14.094,-0.800,-0.635
14.097,-0.810,-0.635
14.100,-0.815,-0.620
14.103,-0.805,-0.615
14.106,-0.795,-0.600
14.108,-0.800,-0.600
14.111,-0.800,-0.600
14.114,-0.805,-0.600
14.117,-0.815,-0.605
14.119,-0.850,-0.620
14.122,-0.850,-0.610
14.125,-0.870,-0.605
14.128,-0.885,-0.605
14.131,-0.900,-0.590
14.133,-0.900,-0.605
14.136,-0.900,-0.585
14.139,-0.885,-0.585
14.142,-0.890,-0.565
14.144,-0.890,-0.560
14.147,-0.885,-0.570
14.150,-0.895,-0.565
14.153,-0.890,-0.585
14.156,-0.895,-0.580
14.158,-0.895,-0.590
14.161,-0.915,-0.600
14.164,-0.920,-0.590
14.167,-0.920,-0.580
14.169,-0.905,-0.575
14.172,-0.905,-0.575
14.175,-0.895,-0.570
14.178,-0.890,-0.560
14.181,-0.880,-0.570
14.183,-0.885,-0.575
14.186,-0.880,-0.570
14.189,-0.885,-0.570
14.192,-0.875,-0.575
14.194,-0.875,-0.570
14.197,-0.850,-0.585
14.200,-0.805,-0.570
14.203,-0.730,-0.585
14.206,-0.640,-0.585
14.208,-0.510,-0.585
14.211,-0.380,-0.600
14.214,-0.250,-0.635
14.217,-0.145,-0.665
14.219,-0.090,-0.680
14.222,-0.080,-0.720
14.225,-0.145,-0.735
14.228,-0.265,-0.740
14.231,-0.415,-0.740
14.233,-0.545,-0.735
14.236,-0.690,-0.700
14.239,-0.855,-0.655
14.242,-1.020,-0.580
14.244,-1.140,-0.505
14.247,-1.185,-0.415
14.250,-1.170,-0.310
14.253,-1.135,-0.210
14.256,-1.115,-0.150
14.258,-1.120,-0.175
14.261,-1.140,-0.250
14.264,-1.135,-0.340
14.267,-1.130,-0.430
14.269,-1.100,-0.505
14.272,-1.055,-0.545
14.275,-1.035,-0.565
14.278,-0.995,-0.560
14.281,-0.985,-0.560
14.283,-0.975,-0.570
14.286,-0.970,-0.585
14.289,-0.985,-0.585
14.292,-1.005,-0.600
14.294,-1.010,-0.615
14.297,-1.005,-0.615
14.300,-1.000,-0.615
14.303,-1.000,-0.595
14.306,-0.995,-0.600
14.308,-0.985,-0.590
14.311,-0.990,-0.575
14.314,-0.990,-0.590
14.317,-0.995,-0.595
14.319,-1.000,-0.590
14.322,-1.015,-0.595
14.325,-1.020,-0.600
14.328,-1.020,-0.615
14.331,-1.035,-0.605
14.333,-1.030,-0.610
14.336,-1.025,-0.600
14.339,-1.015,-0.600
14.342,-1.025,-0.600
14.344,-1.015,-0.585
14.347,-1.005,-0.580
14.350,-1.010,-0.585
14.353,-1.015,-0.605
14.356,-1.020,-0.595
14.358,-1.025,-0.605
14.361,-1.035,-0.615
14.364,-1.050,-0.630
14.367,-1.045,-0.625
14.369,-1.050,-0.605
14.372,-1.055,-0.610
14.375,-1.045,-0.595
14.378,-1.040,-0.590
14.381,-1.035,-0.605
14.383,-1.040,-0.610
14.386,-1.055,-0.610
14.389,-1.065,-0.620
14.392,-1.085,-0.630
14.394,-1.075,-0.625
14.397,-1.080,-0.635
14.400,-1.080,-0.630
14.403,-1.075,-0.630
14.406,-1.070,-0.625
14.408,-1.065,-0.615
14.411,-1.060,-0.605
14.414,-1.060,-0.625
14.417,-1.065,-0.615
14.419,-1.075,-0.620
14.422,-1.075,-0.630
14.425,-1.095,-0.635
14.428,-1.110,-0.635
14.431,-1.115,-0.645
14.433,-1.100,-0.640
14.436,-1.110,-0.645
14.439,-1.095,-0.635
14.442,-1.080,-0.635
14.444,-1.080,-0.620
14.447,-1.070,-0.635
14.450,-1.070,-0.635
14.453,-1.080,-0.655
14.456,-1.095,-0.655
14.458,-1.100,-0.670
14.461,-1.085,-0.675
14.464,-1.080,-0.670
14.467,-1.080,-0.670
14.469,-1.075,-0.665
14.472,-1.065,-0.665
14.475,-1.050,-0.655
14.478,-1.040,-0.655
14.481,-1.020,-0.645
14.483,-1.005,-0.665
14.486,-0.995,-0.660
14.489,-0.990,-0.670
14.492,-0.975,-0.665
14.494,-0.960,-0.675
14.497,-0.955,-0.675
14.500,-0.945,-0.680
14.503,-0.915,-0.655
14.506,-0.900,-0.655
14.508,-0.860,-0.660
14.511,-0.840,-0.650
14.514,-0.805,-0.655
14.517,-0.810,-0.650
14.519,-0.790,-0.655
14.522,-0.800,-0.650
14.525,-0.790,-0.650
14.528,-0.790,-0.655
14.531,-0.795,-0.660
14.533,-0.770,-0.640
14.536,-0.755,-0.635
14.539,-0.745,-0.620
14.542,-0.730,-0.610
14.544,-0.725,-0.590
14.547,-0.725,-0.585
14.550,-0.735,-0.575
14.553,-0.735,-0.600
14.556,-0.745,-0.615
14.558,-0.755,-0.625
14.561,-0.770,-0.615
14.564,-0.775,-0.605
14.567,-0.770,-0.600
14.569,-0.770,-0.580
14.572,-0.765,-0.580
14.575,-0.760,-0.575
14.578,-0.755,-0.560
14.581,-0.760,-0.560
14.583,-0.765,-0.565
14.586,-0.770,-0.560
14.589,-0.770,-0.575
14.592,-0.795,-0.565
14.594,-0.810,-0.585
14.597,-0.810,-0.585
14.600,-0.805,-0.580
14.603,-0.805,-0.575
14.606,-0.795,-0.570
14.608,-0.800,-0.550
14.611,-0.785,-0.555
14.614,-0.780,-0.555
14.617,-0.775,-0.570
14.619,-0.790,-0.575
14.622,-0.795,-0.580
14.625,-0.810,-0.585
14.628,-0.810,-0.600
14.631,-0.810,-0.595
14.633,-0.815,-0.585
14.636,-0.820,-0.575
14.639,-0.800,-0.570
14.642,-0.800,-0.570
14.644,-0.800,-0.555
14.647,-0.795,-0.575
14.650,-0.800,-0.580
14.653,-0.795,-0.580
14.656,-0.805,-0.590
14.658,-0.825,-0.605
14.661,-0.835,-0.600
14.664,-0.835,-0.600
14.667,-0.820,-0.600
14.669,-0.810,-0.605
14.672,-0.800,-0.580
14.675,-0.795,-0.580
14.678,-0.785,-0.575
14.681,-0.780,-0.565
14.683,-0.785,-0.565
14.686,-0.795,-0.575
14.689,-0.800,-0.580
14.692,-0.800,-0.565
14.694,-0.805,-0.585
14.697,-0.810,-0.580
14.700,-0.790,-0.575
14.703,-0.775,-0.580
14.706,-0.775,-0.555
14.708,-0.750,-0.545
14.711,-0.755,-0.530
14.714,-0.745,-0.535
14.717,-0.745,-0.530
14.719,-0.735,-0.525
14.722,-0.750,-0.545
14.725,-0.760,-0.555
14.728,-0.770,-0.560
14.731,-0.750,-0.560
14.733,-0.745,-0.575
14.736,-0.735,-0.555
14.739,-0.710,-0.560
14.742,-0.685,-0.550
14.744,-0.670,-0.560
14.747,-0.670,-0.565
14.750,-0.685,-0.570
14.753,-0.680,-0.585
14.756,-0.705,-0.600
14.758,-0.725,-0.610
14.761,-0.740,-0.625
14.764,-0.755,-0.630
14.767,-0.750,-0.625
14.769,-0.750,-0.610
14.772,-0.750,-0.615
14.775,-0.765,-0.595
14.778,-0.760,-0.580
14.781,-0.775,-0.560
14.783,-0.795,-0.555
14.786,-0.810,-0.570
14.789,-0.825,-0.570
14.792,-0.845,-0.570
14.794,-0.855,-0.575
14.797,-0.870,-0.580
14.800,-0.870,-0.575
14.803,-0.865,-0.570
14.806,-0.865,-0.565
14.808,-0.865,-0.555
14.811,-0.855,-0.545
14.814,-0.845,-0.550
14.817,-0.860,-0.550
14.819,-0.850,-0.555
14.822,-0.860,-0.565
14.825,-0.880,-0.580
14.828,-0.885,-0.590
14.831,-0.860,-0.600
14.833,-0.870,-0.580
14.836,-0.880,-0.580
14.839,-0.875,-0.580
14.842,-0.860,-0.565
14.844,-0.855,-0.550
14.847,-0.855,-0.550
14.850,-0.845,-0.550
14.853,-0.840,-0.560
14.856,-0.840,-0.565
14.858,-0.855,-0.575
14.861,-0.850,-0.565
14.864,-0.850,-0.585
14.867,-0.825,-0.570
14.869,-0.770,-0.555
14.872,-0.700,-0.560
14.875,-0.625,-0.565
14.878,-0.535,-0.580
14.881,-0.405,-0.590
14.883,-0.265,-0.610
14.886,-0.140,-0.635
14.889,-0.065,-0.655
14.892,-0.030,-0.670
14.894,-0.050,-0.680
14.897,-0.120,-0.670
14.900,-0.240,-0.680
14.903,-0.355,-0.675
14.906,-0.470,-0.665
14.908,-0.595,-0.660
14.911,-0.710,-0.620
14.914,-0.855,-0.605
14.917,-0.985,-0.570
14.919,-1.080,-0.520
14.922,-1.110,-0.450
14.925,-1.100,-0.355
14.928,-1.070,-0.275
14.931,-1.065,-0.215
14.933,-1.080,-0.215
14.936,-1.090,-0.240
14.939,-1.075,-0.315
14.942,-1.055,-0.375
14.944,-1.035,-0.440
14.947,-1.010,-0.485
14.950,-0.995,-0.520
14.953,-0.975,-0.540
14.956,-0.965,-0.560
14.958,-0.965,-0.575
14.961,-0.975,-0.585
14.964,-0.975,-0.595
14.967,-0.970,-0.580
14.969,-0.965,-0.570
14.972,-0.965,-0.560
14.975,-0.950,-0.565
14.978,-0.950,-0.565
14.981,-0.950,-0.545
14.983,-0.950,-0.555
14.986,-0.960,-0.555
14.989,-0.965,-0.575
14.992,-0.970,-0.580
14.994,-0.985,-0.580
14.997,-0.980,-0.575
15.000,-0.975,-0.580
15.003,-0.965,-0.575
15.006,-0.980,-0.560
15.008,-0.960,-0.565
15.011,-0.965,-0.555
15.014,-0.970,-0.560
15.017,-0.970,-0.570
15.019,-0.980,-0.570
15.022,-1.000,-0.580
15.025,-0.990,-0.595
15.028,-0.990,-0.595
15.031,-1.005,-0.600
15.033,-1.000,-0.585
15.036,-0.995,-0.585
15.039,-0.990,-0.575
15.042,-0.985,-0.560
15.044,-0.990,-0.555
15.047,-0.985,-0.570
15.050,-0.990,-0.560
15.053,-1.000,-0.565
15.056,-1.010,-0.575
15.058,-0.995,-0.590
15.061,-1.015,-0.590
15.064,-1.025,-0.595
15.067,-1.025,-0.585
15.069,-1.025,-0.585
15.072,-1.030,-0.565
15.075,-1.030,-0.575
15.078,-1.020,-0.565
15.081,-1.020,-0.560
15.083,-1.025,-0.570
15.086,-1.040,-0.570
15.089,-1.045,-0.585
15.092,-1.040,-0.590
15.094,-1.075,-0.595
15.097,-1.085,-0.600
15.100,-1.085,-0.605
15.103,-1.090,-0.600
15.106,-1.080,-0.590
15.108,-1.075,-0.580
15.111,-1.080,-0.580
15.114,-1.075,-0.580
15.117,-1.070,-0.585
15.119,-1.075,-0.595
15.122,-1.085,-0.600
15.125,-1.090,-0.605
15.128,-1.100,-0.610
15.131,-1.120,-0.610
15.133,-1.125,-0.610
15.136,-1.105,-0.605
15.139,-1.105,-0.585
15.142,-1.090,-0.590
15.144,-1.085,-0.580
15.147,-1.080,-0.580
15.150,-1.080,-0.595
15.153,-1.080,-0.595
15.156,-1.080,-0.610
15.158,-1.085,-0.625
15.161,-1.085,-0.615
15.164,-1.080,-0.620
15.167,-1.070,-0.610
15.169,-1.065,-0.600
15.172,-1.050,-0.585
15.175,-1.040,-0.600
15.178,-1.015,-0.590
15.181,-1.015,-0.590
15.183,-1.000,-0.600
15.186,-0.985,-0.595
15.189,-0.975,-0.610
15.192,-0.960,-0.615
15.194,-0.945,-0.625
15.197,-0.930,-0.625
15.200,-0.915,-0.630
15.203,-0.880,-0.625
15.206,-0.850,-0.605
15.208,-0.815,-0.600
15.211,-0.785,-0.600
15.214,-0.755,-0.595
15.217,-0.740,-0.600
15.219,-0.730,-0.605
15.222,-0.720,-0.590
15.225,-0.730,-0.605
15.228,-0.725,-0.605
15.231,-0.715,-0.595
15.233,-0.725,-0.590
15.236,-0.725,-0.580
15.239,-0.710,-0.555
15.242,-0.695,-0.555
15.244,-0.685,-0.535
15.247,-0.680,-0.530
15.250,-0.685,-0.535
15.253,-0.690,-0.535
15.256,-0.700,-0.545
15.258,-0.715,-0.555
15.261,-0.730,-0.550
15.264,-0.735,-0.550
15.267,-0.730,-0.545
15.269,-0.720,-0.535
15.272,-0.715,-0.535
15.275,-0.730,-0.535
15.278,-0.710,-0.525
15.281,-0.715,-0.525
15.283,-0.725,-0.520
15.286,-0.720,-0.525
15.289,-0.725,-0.550
15.292,-0.735,-0.550
15.294,-0.740,-0.555
15.297,-0.745,-0.550
15.300,-0.745,-0.555
15.303,-0.745,-0.550
15.306,-0.735,-0.540
15.308,-0.735,-0.535
15.311,-0.735,-0.520
15.314,-0.730,-0.525
15.317,-0.740,-0.530
15.319,-0.745,-0.530
15.322,-0.750,-0.530
15.325,-0.755,-0.540
15.328,-0.755,-0.555
15.331,-0.765,-0.555
15.333,-0.770,-0.560
15.336,-0.770,-0.540
15.339,-0.750,-0.530
15.342,-0.760,-0.525
15.344,-0.760,-0.525
15.347,-0.755,-0.535
15.350,-0.750,-0.535
15.353,-0.760,-0.535
15.356,-0.760,-0.535
15.358,-0.770,-0.560
15.361,-0.790,-0.570
15.364,-0.795,-0.575
15.367,-0.785,-0.560
15.369,-0.770,-0.560
15.372,-0.765,-0.545
15.375,-0.765,-0.530
15.378,-0.760,-0.540
15.381,-0.760,-0.545
15.383,-0.760,-0.545
15.386,-0.755,-0.550
15.389,-0.765,-0.565
15.392,-0.770,-0.575
15.394,-0.770,-0.570
15.397,-0.780,-0.565
15.400,-0.765,-0.560
15.403,-0.765,-0.555
15.406,-0.750,-0.550
15.408,-0.730,-0.530
15.411,-0.730,-0.530
15.414,-0.710,-0.530
15.417,-0.710,-0.520
15.419,-0.685,-0.530
15.422,-0.685,-0.530
15.425,-0.685,-0.540
15.428,-0.690,-0.535
15.431,-0.685,-0.530
15.433,-0.680,-0.520
15.436,-0.675,-0.520
15.439,-0.680,-0.500
15.442,-0.670,-0.505
15.444,-0.660,-0.520
15.447,-0.645,-0.515
15.450,-0.650,-0.540
15.453,-0.640,-0.545
15.456,-0.635,-0.565
15.458,-0.640,-0.575
15.461,-0.635,-0.585
15.464,-0.660,-0.585
15.467,-0.680,-0.575
15.469,-0.685,-0.580
15.472,-0.705,-0.575
15.475,-0.705,-0.570
15.478,-0.725,-0.555
15.481,-0.715,-0.580
15.483,-0.715,-0.570
15.486,-0.725,-0.575
15.489,-0.725,-0.585
15.492,-0.745,-0.580
15.494,-0.755,-0.585
15.497,-0.775,-0.585
15.500,-0.790,-0.570
15.503,-0.800,-0.545
15.506,-0.795,-0.525
15.508,-0.800,-0.530
15.511,-0.815,-0.520
15.514,-0.805,-0.520
15.517,-0.815,-0.525
15.519,-0.825,-0.540
15.522,-0.830,-0.540
15.525,-0.830,-0.540
15.528,-0.830,-0.550
15.531,-0.835,-0.550
15.533,-0.835,-0.545
15.536,-0.845,-0.540
15.539,-0.835,-0.550
15.542,-0.825,-0.545
15.544,-0.815,-0.545
15.547,-0.805,-0.525
15.550,-0.810,-0.540
15.553,-0.815,-0.540
15.556,-0.805,-0.540
15.558,-0.820,-0.560
15.561,-0.825,-0.560
15.564,-0.825,-0.570
15.567,-0.825,-0.545
15.569,-0.815,-0.540
15.572,-0.805,-0.525
15.575,-0.780,-0.515
15.578,-0.760,-0.500
15.581,-0.710,-0.500
15.583,-0.665,-0.505
15.586,-0.600,-0.525
15.589,-0.510,-0.545
15.592,-0.405,-0.560
15.594,-0.275,-0.590
15.597,-0.165,-0.610
15.600,-0.050,-0.625
15.603,0.020,-0.640
15.606,0.020,-0.625
15.608,-0.050,-0.625
15.611,-0.195,-0.635
15.614,-0.350,-0.650
15.617,-0.545,-0.655
15.619,-0.745,-0.645
15.622,-0.930,-0.585
15.625,-1.045,-0.525
15.628,-1.095,-0.405
15.631,-1.085,-0.325
15.633,-1.050,-0.270
15.636,-1.000,-0.290
15.639,-0.945,-0.335
15.642,-0.930,-0.395
15.644,-0.900,-0.440
15.647,-0.905,-0.490
15.650,-0.915,-0.525
15.653,-0.925,-0.550
15.656,-0.945,-0.565
15.658,-0.940,-0.560
15.661,-0.950,-0.555
15.664,-0.940,-0.565
15.667,-0.935,-0.555
15.669,-0.940,-0.540
15.672,-0.925,-0.535
15.675,-0.930,-0.535
15.678,-0.930,-0.535
15.681,-0.925,-0.525
15.683,-0.930,-0.550
15.686,-0.925,-0.545
15.689,-0.950,-0.560
15.692,-0.955,-0.555
15.694,-0.955,-0.555
15.697,-0.960,-0.565
15.700,-0.960,-0.560
15.703,-0.955,-0.560
15.706,-0.955,-0.560
15.708,-0.950,-0.540
15.711,-0.945,-0.540
15.714,-0.940,-0.545
15.717,-0.940,-0.535
15.719,-0.940,-0.555
15.722,-0.950,-0.555
15.725,-0.960,-0.560
15.728,-0.960,-0.580
15.731,-0.965,-0.575
15.733,-0.975,-0.575
15.736,-0.980,-0.585
15.739,-0.970,-0.565
15.742,-0.970,-0.560
15.744,-0.965,-0.550
15.747,-0.965,-0.555
15.750,-0.970,-0.555
15.753,-0.980,-0.560
15.756,-1.010,-0.575
15.758,-1.020,-0.575
15.761,-1.000,-0.580
15.764,-1.010,-0.570
15.767,-1.015,-0.585
15.769,-1.005,-0.575
15.772,-1.005,-0.575
15.775,-1.005,-0.575
15.778,-0.995,-0.555
15.781,-1.010,-0.560
15.783,-1.010,-0.570
15.786,-1.015,-0.575
15.789,-1.025,-0.590
15.792,-1.035,-0.590
15.794,-1.040,-0.595
15.797,-1.045,-0.590
15.800,-1.055,-0.595
15.803,-1.055,-0.585
15.806,-1.060,-0.585
15.808,-1.045,-0.570
15.811,-1.045,-0.570
15.814,-1.050,-0.575
15.817,-1.060,-0.575
15.819,-1.070,-0.590
15.822,-1.075,-0.605
15.825,-1.085,-0.605
15.828,-1.090,-0.610
15.831,-1.085,-0.600
15.833,-1.090,-0.610
15.836,-1.085,-0.590
15.839,-1.090,-0.590
15.842,-1.080,-0.605
15.844,-1.065,-0.590
15.847,-1.050,-0.575
15.850,-1.050,-0.575
15.853,-1.060,-0.580
15.856,-1.045,-0.595
15.858,-1.050,-0.590
15.861,-1.050,-0.600
15.864,-1.035,-0.605
15.867,-1.040,-0.595
15.869,-1.025,-0.600
15.872,-1.010,-0.590
15.875,-0.985,-0.580
15.878,-0.970,-0.575
15.881,-0.945,-0.565
15.883,-0.925,-0.580
15.886,-0.915,-0.585
15.889,-0.895,-0.595
15.892,-0.890,-0.610
15.894,-0.880,-0.610
15.897,-0.855,-0.620
15.900,-0.830,-0.610
15.903,-0.815,-0.620
15.906,-0.785,-0.605
15.908,-0.755,-0.605
15.911,-0.745,-0.590
15.914,-0.710,-0.595
15.917,-0.715,-0.585
15.919,-0.710,-0.595
15.922,-0.700,-0.590
15.925,-0.695,-0.610
15.928,-0.700,-0.605
15.931,-0.700,-0.595
15.933,-0.705,-0.595
15.936,-0.700,-0.580
15.939,-0.695,-0.570
15.942,-0.695,-0.565
15.944,-0.695,-0.550
15.947,-0.685,-0.555
15.950,-0.695,-0.545
15.953,-0.705,-0.550
15.956,-0.710,-0.560
15.958,-0.720,-0.560
15.961,-0.730,-0.570
15.964,-0.720,-0.565
15.967,-0.725,-0.560
15.969,-0.730,-0.555
15.972,-0.730,-0.555
15.975,-0.720,-0.535
15.978,-0.720,-0.530
15.981,-0.715,-0.530
15.983,-0.720,-0.525
15.986,-0.730,-0.540
15.989,-0.745,-0.545
15.992,-0.740,-0.555
15.994,-0.750,-0.555
15.997,-0.745,-0.565
16.000,-0.755,-0.560
16.003,-0.760,-0.570
16.006,-0.760,-0.555
16.008,-0.745,-0.555
16.011,-0.740,-0.540
16.014,-0.735,-0.535
16.017,-0.740,-0.540
16.019,-0.760,-0.545
16.022,-0.760,-0.550
16.025,-0.765,-0.570
16.028,-0.770,-0.580
16.031,-0.775,-0.570
16.033,-0.775,-0.570
16.036,-0.785,-0.560
16.039,-0.780,-0.555
16.042,-0.770,-0.545
16.044,-0.765,-0.540
16.047,-0.760,-0.540
16.050,-0.765,-0.545
16.053,-0.770,-0.545
16.056,-0.770,-0.560
16.058,-0.780,-0.565
16.061,-0.785,-0.570
16.064,-0.800,-0.570
16.067,-0.800,-0.570
16.069,-0.795,-0.565
16.072,-0.780,-0.560
16.075,-0.780,-0.560
16.078,-0.770,-0.550
16.081,-0.780,-0.555
16.083,-0.770,-0.550
16.086,-0.765,-0.560
16.089,-0.770,-0.570
16.092,-0.775,-0.570
16.094,-0.765,-0.580
16.097,-0.765,-0.585
16.100,-0.755,-0.570
16.103,-0.740,-0.555
16.106,-0.725,-0.535
16.108,-0.710,-0.525
16.111,-0.700,-0.515
16.114,-0.680,-0.505
16.117,-0.680,-0.510
16.119,-0.675,-0.525
16.122,-0.685,-0.545
16.125,-0.710,-0.530
16.128,-0.700,-0.550
16.131,-0.705,-0.560
16.133,-0.705,-0.565
16.136,-0.695,-0.565
16.139,-0.675,-0.550
16.142,-0.655,-0.550
16.144,-0.650,-0.530
16.147,-0.640,-0.550
16.150,-0.650,-0.555
16.153,-0.670,-0.555
16.156,-0.680,-0.585
16.158,-0.710,-0.585
16.161,-0.730,-0.600
16.164,-0.745,-0.600
16.167,-0.760,-0.600
16.169,-0.760,-0.595
16.172,-0.750,-0.585
16.175,-0.740,-0.580
16.178,-0.740,-0.570
16.181,-0.740,-0.570
16.183,-0.770,-0.585
16.186,-0.770,-0.585
16.189,-0.810,-0.575
16.192,-0.815,-0.570
16.194,-0.825,-0.575
16.197,-0.835,-0.565
16.200,-0.845,-0.550
16.203,-0.855,-0.560
16.206,-0.855,-0.545
16.208,-0.840,-0.545
16.211,-0.835,-0.535
16.214,-0.830,-0.530
16.217,-0.840,-0.545
16.219,-0.840,-0.540
16.222,-0.845,-0.550
16.225,-0.845,-0.545
16.228,-0.850,-0.565
16.231,-0.850,-0.550
16.233,-0.860,-0.545
16.236,-0.865,-0.545
16.239,-0.855,-0.545
16.242,-0.840,-0.540
16.244,-0.835,-0.515
16.247,-0.820,-0.520
16.250,-0.825,-0.515
16.253,-0.825,-0.525
16.256,-0.830,-0.530
16.258,-0.845,-0.535
16.261,-0.835,-0.530
16.264,-0.835,-0.540
16.267,-0.820,-0.540
16.269,-0.780,-0.535
16.272,-0.710,-0.535
16.275,-0.640,-0.530
16.278,-0.545,-0.535
16.281,-0.420,-0.550
16.283,-0.295,-0.575
16.286,-0.165,-0.590
16.289,-0.065,-0.620
16.292,-0.010,-0.630
16.294,-0.010,-0.640
16.297,-0.085,-0.655
16.300,-0.210,-0.665
16.303,-0.350,-0.665
16.306,-0.480,-0.675
16.308,-0.615,-0.655
16.311,-0.780,-0.635
16.314,-0.915,-0.600
16.317,-1.035,-0.570
16.319,-1.100,-0.485
16.322,-1.110,-0.395
16.325,-1.085,-0.315
16.328,-1.065,-0.295
16.331,-1.040,-0.310
16.333,-1.010,-0.335
16.336,-0.980,-0.415
16.339,-0.965,-0.455
16.342,-0.965,-0.480
