'Elapsed time','MLII','V1'
'seconds','mV','mV'
0.000,-0.460,0.130
0.003,-0.460,0.130
0.006,-0.460,0.130
0.008,-0.460,0.130
0.011,-0.460,0.130
0.014,-0.460,0.130
0.017,-0.460,0.130
0.019,-0.460,0.130
0.022,-0.455,0.130
0.025,-0.455,0.140
0.028,-0.440,0.140
0.031,-0.435,0.145
0.033,-0.430,0.125
0.036,-0.445,0.120
0.039,-0.440,0.115
0.042,-0.435,0.130
0.044,-0.425,0.140
0.047,-0.415,0.145
0.050,-0.430,0.140
0.053,-0.435,0.125
0.056,-0.470,0.120
0.058,-0.455,0.130
0.061,-0.415,0.135
0.064,-0.425,0.130
0.067,-0.440,0.115
0.069,-0.445,0.110
0.072,-0.435,0.110
0.075,-0.435,0.140
0.078,-0.425,0.150
0.081,-0.420,0.140
0.083,-0.430,0.125
0.086,-0.440,0.125
0.089,-0.460,0.125
0.092,-0.435,0.125
0.094,-0.435,0.145
0.097,-0.415,0.140
0.100,-0.425,0.135
0.103,-0.435,0.120
0.106,-0.435,0.120
0.108,-0.435,0.130
0.111,-0.415,0.140
0.114,-0.410,0.140
0.117,-0.430,0.110
0.119,-0.435,0.110
0.122,-0.450,0.110
0.125,-0.430,0.115
0.128,-0.405,0.120
0.131,-0.410,0.125
0.133,-0.415,0.120
0.136,-0.425,0.105
0.139,-0.440,0.110
0.142,-0.430,0.115
0.144,-0.415,0.130
0.147,-0.415,0.125
0.150,-0.415,0.115
0.153,-0.435,0.100
0.156,-0.435,0.105
0.158,-0.430,0.115
0.161,-0.415,0.135
0.164,-0.405,0.125
0.167,-0.410,0.110
0.169,-0.440,0.110
0.172,-0.440,0.105
0.175,-0.425,0.115
0.178,-0.410,0.125
0.181,-0.410,0.125
0.183,-0.415,0.110
0.186,-0.425,0.085
0.189,-0.435,0.095
0.192,-0.430,0.105
0.194,-0.420,0.125
0.197,-0.400,0.120
0.200,-0.410,0.110
0.203,-0.425,0.090
0.206,-0.430,0.100
0.208,-0.430,0.110
0.211,-0.410,0.125
0.214,-0.405,0.110
0.217,-0.405,0.105
0.219,-0.415,0.100
0.222,-0.430,0.095
0.225,-0.435,0.110
0.228,-0.425,0.135
0.231,-0.395,0.125
0.233,-0.400,0.105
0.236,-0.405,0.100
0.239,-0.415,0.105
0.242,-0.410,0.115
0.244,-0.405,0.120
0.247,-0.395,0.130
0.250,-0.405,0.100
0.253,-0.415,0.100
0.256,-0.415,0.095
0.258,-0.415,0.110
0.261,-0.395,0.125
0.264,-0.395,0.115
0.267,-0.390,0.100
0.269,-0.400,0.095
0.272,-0.405,0.100
0.275,-0.400,0.110
0.278,-0.400,0.130
0.281,-0.385,0.130
0.283,-0.385,0.120
0.286,-0.405,0.115
0.289,-0.400,0.115
0.292,-0.385,0.135
0.294,-0.370,0.150
0.297,-0.345,0.160
0.300,-0.355,0.135
0.303,-0.355,0.130
0.306,-0.355,0.125
0.308,-0.340,0.145
0.311,-0.320,0.145
0.314,-0.295,0.140
0.317,-0.305,0.115
0.319,-0.320,0.085
0.322,-0.320,0.085
0.325,-0.310,0.095
0.328,-0.280,0.095
0.331,-0.275,0.080
0.333,-0.285,0.075
0.336,-0.300,0.070
0.339,-0.305,0.075
0.342,-0.305,0.090
0.344,-0.290,0.095
0.347,-0.275,0.100
0.350,-0.285,0.090
0.353,-0.305,0.075
0.356,-0.325,0.090
0.358,-0.320,0.105
0.361,-0.335,0.105
0.364,-0.335,0.095
0.367,-0.360,0.080
0.369,-0.365,0.070
0.372,-0.365,0.070
0.375,-0.360,0.090
0.378,-0.350,0.105
0.381,-0.355,0.090
0.383,-0.370,0.085
0.386,-0.355,0.075
0.389,-0.370,0.080
0.392,-0.355,0.100
0.394,-0.355,0.115
0.397,-0.355,0.110
0.400,-0.350,0.090
0.403,-0.355,0.080
0.406,-0.360,0.080
0.408,-0.360,0.095
0.411,-0.350,0.125
0.414,-0.335,0.115
0.417,-0.330,0.095
0.419,-0.335,0.090
0.422,-0.345,0.110
0.425,-0.330,0.145
0.428,-0.310,0.175
0.431,-0.310,0.210
0.433,-0.305,0.250
0.436,-0.335,0.275
0.439,-0.375,0.270
0.442,-0.400,0.290
0.444,-0.415,0.280
0.447,-0.420,0.225
0.450,-0.390,0.145
0.453,-0.350,0.035
0.456,-0.200,-0.075
0.458,0.090,-0.170
0.461,0.490,-0.230
0.464,0.960,-0.295
0.467,1.390,-0.295
0.469,1.755,-0.265
0.472,1.990,-0.185
0.475,2.090,-0.065
0.478,2.050,-0.005
0.481,1.720,0.040
0.483,1.080,0.030
0.486,0.440,0.005
0.489,-0.200,0.015
0.492,-0.640,0.050
0.494,-0.595,0.085
0.497,-0.490,0.105
0.500,-0.460,0.100
0.503,-0.495,0.090
0.506,-0.515,0.085
0.508,-0.500,0.100
0.511,-0.465,0.105
0.514,-0.440,0.125
0.517,-0.430,0.115
0.519,-0.375,0.105
0.522,-0.345,0.110
0.525,-0.305,0.130
0.528,-0.290,0.140
0.531,-0.250,0.130
0.533,-0.250,0.115
0.536,-0.270,0.110
0.539,-0.285,0.110
0.542,-0.280,0.120
0.544,-0.255,0.120
0.547,-0.235,0.120
0.550,-0.255,0.110
0.553,-0.260,0.100
0.556,-0.255,0.105
0.558,-0.250,0.125
0.561,-0.245,0.135
0.564,-0.230,0.130
0.567,-0.230,0.110
0.569,-0.250,0.115
0.572,-0.260,0.115
0.575,-0.250,0.120
0.578,-0.225,0.130
0.581,-0.215,0.130
0.583,-0.220,0.125
0.586,-0.240,0.100
0.589,-0.235,0.105
0.592,-0.235,0.110
0.594,-0.210,0.130
0.597,-0.195,0.110
0.600,-0.200,0.105
0.603,-0.215,0.100
0.606,-0.215,0.110
0.608,-0.210,0.115
0.611,-0.195,0.125
0.614,-0.195,0.115
0.617,-0.210,0.110
0.619,-0.220,0.105
0.622,-0.215,0.105
0.625,-0.195,0.115
0.628,-0.175,0.130
0.631,-0.165,0.120
0.633,-0.185,0.105
0.636,-0.190,0.115
0.639,-0.195,0.105
0.642,-0.195,0.105
0.644,-0.175,0.130
0.647,-0.170,0.130
0.650,-0.160,0.110
0.653,-0.170,0.095
0.656,-0.190,0.105
0.658,-0.175,0.125
0.661,-0.150,0.140
0.664,-0.135,0.125
0.667,-0.140,0.115
0.669,-0.135,0.110
0.672,-0.145,0.110
0.675,-0.130,0.115
0.678,-0.115,0.130
0.681,-0.105,0.115
0.683,-0.100,0.115
0.686,-0.100,0.105
0.689,-0.115,0.105
0.692,-0.095,0.115
0.694,-0.060,0.135
0.697,-0.050,0.115
0.700,-0.055,0.115
0.703,-0.050,0.090
0.706,-0.050,0.095
0.708,-0.030,0.120
0.711,-0.010,0.110
0.714,0.000,0.130
0.717,0.015,0.110
0.719,-0.005,0.095
0.722,0.025,0.095
0.725,0.035,0.105
0.728,0.060,0.100
0.731,0.085,0.100
0.733,0.105,0.095
0.736,0.100,0.080
0.739,0.110,0.090
0.742,0.130,0.105
0.744,0.170,0.105
0.747,0.205,0.110
0.750,0.215,0.090
0.753,0.235,0.085
0.756,0.250,0.090
0.758,0.285,0.095
0.761,0.305,0.110
0.764,0.345,0.105
0.767,0.360,0.090
0.769,0.380,0.070
0.772,0.395,0.075
0.775,0.435,0.090
0.778,0.460,0.095
0.781,0.495,0.085
0.783,0.515,0.085
0.786,0.535,0.065
0.789,0.540,0.070
0.792,0.580,0.070
0.794,0.625,0.080
0.797,0.655,0.070
0.800,0.670,0.050
0.803,0.690,0.055
0.806,0.700,0.060
0.808,0.730,0.080
0.811,0.750,0.080
0.814,0.785,0.085
0.817,0.805,0.070
0.819,0.800,0.070
0.822,0.795,0.060
0.825,0.805,0.090
0.828,0.810,0.095
0.831,0.790,0.095
0.833,0.760,0.095
0.836,0.720,0.075
0.839,0.675,0.085
0.842,0.630,0.090
0.844,0.580,0.110
0.847,0.550,0.105
0.850,0.480,0.110
0.853,0.420,0.095
0.856,0.335,0.105
0.858,0.285,0.120
0.861,0.230,0.130
0.864,0.170,0.135
0.867,0.105,0.110
0.869,0.040,0.100
0.872,-0.040,0.095
0.875,-0.075,0.105
0.878,-0.100,0.115
0.881,-0.135,0.105
0.883,-0.180,0.115
0.886,-0.230,0.105
0.889,-0.260,0.100
0.892,-0.275,0.115
0.894,-0.280,0.120
0.897,-0.270,0.115
0.900,-0.295,0.105
0.903,-0.325,0.095
0.906,-0.355,0.095
0.908,-0.350,0.105
0.911,-0.350,0.115
0.914,-0.350,0.120
0.917,-0.370,0.115
0.919,-0.390,0.095
0.922,-0.395,0.100
0.925,-0.390,0.110
0.928,-0.380,0.110
0.931,-0.385,0.120
0.933,-0.380,0.100
0.936,-0.410,0.110
0.939,-0.410,0.100
0.942,-0.415,0.130
0.944,-0.410,0.125
0.947,-0.390,0.115
0.950,-0.395,0.120
0.953,-0.410,0.100
0.956,-0.425,0.105
0.958,-0.415,0.120
0.961,-0.400,0.135
0.964,-0.385,0.120
0.967,-0.395,0.120
0.969,-0.410,0.110
0.972,-0.420,0.095
0.975,-0.405,0.115
0.978,-0.400,0.135
0.981,-0.390,0.130
0.983,-0.400,0.115
0.986,-0.405,0.105
0.989,-0.425,0.115
0.992,-0.430,0.120
0.994,-0.395,0.140
0.997,-0.395,0.135
1.000,-0.400,0.120
1.003,-0.425,0.115
1.006,-0.420,0.110
1.008,-0.425,0.130
1.011,-0.400,0.145
1.014,-0.395,0.130
1.017,-0.395,0.130
1.019,-0.405,0.120
1.022,-0.420,0.120
1.025,-0.420,0.135
1.028,-0.420,0.150
1.031,-0.405,0.130
1.033,-0.410,0.125
1.036,-0.410,0.115
1.039,-0.430,0.115
1.042,-0.420,0.135
1.044,-0.405,0.140
1.047,-0.400,0.140
1.050,-0.420,0.125
1.053,-0.425,0.120
1.056,-0.435,0.130
1.058,-0.430,0.140
1.061,-0.420,0.135
1.064,-0.400,0.150
1.067,-0.410,0.140
1.069,-0.440,0.130
1.072,-0.440,0.130
1.075,-0.430,0.145
1.078,-0.420,0.150
1.081,-0.430,0.150
1.083,-0.440,0.140
1.086,-0.455,0.120
1.089,-0.455,0.125
1.092,-0.455,0.135
1.094,-0.435,0.155
1.097,-0.425,0.150
1.100,-0.440,0.130
1.103,-0.455,0.125
1.106,-0.465,0.135
1.108,-0.455,0.150
1.111,-0.445,0.165
1.114,-0.430,0.155
1.117,-0.455,0.135
1.119,-0.470,0.130
1.122,-0.470,0.140
1.125,-0.465,0.155
1.128,-0.460,0.160
1.131,-0.450,0.150
1.133,-0.460,0.145
1.136,-0.455,0.140
1.139,-0.465,0.135
1.142,-0.460,0.155
1.144,-0.460,0.175
1.147,-0.450,0.165
1.150,-0.455,0.155
1.153,-0.470,0.150
1.156,-0.480,0.145
1.158,-0.480,0.160
1.161,-0.460,0.165
1.164,-0.450,0.175
1.167,-0.450,0.155
1.169,-0.465,0.150
1.172,-0.470,0.155
1.175,-0.470,0.175
1.178,-0.455,0.185
1.181,-0.440,0.190
1.183,-0.450,0.165
1.186,-0.460,0.155
1.189,-0.470,0.160
1.192,-0.460,0.170
1.194,-0.455,0.175
1.197,-0.460,0.175
1.200,-0.450,0.180
1.203,-0.465,0.155
1.206,-0.480,0.170
1.208,-0.465,0.185
1.211,-0.445,0.195
1.214,-0.445,0.195
1.217,-0.455,0.185
1.219,-0.475,0.170
1.222,-0.465,0.185
1.225,-0.470,0.195
1.228,-0.445,0.210
1.231,-0.450,0.195
1.233,-0.455,0.190
1.236,-0.465,0.190
1.239,-0.475,0.185
1.242,-0.450,0.210
1.244,-0.455,0.215
1.247,-0.435,0.210
1.250,-0.455,0.205
1.253,-0.475,0.200
1.256,-0.470,0.215
1.258,-0.460,0.210
1.261,-0.460,0.230
1.264,-0.450,0.225
1.267,-0.440,0.220
1.269,-0.470,0.210
1.272,-0.450,0.205
1.275,-0.455,0.225
1.278,-0.435,0.240
1.281,-0.430,0.240
1.283,-0.430,0.230
1.286,-0.445,0.215
1.289,-0.445,0.230
1.292,-0.455,0.230
1.294,-0.430,0.250
1.297,-0.420,0.255
1.300,-0.425,0.240
1.303,-0.450,0.220
1.306,-0.445,0.230
1.308,-0.445,0.250
1.311,-0.425,0.255
1.314,-0.425,0.265
1.317,-0.445,0.245
1.319,-0.430,0.235
1.322,-0.460,0.250
1.325,-0.435,0.260
1.328,-0.440,0.270
1.331,-0.430,0.270
1.333,-0.435,0.255
1.336,-0.445,0.245
1.339,-0.445,0.265
1.342,-0.435,0.260
1.344,-0.435,0.280
1.347,-0.430,0.275
1.350,-0.425,0.265
1.353,-0.450,0.260
1.356,-0.445,0.260
1.358,-0.430,0.280
1.361,-0.425,0.285
1.364,-0.420,0.290
1.367,-0.425,0.280
1.369,-0.435,0.270
1.372,-0.435,0.270
1.375,-0.435,0.290
1.378,-0.420,0.300
1.381,-0.405,0.300
1.383,-0.425,0.295
1.386,-0.435,0.280
1.389,-0.440,0.275
1.392,-0.425,0.300
1.394,-0.410,0.315
1.397,-0.400,0.295
1.400,-0.400,0.300
1.403,-0.415,0.285
1.406,-0.425,0.310
1.408,-0.420,0.315
1.411,-0.405,0.325
1.414,-0.400,0.325
1.417,-0.415,0.325
1.419,-0.415,0.310
1.422,-0.420,0.315
1.425,-0.420,0.315
1.428,-0.405,0.345
1.431,-0.390,0.350
1.433,-0.405,0.345
1.436,-0.415,0.350
1.439,-0.405,0.355
1.442,-0.405,0.380
1.444,-0.380,0.390
1.447,-0.360,0.390
1.450,-0.355,0.370
1.453,-0.360,0.355
1.456,-0.360,0.355
1.458,-0.335,0.365
1.461,-0.335,0.375
1.464,-0.325,0.360
1.467,-0.325,0.345
1.469,-0.320,0.315
1.472,-0.315,0.320
1.475,-0.310,0.325
1.478,-0.305,0.345
1.481,-0.305,0.350
1.483,-0.305,0.345
1.486,-0.325,0.345
1.489,-0.345,0.355
1.492,-0.330,0.365
1.494,-0.310,0.380
1.497,-0.315,0.370
1.500,-0.330,0.365
1.503,-0.350,0.370
1.506,-0.375,0.385
1.508,-0.370,0.390
1.511,-0.375,0.390
1.514,-0.370,0.380
1.517,-0.365,0.365
1.519,-0.375,0.375
1.522,-0.395,0.370
1.525,-0.385,0.385
1.528,-0.370,0.410
1.531,-0.350,0.400
1.533,-0.365,0.385
1.536,-0.375,0.395
1.539,-0.385,0.395
1.542,-0.360,0.405
1.544,-0.365,0.415
1.547,-0.360,0.405
1.550,-0.350,0.405
1.553,-0.365,0.400
1.556,-0.365,0.410
1.558,-0.355,0.430
1.561,-0.345,0.440
1.564,-0.330,0.445
1.567,-0.325,0.450
1.569,-0.335,0.460
1.572,-0.335,0.490
1.575,-0.325,0.535
1.578,-0.330,0.595
1.581,-0.325,0.625
1.583,-0.355,0.640
1.586,-0.395,0.640
1.589,-0.435,0.625
1.592,-0.455,0.595
1.594,-0.430,0.540
1.597,-0.360,0.440
1.600,-0.240,0.330
1.603,0.000,0.210
1.606,0.360,0.115
1.608,0.850,0.060
1.611,1.340,0.070
1.614,1.730,0.105
1.617,2.000,0.180
1.619,2.110,0.265
1.622,2.015,0.350
1.625,1.705,0.415
1.628,1.065,0.430
1.631,0.425,0.415
1.633,-0.215,0.405
1.636,-0.660,0.440
1.639,-0.605,0.470
1.642,-0.495,0.500
1.644,-0.450,0.530
1.647,-0.465,0.520
1.650,-0.500,0.500
1.653,-0.495,0.505
1.656,-0.480,0.510
1.658,-0.440,0.540
1.661,-0.380,0.550
1.664,-0.315,0.550
1.667,-0.285,0.530
1.669,-0.270,0.535
1.672,-0.265,0.530
1.675,-0.260,0.545
1.678,-0.240,0.565
1.681,-0.240,0.560
1.683,-0.235,0.550
1.686,-0.270,0.550
1.689,-0.255,0.560
1.692,-0.255,0.560
1.694,-0.240,0.580
1.697,-0.225,0.570
1.700,-0.220,0.560
1.703,-0.235,0.550
1.706,-0.235,0.550
1.708,-0.230,0.580
1.711,-0.205,0.585
1.714,-0.210,0.580
1.717,-0.200,0.570
1.719,-0.215,0.565
1.722,-0.230,0.570
1.725,-0.215,0.580
1.728,-0.200,0.595
1.731,-0.200,0.590
1.733,-0.200,0.585
1.736,-0.210,0.570
1.739,-0.190,0.590
1.742,-0.190,0.590
1.744,-0.185,0.625
1.747,-0.170,0.605
1.750,-0.160,0.590
1.753,-0.175,0.590
1.756,-0.180,0.575
1.758,-0.155,0.600
1.761,-0.145,0.620
1.764,-0.140,0.610
1.767,-0.140,0.615
1.769,-0.165,0.600
1.772,-0.150,0.605
1.775,-0.165,0.615
1.778,-0.140,0.625
1.781,-0.130,0.630
1.783,-0.125,0.605
1.786,-0.140,0.605
1.789,-0.145,0.615
1.792,-0.135,0.630
1.794,-0.130,0.645
1.797,-0.110,0.635
1.800,-0.110,0.605
1.803,-0.105,0.600
1.806,-0.100,0.605
1.808,-0.100,0.630
1.811,-0.070,0.640
1.814,-0.050,0.635
1.817,-0.045,0.625
1.819,-0.055,0.615
1.822,-0.060,0.620
1.825,-0.035,0.645
1.828,-0.020,0.655
1.831,0.005,0.655
1.833,0.010,0.635
1.836,0.005,0.625
1.839,0.005,0.635
1.842,0.015,0.650
1.844,0.055,0.665
1.847,0.055,0.650
1.850,0.075,0.640
1.853,0.080,0.620
1.856,0.090,0.635
1.858,0.120,0.655
1.861,0.135,0.660
1.864,0.175,0.650
1.867,0.185,0.645
1.869,0.190,0.630
1.872,0.190,0.640
1.875,0.210,0.655
1.878,0.255,0.650
1.881,0.275,0.650
1.883,0.310,0.640
1.886,0.315,0.640
1.889,0.340,0.625
1.892,0.370,0.645
1.894,0.415,0.660
1.897,0.450,0.655
1.900,0.475,0.645
1.903,0.505,0.635
1.906,0.525,0.640
1.908,0.550,0.650
1.911,0.605,0.655
1.914,0.640,0.645
1.917,0.665,0.640
1.919,0.680,0.630
1.922,0.690,0.635
1.925,0.720,0.650
1.928,0.770,0.650
1.931,0.795,0.655
1.933,0.805,0.645
1.936,0.825,0.640
1.939,0.840,0.635
1.942,0.855,0.650
1.944,0.880,0.675
1.947,0.895,0.675
1.950,0.860,0.670
1.953,0.835,0.665
1.956,0.820,0.665
1.958,0.790,0.675
1.961,0.760,0.690
1.964,0.725,0.705
1.967,0.665,0.690
1.969,0.595,0.680
1.972,0.515,0.695
1.975,0.455,0.700
1.978,0.395,0.710
1.981,0.340,0.700
1.983,0.280,0.700
1.986,0.205,0.690
1.989,0.125,0.695
1.992,0.085,0.705
1.994,0.050,0.715
1.997,0.005,0.725
2.000,-0.065,0.710
2.003,-0.105,0.705
2.006,-0.135,0.695
2.008,-0.155,0.720
2.011,-0.170,0.720
2.014,-0.175,0.720
2.017,-0.210,0.715
2.019,-0.240,0.705
2.022,-0.255,0.710
2.025,-0.255,0.720
2.028,-0.255,0.735
2.031,-0.265,0.725
2.033,-0.280,0.720
2.036,-0.300,0.695
2.039,-0.305,0.710
2.042,-0.290,0.725
2.044,-0.285,0.720
2.047,-0.290,0.725
2.050,-0.305,0.720
2.053,-0.305,0.725
2.056,-0.335,0.710
2.058,-0.320,0.715
2.061,-0.305,0.740
2.064,-0.300,0.730
2.067,-0.290,0.720
2.069,-0.315,0.715
2.072,-0.315,0.715
2.075,-0.315,0.720
2.078,-0.305,0.745
2.081,-0.295,0.730
2.083,-0.305,0.710
2.086,-0.310,0.710
2.089,-0.315,0.725
2.092,-0.310,0.730
2.094,-0.295,0.755
2.097,-0.290,0.755
2.100,-0.300,0.725
2.103,-0.305,0.715
2.106,-0.305,0.720
2.108,-0.310,0.730
2.111,-0.290,0.740
2.114,-0.275,0.740
2.117,-0.290,0.720
2.119,-0.305,0.720
2.122,-0.310,0.730
2.125,-0.290,0.730
2.128,-0.270,0.760
2.131,-0.275,0.745
2.133,-0.285,0.730
2.136,-0.295,0.730
2.139,-0.305,0.710
2.142,-0.290,0.750
2.144,-0.280,0.760
2.147,-0.275,0.755
2.150,-0.280,0.735
2.153,-0.305,0.725
2.156,-0.305,0.720
2.158,-0.290,0.725
2.161,-0.300,0.740
2.164,-0.280,0.745
2.167,-0.285,0.735
2.169,-0.295,0.725
2.172,-0.300,0.725
2.175,-0.290,0.720
2.178,-0.290,0.735
2.181,-0.270,0.720
2.183,-0.295,0.715
2.186,-0.310,0.705
2.189,-0.320,0.710
2.192,-0.310,0.725
2.194,-0.295,0.745
2.197,-0.275,0.745
2.200,-0.290,0.735
2.203,-0.300,0.725
2.206,-0.325,0.720
2.208,-0.310,0.720
2.211,-0.305,0.740
2.214,-0.295,0.725
2.217,-0.295,0.720
2.219,-0.310,0.700
2.222,-0.315,0.720
2.225,-0.315,0.725
2.228,-0.295,0.735
2.231,-0.290,0.715
2.233,-0.295,0.720
2.236,-0.310,0.715
2.239,-0.320,0.715
2.242,-0.325,0.725
2.244,-0.300,0.730
2.247,-0.300,0.730
2.250,-0.300,0.720
2.253,-0.310,0.705
2.256,-0.320,0.715
2.258,-0.305,0.720
2.261,-0.305,0.730
2.264,-0.295,0.715
2.267,-0.295,0.715
2.269,-0.305,0.700
2.272,-0.310,0.715
2.275,-0.310,0.710
2.278,-0.305,0.730
2.281,-0.300,0.725
2.283,-0.295,0.710
2.286,-0.305,0.695
2.289,-0.305,0.695
2.292,-0.300,0.715
2.294,-0.280,0.720
2.297,-0.280,0.725
2.300,-0.285,0.705
2.303,-0.295,0.695
2.306,-0.295,0.695
2.308,-0.300,0.700
2.311,-0.275,0.720
2.314,-0.295,0.715
2.317,-0.280,0.695
2.319,-0.300,0.690
2.322,-0.305,0.690
2.325,-0.295,0.700
2.328,-0.275,0.715
2.331,-0.280,0.705
2.333,-0.265,0.690
2.336,-0.285,0.685
2.339,-0.305,0.685
2.342,-0.290,0.710
2.344,-0.285,0.715
2.347,-0.260,0.715
2.350,-0.275,0.695
2.353,-0.280,0.690
2.356,-0.285,0.685
2.358,-0.275,0.690
2.361,-0.265,0.705
2.364,-0.270,0.700
2.367,-0.270,0.700
2.369,-0.295,0.685
2.372,-0.290,0.680
2.375,-0.295,0.695
2.378,-0.265,0.705
2.381,-0.255,0.685
2.383,-0.255,0.675
2.386,-0.285,0.665
2.389,-0.285,0.665
2.392,-0.285,0.685
2.394,-0.260,0.690
2.397,-0.255,0.690
2.400,-0.255,0.680
2.403,-0.270,0.675
2.406,-0.285,0.665
2.408,-0.270,0.675
2.411,-0.250,0.695
2.414,-0.260,0.685
2.417,-0.255,0.680
2.419,-0.270,0.670
2.422,-0.285,0.670
2.425,-0.265,0.670
2.428,-0.250,0.700
2.431,-0.240,0.675
2.433,-0.245,0.680
2.436,-0.270,0.665
2.439,-0.265,0.670
2.442,-0.255,0.670
2.444,-0.240,0.695
2.447,-0.230,0.680
2.450,-0.235,0.660
2.453,-0.255,0.655
2.456,-0.270,0.655
2.458,-0.255,0.675
2.461,-0.250,0.675
2.464,-0.220,0.680
2.467,-0.235,0.655
2.469,-0.265,0.650
2.472,-0.250,0.660
2.475,-0.260,0.660
2.478,-0.240,0.670
2.481,-0.225,0.665
2.483,-0.225,0.650
2.486,-0.235,0.660
2.489,-0.240,0.660
2.492,-0.235,0.650
2.494,-0.230,0.670
2.497,-0.225,0.655
2.500,-0.225,0.650
2.503,-0.240,0.635
2.506,-0.245,0.640
2.508,-0.235,0.650
2.511,-0.220,0.675
2.514,-0.215,0.660
2.517,-0.220,0.650
2.519,-0.220,0.660
2.522,-0.225,0.660
2.525,-0.220,0.695
2.528,-0.195,0.695
2.531,-0.175,0.675
2.533,-0.175,0.670
2.536,-0.180,0.640
2.539,-0.180,0.635
2.542,-0.175,0.650
2.544,-0.170,0.645
2.547,-0.150,0.635
2.550,-0.150,0.615
2.553,-0.140,0.595
2.556,-0.145,0.600
2.558,-0.150,0.625
2.561,-0.130,0.625
2.564,-0.130,0.630
2.567,-0.135,0.610
2.569,-0.135,0.610
2.572,-0.150,0.595
2.575,-0.150,0.620
2.578,-0.155,0.620
2.581,-0.155,0.620
2.583,-0.170,0.600
2.586,-0.195,0.580
2.589,-0.215,0.600
2.592,-0.210,0.610
2.594,-0.185,0.615
2.597,-0.180,0.610
2.600,-0.195,0.610
2.603,-0.210,0.590
2.606,-0.220,0.595
2.608,-0.210,0.615
2.611,-0.180,0.620
2.614,-0.170,0.610
2.617,-0.185,0.600
2.619,-0.205,0.590
2.622,-0.205,0.595
2.625,-0.200,0.610
2.628,-0.180,0.615
2.631,-0.175,0.620
2.633,-0.180,0.615
2.636,-0.185,0.595
2.639,-0.180,0.610
2.642,-0.160,0.655
2.644,-0.140,0.720
2.647,-0.145,0.745
2.650,-0.160,0.760
2.653,-0.225,0.765
2.656,-0.260,0.755
2.658,-0.295,0.740
2.661,-0.290,0.705
2.664,-0.260,0.610
2.667,-0.165,0.505
2.669,0.030,0.385
2.672,0.390,0.290
2.675,0.875,0.225
2.678,1.385,0.215
2.681,1.795,0.260
2.683,2.050,0.345
2.686,2.110,0.455
2.689,1.910,0.525
2.692,1.390,0.575
2.694,0.750,0.565
2.697,0.110,0.560
2.700,-0.530,0.560
2.703,-0.490,0.570
2.706,-0.370,0.585
2.708,-0.330,0.595
2.711,-0.320,0.610
2.714,-0.340,0.595
2.717,-0.340,0.585
2.719,-0.330,0.580
2.722,-0.305,0.580
2.725,-0.240,0.600
2.728,-0.160,0.610
2.731,-0.120,0.600
2.733,-0.100,0.595
2.736,-0.105,0.570
2.739,-0.120,0.580
2.742,-0.105,0.590
2.744,-0.095,0.595
2.747,-0.075,0.600
2.750,-0.085,0.570
2.753,-0.100,0.570
2.756,-0.100,0.575
2.758,-0.105,0.575
2.761,-0.070,0.590
2.764,-0.065,0.580
2.767,-0.060,0.580
2.769,-0.080,0.565
2.772,-0.095,0.565
2.775,-0.055,0.595
2.778,-0.040,0.575
2.781,-0.040,0.565
2.783,-0.055,0.545
2.786,-0.060,0.560
2.789,-0.060,0.580
2.792,-0.040,0.580
2.794,-0.030,0.580
2.797,-0.030,0.560
2.800,-0.040,0.540
2.803,-0.065,0.540
2.806,-0.040,0.550
2.808,-0.025,0.560
2.811,-0.025,0.550
2.814,-0.015,0.550
2.817,-0.020,0.550
2.819,-0.025,0.550
2.822,-0.010,0.560
2.825,0.000,0.570
2.828,0.020,0.565
2.831,0.005,0.540
2.833,0.000,0.535
2.836,0.005,0.535
2.839,0.015,0.540
2.842,0.030,0.555
2.844,0.045,0.550
2.847,0.060,0.540
2.850,0.035,0.525
2.853,0.020,0.520
2.856,0.035,0.545
2.858,0.055,0.540
2.861,0.060,0.530
2.864,0.050,0.515
2.867,0.055,0.515
2.869,0.060,0.525
2.872,0.075,0.530
2.875,0.090,0.540
2.878,0.100,0.520
2.881,0.105,0.505
2.883,0.105,0.505
2.886,0.100,0.510
2.889,0.115,0.520
2.892,0.150,0.520
2.894,0.160,0.515
2.897,0.165,0.495
2.900,0.170,0.495
2.903,0.170,0.490
2.906,0.180,0.495
2.908,0.210,0.500
2.911,0.230,0.500
2.914,0.255,0.475
2.917,0.250,0.470
2.919,0.250,0.470
2.922,0.270,0.490
2.925,0.300,0.500
2.928,0.340,0.495
2.931,0.345,0.475
2.933,0.350,0.460
2.936,0.350,0.455
2.939,0.385,0.470
2.942,0.410,0.485
2.944,0.450,0.470
2.947,0.460,0.440
2.950,0.475,0.430
2.953,0.495,0.440
2.956,0.530,0.450
2.958,0.565,0.450
2.961,0.590,0.445
2.964,0.615,0.435
2.967,0.625,0.415
2.969,0.645,0.410
2.972,0.675,0.420
2.975,0.705,0.435
2.978,0.735,0.425
2.981,0.755,0.415
2.983,0.765,0.390
2.986,0.800,0.395
2.989,0.810,0.405
2.992,0.845,0.410
2.994,0.880,0.410
2.997,0.880,0.395
3.000,0.895,0.390
3.003,0.900,0.395
3.006,0.920,0.405
3.008,0.940,0.420
3.011,0.940,0.415
3.014,0.930,0.420
3.017,0.895,0.415
3.019,0.850,0.420
3.022,0.820,0.435
3.025,0.795,0.450
3.028,0.755,0.455
3.031,0.695,0.450
3.033,0.625,0.435
3.036,0.550,0.440
3.039,0.510,0.445
3.042,0.450,0.460
3.044,0.400,0.455
3.047,0.325,0.445
3.050,0.270,0.430
3.053,0.205,0.435
3.056,0.140,0.455
3.058,0.115,0.445
3.061,0.090,0.440
3.064,0.030,0.430
3.067,-0.015,0.425
3.069,-0.045,0.440
3.072,-0.070,0.435
3.075,-0.085,0.445
3.078,-0.095,0.430
3.081,-0.125,0.430
3.083,-0.160,0.420
3.086,-0.175,0.415
3.089,-0.185,0.435
3.092,-0.190,0.450
3.094,-0.195,0.435
3.097,-0.205,0.420
3.100,-0.230,0.415
3.103,-0.250,0.420
3.106,-0.250,0.435
3.108,-0.230,0.445
3.111,-0.235,0.435
3.114,-0.240,0.420
3.117,-0.250,0.410
3.119,-0.255,0.410
3.122,-0.265,0.420
3.125,-0.245,0.440
3.128,-0.235,0.420
3.131,-0.240,0.405
3.133,-0.265,0.395
3.136,-0.270,0.400
3.139,-0.265,0.410
3.142,-0.245,0.425
3.144,-0.240,0.405
3.147,-0.240,0.395
3.150,-0.255,0.375
3.153,-0.265,0.390
3.156,-0.260,0.400
3.158,-0.240,0.415
3.161,-0.240,0.400
3.164,-0.255,0.385
3.167,-0.275,0.385
3.169,-0.260,0.390
3.172,-0.270,0.395
3.175,-0.255,0.405
3.178,-0.255,0.400
3.181,-0.265,0.400
3.183,-0.260,0.370
3.186,-0.260,0.380
3.189,-0.260,0.390
3.192,-0.250,0.410
3.194,-0.235,0.385
3.197,-0.245,0.385
3.200,-0.265,0.365
3.203,-0.265,0.380
3.206,-0.255,0.395
3.208,-0.255,0.400
3.211,-0.250,0.390
3.214,-0.250,0.365
3.217,-0.265,0.375
3.219,-0.260,0.360
3.222,-0.265,0.390
3.225,-0.255,0.390
3.228,-0.250,0.385
3.231,-0.250,0.370
3.233,-0.265,0.350
3.236,-0.265,0.370
3.239,-0.270,0.370
3.242,-0.260,0.375
3.244,-0.260,0.360
3.247,-0.260,0.360
3.250,-0.270,0.350
3.253,-0.290,0.355
3.256,-0.275,0.365
3.258,-0.270,0.385
3.261,-0.265,0.370
3.264,-0.275,0.350
3.267,-0.290,0.340
3.269,-0.300,0.335
3.272,-0.305,0.350
3.275,-0.295,0.360
3.278,-0.285,0.355
3.281,-0.285,0.350
3.283,-0.310,0.340
3.286,-0.310,0.340
3.289,-0.310,0.350
3.292,-0.300,0.360
3.294,-0.300,0.350
3.297,-0.295,0.345
3.300,-0.310,0.330
3.303,-0.320,0.325
3.306,-0.320,0.345
3.308,-0.305,0.355
3.311,-0.305,0.345
3.314,-0.315,0.330
3.317,-0.340,0.330
3.319,-0.340,0.320
3.322,-0.350,0.335
3.325,-0.330,0.345
3.328,-0.325,0.335
3.331,-0.340,0.325
3.333,-0.360,0.315
3.336,-0.360,0.315
3.339,-0.345,0.325
3.342,-0.335,0.335
3.344,-0.335,0.325
3.347,-0.330,0.320
3.350,-0.345,0.305
3.353,-0.350,0.300
3.356,-0.350,0.320
3.358,-0.345,0.320
3.361,-0.345,0.320
3.364,-0.350,0.305
3.367,-0.350,0.285
3.369,-0.355,0.285
3.372,-0.345,0.315
3.375,-0.335,0.315
3.378,-0.320,0.310
3.381,-0.340,0.300
3.383,-0.355,0.285
3.386,-0.365,0.290
3.389,-0.370,0.300
3.392,-0.355,0.310
3.394,-0.350,0.305
3.397,-0.345,0.295
3.400,-0.350,0.270
3.403,-0.360,0.280
3.406,-0.385,0.295
3.408,-0.360,0.300
3.411,-0.340,0.305
3.414,-0.365,0.285
3.417,-0.370,0.275
3.419,-0.360,0.270
3.422,-0.365,0.290
3.425,-0.365,0.300
3.428,-0.345,0.290
3.431,-0.370,0.270
3.433,-0.370,0.275
3.436,-0.380,0.280
3.439,-0.375,0.290
3.442,-0.365,0.290
3.444,-0.355,0.285
3.447,-0.355,0.270
3.450,-0.380,0.255
3.453,-0.380,0.255
3.456,-0.365,0.260
3.458,-0.360,0.275
3.461,-0.355,0.280
3.464,-0.370,0.275
3.467,-0.370,0.255
3.469,-0.380,0.255
3.472,-0.375,0.275
3.475,-0.365,0.275
3.478,-0.360,0.270
3.481,-0.365,0.255
3.483,-0.395,0.250
3.486,-0.390,0.250
3.489,-0.380,0.265
3.492,-0.385,0.275
3.494,-0.365,0.255
3.497,-0.370,0.250
3.500,-0.380,0.240
3.503,-0.395,0.250
3.506,-0.385,0.250
3.508,-0.375,0.265
3.511,-0.365,0.265
3.514,-0.370,0.275
3.517,-0.370,0.255
3.519,-0.385,0.265
3.522,-0.375,0.290
3.525,-0.340,0.295
3.528,-0.335,0.285
3.531,-0.320,0.265
3.533,-0.325,0.245
3.536,-0.335,0.235
3.539,-0.335,0.235
3.542,-0.325,0.235
3.544,-0.290,0.215
3.547,-0.290,0.200
3.550,-0.295,0.195
3.553,-0.315,0.195
3.556,-0.320,0.220
3.558,-0.310,0.230
3.561,-0.310,0.220
3.564,-0.315,0.215
3.567,-0.330,0.200
3.569,-0.350,0.215
3.572,-0.360,0.220
3.575,-0.360,0.240
3.578,-0.360,0.220
3.581,-0.395,0.200
3.583,-0.415,0.205
3.586,-0.440,0.195
3.589,-0.425,0.220
3.592,-0.420,0.230
3.594,-0.400,0.220
3.597,-0.405,0.215
3.600,-0.435,0.200
3.603,-0.430,0.195
3.606,-0.425,0.205
3.608,-0.400,0.210
3.611,-0.400,0.210
3.614,-0.395,0.200
3.617,-0.420,0.190
3.619,-0.425,0.185
3.622,-0.415,0.195
3.625,-0.400,0.205
3.628,-0.400,0.195
3.631,-0.400,0.200
3.633,-0.410,0.200
3.636,-0.405,0.215
3.639,-0.390,0.245
3.642,-0.385,0.285
3.644,-0.380,0.330
3.647,-0.410,0.350
3.650,-0.435,0.370
3.653,-0.490,0.370
3.656,-0.505,0.380
3.658,-0.510,0.350
3.661,-0.510,0.280
3.664,-0.470,0.175
3.667,-0.355,0.060
3.669,-0.100,-0.050
3.672,0.295,-0.160
3.675,0.770,-0.220
3.678,1.240,-0.230
3.681,1.645,-0.205
3.683,1.870,-0.120
3.686,1.950,-0.005
3.689,1.850,0.080
3.692,1.490,0.145
3.694,0.850,0.140
3.697,0.210,0.125
3.700,-0.430,0.130
3.703,-0.815,0.160
3.706,-0.700,0.200
3.708,-0.580,0.215
3.711,-0.575,0.210
3.714,-0.625,0.200
3.717,-0.640,0.170
3.719,-0.620,0.180
3.722,-0.575,0.210
3.725,-0.525,0.230
3.728,-0.465,0.225
3.731,-0.425,0.210
3.733,-0.395,0.195
3.736,-0.400,0.190
3.739,-0.395,0.205
3.742,-0.390,0.210
3.744,-0.385,0.195
3.747,-0.385,0.195
3.750,-0.395,0.185
3.753,-0.405,0.175
3.756,-0.410,0.185
3.758,-0.395,0.195
3.761,-0.380,0.195
3.764,-0.380,0.180
3.767,-0.400,0.185
3.769,-0.400,0.185
3.772,-0.395,0.185
3.775,-0.385,0.200
3.778,-0.365,0.200
3.781,-0.375,0.175
3.783,-0.405,0.165
3.786,-0.400,0.170
3.789,-0.385,0.170
3.792,-0.390,0.195
3.794,-0.375,0.175
3.797,-0.380,0.175
3.800,-0.375,0.160
3.803,-0.390,0.165
3.806,-0.375,0.165
3.808,-0.360,0.175
3.811,-0.365,0.165
3.814,-0.355,0.160
3.817,-0.385,0.145
3.819,-0.365,0.155
3.822,-0.365,0.165
3.825,-0.360,0.175
3.828,-0.335,0.160
3.831,-0.355,0.160
3.833,-0.350,0.150
3.836,-0.365,0.155
3.839,-0.345,0.160
3.842,-0.335,0.180
3.844,-0.335,0.165
3.847,-0.345,0.165
3.850,-0.345,0.145
3.853,-0.350,0.145
3.856,-0.350,0.145
3.858,-0.330,0.165
3.861,-0.310,0.155
3.864,-0.310,0.145
3.867,-0.330,0.130
3.869,-0.330,0.130
3.872,-0.315,0.145
3.875,-0.295,0.150
3.878,-0.290,0.150
3.881,-0.280,0.135
3.883,-0.290,0.125
3.886,-0.290,0.130
3.889,-0.280,0.135
3.892,-0.265,0.150
3.894,-0.240,0.145
3.897,-0.235,0.120
3.900,-0.245,0.120
3.903,-0.240,0.130
3.906,-0.225,0.120
3.908,-0.195,0.145
3.911,-0.190,0.120
3.914,-0.170,0.135
3.917,-0.175,0.115
3.919,-0.180,0.105
3.922,-0.155,0.130
3.925,-0.135,0.140
3.928,-0.100,0.140
3.931,-0.100,0.110
3.933,-0.090,0.115
3.936,-0.080,0.105
3.939,-0.060,0.115
3.942,-0.015,0.120
3.944,0.010,0.115
3.947,0.025,0.105
3.950,0.030,0.090
3.953,0.045,0.090
3.956,0.090,0.110
3.958,0.115,0.120
3.961,0.155,0.120
3.964,0.180,0.095
3.967,0.180,0.085
3.969,0.190,0.085
3.972,0.230,0.090
3.975,0.265,0.105
3.978,0.300,0.095
3.981,0.325,0.075
3.983,0.335,0.075
3.986,0.350,0.070
3.989,0.390,0.075
3.992,0.445,0.080
3.994,0.460,0.070
3.997,0.470,0.060
4.000,0.490,0.050
4.003,0.495,0.050
4.006,0.530,0.060
4.008,0.560,0.075
4.011,0.600,0.065
4.014,0.590,0.045
4.017,0.595,0.045
4.019,0.585,0.060
4.022,0.595,0.070
4.025,0.590,0.085
4.028,0.580,0.090
4.031,0.530,0.085
4.033,0.485,0.075
4.036,0.425,0.090
4.039,0.380,0.095
4.042,0.335,0.105
4.044,0.280,0.100
4.047,0.195,0.095
4.050,0.120,0.085
4.053,0.050,0.090
4.056,-0.010,0.095
4.058,-0.070,0.115
4.061,-0.125,0.090
4.064,-0.180,0.100
4.067,-0.260,0.090
4.069,-0.315,0.080
4.072,-0.365,0.085
4.075,-0.385,0.100
4.078,-0.400,0.105
4.081,-0.435,0.095
4.083,-0.500,0.080
4.086,-0.525,0.080
4.089,-0.535,0.090
4.092,-0.540,0.105
4.094,-0.550,0.085
4.097,-0.570,0.080
4.100,-0.595,0.060
4.103,-0.610,0.070
4.106,-0.630,0.085
4.108,-0.620,0.090
4.111,-0.625,0.080
4.114,-0.630,0.065
4.117,-0.645,0.060
4.119,-0.660,0.065
4.122,-0.665,0.075
4.125,-0.650,0.095
4.128,-0.640,0.080
4.131,-0.660,0.070
4.133,-0.670,0.055
4.136,-0.695,0.055
4.139,-0.680,0.075
4.142,-0.670,0.080
4.144,-0.665,0.070
4.147,-0.680,0.070
4.150,-0.700,0.060
4.153,-0.695,0.060
4.156,-0.705,0.075
4.158,-0.680,0.085
4.161,-0.680,0.070
4.164,-0.690,0.065
4.167,-0.705,0.045
4.169,-0.695,0.050
4.172,-0.685,0.070
4.175,-0.675,0.090
4.178,-0.665,0.070
4.181,-0.660,0.055
4.183,-0.675,0.045
4.186,-0.685,0.045
4.189,-0.685,0.055
4.192,-0.665,0.075
4.194,-0.665,0.075
4.197,-0.680,0.050
4.200,-0.690,0.050
4.203,-0.700,0.040
4.206,-0.690,0.055
4.208,-0.680,0.075
4.211,-0.680,0.060
4.214,-0.680,0.055
4.217,-0.680,0.050
4.219,-0.690,0.050
4.222,-0.695,0.050
4.225,-0.680,0.065
4.228,-0.665,0.055
4.231,-0.670,0.050
4.233,-0.685,0.040
4.236,-0.695,0.035
4.239,-0.710,0.050
4.242,-0.700,0.050
4.244,-0.690,0.045
4.247,-0.680,0.045
4.250,-0.705,0.030
4.253,-0.720,0.045
4.256,-0.720,0.035
4.258,-0.705,0.060
4.261,-0.685,0.045
4.264,-0.700,0.040
4.267,-0.715,0.025
4.269,-0.715,0.035
4.272,-0.715,0.035
4.275,-0.705,0.055
4.278,-0.705,0.030
4.281,-0.705,0.025
4.283,-0.720,0.015
4.286,-0.730,0.025
4.289,-0.735,0.045
4.292,-0.720,0.050
4.294,-0.715,0.035
4.297,-0.725,0.015
4.300,-0.730,0.015
4.303,-0.735,0.020
4.306,-0.740,0.025
4.308,-0.720,0.045
4.311,-0.720,0.020
4.314,-0.725,0.010
4.317,-0.750,0.005
4.319,-0.755,0.015
4.322,-0.750,0.030
4.325,-0.730,0.040
4.328,-0.730,0.020
4.331,-0.730,0.015
4.333,-0.770,0.005
4.336,-0.755,0.010
4.339,-0.760,0.010
4.342,-0.745,0.030
4.344,-0.750,0.030
4.347,-0.740,0.020
4.350,-0.760,0.000
4.353,-0.775,0.000
4.356,-0.755,0.005
4.358,-0.735,0.015
4.361,-0.725,0.020
4.364,-0.730,0.005
4.367,-0.750,-0.015
4.369,-0.760,-0.005
4.372,-0.750,0.005
4.375,-0.730,0.010
4.378,-0.725,0.010
4.381,-0.730,0.005
4.383,-0.750,-0.010
4.386,-0.765,-0.005
4.389,-0.755,0.015
4.392,-0.740,0.005
4.394,-0.725,0.015
4.397,-0.735,0.005
4.400,-0.760,-0.010
4.403,-0.760,-0.010
4.406,-0.740,0.005
4.408,-0.740,0.010
4.411,-0.735,0.010
4.414,-0.750,-0.010
4.417,-0.755,-0.020
4.419,-0.755,0.000
4.422,-0.755,0.000
4.425,-0.740,0.005
4.428,-0.745,0.005
4.431,-0.750,-0.010
4.433,-0.755,-0.020
4.436,-0.755,0.000
4.439,-0.755,-0.005
4.442,-0.750,0.015
4.444,-0.740,-0.005
4.447,-0.755,-0.010
4.450,-0.740,-0.020
4.453,-0.755,-0.015
4.456,-0.760,-0.005
4.458,-0.740,0.015
4.461,-0.725,-0.005
4.464,-0.740,-0.015
4.467,-0.750,-0.015
4.469,-0.745,-0.025
4.472,-0.750,-0.015
4.475,-0.735,0.005
4.478,-0.735,-0.005
4.481,-0.740,-0.020
4.483,-0.760,-0.030
4.486,-0.760,-0.025
4.489,-0.740,-0.010
4.492,-0.725,0.005
4.494,-0.725,-0.005
4.497,-0.720,-0.015
4.500,-0.740,-0.020
4.503,-0.745,-0.015
4.506,-0.745,-0.010
4.508,-0.720,-0.005
4.511,-0.715,-0.010
4.514,-0.735,-0.015
4.517,-0.745,-0.030
4.519,-0.745,-0.025
4.522,-0.740,-0.010
4.525,-0.725,-0.010
4.528,-0.725,-0.015
4.531,-0.730,-0.025
4.533,-0.740,-0.030
4.536,-0.735,-0.020
4.539,-0.730,-0.010
4.542,-0.715,-0.005
4.544,-0.710,-0.015
4.547,-0.715,-0.025
4.550,-0.725,-0.035
4.553,-0.745,-0.025
4.556,-0.735,-0.020
4.558,-0.715,-0.010
4.561,-0.710,-0.005
4.564,-0.710,-0.020
4.567,-0.720,-0.015
4.569,-0.715,-0.010
4.572,-0.715,0.015
4.575,-0.695,0.045
4.578,-0.670,0.030
4.581,-0.685,0.015
4.583,-0.690,-0.005
4.586,-0.670,-0.025
4.589,-0.660,-0.010
4.592,-0.645,0.000
4.594,-0.645,-0.020
4.597,-0.645,-0.055
4.600,-0.640,-0.070
4.603,-0.635,-0.070
4.606,-0.650,-0.040
4.608,-0.630,-0.045
4.611,-0.625,-0.030
4.614,-0.625,-0.055
4.617,-0.640,-0.055
4.619,-0.650,-0.055
4.622,-0.645,-0.035
4.625,-0.660,-0.025
4.628,-0.660,-0.035
4.631,-0.680,-0.055
4.633,-0.710,-0.055
4.636,-0.715,-0.060
4.639,-0.710,-0.045
4.642,-0.700,-0.045
4.644,-0.685,-0.045
4.647,-0.700,-0.050
4.650,-0.700,-0.050
4.653,-0.715,-0.055
4.656,-0.695,-0.050
4.658,-0.690,-0.030
4.661,-0.690,-0.045
4.664,-0.700,-0.055
4.667,-0.700,-0.065
4.669,-0.710,-0.060
4.672,-0.700,-0.050
4.675,-0.675,-0.030
4.678,-0.660,-0.025
4.681,-0.670,-0.040
4.683,-0.680,-0.050
4.686,-0.675,-0.035
4.689,-0.660,0.005
4.692,-0.645,0.050
4.694,-0.650,0.095
4.697,-0.670,0.115
4.700,-0.705,0.145
4.703,-0.745,0.145
4.706,-0.775,0.140
4.708,-0.770,0.105
4.711,-0.745,0.035
4.714,-0.700,-0.080
4.717,-0.565,-0.210
4.719,-0.285,-0.340
4.722,0.170,-0.440
4.725,0.690,-0.505
4.728,1.200,-0.505
4.731,1.590,-0.425
4.733,1.800,-0.340
4.736,1.800,-0.210
4.739,1.505,-0.125
4.742,0.865,-0.100
4.744,0.225,-0.125
4.747,-0.415,-0.130
4.750,-1.050,-0.110
4.753,-0.960,-0.065
4.756,-0.840,-0.035
4.758,-0.800,-0.015
4.761,-0.820,-0.045
4.764,-0.835,-0.065
4.767,-0.840,-0.055
4.769,-0.810,-0.045
4.772,-0.770,-0.030
4.775,-0.705,-0.010
4.778,-0.655,-0.025
4.781,-0.640,-0.040
4.783,-0.635,-0.055
4.786,-0.645,-0.055
4.789,-0.625,-0.040
4.792,-0.620,-0.015
4.794,-0.600,-0.020
4.797,-0.620,-0.050
4.800,-0.620,-0.060
4.803,-0.620,-0.060
4.806,-0.605,-0.025
4.808,-0.585,-0.025
4.811,-0.585,-0.035
4.814,-0.595,-0.050
4.817,-0.605,-0.065
4.819,-0.600,-0.055
4.822,-0.595,-0.045
4.825,-0.565,-0.025
4.828,-0.580,-0.040
4.831,-0.580,-0.050
4.833,-0.585,-0.065
4.836,-0.590,-0.050
4.839,-0.570,-0.050
4.842,-0.550,-0.030
4.844,-0.545,-0.045
4.847,-0.545,-0.065
4.850,-0.565,-0.070
4.853,-0.560,-0.065
4.856,-0.555,-0.055
4.858,-0.525,-0.050
4.861,-0.535,-0.040
4.864,-0.525,-0.065
4.867,-0.545,-0.075
4.869,-0.550,-0.065
4.872,-0.535,-0.055
4.875,-0.515,-0.040
4.878,-0.505,-0.060
4.881,-0.500,-0.060
4.883,-0.500,-0.085
4.886,-0.510,-0.070
4.889,-0.490,-0.060
4.892,-0.475,-0.055
4.894,-0.460,-0.060
4.897,-0.455,-0.070
4.900,-0.460,-0.075
4.903,-0.460,-0.075
4.906,-0.440,-0.075
4.908,-0.420,-0.065
4.911,-0.400,-0.070
4.914,-0.405,-0.080
4.917,-0.395,-0.085
4.919,-0.390,-0.085
4.922,-0.375,-0.065
4.925,-0.345,-0.065
4.928,-0.330,-0.075
4.931,-0.325,-0.090
4.933,-0.315,-0.105
4.936,-0.300,-0.100
4.939,-0.280,-0.085
4.942,-0.270,-0.080
4.944,-0.220,-0.090
4.947,-0.200,-0.095
4.950,-0.185,-0.105
4.953,-0.175,-0.105
4.956,-0.140,-0.090
4.958,-0.090,-0.085
4.961,-0.065,-0.090
4.964,-0.055,-0.110
4.967,-0.035,-0.120
4.969,-0.010,-0.115
4.972,0.015,-0.110
4.975,0.075,-0.105
4.978,0.115,-0.120
4.981,0.130,-0.120
4.983,0.145,-0.135
4.986,0.175,-0.130
4.989,0.215,-0.120
4.992,0.260,-0.115
4.994,0.285,-0.130
4.997,0.310,-0.145
5.000,0.315,-0.145
5.003,0.330,-0.145
5.006,0.380,-0.120
5.008,0.410,-0.115
5.011,0.450,-0.135
5.014,0.465,-0.150
5.017,0.480,-0.155
5.019,0.485,-0.155
5.022,0.510,-0.140
5.025,0.530,-0.120
5.028,0.540,-0.125
5.031,0.515,-0.130
5.033,0.480,-0.135
5.036,0.460,-0.125
5.039,0.430,-0.090
5.042,0.395,-0.085
5.044,0.345,-0.090
5.047,0.280,-0.110
5.050,0.205,-0.105
5.053,0.140,-0.100
5.056,0.075,-0.100
5.058,0.025,-0.085
5.061,-0.040,-0.090
5.064,-0.110,-0.100
5.067,-0.185,-0.110
5.069,-0.245,-0.110
5.072,-0.305,-0.090
5.075,-0.340,-0.085
5.078,-0.385,-0.090
5.081,-0.420,-0.095
5.083,-0.475,-0.115
5.086,-0.515,-0.110
5.089,-0.545,-0.105
5.092,-0.550,-0.075
5.094,-0.560,-0.085
5.097,-0.585,-0.110
5.100,-0.605,-0.115
5.103,-0.630,-0.110
5.106,-0.640,-0.095
5.108,-0.635,-0.070
5.111,-0.635,-0.090
5.114,-0.650,-0.110
5.117,-0.665,-0.110
5.119,-0.680,-0.110
5.122,-0.685,-0.090
5.125,-0.675,-0.090
5.128,-0.665,-0.095
5.131,-0.670,-0.130
5.133,-0.685,-0.120
5.136,-0.710,-0.115
5.139,-0.695,-0.095
5.142,-0.680,-0.090
5.144,-0.675,-0.100
5.147,-0.680,-0.105
5.150,-0.705,-0.115
5.153,-0.715,-0.105
5.156,-0.705,-0.095
5.158,-0.680,-0.080
5.161,-0.685,-0.090
5.164,-0.690,-0.110
5.167,-0.690,-0.125
5.169,-0.710,-0.115
5.172,-0.705,-0.105
5.175,-0.685,-0.095
5.178,-0.675,-0.095
5.181,-0.680,-0.110
5.183,-0.690,-0.120
5.186,-0.705,-0.110
5.189,-0.695,-0.095
5.192,-0.660,-0.095
5.194,-0.665,-0.090
5.197,-0.675,-0.105
5.200,-0.680,-0.120
5.203,-0.690,-0.120
5.206,-0.680,-0.100
5.208,-0.655,-0.090
5.211,-0.645,-0.105
5.214,-0.665,-0.115
5.217,-0.670,-0.120
5.219,-0.700,-0.125
5.222,-0.670,-0.100
5.225,-0.655,-0.085
5.228,-0.645,-0.110
5.231,-0.650,-0.115
5.233,-0.670,-0.130
5.236,-0.675,-0.120
5.239,-0.675,-0.105
5.242,-0.660,-0.100
5.244,-0.645,-0.115
5.247,-0.660,-0.125
5.250,-0.665,-0.125
5.253,-0.680,-0.115
5.256,-0.675,-0.105
5.258,-0.660,-0.105
5.261,-0.645,-0.110
5.264,-0.655,-0.115
5.267,-0.655,-0.130
5.269,-0.670,-0.120
5.272,-0.665,-0.115
5.275,-0.645,-0.100
5.278,-0.645,-0.110
5.281,-0.645,-0.130
5.283,-0.660,-0.115
5.286,-0.685,-0.115
5.289,-0.670,-0.115
5.292,-0.650,-0.100
5.294,-0.640,-0.110
5.297,-0.650,-0.125
5.300,-0.675,-0.130
5.303,-0.665,-0.125
5.306,-0.660,-0.115
5.308,-0.655,-0.100
5.311,-0.650,-0.100
5.314,-0.655,-0.120
5.317,-0.670,-0.140
5.319,-0.685,-0.125
5.322,-0.680,-0.125
5.325,-0.660,-0.105
5.328,-0.655,-0.125
5.331,-0.660,-0.135
5.333,-0.670,-0.145
5.336,-0.670,-0.125
5.339,-0.665,-0.115
5.342,-0.665,-0.110
5.344,-0.665,-0.120
5.347,-0.660,-0.115
5.350,-0.670,-0.135
5.353,-0.685,-0.140
5.356,-0.670,-0.125
5.358,-0.650,-0.115
5.361,-0.640,-0.125
5.364,-0.660,-0.135
5.367,-0.665,-0.125
5.369,-0.675,-0.140
5.372,-0.660,-0.120
5.375,-0.655,-0.110
5.378,-0.645,-0.115
5.381,-0.650,-0.125
5.383,-0.670,-0.140
5.386,-0.660,-0.140
5.389,-0.650,-0.130
5.392,-0.640,-0.115
5.394,-0.650,-0.120
5.397,-0.650,-0.125
5.400,-0.660,-0.145
5.403,-0.675,-0.135
5.406,-0.655,-0.130
5.408,-0.635,-0.110
5.411,-0.630,-0.125
5.414,-0.635,-0.130
5.417,-0.655,-0.145
5.419,-0.665,-0.140
5.422,-0.660,-0.140
5.425,-0.635,-0.115
5.428,-0.630,-0.130
5.431,-0.635,-0.125
5.433,-0.655,-0.145
5.436,-0.645,-0.140
5.439,-0.625,-0.135
5.442,-0.625,-0.120
5.444,-0.610,-0.125
5.447,-0.630,-0.140
5.450,-0.640,-0.155
5.453,-0.645,-0.150
5.456,-0.635,-0.140
5.458,-0.630,-0.120
5.461,-0.610,-0.125
5.464,-0.610,-0.130
5.467,-0.620,-0.145
5.469,-0.630,-0.145
5.472,-0.620,-0.130
5.475,-0.620,-0.135
5.478,-0.615,-0.130
5.481,-0.605,-0.135
5.483,-0.620,-0.150
5.486,-0.635,-0.150
5.489,-0.620,-0.135
5.492,-0.605,-0.115
5.494,-0.590,-0.125
5.497,-0.600,-0.145
5.500,-0.635,-0.140
5.503,-0.625,-0.140
5.506,-0.610,-0.130
5.508,-0.600,-0.120
5.511,-0.595,-0.130
5.514,-0.605,-0.135
5.517,-0.605,-0.145
5.519,-0.610,-0.145
5.522,-0.600,-0.115
5.525,-0.590,-0.115
5.528,-0.595,-0.125
5.531,-0.600,-0.135
5.533,-0.615,-0.150
5.536,-0.615,-0.145
5.539,-0.610,-0.130
5.542,-0.580,-0.115
5.544,-0.565,-0.130
5.547,-0.580,-0.135
5.550,-0.600,-0.145
5.553,-0.595,-0.145
5.556,-0.585,-0.125
5.558,-0.580,-0.120
5.561,-0.570,-0.125
5.564,-0.570,-0.145
5.567,-0.595,-0.155
5.569,-0.585,-0.140
5.572,-0.580,-0.130
5.575,-0.570,-0.120
5.578,-0.570,-0.120
5.581,-0.575,-0.135
5.583,-0.575,-0.150
5.586,-0.595,-0.145
5.589,-0.585,-0.130
5.592,-0.560,-0.115
5.594,-0.555,-0.135
5.597,-0.570,-0.140
5.600,-0.580,-0.145
5.603,-0.580,-0.130
5.606,-0.575,-0.130
5.608,-0.575,-0.125
5.611,-0.555,-0.130
5.614,-0.560,-0.120
5.617,-0.580,-0.135
5.619,-0.570,-0.150
5.622,-0.570,-0.135
5.625,-0.555,-0.115
5.628,-0.540,-0.125
5.631,-0.545,-0.135
5.633,-0.560,-0.130
5.636,-0.560,-0.120
5.639,-0.540,-0.100
5.642,-0.525,-0.075
5.644,-0.510,-0.075
5.647,-0.515,-0.090
5.650,-0.525,-0.105
5.653,-0.510,-0.110
5.656,-0.485,-0.110
5.658,-0.470,-0.105
5.661,-0.455,-0.110
5.664,-0.475,-0.135
5.667,-0.480,-0.150
5.669,-0.475,-0.165
5.672,-0.460,-0.160
5.675,-0.440,-0.145
5.678,-0.445,-0.150
5.681,-0.455,-0.160
5.683,-0.480,-0.155
5.686,-0.485,-0.145
5.689,-0.470,-0.130
5.692,-0.465,-0.125
5.694,-0.445,-0.130
5.697,-0.485,-0.150
5.700,-0.500,-0.140
5.703,-0.510,-0.145
5.706,-0.515,-0.125
5.708,-0.500,-0.120
5.711,-0.515,-0.125
5.714,-0.520,-0.140
5.717,-0.530,-0.150
5.719,-0.530,-0.140
5.722,-0.520,-0.125
5.725,-0.505,-0.125
5.728,-0.490,-0.135
5.731,-0.515,-0.135
5.733,-0.510,-0.140
5.736,-0.525,-0.140
5.739,-0.515,-0.125
5.742,-0.490,-0.115
5.744,-0.495,-0.120
5.747,-0.495,-0.130
5.750,-0.505,-0.150
5.753,-0.515,-0.140
5.756,-0.485,-0.115
5.758,-0.480,-0.100
5.761,-0.460,-0.110
5.764,-0.465,-0.100
5.767,-0.475,-0.080
5.769,-0.485,-0.045
5.772,-0.470,0.010
5.775,-0.465,0.075
5.778,-0.495,0.090
5.781,-0.520,0.085
5.783,-0.570,0.060
5.786,-0.590,0.040
5.789,-0.585,-0.005
5.792,-0.545,-0.050
5.794,-0.470,-0.160
5.797,-0.325,-0.270
5.800,-0.080,-0.385
5.803,0.295,-0.490
5.806,0.765,-0.545
5.808,1.260,-0.545
5.811,1.655,-0.490
5.814,1.940,-0.430
5.817,2.035,-0.340
5.819,1.970,-0.255
5.822,1.660,-0.195
5.825,1.070,-0.175
5.828,0.430,-0.175
5.831,-0.210,-0.200
5.833,-0.760,-0.195
5.836,-0.775,-0.145
5.839,-0.665,-0.115
5.842,-0.610,-0.090
5.844,-0.605,-0.100
5.847,-0.630,-0.125
5.850,-0.640,-0.130
5.853,-0.615,-0.115
5.856,-0.610,-0.100
5.858,-0.550,-0.080
5.861,-0.500,-0.085
5.864,-0.440,-0.090
5.867,-0.420,-0.105
5.869,-0.425,-0.100
5.872,-0.410,-0.075
5.875,-0.400,-0.075
5.878,-0.395,-0.095
5.881,-0.400,-0.085
5.883,-0.410,-0.105
5.886,-0.405,-0.095
5.889,-0.400,-0.080
5.892,-0.385,-0.065
5.894,-0.365,-0.070
5.897,-0.380,-0.100
5.900,-0.385,-0.095
5.903,-0.385,-0.095
5.906,-0.380,-0.085
5.908,-0.360,-0.060
5.911,-0.355,-0.075
5.914,-0.360,-0.080
5.917,-0.380,-0.095
5.919,-0.370,-0.095
5.922,-0.360,-0.075
5.925,-0.340,-0.070
5.928,-0.345,-0.070
5.931,-0.340,-0.090
5.933,-0.350,-0.100
5.936,-0.360,-0.095
5.939,-0.340,-0.080
5.942,-0.325,-0.070
5.944,-0.310,-0.080
5.947,-0.320,-0.095
5.950,-0.340,-0.095
5.953,-0.335,-0.085
5.956,-0.330,-0.085
5.958,-0.310,-0.075
5.961,-0.310,-0.075
5.964,-0.310,-0.085
5.967,-0.325,-0.095
5.969,-0.330,-0.085
5.972,-0.315,-0.080
5.975,-0.285,-0.060
5.978,-0.290,-0.070
5.981,-0.290,-0.080
5.983,-0.295,-0.085
5.986,-0.305,-0.090
5.989,-0.285,-0.085
5.992,-0.265,-0.080
5.994,-0.255,-0.090
5.997,-0.250,-0.100
6.000,-0.270,-0.105
6.003,-0.280,-0.095
6.006,-0.265,-0.085
6.008,-0.240,-0.065
6.011,-0.230,-0.070
6.014,-0.230,-0.080
6.017,-0.235,-0.105
6.019,-0.250,-0.100
6.022,-0.225,-0.085
6.025,-0.200,-0.080
6.028,-0.195,-0.070
6.031,-0.200,-0.095
6.033,-0.205,-0.100
6.036,-0.210,-0.095
6.039,-0.190,-0.090
6.042,-0.165,-0.070
6.044,-0.145,-0.080
6.047,-0.135,-0.095
6.050,-0.155,-0.100
6.053,-0.140,-0.105
6.056,-0.120,-0.095
6.058,-0.090,-0.070
6.061,-0.075,-0.080
6.064,-0.075,-0.095
6.067,-0.080,-0.100
6.069,-0.065,-0.105
6.072,-0.040,-0.090
6.075,-0.015,-0.080
6.078,0.010,-0.090
6.081,0.015,-0.100
6.083,0.025,-0.110
6.086,0.040,-0.105
6.089,0.070,-0.090
6.092,0.100,-0.085
6.094,0.135,-0.100
6.097,0.150,-0.100
6.100,0.170,-0.105
6.103,0.180,-0.115
6.106,0.220,-0.105
6.108,0.265,-0.085
6.111,0.300,-0.095
6.114,0.320,-0.115
6.117,0.330,-0.120
6.119,0.335,-0.120
6.122,0.365,-0.105
6.125,0.410,-0.100
6.128,0.455,-0.105
6.131,0.470,-0.110
6.133,0.495,-0.135
6.136,0.515,-0.120
6.139,0.545,-0.115
6.142,0.595,-0.105
6.144,0.635,-0.115
6.147,0.650,-0.130
6.150,0.655,-0.130
6.153,0.660,-0.125
6.156,0.700,-0.110
6.158,0.725,-0.105
6.161,0.755,-0.105
6.164,0.760,-0.110
6.167,0.735,-0.120
6.169,0.710,-0.110
6.172,0.715,-0.095
6.175,0.710,-0.070
6.178,0.670,-0.075
6.181,0.620,-0.085
6.183,0.575,-0.105
6.186,0.520,-0.080
6.189,0.465,-0.075
6.192,0.410,-0.070
6.194,0.375,-0.075
6.197,0.310,-0.070
6.200,0.240,-0.090
6.203,0.155,-0.085
6.206,0.090,-0.070
6.208,0.065,-0.065
6.211,0.010,-0.060
6.214,-0.060,-0.065
6.217,-0.120,-0.075
6.219,-0.175,-0.065
6.222,-0.210,-0.065
6.225,-0.235,-0.040
6.228,-0.270,-0.055
6.231,-0.290,-0.070
6.233,-0.340,-0.075
6.236,-0.360,-0.075
6.239,-0.375,-0.060
6.242,-0.380,-0.050
6.244,-0.390,-0.055
6.247,-0.420,-0.070
6.250,-0.425,-0.075
6.253,-0.445,-0.085
6.256,-0.445,-0.050
6.258,-0.440,-0.040
6.261,-0.435,-0.060
6.264,-0.450,-0.060
6.267,-0.475,-0.075
6.269,-0.500,-0.075
6.272,-0.485,-0.060
6.275,-0.475,-0.040
6.278,-0.480,-0.055
6.281,-0.480,-0.070
6.283,-0.495,-0.080
6.286,-0.500,-0.070
6.289,-0.485,-0.050
6.292,-0.475,-0.045
6.294,-0.475,-0.055
6.297,-0.480,-0.055
6.300,-0.495,-0.065
6.303,-0.505,-0.070
6.306,-0.500,-0.060
6.308,-0.475,-0.035
6.311,-0.470,-0.050
6.314,-0.485,-0.060
6.317,-0.500,-0.055
6.319,-0.490,-0.060
6.322,-0.485,-0.060
6.325,-0.475,-0.035
6.328,-0.480,-0.055
6.331,-0.470,-0.055
6.333,-0.485,-0.065
6.336,-0.485,-0.065
6.339,-0.480,-0.040
6.342,-0.465,-0.025
6.344,-0.460,-0.030
6.347,-0.475,-0.045
6.350,-0.475,-0.055
6.353,-0.490,-0.055
6.356,-0.465,-0.040
6.358,-0.465,-0.035
6.361,-0.460,-0.040
6.364,-0.460,-0.050
6.367,-0.475,-0.075
6.369,-0.485,-0.060
6.372,-0.475,-0.055
6.375,-0.455,-0.035
6.378,-0.450,-0.055
6.381,-0.460,-0.065
6.383,-0.465,-0.075
6.386,-0.485,-0.065
6.389,-0.470,-0.045
6.392,-0.460,-0.035
6.394,-0.455,-0.040
6.397,-0.455,-0.045
6.400,-0.475,-0.055
6.403,-0.475,-0.060
6.406,-0.485,-0.045
6.408,-0.465,-0.045
6.411,-0.450,-0.045
6.414,-0.460,-0.055
6.417,-0.480,-0.070
6.419,-0.495,-0.060
6.422,-0.480,-0.045
6.425,-0.465,-0.040
6.428,-0.455,-0.055
6.431,-0.485,-0.050
6.433,-0.490,-0.065
6.436,-0.495,-0.045
6.439,-0.480,-0.045
6.442,-0.470,-0.040
6.444,-0.470,-0.035
6.447,-0.470,-0.045
6.450,-0.495,-0.050
6.453,-0.505,-0.045
6.456,-0.505,-0.040
6.458,-0.480,-0.035
6.461,-0.475,-0.045
6.464,-0.470,-0.055
6.467,-0.485,-0.060
6.469,-0.505,-0.065
6.472,-0.490,-0.040
6.475,-0.485,-0.025
6.478,-0.480,-0.030
6.481,-0.480,-0.050
6.483,-0.495,-0.060
6.486,-0.510,-0.060
6.489,-0.500,-0.035
6.492,-0.490,-0.030
6.494,-0.480,-0.030
6.497,-0.490,-0.055
6.500,-0.490,-0.050
6.503,-0.495,-0.045
6.506,-0.475,-0.030
6.508,-0.475,-0.035
6.511,-0.470,-0.040
6.514,-0.480,-0.040
6.517,-0.495,-0.055
6.519,-0.500,-0.045
6.522,-0.490,-0.050
6.525,-0.470,-0.020
6.528,-0.480,-0.035
6.531,-0.465,-0.045
6.533,-0.480,-0.055
6.536,-0.490,-0.055
6.539,-0.485,-0.050
6.542,-0.470,-0.025
6.544,-0.470,-0.035
6.547,-0.480,-0.050
6.550,-0.485,-0.045
6.553,-0.485,-0.050
6.556,-0.480,-0.035
6.558,-0.465,-0.030
6.561,-0.455,-0.030
6.564,-0.455,-0.040
6.567,-0.475,-0.055
6.569,-0.480,-0.045
6.572,-0.475,-0.040
6.575,-0.455,-0.025
6.578,-0.450,-0.025
6.581,-0.475,-0.040
6.583,-0.475,-0.045
6.586,-0.490,-0.050
6.589,-0.480,-0.050
6.592,-0.460,-0.020
6.594,-0.450,-0.025
6.597,-0.460,-0.050
6.600,-0.480,-0.055
6.603,-0.490,-0.050
6.606,-0.470,-0.050
6.608,-0.445,-0.025
6.611,-0.440,-0.025
6.614,-0.445,-0.045
6.617,-0.465,-0.050
6.619,-0.470,-0.045
6.622,-0.470,-0.035
6.625,-0.460,-0.030
6.628,-0.440,-0.035
6.631,-0.440,-0.040
6.633,-0.450,-0.040
6.636,-0.465,-0.040
6.639,-0.465,-0.035
6.642,-0.440,-0.025
6.644,-0.440,-0.025
6.647,-0.460,-0.025
6.650,-0.460,-0.045
6.653,-0.465,-0.050
6.656,-0.455,-0.035
6.658,-0.430,-0.030
6.661,-0.430,-0.020
6.664,-0.435,-0.045
6.667,-0.455,-0.060
6.669,-0.470,-0.040
6.672,-0.435,-0.040
6.675,-0.425,-0.030
6.678,-0.410,-0.025
6.681,-0.415,-0.040
6.683,-0.445,-0.055
6.686,-0.450,-0.050
6.689,-0.445,-0.040
6.692,-0.430,-0.030
6.694,-0.415,-0.035
6.697,-0.415,-0.045
6.700,-0.435,-0.055
6.703,-0.450,-0.035
6.706,-0.435,-0.025
6.708,-0.420,-0.020
6.711,-0.410,-0.020
6.714,-0.405,-0.040
6.717,-0.425,-0.040
6.719,-0.430,-0.030
6.722,-0.430,-0.020
6.725,-0.420,-0.005
6.728,-0.405,-0.005
6.731,-0.405,-0.025
6.733,-0.415,-0.030
6.736,-0.415,-0.055
6.739,-0.415,-0.035
6.742,-0.410,-0.030
6.744,-0.385,-0.035
6.747,-0.390,-0.045
6.750,-0.410,-0.050
6.753,-0.425,-0.045
6.756,-0.410,-0.025
6.758,-0.405,-0.015
6.761,-0.405,-0.015
6.764,-0.400,-0.040
6.767,-0.425,-0.040
6.769,-0.425,-0.030
6.772,-0.405,-0.025
6.775,-0.400,-0.015
6.778,-0.405,-0.005
6.781,-0.395,-0.020
6.783,-0.400,-0.010
6.786,-0.400,-0.005
6.789,-0.395,0.015
6.792,-0.365,0.030
6.794,-0.355,0.010
6.797,-0.355,0.000
6.800,-0.370,-0.005
6.803,-0.370,-0.005
6.806,-0.340,0.000
6.808,-0.320,0.010
6.811,-0.315,-0.020
6.814,-0.325,-0.020
6.817,-0.345,-0.030
6.819,-0.355,-0.050
6.822,-0.330,-0.035
6.825,-0.320,-0.035
6.828,-0.280,-0.050
6.831,-0.295,-0.050
6.833,-0.320,-0.055
6.836,-0.335,-0.050
6.839,-0.320,-0.030
6.842,-0.300,-0.020
6.844,-0.295,-0.020
6.847,-0.315,-0.030
6.850,-0.330,-0.025
6.853,-0.350,-0.030
6.856,-0.345,-0.010
6.858,-0.340,-0.010
6.861,-0.340,-0.020
6.864,-0.355,-0.030
6.867,-0.375,-0.035
6.869,-0.385,-0.035
6.872,-0.375,-0.010
6.875,-0.370,-0.020
6.878,-0.355,-0.015
6.881,-0.360,-0.035
6.883,-0.375,-0.035
6.886,-0.370,-0.025
6.889,-0.370,-0.010
6.892,-0.355,0.000
6.894,-0.360,-0.005
6.897,-0.355,-0.015
6.900,-0.365,-0.035
6.903,-0.380,-0.025
6.906,-0.375,-0.010
6.908,-0.350,0.005
6.911,-0.350,-0.010
6.914,-0.330,-0.010
6.917,-0.345,-0.010
6.919,-0.345,-0.015
6.922,-0.340,0.015
6.925,-0.315,0.040
6.928,-0.320,0.065
6.931,-0.310,0.085
6.933,-0.335,0.110
6.936,-0.355,0.160
6.939,-0.370,0.205
6.942,-0.395,0.220
6.944,-0.405,0.200
6.947,-0.435,0.165
6.950,-0.450,0.110
6.953,-0.425,0.040
6.956,-0.315,-0.060
6.958,-0.090,-0.145
6.961,0.285,-0.260
6.964,0.750,-0.360
6.967,1.225,-0.405
6.969,1.645,-0.360
6.972,1.950,-0.280
6.975,2.075,-0.165
6.978,2.015,-0.085
6.981,1.670,-0.040
6.983,1.045,-0.040
6.986,0.405,-0.040
6.989,-0.235,-0.040
6.992,-0.615,-0.010
6.994,-0.615,-0.005
6.997,-0.530,0.010
7.000,-0.500,0.015
7.003,-0.510,0.020
7.006,-0.515,0.025
7.008,-0.510,0.030
7.011,-0.500,0.025
7.014,-0.475,0.015
7.017,-0.470,0.005
7.019,-0.440,0.020
7.022,-0.390,0.025
7.025,-0.330,0.035
7.028,-0.280,0.040
7.031,-0.260,0.030
7.033,-0.285,0.015
7.036,-0.275,0.025
7.039,-0.280,0.035
7.042,-0.270,0.040
7.044,-0.245,0.035
7.047,-0.250,0.005
7.050,-0.255,0.005
7.053,-0.260,0.000
7.056,-0.250,0.020
7.058,-0.230,0.030
7.061,-0.220,0.030
7.064,-0.240,0.020
7.067,-0.230,0.000
7.069,-0.245,-0.005
7.072,-0.230,0.020
7.075,-0.210,0.030
7.078,-0.200,0.020
7.081,-0.200,0.020
7.083,-0.215,0.010
7.086,-0.215,0.010
7.089,-0.210,0.035
7.092,-0.185,0.035
7.094,-0.180,0.030
7.097,-0.185,0.020
7.100,-0.205,0.015
7.103,-0.205,0.010
7.106,-0.190,0.020
7.108,-0.170,0.045
7.111,-0.160,0.035
7.114,-0.165,0.035
7.117,-0.180,0.010
7.119,-0.180,0.025
7.122,-0.165,0.035
7.125,-0.155,0.035
7.128,-0.135,0.020
7.131,-0.150,0.015
7.133,-0.150,0.000
7.136,-0.155,0.005
7.139,-0.155,0.020
7.142,-0.145,0.035
7.144,-0.130,0.025
7.147,-0.145,0.030
7.150,-0.150,0.015
7.153,-0.145,0.020
7.156,-0.120,0.020
7.158,-0.105,0.040
7.161,-0.095,0.030
7.164,-0.110,0.010
7.167,-0.100,0.005
7.169,-0.115,0.020
7.172,-0.090,0.020
7.175,-0.075,0.040
7.178,-0.060,0.025
7.181,-0.060,0.010
7.183,-0.060,0.005
7.186,-0.070,-0.005
7.189,-0.035,0.020
7.192,-0.010,0.030
7.194,-0.005,0.025
7.197,-0.005,0.015
7.200,0.010,0.010
7.203,0.010,0.000
7.206,0.025,0.020
7.208,0.045,0.020
7.211,0.055,0.025
7.214,0.060,0.000
7.217,0.065,0.005
7.219,0.070,0.000
7.222,0.100,0.015
7.225,0.135,0.020
7.228,0.155,0.015
7.231,0.170,0.005
7.233,0.160,0.005
7.236,0.195,-0.005
7.239,0.215,0.005
7.242,0.260,0.020
7.244,0.285,-0.005
7.247,0.300,-0.005
7.250,0.310,-0.020
7.253,0.310,-0.010
7.256,0.365,-0.010
7.258,0.410,-0.005
7.261,0.445,-0.005
7.264,0.455,-0.030
7.267,0.475,-0.025
7.269,0.505,-0.020
7.272,0.540,-0.020
7.275,0.580,-0.015
7.278,0.615,-0.020
7.281,0.630,-0.025
7.283,0.645,-0.035
7.286,0.665,-0.045
7.289,0.705,-0.035
7.292,0.750,-0.025
7.294,0.770,-0.030
7.297,0.795,-0.030
7.300,0.800,-0.060
7.303,0.815,-0.055
7.306,0.850,-0.030
7.308,0.880,-0.020
7.311,0.890,-0.025
7.314,0.895,-0.025
7.317,0.880,-0.030
7.319,0.865,-0.025
7.322,0.855,-0.005
7.325,0.855,0.005
7.328,0.835,0.010
7.331,0.780,0.005
7.333,0.720,0.000
7.336,0.670,0.010
7.339,0.610,0.020
7.342,0.580,0.035
7.344,0.515,0.035
7.347,0.450,0.015
7.350,0.355,0.025
7.353,0.285,0.020
7.356,0.225,0.040
7.358,0.175,0.040
7.361,0.115,0.040
7.364,0.055,0.030
7.367,-0.005,0.025
7.369,-0.060,0.030
7.372,-0.100,0.045
7.375,-0.105,0.050
7.378,-0.135,0.050
7.381,-0.170,0.040
7.383,-0.205,0.030
7.386,-0.240,0.035
7.389,-0.255,0.055
7.392,-0.245,0.060
7.394,-0.250,0.055
7.397,-0.265,0.035
7.400,-0.290,0.035
7.403,-0.300,0.035
7.406,-0.300,0.040
7.408,-0.295,0.065
7.411,-0.290,0.050
7.414,-0.305,0.035
7.417,-0.325,0.025
7.419,-0.335,0.035
7.422,-0.325,0.035
7.425,-0.315,0.060
7.428,-0.315,0.040
7.431,-0.315,0.040
7.433,-0.330,0.035
7.436,-0.335,0.045
7.439,-0.350,0.060
7.442,-0.320,0.065
7.444,-0.320,0.050
7.447,-0.315,0.045
7.450,-0.335,0.030
7.453,-0.340,0.030
7.456,-0.345,0.055
7.458,-0.325,0.060
7.461,-0.315,0.065
7.464,-0.315,0.040
7.467,-0.325,0.030
7.469,-0.325,0.035
7.472,-0.325,0.050
7.475,-0.315,0.070
7.478,-0.310,0.060
7.481,-0.305,0.040
7.483,-0.325,0.035
7.486,-0.325,0.045
7.489,-0.320,0.050
7.492,-0.315,0.065
7.494,-0.305,0.070
7.497,-0.305,0.045
7.500,-0.325,0.035
7.503,-0.320,0.030
7.506,-0.310,0.035
7.508,-0.300,0.070
7.511,-0.290,0.060
7.514,-0.305,0.045
7.517,-0.315,0.035
7.519,-0.320,0.030
7.522,-0.305,0.055
7.525,-0.300,0.065
7.528,-0.285,0.055
7.531,-0.290,0.035
7.533,-0.310,0.025
7.536,-0.310,0.040
7.539,-0.310,0.050
7.542,-0.300,0.065
7.544,-0.285,0.055
7.547,-0.295,0.040
7.550,-0.310,0.030
7.553,-0.305,0.035
7.556,-0.320,0.050
7.558,-0.300,0.060
7.561,-0.295,0.055
7.564,-0.310,0.040
7.567,-0.340,0.045
7.569,-0.330,0.040
7.572,-0.325,0.050
7.575,-0.315,0.055
7.578,-0.300,0.050
7.581,-0.305,0.040
7.583,-0.310,0.030
7.586,-0.335,0.030
7.589,-0.320,0.045
7.592,-0.310,0.070
7.594,-0.310,0.050
7.597,-0.310,0.045
7.600,-0.335,0.025
7.603,-0.335,0.030
7.606,-0.345,0.050
7.608,-0.325,0.060
7.611,-0.305,0.055
7.614,-0.320,0.035
7.617,-0.340,0.020
7.619,-0.340,0.040
7.622,-0.340,0.050
7.625,-0.325,0.065
7.628,-0.325,0.050
7.631,-0.335,0.030
7.633,-0.330,0.025
7.636,-0.340,0.035
7.639,-0.330,0.050
7.642,-0.330,0.045
7.644,-0.320,0.045
7.647,-0.320,0.035
7.650,-0.340,0.010
7.653,-0.335,0.030
7.656,-0.330,0.040
7.658,-0.315,0.055
7.661,-0.310,0.045
7.664,-0.325,0.035
7.667,-0.340,0.035
7.669,-0.355,0.030
7.672,-0.345,0.035
7.675,-0.335,0.060
7.678,-0.325,0.045
7.681,-0.325,0.025
7.683,-0.325,0.030
7.686,-0.340,0.040
7.689,-0.330,0.050
7.692,-0.305,0.055
7.694,-0.305,0.045
7.697,-0.325,0.025
7.700,-0.345,0.020
7.703,-0.345,0.030
7.706,-0.340,0.030
7.708,-0.320,0.050
7.711,-0.325,0.040
7.714,-0.335,0.030
7.717,-0.345,0.020
7.719,-0.330,0.020
7.722,-0.340,0.045
7.725,-0.330,0.060
7.728,-0.315,0.055
7.731,-0.320,0.035
7.733,-0.325,0.035
7.736,-0.320,0.040
7.739,-0.315,0.030
7.742,-0.315,0.040
7.744,-0.300,0.045
7.747,-0.305,0.025
7.750,-0.320,0.020
7.753,-0.315,0.025
7.756,-0.310,0.045
7.758,-0.300,0.055
7.761,-0.310,0.045
7.764,-0.305,0.045
7.767,-0.325,0.030
7.769,-0.330,0.030
7.772,-0.315,0.040
7.775,-0.310,0.055
7.778,-0.290,0.045
7.781,-0.295,0.045
7.783,-0.305,0.030
7.786,-0.320,0.030
7.789,-0.305,0.050
7.792,-0.295,0.055
7.794,-0.295,0.065
7.797,-0.290,0.055
7.800,-0.305,0.070
7.803,-0.290,0.075
7.806,-0.270,0.095
7.808,-0.255,0.100
7.811,-0.245,0.105
7.814,-0.235,0.080
7.817,-0.255,0.070
7.819,-0.240,0.060
7.822,-0.245,0.060
7.825,-0.225,0.075
7.828,-0.210,0.060
7.831,-0.215,0.030
7.833,-0.225,0.010
7.836,-0.225,0.025
7.839,-0.205,0.030
7.842,-0.170,0.035
7.844,-0.185,0.030
7.847,-0.195,0.015
7.850,-0.215,0.015
7.853,-0.230,0.020
7.856,-0.215,0.030
7.858,-0.210,0.050
7.861,-0.220,0.040
7.864,-0.245,0.030
7.867,-0.265,0.020
7.869,-0.285,0.030
7.872,-0.275,0.045
7.875,-0.275,0.045
7.878,-0.270,0.040
7.881,-0.280,0.020
7.883,-0.305,0.025
7.886,-0.315,0.035
7.889,-0.295,0.035
7.892,-0.285,0.050
7.894,-0.275,0.040
7.897,-0.280,0.035
7.900,-0.290,0.035
7.903,-0.310,0.030
7.906,-0.290,0.045
7.908,-0.275,0.055
7.911,-0.270,0.040
7.914,-0.275,0.030
7.917,-0.285,0.030
7.919,-0.285,0.025
7.922,-0.280,0.045
7.925,-0.270,0.065
7.928,-0.250,0.065
7.931,-0.250,0.065
7.933,-0.250,0.070
7.936,-0.260,0.130
7.939,-0.250,0.175
7.942,-0.245,0.235
7.944,-0.270,0.270
7.947,-0.310,0.275
7.950,-0.355,0.255
7.953,-0.395,0.220
7.956,-0.385,0.165
7.958,-0.340,0.095
7.961,-0.230,-0.020
7.964,-0.020,-0.145
7.967,0.335,-0.255
7.969,0.840,-0.360
7.972,1.390,-0.380
7.975,1.850,-0.310
7.978,2.150,-0.210
7.981,2.235,-0.120
7.983,2.020,-0.045
7.986,1.480,-0.005
7.989,0.840,0.010
7.992,0.200,0.015
7.994,-0.440,0.035
7.997,-0.580,0.060
8.000,-0.465,0.065
8.003,-0.405,0.085
8.006,-0.420,0.090
8.008,-0.420,0.080
8.011,-0.420,0.070
8.014,-0.400,0.060
8.017,-0.380,0.060
8.019,-0.335,0.075
8.022,-0.270,0.085
8.025,-0.225,0.085
8.028,-0.210,0.080
8.031,-0.225,0.070
8.033,-0.240,0.065
8.036,-0.245,0.060
8.039,-0.215,0.080
8.042,-0.205,0.075
8.044,-0.195,0.070
8.047,-0.200,0.055
8.050,-0.215,0.065
8.053,-0.205,0.065
8.056,-0.190,0.085
8.058,-0.180,0.080
8.061,-0.175,0.060
8.064,-0.175,0.065
8.067,-0.200,0.055
8.069,-0.200,0.045
8.072,-0.170,0.070
8.075,-0.165,0.070
8.078,-0.160,0.060
8.081,-0.170,0.050
8.083,-0.180,0.045
8.086,-0.170,0.050
8.089,-0.175,0.070
8.092,-0.145,0.070
8.094,-0.135,0.080
8.097,-0.145,0.065
8.100,-0.155,0.050
8.103,-0.150,0.040
8.106,-0.150,0.060
8.108,-0.145,0.070
8.111,-0.120,0.070
8.114,-0.130,0.060
8.117,-0.135,0.045
8.119,-0.135,0.055
8.122,-0.120,0.055
8.125,-0.105,0.060
8.128,-0.105,0.070
8.131,-0.100,0.050
8.133,-0.110,0.040
8.136,-0.120,0.050
8.139,-0.100,0.060
8.142,-0.070,0.075
8.144,-0.065,0.055
8.147,-0.050,0.045
8.150,-0.060,0.040
8.153,-0.070,0.040
8.156,-0.040,0.045
8.158,-0.030,0.055
8.161,-0.020,0.050
8.164,-0.010,0.045
8.167,-0.005,0.030
8.169,-0.010,0.055
8.172,0.000,0.050
8.175,0.030,0.065
8.178,0.050,0.060
8.181,0.055,0.040
8.183,0.065,0.025
8.186,0.070,0.030
8.189,0.095,0.055
8.192,0.120,0.070
8.194,0.145,0.060
8.197,0.150,0.040
8.200,0.170,0.020
8.203,0.185,0.025
8.206,0.210,0.030
8.208,0.245,0.050
8.211,0.270,0.040
8.214,0.275,0.030
8.217,0.300,0.015
8.219,0.305,0.030
8.222,0.340,0.050
8.225,0.385,0.045
8.228,0.430,0.030
8.231,0.440,0.005
8.233,0.475,-0.005
8.236,0.500,0.005
8.239,0.540,0.010
8.242,0.585,0.030
8.244,0.615,0.025
8.247,0.630,-0.005
8.250,0.650,0.005
8.253,0.670,0.000
8.256,0.710,0.000
8.258,0.750,0.020
8.261,0.795,0.020
8.264,0.815,0.005
8.267,0.835,-0.015
8.269,0.850,-0.015
8.272,0.880,0.005
8.275,0.920,0.010
8.278,0.930,0.015
8.281,0.935,0.005
8.283,0.915,0.000
8.286,0.905,0.010
8.289,0.900,0.025
8.292,0.885,0.040
8.294,0.855,0.035
8.297,0.800,0.030
8.300,0.730,0.025
8.303,0.660,0.030
8.306,0.605,0.050
8.308,0.540,0.060
8.311,0.480,0.050
8.314,0.420,0.040
8.317,0.345,0.040
8.319,0.255,0.040
8.322,0.195,0.055
8.325,0.155,0.075
8.328,0.100,0.065
8.331,0.040,0.050
8.333,-0.010,0.035
8.336,-0.075,0.035
8.339,-0.100,0.050
8.342,-0.115,0.060
8.344,-0.145,0.060
8.347,-0.175,0.040
8.350,-0.225,0.025
8.353,-0.235,0.045
8.356,-0.240,0.050
8.358,-0.245,0.055
8.361,-0.245,0.050
8.364,-0.270,0.040
8.367,-0.295,0.030
8.369,-0.310,0.040
8.372,-0.320,0.035
8.375,-0.310,0.060
8.378,-0.305,0.050
8.381,-0.335,0.040
8.383,-0.340,0.030
8.386,-0.340,0.035
8.389,-0.340,0.040
8.392,-0.340,0.055
8.394,-0.330,0.060
8.397,-0.330,0.045
8.400,-0.350,0.045
8.403,-0.350,0.050
8.406,-0.340,0.055
8.408,-0.345,0.065
8.411,-0.325,0.050
8.414,-0.330,0.045
8.417,-0.350,0.040
8.419,-0.350,0.050
8.422,-0.355,0.065
8.425,-0.350,0.070
8.428,-0.335,0.055
8.431,-0.335,0.050
8.433,-0.355,0.030
8.436,-0.365,0.050
8.439,-0.345,0.050
8.442,-0.335,0.070
8.444,-0.320,0.070
8.447,-0.340,0.055
8.450,-0.340,0.045
8.453,-0.355,0.050
8.456,-0.345,0.060
8.458,-0.325,0.065
8.461,-0.330,0.060
8.464,-0.350,0.040
8.467,-0.335,0.040
8.469,-0.335,0.050
8.472,-0.335,0.055
8.475,-0.330,0.060
8.478,-0.330,0.065
8.481,-0.335,0.060
8.483,-0.340,0.040
8.486,-0.365,0.040
8.489,-0.360,0.060
8.492,-0.330,0.065
8.494,-0.320,0.055
8.497,-0.330,0.055
8.500,-0.345,0.040
8.503,-0.355,0.030
8.506,-0.340,0.060
8.508,-0.345,0.060
8.511,-0.330,0.050
8.514,-0.330,0.050
8.517,-0.355,0.035
8.519,-0.355,0.055
8.522,-0.370,0.065
8.525,-0.345,0.070
8.528,-0.340,0.070
8.531,-0.345,0.055
8.533,-0.365,0.045
8.536,-0.365,0.045
8.539,-0.355,0.055
8.542,-0.345,0.070
8.544,-0.355,0.070
8.547,-0.370,0.050
8.550,-0.385,0.040
8.553,-0.395,0.045
8.556,-0.380,0.055
8.558,-0.365,0.070
8.561,-0.360,0.065
8.564,-0.385,0.055
8.567,-0.390,0.050
8.569,-0.400,0.050
8.572,-0.380,0.060
8.575,-0.365,0.065
8.578,-0.375,0.060
8.581,-0.385,0.050
8.583,-0.400,0.035
8.586,-0.405,0.035
8.589,-0.410,0.060
8.592,-0.385,0.065
8.594,-0.370,0.060
8.597,-0.375,0.050
8.600,-0.400,0.045
8.603,-0.415,0.050
8.606,-0.405,0.070
8.608,-0.400,0.075
8.611,-0.380,0.070
8.614,-0.385,0.060
8.617,-0.405,0.050
8.619,-0.410,0.060
8.622,-0.415,0.065
8.625,-0.385,0.080
8.628,-0.390,0.070
8.631,-0.390,0.065
8.633,-0.405,0.045
8.636,-0.410,0.055
8.639,-0.410,0.060
8.642,-0.385,0.075
8.644,-0.390,0.065
8.647,-0.395,0.065
8.650,-0.415,0.050
8.653,-0.415,0.050
8.656,-0.420,0.075
8.658,-0.395,0.085
8.661,-0.405,0.080
8.664,-0.405,0.055
8.667,-0.425,0.050
8.669,-0.425,0.060
8.672,-0.410,0.070
8.675,-0.405,0.090
8.678,-0.410,0.080
8.681,-0.415,0.060
8.683,-0.415,0.055
8.686,-0.435,0.065
8.689,-0.440,0.080
8.692,-0.415,0.095
8.694,-0.410,0.085
8.697,-0.410,0.070
8.700,-0.445,0.055
8.703,-0.440,0.060
8.706,-0.440,0.085
8.708,-0.425,0.085
8.711,-0.405,0.090
8.714,-0.415,0.070
8.717,-0.425,0.060
8.719,-0.425,0.065
8.722,-0.430,0.080
8.725,-0.415,0.100
8.728,-0.400,0.085
8.731,-0.405,0.075
8.733,-0.420,0.075
8.736,-0.430,0.070
8.739,-0.425,0.085
8.742,-0.405,0.095
8.744,-0.405,0.085
8.747,-0.415,0.085
8.750,-0.435,0.065
8.753,-0.450,0.075
8.756,-0.430,0.085
8.758,-0.425,0.095
8.761,-0.425,0.085
8.764,-0.425,0.075
8.767,-0.445,0.070
8.769,-0.445,0.080
8.772,-0.440,0.085
8.775,-0.430,0.105
8.778,-0.415,0.100
8.781,-0.430,0.080
8.783,-0.445,0.070
8.786,-0.450,0.080
8.789,-0.440,0.090
8.792,-0.420,0.110
8.794,-0.410,0.100
8.797,-0.440,0.085
8.800,-0.465,0.075
8.803,-0.445,0.090
8.806,-0.435,0.100
8.808,-0.415,0.100
8.811,-0.425,0.105
8.814,-0.420,0.095
8.817,-0.435,0.080
8.819,-0.460,0.090
8.822,-0.435,0.095
8.825,-0.425,0.110
8.828,-0.420,0.110
8.831,-0.425,0.090
8.833,-0.440,0.090
8.836,-0.445,0.095
8.839,-0.450,0.105
8.842,-0.445,0.110
8.844,-0.425,0.100
8.847,-0.445,0.105
8.850,-0.445,0.095
8.853,-0.455,0.105
8.856,-0.455,0.115
8.858,-0.430,0.130
8.861,-0.445,0.125
8.864,-0.445,0.115
8.867,-0.455,0.130
8.869,-0.445,0.145
8.872,-0.425,0.165
8.875,-0.405,0.180
8.878,-0.400,0.180
8.881,-0.395,0.140
8.883,-0.405,0.115
8.886,-0.405,0.135
8.889,-0.405,0.125
8.892,-0.385,0.120
8.894,-0.380,0.095
8.897,-0.360,0.085
8.900,-0.375,0.075
8.903,-0.385,0.095
8.906,-0.380,0.110
8.908,-0.370,0.130
8.911,-0.380,0.120
8.914,-0.370,0.125
8.917,-0.385,0.100
8.919,-0.415,0.120
8.922,-0.410,0.140
8.925,-0.405,0.155
8.928,-0.410,0.130
8.931,-0.435,0.115
8.933,-0.460,0.100
8.936,-0.460,0.110
8.939,-0.460,0.135
8.942,-0.440,0.145
8.944,-0.440,0.135
8.947,-0.455,0.120
8.950,-0.460,0.115
8.953,-0.460,0.125
8.956,-0.455,0.140
8.958,-0.435,0.150
8.961,-0.430,0.150
8.964,-0.435,0.120
8.967,-0.460,0.130
8.969,-0.455,0.135
8.972,-0.460,0.155
8.975,-0.435,0.160
8.978,-0.425,0.155
8.981,-0.425,0.165
8.983,-0.450,0.155
8.986,-0.440,0.165
8.989,-0.430,0.220
8.992,-0.410,0.275
8.994,-0.420,0.315
8.997,-0.445,0.345
9.000,-0.495,0.355
9.003,-0.535,0.350
9.006,-0.560,0.315
9.008,-0.540,0.260
9.011,-0.485,0.130
9.014,-0.315,0.000
9.017,-0.010,-0.125
9.019,0.435,-0.235
9.022,1.010,-0.260
9.025,1.510,-0.235
9.028,1.840,-0.155
9.031,2.010,-0.075
9.033,1.980,0.015
9.036,1.715,0.080
9.039,1.170,0.110
9.042,0.530,0.110
9.044,-0.110,0.110
9.047,-0.750,0.125
9.050,-0.770,0.160
9.053,-0.670,0.185
9.056,-0.620,0.200
9.058,-0.590,0.210
9.061,-0.615,0.195
9.064,-0.615,0.180
9.067,-0.610,0.185
9.069,-0.575,0.200
9.072,-0.520,0.220
9.075,-0.465,0.225
9.078,-0.440,0.220
9.081,-0.420,0.190
9.083,-0.440,0.195
9.086,-0.455,0.200
9.089,-0.435,0.215
9.092,-0.415,0.220
9.094,-0.425,0.235
9.097,-0.425,0.205
9.100,-0.435,0.205
9.103,-0.445,0.200
9.106,-0.425,0.225
9.108,-0.420,0.240
9.111,-0.405,0.235
9.114,-0.415,0.225
9.117,-0.425,0.210
9.119,-0.420,0.225
9.122,-0.415,0.225
9.125,-0.395,0.240
9.128,-0.410,0.240
9.131,-0.405,0.225
9.133,-0.405,0.220
9.136,-0.420,0.225
9.139,-0.410,0.230
9.142,-0.385,0.235
9.144,-0.390,0.235
9.147,-0.400,0.215
9.150,-0.410,0.215
9.153,-0.410,0.230
9.156,-0.405,0.245
9.158,-0.375,0.255
9.161,-0.370,0.245
9.164,-0.385,0.230
9.167,-0.380,0.225
9.169,-0.395,0.220
9.172,-0.380,0.235
9.175,-0.365,0.245
9.178,-0.360,0.240
9.181,-0.375,0.230
9.183,-0.385,0.220
9.186,-0.385,0.225
9.189,-0.380,0.240
9.192,-0.350,0.255
9.194,-0.345,0.245
9.197,-0.350,0.230
9.200,-0.350,0.220
9.203,-0.345,0.225
9.206,-0.330,0.235
9.208,-0.325,0.255
9.211,-0.315,0.245
9.214,-0.320,0.230
9.217,-0.325,0.220
9.219,-0.325,0.230
9.222,-0.305,0.240
9.225,-0.295,0.255
9.228,-0.295,0.240
9.231,-0.280,0.240
9.233,-0.285,0.225
9.236,-0.275,0.235
9.239,-0.270,0.235
9.242,-0.240,0.260
9.244,-0.230,0.255
9.247,-0.230,0.240
9.250,-0.235,0.225
9.253,-0.245,0.235
9.256,-0.215,0.240
9.258,-0.175,0.260
9.261,-0.165,0.250
9.264,-0.155,0.240
9.267,-0.165,0.230
9.269,-0.150,0.230
9.272,-0.115,0.240
9.275,-0.095,0.250
9.278,-0.080,0.245
9.281,-0.065,0.225
9.283,-0.060,0.220
9.286,-0.055,0.220
9.289,-0.010,0.230
9.292,0.035,0.240
9.294,0.050,0.250
9.297,0.070,0.225
9.300,0.085,0.220
9.303,0.115,0.220
9.306,0.140,0.235
9.308,0.185,0.240
9.311,0.220,0.240
9.314,0.255,0.215
9.317,0.270,0.205
9.319,0.280,0.220
9.322,0.315,0.225
9.325,0.365,0.240
9.328,0.400,0.230
9.331,0.425,0.215
9.333,0.435,0.205
9.336,0.460,0.215
9.339,0.505,0.220
9.342,0.530,0.220
9.344,0.555,0.220
9.347,0.575,0.195
9.350,0.590,0.205
9.353,0.610,0.215
9.356,0.635,0.225
9.358,0.645,0.235
9.361,0.650,0.240
9.364,0.620,0.230
9.367,0.580,0.220
9.369,0.565,0.240
9.372,0.530,0.255
9.375,0.490,0.255
9.378,0.440,0.250
9.381,0.370,0.250
9.383,0.285,0.245
9.386,0.215,0.240
9.389,0.160,0.260
9.392,0.105,0.270
9.394,0.050,0.275
9.397,-0.035,0.250
9.400,-0.090,0.260
9.403,-0.170,0.250
9.406,-0.215,0.265
9.408,-0.260,0.285
9.411,-0.285,0.285
9.414,-0.330,0.270
9.417,-0.385,0.255
9.419,-0.415,0.270
9.422,-0.430,0.275
9.425,-0.450,0.280
9.428,-0.450,0.270
9.431,-0.475,0.255
9.433,-0.495,0.250
9.436,-0.520,0.260
9.439,-0.505,0.280
9.442,-0.505,0.280
9.444,-0.515,0.280
9.447,-0.525,0.260
9.450,-0.540,0.250
9.453,-0.555,0.265
9.456,-0.555,0.280
9.458,-0.545,0.285
9.461,-0.550,0.275
9.464,-0.550,0.275
9.467,-0.565,0.255
9.469,-0.570,0.255
9.472,-0.555,0.275
9.475,-0.560,0.280
9.478,-0.550,0.280
9.481,-0.550,0.260
9.483,-0.580,0.260
9.486,-0.580,0.260
9.489,-0.575,0.285
9.492,-0.555,0.295
9.494,-0.570,0.280
9.497,-0.560,0.260
9.500,-0.580,0.265
9.503,-0.570,0.285
9.506,-0.565,0.280
9.508,-0.560,0.300
9.511,-0.560,0.290
9.514,-0.570,0.290
9.517,-0.570,0.265
9.519,-0.575,0.270
9.522,-0.570,0.290
9.525,-0.555,0.295
9.528,-0.550,0.295
9.531,-0.550,0.275
9.533,-0.575,0.275
9.536,-0.580,0.280
9.539,-0.560,0.285
9.542,-0.550,0.300
9.544,-0.535,0.295
9.547,-0.540,0.280
9.550,-0.570,0.280
9.553,-0.580,0.280
9.556,-0.560,0.285
9.558,-0.540,0.300
9.561,-0.535,0.300
9.564,-0.550,0.275
9.567,-0.555,0.280
9.569,-0.560,0.275
9.572,-0.560,0.300
9.575,-0.555,0.305
9.578,-0.545,0.295
9.581,-0.540,0.280
9.583,-0.550,0.270
9.586,-0.560,0.275
9.589,-0.555,0.285
9.592,-0.560,0.300
9.594,-0.555,0.290
9.597,-0.550,0.280
9.600,-0.570,0.280
9.603,-0.580,0.280
9.606,-0.565,0.285
9.608,-0.555,0.305
9.611,-0.545,0.295
9.614,-0.560,0.265
9.617,-0.585,0.260
9.619,-0.575,0.280
9.622,-0.570,0.290
9.625,-0.550,0.295
9.628,-0.555,0.285
9.631,-0.570,0.280
9.633,-0.580,0.270
9.636,-0.595,0.270
9.639,-0.580,0.285
9.642,-0.560,0.305
9.644,-0.565,0.285
9.647,-0.570,0.280
9.650,-0.590,0.275
9.653,-0.600,0.270
9.656,-0.575,0.275
9.658,-0.565,0.285
9.661,-0.570,0.290
9.664,-0.580,0.280
9.667,-0.595,0.265
9.669,-0.600,0.275
9.672,-0.590,0.280
9.675,-0.575,0.290
9.678,-0.575,0.280
9.681,-0.575,0.265
9.683,-0.590,0.255
9.686,-0.590,0.270
9.689,-0.580,0.275
9.692,-0.585,0.295
9.694,-0.570,0.275
9.697,-0.575,0.280
9.700,-0.590,0.260
9.703,-0.585,0.275
9.706,-0.580,0.280
9.708,-0.570,0.295
9.711,-0.575,0.280
9.714,-0.555,0.280
9.717,-0.575,0.260
9.719,-0.580,0.270
9.722,-0.575,0.280
9.725,-0.565,0.290
9.728,-0.555,0.280
9.731,-0.565,0.280
9.733,-0.570,0.265
9.736,-0.580,0.265
9.739,-0.580,0.285
9.742,-0.565,0.290
9.744,-0.550,0.275
9.747,-0.555,0.260
9.750,-0.575,0.260
9.753,-0.585,0.255
9.756,-0.585,0.275
9.758,-0.570,0.290
9.761,-0.565,0.280
9.764,-0.580,0.265
9.767,-0.585,0.260
9.769,-0.580,0.255
9.772,-0.565,0.285
9.775,-0.565,0.280
9.778,-0.555,0.275
9.781,-0.565,0.270
9.783,-0.575,0.265
9.786,-0.570,0.270
9.789,-0.560,0.280
9.792,-0.555,0.280
9.794,-0.550,0.275
9.797,-0.570,0.255
9.800,-0.570,0.255
9.803,-0.565,0.270
9.806,-0.580,0.280
9.808,-0.550,0.290
9.811,-0.550,0.280
9.814,-0.550,0.270
9.817,-0.565,0.260
9.819,-0.580,0.265
9.822,-0.565,0.280
9.825,-0.545,0.295
9.828,-0.535,0.285
9.831,-0.545,0.265
9.833,-0.555,0.265
9.836,-0.570,0.280
9.839,-0.555,0.275
9.842,-0.535,0.295
9.844,-0.530,0.285
9.847,-0.545,0.270
9.850,-0.560,0.255
9.853,-0.555,0.260
9.856,-0.555,0.270
9.858,-0.525,0.270
9.861,-0.525,0.270
9.864,-0.550,0.275
9.867,-0.550,0.255
9.869,-0.545,0.255
9.872,-0.535,0.280
9.875,-0.515,0.285
9.878,-0.515,0.270
9.881,-0.520,0.265
9.883,-0.540,0.250
9.886,-0.545,0.265
9.889,-0.545,0.270
9.892,-0.515,0.270
9.894,-0.505,0.270
9.897,-0.515,0.265
9.900,-0.535,0.240
9.903,-0.540,0.255
9.906,-0.530,0.270
9.908,-0.510,0.285
9.911,-0.505,0.270
9.914,-0.525,0.265
9.917,-0.520,0.255
9.919,-0.520,0.255
9.922,-0.520,0.270
9.925,-0.505,0.290
9.928,-0.510,0.285
9.931,-0.500,0.270
9.933,-0.515,0.250
9.936,-0.505,0.255
9.939,-0.505,0.270
9.942,-0.505,0.295
9.944,-0.505,0.265
9.947,-0.505,0.265
9.950,-0.520,0.260
9.953,-0.525,0.260
9.956,-0.500,0.270
9.958,-0.475,0.295
9.961,-0.470,0.295
9.964,-0.480,0.290
9.967,-0.475,0.300
9.969,-0.475,0.290
9.972,-0.460,0.310
9.975,-0.435,0.310
9.978,-0.430,0.295
9.981,-0.430,0.285
9.983,-0.435,0.265
9.986,-0.435,0.270
9.989,-0.450,0.255
9.992,-0.420,0.255
9.994,-0.400,0.245
9.997,-0.400,0.225
10.000,-0.420,0.225
10.003,-0.425,0.235
10.006,-0.435,0.255
10.008,-0.405,0.265
10.011,-0.390,0.255
10.014,-0.395,0.250
10.017,-0.420,0.245
10.019,-0.440,0.255
10.022,-0.435,0.260
10.025,-0.430,0.270
10.028,-0.440,0.265
10.031,-0.450,0.245
10.033,-0.465,0.240
10.036,-0.470,0.245
10.039,-0.450,0.260
10.042,-0.435,0.280
10.044,-0.450,0.260
10.047,-0.450,0.250
10.050,-0.460,0.235
10.053,-0.470,0.245
10.056,-0.460,0.245
10.058,-0.435,0.265
10.061,-0.430,0.265
10.064,-0.440,0.250
10.067,-0.445,0.245
10.069,-0.450,0.255
10.072,-0.435,0.270
10.075,-0.415,0.275
10.078,-0.410,0.280
10.081,-0.410,0.275
10.083,-0.410,0.295
10.086,-0.425,0.340
10.089,-0.415,0.400
10.092,-0.410,0.455
10.094,-0.430,0.475
10.097,-0.475,0.455
10.100,-0.530,0.435
10.103,-0.545,0.405
10.106,-0.520,0.340
10.108,-0.440,0.260
10.111,-0.290,0.130
10.114,-0.015,0.010
10.117,0.375,-0.110
10.119,0.905,-0.195
10.122,1.420,-0.185
10.125,1.825,-0.115
10.128,2.055,-0.020
10.131,2.110,0.070
10.133,1.945,0.135
10.136,1.500,0.190
10.139,0.860,0.200
10.142,0.220,0.195
10.144,-0.420,0.195
10.147,-0.705,0.205
10.150,-0.655,0.230
10.153,-0.580,0.260
10.156,-0.555,0.270
10.158,-0.550,0.280
10.161,-0.565,0.280
10.164,-0.565,0.265
10.167,-0.545,0.260
10.169,-0.505,0.275
10.172,-0.460,0.280
10.175,-0.390,0.295
10.178,-0.365,0.280
10.181,-0.355,0.265
10.183,-0.365,0.250
10.186,-0.370,0.275
10.189,-0.350,0.280
10.192,-0.350,0.280
10.194,-0.320,0.280
10.197,-0.325,0.260
10.200,-0.340,0.260
10.203,-0.340,0.275
10.206,-0.340,0.280
10.208,-0.315,0.300
10.211,-0.315,0.275
10.214,-0.315,0.270
10.217,-0.320,0.260
10.219,-0.335,0.265
10.222,-0.320,0.290
10.225,-0.300,0.290
10.228,-0.295,0.265
10.231,-0.305,0.260
10.233,-0.310,0.250
10.236,-0.320,0.260
10.239,-0.310,0.260
10.242,-0.285,0.280
10.244,-0.270,0.275
10.247,-0.285,0.260
10.250,-0.285,0.245
10.253,-0.290,0.255
10.256,-0.295,0.270
10.258,-0.270,0.270
10.261,-0.270,0.265
10.264,-0.265,0.245
10.267,-0.280,0.240
10.269,-0.295,0.255
10.272,-0.265,0.270
10.275,-0.250,0.270
10.278,-0.230,0.265
10.281,-0.245,0.235
10.283,-0.255,0.240
10.286,-0.250,0.240
10.289,-0.245,0.260
10.292,-0.235,0.260
10.294,-0.225,0.255
10.297,-0.225,0.230
10.300,-0.235,0.225
10.303,-0.215,0.240
10.306,-0.205,0.245
10.308,-0.195,0.260
10.311,-0.195,0.250
10.314,-0.185,0.235
10.317,-0.195,0.225
10.319,-0.195,0.230
10.322,-0.175,0.240
10.325,-0.160,0.255
10.328,-0.145,0.250
10.331,-0.150,0.230
10.333,-0.155,0.225
10.336,-0.155,0.225
10.339,-0.140,0.235
10.342,-0.105,0.235
10.344,-0.095,0.245
10.347,-0.095,0.235
10.350,-0.105,0.215
10.353,-0.105,0.230
10.356,-0.080,0.225
10.358,-0.060,0.240
10.361,-0.045,0.240
10.364,-0.040,0.220
10.367,-0.030,0.215
10.369,-0.040,0.215
10.372,-0.010,0.225
10.375,0.020,0.230
10.378,0.040,0.235
10.381,0.055,0.230
10.383,0.040,0.200
10.386,0.060,0.205
10.389,0.090,0.220
10.392,0.125,0.235
10.394,0.150,0.215
10.397,0.165,0.200
10.400,0.175,0.190
10.403,0.195,0.205
10.406,0.220,0.210
10.408,0.250,0.220
10.411,0.285,0.200
10.414,0.315,0.190
10.417,0.325,0.175
10.419,0.340,0.180
10.422,0.395,0.190
10.425,0.440,0.195
10.428,0.475,0.185
10.431,0.495,0.180
10.433,0.515,0.160
10.436,0.540,0.185
10.439,0.580,0.185
10.442,0.625,0.200
10.444,0.670,0.180
10.447,0.680,0.175
10.450,0.700,0.170
10.453,0.720,0.155
10.456,0.730,0.175
10.458,0.765,0.190
10.461,0.810,0.180
10.464,0.790,0.160
10.467,0.800,0.155
10.469,0.780,0.160
10.472,0.790,0.180
10.475,0.780,0.200
10.478,0.745,0.190
10.481,0.715,0.195
10.483,0.660,0.180
10.486,0.580,0.195
10.489,0.545,0.210
10.492,0.495,0.215
10.494,0.430,0.205
10.497,0.355,0.190
10.500,0.295,0.185
10.503,0.220,0.195
10.506,0.165,0.210
10.508,0.110,0.220
10.511,0.060,0.220
10.514,-0.015,0.195
10.517,-0.085,0.190
10.519,-0.120,0.190
10.522,-0.150,0.210
10.525,-0.165,0.210
10.528,-0.185,0.210
10.531,-0.230,0.195
10.533,-0.260,0.190
10.536,-0.285,0.195
10.539,-0.290,0.210
10.542,-0.295,0.215
10.544,-0.315,0.220
10.547,-0.330,0.200
10.550,-0.345,0.180
10.553,-0.365,0.175
10.556,-0.350,0.190
10.558,-0.345,0.200
10.561,-0.350,0.195
10.564,-0.355,0.190
10.567,-0.370,0.175
10.569,-0.385,0.185
10.572,-0.390,0.195
10.575,-0.360,0.205
10.578,-0.370,0.205
10.581,-0.370,0.185
10.583,-0.400,0.180
10.586,-0.390,0.195
10.589,-0.395,0.200
10.592,-0.385,0.215
10.594,-0.380,0.210
10.597,-0.380,0.200
10.600,-0.390,0.175
10.603,-0.395,0.180
10.606,-0.385,0.205
10.608,-0.375,0.205
10.611,-0.365,0.210
10.614,-0.375,0.175
10.617,-0.385,0.185
10.619,-0.395,0.175
10.622,-0.380,0.200
10.625,-0.380,0.215
10.628,-0.385,0.190
10.631,-0.370,0.180
10.633,-0.385,0.170
10.636,-0.380,0.185
10.639,-0.375,0.210
10.642,-0.365,0.210
10.644,-0.365,0.195
10.647,-0.365,0.180
10.650,-0.390,0.175
10.653,-0.385,0.170
10.656,-0.370,0.180
10.658,-0.355,0.200
10.661,-0.350,0.200
10.664,-0.355,0.175
10.667,-0.375,0.170
10.669,-0.380,0.175
10.672,-0.375,0.185
10.675,-0.365,0.200
10.678,-0.360,0.190
10.681,-0.360,0.180
10.683,-0.370,0.180
10.686,-0.375,0.185
10.689,-0.365,0.190
10.692,-0.360,0.195
10.694,-0.355,0.180
10.697,-0.365,0.160
10.700,-0.380,0.160
10.703,-0.385,0.170
10.706,-0.375,0.175
10.708,-0.355,0.180
10.711,-0.360,0.185
10.714,-0.370,0.175
10.717,-0.380,0.165
10.719,-0.380,0.165
10.722,-0.370,0.175
10.725,-0.360,0.175
10.728,-0.365,0.175
10.731,-0.370,0.155
10.733,-0.400,0.155
10.736,-0.405,0.160
10.739,-0.400,0.170
10.742,-0.380,0.185
10.744,-0.370,0.180
10.747,-0.375,0.160
10.750,-0.390,0.155
10.753,-0.385,0.140
10.756,-0.385,0.165
10.758,-0.360,0.175
10.761,-0.370,0.180
10.764,-0.380,0.160
10.767,-0.395,0.145
10.769,-0.380,0.155
10.772,-0.365,0.175
10.775,-0.355,0.175
10.778,-0.360,0.170
10.781,-0.365,0.160
10.783,-0.375,0.155
10.786,-0.385,0.155
10.789,-0.370,0.165
10.792,-0.365,0.175
10.794,-0.355,0.160
10.797,-0.370,0.140
10.800,-0.380,0.140
10.803,-0.390,0.150
10.806,-0.380,0.165
10.808,-0.375,0.170
10.811,-0.355,0.170
10.814,-0.380,0.155
10.817,-0.390,0.140
10.819,-0.385,0.150
10.822,-0.375,0.150
10.825,-0.355,0.170
10.828,-0.365,0.155
10.831,-0.365,0.145
10.833,-0.380,0.125
10.836,-0.370,0.135
10.839,-0.370,0.150
10.842,-0.355,0.165
10.844,-0.365,0.160
10.847,-0.350,0.140
10.850,-0.365,0.130
10.853,-0.380,0.140
10.856,-0.360,0.145
10.858,-0.350,0.145
10.861,-0.340,0.150
10.864,-0.355,0.130
10.867,-0.360,0.120
10.869,-0.360,0.125
10.872,-0.345,0.150
10.875,-0.345,0.150
10.878,-0.335,0.140
10.881,-0.340,0.130
10.883,-0.355,0.130
10.886,-0.370,0.125
10.889,-0.355,0.135
10.892,-0.330,0.140
10.894,-0.330,0.130
10.897,-0.355,0.115
10.900,-0.360,0.125
10.903,-0.350,0.130
10.906,-0.335,0.145
10.908,-0.325,0.145
10.911,-0.325,0.130
10.914,-0.330,0.130
10.917,-0.340,0.115
10.919,-0.355,0.125
10.922,-0.330,0.130
10.925,-0.325,0.140
10.928,-0.325,0.145
10.931,-0.320,0.120
10.933,-0.350,0.115
10.936,-0.335,0.120
10.939,-0.325,0.135
10.942,-0.315,0.140
10.944,-0.305,0.135
10.947,-0.315,0.115
10.950,-0.320,0.115
10.953,-0.350,0.120
10.956,-0.330,0.130
10.958,-0.305,0.135
10.961,-0.305,0.130
10.964,-0.320,0.125
10.967,-0.330,0.115
10.969,-0.315,0.120
10.972,-0.305,0.130
10.975,-0.285,0.140
10.978,-0.285,0.160
10.981,-0.285,0.155
10.983,-0.290,0.160
10.986,-0.285,0.160
10.989,-0.280,0.170
10.992,-0.260,0.175
10.994,-0.245,0.160
10.997,-0.240,0.135
11.000,-0.250,0.110
11.003,-0.255,0.115
11.006,-0.250,0.125
11.008,-0.225,0.125
11.011,-0.215,0.115
11.014,-0.215,0.085
11.017,-0.210,0.060
11.019,-0.220,0.070
11.022,-0.225,0.105
11.025,-0.215,0.120
11.028,-0.210,0.120
11.031,-0.220,0.115
11.033,-0.240,0.090
11.036,-0.240,0.110
11.039,-0.250,0.120
11.042,-0.230,0.135
11.044,-0.245,0.135
11.047,-0.255,0.115
11.050,-0.280,0.095
11.053,-0.290,0.095
11.056,-0.290,0.105
11.058,-0.270,0.115
11.061,-0.270,0.115
11.064,-0.265,0.100
11.067,-0.285,0.100
11.069,-0.275,0.100
11.072,-0.265,0.100
11.075,-0.260,0.135
11.078,-0.250,0.120
11.081,-0.260,0.120
11.083,-0.270,0.105
11.086,-0.290,0.095
11.089,-0.265,0.110
11.092,-0.245,0.115
11.094,-0.240,0.135
11.097,-0.250,0.115
11.100,-0.270,0.105
11.103,-0.250,0.120
11.106,-0.235,0.130
11.108,-0.220,0.170
11.111,-0.215,0.215
11.114,-0.220,0.220
11.117,-0.255,0.250
11.119,-0.280,0.290
11.122,-0.310,0.315
11.125,-0.315,0.310
11.128,-0.335,0.290
11.131,-0.350,0.235
11.133,-0.335,0.155
11.136,-0.260,0.060
11.139,-0.070,-0.025
11.142,0.240,-0.120
11.144,0.680,-0.210
11.147,1.145,-0.270
11.150,1.565,-0.265
11.153,1.875,-0.220
11.156,2.075,-0.115
11.158,2.125,-0.025
11.161,1.935,0.050
11.164,1.425,0.065
11.167,0.785,0.050
11.169,0.145,0.070
11.172,-0.495,0.080
11.175,-0.535,0.100
11.178,-0.425,0.110
11.181,-0.360,0.125
11.183,-0.385,0.105
11.186,-0.425,0.120
11.189,-0.405,0.115
11.192,-0.375,0.125
11.194,-0.370,0.135
11.197,-0.345,0.115
11.200,-0.330,0.120
11.203,-0.290,0.140
11.206,-0.225,0.140
11.208,-0.195,0.140
11.211,-0.160,0.130
11.214,-0.180,0.120
11.217,-0.190,0.115
11.219,-0.190,0.130
11.222,-0.190,0.145
11.225,-0.165,0.140
11.228,-0.150,0.135
11.231,-0.170,0.125
11.233,-0.175,0.100
11.236,-0.165,0.105
11.239,-0.155,0.125
11.242,-0.135,0.120
11.244,-0.130,0.125
11.247,-0.130,0.120
11.250,-0.150,0.120
11.253,-0.155,0.115
11.256,-0.130,0.115
11.258,-0.115,0.130
11.261,-0.115,0.120
11.264,-0.130,0.110
11.267,-0.125,0.115
11.269,-0.145,0.105
11.272,-0.135,0.120
11.275,-0.110,0.130
11.278,-0.115,0.125
11.281,-0.105,0.115
11.283,-0.120,0.100
11.286,-0.125,0.110
11.289,-0.110,0.125
11.292,-0.085,0.130
11.294,-0.085,0.120
11.297,-0.080,0.115
11.300,-0.110,0.110
11.303,-0.100,0.100
11.306,-0.090,0.125
11.308,-0.075,0.120
11.311,-0.075,0.115
11.314,-0.080,0.105
11.317,-0.090,0.095
11.319,-0.085,0.095
11.322,-0.060,0.125
11.325,-0.055,0.125
11.328,-0.040,0.125
11.331,-0.045,0.110
11.333,-0.055,0.105
11.336,-0.055,0.090
11.339,-0.040,0.110
11.342,-0.020,0.125
11.344,-0.025,0.120
11.347,-0.015,0.095
11.350,-0.020,0.090
11.353,-0.030,0.095
11.356,-0.015,0.110
11.358,-0.005,0.120
11.361,0.015,0.105
11.364,0.015,0.095
11.367,0.015,0.090
11.369,0.015,0.095
11.372,0.015,0.110
11.375,0.055,0.125
11.378,0.070,0.110
11.381,0.065,0.095
11.383,0.065,0.085
11.386,0.065,0.105
11.389,0.090,0.105
11.392,0.105,0.115
11.394,0.140,0.115
11.397,0.120,0.090
11.400,0.135,0.080
11.403,0.120,0.090
11.406,0.155,0.095
11.408,0.165,0.115
11.411,0.190,0.100
11.414,0.200,0.095
11.417,0.195,0.080
11.419,0.200,0.080
11.422,0.250,0.100
11.425,0.265,0.105
11.428,0.295,0.095
11.431,0.300,0.085
11.433,0.325,0.070
11.436,0.345,0.080
11.439,0.385,0.090
11.442,0.415,0.085
11.444,0.440,0.085
11.447,0.480,0.075
11.450,0.485,0.070
11.453,0.500,0.065
11.456,0.540,0.075
11.458,0.580,0.080
11.461,0.615,0.075
11.464,0.640,0.060
11.467,0.650,0.060
11.469,0.670,0.050
11.472,0.705,0.070
11.475,0.735,0.065
11.478,0.770,0.065
11.481,0.780,0.045
11.483,0.795,0.030
11.486,0.805,0.035
11.489,0.835,0.045
11.492,0.875,0.060
11.494,0.915,0.050
11.497,0.925,0.055
11.500,0.920,0.035
11.503,0.910,0.045
11.506,0.925,0.070
11.508,0.930,0.090
11.511,0.900,0.080
11.514,0.855,0.090
11.517,0.830,0.085
11.519,0.770,0.085
11.522,0.735,0.100
11.525,0.700,0.120
11.528,0.650,0.110
11.531,0.585,0.105
11.533,0.505,0.100
11.536,0.440,0.100
11.539,0.395,0.115
11.542,0.340,0.120
11.544,0.270,0.135
11.547,0.200,0.120
11.550,0.135,0.120
11.553,0.075,0.120
11.556,0.035,0.130
11.558,0.005,0.145
11.561,-0.020,0.140
11.564,-0.065,0.120
11.567,-0.110,0.100
11.569,-0.140,0.115
11.572,-0.150,0.130
11.575,-0.160,0.130
11.578,-0.180,0.140
11.581,-0.210,0.125
11.583,-0.235,0.115
11.586,-0.240,0.120
11.589,-0.245,0.130
11.592,-0.235,0.155
11.594,-0.240,0.145
11.597,-0.250,0.135
11.600,-0.280,0.140
11.603,-0.275,0.125
11.606,-0.270,0.140
11.608,-0.260,0.155
11.611,-0.265,0.165
11.614,-0.280,0.140
11.617,-0.295,0.135
11.619,-0.295,0.135
11.622,-0.285,0.160
11.625,-0.280,0.165
11.628,-0.285,0.155
11.631,-0.285,0.145
11.633,-0.305,0.140
11.636,-0.305,0.150
11.639,-0.305,0.150
11.642,-0.290,0.170
11.644,-0.285,0.155
11.647,-0.295,0.145
11.650,-0.305,0.145
11.653,-0.315,0.155
11.656,-0.300,0.150
11.658,-0.285,0.165
11.661,-0.270,0.160
11.664,-0.290,0.160
11.667,-0.295,0.145
11.669,-0.300,0.160
11.672,-0.305,0.165
11.675,-0.285,0.175
11.678,-0.275,0.160
11.681,-0.275,0.155
11.683,-0.290,0.145
11.686,-0.290,0.145
11.689,-0.290,0.175
11.692,-0.275,0.170
11.694,-0.270,0.175
11.697,-0.285,0.170
11.700,-0.305,0.155
11.703,-0.290,0.155
11.706,-0.280,0.175
11.708,-0.270,0.195
11.711,-0.285,0.185
11.714,-0.280,0.170
11.717,-0.300,0.160
11.719,-0.295,0.170
11.722,-0.290,0.190
11.725,-0.270,0.190
11.728,-0.275,0.180
11.731,-0.285,0.180
11.733,-0.305,0.185
11.736,-0.305,0.190
11.739,-0.300,0.200
11.742,-0.280,0.205
11.744,-0.280,0.205
11.747,-0.295,0.190
11.750,-0.320,0.190
11.753,-0.325,0.190
11.756,-0.310,0.190
11.758,-0.300,0.210
11.761,-0.295,0.215
11.764,-0.305,0.190
11.767,-0.310,0.185
11.769,-0.320,0.195
11.772,-0.325,0.210
11.775,-0.320,0.230
11.778,-0.315,0.210
11.781,-0.315,0.210
11.783,-0.320,0.195
11.786,-0.345,0.195
11.789,-0.320,0.215
11.792,-0.315,0.230
11.794,-0.315,0.220
11.797,-0.325,0.205
11.800,-0.335,0.205
11.803,-0.340,0.205
11.806,-0.330,0.215
11.808,-0.310,0.225
11.811,-0.335,0.225
11.814,-0.335,0.220
11.817,-0.350,0.205
11.819,-0.355,0.220
11.822,-0.335,0.215
11.825,-0.335,0.245
11.828,-0.320,0.240
11.831,-0.330,0.220
11.833,-0.345,0.215
11.836,-0.350,0.215
11.839,-0.345,0.230
11.842,-0.335,0.245
11.844,-0.330,0.255
11.847,-0.340,0.235
11.850,-0.350,0.220
11.853,-0.340,0.220
11.856,-0.355,0.250
11.858,-0.330,0.260
11.861,-0.330,0.260
11.864,-0.340,0.245
11.867,-0.350,0.240
11.869,-0.360,0.240
11.872,-0.340,0.265
11.875,-0.340,0.265
11.878,-0.340,0.265
11.881,-0.335,0.245
11.883,-0.360,0.240
11.886,-0.360,0.250
11.889,-0.355,0.265
11.892,-0.335,0.295
11.894,-0.325,0.295
11.897,-0.340,0.285
11.900,-0.350,0.290
11.903,-0.340,0.305
11.906,-0.305,0.325
11.908,-0.290,0.345
11.911,-0.270,0.325
11.914,-0.280,0.295
11.917,-0.290,0.280
11.919,-0.290,0.275
11.922,-0.285,0.275
11.925,-0.260,0.270
11.928,-0.240,0.260
11.931,-0.240,0.250
11.933,-0.240,0.250
11.936,-0.230,0.260
11.939,-0.225,0.280
11.942,-0.210,0.290
11.944,-0.210,0.270
11.947,-0.240,0.270
11.950,-0.290,0.255
11.953,-0.290,0.290
11.956,-0.285,0.285
11.958,-0.280,0.310
11.961,-0.265,0.295
11.964,-0.275,0.290
11.967,-0.300,0.270
11.969,-0.320,0.270
11.972,-0.320,0.275
11.975,-0.320,0.290
11.978,-0.320,0.290
11.981,-0.355,0.275
11.983,-0.360,0.280
11.986,-0.340,0.285
11.989,-0.340,0.295
11.992,-0.330,0.315
11.994,-0.340,0.305
11.997,-0.335,0.295
12.000,-0.345,0.285
12.003,-0.345,0.290
12.006,-0.335,0.305
12.008,-0.320,0.315
12.011,-0.330,0.315
12.014,-0.330,0.305
12.017,-0.340,0.290
12.019,-0.345,0.300
12.022,-0.335,0.325
12.025,-0.320,0.335
12.028,-0.310,0.325
12.031,-0.315,0.330
12.033,-0.330,0.325
12.036,-0.325,0.350
12.039,-0.305,0.385
12.042,-0.300,0.415
12.044,-0.305,0.450
12.047,-0.320,0.485
12.050,-0.350,0.490
12.053,-0.395,0.515
12.056,-0.425,0.520
12.058,-0.440,0.505
12.061,-0.430,0.450
12.064,-0.390,0.365
12.067,-0.295,0.265
12.069,-0.075,0.175
12.072,0.255,0.075
12.075,0.710,0.010
12.078,1.160,-0.040
12.081,1.550,-0.040
12.083,1.830,-0.010
12.086,2.020,0.080
12.089,2.080,0.170
12.092,1.975,0.270
12.094,1.575,0.310
12.097,0.935,0.305
12.100,0.295,0.285
12.103,-0.345,0.295
12.106,-0.660,0.340
12.108,-0.595,0.370
12.111,-0.500,0.395
12.114,-0.490,0.385
12.117,-0.535,0.370
12.119,-0.530,0.375
12.122,-0.510,0.385
12.125,-0.480,0.395
12.128,-0.470,0.395
12.131,-0.450,0.380
12.133,-0.405,0.385
12.136,-0.360,0.390
12.139,-0.325,0.405
12.142,-0.290,0.425
12.144,-0.300,0.415
12.147,-0.300,0.400
12.150,-0.310,0.385
12.153,-0.330,0.390
12.156,-0.305,0.405
12.158,-0.290,0.410
12.161,-0.295,0.400
12.164,-0.290,0.400
12.167,-0.300,0.395
12.169,-0.285,0.390
12.172,-0.285,0.405
12.175,-0.270,0.430
12.178,-0.265,0.415
12.181,-0.285,0.385
12.183,-0.295,0.390
12.186,-0.285,0.395
12.189,-0.270,0.420
12.192,-0.275,0.420
12.194,-0.265,0.425
12.197,-0.265,0.405
12.200,-0.285,0.400
12.203,-0.285,0.410
12.206,-0.260,0.415
12.208,-0.245,0.420
12.211,-0.230,0.420
12.214,-0.240,0.400
12.217,-0.265,0.400
12.219,-0.250,0.405
12.222,-0.260,0.425
12.225,-0.235,0.425
12.228,-0.235,0.430
12.231,-0.225,0.415
12.233,-0.245,0.405
12.236,-0.250,0.415
12.239,-0.235,0.425
12.242,-0.220,0.435
12.244,-0.215,0.420
12.247,-0.205,0.415
12.250,-0.210,0.410
12.253,-0.220,0.410
12.256,-0.205,0.425
12.258,-0.190,0.430
12.261,-0.180,0.435
12.264,-0.170,0.420
12.267,-0.200,0.415
12.269,-0.185,0.430
12.272,-0.185,0.425
12.275,-0.160,0.435
12.278,-0.150,0.435
12.281,-0.150,0.420
12.283,-0.155,0.410
12.286,-0.155,0.420
12.289,-0.140,0.435
12.292,-0.115,0.435
12.294,-0.100,0.435
12.297,-0.115,0.415
12.300,-0.120,0.415
12.303,-0.120,0.415
12.306,-0.115,0.430
12.308,-0.085,0.440
12.311,-0.065,0.445
12.314,-0.065,0.430
12.317,-0.065,0.420
12.319,-0.060,0.425
12.322,-0.045,0.435
12.325,-0.020,0.430
12.328,0.000,0.440
12.331,-0.005,0.425
12.333,0.010,0.415
12.336,0.015,0.430
12.339,0.035,0.440
12.342,0.050,0.450
12.344,0.070,0.435
12.347,0.080,0.425
12.350,0.090,0.415
12.353,0.110,0.410
12.356,0.135,0.415
12.358,0.165,0.445
12.361,0.190,0.430
12.364,0.210,0.420
12.367,0.210,0.420
12.369,0.245,0.420
12.372,0.270,0.430
12.375,0.310,0.425
12.378,0.340,0.420
12.381,0.380,0.415
12.383,0.385,0.400
12.386,0.405,0.405
12.389,0.435,0.430
12.392,0.470,0.445
12.394,0.530,0.420
12.397,0.560,0.400
12.400,0.570,0.390
12.403,0.605,0.395
12.406,0.645,0.415
12.408,0.680,0.435
12.411,0.715,0.420
12.414,0.735,0.400
12.417,0.735,0.395
12.419,0.755,0.395
12.422,0.800,0.410
12.425,0.825,0.420
12.428,0.860,0.425
12.431,0.845,0.405
12.433,0.845,0.415
12.436,0.830,0.420
12.439,0.815,0.440
12.442,0.810,0.455
12.444,0.780,0.455
12.447,0.720,0.445
12.450,0.655,0.430
12.453,0.595,0.455
12.456,0.525,0.460
12.458,0.475,0.490
12.461,0.405,0.470
12.464,0.330,0.470
12.467,0.245,0.465
12.469,0.165,0.470
12.472,0.110,0.485
12.475,0.060,0.490
12.478,0.015,0.490
12.481,-0.045,0.480
12.483,-0.095,0.465
12.486,-0.140,0.475
12.489,-0.185,0.485
12.492,-0.190,0.490
12.494,-0.220,0.490
12.497,-0.250,0.470
12.500,-0.290,0.445
12.503,-0.315,0.450
12.506,-0.315,0.485
12.508,-0.320,0.490
12.511,-0.325,0.480
12.514,-0.335,0.450
12.517,-0.375,0.445
12.519,-0.370,0.460
12.522,-0.370,0.465
12.525,-0.375,0.480
12.528,-0.370,0.475
12.531,-0.375,0.460
12.533,-0.395,0.450
12.536,-0.395,0.450
12.539,-0.390,0.480
12.542,-0.395,0.485
12.544,-0.390,0.485
12.547,-0.385,0.460
12.550,-0.400,0.455
12.553,-0.410,0.445
12.556,-0.400,0.465
12.558,-0.385,0.480
12.561,-0.375,0.470
12.564,-0.385,0.465
12.567,-0.390,0.460
12.569,-0.405,0.475
12.572,-0.400,0.470
12.575,-0.375,0.475
12.578,-0.380,0.485
12.581,-0.395,0.460
12.583,-0.385,0.460
12.586,-0.390,0.465
12.589,-0.385,0.470
12.592,-0.380,0.480
12.594,-0.370,0.485
12.597,-0.380,0.470
12.600,-0.385,0.470
12.603,-0.390,0.465
12.606,-0.375,0.480
12.608,-0.370,0.495
12.611,-0.360,0.480
12.614,-0.390,0.460
12.617,-0.390,0.460
12.619,-0.395,0.475
12.622,-0.375,0.480
12.625,-0.365,0.490
12.628,-0.360,0.475
12.631,-0.370,0.475
12.633,-0.380,0.465
12.636,-0.370,0.455
12.639,-0.375,0.470
12.642,-0.360,0.485
12.644,-0.355,0.475
12.647,-0.370,0.455
12.650,-0.375,0.465
12.653,-0.385,0.455
12.656,-0.385,0.460
12.658,-0.355,0.480
12.661,-0.365,0.485
12.664,-0.380,0.475
12.667,-0.405,0.445
12.669,-0.390,0.465
12.672,-0.390,0.480
12.675,-0.375,0.495
12.678,-0.385,0.485
12.681,-0.390,0.450
12.683,-0.405,0.450
12.686,-0.390,0.450
12.689,-0.390,0.485
12.692,-0.395,0.475
12.694,-0.380,0.470
12.697,-0.390,0.445
12.700,-0.405,0.450
12.703,-0.405,0.445
12.706,-0.395,0.470
12.708,-0.385,0.480
12.711,-0.385,0.465
12.714,-0.385,0.465
12.717,-0.405,0.440
12.719,-0.420,0.455
12.722,-0.415,0.460
12.725,-0.385,0.480
12.728,-0.375,0.465
12.731,-0.390,0.455
12.733,-0.410,0.445
12.736,-0.435,0.435
12.739,-0.415,0.455
12.742,-0.410,0.460
12.744,-0.385,0.450
12.747,-0.390,0.435
12.750,-0.410,0.435
12.753,-0.410,0.435
12.756,-0.400,0.450
12.758,-0.390,0.455
12.761,-0.395,0.450
12.764,-0.415,0.435
12.767,-0.430,0.435
12.769,-0.425,0.430
12.772,-0.420,0.445
12.775,-0.400,0.445
12.778,-0.395,0.445
12.781,-0.405,0.445
12.783,-0.420,0.425
12.786,-0.415,0.430
12.789,-0.425,0.435
12.792,-0.400,0.455
12.794,-0.400,0.450
12.797,-0.400,0.425
12.800,-0.410,0.415
12.803,-0.425,0.430
12.806,-0.395,0.430
12.808,-0.405,0.440
12.811,-0.385,0.445
12.814,-0.390,0.420
12.817,-0.400,0.415
12.819,-0.415,0.410
12.822,-0.395,0.425
12.825,-0.390,0.435
12.828,-0.385,0.430
12.831,-0.395,0.425
12.833,-0.420,0.405
12.836,-0.420,0.415
12.839,-0.405,0.425
12.842,-0.405,0.440
12.844,-0.400,0.435
12.847,-0.410,0.415
12.850,-0.410,0.395
12.853,-0.390,0.405
12.856,-0.395,0.430
12.858,-0.390,0.440
12.861,-0.385,0.430
12.864,-0.400,0.420
12.867,-0.395,0.415
12.869,-0.395,0.435
12.872,-0.385,0.450
12.875,-0.355,0.470
12.878,-0.340,0.475
12.881,-0.340,0.460
12.883,-0.335,0.455
12.886,-0.330,0.440
12.889,-0.330,0.440
12.892,-0.325,0.445
12.894,-0.320,0.435
12.897,-0.305,0.405
12.900,-0.310,0.390
12.903,-0.290,0.395
12.906,-0.295,0.410
12.908,-0.270,0.410
12.911,-0.250,0.405
12.914,-0.265,0.395
12.917,-0.285,0.380
12.919,-0.285,0.375
12.922,-0.285,0.400
12.925,-0.290,0.410
12.928,-0.295,0.395
12.931,-0.315,0.385
12.933,-0.335,0.375
12.936,-0.335,0.370
12.939,-0.360,0.380
12.942,-0.350,0.400
12.944,-0.355,0.385
12.947,-0.360,0.370
12.950,-0.390,0.365
12.953,-0.405,0.370
12.956,-0.380,0.385
12.958,-0.370,0.390
12.961,-0.375,0.385
12.964,-0.390,0.375
12.967,-0.400,0.375
12.969,-0.385,0.380
12.972,-0.370,0.385
12.975,-0.365,0.385
12.978,-0.365,0.385
12.981,-0.370,0.385
12.983,-0.380,0.365
12.986,-0.375,0.380
12.989,-0.360,0.385
12.992,-0.350,0.400
12.994,-0.350,0.380
12.997,-0.370,0.370
13.000,-0.360,0.365
13.003,-0.350,0.380
13.006,-0.340,0.395
13.008,-0.315,0.435
13.011,-0.315,0.475
13.014,-0.325,0.495
13.017,-0.350,0.525
13.019,-0.380,0.550
13.022,-0.390,0.580
13.025,-0.410,0.585
13.028,-0.425,0.555
13.031,-0.430,0.485
13.033,-0.405,0.390
13.036,-0.295,0.285
13.039,-0.060,0.185
13.042,0.310,0.075
13.044,0.825,-0.040
13.047,1.335,-0.080
13.050,1.750,-0.035
13.053,2.020,0.065
13.056,2.130,0.195
13.058,1.990,0.295
13.061,1.510,0.325
13.064,0.870,0.315
13.067,0.230,0.295
13.069,-0.410,0.325
13.072,-0.680,0.350
13.075,-0.540,0.390
13.078,-0.470,0.390
13.081,-0.480,0.380
13.083,-0.510,0.355
13.086,-0.510,0.370
13.089,-0.480,0.380
13.092,-0.425,0.400
13.094,-0.390,0.395
13.097,-0.350,0.375
13.100,-0.320,0.370
13.103,-0.285,0.365
13.106,-0.285,0.385
13.108,-0.270,0.395
13.111,-0.275,0.385
13.114,-0.265,0.375
13.117,-0.285,0.365
13.119,-0.285,0.365
13.122,-0.295,0.380
13.125,-0.260,0.385
13.128,-0.250,0.385
13.131,-0.260,0.365
13.133,-0.270,0.350
13.136,-0.260,0.365
13.139,-0.260,0.365
13.142,-0.240,0.370
13.144,-0.240,0.370
13.147,-0.245,0.360
13.150,-0.240,0.350
13.153,-0.245,0.350
13.156,-0.235,0.365
13.158,-0.225,0.385
13.161,-0.225,0.365
13.164,-0.245,0.355
13.167,-0.240,0.335
13.169,-0.235,0.350
13.172,-0.240,0.345
13.175,-0.225,0.355
13.178,-0.210,0.350
13.181,-0.215,0.345
13.183,-0.220,0.330
13.186,-0.230,0.340
13.189,-0.220,0.340
13.192,-0.205,0.350
13.194,-0.190,0.345
13.197,-0.195,0.330
13.200,-0.205,0.325
13.203,-0.215,0.320
13.206,-0.190,0.345
13.208,-0.180,0.345
13.211,-0.165,0.355
13.214,-0.185,0.325
13.217,-0.180,0.315
13.219,-0.180,0.315
13.222,-0.170,0.330
13.225,-0.160,0.335
13.228,-0.140,0.330
13.231,-0.155,0.320
13.233,-0.155,0.305
13.236,-0.160,0.310
13.239,-0.140,0.330
13.242,-0.120,0.335
13.244,-0.110,0.315
13.247,-0.110,0.305
13.250,-0.130,0.290
13.253,-0.130,0.300
13.256,-0.105,0.315
13.258,-0.080,0.315
13.261,-0.075,0.305
13.264,-0.080,0.310
13.267,-0.075,0.295
13.269,-0.075,0.295
13.272,-0.050,0.305
13.275,-0.025,0.305
13.278,-0.015,0.295
13.281,-0.010,0.280
13.283,-0.010,0.270
13.286,0.005,0.280
13.289,0.025,0.280
13.292,0.050,0.290
13.294,0.065,0.285
13.297,0.070,0.270
13.300,0.075,0.270
13.303,0.080,0.270
13.306,0.105,0.280
13.308,0.130,0.290
13.311,0.140,0.280
13.314,0.165,0.255
13.317,0.175,0.250
13.319,0.180,0.260
13.322,0.215,0.260
13.325,0.250,0.270
13.328,0.275,0.260
13.331,0.300,0.250
13.333,0.310,0.235
13.336,0.325,0.235
13.339,0.370,0.255
13.342,0.410,0.255
13.344,0.445,0.240
13.347,0.470,0.245
13.350,0.480,0.235
13.353,0.515,0.230
13.356,0.535,0.240
13.358,0.575,0.235
13.361,0.625,0.250
13.364,0.635,0.230
13.367,0.640,0.210
13.369,0.670,0.215
13.372,0.700,0.225
13.375,0.730,0.225
13.378,0.765,0.225
13.381,0.790,0.210
13.383,0.775,0.200
13.386,0.805,0.205
13.389,0.825,0.225
13.392,0.845,0.230
13.394,0.850,0.230
13.397,0.830,0.225
13.400,0.800,0.210
13.403,0.770,0.230
13.406,0.755,0.240
13.408,0.720,0.250
13.411,0.685,0.245
13.414,0.620,0.230
13.417,0.555,0.235
13.419,0.495,0.250
13.422,0.425,0.250
13.425,0.385,0.275
13.428,0.320,0.250
13.431,0.245,0.240
13.433,0.170,0.225
13.436,0.120,0.240
13.439,0.050,0.250
13.442,0.035,0.265
13.444,-0.015,0.260
13.447,-0.065,0.245
13.450,-0.115,0.235
13.453,-0.145,0.235
13.456,-0.170,0.245
13.458,-0.175,0.255
13.461,-0.210,0.240
13.464,-0.235,0.235
13.467,-0.265,0.220
13.469,-0.275,0.235
13.472,-0.295,0.240
13.475,-0.290,0.250
13.478,-0.295,0.240
13.481,-0.315,0.230
13.483,-0.325,0.210
13.486,-0.345,0.215
13.489,-0.335,0.220
13.492,-0.330,0.245
13.494,-0.330,0.250
13.497,-0.340,0.215
13.500,-0.360,0.200
13.503,-0.360,0.210
13.506,-0.360,0.225
13.508,-0.345,0.235
13.511,-0.350,0.240
13.514,-0.355,0.215
13.517,-0.365,0.200
13.519,-0.385,0.205
13.522,-0.375,0.220
13.525,-0.340,0.230
13.528,-0.350,0.230
13.531,-0.355,0.215
13.533,-0.355,0.190
13.536,-0.375,0.205
13.539,-0.350,0.215
13.542,-0.350,0.225
13.544,-0.340,0.220
13.547,-0.350,0.205
13.550,-0.350,0.200
13.553,-0.370,0.200
13.556,-0.340,0.215
13.558,-0.335,0.220
13.561,-0.335,0.215
13.564,-0.330,0.210
13.567,-0.350,0.195
13.569,-0.340,0.210
13.572,-0.340,0.205
13.575,-0.330,0.225
13.578,-0.325,0.205
13.581,-0.340,0.200
13.583,-0.360,0.190
13.586,-0.355,0.200
13.589,-0.355,0.220
13.592,-0.330,0.220
13.594,-0.330,0.205
13.597,-0.340,0.200
13.600,-0.350,0.195
13.603,-0.355,0.205
13.606,-0.335,0.205
13.608,-0.325,0.220
13.611,-0.320,0.205
13.614,-0.340,0.195
13.617,-0.360,0.195
13.619,-0.350,0.200
13.622,-0.335,0.200
13.625,-0.325,0.200
13.628,-0.325,0.200
13.631,-0.335,0.185
13.633,-0.345,0.175
13.636,-0.350,0.185
13.639,-0.340,0.190
13.642,-0.340,0.190
13.644,-0.330,0.180
13.647,-0.350,0.180
13.650,-0.365,0.165
13.653,-0.365,0.180
13.656,-0.360,0.195
13.658,-0.355,0.200
13.661,-0.350,0.185
13.664,-0.360,0.175
13.667,-0.360,0.170
13.669,-0.370,0.175
13.672,-0.365,0.190
13.675,-0.365,0.200
13.678,-0.365,0.180
13.681,-0.360,0.170
13.683,-0.360,0.150
13.686,-0.370,0.160
13.689,-0.370,0.180
13.692,-0.355,0.195
13.694,-0.375,0.175
13.697,-0.375,0.160
13.700,-0.380,0.150
13.703,-0.390,0.150
13.706,-0.375,0.175
13.708,-0.360,0.170
13.711,-0.350,0.175
13.714,-0.365,0.150
13.717,-0.370,0.145
13.719,-0.385,0.150
13.722,-0.380,0.155
13.725,-0.355,0.170
13.728,-0.365,0.160
13.731,-0.365,0.145
13.733,-0.375,0.130
13.736,-0.395,0.150
13.739,-0.385,0.160
13.742,-0.380,0.155
13.744,-0.360,0.155
13.747,-0.365,0.150
13.750,-0.375,0.135
13.753,-0.385,0.140
13.756,-0.395,0.150
13.758,-0.385,0.150
13.761,-0.360,0.155
13.764,-0.380,0.135
13.767,-0.390,0.120
13.769,-0.385,0.130
13.772,-0.375,0.145
13.775,-0.370,0.160
13.778,-0.375,0.155
13.781,-0.390,0.135
13.783,-0.385,0.110
13.786,-0.390,0.125
13.789,-0.380,0.135
13.792,-0.365,0.140
13.794,-0.355,0.145
13.797,-0.380,0.130
13.800,-0.380,0.115
13.803,-0.390,0.120
13.806,-0.375,0.125
13.808,-0.370,0.140
13.811,-0.360,0.120
13.814,-0.375,0.115
13.817,-0.370,0.100
13.819,-0.380,0.130
13.822,-0.375,0.125
13.825,-0.365,0.140
13.828,-0.360,0.120
13.831,-0.375,0.115
13.833,-0.385,0.100
13.836,-0.390,0.110
13.839,-0.375,0.125
13.842,-0.360,0.130
13.844,-0.360,0.125
13.847,-0.360,0.105
13.850,-0.370,0.095
13.853,-0.380,0.095
13.856,-0.375,0.115
13.858,-0.365,0.120
13.861,-0.360,0.120
13.864,-0.365,0.100
13.867,-0.370,0.100
13.869,-0.380,0.095
13.872,-0.370,0.115
13.875,-0.360,0.110
13.878,-0.340,0.115
13.881,-0.360,0.100
13.883,-0.390,0.085
13.886,-0.390,0.095
13.889,-0.370,0.110
13.892,-0.370,0.115
13.894,-0.360,0.105
13.897,-0.365,0.095
13.900,-0.380,0.090
13.903,-0.370,0.090
13.906,-0.360,0.105
13.908,-0.355,0.110
13.911,-0.350,0.105
13.914,-0.370,0.100
13.917,-0.390,0.080
13.919,-0.385,0.095
13.922,-0.375,0.100
13.925,-0.350,0.105
13.928,-0.345,0.105
13.931,-0.350,0.085
13.933,-0.360,0.085
13.936,-0.365,0.080
13.939,-0.350,0.095
13.942,-0.340,0.110
13.944,-0.335,0.105
13.947,-0.335,0.095
13.950,-0.355,0.080
13.953,-0.365,0.105
13.956,-0.335,0.110
13.958,-0.325,0.130
13.961,-0.310,0.130
13.964,-0.315,0.125
13.967,-0.325,0.100
13.969,-0.310,0.105
13.972,-0.290,0.100
13.975,-0.260,0.105
13.978,-0.270,0.090
13.981,-0.285,0.075
13.983,-0.290,0.050
13.986,-0.280,0.050
13.989,-0.255,0.050
13.992,-0.240,0.065
13.994,-0.250,0.060
13.997,-0.275,0.050
14.000,-0.285,0.035
14.003,-0.290,0.055
14.006,-0.285,0.065
14.008,-0.255,0.075
14.011,-0.270,0.065
14.014,-0.275,0.055
14.017,-0.315,0.050
14.019,-0.320,0.055
14.022,-0.325,0.075
14.025,-0.305,0.070
14.028,-0.320,0.065
14.031,-0.330,0.050
14.033,-0.340,0.045
14.036,-0.340,0.030
14.039,-0.340,0.055
14.042,-0.325,0.070
14.044,-0.315,0.055
14.047,-0.325,0.060
14.050,-0.330,0.040
14.053,-0.340,0.050
14.056,-0.325,0.060
14.058,-0.320,0.065
14.061,-0.310,0.065
14.064,-0.310,0.050
14.067,-0.330,0.035
14.069,-0.330,0.040
14.072,-0.320,0.055
14.075,-0.295,0.070
14.078,-0.295,0.070
14.081,-0.295,0.060
14.083,-0.300,0.085
14.086,-0.295,0.125
14.089,-0.290,0.195
14.092,-0.300,0.235
14.094,-0.345,0.265
14.097,-0.375,0.245
14.100,-0.410,0.200
14.103,-0.410,0.120
14.106,-0.355,0.045
14.108,-0.190,-0.095
14.111,0.150,-0.255
14.114,0.635,-0.390
14.117,1.185,-0.450
14.119,1.665,-0.400
14.122,2.005,-0.300
14.125,2.140,-0.170
14.128,1.995,-0.060
14.131,1.535,-0.030
14.133,0.895,-0.045
14.136,0.255,-0.055
14.139,-0.385,-0.005
14.142,-0.625,0.025
14.144,-0.480,0.055
14.147,-0.415,0.040
14.150,-0.445,0.030
14.153,-0.470,0.025
14.156,-0.460,0.040
14.158,-0.425,0.050
14.161,-0.385,0.050
14.164,-0.345,0.060
14.167,-0.320,0.040
14.169,-0.280,0.045
14.172,-0.250,0.050
14.175,-0.240,0.080
14.178,-0.245,0.060
14.181,-0.250,0.040
14.183,-0.280,0.030
14.186,-0.265,0.030
14.189,-0.255,0.050
14.192,-0.245,0.065
14.194,-0.225,0.050
14.197,-0.235,0.030
14.200,-0.240,0.025
14.203,-0.240,0.035
14.206,-0.225,0.050
14.208,-0.220,0.045
14.211,-0.210,0.045
14.214,-0.225,0.035
14.217,-0.230,0.020
14.219,-0.235,0.030
14.222,-0.215,0.045
14.225,-0.215,0.045
14.228,-0.200,0.030
14.231,-0.200,0.025
14.233,-0.215,0.010
14.236,-0.215,0.020
14.239,-0.210,0.035
14.242,-0.205,0.045
14.244,-0.185,0.045
14.247,-0.200,0.025
14.250,-0.205,0.015
14.253,-0.210,0.015
14.256,-0.195,0.025
14.258,-0.190,0.040
14.261,-0.170,0.035
14.264,-0.180,0.015
14.267,-0.180,0.010
14.269,-0.195,0.005
14.272,-0.175,0.030
14.275,-0.150,0.030
14.278,-0.145,0.025
14.281,-0.160,0.010
14.283,-0.170,0.000
14.286,-0.170,0.015
14.289,-0.150,0.020
14.292,-0.140,0.035
14.294,-0.125,0.015
14.297,-0.130,0.005
14.300,-0.145,0.000
14.303,-0.140,0.005
14.306,-0.125,0.020
14.308,-0.110,0.035
14.311,-0.105,0.015
14.314,-0.100,0.000
14.317,-0.120,-0.010
14.319,-0.105,0.000
14.322,-0.095,0.000
14.325,-0.075,0.020
14.328,-0.080,0.015
14.331,-0.065,0.005
14.333,-0.065,-0.010
14.336,-0.070,-0.005
14.339,-0.050,0.015
14.342,-0.020,0.010
14.344,-0.020,0.010
14.347,-0.015,-0.015
14.350,-0.015,-0.005
14.353,-0.010,-0.015
14.356,0.010,0.000
14.358,0.025,0.005
14.361,0.045,-0.010
14.364,0.040,-0.020
14.367,0.045,-0.035
14.369,0.055,-0.025
14.372,0.085,-0.020
14.375,0.120,-0.005
14.378,0.130,-0.010
14.381,0.135,-0.030
14.383,0.120,-0.045
14.386,0.140,-0.030
14.389,0.185,-0.020
14.392,0.220,-0.015
14.394,0.235,-0.030
14.397,0.250,-0.045
14.400,0.265,-0.045
14.403,0.300,-0.050
14.406,0.335,-0.035
14.408,0.375,-0.020
14.411,0.405,-0.040
14.414,0.425,-0.050
14.417,0.445,-0.055
14.419,0.455,-0.060
14.422,0.510,-0.045
14.425,0.545,-0.030
14.428,0.580,-0.050
14.431,0.605,-0.065
14.433,0.615,-0.070
14.436,0.650,-0.065
14.439,0.690,-0.060
14.442,0.720,-0.065
14.444,0.750,-0.065
14.447,0.755,-0.075
14.450,0.760,-0.080
14.453,0.785,-0.080
14.456,0.800,-0.070
14.458,0.835,-0.060
14.461,0.850,-0.065
14.464,0.840,-0.070
14.467,0.805,-0.080
14.469,0.795,-0.055
14.472,0.750,-0.050
14.475,0.760,-0.035
14.478,0.720,-0.040
14.481,0.665,-0.045
14.483,0.580,-0.045
14.486,0.535,-0.040
14.489,0.480,-0.030
14.492,0.420,-0.015
14.494,0.355,-0.015
14.497,0.285,-0.030
14.500,0.185,-0.035
14.503,0.125,-0.035
14.506,0.075,-0.030
14.508,0.030,-0.025
14.511,-0.020,-0.025
14.514,-0.085,-0.035
14.517,-0.135,-0.055
14.519,-0.165,-0.035
14.522,-0.180,-0.040
14.525,-0.195,-0.025
14.528,-0.205,-0.030
14.531,-0.245,-0.045
14.533,-0.275,-0.050
14.536,-0.290,-0.040
14.539,-0.305,-0.025
14.542,-0.290,-0.025
14.544,-0.285,-0.035
14.547,-0.300,-0.035
14.550,-0.325,-0.060
14.553,-0.335,-0.060
14.556,-0.335,-0.040
14.558,-0.335,-0.040
14.561,-0.320,-0.040
14.564,-0.340,-0.050
14.567,-0.350,-0.060
14.569,-0.355,-0.055
14.572,-0.340,-0.040
14.575,-0.345,-0.030
14.578,-0.335,-0.040
14.581,-0.360,-0.060
14.583,-0.360,-0.055
14.586,-0.360,-0.070
14.589,-0.355,-0.045
14.592,-0.345,-0.015
14.594,-0.355,-0.025
14.597,-0.350,-0.040
14.600,-0.365,-0.060
14.603,-0.370,-0.060
14.606,-0.365,-0.045
14.608,-0.330,-0.030
14.611,-0.340,-0.045
14.614,-0.355,-0.050
14.617,-0.365,-0.070
14.619,-0.360,-0.065
14.622,-0.370,-0.040
14.625,-0.355,-0.030
14.628,-0.365,-0.030
14.631,-0.355,-0.045
14.633,-0.360,-0.065
14.636,-0.360,-0.055
14.639,-0.360,-0.045
14.642,-0.345,-0.040
14.644,-0.340,-0.040
14.647,-0.360,-0.065
14.650,-0.365,-0.055
14.653,-0.375,-0.050
14.656,-0.360,-0.045
14.658,-0.345,-0.035
14.661,-0.335,-0.040
14.664,-0.350,-0.050
14.667,-0.370,-0.060
14.669,-0.375,-0.060
14.672,-0.350,-0.050
14.675,-0.360,-0.040
14.678,-0.345,-0.050
14.681,-0.355,-0.040
14.683,-0.380,-0.070
14.686,-0.375,-0.055
14.689,-0.355,-0.055
14.692,-0.360,-0.050
14.694,-0.340,-0.055
14.697,-0.360,-0.065
14.700,-0.370,-0.075
14.703,-0.380,-0.070
14.706,-0.370,-0.060
14.708,-0.350,-0.060
14.711,-0.360,-0.075
14.714,-0.370,-0.080
14.717,-0.395,-0.085
14.719,-0.405,-0.070
14.722,-0.375,-0.070
14.725,-0.360,-0.055
14.728,-0.350,-0.075
14.731,-0.370,-0.080
14.733,-0.380,-0.085
14.736,-0.390,-0.070
14.739,-0.375,-0.065
14.742,-0.360,-0.065
14.744,-0.365,-0.070
14.747,-0.375,-0.090
14.750,-0.380,-0.075
14.753,-0.400,-0.090
14.756,-0.375,-0.070
14.758,-0.375,-0.065
14.761,-0.370,-0.075
14.764,-0.390,-0.090
14.767,-0.405,-0.090
14.769,-0.410,-0.080
14.772,-0.400,-0.070
14.775,-0.380,-0.055
14.778,-0.365,-0.070
14.781,-0.385,-0.090
14.783,-0.385,-0.110
14.786,-0.400,-0.090
14.789,-0.395,-0.075
14.792,-0.380,-0.065
14.794,-0.380,-0.075
14.797,-0.385,-0.085
14.800,-0.420,-0.110
14.803,-0.410,-0.105
14.806,-0.400,-0.085
14.808,-0.385,-0.080
14.811,-0.385,-0.075
14.814,-0.395,-0.100
14.817,-0.395,-0.100
14.819,-0.410,-0.090
14.822,-0.390,-0.070
14.825,-0.385,-0.070
14.828,-0.375,-0.075
14.831,-0.385,-0.090
14.833,-0.400,-0.100
14.836,-0.405,-0.090
14.839,-0.390,-0.080
14.842,-0.390,-0.060
14.844,-0.385,-0.065
14.847,-0.390,-0.095
14.850,-0.410,-0.100
14.853,-0.420,-0.085
14.856,-0.405,-0.085
14.858,-0.390,-0.075
14.861,-0.395,-0.075
14.864,-0.410,-0.095
14.867,-0.415,-0.100
14.869,-0.405,-0.095
14.872,-0.410,-0.085
14.875,-0.390,-0.085
14.878,-0.390,-0.090
14.881,-0.400,-0.095
14.883,-0.410,-0.105
14.886,-0.420,-0.095
14.889,-0.415,-0.085
14.892,-0.390,-0.085
14.894,-0.375,-0.085
14.897,-0.380,-0.090
14.900,-0.395,-0.105
14.903,-0.385,-0.105
14.906,-0.380,-0.100
14.908,-0.370,-0.085
14.911,-0.375,-0.080
14.914,-0.375,-0.100
14.917,-0.400,-0.110
14.919,-0.400,-0.110
14.922,-0.390,-0.105
14.925,-0.375,-0.095
14.928,-0.385,-0.100
14.931,-0.390,-0.105
14.933,-0.400,-0.105
14.936,-0.395,-0.100
14.939,-0.385,-0.075
14.942,-0.385,-0.075
14.944,-0.375,-0.085
14.947,-0.390,-0.100
14.950,-0.420,-0.105
14.953,-0.395,-0.105
14.956,-0.395,-0.105
14.958,-0.370,-0.095
14.961,-0.375,-0.085
14.964,-0.375,-0.090
14.967,-0.400,-0.105
14.969,-0.395,-0.090
14.972,-0.385,-0.075
14.975,-0.360,-0.045
14.978,-0.360,-0.065
14.981,-0.355,-0.065
14.983,-0.355,-0.075
14.986,-0.365,-0.065
14.989,-0.325,-0.070
14.992,-0.320,-0.060
14.994,-0.310,-0.070
14.997,-0.305,-0.085
15.000,-0.325,-0.105
15.003,-0.320,-0.100
15.006,-0.310,-0.105
15.008,-0.280,-0.115
15.011,-0.285,-0.115
15.014,-0.290,-0.135
15.017,-0.315,-0.125
15.019,-0.315,-0.120
15.022,-0.310,-0.110
15.025,-0.295,-0.100
15.028,-0.285,-0.110
15.031,-0.305,-0.130
15.033,-0.335,-0.125
15.036,-0.340,-0.110
15.039,-0.335,-0.110
15.042,-0.340,-0.090
15.044,-0.345,-0.100
15.047,-0.355,-0.125
15.050,-0.360,-0.125
15.053,-0.375,-0.120
15.056,-0.370,-0.115
15.058,-0.355,-0.100
15.061,-0.340,-0.110
15.064,-0.355,-0.105
15.067,-0.370,-0.120
15.069,-0.375,-0.115
15.072,-0.375,-0.105
15.075,-0.355,-0.095
15.078,-0.340,-0.100
15.081,-0.355,-0.105
15.083,-0.370,-0.110
15.086,-0.390,-0.110
15.089,-0.360,-0.105
15.092,-0.355,-0.080
15.094,-0.335,-0.090
15.097,-0.335,-0.085
15.100,-0.340,-0.090
15.103,-0.335,-0.050
15.106,-0.325,-0.005
15.108,-0.315,0.035
15.111,-0.335,0.075
15.114,-0.380,0.090
15.117,-0.435,0.075
15.119,-0.460,0.050
15.122,-0.460,0.015
15.125,-0.410,-0.030
15.128,-0.310,-0.140
15.131,-0.125,-0.270
15.133,0.190,-0.375
15.136,0.655,-0.480
15.139,1.175,-0.500
15.142,1.620,-0.465
15.144,1.920,-0.395
15.147,2.025,-0.305
15.150,1.945,-0.225
15.153,1.620,-0.155
15.156,1.010,-0.135
15.158,0.370,-0.125
15.161,-0.270,-0.125
15.164,-0.660,-0.130
15.167,-0.635,-0.130
15.169,-0.535,-0.105
15.172,-0.495,-0.095
15.175,-0.495,-0.070
15.178,-0.505,-0.085
15.181,-0.525,-0.095
15.183,-0.510,-0.115
15.186,-0.495,-0.095
15.189,-0.450,-0.085
15.192,-0.390,-0.060
15.194,-0.325,-0.075
15.197,-0.300,-0.095
15.200,-0.300,-0.105
15.203,-0.305,-0.100
15.206,-0.305,-0.090
15.208,-0.290,-0.075
15.211,-0.285,-0.075
15.214,-0.285,-0.100
15.217,-0.290,-0.110
15.219,-0.300,-0.080
15.222,-0.290,-0.090
15.225,-0.265,-0.065
15.228,-0.260,-0.090
15.231,-0.270,-0.090
15.233,-0.260,-0.100
15.236,-0.270,-0.090
15.239,-0.260,-0.075
15.242,-0.250,-0.075
15.244,-0.230,-0.085
15.247,-0.230,-0.110
15.250,-0.240,-0.115
15.253,-0.250,-0.105
15.256,-0.240,-0.090
15.258,-0.210,-0.085
15.261,-0.210,-0.085
15.264,-0.215,-0.100
15.267,-0.225,-0.110
15.269,-0.230,-0.090
15.272,-0.215,-0.090
15.275,-0.210,-0.075
15.278,-0.215,-0.090
15.281,-0.225,-0.115
15.283,-0.210,-0.120
15.286,-0.210,-0.100
15.289,-0.190,-0.100
15.292,-0.185,-0.090
15.294,-0.190,-0.095
15.297,-0.190,-0.110
15.300,-0.185,-0.130
15.303,-0.195,-0.120
15.306,-0.175,-0.100
15.308,-0.160,-0.085
15.311,-0.165,-0.100
15.314,-0.165,-0.100
15.317,-0.160,-0.120
15.319,-0.155,-0.120
15.322,-0.145,-0.105
15.325,-0.135,-0.085
15.328,-0.135,-0.110
15.331,-0.125,-0.120
15.333,-0.120,-0.120
15.336,-0.130,-0.120
15.339,-0.105,-0.100
15.342,-0.095,-0.100
15.344,-0.085,-0.110
15.347,-0.075,-0.125
15.350,-0.080,-0.130
15.353,-0.080,-0.115
15.356,-0.060,-0.110
15.358,-0.035,-0.105
15.361,-0.015,-0.120
15.364,-0.020,-0.130
15.367,-0.015,-0.135
15.369,0.000,-0.135
15.372,0.025,-0.115
15.375,0.040,-0.100
15.378,0.070,-0.115
15.381,0.065,-0.135
15.383,0.075,-0.145
15.386,0.095,-0.130
15.389,0.130,-0.115
15.392,0.150,-0.110
15.394,0.180,-0.135
15.397,0.195,-0.145
15.400,0.195,-0.155
15.403,0.220,-0.155
15.406,0.265,-0.130
15.408,0.310,-0.130
15.411,0.330,-0.150
15.414,0.365,-0.160
15.417,0.375,-0.175
15.419,0.400,-0.155
15.422,0.430,-0.145
15.425,0.475,-0.140
15.428,0.520,-0.155
15.431,0.545,-0.170
15.433,0.555,-0.175
15.436,0.580,-0.185
15.439,0.615,-0.160
15.442,0.655,-0.155
15.444,0.685,-0.165
15.447,0.710,-0.185
15.450,0.720,-0.195
15.453,0.745,-0.185
15.456,0.765,-0.175
15.458,0.800,-0.160
15.461,0.810,-0.165
15.464,0.800,-0.165
15.467,0.790,-0.165
15.469,0.770,-0.145
15.472,0.755,-0.135
15.475,0.730,-0.115
15.478,0.690,-0.125
15.481,0.635,-0.135
15.483,0.545,-0.135
15.486,0.495,-0.120
15.489,0.430,-0.110
15.492,0.375,-0.090
15.494,0.295,-0.105
15.497,0.210,-0.115
15.500,0.145,-0.115
15.503,0.070,-0.110
15.506,0.000,-0.095
15.508,-0.035,-0.085
15.511,-0.080,-0.095
15.514,-0.130,-0.110
15.517,-0.180,-0.115
15.519,-0.230,-0.115
15.522,-0.240,-0.105
15.525,-0.245,-0.085
15.528,-0.250,-0.090
15.531,-0.285,-0.100
15.533,-0.305,-0.115
15.536,-0.325,-0.110
15.539,-0.320,-0.105
15.542,-0.320,-0.095
15.544,-0.320,-0.100
15.547,-0.360,-0.105
15.550,-0.380,-0.115
15.553,-0.370,-0.100
15.556,-0.380,-0.085
15.558,-0.370,-0.085
15.561,-0.360,-0.095
15.564,-0.370,-0.110
15.567,-0.380,-0.120
15.569,-0.390,-0.105
15.572,-0.380,-0.095
15.575,-0.365,-0.090
15.578,-0.360,-0.090
15.581,-0.375,-0.105
15.583,-0.375,-0.120
15.586,-0.395,-0.115
15.589,-0.390,-0.095
15.592,-0.375,-0.090
15.594,-0.375,-0.090
15.597,-0.380,-0.105
15.600,-0.390,-0.125
15.603,-0.390,-0.100
15.606,-0.395,-0.100
15.608,-0.355,-0.090
15.611,-0.355,-0.095
15.614,-0.360,-0.100
15.617,-0.380,-0.105
15.619,-0.380,-0.105
15.622,-0.360,-0.090
15.625,-0.350,-0.085
15.628,-0.335,-0.095
15.631,-0.355,-0.115
15.633,-0.360,-0.110
15.636,-0.370,-0.095
15.639,-0.350,-0.080
15.642,-0.345,-0.095
15.644,-0.340,-0.095
15.647,-0.350,-0.105
15.650,-0.360,-0.125
15.653,-0.370,-0.115
15.656,-0.355,-0.095
15.658,-0.340,-0.090
15.661,-0.335,-0.100
15.664,-0.340,-0.100
15.667,-0.360,-0.105
15.669,-0.370,-0.110
15.672,-0.380,-0.095
15.675,-0.360,-0.080
15.678,-0.345,-0.090
15.681,-0.355,-0.100
15.683,-0.380,-0.115
15.686,-0.375,-0.105
15.689,-0.375,-0.100
15.692,-0.365,-0.075
15.694,-0.360,-0.085
15.697,-0.370,-0.095
15.700,-0.390,-0.110
15.703,-0.395,-0.115
15.706,-0.385,-0.105
15.708,-0.365,-0.100
15.711,-0.360,-0.105
15.714,-0.380,-0.110
15.717,-0.390,-0.125
15.719,-0.390,-0.110
15.722,-0.390,-0.090
15.725,-0.365,-0.080
15.728,-0.360,-0.095
15.731,-0.365,-0.115
15.733,-0.375,-0.115
15.736,-0.390,-0.115
15.739,-0.375,-0.110
15.742,-0.370,-0.090
15.744,-0.365,-0.100
15.747,-0.385,-0.110
15.750,-0.395,-0.120
15.753,-0.400,-0.125
15.756,-0.385,-0.115
15.758,-0.375,-0.095
15.761,-0.385,-0.100
15.764,-0.375,-0.115
15.767,-0.395,-0.120
15.769,-0.390,-0.115
15.772,-0.395,-0.095
15.775,-0.380,-0.090
15.778,-0.375,-0.105
15.781,-0.410,-0.120
15.783,-0.405,-0.130
15.786,-0.400,-0.125
15.789,-0.385,-0.115
15.792,-0.375,-0.100
15.794,-0.380,-0.100
15.797,-0.390,-0.110
15.800,-0.400,-0.125
15.803,-0.400,-0.110
15.806,-0.390,-0.110
15.808,-0.375,-0.100
15.811,-0.385,-0.100
15.814,-0.385,-0.120
15.817,-0.400,-0.125
15.819,-0.395,-0.115
15.822,-0.390,-0.105
15.825,-0.370,-0.100
15.828,-0.370,-0.115
15.831,-0.385,-0.135
15.833,-0.405,-0.130
15.836,-0.400,-0.125
15.839,-0.380,-0.115
15.842,-0.375,-0.095
15.844,-0.380,-0.100
15.847,-0.370,-0.110
15.850,-0.405,-0.125
15.853,-0.410,-0.120
15.856,-0.390,-0.100
15.858,-0.365,-0.085
15.861,-0.355,-0.080
15.864,-0.355,-0.070
15.867,-0.365,-0.075
15.869,-0.360,-0.055
15.872,-0.340,-0.050
15.875,-0.310,-0.050
15.878,-0.300,-0.080
15.881,-0.315,-0.110
15.883,-0.325,-0.110
15.886,-0.320,-0.115
15.889,-0.305,-0.120
15.892,-0.285,-0.110
15.894,-0.270,-0.120
15.897,-0.270,-0.125
15.900,-0.275,-0.140
15.903,-0.290,-0.125
15.906,-0.275,-0.120
15.908,-0.290,-0.100
15.911,-0.290,-0.115
15.914,-0.320,-0.120
15.917,-0.340,-0.125
15.919,-0.335,-0.120
15.922,-0.335,-0.105
15.925,-0.330,-0.100
15.928,-0.340,-0.120
15.931,-0.360,-0.130
15.933,-0.385,-0.145
15.936,-0.380,-0.135
15.939,-0.400,-0.120
15.942,-0.380,-0.110
15.944,-0.390,-0.115
15.947,-0.390,-0.130
15.950,-0.385,-0.125
15.953,-0.410,-0.130
15.956,-0.395,-0.115
15.958,-0.365,-0.105
15.961,-0.365,-0.115
15.964,-0.370,-0.125
15.967,-0.380,-0.135
15.969,-0.385,-0.135
15.972,-0.375,-0.115
15.975,-0.365,-0.110
15.978,-0.355,-0.115
15.981,-0.365,-0.130
15.983,-0.380,-0.135
15.986,-0.360,-0.120
15.989,-0.355,-0.095
15.992,-0.335,-0.075
15.994,-0.340,-0.040
15.997,-0.325,-0.020
16.000,-0.360,0.015
16.003,-0.395,0.060
16.006,-0.415,0.095
16.008,-0.435,0.100
16.011,-0.460,0.065
16.014,-0.460,0.010
16.017,-0.450,-0.075
16.019,-0.355,-0.160
16.022,-0.140,-0.255
16.025,0.215,-0.350
16.028,0.715,-0.470
16.031,1.215,-0.520
16.033,1.640,-0.500
16.036,1.910,-0.410
16.039,2.035,-0.305
16.042,1.920,-0.205
16.044,1.460,-0.150
16.047,0.820,-0.170
16.050,0.180,-0.185
16.053,-0.460,-0.160
16.056,-0.700,-0.110
16.058,-0.555,-0.080
16.061,-0.470,-0.075
16.064,-0.485,-0.085
16.067,-0.530,-0.100
16.069,-0.535,-0.095
16.072,-0.510,-0.090
16.075,-0.465,-0.075
16.078,-0.415,-0.070
16.081,-0.375,-0.080
16.083,-0.345,-0.100
16.086,-0.320,-0.090
16.089,-0.305,-0.075
16.092,-0.300,-0.080
16.094,-0.295,-0.080
16.097,-0.295,-0.095
16.100,-0.310,-0.100
16.103,-0.315,-0.100
16.106,-0.315,-0.080
16.108,-0.280,-0.075
16.111,-0.270,-0.095
16.114,-0.280,-0.090
16.117,-0.300,-0.105
16.119,-0.295,-0.090
16.122,-0.290,-0.085
16.125,-0.265,-0.085
16.128,-0.260,-0.090
16.131,-0.270,-0.090
16.133,-0.285,-0.095
16.136,-0.285,-0.100
16.139,-0.275,-0.085
16.142,-0.250,-0.055
16.144,-0.245,-0.075
16.147,-0.245,-0.085
16.150,-0.255,-0.100
16.153,-0.255,-0.100
16.156,-0.265,-0.085
16.158,-0.235,-0.070
16.161,-0.225,-0.075
16.164,-0.245,-0.090
16.167,-0.235,-0.090
16.169,-0.235,-0.080
16.172,-0.230,-0.085
16.175,-0.220,-0.075
16.178,-0.195,-0.075
16.181,-0.200,-0.090
16.183,-0.205,-0.095
16.186,-0.220,-0.100
16.189,-0.210,-0.070
16.192,-0.200,-0.075
16.194,-0.190,-0.085
16.197,-0.190,-0.100
16.200,-0.205,-0.105
16.203,-0.190,-0.080
16.206,-0.190,-0.085
16.208,-0.170,-0.080
16.211,-0.155,-0.085
16.214,-0.155,-0.105
16.217,-0.170,-0.105
16.219,-0.165,-0.100
16.222,-0.155,-0.095
16.225,-0.130,-0.070
16.228,-0.120,-0.075
16.231,-0.110,-0.090
16.233,-0.145,-0.105
16.236,-0.125,-0.095
16.239,-0.095,-0.095
16.242,-0.080,-0.085
16.244,-0.070,-0.080
16.247,-0.070,-0.100
16.250,-0.075,-0.105
16.253,-0.060,-0.095
16.256,-0.035,-0.100
16.258,0.000,-0.085
16.261,0.005,-0.105
16.264,0.015,-0.100
16.267,0.020,-0.110
16.269,0.040,-0.115
16.272,0.060,-0.100
16.275,0.095,-0.085
16.278,0.100,-0.105
16.281,0.135,-0.115
16.283,0.135,-0.125
16.286,0.145,-0.125
16.289,0.195,-0.105
16.292,0.225,-0.105
16.294,0.260,-0.110
16.297,0.295,-0.125
16.300,0.290,-0.145
16.303,0.325,-0.140
16.306,0.385,-0.125
16.308,0.420,-0.115
16.311,0.445,-0.125
16.314,0.460,-0.145
16.317,0.475,-0.160
16.319,0.515,-0.150
16.322,0.555,-0.145
16.325,0.605,-0.140
16.328,0.620,-0.145
16.331,0.650,-0.155
16.333,0.665,-0.170
16.336,0.685,-0.165
16.339,0.720,-0.150
16.342,0.765,-0.150
16.344,0.775,-0.155
16.347,0.780,-0.170
16.350,0.785,-0.165
16.353,0.780,-0.150
16.356,0.790,-0.140
16.358,0.775,-0.140
16.361,0.750,-0.135
16.364,0.705,-0.140
16.367,0.650,-0.140
16.369,0.595,-0.130
16.372,0.550,-0.110
16.375,0.490,-0.095
16.378,0.435,-0.100
16.381,0.360,-0.100
16.383,0.275,-0.125
16.386,0.210,-0.115
16.389,0.145,-0.090
16.392,0.105,-0.085
16.394,0.055,-0.090
16.397,-0.020,-0.100
16.400,-0.065,-0.105
16.403,-0.120,-0.105
16.406,-0.155,-0.075
16.408,-0.175,-0.080
16.411,-0.200,-0.100
16.414,-0.230,-0.110
16.417,-0.270,-0.120
16.419,-0.300,-0.110
16.422,-0.305,-0.090
16.425,-0.305,-0.080
16.428,-0.325,-0.090
16.431,-0.340,-0.105
16.433,-0.370,-0.105
16.436,-0.375,-0.110
16.439,-0.375,-0.095
16.442,-0.360,-0.090
16.444,-0.365,-0.105
16.447,-0.375,-0.115
16.450,-0.385,-0.110
16.453,-0.405,-0.105
16.456,-0.390,-0.095
16.458,-0.385,-0.080
16.461,-0.385,-0.085
16.464,-0.405,-0.095
16.467,-0.410,-0.110
16.469,-0.415,-0.100
16.472,-0.410,-0.090
16.475,-0.395,-0.075
16.478,-0.395,-0.075
16.481,-0.405,-0.090
16.483,-0.410,-0.095
16.486,-0.410,-0.095
16.489,-0.395,-0.085
16.492,-0.400,-0.070
16.494,-0.385,-0.090
16.497,-0.385,-0.090
16.500,-0.395,-0.105
16.503,-0.410,-0.090
16.506,-0.395,-0.080
16.508,-0.375,-0.075
16.511,-0.385,-0.080
16.514,-0.375,-0.090
16.517,-0.395,-0.095
16.519,-0.405,-0.090
16.522,-0.385,-0.085
16.525,-0.375,-0.065
16.528,-0.360,-0.070
16.531,-0.375,-0.085
16.533,-0.380,-0.105
16.536,-0.385,-0.080
16.539,-0.380,-0.080
16.542,-0.380,-0.065
16.544,-0.375,-0.085
16.547,-0.385,-0.095
16.550,-0.395,-0.095
16.553,-0.395,-0.090
16.556,-0.400,-0.075
16.558,-0.375,-0.070
16.561,-0.365,-0.080
16.564,-0.370,-0.095
16.567,-0.390,-0.105
16.569,-0.390,-0.095
16.572,-0.395,-0.080
16.575,-0.390,-0.075
16.578,-0.375,-0.080
16.581,-0.385,-0.090
16.583,-0.410,-0.100
16.586,-0.405,-0.095
16.589,-0.405,-0.085
16.592,-0.400,-0.065
16.594,-0.395,-0.085
16.597,-0.385,-0.095
16.600,-0.410,-0.100
16.603,-0.400,-0.095
16.606,-0.405,-0.080
16.608,-0.390,-0.075
16.611,-0.390,-0.085
16.614,-0.380,-0.110
16.617,-0.405,-0.100
16.619,-0.400,-0.090
16.622,-0.405,-0.085
16.625,-0.385,-0.070
16.628,-0.390,-0.075
16.631,-0.395,-0.090
16.633,-0.405,-0.100
16.636,-0.415,-0.090
16.639,-0.410,-0.070
16.642,-0.400,-0.075
16.644,-0.390,-0.080
16.647,-0.405,-0.090
16.650,-0.425,-0.100
16.653,-0.415,-0.095
16.656,-0.420,-0.080
16.658,-0.400,-0.070
16.661,-0.400,-0.075
16.664,-0.415,-0.095
16.667,-0.420,-0.085
16.669,-0.420,-0.095
16.672,-0.415,-0.065
16.675,-0.395,-0.065
16.678,-0.395,-0.075
16.681,-0.410,-0.080
16.683,-0.415,-0.105
16.686,-0.415,-0.085
16.689,-0.400,-0.070
16.692,-0.385,-0.070
16.694,-0.395,-0.075
16.697,-0.400,-0.090
16.700,-0.410,-0.095
16.703,-0.425,-0.095
16.706,-0.410,-0.080
16.708,-0.400,-0.065
16.711,-0.415,-0.070
16.714,-0.415,-0.080
16.717,-0.430,-0.100
16.719,-0.435,-0.085
16.722,-0.420,-0.080
16.725,-0.415,-0.065
16.728,-0.410,-0.070
16.731,-0.410,-0.085
16.733,-0.435,-0.095
16.736,-0.430,-0.085
16.739,-0.415,-0.080
16.742,-0.410,-0.070
16.744,-0.400,-0.075
16.747,-0.410,-0.090
16.750,-0.415,-0.095
16.753,-0.415,-0.100
16.756,-0.405,-0.070
16.758,-0.390,-0.060
16.761,-0.390,-0.065
16.764,-0.420,-0.090
16.767,-0.415,-0.100
16.769,-0.415,-0.095
16.772,-0.410,-0.080
16.775,-0.415,-0.075
16.778,-0.415,-0.080
16.781,-0.395,-0.095
16.783,-0.405,-0.095
16.786,-0.405,-0.100
16.789,-0.405,-0.075
16.792,-0.410,-0.070
16.794,-0.385,-0.090
16.797,-0.395,-0.095
16.800,-0.400,-0.100
16.803,-0.415,-0.085
16.806,-0.415,-0.080
16.808,-0.390,-0.075
16.811,-0.385,-0.065
16.814,-0.400,-0.100
16.817,-0.405,-0.100
16.819,-0.415,-0.085
16.822,-0.405,-0.080
16.825,-0.405,-0.065
16.828,-0.400,-0.075
16.831,-0.400,-0.095
16.833,-0.415,-0.105
16.836,-0.440,-0.105
16.839,-0.415,-0.075
16.842,-0.400,-0.060
16.844,-0.390,-0.080
16.847,-0.420,-0.085
16.850,-0.415,-0.100
16.853,-0.410,-0.105
16.856,-0.400,-0.090
16.858,-0.405,-0.080
16.861,-0.395,-0.080
16.864,-0.405,-0.095
16.867,-0.410,-0.110
16.869,-0.425,-0.100
16.872,-0.410,-0.095
16.875,-0.395,-0.075
16.878,-0.390,-0.080
16.881,-0.395,-0.095
16.883,-0.400,-0.100
16.886,-0.400,-0.095
16.889,-0.405,-0.080
16.892,-0.405,-0.070
16.894,-0.385,-0.080
16.897,-0.410,-0.100
16.900,-0.400,-0.095
16.903,-0.415,-0.090
16.906,-0.405,-0.085
16.908,-0.390,-0.070
16.911,-0.385,-0.075
16.914,-0.400,-0.090
16.917,-0.405,-0.100
16.919,-0.400,-0.080
16.922,-0.395,-0.085
16.925,-0.380,-0.075
16.928,-0.370,-0.065
16.931,-0.375,-0.075
16.933,-0.385,-0.080
16.936,-0.385,-0.060
16.939,-0.370,-0.040
16.942,-0.335,-0.030
16.944,-0.330,-0.050
16.947,-0.330,-0.075
16.950,-0.325,-0.090
16.953,-0.335,-0.085
16.956,-0.340,-0.100
16.958,-0.320,-0.100
16.961,-0.305,-0.110
16.964,-0.315,-0.125
16.967,-0.335,-0.125
16.969,-0.345,-0.110
16.972,-0.340,-0.095
16.975,-0.315,-0.080
16.978,-0.295,-0.095
16.981,-0.325,-0.100
16.983,-0.345,-0.100
16.986,-0.355,-0.095
16.989,-0.365,-0.085
16.992,-0.360,-0.075
16.994,-0.370,-0.080
16.997,-0.380,-0.090
17.000,-0.385,-0.115
17.003,-0.395,-0.105
17.006,-0.385,-0.080
17.008,-0.380,-0.070
17.011,-0.375,-0.080
17.014,-0.375,-0.085
17.017,-0.390,-0.115
17.019,-0.380,-0.090
17.022,-0.375,-0.080
17.025,-0.365,-0.070
17.028,-0.350,-0.070
17.031,-0.350,-0.075
