'Elapsed time','V5','MLII'
'seconds','mV','mV'
0.000,-0.045,0.015
0.003,-0.045,0.015
0.006,-0.045,0.015
0.008,-0.045,0.015
0.011,-0.045,0.015
0.014,-0.045,0.015
0.017,-0.045,0.015
0.019,-0.045,0.015
0.022,-0.045,0.015
0.025,-0.045,0.040
0.028,-0.010,0.065
0.031,0.000,0.070
0.033,-0.015,0.075
0.036,-0.025,0.080
0.039,-0.010,0.105
0.042,0.000,0.135
0.044,0.020,0.160
0.047,0.020,0.160
0.050,0.010,0.165
0.053,-0.005,0.170
0.056,0.000,0.205
0.058,-0.005,0.210
0.061,0.000,0.225
0.064,0.005,0.220
0.067,-0.010,0.210
0.069,-0.040,0.185
0.072,-0.045,0.190
0.075,-0.055,0.195
0.078,-0.045,0.195
0.081,-0.065,0.180
0.083,-0.075,0.145
0.086,-0.100,0.125
0.089,-0.110,0.115
0.092,-0.125,0.130
0.094,-0.105,0.125
0.097,-0.130,0.100
0.100,-0.145,0.075
0.103,-0.155,0.055
0.106,-0.175,0.060
0.108,-0.165,0.060
0.111,-0.165,0.060
0.114,-0.175,0.050
0.117,-0.180,0.020
0.119,-0.200,0.025
0.122,-0.225,0.020
0.125,-0.210,0.025
0.128,-0.205,0.040
0.131,-0.225,0.020
0.133,-0.220,0.015
0.136,-0.235,-0.005
0.139,-0.235,0.000
0.142,-0.225,0.015
0.144,-0.230,0.025
0.147,-0.215,0.020
0.150,-0.215,0.015
0.153,-0.255,-0.005
0.156,-0.245,0.000
0.158,-0.240,0.005
0.161,-0.240,0.015
0.164,-0.235,0.005
0.167,-0.245,0.000
0.169,-0.260,-0.005
0.172,-0.245,0.000
0.175,-0.245,0.010
0.178,-0.230,0.020
0.181,-0.230,-0.010
0.183,-0.230,-0.020
0.186,-0.245,-0.020
0.189,-0.250,-0.030
0.192,-0.235,0.000
0.194,-0.230,0.010
0.197,-0.235,-0.010
0.200,-0.235,-0.020
0.203,-0.260,-0.035
0.206,-0.270,-0.025
0.208,-0.255,-0.025
0.211,-0.230,-0.005
0.214,-0.235,-0.010
0.217,-0.230,-0.025
0.219,-0.255,-0.040
0.222,-0.255,-0.030
0.225,-0.255,-0.015
0.228,-0.240,-0.025
0.231,-0.235,-0.020
0.233,-0.250,-0.040
0.236,-0.260,-0.040
0.239,-0.260,-0.035
0.242,-0.260,-0.025
0.244,-0.240,-0.015
0.247,-0.225,-0.030
0.250,-0.235,-0.040
0.253,-0.255,-0.045
0.256,-0.255,-0.025
0.258,-0.245,-0.020
0.261,-0.225,-0.005
0.264,-0.235,-0.010
0.267,-0.235,-0.025
0.269,-0.250,-0.035
0.272,-0.260,-0.020
0.275,-0.240,-0.005
0.278,-0.215,-0.005
0.281,-0.220,-0.010
0.283,-0.235,-0.015
0.286,-0.245,-0.020
0.289,-0.235,-0.015
0.292,-0.235,0.000
0.294,-0.230,0.005
0.297,-0.225,-0.005
0.300,-0.230,-0.015
0.303,-0.245,-0.015
0.306,-0.255,-0.015
0.308,-0.250,0.010
0.311,-0.225,0.005
0.314,-0.230,0.000
0.317,-0.245,-0.025
0.319,-0.265,-0.020
0.322,-0.255,-0.015
0.325,-0.250,0.000
0.328,-0.245,0.005
0.331,-0.230,0.000
0.333,-0.240,-0.015
0.336,-0.270,-0.020
0.339,-0.270,-0.030
0.342,-0.250,0.000
0.344,-0.240,0.010
0.347,-0.245,0.000
0.350,-0.255,-0.015
0.353,-0.275,-0.020
0.356,-0.270,-0.025
0.358,-0.285,-0.010
0.361,-0.265,0.005
0.364,-0.255,0.000
0.367,-0.270,-0.015
0.369,-0.285,-0.020
0.372,-0.285,-0.020
0.375,-0.275,-0.005
0.378,-0.265,-0.005
0.381,-0.280,-0.015
0.383,-0.270,-0.025
0.386,-0.285,-0.035
0.389,-0.290,-0.015
0.392,-0.285,-0.015
0.394,-0.265,-0.010
0.397,-0.270,-0.015
0.400,-0.270,-0.020
0.403,-0.285,-0.030
0.406,-0.285,-0.040
0.408,-0.275,-0.030
0.411,-0.265,-0.020
0.414,-0.270,-0.020
0.417,-0.290,-0.030
0.419,-0.285,-0.040
0.422,-0.300,-0.030
0.425,-0.285,-0.025
0.428,-0.275,-0.020
0.431,-0.265,-0.030
0.433,-0.275,-0.035
0.436,-0.295,-0.035
0.439,-0.290,-0.035
0.442,-0.275,-0.030
0.444,-0.270,-0.015
0.447,-0.270,-0.025
0.450,-0.285,-0.040
0.453,-0.295,-0.055
0.456,-0.295,-0.030
0.458,-0.285,-0.030
0.461,-0.285,-0.015
0.464,-0.280,-0.030
0.467,-0.285,-0.045
0.469,-0.295,-0.045
0.472,-0.310,-0.040
0.475,-0.290,-0.040
0.478,-0.275,-0.015
0.481,-0.265,-0.030
0.483,-0.285,-0.040
0.486,-0.300,-0.045
0.489,-0.290,-0.030
0.492,-0.290,-0.020
0.494,-0.280,-0.015
0.497,-0.275,-0.030
0.500,-0.285,-0.045
0.503,-0.295,-0.045
0.506,-0.285,-0.030
0.508,-0.285,-0.035
0.511,-0.285,-0.025
0.514,-0.285,-0.035
0.517,-0.285,-0.030
0.519,-0.290,-0.055
0.522,-0.295,-0.040
0.525,-0.295,-0.025
0.528,-0.270,-0.015
0.531,-0.265,-0.015
0.533,-0.275,-0.030
0.536,-0.285,-0.045
0.539,-0.295,-0.040
0.542,-0.280,-0.030
0.544,-0.270,-0.025
0.547,-0.265,-0.030
0.550,-0.270,-0.035
0.553,-0.285,-0.050
0.556,-0.285,-0.055
0.558,-0.270,-0.040
0.561,-0.260,-0.020
0.564,-0.265,-0.025
0.567,-0.265,-0.040
0.569,-0.305,-0.050
0.572,-0.295,-0.030
0.575,-0.270,-0.020
0.578,-0.270,-0.015
0.581,-0.265,-0.015
0.583,-0.275,-0.050
0.586,-0.290,-0.050
0.589,-0.295,-0.025
0.592,-0.280,-0.015
0.594,-0.265,-0.010
0.597,-0.260,-0.020
0.600,-0.265,-0.030
0.603,-0.295,-0.030
0.606,-0.290,-0.030
0.608,-0.285,-0.020
0.611,-0.280,0.000
0.614,-0.245,-0.010
0.617,-0.270,-0.025
0.619,-0.265,-0.040
0.622,-0.270,-0.015
0.625,-0.255,-0.010
0.628,-0.240,0.005
0.631,-0.225,0.010
0.633,-0.235,0.005
0.636,-0.245,0.000
0.639,-0.240,0.010
0.642,-0.225,0.035
0.644,-0.195,0.035
0.647,-0.195,0.020
0.650,-0.195,0.025
0.653,-0.205,0.010
0.656,-0.205,0.035
0.658,-0.200,0.045
0.661,-0.180,0.055
0.664,-0.200,0.050
0.667,-0.220,0.025
0.669,-0.230,0.020
0.672,-0.230,0.020
0.675,-0.230,0.015
0.678,-0.235,0.025
0.681,-0.240,0.015
0.683,-0.245,0.005
0.686,-0.255,-0.005
0.689,-0.260,0.015
0.692,-0.245,0.030
0.694,-0.230,0.030
0.697,-0.240,0.035
0.700,-0.245,0.030
0.703,-0.265,0.025
0.706,-0.240,0.035
0.708,-0.225,0.055
0.711,-0.225,0.060
0.714,-0.220,0.030
0.717,-0.225,0.005
0.719,-0.260,-0.005
0.722,-0.265,-0.005
0.725,-0.280,0.005
0.728,-0.275,0.020
0.731,-0.285,0.005
0.733,-0.300,-0.005
0.736,-0.290,-0.005
0.739,-0.290,-0.015
0.742,-0.280,-0.005
0.744,-0.260,0.005
0.747,-0.260,-0.005
0.750,-0.300,-0.020
0.753,-0.295,-0.020
0.756,-0.305,-0.015
0.758,-0.295,-0.005
0.761,-0.285,0.000
0.764,-0.275,-0.015
0.767,-0.295,-0.025
0.769,-0.310,-0.030
0.772,-0.305,-0.015
0.775,-0.285,-0.005
0.778,-0.275,0.005
0.781,-0.285,-0.005
0.783,-0.290,-0.025
0.786,-0.290,-0.030
0.789,-0.315,-0.015
0.792,-0.290,-0.010
0.794,-0.280,0.005
0.797,-0.270,0.000
0.800,-0.290,-0.005
0.803,-0.295,-0.020
0.806,-0.300,-0.005
0.808,-0.295,0.015
0.811,-0.280,0.025
0.814,-0.280,0.025
0.817,-0.275,0.020
0.819,-0.295,0.030
0.822,-0.290,0.065
0.825,-0.255,0.110
0.828,-0.240,0.140
0.831,-0.215,0.190
0.833,-0.195,0.235
0.836,-0.175,0.285
0.839,-0.165,0.355
0.842,-0.175,0.485
0.844,-0.235,0.635
0.847,-0.305,0.800
0.850,-0.350,0.965
0.853,-0.405,1.125
0.856,-0.485,1.325
0.858,-0.540,1.535
0.861,-0.545,1.760
0.864,-0.470,1.980
0.867,-0.340,2.050
0.869,-0.180,1.880
0.872,-0.060,1.400
0.875,-0.045,0.770
0.878,-0.215,0.280
0.881,-0.515,0.010
0.883,-0.725,-0.070
0.886,-0.770,-0.055
0.889,-0.690,-0.025
0.892,-0.530,-0.005
0.894,-0.385,0.000
0.897,-0.305,-0.005
0.900,-0.290,-0.040
0.903,-0.285,-0.065
0.906,-0.275,-0.075
0.908,-0.270,-0.060
0.911,-0.245,-0.070
0.914,-0.250,-0.070
0.917,-0.250,-0.090
0.919,-0.245,-0.110
0.922,-0.235,-0.095
0.925,-0.225,-0.090
0.928,-0.200,-0.075
0.931,-0.210,-0.080
0.933,-0.200,-0.095
0.936,-0.220,-0.105
0.939,-0.215,-0.080
0.942,-0.210,-0.090
0.944,-0.190,-0.085
0.947,-0.190,-0.090
0.950,-0.190,-0.105
0.953,-0.205,-0.105
0.956,-0.205,-0.105
0.958,-0.200,-0.090
0.961,-0.175,-0.085
0.964,-0.175,-0.100
0.967,-0.185,-0.125
0.969,-0.205,-0.135
0.972,-0.200,-0.115
0.975,-0.190,-0.110
0.978,-0.165,-0.095
0.981,-0.170,-0.120
0.983,-0.180,-0.145
0.986,-0.195,-0.125
0.989,-0.195,-0.120
0.992,-0.180,-0.125
0.994,-0.180,-0.105
0.997,-0.170,-0.115
1.000,-0.175,-0.135
1.003,-0.185,-0.145
1.006,-0.180,-0.125
1.008,-0.170,-0.125
1.011,-0.160,-0.115
1.014,-0.160,-0.115
1.017,-0.185,-0.130
1.019,-0.170,-0.130
1.022,-0.180,-0.120
1.025,-0.165,-0.125
1.028,-0.140,-0.110
1.031,-0.130,-0.115
1.033,-0.125,-0.125
1.036,-0.140,-0.125
1.039,-0.145,-0.105
1.042,-0.135,-0.105
1.044,-0.130,-0.095
1.047,-0.115,-0.105
1.050,-0.125,-0.125
1.053,-0.120,-0.115
1.056,-0.120,-0.110
1.058,-0.120,-0.095
1.061,-0.110,-0.085
1.064,-0.095,-0.085
1.067,-0.100,-0.105
1.069,-0.105,-0.100
1.072,-0.110,-0.095
1.075,-0.100,-0.060
1.078,-0.075,-0.060
1.081,-0.075,-0.055
1.083,-0.085,-0.060
1.086,-0.070,-0.070
1.089,-0.080,-0.040
1.092,-0.060,-0.025
1.094,-0.040,-0.005
1.097,-0.030,0.000
1.100,-0.035,-0.005
1.103,-0.040,0.005
1.106,-0.030,0.030
1.108,-0.010,0.055
1.111,-0.005,0.095
1.114,0.005,0.090
1.117,0.005,0.095
1.119,-0.005,0.100
1.122,-0.005,0.130
1.125,0.010,0.160
1.128,0.025,0.190
1.131,0.025,0.190
1.133,0.000,0.180
1.136,-0.010,0.185
1.139,-0.010,0.205
1.142,-0.020,0.230
1.144,0.010,0.240
1.147,0.010,0.235
1.150,-0.010,0.220
1.153,-0.030,0.215
1.156,-0.035,0.215
1.158,-0.040,0.215
1.161,-0.035,0.225
1.164,-0.055,0.210
1.167,-0.065,0.180
1.169,-0.080,0.155
1.172,-0.100,0.160
1.175,-0.095,0.160
1.178,-0.095,0.155
1.181,-0.115,0.135
1.183,-0.130,0.110
1.186,-0.150,0.095
1.189,-0.165,0.090
1.192,-0.165,0.100
1.194,-0.165,0.090
1.197,-0.180,0.075
1.200,-0.180,0.065
1.203,-0.210,0.040
1.206,-0.200,0.055
1.208,-0.200,0.060
1.211,-0.190,0.070
1.214,-0.195,0.050
1.217,-0.215,0.035
1.219,-0.220,0.025
1.222,-0.220,0.040
1.225,-0.215,0.045
1.228,-0.210,0.045
1.231,-0.215,0.035
1.233,-0.225,0.020
1.236,-0.230,0.015
1.239,-0.250,0.015
1.242,-0.235,0.030
1.244,-0.220,0.050
1.247,-0.225,0.030
1.250,-0.235,0.020
1.253,-0.245,0.010
1.256,-0.245,0.025
1.258,-0.240,0.035
1.261,-0.225,0.025
1.264,-0.220,0.015
1.267,-0.245,0.015
1.269,-0.265,0.000
1.272,-0.245,0.015
1.275,-0.245,0.015
1.278,-0.235,0.020
1.281,-0.235,0.010
1.283,-0.240,-0.005
1.286,-0.265,-0.005
1.289,-0.265,-0.005
1.292,-0.255,0.010
1.294,-0.235,0.030
1.297,-0.225,0.005
1.300,-0.245,-0.010
1.303,-0.260,-0.005
1.306,-0.260,-0.015
1.308,-0.255,0.000
1.311,-0.240,0.005
1.314,-0.245,0.000
1.317,-0.250,-0.020
1.319,-0.265,-0.020
1.322,-0.255,-0.010
1.325,-0.255,0.015
1.328,-0.245,0.015
1.331,-0.235,-0.005
1.333,-0.250,-0.005
1.336,-0.265,-0.010
1.339,-0.260,-0.010
1.342,-0.250,0.010
1.344,-0.235,0.020
1.347,-0.230,0.010
1.350,-0.240,0.000
1.353,-0.255,-0.010
1.356,-0.250,0.000
1.358,-0.240,0.015
1.361,-0.220,0.015
1.364,-0.220,0.005
1.367,-0.240,0.000
1.369,-0.240,0.000
1.372,-0.240,0.015
1.375,-0.240,0.025
1.378,-0.225,0.020
1.381,-0.225,0.010
1.383,-0.235,-0.005
1.386,-0.235,0.000
1.389,-0.245,0.010
1.392,-0.230,0.030
1.394,-0.220,0.030
1.397,-0.215,0.020
1.400,-0.230,0.015
1.403,-0.240,0.010
1.406,-0.255,0.010
1.408,-0.245,0.035
1.411,-0.220,0.035
1.414,-0.230,0.030
1.417,-0.240,0.020
1.419,-0.255,0.005
1.422,-0.260,0.015
1.425,-0.245,0.025
1.428,-0.240,0.030
1.431,-0.235,0.020
1.433,-0.255,0.005
1.436,-0.265,-0.005
1.439,-0.270,0.005
1.442,-0.250,0.010
1.444,-0.235,0.020
1.447,-0.240,0.015
1.450,-0.250,0.000
1.453,-0.260,-0.010
1.456,-0.260,-0.005
1.458,-0.250,0.010
1.461,-0.240,0.030
1.464,-0.240,0.000
1.467,-0.255,0.005
1.469,-0.265,-0.015
1.472,-0.270,-0.005
1.475,-0.265,0.015
1.478,-0.250,0.030
1.481,-0.255,0.010
1.483,-0.280,-0.005
1.486,-0.290,-0.020
1.489,-0.280,-0.005
1.492,-0.280,0.000
1.494,-0.260,0.015
1.497,-0.265,0.005
1.500,-0.275,-0.010
1.503,-0.285,-0.015
1.506,-0.285,-0.010
1.508,-0.265,0.000
1.511,-0.250,0.015
1.514,-0.255,-0.005
1.517,-0.270,-0.020
1.519,-0.280,-0.030
1.522,-0.280,-0.005
1.525,-0.265,0.000
1.528,-0.245,-0.005
1.531,-0.260,0.000
1.533,-0.265,-0.005
1.536,-0.270,-0.015
1.539,-0.270,-0.010
1.542,-0.260,-0.010
1.544,-0.255,0.005
1.547,-0.250,-0.005
1.550,-0.270,-0.010
1.553,-0.270,-0.010
1.556,-0.280,-0.005
1.558,-0.270,-0.005
1.561,-0.265,-0.005
1.564,-0.260,-0.010
1.567,-0.285,-0.025
1.569,-0.285,-0.020
1.572,-0.285,-0.020
1.575,-0.285,-0.010
1.578,-0.260,-0.005
1.581,-0.275,-0.005
1.583,-0.275,-0.020
1.586,-0.280,-0.030
1.589,-0.275,-0.015
1.592,-0.275,-0.010
1.594,-0.265,0.005
1.597,-0.250,0.000
1.600,-0.270,-0.020
1.603,-0.275,-0.010
1.606,-0.290,-0.020
1.608,-0.270,0.000
1.611,-0.265,0.000
1.614,-0.265,-0.005
1.617,-0.270,-0.020
1.619,-0.295,-0.030
1.622,-0.295,-0.015
1.625,-0.285,0.000
1.628,-0.265,0.000
1.631,-0.260,-0.005
1.633,-0.270,-0.010
1.636,-0.285,-0.025
1.639,-0.310,-0.025
1.642,-0.290,-0.015
1.644,-0.270,-0.005
1.647,-0.270,-0.005
1.650,-0.280,-0.025
1.653,-0.295,-0.030
1.656,-0.295,-0.010
1.658,-0.285,0.005
1.661,-0.275,-0.005
1.664,-0.270,-0.010
1.667,-0.280,-0.025
1.669,-0.285,-0.035
1.672,-0.300,-0.010
1.675,-0.270,0.000
1.678,-0.275,0.000
1.681,-0.280,-0.005
1.683,-0.275,-0.025
1.686,-0.280,-0.030
1.689,-0.285,-0.025
1.692,-0.270,-0.010
1.694,-0.255,0.000
1.697,-0.255,-0.005
1.700,-0.265,-0.020
1.703,-0.270,-0.020
1.706,-0.290,-0.020
1.708,-0.260,0.000
1.711,-0.245,0.000
1.714,-0.255,-0.005
1.717,-0.265,-0.025
1.719,-0.285,-0.030
1.722,-0.285,-0.020
1.725,-0.265,-0.005
1.728,-0.245,0.010
1.731,-0.255,-0.005
1.733,-0.270,-0.015
1.736,-0.275,-0.030
1.739,-0.285,-0.005
1.742,-0.270,-0.010
1.744,-0.255,0.000
1.747,-0.250,0.000
1.750,-0.260,-0.015
1.753,-0.270,-0.020
1.756,-0.270,0.005
1.758,-0.260,0.005
1.761,-0.230,0.000
1.764,-0.240,0.000
1.767,-0.245,-0.010
1.769,-0.245,-0.010
1.772,-0.240,0.025
1.775,-0.215,0.025
1.778,-0.195,0.040
1.781,-0.200,0.040
1.783,-0.210,0.020
1.786,-0.210,0.015
1.789,-0.205,0.030
1.792,-0.195,0.045
1.794,-0.180,0.050
1.797,-0.175,0.060
1.800,-0.175,0.045
1.803,-0.190,0.030
1.806,-0.200,0.050
1.808,-0.195,0.055
1.811,-0.185,0.070
1.814,-0.185,0.045
1.817,-0.215,0.015
1.819,-0.220,0.000
1.822,-0.235,0.025
1.825,-0.230,0.025
1.828,-0.220,0.025
1.831,-0.225,0.040
1.833,-0.240,0.030
1.836,-0.245,0.020
1.839,-0.235,0.030
1.842,-0.245,0.050
1.844,-0.210,0.055
1.847,-0.220,0.055
1.850,-0.230,0.030
1.853,-0.240,0.025
1.856,-0.235,0.040
1.858,-0.225,0.045
1.861,-0.210,0.035
1.864,-0.210,0.010
1.867,-0.225,-0.015
1.869,-0.245,-0.010
1.872,-0.280,-0.005
1.875,-0.270,0.010
1.878,-0.260,0.010
1.881,-0.275,0.000
1.883,-0.280,-0.005
1.886,-0.285,-0.010
1.889,-0.280,0.005
1.892,-0.265,0.010
1.894,-0.260,0.000
1.897,-0.255,0.000
1.900,-0.280,-0.015
1.903,-0.275,-0.025
1.906,-0.280,-0.015
1.908,-0.265,0.000
1.911,-0.255,0.000
1.914,-0.260,-0.015
1.917,-0.275,-0.010
1.919,-0.280,-0.010
1.922,-0.280,-0.005
1.925,-0.270,0.000
1.928,-0.250,0.010
1.931,-0.255,-0.010
1.933,-0.270,-0.025
1.936,-0.285,-0.020
1.939,-0.285,-0.010
1.942,-0.270,0.010
1.944,-0.250,0.005
1.947,-0.250,0.000
1.950,-0.265,0.000
1.953,-0.270,-0.015
1.956,-0.275,-0.015
1.958,-0.260,0.015
1.961,-0.255,0.025
1.964,-0.245,0.020
1.967,-0.245,0.015
1.969,-0.245,0.035
1.972,-0.240,0.080
1.975,-0.225,0.125
1.978,-0.200,0.155
1.981,-0.180,0.210
1.983,-0.170,0.240
1.986,-0.150,0.300
1.989,-0.140,0.385
1.992,-0.165,0.490
1.994,-0.215,0.625
1.997,-0.250,0.765
2.000,-0.305,0.895
2.003,-0.355,1.035
2.006,-0.405,1.200
2.008,-0.460,1.350
2.011,-0.505,1.515
2.014,-0.505,1.685
2.017,-0.460,1.865
2.019,-0.405,2.015
2.022,-0.295,2.030
2.025,-0.150,1.915
2.028,-0.025,1.625
2.031,0.025,1.150
2.033,-0.035,0.695
2.036,-0.205,0.335
2.039,-0.430,0.110
2.042,-0.600,0.005
2.044,-0.670,-0.045
2.047,-0.675,-0.065
2.050,-0.630,-0.070
2.053,-0.585,-0.045
2.056,-0.500,-0.030
2.058,-0.365,-0.015
2.061,-0.275,-0.015
2.064,-0.260,-0.030
2.067,-0.250,-0.065
2.069,-0.250,-0.080
2.072,-0.240,-0.085
2.075,-0.230,-0.090
2.078,-0.205,-0.090
2.081,-0.210,-0.090
2.083,-0.210,-0.110
2.086,-0.230,-0.120
2.089,-0.215,-0.100
2.092,-0.195,-0.110
2.094,-0.180,-0.100
2.097,-0.180,-0.115
2.100,-0.175,-0.115
2.103,-0.185,-0.120
2.106,-0.185,-0.110
2.108,-0.165,-0.095
2.111,-0.155,-0.105
2.114,-0.155,-0.115
2.117,-0.165,-0.135
2.119,-0.170,-0.135
2.122,-0.170,-0.125
2.125,-0.155,-0.110
2.128,-0.155,-0.115
2.131,-0.130,-0.120
2.133,-0.155,-0.125
2.136,-0.165,-0.135
2.139,-0.170,-0.140
2.142,-0.150,-0.120
2.144,-0.130,-0.125
2.147,-0.140,-0.140
2.150,-0.150,-0.150
2.153,-0.165,-0.160
2.156,-0.165,-0.145
2.158,-0.155,-0.130
2.161,-0.140,-0.135
2.164,-0.140,-0.140
2.167,-0.145,-0.170
2.169,-0.150,-0.165
2.172,-0.155,-0.160
2.175,-0.140,-0.150
2.178,-0.120,-0.140
2.181,-0.130,-0.150
2.183,-0.135,-0.165
2.186,-0.135,-0.165
2.189,-0.155,-0.160
2.192,-0.140,-0.150
2.194,-0.110,-0.150
2.197,-0.130,-0.155
2.200,-0.135,-0.165
2.203,-0.125,-0.160
2.206,-0.125,-0.150
2.208,-0.115,-0.140
2.211,-0.100,-0.140
2.214,-0.105,-0.150
2.217,-0.105,-0.165
2.219,-0.120,-0.170
2.222,-0.115,-0.155
2.225,-0.115,-0.130
2.228,-0.095,-0.120
2.231,-0.080,-0.135
2.233,-0.110,-0.145
2.236,-0.105,-0.155
2.239,-0.110,-0.140
2.242,-0.090,-0.120
2.244,-0.070,-0.130
2.247,-0.065,-0.135
2.250,-0.075,-0.140
2.253,-0.080,-0.135
2.256,-0.085,-0.130
2.258,-0.055,-0.105
2.261,-0.045,-0.105
2.264,-0.040,-0.105
2.267,-0.040,-0.110
2.269,-0.040,-0.110
2.272,-0.050,-0.105
2.275,-0.020,-0.070
2.278,-0.005,-0.060
2.281,0.000,-0.060
2.283,-0.005,-0.065
2.286,-0.015,-0.050
2.289,-0.010,-0.030
2.292,0.000,0.000
2.294,0.025,0.010
2.297,0.025,0.015
2.300,0.020,0.010
2.303,0.010,0.020
2.306,0.010,0.050
2.308,0.030,0.065
2.311,0.050,0.085
2.314,0.040,0.100
2.317,0.030,0.100
2.319,0.025,0.115
2.322,0.040,0.135
2.325,0.060,0.165
2.328,0.080,0.170
2.331,0.070,0.185
2.333,0.055,0.180
2.336,0.035,0.175
2.339,0.050,0.200
2.342,0.045,0.200
2.344,0.045,0.220
2.347,0.035,0.210
2.350,0.020,0.195
2.353,-0.005,0.180
2.356,-0.015,0.180
2.358,-0.005,0.185
2.361,-0.005,0.165
2.364,-0.020,0.150
2.367,-0.035,0.135
2.369,-0.065,0.105
2.372,-0.085,0.110
2.375,-0.080,0.115
2.378,-0.070,0.095
2.381,-0.095,0.085
2.383,-0.110,0.060
2.386,-0.140,0.050
2.389,-0.135,0.040
2.392,-0.130,0.055
2.394,-0.125,0.055
2.397,-0.140,0.045
2.400,-0.150,0.030
2.403,-0.150,0.015
2.406,-0.155,0.030
2.408,-0.145,0.035
2.411,-0.150,0.030
2.414,-0.145,0.025
2.417,-0.175,0.005
2.419,-0.170,0.010
2.422,-0.175,0.015
2.425,-0.155,0.025
2.428,-0.150,0.015
2.431,-0.160,0.005
2.433,-0.165,-0.005
2.436,-0.175,-0.005
2.439,-0.185,0.000
2.442,-0.180,0.015
2.444,-0.170,0.015
2.447,-0.160,0.015
2.450,-0.185,-0.010
2.453,-0.190,-0.015
2.456,-0.200,-0.010
2.458,-0.200,-0.015
2.461,-0.175,0.000
2.464,-0.185,-0.010
2.467,-0.195,-0.020
2.469,-0.200,-0.015
2.472,-0.200,-0.020
2.475,-0.175,0.005
2.478,-0.170,-0.005
2.481,-0.195,-0.015
2.483,-0.185,-0.040
2.486,-0.190,-0.030
2.489,-0.195,-0.025
2.492,-0.195,-0.010
2.494,-0.170,-0.010
2.497,-0.175,-0.025
2.500,-0.180,-0.035
2.503,-0.190,-0.030
2.506,-0.195,-0.035
2.508,-0.195,-0.020
2.511,-0.190,-0.020
2.514,-0.185,-0.025
2.517,-0.195,-0.040
2.519,-0.215,-0.055
2.522,-0.215,-0.035
2.525,-0.205,-0.015
2.528,-0.190,-0.030
2.531,-0.205,-0.035
2.533,-0.215,-0.055
2.536,-0.220,-0.040
2.539,-0.215,-0.030
2.542,-0.205,-0.020
2.544,-0.185,-0.010
2.547,-0.190,-0.015
2.550,-0.195,-0.030
2.553,-0.200,-0.035
2.556,-0.215,-0.030
2.558,-0.205,-0.020
2.561,-0.190,-0.005
2.564,-0.185,-0.020
2.567,-0.195,-0.040
2.569,-0.200,-0.030
2.572,-0.210,-0.025
2.575,-0.190,0.000
2.578,-0.170,-0.010
2.581,-0.180,-0.015
2.583,-0.200,-0.025
2.586,-0.200,-0.025
2.589,-0.210,-0.010
2.592,-0.215,-0.005
2.594,-0.185,0.000
2.597,-0.195,-0.005
2.600,-0.200,-0.025
2.603,-0.225,-0.020
2.606,-0.225,-0.010
2.608,-0.215,-0.010
2.611,-0.205,-0.005
2.614,-0.210,0.000
2.617,-0.230,-0.015
2.619,-0.235,-0.025
2.622,-0.230,-0.015
2.625,-0.210,0.000
2.628,-0.205,-0.010
2.631,-0.210,-0.015
2.633,-0.230,-0.020
2.636,-0.240,-0.025
2.639,-0.235,-0.015
2.642,-0.220,0.000
2.644,-0.205,0.000
2.647,-0.215,-0.020
2.650,-0.220,-0.030
2.653,-0.230,-0.035
2.656,-0.245,-0.020
2.658,-0.225,-0.010
2.661,-0.225,-0.005
2.664,-0.230,-0.010
2.667,-0.235,-0.040
2.669,-0.245,-0.040
2.672,-0.255,-0.040
2.675,-0.255,-0.025
2.678,-0.245,-0.015
2.681,-0.250,-0.025
2.683,-0.255,-0.040
2.686,-0.270,-0.035
2.689,-0.265,-0.025
2.692,-0.255,-0.015
2.694,-0.235,-0.025
2.697,-0.245,-0.030
2.700,-0.250,-0.050
2.703,-0.265,-0.045
2.706,-0.260,-0.035
2.708,-0.250,-0.025
2.711,-0.250,-0.030
2.714,-0.260,-0.020
2.717,-0.270,-0.055
2.719,-0.270,-0.055
2.722,-0.275,-0.040
2.725,-0.255,-0.030
2.728,-0.245,-0.035
2.731,-0.255,-0.050
2.733,-0.265,-0.040
2.736,-0.290,-0.050
2.739,-0.280,-0.035
2.742,-0.270,-0.015
2.744,-0.260,-0.025
2.747,-0.270,-0.035
2.750,-0.280,-0.050
2.753,-0.285,-0.045
2.756,-0.295,-0.040
2.758,-0.270,-0.015
2.761,-0.255,-0.020
2.764,-0.270,-0.025
2.767,-0.275,-0.040
2.769,-0.290,-0.055
2.772,-0.280,-0.040
2.775,-0.245,-0.040
2.778,-0.270,-0.040
2.781,-0.285,-0.045
2.783,-0.280,-0.050
2.786,-0.290,-0.040
2.789,-0.265,-0.025
2.792,-0.255,-0.030
2.794,-0.260,-0.025
2.797,-0.275,-0.040
2.800,-0.290,-0.040
2.803,-0.275,-0.040
2.806,-0.280,-0.010
2.808,-0.275,-0.015
2.811,-0.265,-0.030
2.814,-0.275,-0.045
2.817,-0.290,-0.040
2.819,-0.290,-0.030
2.822,-0.290,-0.020
2.825,-0.270,-0.025
2.828,-0.265,-0.030
2.831,-0.290,-0.035
2.833,-0.295,-0.045
2.836,-0.290,-0.025
2.839,-0.280,-0.005
2.842,-0.260,-0.010
2.844,-0.265,-0.025
2.847,-0.275,-0.035
2.850,-0.300,-0.030
2.853,-0.290,-0.030
2.856,-0.270,-0.020
2.858,-0.270,-0.015
2.861,-0.275,-0.035
2.864,-0.280,-0.040
2.867,-0.285,-0.040
2.869,-0.305,-0.025
2.872,-0.270,-0.005
2.875,-0.250,-0.015
2.878,-0.265,-0.020
2.881,-0.280,-0.040
2.883,-0.295,-0.050
2.886,-0.290,-0.040
2.889,-0.285,-0.015
2.892,-0.270,-0.010
2.894,-0.260,-0.020
2.897,-0.280,-0.025
2.900,-0.295,-0.045
2.903,-0.290,-0.030
2.906,-0.280,-0.010
2.908,-0.250,0.000
2.911,-0.265,-0.015
2.914,-0.270,-0.030
2.917,-0.280,-0.020
2.919,-0.280,-0.015
2.922,-0.250,-0.005
2.925,-0.235,-0.005
2.928,-0.250,0.000
2.931,-0.255,-0.010
2.933,-0.250,-0.005
2.936,-0.240,0.015
2.939,-0.220,0.020
2.942,-0.200,0.025
2.944,-0.235,0.030
2.947,-0.225,0.010
2.950,-0.245,0.005
2.953,-0.235,0.030
2.956,-0.215,0.040
2.958,-0.195,0.045
2.961,-0.190,0.040
2.964,-0.200,0.035
2.967,-0.225,0.030
2.969,-0.225,0.035
2.972,-0.230,0.045
2.975,-0.215,0.035
2.978,-0.235,0.015
2.981,-0.240,0.015
2.983,-0.255,0.005
2.986,-0.265,0.020
2.989,-0.250,0.035
2.992,-0.245,0.040
2.994,-0.230,0.015
2.997,-0.240,0.020
3.000,-0.255,0.015
3.003,-0.240,0.040
3.006,-0.245,0.050
3.008,-0.220,0.040
3.011,-0.225,0.040
3.014,-0.225,0.025
3.017,-0.230,0.005
3.019,-0.235,0.000
3.022,-0.235,0.005
3.025,-0.245,0.005
3.028,-0.270,-0.020
3.031,-0.285,-0.020
3.033,-0.305,-0.020
3.036,-0.305,-0.015
3.039,-0.280,0.000
3.042,-0.270,-0.005
3.044,-0.280,-0.005
3.047,-0.280,-0.015
3.050,-0.295,-0.030
3.053,-0.290,-0.015
3.056,-0.280,0.000
3.058,-0.270,0.000
3.061,-0.285,-0.010
3.064,-0.290,-0.025
3.067,-0.290,-0.030
3.069,-0.285,-0.015
3.072,-0.285,-0.005
3.075,-0.270,-0.005
3.078,-0.260,-0.005
3.081,-0.270,-0.020
3.083,-0.290,-0.015
3.086,-0.290,-0.015
3.089,-0.280,-0.010
3.092,-0.260,0.005
3.094,-0.270,-0.025
3.097,-0.280,-0.025
3.100,-0.295,-0.030
3.103,-0.285,-0.015
3.106,-0.280,0.000
3.108,-0.260,-0.005
3.111,-0.285,-0.005
3.114,-0.280,-0.025
3.117,-0.280,-0.020
3.119,-0.275,-0.015
3.122,-0.260,0.025
3.125,-0.245,0.030
3.128,-0.250,0.040
3.131,-0.255,0.050
3.133,-0.245,0.075
3.136,-0.230,0.120
3.139,-0.200,0.190
3.142,-0.170,0.230
3.144,-0.140,0.275
3.147,-0.150,0.310
3.150,-0.165,0.380
3.153,-0.235,0.515
3.156,-0.290,0.675
3.158,-0.310,0.815
3.161,-0.365,0.950
3.164,-0.425,1.075
3.167,-0.525,1.205
3.169,-0.590,1.365
3.172,-0.595,1.560
3.175,-0.545,1.775
3.178,-0.445,1.925
3.181,-0.335,1.940
3.183,-0.215,1.825
3.186,-0.095,1.545
3.189,-0.025,1.155
3.192,-0.035,0.730
3.194,-0.170,0.375
3.197,-0.375,0.130
3.200,-0.590,0.000
3.203,-0.680,-0.050
3.206,-0.685,-0.060
3.208,-0.645,-0.050
3.211,-0.600,-0.035
3.214,-0.535,-0.045
3.217,-0.445,-0.050
3.219,-0.360,-0.045
3.222,-0.300,-0.045
3.225,-0.270,-0.025
3.228,-0.270,-0.055
3.231,-0.270,-0.075
3.233,-0.265,-0.090
3.236,-0.260,-0.105
3.239,-0.245,-0.085
3.242,-0.235,-0.090
3.244,-0.235,-0.110
3.247,-0.250,-0.110
3.250,-0.245,-0.115
3.253,-0.230,-0.110
3.256,-0.240,-0.085
3.258,-0.200,-0.085
3.261,-0.200,-0.120
3.264,-0.215,-0.120
3.267,-0.215,-0.130
3.269,-0.230,-0.110
3.272,-0.195,-0.110
3.275,-0.190,-0.100
3.278,-0.180,-0.110
3.281,-0.200,-0.125
3.283,-0.215,-0.125
3.286,-0.195,-0.120
3.289,-0.185,-0.120
3.292,-0.175,-0.120
3.294,-0.165,-0.110
3.297,-0.185,-0.130
3.300,-0.205,-0.145
3.303,-0.185,-0.130
3.306,-0.180,-0.120
3.308,-0.170,-0.115
3.311,-0.165,-0.135
3.314,-0.180,-0.145
3.317,-0.195,-0.150
3.319,-0.195,-0.130
3.322,-0.175,-0.120
3.325,-0.160,-0.125
3.328,-0.170,-0.140
3.331,-0.165,-0.145
3.333,-0.190,-0.145
3.336,-0.180,-0.145
3.339,-0.170,-0.120
3.342,-0.165,-0.135
3.344,-0.145,-0.130
3.347,-0.170,-0.150
3.350,-0.185,-0.145
3.353,-0.175,-0.135
3.356,-0.170,-0.120
3.358,-0.150,-0.130
3.361,-0.150,-0.135
3.364,-0.160,-0.150
3.367,-0.170,-0.155
3.369,-0.160,-0.145
3.372,-0.155,-0.135
3.375,-0.130,-0.115
3.378,-0.135,-0.125
3.381,-0.150,-0.145
3.383,-0.145,-0.150
3.386,-0.150,-0.145
3.389,-0.130,-0.130
3.392,-0.125,-0.120
3.394,-0.120,-0.120
3.397,-0.125,-0.135
3.400,-0.130,-0.130
3.403,-0.130,-0.115
3.406,-0.125,-0.100
3.408,-0.100,-0.105
3.411,-0.100,-0.115
3.414,-0.110,-0.120
3.417,-0.120,-0.120
3.419,-0.110,-0.100
3.422,-0.095,-0.090
3.425,-0.085,-0.080
3.428,-0.080,-0.085
3.431,-0.085,-0.080
3.433,-0.090,-0.080
3.436,-0.080,-0.070
3.439,-0.065,-0.055
3.442,-0.050,-0.050
3.444,-0.040,-0.050
3.447,-0.040,-0.045
3.450,-0.055,-0.030
3.453,-0.040,-0.020
3.456,-0.025,0.005
3.458,-0.020,0.015
3.461,-0.020,0.020
3.464,-0.015,0.030
3.467,-0.015,0.035
3.469,-0.010,0.060
3.472,-0.005,0.090
3.475,0.020,0.105
3.478,0.005,0.100
3.481,-0.015,0.120
3.483,-0.020,0.120
3.486,-0.010,0.150
3.489,0.000,0.180
3.492,0.005,0.195
3.494,0.010,0.185
3.497,0.005,0.190
3.500,-0.015,0.195
3.503,-0.005,0.210
3.506,0.000,0.220
3.508,-0.015,0.210
3.511,-0.020,0.215
3.514,-0.035,0.195
3.517,-0.065,0.180
3.519,-0.080,0.200
3.522,-0.070,0.180
3.525,-0.070,0.175
3.528,-0.080,0.160
3.531,-0.090,0.135
3.533,-0.120,0.120
3.536,-0.125,0.130
3.539,-0.115,0.125
3.542,-0.115,0.125
3.544,-0.135,0.100
3.547,-0.150,0.075
3.550,-0.180,0.065
3.553,-0.185,0.070
3.556,-0.170,0.080
3.558,-0.165,0.080
3.561,-0.170,0.065
3.564,-0.185,0.040
3.567,-0.195,0.045
3.569,-0.195,0.050
3.572,-0.185,0.055
3.575,-0.185,0.055
3.578,-0.180,0.040
3.581,-0.205,0.020
3.583,-0.225,0.035
3.586,-0.215,0.050
3.589,-0.195,0.050
3.592,-0.185,0.055
3.594,-0.190,0.030
3.597,-0.210,0.015
3.600,-0.230,0.015
3.603,-0.220,0.025
3.606,-0.205,0.050
3.608,-0.190,0.040
3.611,-0.195,0.035
3.614,-0.215,0.015
3.617,-0.220,0.015
3.619,-0.230,0.015
3.622,-0.225,0.025
3.625,-0.210,0.025
3.628,-0.215,0.015
3.631,-0.220,0.010
3.633,-0.225,0.000
3.636,-0.225,0.000
3.639,-0.215,0.025
3.642,-0.210,0.015
3.644,-0.220,0.005
3.647,-0.220,-0.015
3.650,-0.240,-0.025
3.653,-0.235,0.005
3.656,-0.235,0.010
3.658,-0.190,0.020
3.661,-0.215,0.000
3.664,-0.220,-0.010
3.667,-0.235,-0.030
3.669,-0.210,-0.020
3.672,-0.225,-0.005
3.675,-0.220,0.000
3.678,-0.200,-0.015
3.681,-0.220,-0.025
3.683,-0.235,-0.010
3.686,-0.225,-0.010
3.689,-0.215,0.005
3.692,-0.195,-0.005
3.694,-0.185,-0.020
3.697,-0.205,-0.015
3.700,-0.220,-0.020
3.703,-0.210,-0.010
3.706,-0.205,0.010
3.708,-0.185,0.020
3.711,-0.195,0.010
3.714,-0.210,-0.005
3.717,-0.225,-0.005
3.719,-0.220,0.000
3.722,-0.220,0.010
3.725,-0.205,0.020
3.728,-0.200,0.015
3.731,-0.210,0.000
3.733,-0.210,-0.005
3.736,-0.210,0.005
3.739,-0.205,0.025
3.742,-0.190,0.020
3.744,-0.200,0.010
3.747,-0.210,-0.005
3.750,-0.225,-0.005
3.753,-0.220,0.010
3.756,-0.205,0.030
3.758,-0.200,0.020
3.761,-0.195,0.010
3.764,-0.215,-0.010
3.767,-0.220,0.005
3.769,-0.240,-0.005
3.772,-0.230,0.010
3.775,-0.215,0.015
3.778,-0.215,0.000
3.781,-0.235,-0.010
3.783,-0.245,-0.005
3.786,-0.245,0.000
3.789,-0.225,0.010
3.792,-0.225,0.005
3.794,-0.230,-0.005
3.797,-0.235,-0.020
3.800,-0.245,-0.015
3.803,-0.245,-0.015
3.806,-0.220,0.000
3.808,-0.230,0.005
3.811,-0.220,-0.010
3.814,-0.240,-0.025
3.817,-0.250,-0.020
3.819,-0.250,-0.005
3.822,-0.240,0.005
3.825,-0.235,-0.010
3.828,-0.235,-0.010
3.831,-0.255,-0.035
3.833,-0.245,-0.030
3.836,-0.260,-0.035
3.839,-0.245,-0.015
3.842,-0.240,-0.015
3.844,-0.245,-0.020
3.847,-0.260,-0.045
3.850,-0.270,-0.040
3.853,-0.280,-0.030
3.856,-0.255,-0.015
3.858,-0.245,-0.015
3.861,-0.245,-0.040
3.864,-0.265,-0.040
3.867,-0.290,-0.040
3.869,-0.275,-0.025
3.872,-0.270,-0.020
3.875,-0.250,-0.015
3.878,-0.255,-0.025
3.881,-0.260,-0.035
3.883,-0.270,-0.040
3.886,-0.275,-0.030
3.889,-0.270,-0.020
3.892,-0.250,-0.025
3.894,-0.250,-0.025
3.897,-0.270,-0.040
3.900,-0.290,-0.035
3.903,-0.275,-0.025
3.906,-0.260,-0.020
3.908,-0.245,-0.015
3.911,-0.250,-0.020
3.914,-0.265,-0.045
3.917,-0.295,-0.050
3.919,-0.290,-0.030
3.922,-0.265,-0.015
3.925,-0.255,-0.010
3.928,-0.265,-0.030
3.931,-0.285,-0.055
3.933,-0.300,-0.035
3.936,-0.295,-0.035
3.939,-0.265,-0.020
3.942,-0.260,-0.025
3.944,-0.255,-0.020
3.947,-0.260,-0.035
3.950,-0.270,-0.050
3.953,-0.270,-0.030
3.956,-0.260,-0.020
3.958,-0.250,-0.025
3.961,-0.255,-0.020
3.964,-0.255,-0.035
3.967,-0.265,-0.035
3.969,-0.280,-0.025
3.972,-0.260,-0.015
3.975,-0.240,-0.015
3.978,-0.245,-0.025
3.981,-0.255,-0.040
3.983,-0.280,-0.045
3.986,-0.275,-0.030
3.989,-0.270,-0.015
3.992,-0.255,-0.010
3.994,-0.240,-0.020
3.997,-0.260,-0.035
4.000,-0.270,-0.045
4.003,-0.275,-0.035
4.006,-0.265,-0.015
4.008,-0.255,-0.010
4.011,-0.260,-0.010
4.014,-0.270,-0.030
4.017,-0.270,-0.035
4.019,-0.270,-0.025
4.022,-0.270,-0.020
4.025,-0.245,-0.015
4.028,-0.245,-0.020
4.031,-0.255,-0.050
4.033,-0.265,-0.035
4.036,-0.265,-0.025
4.039,-0.255,-0.025
4.042,-0.230,-0.015
4.044,-0.250,-0.035
4.047,-0.250,-0.040
4.050,-0.255,-0.045
4.053,-0.270,-0.025
4.056,-0.255,-0.010
4.058,-0.245,-0.010
4.061,-0.245,-0.025
4.064,-0.260,-0.040
4.067,-0.275,-0.035
4.069,-0.275,-0.020
4.072,-0.255,-0.015
4.075,-0.240,-0.005
4.078,-0.250,-0.020
4.081,-0.250,-0.020
4.083,-0.260,-0.025
4.086,-0.270,-0.010
4.089,-0.240,-0.010
4.092,-0.215,0.005
4.094,-0.210,-0.005
4.097,-0.215,-0.005
4.100,-0.215,0.010
4.103,-0.220,0.015
4.106,-0.200,0.035
4.108,-0.185,0.025
4.111,-0.185,0.010
4.114,-0.195,0.025
4.117,-0.190,0.020
4.119,-0.195,0.020
4.122,-0.175,0.035
4.125,-0.175,0.035
4.128,-0.180,0.035
4.131,-0.200,0.015
4.133,-0.205,0.000
4.136,-0.215,0.010
4.139,-0.225,0.010
4.142,-0.215,0.015
4.144,-0.235,0.010
4.147,-0.235,-0.010
4.150,-0.240,0.000
4.153,-0.245,0.005
4.156,-0.225,0.035
4.158,-0.225,0.035
4.161,-0.215,0.025
4.164,-0.205,0.015
4.167,-0.215,0.000
4.169,-0.210,-0.005
4.172,-0.210,-0.005
4.175,-0.225,-0.030
4.178,-0.245,-0.025
4.181,-0.270,-0.040
4.183,-0.290,-0.030
4.186,-0.275,-0.025
4.189,-0.270,-0.020
4.192,-0.245,-0.030
4.194,-0.255,-0.040
4.197,-0.265,-0.045
4.200,-0.280,-0.040
4.203,-0.280,-0.035
4.206,-0.270,-0.015
4.208,-0.255,-0.020
4.211,-0.255,-0.025
4.214,-0.275,-0.050
4.217,-0.280,-0.045
4.219,-0.280,-0.035
4.222,-0.275,-0.020
4.225,-0.260,-0.025
4.228,-0.265,-0.025
4.231,-0.275,-0.045
4.233,-0.280,-0.050
4.236,-0.280,-0.030
4.239,-0.260,-0.020
4.242,-0.250,-0.025
4.244,-0.250,-0.030
4.247,-0.275,-0.035
4.250,-0.275,-0.045
4.253,-0.275,-0.030
4.256,-0.260,-0.015
4.258,-0.245,-0.010
4.261,-0.255,-0.005
4.264,-0.255,-0.020
4.267,-0.275,-0.005
4.269,-0.260,0.035
4.272,-0.235,0.065
4.275,-0.210,0.110
4.278,-0.195,0.145
4.281,-0.195,0.200
4.283,-0.185,0.265
4.286,-0.145,0.335
4.289,-0.155,0.455
4.292,-0.190,0.610
4.294,-0.260,0.765
4.297,-0.315,0.905
4.300,-0.355,1.080
4.303,-0.415,1.245
4.306,-0.465,1.415
4.308,-0.500,1.575
4.311,-0.490,1.780
4.314,-0.425,1.945
4.317,-0.335,2.035
4.319,-0.190,1.985
4.322,-0.065,1.735
4.325,0.015,1.300
4.328,-0.010,0.780
4.331,-0.155,0.385
4.333,-0.375,0.130
4.336,-0.575,0.010
4.339,-0.665,-0.040
4.342,-0.655,-0.045
4.344,-0.630,-0.055
4.347,-0.575,-0.055
4.350,-0.510,-0.040
4.353,-0.375,-0.045
4.356,-0.295,-0.035
4.358,-0.265,-0.050
4.361,-0.255,-0.060
4.364,-0.255,-0.110
4.367,-0.270,-0.120
4.369,-0.270,-0.125
4.372,-0.250,-0.110
4.375,-0.230,-0.110
4.378,-0.220,-0.130
4.381,-0.225,-0.135
4.383,-0.235,-0.140
4.386,-0.235,-0.130
4.389,-0.205,-0.120
4.392,-0.195,-0.130
4.394,-0.195,-0.145
4.397,-0.200,-0.160
4.400,-0.205,-0.145
4.403,-0.200,-0.145
4.406,-0.185,-0.130
4.408,-0.170,-0.130
4.411,-0.175,-0.140
4.414,-0.185,-0.150
4.417,-0.200,-0.150
4.419,-0.195,-0.145
4.422,-0.190,-0.130
4.425,-0.170,-0.140
4.428,-0.180,-0.145
4.431,-0.200,-0.160
4.433,-0.200,-0.175
4.436,-0.185,-0.160
4.439,-0.180,-0.155
4.442,-0.160,-0.150
4.444,-0.165,-0.175
4.447,-0.180,-0.175
4.450,-0.185,-0.175
4.453,-0.170,-0.165
4.456,-0.160,-0.155
4.458,-0.150,-0.150
4.461,-0.150,-0.170
4.464,-0.160,-0.190
4.467,-0.165,-0.185
4.469,-0.170,-0.175
4.472,-0.155,-0.170
4.475,-0.135,-0.160
4.478,-0.145,-0.165
4.481,-0.155,-0.175
4.483,-0.160,-0.190
4.486,-0.150,-0.170
4.489,-0.145,-0.155
4.492,-0.135,-0.155
4.494,-0.135,-0.150
4.497,-0.155,-0.180
4.500,-0.140,-0.180
4.503,-0.140,-0.170
4.506,-0.130,-0.155
4.508,-0.120,-0.160
4.511,-0.125,-0.165
4.514,-0.130,-0.175
4.517,-0.140,-0.160
4.519,-0.135,-0.155
4.522,-0.105,-0.145
4.525,-0.080,-0.135
4.528,-0.085,-0.145
4.531,-0.105,-0.160
4.533,-0.105,-0.160
4.536,-0.100,-0.140
4.539,-0.100,-0.130
4.542,-0.065,-0.120
4.544,-0.060,-0.120
4.547,-0.075,-0.150
4.550,-0.080,-0.130
4.553,-0.070,-0.115
4.556,-0.060,-0.105
4.558,-0.035,-0.105
4.561,-0.040,-0.110
4.564,-0.045,-0.110
4.567,-0.060,-0.085
4.569,-0.035,-0.080
4.572,-0.020,-0.045
4.575,-0.005,-0.045
4.578,-0.010,-0.045
4.581,0.000,-0.050
4.583,0.000,-0.025
4.586,-0.005,0.000
4.589,0.025,0.035
4.592,0.035,0.045
4.594,0.040,0.045
4.597,0.035,0.050
4.600,0.025,0.065
4.603,0.025,0.095
4.606,0.040,0.130
4.608,0.055,0.140
4.611,0.060,0.145
4.614,0.040,0.140
4.617,0.050,0.165
4.619,0.045,0.185
4.622,0.060,0.205
4.625,0.060,0.210
4.628,0.050,0.210
4.631,0.030,0.180
4.633,0.010,0.190
4.636,0.005,0.195
4.639,0.015,0.195
4.642,0.005,0.190
4.644,0.000,0.180
4.647,-0.035,0.150
4.650,-0.050,0.140
4.653,-0.060,0.135
4.656,-0.050,0.135
4.658,-0.050,0.125
4.661,-0.070,0.110
4.664,-0.090,0.085
4.667,-0.100,0.070
4.669,-0.125,0.080
4.672,-0.100,0.070
4.675,-0.105,0.070
4.678,-0.120,0.040
4.681,-0.140,0.030
4.683,-0.150,0.030
4.686,-0.160,0.020
4.689,-0.135,0.040
4.692,-0.140,0.035
4.694,-0.150,0.010
4.697,-0.160,0.015
4.700,-0.170,0.000
4.703,-0.175,0.010
4.706,-0.180,0.030
4.708,-0.150,0.025
4.711,-0.155,0.010
4.714,-0.165,-0.005
4.717,-0.185,0.000
4.719,-0.180,0.010
4.722,-0.170,0.015
4.725,-0.180,0.015
4.728,-0.165,0.000
4.731,-0.185,-0.015
4.733,-0.195,-0.005
4.736,-0.190,0.010
4.739,-0.185,0.025
4.742,-0.160,0.015
4.744,-0.175,0.005
4.747,-0.185,-0.015
4.750,-0.205,-0.015
4.753,-0.185,0.000
4.756,-0.165,-0.005
4.758,-0.170,-0.005
4.761,-0.175,-0.010
4.764,-0.180,-0.025
4.767,-0.195,-0.025
4.769,-0.180,-0.025
4.772,-0.180,-0.020
4.775,-0.170,-0.015
4.778,-0.185,-0.030
4.781,-0.195,-0.030
4.783,-0.195,-0.035
4.786,-0.185,-0.035
4.789,-0.175,-0.010
4.792,-0.175,-0.020
4.794,-0.175,-0.035
4.797,-0.195,-0.040
4.800,-0.215,-0.040
4.803,-0.195,-0.035
4.806,-0.175,-0.025
4.808,-0.170,-0.030
4.811,-0.185,-0.035
4.814,-0.195,-0.040
4.817,-0.200,-0.040
4.819,-0.195,-0.030
4.822,-0.170,-0.020
4.825,-0.170,-0.030
4.828,-0.170,-0.035
4.831,-0.180,-0.040
4.833,-0.190,-0.045
4.836,-0.185,-0.020
4.839,-0.175,-0.015
4.842,-0.160,-0.025
4.844,-0.170,-0.030
4.847,-0.165,-0.040
4.850,-0.185,-0.035
4.853,-0.190,-0.025
4.856,-0.165,-0.005
4.858,-0.160,-0.005
4.861,-0.165,-0.015
4.864,-0.175,-0.030
4.867,-0.190,-0.025
4.869,-0.185,-0.020
4.872,-0.180,0.000
4.875,-0.160,0.010
4.878,-0.165,-0.005
4.881,-0.175,-0.020
4.883,-0.190,-0.015
4.886,-0.180,-0.010
4.889,-0.160,0.010
4.892,-0.150,0.005
4.894,-0.160,-0.005
4.897,-0.175,-0.020
4.900,-0.190,-0.020
4.903,-0.190,-0.005
4.906,-0.185,0.010
4.908,-0.170,0.010
4.911,-0.170,0.010
4.914,-0.195,-0.010
4.917,-0.200,-0.015
4.919,-0.195,-0.010
4.922,-0.200,0.000
4.925,-0.180,0.000
4.928,-0.185,0.005
4.931,-0.195,-0.015
4.933,-0.215,-0.020
4.936,-0.200,-0.010
4.939,-0.200,-0.005
4.942,-0.185,-0.005
4.944,-0.205,-0.005
4.947,-0.195,-0.010
4.950,-0.220,-0.025
4.953,-0.230,-0.015
4.956,-0.210,0.000
4.958,-0.200,-0.005
4.961,-0.205,-0.010
4.964,-0.210,-0.025
4.967,-0.220,-0.010
4.969,-0.210,-0.020
4.972,-0.195,0.005
4.975,-0.185,-0.010
4.978,-0.205,-0.010
4.981,-0.215,-0.025
4.983,-0.225,-0.030
4.986,-0.220,-0.020
4.989,-0.195,-0.010
4.992,-0.200,-0.010
4.994,-0.200,-0.015
4.997,-0.230,-0.025
5.000,-0.230,-0.045
5.003,-0.225,-0.010
5.006,-0.225,-0.015
5.008,-0.225,-0.020
5.011,-0.205,-0.020
5.014,-0.220,-0.030
5.017,-0.245,-0.040
5.019,-0.230,-0.005
5.022,-0.230,0.000
5.025,-0.220,0.000
5.028,-0.210,-0.010
5.031,-0.220,-0.035
5.033,-0.235,-0.025
5.036,-0.225,-0.020
5.039,-0.220,0.005
5.042,-0.205,-0.005
5.044,-0.205,-0.005
5.047,-0.220,-0.020
5.050,-0.225,-0.030
5.053,-0.240,-0.005
5.056,-0.210,0.000
5.058,-0.205,0.000
5.061,-0.215,-0.005
5.064,-0.215,-0.030
5.067,-0.225,-0.025
5.069,-0.220,-0.010
5.072,-0.210,0.000
5.075,-0.215,0.005
5.078,-0.205,-0.015
5.081,-0.230,-0.020
5.083,-0.235,-0.030
5.086,-0.235,-0.010
5.089,-0.220,0.005
5.092,-0.210,0.000
5.094,-0.215,0.005
5.097,-0.215,-0.020
5.100,-0.230,-0.020
5.103,-0.235,-0.015
5.106,-0.225,0.005
5.108,-0.210,0.000
5.111,-0.210,-0.005
5.114,-0.220,-0.020
5.117,-0.235,-0.030
5.119,-0.235,-0.005
5.122,-0.235,0.010
5.125,-0.215,-0.010
5.128,-0.215,-0.020
5.131,-0.240,-0.015
5.133,-0.245,-0.020
5.136,-0.240,0.000
5.139,-0.225,0.005
5.142,-0.210,0.005
5.144,-0.205,-0.010
5.147,-0.230,-0.025
5.150,-0.230,-0.015
5.153,-0.235,-0.020
5.156,-0.205,0.005
5.158,-0.200,0.005
5.161,-0.220,-0.005
5.164,-0.220,-0.020
5.167,-0.240,-0.020
5.169,-0.225,0.000
5.172,-0.200,0.000
5.175,-0.210,0.000
5.178,-0.205,-0.005
5.181,-0.220,-0.030
5.183,-0.235,-0.020
5.186,-0.225,-0.005
5.189,-0.230,-0.005
5.192,-0.220,-0.010
5.194,-0.205,-0.025
5.197,-0.220,-0.030
5.200,-0.220,-0.025
5.203,-0.200,-0.005
5.206,-0.185,0.015
5.208,-0.170,0.015
5.211,-0.170,0.010
5.214,-0.175,0.010
5.217,-0.175,0.010
5.219,-0.170,0.020
5.222,-0.150,0.040
5.225,-0.130,0.050
5.228,-0.145,0.030
5.231,-0.160,0.030
5.233,-0.160,0.040
5.236,-0.155,0.040
5.239,-0.145,0.060
5.242,-0.130,0.060
5.244,-0.135,0.045
5.247,-0.150,0.035
5.250,-0.160,0.030
5.253,-0.165,0.050
5.256,-0.150,0.055
5.258,-0.150,0.045
5.261,-0.170,0.020
5.264,-0.185,-0.005
5.267,-0.210,0.000
5.269,-0.205,0.015
5.272,-0.190,0.015
5.275,-0.175,0.025
5.278,-0.180,0.025
5.281,-0.205,0.010
5.283,-0.210,0.020
5.286,-0.210,0.030
5.289,-0.190,0.065
5.292,-0.170,0.045
5.294,-0.165,0.040
5.297,-0.180,0.025
5.300,-0.185,0.035
5.303,-0.180,0.020
5.306,-0.165,0.015
5.308,-0.170,0.005
5.311,-0.200,-0.015
5.314,-0.230,-0.015
5.317,-0.235,-0.015
5.319,-0.230,-0.005
5.322,-0.215,0.015
5.325,-0.205,0.020
5.328,-0.215,0.010
5.331,-0.230,-0.010
5.333,-0.255,-0.015
5.336,-0.255,-0.010
5.339,-0.245,0.005
5.342,-0.210,0.010
5.344,-0.210,0.000
5.347,-0.235,-0.015
5.350,-0.245,-0.020
5.353,-0.240,-0.020
5.356,-0.240,-0.005
5.358,-0.210,0.000
5.361,-0.220,-0.010
5.364,-0.240,-0.025
5.367,-0.235,-0.020
5.369,-0.235,-0.015
5.372,-0.210,-0.010
5.375,-0.210,0.000
5.378,-0.215,-0.005
5.381,-0.230,-0.030
5.383,-0.235,-0.020
5.386,-0.240,0.000
5.389,-0.225,0.010
5.392,-0.215,0.005
5.394,-0.220,0.005
5.397,-0.220,0.000
5.400,-0.230,-0.005
5.403,-0.230,0.005
5.406,-0.205,0.035
5.408,-0.200,0.050
5.411,-0.195,0.065
5.414,-0.195,0.080
5.417,-0.200,0.110
5.419,-0.185,0.165
5.422,-0.145,0.235
5.425,-0.105,0.290
5.428,-0.080,0.315
5.431,-0.090,0.375
5.433,-0.130,0.495
5.436,-0.185,0.650
5.439,-0.225,0.815
5.442,-0.235,0.970
5.444,-0.275,1.110
5.447,-0.340,1.245
5.450,-0.415,1.380
5.453,-0.455,1.540
5.456,-0.450,1.755
5.458,-0.385,1.955
5.461,-0.295,2.065
5.464,-0.180,2.060
5.467,-0.085,1.895
5.469,0.025,1.550
5.472,0.075,1.100
5.475,0.010,0.635
5.478,-0.190,0.275
5.481,-0.425,0.070
5.483,-0.595,-0.030
5.486,-0.645,-0.050
5.489,-0.615,-0.035
5.492,-0.560,-0.025
5.494,-0.500,-0.035
5.497,-0.425,-0.040
5.500,-0.330,-0.035
5.503,-0.240,-0.035
5.506,-0.205,-0.035
5.508,-0.190,-0.040
5.511,-0.180,-0.075
5.514,-0.185,-0.085
5.517,-0.200,-0.100
5.519,-0.195,-0.105
5.522,-0.170,-0.095
5.525,-0.170,-0.110
5.528,-0.145,-0.115
5.531,-0.165,-0.125
5.533,-0.160,-0.120
5.536,-0.155,-0.110
5.539,-0.135,-0.105
5.542,-0.115,-0.115
5.544,-0.120,-0.120
5.547,-0.130,-0.125
5.550,-0.150,-0.135
5.553,-0.140,-0.110
5.556,-0.130,-0.100
5.558,-0.115,-0.105
5.561,-0.105,-0.115
5.564,-0.115,-0.135
5.567,-0.130,-0.130
5.569,-0.125,-0.125
5.572,-0.105,-0.110
5.575,-0.095,-0.115
5.578,-0.100,-0.135
5.581,-0.120,-0.145
5.583,-0.120,-0.140
5.586,-0.125,-0.120
5.589,-0.100,-0.110
5.592,-0.095,-0.125
5.594,-0.100,-0.145
5.597,-0.100,-0.150
5.600,-0.120,-0.150
5.603,-0.100,-0.130
5.606,-0.100,-0.130
5.608,-0.080,-0.115
5.611,-0.090,-0.145
5.614,-0.115,-0.150
5.617,-0.120,-0.135
5.619,-0.095,-0.135
5.622,-0.085,-0.120
5.625,-0.095,-0.130
5.628,-0.090,-0.135
5.631,-0.105,-0.140
5.633,-0.100,-0.145
5.636,-0.095,-0.130
5.639,-0.075,-0.125
5.642,-0.075,-0.125
5.644,-0.070,-0.130
5.647,-0.095,-0.155
5.650,-0.095,-0.145
5.653,-0.075,-0.120
5.656,-0.065,-0.120
5.658,-0.055,-0.120
5.661,-0.060,-0.120
5.664,-0.080,-0.140
5.667,-0.095,-0.135
5.669,-0.075,-0.120
5.672,-0.050,-0.100
5.675,-0.040,-0.115
5.678,-0.030,-0.115
5.681,-0.035,-0.120
5.683,-0.060,-0.115
5.686,-0.045,-0.105
5.689,-0.045,-0.090
5.692,-0.025,-0.095
5.694,-0.010,-0.095
5.697,-0.020,-0.100
5.700,-0.030,-0.105
5.703,-0.020,-0.085
5.706,-0.005,-0.070
5.708,0.025,-0.075
5.711,-0.005,-0.070
5.714,0.005,-0.070
5.717,0.010,-0.060
5.719,0.010,-0.040
5.722,0.035,-0.005
5.725,0.040,0.005
5.728,0.045,0.000
5.731,0.035,0.000
5.733,0.045,0.020
5.736,0.060,0.045
5.739,0.075,0.080
5.742,0.090,0.075
5.744,0.090,0.095
5.747,0.080,0.095
5.750,0.075,0.125
5.753,0.080,0.160
5.756,0.100,0.170
5.758,0.115,0.185
5.761,0.105,0.195
5.764,0.100,0.210
5.767,0.090,0.215
5.769,0.085,0.235
5.772,0.100,0.265
5.775,0.100,0.255
5.778,0.095,0.250
5.781,0.070,0.235
5.783,0.050,0.235
5.786,0.055,0.235
5.789,0.060,0.240
5.792,0.065,0.230
5.794,0.035,0.210
5.797,0.020,0.180
5.800,-0.005,0.170
5.803,-0.010,0.165
5.806,-0.010,0.180
5.808,-0.025,0.155
5.811,-0.035,0.130
5.814,-0.060,0.105
5.817,-0.080,0.095
5.819,-0.090,0.100
5.822,-0.085,0.095
5.825,-0.085,0.085
5.828,-0.090,0.070
5.831,-0.115,0.055
5.833,-0.130,0.060
5.836,-0.120,0.065
5.839,-0.115,0.075
5.842,-0.105,0.060
5.844,-0.120,0.050
5.847,-0.135,0.035
5.850,-0.135,0.050
5.853,-0.140,0.045
5.856,-0.140,0.065
5.858,-0.130,0.055
5.861,-0.120,0.055
5.864,-0.150,0.045
5.867,-0.155,0.030
5.869,-0.165,0.050
5.872,-0.150,0.050
5.875,-0.135,0.050
5.878,-0.150,0.050
5.881,-0.165,0.025
5.883,-0.165,0.020
5.886,-0.175,0.035
5.889,-0.160,0.035
5.892,-0.155,0.035
5.894,-0.140,0.025
5.897,-0.170,0.005
5.900,-0.185,0.015
5.903,-0.175,0.030
5.906,-0.155,0.040
5.908,-0.145,0.030
5.911,-0.155,0.015
5.914,-0.170,-0.005
5.917,-0.175,0.005
5.919,-0.165,0.010
5.922,-0.160,0.035
5.925,-0.140,0.030
5.928,-0.160,0.015
5.931,-0.165,-0.005
5.933,-0.175,0.005
5.936,-0.180,0.010
5.939,-0.150,0.020
5.942,-0.145,0.025
5.944,-0.155,0.010
5.947,-0.170,-0.010
5.950,-0.185,0.000
5.953,-0.175,0.005
5.956,-0.155,0.015
5.958,-0.150,0.020
5.961,-0.150,0.020
5.964,-0.170,0.010
5.967,-0.165,0.020
5.969,-0.160,0.025
5.972,-0.155,0.040
5.975,-0.150,0.030
5.978,-0.145,0.025
5.981,-0.160,0.005
5.983,-0.175,0.015
5.986,-0.165,0.030
5.989,-0.150,0.050
5.992,-0.145,0.030
5.994,-0.140,0.030
5.997,-0.160,0.005
6.000,-0.160,0.020
6.003,-0.165,0.030
6.006,-0.155,0.035
6.008,-0.135,0.025
6.011,-0.155,0.025
6.014,-0.160,0.015
6.017,-0.180,0.015
6.019,-0.175,0.015
6.022,-0.180,0.035
6.025,-0.160,0.030
6.028,-0.170,0.020
6.031,-0.170,0.010
6.033,-0.180,0.015
6.036,-0.175,0.025
6.039,-0.160,0.025
6.042,-0.160,0.025
6.044,-0.175,0.020
6.047,-0.180,0.015
6.050,-0.205,0.010
6.053,-0.200,0.015
6.056,-0.185,0.030
6.058,-0.170,0.035
6.061,-0.180,0.005
6.064,-0.190,0.000
6.067,-0.210,0.005
6.069,-0.205,0.015
6.072,-0.190,0.025
6.075,-0.180,0.020
6.078,-0.170,0.015
6.081,-0.195,0.005
6.083,-0.205,0.000
6.086,-0.205,0.015
6.089,-0.205,0.020
6.092,-0.185,0.010
6.094,-0.190,0.015
6.097,-0.195,-0.005
6.100,-0.205,0.005
6.103,-0.200,0.010
6.106,-0.195,0.025
6.108,-0.180,0.020
6.111,-0.190,0.005
6.114,-0.210,-0.010
6.117,-0.210,0.000
6.119,-0.205,0.000
6.122,-0.200,0.020
6.125,-0.185,0.015
6.128,-0.185,0.010
6.131,-0.210,-0.015
6.133,-0.225,-0.015
6.136,-0.195,0.005
6.139,-0.190,0.015
6.142,-0.180,0.010
6.144,-0.195,0.015
6.147,-0.200,-0.010
6.150,-0.220,-0.005
6.153,-0.210,0.005
6.156,-0.205,0.010
6.158,-0.190,0.000
6.161,-0.200,-0.005
6.164,-0.220,-0.010
6.167,-0.230,0.000
6.169,-0.220,0.000
6.172,-0.205,0.015
6.175,-0.190,0.025
6.178,-0.200,-0.005
6.181,-0.210,-0.010
6.183,-0.220,-0.020
6.186,-0.225,0.000
6.189,-0.220,0.015
6.192,-0.210,0.010
6.194,-0.205,0.010
6.197,-0.215,-0.005
6.200,-0.225,-0.005
6.203,-0.230,0.000
6.206,-0.205,0.015
6.208,-0.195,0.010
6.211,-0.210,-0.005
6.214,-0.210,-0.015
6.217,-0.235,-0.005
6.219,-0.220,0.010
6.222,-0.205,0.015
6.225,-0.215,0.025
6.228,-0.230,0.015
6.231,-0.225,-0.010
6.233,-0.245,-0.010
6.236,-0.235,0.005
6.239,-0.215,0.015
6.242,-0.205,0.020
6.244,-0.215,0.000
6.247,-0.225,-0.005
6.250,-0.235,-0.005
6.253,-0.240,0.010
6.256,-0.220,0.020
6.258,-0.200,0.010
6.261,-0.215,0.010
6.264,-0.230,0.000
6.267,-0.225,0.005
6.269,-0.225,0.005
6.272,-0.215,0.020
6.275,-0.200,0.020
6.278,-0.210,0.010
6.281,-0.215,-0.010
6.283,-0.220,0.000
6.286,-0.225,0.015
6.289,-0.205,0.020
6.292,-0.200,0.025
6.294,-0.205,0.010
6.297,-0.205,0.000
6.300,-0.240,0.005
6.303,-0.210,0.020
6.306,-0.205,0.045
6.308,-0.180,0.030
6.311,-0.175,0.020
6.314,-0.180,0.010
6.317,-0.185,0.035
6.319,-0.180,0.055
6.322,-0.165,0.065
6.325,-0.140,0.065
6.328,-0.150,0.055
6.331,-0.165,0.045
6.333,-0.170,0.055
6.336,-0.160,0.070
6.339,-0.125,0.085
6.342,-0.120,0.085
6.344,-0.120,0.075
6.347,-0.140,0.070
6.350,-0.145,0.075
6.353,-0.150,0.090
6.356,-0.145,0.095
6.358,-0.145,0.080
6.361,-0.150,0.055
6.364,-0.175,0.050
6.367,-0.195,0.045
6.369,-0.200,0.050
6.372,-0.195,0.075
6.375,-0.180,0.080
6.378,-0.190,0.085
6.381,-0.205,0.050
6.383,-0.215,0.070
6.386,-0.200,0.060
6.389,-0.190,0.080
6.392,-0.160,0.075
6.394,-0.155,0.070
6.397,-0.175,0.060
6.400,-0.175,0.060
6.403,-0.185,0.055
6.406,-0.160,0.055
6.408,-0.160,0.045
6.411,-0.190,0.020
6.414,-0.220,0.005
6.417,-0.225,0.010
6.419,-0.230,0.025
6.422,-0.215,0.035
6.425,-0.200,0.025
6.428,-0.210,0.020
6.431,-0.210,0.005
6.433,-0.230,0.005
6.436,-0.240,0.015
6.439,-0.220,0.025
6.442,-0.215,0.020
6.444,-0.230,0.005
6.447,-0.255,-0.005
6.450,-0.250,0.000
6.453,-0.240,0.015
6.456,-0.215,0.030
6.458,-0.210,0.015
6.461,-0.220,0.000
6.464,-0.235,-0.005
6.467,-0.245,-0.005
6.469,-0.235,0.025
6.472,-0.220,0.030
6.475,-0.210,0.015
6.478,-0.215,0.005
6.481,-0.240,-0.005
6.483,-0.240,0.005
6.486,-0.245,0.020
6.489,-0.220,0.040
6.492,-0.210,0.030
6.494,-0.215,0.030
6.497,-0.240,0.035
6.500,-0.235,0.035
6.503,-0.220,0.050
6.506,-0.210,0.080
6.508,-0.190,0.105
6.511,-0.190,0.140
6.514,-0.195,0.180
6.517,-0.175,0.245
6.519,-0.120,0.310
6.522,-0.075,0.380
6.525,-0.075,0.460
6.528,-0.140,0.580
6.531,-0.215,0.740
6.533,-0.280,0.900
6.536,-0.320,1.090
6.539,-0.345,1.250
6.542,-0.415,1.390
6.544,-0.480,1.545
6.547,-0.500,1.740
6.550,-0.455,1.960
6.553,-0.355,2.095
6.556,-0.205,2.065
6.558,-0.065,1.820
6.561,0.015,1.380
6.564,0.000,0.845
6.567,-0.140,0.410
6.569,-0.370,0.155
6.572,-0.575,0.035
6.575,-0.655,-0.020
6.578,-0.645,-0.045
6.581,-0.615,-0.040
6.583,-0.550,-0.005
6.586,-0.435,0.000
6.589,-0.325,-0.005
6.592,-0.250,-0.010
6.594,-0.235,-0.020
6.597,-0.235,-0.040
6.600,-0.235,-0.050
6.603,-0.230,-0.055
6.606,-0.210,-0.050
6.608,-0.210,-0.065
6.611,-0.185,-0.075
6.614,-0.200,-0.100
6.617,-0.205,-0.095
6.619,-0.190,-0.080
6.622,-0.180,-0.055
6.625,-0.165,-0.065
6.628,-0.165,-0.080
6.631,-0.160,-0.100
6.633,-0.175,-0.090
6.636,-0.155,-0.085
6.639,-0.140,-0.080
6.642,-0.130,-0.075
6.644,-0.140,-0.085
6.647,-0.150,-0.090
6.650,-0.155,-0.100
6.653,-0.140,-0.090
6.656,-0.125,-0.085
6.658,-0.120,-0.085
6.661,-0.140,-0.095
6.664,-0.145,-0.100
6.667,-0.140,-0.100
6.669,-0.140,-0.100
6.672,-0.120,-0.085
6.675,-0.115,-0.095
6.678,-0.125,-0.110
6.681,-0.130,-0.125
6.683,-0.155,-0.115
6.686,-0.130,-0.095
6.689,-0.115,-0.075
6.692,-0.115,-0.085
6.694,-0.110,-0.105
6.697,-0.120,-0.120
6.700,-0.125,-0.120
6.703,-0.115,-0.105
6.706,-0.115,-0.090
6.708,-0.095,-0.090
6.711,-0.100,-0.105
6.714,-0.110,-0.100
6.717,-0.120,-0.095
6.719,-0.110,-0.090
6.722,-0.105,-0.090
6.725,-0.085,-0.085
6.728,-0.080,-0.100
6.731,-0.110,-0.110
6.733,-0.115,-0.095
6.736,-0.090,-0.090
6.739,-0.070,-0.065
6.742,-0.060,-0.080
6.744,-0.065,-0.085
6.747,-0.080,-0.100
6.750,-0.075,-0.085
6.753,-0.070,-0.075
6.756,-0.040,-0.060
6.758,-0.035,-0.055
6.761,-0.045,-0.065
6.764,-0.060,-0.065
6.767,-0.070,-0.075
6.769,-0.045,-0.055
6.772,-0.035,-0.025
6.775,-0.030,-0.030
6.778,-0.030,-0.030
6.781,-0.035,-0.030
6.783,-0.035,-0.020
6.786,-0.025,-0.005
6.789,-0.005,0.005
6.792,0.020,0.010
6.794,0.020,0.015
6.797,0.000,0.030
6.800,0.005,0.050
6.803,0.015,0.060
6.806,0.030,0.095
6.808,0.060,0.095
6.811,0.055,0.105
6.814,0.045,0.115
6.817,0.050,0.140
6.819,0.055,0.170
6.822,0.075,0.200
6.825,0.090,0.200
6.828,0.080,0.215
6.831,0.070,0.215
6.833,0.055,0.235
6.836,0.055,0.265
6.839,0.070,0.290
6.842,0.075,0.280
6.844,0.060,0.275
6.847,0.030,0.255
6.850,0.025,0.245
6.853,0.005,0.255
6.856,0.015,0.250
6.858,0.015,0.245
6.861,-0.005,0.220
6.864,-0.025,0.185
6.867,-0.050,0.175
6.869,-0.065,0.165
6.872,-0.060,0.150
6.875,-0.070,0.140
6.878,-0.090,0.120
6.881,-0.120,0.100
6.883,-0.135,0.100
6.886,-0.140,0.100
6.889,-0.145,0.095
6.892,-0.135,0.085
6.894,-0.150,0.075
6.897,-0.160,0.060
6.900,-0.165,0.065
6.903,-0.170,0.065
6.906,-0.170,0.070
6.908,-0.160,0.070
6.911,-0.170,0.050
6.914,-0.185,0.035
6.917,-0.190,0.040
6.919,-0.190,0.060
6.922,-0.190,0.065
6.925,-0.185,0.055
6.928,-0.180,0.040
6.931,-0.190,0.020
6.933,-0.195,0.040
6.936,-0.200,0.030
6.939,-0.185,0.040
6.942,-0.175,0.035
6.944,-0.185,0.015
6.947,-0.190,0.015
6.950,-0.210,0.020
6.953,-0.210,0.020
6.956,-0.200,0.025
6.958,-0.200,0.015
6.961,-0.200,0.000
6.964,-0.205,0.000
6.967,-0.225,-0.005
6.969,-0.225,0.005
6.972,-0.200,0.025
6.975,-0.190,0.010
6.978,-0.200,-0.005
6.981,-0.205,-0.030
6.983,-0.230,-0.025
6.986,-0.215,-0.005
6.989,-0.220,0.005
6.992,-0.195,0.000
6.994,-0.190,0.000
6.997,-0.215,-0.010
7.000,-0.230,-0.010
7.003,-0.220,-0.005
7.006,-0.210,0.005
7.008,-0.190,0.010
7.011,-0.195,-0.005
7.014,-0.225,-0.015
7.017,-0.225,-0.005
7.019,-0.230,0.015
7.022,-0.200,0.015
7.025,-0.200,0.010
7.028,-0.210,-0.005
7.031,-0.235,-0.005
7.033,-0.230,0.000
7.036,-0.220,0.010
7.039,-0.220,0.015
7.042,-0.200,0.025
7.044,-0.215,0.000
7.047,-0.225,-0.005
7.050,-0.250,-0.010
7.053,-0.235,0.015
7.056,-0.225,0.030
7.058,-0.210,0.010
7.061,-0.195,-0.005
7.064,-0.225,0.000
7.067,-0.235,0.000
7.069,-0.225,0.000
7.072,-0.220,0.005
7.075,-0.225,0.005
7.078,-0.210,-0.010
7.081,-0.230,-0.010
7.083,-0.240,-0.020
7.086,-0.230,0.000
7.089,-0.225,-0.005
7.092,-0.230,-0.010
7.094,-0.250,-0.015
7.097,-0.260,-0.015
7.100,-0.260,-0.020
7.103,-0.250,0.000
7.106,-0.245,0.000
7.108,-0.230,-0.015
7.111,-0.245,-0.025
7.114,-0.255,-0.040
7.117,-0.270,-0.030
7.119,-0.270,-0.020
7.122,-0.250,0.000
7.125,-0.240,0.000
7.128,-0.255,-0.015
7.131,-0.260,-0.025
7.133,-0.255,-0.010
7.136,-0.260,-0.015
7.139,-0.250,0.000
7.142,-0.240,-0.005
7.144,-0.260,-0.010
7.147,-0.265,-0.030
7.150,-0.280,-0.010
7.153,-0.255,-0.015
7.156,-0.255,-0.005
7.158,-0.250,-0.010
7.161,-0.250,-0.025
7.164,-0.260,-0.050
7.167,-0.280,-0.025
7.169,-0.275,-0.030
7.172,-0.260,0.000
7.175,-0.250,-0.005
7.178,-0.255,-0.030
7.181,-0.290,-0.035
7.183,-0.280,-0.030
7.186,-0.280,-0.025
7.189,-0.260,-0.005
7.192,-0.250,-0.015
7.194,-0.250,-0.015
7.197,-0.270,-0.040
7.200,-0.275,-0.020
7.203,-0.270,-0.025
7.206,-0.255,-0.020
7.208,-0.255,-0.020
7.211,-0.250,-0.015
7.214,-0.280,-0.020
7.217,-0.285,-0.025
7.219,-0.270,-0.010
7.222,-0.265,0.000
7.225,-0.255,-0.015
7.228,-0.265,-0.035
7.231,-0.280,-0.040
7.233,-0.280,-0.035
7.236,-0.290,-0.020
7.239,-0.260,-0.015
7.242,-0.260,-0.015
7.244,-0.265,-0.030
7.247,-0.275,-0.030
7.250,-0.290,-0.030
7.253,-0.275,-0.015
7.256,-0.270,-0.020
7.258,-0.265,-0.015
7.261,-0.270,-0.025
7.264,-0.285,-0.035
7.267,-0.290,-0.030
7.269,-0.290,-0.030
7.272,-0.265,-0.005
7.275,-0.255,-0.010
7.278,-0.265,-0.020
7.281,-0.285,-0.040
7.283,-0.285,-0.025
7.286,-0.280,-0.020
7.289,-0.270,-0.005
7.292,-0.265,-0.005
7.294,-0.260,-0.025
7.297,-0.280,-0.030
7.300,-0.285,-0.025
7.303,-0.280,-0.025
7.306,-0.265,-0.010
7.308,-0.265,-0.020
7.311,-0.265,-0.025
7.314,-0.285,-0.035
7.317,-0.290,-0.025
7.319,-0.270,-0.020
7.322,-0.270,0.000
7.325,-0.260,-0.005
7.328,-0.260,-0.030
7.331,-0.285,-0.030
7.333,-0.290,-0.025
7.336,-0.275,-0.010
7.339,-0.265,0.000
7.342,-0.260,-0.015
7.344,-0.255,-0.025
7.347,-0.275,-0.040
7.350,-0.285,-0.025
7.353,-0.260,-0.015
7.356,-0.245,0.005
7.358,-0.230,0.005
7.361,-0.220,0.005
7.364,-0.230,0.005
7.367,-0.240,0.005
7.369,-0.235,0.025
7.372,-0.220,0.030
7.375,-0.210,0.030
7.378,-0.215,0.020
7.381,-0.225,0.020
7.383,-0.220,0.025
7.386,-0.205,0.035
7.389,-0.195,0.040
7.392,-0.195,0.040
7.394,-0.195,0.025
7.397,-0.205,0.015
7.400,-0.215,0.020
7.403,-0.210,0.020
7.406,-0.200,0.025
7.408,-0.195,0.015
7.411,-0.225,0.010
7.414,-0.250,0.000
7.417,-0.270,0.005
7.419,-0.260,0.015
7.422,-0.250,0.035
7.425,-0.235,0.025
7.428,-0.235,0.020
7.431,-0.260,0.010
7.433,-0.265,0.030
7.436,-0.255,0.035
7.439,-0.240,0.040
7.442,-0.220,0.030
7.444,-0.235,0.015
7.447,-0.235,-0.010
7.450,-0.235,-0.020
7.453,-0.235,-0.005
7.456,-0.230,-0.005
7.458,-0.240,-0.015
7.461,-0.250,-0.025
7.464,-0.290,-0.035
7.467,-0.310,-0.015
7.469,-0.295,-0.010
7.472,-0.275,-0.005
7.475,-0.275,-0.005
7.478,-0.275,-0.015
7.481,-0.290,-0.030
7.483,-0.295,-0.020
7.486,-0.285,-0.015
7.489,-0.275,-0.015
7.492,-0.265,-0.025
7.494,-0.280,-0.020
7.497,-0.295,-0.035
7.500,-0.310,-0.035
7.503,-0.300,-0.025
7.506,-0.285,-0.005
7.508,-0.285,-0.015
7.511,-0.285,-0.035
7.514,-0.295,-0.030
7.517,-0.315,-0.035
7.519,-0.300,-0.015
7.522,-0.290,-0.015
7.525,-0.275,-0.015
7.528,-0.290,-0.025
7.531,-0.310,-0.045
7.533,-0.300,-0.020
7.536,-0.290,-0.015
7.539,-0.280,0.010
7.542,-0.270,0.010
7.544,-0.275,0.000
7.547,-0.285,-0.020
7.550,-0.285,-0.015
7.553,-0.285,0.015
7.556,-0.280,0.025
7.558,-0.255,0.020
7.561,-0.270,0.025
7.564,-0.275,0.035
7.567,-0.280,0.060
7.569,-0.265,0.115
7.572,-0.225,0.145
7.575,-0.215,0.175
7.578,-0.180,0.235
7.581,-0.170,0.265
7.583,-0.170,0.290
7.586,-0.165,0.370
7.589,-0.190,0.465
7.592,-0.250,0.585
7.594,-0.310,0.700
7.597,-0.355,0.820
7.600,-0.410,0.960
7.603,-0.460,1.110
7.606,-0.540,1.260
7.608,-0.610,1.385
7.611,-0.640,1.520
7.614,-0.630,1.695
7.617,-0.570,1.875
7.619,-0.480,2.000
7.622,-0.345,2.025
7.625,-0.210,1.860
7.628,-0.095,1.520
7.631,-0.065,1.060
7.633,-0.110,0.615
7.636,-0.265,0.315
7.639,-0.460,0.135
7.642,-0.605,0.020
7.644,-0.655,-0.040
7.647,-0.655,-0.040
7.650,-0.630,-0.030
7.653,-0.530,-0.010
7.656,-0.425,-0.005
7.658,-0.345,-0.020
7.661,-0.300,-0.030
7.664,-0.290,-0.050
7.667,-0.285,-0.060
7.669,-0.280,-0.060
7.672,-0.260,-0.065
7.675,-0.245,-0.095
7.678,-0.260,-0.105
7.681,-0.265,-0.120
7.683,-0.260,-0.120
7.686,-0.255,-0.105
7.689,-0.235,-0.090
7.692,-0.220,-0.100
7.694,-0.205,-0.120
7.697,-0.235,-0.140
7.700,-0.235,-0.125
7.703,-0.215,-0.115
7.706,-0.205,-0.100
7.708,-0.200,-0.100
7.711,-0.190,-0.120
7.714,-0.205,-0.140
7.717,-0.195,-0.135
7.719,-0.200,-0.110
7.722,-0.205,-0.095
7.725,-0.190,-0.110
7.728,-0.195,-0.115
7.731,-0.195,-0.125
7.733,-0.200,-0.125
7.736,-0.190,-0.120
7.739,-0.195,-0.100
7.742,-0.170,-0.115
7.744,-0.180,-0.135
7.747,-0.185,-0.140
7.750,-0.215,-0.145
7.753,-0.205,-0.120
7.756,-0.185,-0.105
7.758,-0.175,-0.130
7.761,-0.185,-0.150
7.764,-0.195,-0.150
7.767,-0.190,-0.145
7.769,-0.205,-0.130
7.772,-0.180,-0.105
7.775,-0.165,-0.120
7.778,-0.185,-0.145
7.781,-0.190,-0.150
7.783,-0.190,-0.135
7.786,-0.205,-0.130
7.789,-0.175,-0.120
7.792,-0.165,-0.135
7.794,-0.180,-0.130
7.797,-0.175,-0.145
7.800,-0.185,-0.140
7.803,-0.170,-0.135
7.806,-0.160,-0.120
7.808,-0.150,-0.115
7.811,-0.160,-0.130
7.814,-0.160,-0.140
7.817,-0.165,-0.130
7.819,-0.150,-0.135
7.822,-0.145,-0.125
7.825,-0.140,-0.130
7.828,-0.165,-0.140
7.831,-0.160,-0.125
7.833,-0.170,-0.120
7.836,-0.160,-0.115
7.839,-0.135,-0.100
7.842,-0.135,-0.120
7.844,-0.130,-0.125
7.847,-0.140,-0.135
7.850,-0.135,-0.135
7.853,-0.130,-0.115
7.856,-0.130,-0.095
7.858,-0.105,-0.090
7.861,-0.110,-0.105
7.864,-0.120,-0.110
7.867,-0.125,-0.110
7.869,-0.110,-0.095
7.872,-0.090,-0.085
7.875,-0.090,-0.080
7.878,-0.095,-0.090
7.881,-0.105,-0.100
7.883,-0.100,-0.075
7.886,-0.085,-0.065
7.889,-0.070,-0.035
7.892,-0.065,-0.055
7.894,-0.060,-0.055
7.897,-0.075,-0.050
7.900,-0.075,-0.040
7.903,-0.065,-0.020
7.906,-0.045,0.015
7.908,-0.030,0.015
7.911,-0.035,0.020
7.914,-0.040,0.025
7.917,-0.045,0.040
7.919,-0.035,0.060
7.922,-0.020,0.100
7.925,0.000,0.100
7.928,-0.010,0.110
7.931,-0.010,0.125
7.933,-0.020,0.135
7.936,-0.010,0.170
7.939,0.005,0.190
7.942,0.015,0.200
7.944,0.000,0.195
7.947,0.000,0.195
7.950,-0.010,0.205
7.953,-0.005,0.230
7.956,0.000,0.250
7.958,0.000,0.245
7.961,-0.005,0.230
7.964,-0.015,0.235
7.967,-0.040,0.235
7.969,-0.040,0.220
7.972,-0.050,0.240
7.975,-0.050,0.205
7.978,-0.065,0.195
7.981,-0.090,0.170
7.983,-0.100,0.175
7.986,-0.115,0.175
7.989,-0.105,0.170
7.992,-0.110,0.160
7.994,-0.125,0.140
7.997,-0.135,0.115
8.000,-0.155,0.110
8.003,-0.150,0.100
8.006,-0.145,0.125
8.008,-0.140,0.110
8.011,-0.160,0.090
8.014,-0.180,0.070
8.017,-0.185,0.075
8.019,-0.200,0.095
8.022,-0.170,0.100
8.025,-0.165,0.085
8.028,-0.170,0.065
8.031,-0.195,0.070
8.033,-0.200,0.055
8.036,-0.195,0.085
8.039,-0.185,0.085
8.042,-0.180,0.065
8.044,-0.185,0.060
8.047,-0.225,0.050
8.050,-0.220,0.055
8.053,-0.215,0.075
8.056,-0.200,0.070
8.058,-0.190,0.075
8.061,-0.210,0.070
8.064,-0.215,0.050
8.067,-0.225,0.055
8.069,-0.225,0.070
8.072,-0.210,0.065
8.075,-0.195,0.060
8.078,-0.210,0.055
8.081,-0.220,0.045
8.083,-0.225,0.035
8.086,-0.220,0.065
8.089,-0.205,0.075
8.092,-0.200,0.055
8.094,-0.210,0.055
8.097,-0.220,0.025
8.100,-0.240,0.035
8.103,-0.230,0.035
8.106,-0.200,0.045
8.108,-0.200,0.040
8.111,-0.215,0.025
8.114,-0.220,0.015
8.117,-0.225,0.020
8.119,-0.215,0.025
8.122,-0.190,0.030
8.125,-0.205,0.025
8.128,-0.200,0.020
8.131,-0.210,0.015
8.133,-0.225,0.025
8.136,-0.210,0.030
8.139,-0.195,0.035
8.142,-0.195,0.030
8.144,-0.200,0.020
8.147,-0.210,0.010
8.150,-0.235,0.005
8.153,-0.230,0.015
8.156,-0.200,0.040
8.158,-0.185,0.035
8.161,-0.205,0.035
8.164,-0.210,0.025
8.167,-0.215,0.025
8.169,-0.210,0.040
8.172,-0.200,0.040
8.175,-0.190,0.035
8.178,-0.190,0.020
8.181,-0.205,0.010
8.183,-0.220,0.025
8.186,-0.205,0.040
8.189,-0.185,0.050
8.192,-0.185,0.050
8.194,-0.190,0.040
8.197,-0.215,0.025
8.200,-0.225,0.025
8.203,-0.200,0.035
8.206,-0.185,0.045
8.208,-0.185,0.025
8.211,-0.190,0.020
8.214,-0.200,0.010
8.217,-0.210,0.030
8.219,-0.205,0.030
8.222,-0.185,0.035
8.225,-0.190,0.035
8.228,-0.195,0.030
8.231,-0.205,0.020
8.233,-0.210,0.030
8.236,-0.200,0.035
8.239,-0.205,0.045
8.242,-0.200,0.045
8.244,-0.195,0.030
8.247,-0.220,0.030
8.250,-0.225,0.010
8.253,-0.235,0.025
8.256,-0.225,0.045
8.258,-0.215,0.045
8.261,-0.220,0.025
8.264,-0.220,0.015
8.267,-0.225,0.015
8.269,-0.225,0.020
8.272,-0.205,0.025
8.275,-0.210,0.030
8.278,-0.210,0.025
8.281,-0.240,0.005
8.283,-0.240,0.020
8.286,-0.235,0.030
8.289,-0.210,0.040
8.292,-0.210,0.030
8.294,-0.210,0.020
8.297,-0.225,-0.005
8.300,-0.240,-0.005
8.303,-0.225,0.020
8.306,-0.210,0.025
8.308,-0.215,0.020
8.311,-0.220,0.015
8.314,-0.230,-0.005
8.317,-0.240,0.000
8.319,-0.225,0.020
8.322,-0.230,0.030
8.325,-0.205,0.025
8.328,-0.220,0.010
8.331,-0.250,0.015
8.333,-0.245,0.010
8.336,-0.230,0.015
8.339,-0.220,0.035
8.342,-0.200,0.020
8.344,-0.215,0.000
8.347,-0.230,0.005
8.350,-0.245,0.000
8.353,-0.235,0.015
8.356,-0.215,0.030
8.358,-0.210,0.035
8.361,-0.225,0.025
8.364,-0.225,0.005
8.367,-0.230,0.005
8.369,-0.235,0.015
8.372,-0.205,0.020
8.375,-0.220,0.025
8.378,-0.220,0.010
8.381,-0.240,0.010
8.383,-0.235,0.010
8.386,-0.245,0.015
8.389,-0.215,0.030
8.392,-0.205,0.020
8.394,-0.220,0.010
8.397,-0.255,0.000
8.400,-0.250,0.015
8.403,-0.235,0.015
8.406,-0.215,0.035
8.408,-0.220,0.010
8.411,-0.225,0.020
8.414,-0.230,-0.010
8.417,-0.235,0.010
8.419,-0.230,0.030
8.422,-0.215,0.030
8.425,-0.220,0.025
8.428,-0.220,0.010
8.431,-0.235,0.005
8.433,-0.240,0.005
8.436,-0.225,0.020
8.439,-0.215,0.015
8.442,-0.215,0.030
8.444,-0.210,0.025
8.447,-0.225,0.020
8.450,-0.215,0.020
8.453,-0.230,0.040
8.456,-0.205,0.035
8.458,-0.195,0.040
8.461,-0.205,0.010
8.464,-0.230,0.015
8.467,-0.245,0.025
8.469,-0.210,0.040
8.472,-0.210,0.050
8.475,-0.200,0.030
8.478,-0.200,0.010
8.481,-0.225,0.005
8.483,-0.220,0.020
8.486,-0.220,0.015
8.489,-0.195,0.035
8.492,-0.195,0.035
8.494,-0.200,0.025
8.497,-0.210,0.005
8.500,-0.215,0.025
8.503,-0.210,0.035
8.506,-0.195,0.040
8.508,-0.190,0.030
8.511,-0.205,0.020
8.514,-0.220,0.015
8.517,-0.225,0.025
8.519,-0.210,0.035
8.522,-0.195,0.060
8.525,-0.185,0.045
8.528,-0.190,0.035
8.531,-0.200,0.030
8.533,-0.190,0.030
8.536,-0.190,0.045
8.539,-0.170,0.060
8.542,-0.160,0.070
8.544,-0.170,0.055
8.547,-0.160,0.060
8.550,-0.165,0.065
8.553,-0.185,0.080
8.556,-0.150,0.085
8.558,-0.140,0.090
8.561,-0.140,0.085
8.564,-0.145,0.065
8.567,-0.130,0.080
8.569,-0.130,0.095
8.572,-0.130,0.095
8.575,-0.125,0.095
8.578,-0.135,0.080
8.581,-0.145,0.075
8.583,-0.170,0.070
8.586,-0.165,0.065
8.589,-0.165,0.080
8.592,-0.175,0.080
8.594,-0.180,0.055
8.597,-0.195,0.040
8.600,-0.200,0.055
8.603,-0.195,0.070
8.606,-0.175,0.080
8.608,-0.170,0.070
8.611,-0.190,0.065
8.614,-0.195,0.075
8.617,-0.190,0.070
8.619,-0.180,0.070
8.622,-0.155,0.095
8.625,-0.150,0.080
8.628,-0.155,0.065
8.631,-0.160,0.035
8.633,-0.180,0.045
8.636,-0.175,0.045
8.639,-0.165,0.055
8.642,-0.195,0.040
8.644,-0.205,0.040
8.647,-0.210,0.015
8.650,-0.230,0.015
8.653,-0.210,0.030
8.656,-0.210,0.040
8.658,-0.200,0.035
8.661,-0.200,0.030
8.664,-0.215,0.010
8.667,-0.215,0.020
8.669,-0.225,0.030
8.672,-0.190,0.040
8.675,-0.195,0.035
8.678,-0.200,0.020
8.681,-0.225,0.010
8.683,-0.230,0.015
8.686,-0.215,0.030
8.689,-0.205,0.040
8.692,-0.200,0.020
8.694,-0.205,0.025
8.697,-0.220,-0.010
8.700,-0.230,0.015
8.703,-0.225,0.015
8.706,-0.205,0.030
8.708,-0.220,0.035
8.711,-0.225,0.025
8.714,-0.235,0.000
8.717,-0.250,0.000
8.719,-0.220,0.015
8.722,-0.200,0.030
8.725,-0.195,0.020
8.728,-0.200,0.015
8.731,-0.220,0.015
8.733,-0.215,0.020
8.736,-0.215,0.045
8.739,-0.185,0.065
8.742,-0.175,0.070
8.744,-0.185,0.075
8.747,-0.195,0.095
8.750,-0.180,0.130
8.753,-0.160,0.185
8.756,-0.130,0.255
8.758,-0.115,0.310
8.761,-0.085,0.350
8.764,-0.110,0.400
8.767,-0.165,0.520
8.769,-0.235,0.660
8.772,-0.280,0.830
8.775,-0.325,0.995
8.778,-0.355,1.140
8.781,-0.435,1.290
8.783,-0.505,1.455
8.786,-0.550,1.640
8.789,-0.540,1.835
8.792,-0.490,2.045
8.794,-0.415,2.205
8.797,-0.310,2.240
8.800,-0.200,2.175
8.803,-0.075,1.965
8.806,0.005,1.635
8.808,0.030,1.225
8.811,-0.045,0.800
8.814,-0.205,0.475
8.817,-0.390,0.245
8.819,-0.525,0.095
8.822,-0.575,0.025
8.825,-0.575,-0.005
8.828,-0.560,0.000
8.831,-0.520,-0.010
8.833,-0.425,0.000
8.836,-0.320,0.010
8.839,-0.230,0.005
8.842,-0.210,0.000
8.844,-0.200,-0.040
8.847,-0.200,-0.050
8.850,-0.190,-0.075
8.853,-0.180,-0.070
8.856,-0.155,-0.065
8.858,-0.145,-0.080
8.861,-0.150,-0.085
8.864,-0.150,-0.105
8.867,-0.155,-0.095
8.869,-0.145,-0.085
8.872,-0.120,-0.080
8.875,-0.125,-0.085
8.878,-0.120,-0.100
8.881,-0.130,-0.110
8.883,-0.140,-0.120
8.886,-0.130,-0.090
8.889,-0.100,-0.085
8.892,-0.090,-0.090
8.894,-0.110,-0.105
8.897,-0.110,-0.110
8.900,-0.120,-0.120
8.903,-0.115,-0.110
8.906,-0.100,-0.090
8.908,-0.090,-0.105
8.911,-0.110,-0.110
8.914,-0.110,-0.125
8.917,-0.115,-0.125
8.919,-0.115,-0.125
8.922,-0.110,-0.120
8.925,-0.090,-0.125
8.928,-0.095,-0.135
8.931,-0.105,-0.145
8.933,-0.105,-0.150
8.936,-0.080,-0.125
8.939,-0.080,-0.120
8.942,-0.065,-0.125
8.944,-0.070,-0.135
8.947,-0.095,-0.165
8.950,-0.105,-0.150
8.953,-0.075,-0.135
8.956,-0.065,-0.120
8.958,-0.055,-0.130
8.961,-0.075,-0.145
8.964,-0.080,-0.145
8.967,-0.080,-0.145
8.969,-0.075,-0.130
8.972,-0.060,-0.130
8.975,-0.045,-0.135
8.978,-0.060,-0.140
8.981,-0.070,-0.150
8.983,-0.075,-0.130
8.986,-0.070,-0.125
8.989,-0.045,-0.125
8.992,-0.050,-0.125
8.994,-0.050,-0.150
8.997,-0.050,-0.155
9.000,-0.050,-0.140
9.003,-0.040,-0.130
9.006,-0.015,-0.115
9.008,-0.010,-0.120
9.011,-0.005,-0.130
9.014,-0.025,-0.140
9.017,-0.040,-0.135
9.019,-0.020,-0.115
9.022,0.005,-0.105
9.025,0.015,-0.095
9.028,0.015,-0.105
9.031,0.005,-0.115
9.033,0.005,-0.110
9.036,0.025,-0.085
9.039,0.040,-0.080
9.042,0.050,-0.085
9.044,0.045,-0.095
9.047,0.030,-0.095
9.050,0.030,-0.070
9.053,0.050,-0.050
9.056,0.050,-0.035
9.058,0.070,-0.025
9.061,0.065,-0.025
9.064,0.080,-0.030
9.067,0.080,-0.005
9.069,0.100,0.030
9.072,0.120,0.055
9.075,0.120,0.060
9.078,0.105,0.065
9.081,0.110,0.075
9.083,0.105,0.100
9.086,0.120,0.130
9.089,0.145,0.170
9.092,0.140,0.170
9.094,0.130,0.170
9.097,0.135,0.185
9.100,0.140,0.195
9.103,0.135,0.235
9.106,0.145,0.245
9.108,0.155,0.260
9.111,0.140,0.250
9.114,0.120,0.235
9.117,0.100,0.235
9.119,0.090,0.255
9.122,0.100,0.260
9.125,0.090,0.255
9.128,0.080,0.215
9.131,0.060,0.190
9.133,0.030,0.195
9.136,0.030,0.190
9.139,0.040,0.185
9.142,0.025,0.190
9.144,0.005,0.160
9.147,-0.015,0.135
9.150,-0.025,0.125
9.153,-0.035,0.125
9.156,-0.020,0.125
9.158,-0.035,0.110
9.161,-0.040,0.090
9.164,-0.065,0.085
9.167,-0.080,0.080
9.169,-0.070,0.085
9.172,-0.070,0.090
9.175,-0.050,0.065
9.178,-0.070,0.070
9.181,-0.090,0.050
9.183,-0.095,0.050
9.186,-0.110,0.065
9.189,-0.080,0.075
9.192,-0.065,0.070
9.194,-0.085,0.070
9.197,-0.095,0.050
9.200,-0.110,0.060
9.203,-0.100,0.060
9.206,-0.090,0.065
9.208,-0.080,0.065
9.211,-0.095,0.060
9.214,-0.115,0.035
9.217,-0.135,0.050
9.219,-0.125,0.060
9.222,-0.100,0.075
9.225,-0.100,0.060
9.228,-0.100,0.055
9.231,-0.115,0.040
9.233,-0.115,0.050
9.236,-0.125,0.065
9.239,-0.115,0.065
9.242,-0.100,0.050
9.244,-0.110,0.045
9.247,-0.115,0.030
9.250,-0.120,0.030
9.253,-0.120,0.050
9.256,-0.100,0.050
9.258,-0.095,0.040
9.261,-0.105,0.025
9.264,-0.130,0.020
9.267,-0.130,0.020
9.269,-0.135,0.040
9.272,-0.110,0.045
9.275,-0.100,0.040
9.278,-0.120,0.030
9.281,-0.130,0.015
9.283,-0.125,0.030
9.286,-0.115,0.030
9.289,-0.105,0.040
9.292,-0.105,0.025
9.294,-0.125,0.015
9.297,-0.135,0.020
9.300,-0.130,0.010
9.303,-0.130,0.035
9.306,-0.100,0.050
9.308,-0.105,0.045
9.311,-0.125,0.025
9.314,-0.125,0.015
9.317,-0.130,0.030
9.319,-0.130,0.045
9.322,-0.110,0.070
9.325,-0.105,0.065
9.328,-0.110,0.050
9.331,-0.115,0.045
9.333,-0.120,0.040
9.336,-0.120,0.045
9.339,-0.105,0.065
9.342,-0.100,0.065
9.344,-0.110,0.055
9.347,-0.120,0.045
9.350,-0.125,0.055
9.353,-0.115,0.070
9.356,-0.115,0.075
9.358,-0.110,0.055
9.361,-0.110,0.050
9.364,-0.140,0.050
9.367,-0.140,0.055
9.369,-0.135,0.070
9.372,-0.120,0.075
9.375,-0.120,0.065
9.378,-0.130,0.055
9.381,-0.145,0.045
9.383,-0.155,0.045
9.386,-0.145,0.055
9.389,-0.115,0.070
9.392,-0.120,0.065
9.394,-0.125,0.050
9.397,-0.150,0.040
9.400,-0.155,0.035
9.403,-0.140,0.055
9.406,-0.130,0.055
9.408,-0.125,0.055
9.411,-0.140,0.040
9.414,-0.155,0.035
9.417,-0.150,0.035
9.419,-0.150,0.050
9.422,-0.125,0.055
9.425,-0.135,0.040
9.428,-0.160,0.035
9.431,-0.180,0.025
9.433,-0.175,0.035
9.436,-0.165,0.030
9.439,-0.155,0.040
9.442,-0.150,0.050
9.444,-0.165,0.030
9.447,-0.170,0.020
9.450,-0.175,0.025
9.453,-0.170,0.035
9.456,-0.150,0.055
9.458,-0.155,0.035
9.461,-0.165,0.025
9.464,-0.180,0.025
9.467,-0.175,0.025
9.469,-0.165,0.040
9.472,-0.150,0.050
9.475,-0.160,0.035
9.478,-0.155,0.030
9.481,-0.170,0.015
9.483,-0.170,0.025
9.486,-0.170,0.040
9.489,-0.160,0.040
9.492,-0.155,0.040
9.494,-0.165,0.025
9.497,-0.185,0.010
9.500,-0.170,0.020
9.503,-0.165,0.035
9.506,-0.145,0.045
9.508,-0.160,0.040
9.511,-0.165,0.030
9.514,-0.175,0.010
9.517,-0.180,0.020
9.519,-0.190,0.035
9.522,-0.150,0.030
9.525,-0.155,0.030
9.528,-0.160,0.015
9.531,-0.170,0.010
9.533,-0.185,0.015
9.536,-0.165,0.035
9.539,-0.160,0.055
9.542,-0.155,0.040
9.544,-0.160,0.035
9.547,-0.175,0.025
9.550,-0.180,0.030
9.553,-0.175,0.035
9.556,-0.155,0.040
9.558,-0.160,0.035
9.561,-0.160,0.025
9.564,-0.175,0.020
9.567,-0.185,0.030
9.569,-0.175,0.045
9.572,-0.165,0.045
9.575,-0.170,0.050
9.578,-0.180,0.030
9.581,-0.200,0.025
9.583,-0.190,0.020
9.586,-0.190,0.035
9.589,-0.170,0.060
9.592,-0.165,0.050
9.594,-0.165,0.030
9.597,-0.185,0.020
9.600,-0.195,0.035
9.603,-0.175,0.045
9.606,-0.170,0.055
9.608,-0.160,0.055
9.611,-0.155,0.040
9.614,-0.170,0.035
9.617,-0.165,0.025
9.619,-0.175,0.035
9.622,-0.160,0.055
9.625,-0.140,0.050
9.628,-0.160,0.035
9.631,-0.160,0.030
9.633,-0.155,0.045
9.636,-0.150,0.045
9.639,-0.155,0.070
9.642,-0.155,0.065
9.644,-0.155,0.040
9.647,-0.160,0.025
9.650,-0.170,0.045
9.653,-0.160,0.060
9.656,-0.145,0.065
9.658,-0.140,0.065
9.661,-0.145,0.045
9.664,-0.165,0.035
9.667,-0.155,0.050
9.669,-0.130,0.055
9.672,-0.120,0.070
9.675,-0.115,0.080
9.678,-0.110,0.070
9.681,-0.110,0.065
9.683,-0.120,0.085
9.686,-0.105,0.095
9.689,-0.085,0.090
9.692,-0.080,0.090
9.694,-0.075,0.085
9.697,-0.090,0.070
9.700,-0.090,0.090
9.703,-0.085,0.120
9.706,-0.070,0.120
9.708,-0.080,0.120
9.711,-0.095,0.100
9.714,-0.110,0.075
9.717,-0.125,0.080
9.719,-0.125,0.085
9.722,-0.120,0.100
9.725,-0.130,0.080
9.728,-0.155,0.075
9.731,-0.165,0.075
9.733,-0.175,0.075
9.736,-0.170,0.090
9.739,-0.135,0.100
9.742,-0.120,0.095
9.744,-0.150,0.090
9.747,-0.145,0.070
9.750,-0.140,0.085
9.753,-0.140,0.100
9.756,-0.125,0.105
9.758,-0.100,0.100
9.761,-0.110,0.090
9.764,-0.125,0.080
9.767,-0.135,0.055
9.769,-0.140,0.070
9.772,-0.140,0.075
9.775,-0.155,0.075
9.778,-0.170,0.050
9.781,-0.185,0.040
9.783,-0.195,0.045
9.786,-0.180,0.050
9.789,-0.180,0.055
9.792,-0.170,0.040
9.794,-0.175,0.040
9.797,-0.195,0.030
9.800,-0.185,0.040
9.803,-0.180,0.050
9.806,-0.175,0.070
9.808,-0.165,0.065
9.811,-0.165,0.045
9.814,-0.180,0.035
9.817,-0.190,0.040
9.819,-0.180,0.050
9.822,-0.160,0.060
9.825,-0.165,0.050
9.828,-0.165,0.030
9.831,-0.185,0.025
9.833,-0.185,0.035
9.836,-0.185,0.040
9.839,-0.170,0.060
9.842,-0.175,0.050
9.844,-0.185,0.035
9.847,-0.185,0.025
9.850,-0.190,0.040
9.853,-0.190,0.065
9.856,-0.160,0.080
9.858,-0.145,0.070
9.861,-0.165,0.070
9.864,-0.175,0.070
9.867,-0.180,0.095
9.869,-0.170,0.130
9.872,-0.130,0.170
9.875,-0.130,0.220
9.878,-0.095,0.265
9.881,-0.090,0.320
9.883,-0.065,0.390
9.886,-0.045,0.485
9.889,-0.080,0.600
9.892,-0.150,0.740
9.894,-0.215,0.915
9.897,-0.275,1.055
9.900,-0.315,1.225
9.903,-0.390,1.395
9.906,-0.450,1.545
9.908,-0.475,1.730
9.911,-0.455,1.920
9.914,-0.380,2.110
9.917,-0.255,2.165
9.919,-0.120,2.075
9.922,0.020,1.780
9.925,0.105,1.295
9.928,0.050,0.760
9.931,-0.135,0.355
9.933,-0.380,0.145
9.936,-0.545,0.050
9.939,-0.590,0.015
9.942,-0.565,0.015
9.944,-0.510,0.010
9.947,-0.435,0.025
9.950,-0.350,0.020
9.953,-0.225,0.030
9.956,-0.160,0.020
9.958,-0.140,0.005
9.961,-0.145,-0.015
9.964,-0.145,-0.040
9.967,-0.145,-0.040
9.969,-0.140,-0.040
9.972,-0.125,-0.025
9.975,-0.125,-0.045
9.978,-0.110,-0.055
9.981,-0.130,-0.055
9.983,-0.110,-0.055
9.986,-0.120,-0.045
9.989,-0.095,-0.045
9.992,-0.095,-0.050
9.994,-0.095,-0.065
9.997,-0.100,-0.080
10.000,-0.105,-0.050
10.003,-0.080,-0.040
10.006,-0.065,-0.035
10.008,-0.065,-0.045
10.011,-0.080,-0.075
10.014,-0.090,-0.080
10.017,-0.095,-0.075
10.019,-0.080,-0.060
10.022,-0.080,-0.050
10.025,-0.075,-0.075
10.028,-0.070,-0.075
10.031,-0.085,-0.100
10.033,-0.090,-0.085
10.036,-0.085,-0.070
10.039,-0.070,-0.055
10.042,-0.055,-0.080
10.044,-0.065,-0.085
10.047,-0.070,-0.095
10.050,-0.075,-0.080
10.053,-0.060,-0.065
10.056,-0.045,-0.070
10.058,-0.060,-0.075
10.061,-0.070,-0.095
10.064,-0.080,-0.105
10.067,-0.075,-0.085
10.069,-0.060,-0.080
10.072,-0.050,-0.065
10.075,-0.045,-0.075
10.078,-0.055,-0.095
10.081,-0.070,-0.100
10.083,-0.075,-0.095
10.086,-0.035,-0.090
10.089,-0.025,-0.080
10.092,-0.030,-0.080
10.094,-0.050,-0.090
10.097,-0.055,-0.095
10.100,-0.050,-0.085
10.103,-0.025,-0.075
10.106,-0.025,-0.065
10.108,-0.020,-0.070
10.111,-0.030,-0.090
10.114,-0.040,-0.085
10.117,-0.030,-0.085
10.119,-0.030,-0.070
10.122,-0.010,-0.050
10.125,-0.010,-0.060
10.128,0.005,-0.075
10.131,-0.005,-0.080
10.133,-0.005,-0.055
10.136,0.010,-0.040
10.139,0.025,-0.030
10.142,0.035,-0.025
10.144,0.030,-0.045
10.147,0.035,-0.050
10.150,0.015,-0.020
10.153,0.040,0.015
10.156,0.070,0.015
10.158,0.085,0.040
10.161,0.075,0.035
10.164,0.065,0.045
10.167,0.065,0.055
10.169,0.090,0.100
10.172,0.125,0.115
10.175,0.115,0.130
10.178,0.125,0.125
10.181,0.120,0.135
10.183,0.115,0.165
10.186,0.125,0.195
10.189,0.140,0.225
10.192,0.165,0.230
10.194,0.150,0.240
10.197,0.150,0.245
10.200,0.150,0.255
10.203,0.150,0.280
10.206,0.155,0.280
10.208,0.155,0.275
10.211,0.130,0.250
10.214,0.110,0.255
10.217,0.105,0.250
10.219,0.105,0.255
10.222,0.100,0.270
10.225,0.105,0.245
10.228,0.080,0.225
10.231,0.045,0.220
10.233,0.035,0.195
10.236,0.035,0.195
10.239,0.045,0.195
10.242,0.040,0.170
10.244,0.025,0.150
10.247,-0.005,0.130
10.250,-0.015,0.130
10.253,-0.010,0.130
10.256,-0.010,0.135
10.258,-0.015,0.105
10.261,-0.030,0.095
10.264,-0.060,0.070
10.267,-0.070,0.065
10.269,-0.070,0.085
10.272,-0.045,0.110
10.275,-0.055,0.085
10.278,-0.065,0.065
10.281,-0.085,0.050
10.283,-0.090,0.060
10.286,-0.075,0.065
10.289,-0.070,0.070
10.292,-0.075,0.075
10.294,-0.085,0.050
10.297,-0.105,0.040
10.300,-0.115,0.045
10.303,-0.095,0.060
10.306,-0.090,0.070
10.308,-0.095,0.070
10.311,-0.110,0.045
10.314,-0.120,0.030
10.317,-0.115,0.040
10.319,-0.105,0.045
10.322,-0.085,0.055
10.325,-0.080,0.055
10.328,-0.090,0.045
10.331,-0.105,0.040
10.333,-0.110,0.040
10.336,-0.095,0.045
10.339,-0.100,0.045
10.342,-0.095,0.050
10.344,-0.100,0.030
10.347,-0.130,0.015
10.350,-0.150,0.030
10.353,-0.125,0.035
10.356,-0.115,0.055
10.358,-0.100,0.035
10.361,-0.125,0.010
10.364,-0.130,0.015
10.367,-0.130,0.025
10.369,-0.120,0.025
10.372,-0.115,0.025
10.375,-0.100,0.020
10.378,-0.120,0.000
10.381,-0.135,-0.005
10.383,-0.130,-0.005
10.386,-0.125,0.005
10.389,-0.120,0.020
10.392,-0.110,0.005
10.394,-0.120,-0.005
10.397,-0.135,-0.010
10.400,-0.145,0.005
10.403,-0.130,0.010
10.406,-0.120,0.020
10.408,-0.105,0.005
10.411,-0.125,-0.005
10.414,-0.135,0.000
10.417,-0.140,0.000
10.419,-0.125,0.020
10.422,-0.120,0.035
10.425,-0.110,0.020
10.428,-0.115,0.005
10.431,-0.135,0.000
10.433,-0.140,0.010
10.436,-0.130,0.015
10.439,-0.110,0.025
10.442,-0.120,0.010
10.444,-0.120,0.010
10.447,-0.140,0.015
10.450,-0.135,0.015
10.453,-0.120,0.025
10.456,-0.110,0.030
10.458,-0.105,0.025
10.461,-0.120,0.010
10.464,-0.130,0.005
10.467,-0.160,0.015
10.469,-0.135,0.025
10.472,-0.125,0.035
10.475,-0.120,0.010
10.478,-0.135,0.010
10.481,-0.155,-0.010
10.483,-0.160,0.015
10.486,-0.160,0.035
10.489,-0.130,0.035
10.492,-0.140,0.030
10.494,-0.140,0.020
10.497,-0.155,0.000
10.500,-0.175,0.000
10.503,-0.160,0.020
10.506,-0.135,0.015
10.508,-0.135,0.015
10.511,-0.150,0.005
10.514,-0.155,-0.005
10.517,-0.160,0.000
10.519,-0.160,0.015
10.522,-0.150,0.020
10.525,-0.145,0.015
10.528,-0.150,0.010
10.531,-0.155,0.000
10.533,-0.160,0.000
10.536,-0.155,0.020
10.539,-0.145,0.020
10.542,-0.140,0.005
10.544,-0.155,-0.010
10.547,-0.170,-0.005
10.550,-0.185,-0.010
10.553,-0.175,-0.005
10.556,-0.160,0.015
10.558,-0.150,0.005
10.561,-0.155,-0.010
10.564,-0.185,-0.025
10.567,-0.190,-0.010
10.569,-0.175,-0.005
10.572,-0.155,0.005
10.575,-0.150,-0.005
10.578,-0.160,-0.015
10.581,-0.175,-0.020
10.583,-0.200,-0.005
10.586,-0.175,0.005
10.589,-0.160,0.000
10.592,-0.155,-0.015
10.594,-0.170,-0.025
10.597,-0.180,-0.025
10.600,-0.195,-0.015
10.603,-0.190,0.005
10.606,-0.165,0.010
10.608,-0.155,0.000
10.611,-0.170,-0.005
10.614,-0.180,-0.025
10.617,-0.190,-0.020
10.619,-0.175,-0.010
10.622,-0.155,0.000
10.625,-0.165,0.005
10.628,-0.185,-0.015
10.631,-0.180,-0.025
10.633,-0.180,-0.025
10.636,-0.175,-0.005
10.639,-0.170,-0.005
10.642,-0.160,-0.005
10.644,-0.180,-0.010
10.647,-0.180,-0.020
10.650,-0.205,-0.005
10.653,-0.180,0.005
10.656,-0.165,0.010
10.658,-0.160,-0.015
10.661,-0.180,-0.025
10.664,-0.205,-0.015
10.667,-0.195,-0.020
10.669,-0.190,-0.015
10.672,-0.190,0.010
10.675,-0.175,-0.005
10.678,-0.185,-0.035
10.681,-0.195,-0.030
10.683,-0.185,-0.025
10.686,-0.180,-0.010
10.689,-0.165,-0.010
10.692,-0.165,-0.020
10.694,-0.185,-0.045
10.697,-0.190,-0.050
10.700,-0.210,-0.035
10.703,-0.195,-0.015
10.706,-0.175,-0.010
10.708,-0.165,-0.010
10.711,-0.175,-0.035
10.714,-0.185,-0.035
10.717,-0.190,-0.025
10.719,-0.175,-0.020
10.722,-0.190,-0.005
10.725,-0.185,-0.015
10.728,-0.195,-0.025
10.731,-0.205,-0.040
10.733,-0.200,-0.035
10.736,-0.190,-0.010
10.739,-0.175,0.005
10.742,-0.165,0.005
10.744,-0.180,-0.025
10.747,-0.190,-0.030
10.750,-0.180,-0.030
10.753,-0.180,-0.015
10.756,-0.145,-0.005
10.758,-0.135,0.000
10.761,-0.140,0.005
10.764,-0.145,0.005
10.767,-0.140,0.000
10.769,-0.135,0.020
10.772,-0.125,0.025
10.775,-0.115,0.025
10.778,-0.125,0.025
10.781,-0.135,0.015
10.783,-0.135,0.035
10.786,-0.125,0.065
10.789,-0.105,0.065
10.792,-0.105,0.055
10.794,-0.125,0.040
10.797,-0.130,0.025
10.800,-0.130,0.035
10.803,-0.140,0.030
10.806,-0.130,0.035
10.808,-0.145,0.045
10.811,-0.150,0.025
10.814,-0.170,0.030
10.817,-0.175,0.035
10.819,-0.155,0.035
10.822,-0.150,0.030
10.825,-0.145,0.030
10.828,-0.150,0.030
10.831,-0.165,0.020
10.833,-0.165,0.035
10.836,-0.145,0.045
10.839,-0.145,0.055
10.842,-0.135,0.040
10.844,-0.130,0.030
10.847,-0.140,0.010
10.850,-0.150,0.010
10.853,-0.145,-0.005
10.856,-0.165,-0.005
10.858,-0.175,-0.005
10.861,-0.195,-0.005
10.864,-0.220,-0.015
10.867,-0.235,-0.005
10.869,-0.200,0.005
10.872,-0.195,0.005
10.875,-0.180,0.005
10.878,-0.200,-0.005
10.881,-0.205,-0.010
10.883,-0.210,0.000
10.886,-0.195,0.010
10.889,-0.190,0.005
10.892,-0.190,0.000
10.894,-0.190,-0.010
10.897,-0.215,-0.015
10.900,-0.215,-0.025
10.903,-0.195,-0.005
10.906,-0.190,-0.005
10.908,-0.185,-0.010
10.911,-0.205,-0.025
10.914,-0.210,-0.035
10.917,-0.225,-0.025
10.919,-0.215,0.005
10.922,-0.190,0.015
10.925,-0.190,0.000
10.928,-0.195,-0.015
10.931,-0.220,-0.025
10.933,-0.230,-0.020
10.936,-0.210,-0.005
10.939,-0.225,0.005
10.942,-0.220,-0.005
10.944,-0.225,-0.010
10.947,-0.225,-0.015
10.950,-0.205,0.010
10.953,-0.190,0.040
10.956,-0.180,0.055
10.958,-0.170,0.075
10.961,-0.165,0.080
10.964,-0.160,0.115
10.967,-0.145,0.185
10.969,-0.115,0.245
10.972,-0.080,0.295
10.975,-0.075,0.345
10.978,-0.115,0.415
10.981,-0.190,0.525
10.983,-0.240,0.675
10.986,-0.290,0.840
10.989,-0.335,0.985
10.992,-0.395,1.115
10.994,-0.500,1.235
10.997,-0.580,1.375
11.000,-0.600,1.550
11.003,-0.555,1.755
11.006,-0.440,1.925
11.008,-0.320,1.965
11.011,-0.215,1.875
11.014,-0.090,1.605
11.017,-0.025,1.165
11.019,-0.010,0.685
11.022,-0.125,0.345
11.025,-0.340,0.140
11.028,-0.530,0.005
11.031,-0.610,-0.050
11.033,-0.605,-0.065
11.036,-0.560,-0.030
11.039,-0.475,-0.015
11.042,-0.390,-0.020
11.044,-0.325,-0.020
11.047,-0.260,-0.060
11.050,-0.235,-0.040
11.053,-0.210,-0.045
11.056,-0.180,-0.040
11.058,-0.185,-0.075
11.061,-0.175,-0.100
11.064,-0.195,-0.110
11.067,-0.195,-0.115
11.069,-0.175,-0.110
11.072,-0.150,-0.100
11.075,-0.155,-0.110
11.078,-0.180,-0.130
11.081,-0.165,-0.135
11.083,-0.160,-0.135
11.086,-0.140,-0.115
11.089,-0.125,-0.120
11.092,-0.120,-0.110
11.094,-0.135,-0.120
11.097,-0.140,-0.130
11.100,-0.165,-0.130
11.103,-0.150,-0.120
11.106,-0.145,-0.115
11.108,-0.130,-0.120
11.111,-0.120,-0.145
11.114,-0.135,-0.145
11.117,-0.145,-0.140
11.119,-0.135,-0.135
11.122,-0.130,-0.130
11.125,-0.110,-0.130
11.128,-0.125,-0.150
11.131,-0.130,-0.165
11.133,-0.125,-0.150
11.136,-0.125,-0.140
11.139,-0.120,-0.145
11.142,-0.105,-0.150
11.144,-0.125,-0.170
11.147,-0.150,-0.180
11.150,-0.140,-0.165
11.153,-0.130,-0.145
11.156,-0.115,-0.140
11.158,-0.110,-0.145
11.161,-0.115,-0.150
11.164,-0.125,-0.160
11.167,-0.130,-0.165
11.169,-0.110,-0.160
11.172,-0.110,-0.145
11.175,-0.105,-0.175
11.178,-0.120,-0.175
11.181,-0.145,-0.180
11.183,-0.130,-0.170
11.186,-0.115,-0.145
11.189,-0.095,-0.150
11.192,-0.095,-0.160
11.194,-0.095,-0.175
11.197,-0.115,-0.185
11.200,-0.130,-0.180
11.203,-0.100,-0.180
11.206,-0.090,-0.170
11.208,-0.090,-0.165
11.211,-0.105,-0.165
11.214,-0.115,-0.170
11.217,-0.105,-0.170
11.219,-0.095,-0.150
11.222,-0.070,-0.140
11.225,-0.070,-0.140
11.228,-0.075,-0.170
11.231,-0.065,-0.160
11.233,-0.070,-0.155
11.236,-0.065,-0.130
11.239,-0.035,-0.130
11.242,-0.030,-0.130
11.244,-0.020,-0.135
11.247,-0.055,-0.145
11.250,-0.050,-0.140
11.253,-0.025,-0.125
11.256,-0.025,-0.110
11.258,-0.035,-0.090
11.261,-0.020,-0.100
11.264,-0.030,-0.095
11.267,-0.035,-0.080
11.269,-0.010,-0.070
11.272,0.005,-0.045
11.275,0.000,-0.045
11.278,0.005,-0.035
11.281,0.000,-0.030
11.283,0.005,-0.015
11.286,0.025,0.010
11.289,0.040,0.035
11.292,0.045,0.050
11.294,0.025,0.075
11.297,0.025,0.080
11.300,0.030,0.105
11.303,0.020,0.130
11.306,0.045,0.145
11.308,0.045,0.160
11.311,0.045,0.170
11.314,0.015,0.175
11.317,0.010,0.185
11.319,0.025,0.190
11.322,0.030,0.180
11.325,0.025,0.170
11.328,0.005,0.155
11.331,-0.040,0.145
11.333,-0.030,0.150
11.336,-0.035,0.155
11.339,-0.025,0.150
11.342,-0.030,0.135
11.344,-0.050,0.095
11.347,-0.080,0.080
11.350,-0.095,0.080
11.353,-0.090,0.085
11.356,-0.085,0.070
11.358,-0.090,0.050
11.361,-0.110,0.030
11.364,-0.140,0.025
11.367,-0.150,0.025
11.369,-0.140,0.040
11.372,-0.120,0.045
11.375,-0.125,0.030
11.378,-0.145,0.000
11.381,-0.170,-0.015
11.383,-0.170,-0.010
11.386,-0.170,0.025
11.389,-0.145,0.030
11.392,-0.145,0.025
11.394,-0.175,-0.010
11.397,-0.180,-0.015
11.400,-0.180,-0.005
11.403,-0.170,0.010
11.406,-0.165,0.015
11.408,-0.160,0.015
11.411,-0.175,-0.005
11.414,-0.195,0.000
11.417,-0.200,-0.015
11.419,-0.185,0.000
11.422,-0.185,0.020
11.425,-0.175,0.005
11.428,-0.185,-0.010
11.431,-0.190,-0.025
11.433,-0.190,-0.025
11.436,-0.185,-0.010
11.439,-0.175,-0.015
11.442,-0.175,-0.015
11.444,-0.180,-0.020
11.447,-0.210,-0.035
11.450,-0.210,-0.035
11.453,-0.185,-0.030
11.456,-0.185,-0.010
11.458,-0.180,-0.025
11.461,-0.180,-0.045
11.464,-0.190,-0.050
11.467,-0.200,-0.045
11.469,-0.205,-0.035
11.472,-0.190,-0.020
11.475,-0.185,-0.025
11.478,-0.180,-0.045
11.481,-0.200,-0.040
11.483,-0.205,-0.045
11.486,-0.185,-0.035
11.489,-0.180,-0.030
11.492,-0.190,-0.035
11.494,-0.200,-0.050
11.497,-0.205,-0.060
11.500,-0.190,-0.055
11.503,-0.200,-0.035
11.506,-0.195,-0.020
11.508,-0.200,-0.030
11.511,-0.180,-0.045
11.514,-0.195,-0.045
11.517,-0.195,-0.040
11.519,-0.195,-0.025
11.522,-0.185,-0.010
11.525,-0.185,-0.015
11.528,-0.190,-0.035
11.531,-0.195,-0.040
11.533,-0.195,-0.045
11.536,-0.195,-0.040
11.539,-0.180,-0.030
11.542,-0.180,-0.025
11.544,-0.200,-0.055
11.547,-0.210,-0.050
11.550,-0.195,-0.030
11.553,-0.200,-0.025
11.556,-0.190,-0.020
11.558,-0.185,-0.020
11.561,-0.210,-0.050
11.564,-0.210,-0.070
11.567,-0.225,-0.055
11.569,-0.205,-0.030
11.572,-0.205,-0.020
11.575,-0.205,-0.045
11.578,-0.195,-0.045
11.581,-0.245,-0.055
11.583,-0.230,-0.050
11.586,-0.225,-0.035
11.589,-0.215,-0.030
11.592,-0.210,-0.045
11.594,-0.220,-0.065
11.597,-0.245,-0.070
11.600,-0.235,-0.050
11.603,-0.240,-0.040
11.606,-0.215,-0.035
11.608,-0.220,-0.045
11.611,-0.220,-0.050
11.614,-0.235,-0.070
11.617,-0.245,-0.050
11.619,-0.235,-0.035
11.622,-0.220,-0.035
11.625,-0.225,-0.045
11.628,-0.230,-0.060
11.631,-0.245,-0.075
11.633,-0.250,-0.060
11.636,-0.245,-0.045
11.639,-0.230,-0.040
11.642,-0.225,-0.035
11.644,-0.240,-0.050
11.647,-0.245,-0.065
11.650,-0.245,-0.055
11.653,-0.235,-0.055
11.656,-0.220,-0.030
11.658,-0.225,-0.045
11.661,-0.235,-0.055
11.664,-0.250,-0.070
11.667,-0.250,-0.060
11.669,-0.235,-0.040
11.672,-0.225,-0.025
11.675,-0.220,-0.040
11.678,-0.235,-0.055
11.681,-0.275,-0.065
11.683,-0.265,-0.050
11.686,-0.235,-0.045
11.689,-0.230,-0.030
11.692,-0.240,-0.050
11.694,-0.245,-0.055
11.697,-0.275,-0.060
11.700,-0.245,-0.055
11.703,-0.250,-0.030
11.706,-0.225,-0.025
11.708,-0.225,-0.040
11.711,-0.245,-0.040
11.714,-0.250,-0.045
11.717,-0.255,-0.030
11.719,-0.250,-0.035
11.722,-0.245,-0.030
11.725,-0.235,-0.035
11.728,-0.245,-0.055
11.731,-0.250,-0.065
11.733,-0.250,-0.055
11.736,-0.240,-0.030
11.739,-0.230,-0.030
11.742,-0.220,-0.040
11.744,-0.240,-0.050
11.747,-0.245,-0.050
11.750,-0.260,-0.050
11.753,-0.240,-0.045
11.756,-0.220,-0.020
11.758,-0.225,-0.040
11.761,-0.230,-0.050
11.764,-0.260,-0.055
11.767,-0.245,-0.055
11.769,-0.235,-0.040
11.772,-0.230,-0.020
11.775,-0.225,-0.045
11.778,-0.225,-0.040
11.781,-0.235,-0.050
11.783,-0.240,-0.035
11.786,-0.215,-0.030
11.789,-0.215,-0.035
11.792,-0.205,-0.030
11.794,-0.220,-0.045
11.797,-0.250,-0.060
11.800,-0.245,-0.045
11.803,-0.230,-0.035
11.806,-0.210,-0.025
11.808,-0.220,-0.035
11.811,-0.240,-0.050
11.814,-0.235,-0.055
11.817,-0.250,-0.050
11.819,-0.230,-0.040
11.822,-0.220,-0.035
11.825,-0.220,-0.040
11.828,-0.235,-0.055
11.831,-0.250,-0.055
11.833,-0.250,-0.030
11.836,-0.230,-0.030
11.839,-0.210,-0.025
11.842,-0.215,-0.030
11.844,-0.220,-0.040
11.847,-0.220,-0.050
11.850,-0.210,-0.030
11.853,-0.200,-0.020
11.856,-0.195,-0.005
11.858,-0.180,-0.005
11.861,-0.180,-0.020
11.864,-0.185,-0.015
11.867,-0.185,-0.005
11.869,-0.175,0.005
11.872,-0.170,0.025
11.875,-0.155,0.015
11.878,-0.165,0.015
11.881,-0.165,0.000
11.883,-0.160,0.005
11.886,-0.160,0.030
11.889,-0.170,0.025
11.892,-0.155,0.015
11.894,-0.170,0.005
11.897,-0.205,-0.010
11.900,-0.210,-0.015
11.903,-0.195,-0.005
11.906,-0.195,-0.005
11.908,-0.200,-0.020
11.911,-0.220,-0.025
11.914,-0.230,-0.030
11.917,-0.235,-0.020
11.919,-0.220,-0.005
11.922,-0.210,0.010
11.925,-0.210,0.000
11.928,-0.220,-0.010
11.931,-0.215,0.005
11.933,-0.210,0.000
11.936,-0.190,0.005
11.939,-0.170,0.020
11.942,-0.180,0.000
11.944,-0.200,-0.010
11.947,-0.200,-0.030
11.950,-0.215,-0.040
11.953,-0.220,-0.045
11.956,-0.225,-0.030
11.958,-0.240,-0.035
11.961,-0.250,-0.050
11.964,-0.260,-0.055
11.967,-0.265,-0.050
11.969,-0.240,-0.030
11.972,-0.225,-0.035
11.975,-0.230,-0.040
11.978,-0.250,-0.050
11.981,-0.260,-0.065
11.983,-0.270,-0.055
11.986,-0.260,-0.040
11.989,-0.250,-0.030
11.992,-0.245,-0.035
11.994,-0.245,-0.055
11.997,-0.270,-0.060
12.000,-0.255,-0.050
12.003,-0.265,-0.050
12.006,-0.240,-0.035
12.008,-0.245,-0.045
12.011,-0.260,-0.055
12.014,-0.270,-0.070
12.017,-0.265,-0.055
12.019,-0.250,-0.035
12.022,-0.245,-0.030
12.025,-0.250,-0.035
12.028,-0.265,-0.050
12.031,-0.265,-0.040
12.033,-0.250,-0.020
12.036,-0.240,0.000
12.039,-0.215,0.020
12.042,-0.215,0.020
12.044,-0.220,0.035
12.047,-0.215,0.070
12.050,-0.195,0.125
12.053,-0.180,0.210
12.056,-0.140,0.255
12.058,-0.110,0.310
12.061,-0.130,0.360
12.064,-0.210,0.450
12.067,-0.300,0.600
12.069,-0.365,0.780
12.072,-0.395,0.950
12.075,-0.470,1.115
12.078,-0.555,1.265
12.081,-0.655,1.425
12.083,-0.690,1.610
12.086,-0.675,1.850
12.089,-0.570,2.055
12.092,-0.460,2.150
12.094,-0.315,2.090
12.097,-0.195,1.805
12.100,-0.105,1.380
12.103,-0.100,0.885
12.106,-0.220,0.500
12.108,-0.415,0.215
12.111,-0.580,0.040
12.114,-0.660,-0.020
12.117,-0.625,-0.020
12.119,-0.545,0.005
12.122,-0.420,-0.005
12.125,-0.325,-0.025
12.128,-0.260,-0.045
12.131,-0.250,-0.070
12.133,-0.220,-0.070
12.136,-0.205,-0.090
12.139,-0.185,-0.105
12.142,-0.180,-0.115
12.144,-0.190,-0.135
12.147,-0.210,-0.145
12.150,-0.195,-0.135
12.153,-0.195,-0.130
12.156,-0.175,-0.125
12.158,-0.155,-0.140
12.161,-0.170,-0.160
12.164,-0.185,-0.160
12.167,-0.175,-0.150
12.169,-0.160,-0.150
12.172,-0.140,-0.145
12.175,-0.140,-0.160
12.178,-0.140,-0.170
12.181,-0.145,-0.180
12.183,-0.150,-0.170
12.186,-0.145,-0.145
12.189,-0.140,-0.140
12.192,-0.130,-0.160
12.194,-0.135,-0.165
12.197,-0.135,-0.175
12.200,-0.150,-0.175
12.203,-0.135,-0.170
12.206,-0.130,-0.165
12.208,-0.130,-0.165
12.211,-0.130,-0.180
12.214,-0.140,-0.175
12.217,-0.135,-0.185
12.219,-0.130,-0.180
12.222,-0.125,-0.165
12.225,-0.115,-0.180
12.228,-0.130,-0.190
12.231,-0.130,-0.190
12.233,-0.135,-0.185
12.236,-0.120,-0.150
12.239,-0.095,-0.165
12.242,-0.100,-0.170
12.244,-0.100,-0.185
12.247,-0.110,-0.190
12.250,-0.105,-0.190
12.253,-0.100,-0.175
12.256,-0.080,-0.155
12.258,-0.080,-0.160
12.261,-0.090,-0.185
12.264,-0.100,-0.180
12.267,-0.100,-0.175
12.269,-0.090,-0.165
12.272,-0.070,-0.165
12.275,-0.075,-0.165
12.278,-0.080,-0.175
12.281,-0.085,-0.175
12.283,-0.080,-0.165
12.286,-0.070,-0.160
12.289,-0.055,-0.160
12.292,-0.045,-0.165
12.294,-0.050,-0.160
12.297,-0.070,-0.175
12.300,-0.045,-0.150
12.303,-0.035,-0.145
12.306,-0.020,-0.130
12.308,-0.015,-0.150
12.311,-0.020,-0.150
12.314,-0.025,-0.150
12.317,-0.030,-0.125
12.319,-0.015,-0.120
12.322,0.005,-0.095
12.325,0.010,-0.095
12.328,0.005,-0.100
12.331,0.005,-0.110
12.333,0.005,-0.080
12.336,0.025,-0.055
12.339,0.060,-0.040
12.342,0.055,-0.030
12.344,0.050,-0.035
12.347,0.045,-0.020
12.350,0.055,0.005
12.353,0.070,0.035
12.356,0.095,0.055
12.358,0.095,0.070
12.361,0.075,0.075
12.364,0.070,0.070
12.367,0.070,0.110
12.369,0.100,0.135
12.372,0.105,0.165
12.375,0.100,0.180
12.378,0.095,0.175
12.381,0.085,0.180
12.383,0.070,0.200
12.386,0.080,0.215
12.389,0.085,0.240
12.392,0.085,0.230
12.394,0.060,0.225
12.397,0.050,0.210
12.400,0.040,0.230
12.403,0.045,0.230
12.406,0.035,0.220
12.408,0.030,0.210
12.411,0.005,0.180
12.414,-0.015,0.165
12.417,-0.025,0.165
12.419,-0.035,0.170
12.422,-0.045,0.155
12.425,-0.045,0.135
12.428,-0.045,0.110
12.431,-0.080,0.090
12.433,-0.100,0.080
12.436,-0.085,0.090
12.439,-0.075,0.085
12.442,-0.095,0.070
12.444,-0.110,0.050
12.447,-0.130,0.040
12.450,-0.140,0.030
12.453,-0.135,0.045
12.456,-0.120,0.055
12.458,-0.125,0.045
12.461,-0.140,0.020
12.464,-0.150,0.035
12.467,-0.155,0.030
12.469,-0.155,0.050
12.472,-0.150,0.045
12.475,-0.160,0.040
12.478,-0.155,0.025
12.481,-0.175,0.025
12.483,-0.175,0.035
12.486,-0.145,0.045
12.489,-0.135,0.040
12.492,-0.140,0.045
12.494,-0.155,0.035
12.497,-0.175,0.025
12.500,-0.190,0.025
12.503,-0.165,0.050
12.506,-0.145,0.055
12.508,-0.145,0.045
12.511,-0.160,0.035
12.514,-0.175,0.025
12.517,-0.170,0.035
12.519,-0.160,0.030
12.522,-0.145,0.045
12.525,-0.165,0.035
12.528,-0.180,0.020
12.531,-0.170,0.010
12.533,-0.185,0.020
12.536,-0.170,0.030
12.539,-0.145,0.050
12.542,-0.160,0.020
12.544,-0.175,0.010
12.547,-0.175,0.000
12.550,-0.175,0.015
12.553,-0.165,0.015
12.556,-0.160,0.025
12.558,-0.155,0.020
12.561,-0.165,0.015
12.564,-0.170,0.000
12.567,-0.160,0.005
12.569,-0.165,0.030
12.572,-0.140,0.035
12.575,-0.150,0.030
12.578,-0.155,0.020
12.581,-0.165,0.005
12.583,-0.165,0.020
12.586,-0.160,0.040
12.589,-0.140,0.035
12.592,-0.145,0.015
12.594,-0.150,0.025
12.597,-0.165,0.010
12.600,-0.175,0.020
12.603,-0.165,0.045
12.606,-0.150,0.050
12.608,-0.145,0.045
12.611,-0.140,0.030
12.614,-0.175,0.015
12.617,-0.170,0.030
12.619,-0.145,0.035
12.622,-0.140,0.050
12.625,-0.125,0.035
12.628,-0.140,0.025
12.631,-0.155,0.020
12.633,-0.145,0.025
12.636,-0.140,0.035
12.639,-0.135,0.040
12.642,-0.135,0.035
12.644,-0.155,0.030
12.647,-0.160,0.020
12.650,-0.165,0.040
12.653,-0.150,0.040
12.656,-0.140,0.050
12.658,-0.145,0.035
12.661,-0.165,0.020
12.664,-0.185,0.015
12.667,-0.180,0.015
12.669,-0.175,0.035
12.672,-0.160,0.045
12.675,-0.180,0.035
12.678,-0.190,0.015
12.681,-0.200,0.005
12.683,-0.205,0.020
12.686,-0.185,0.020
12.689,-0.180,0.025
12.692,-0.185,0.025
12.694,-0.180,0.010
12.697,-0.200,0.015
12.700,-0.205,0.020
12.703,-0.185,0.025
12.706,-0.165,0.025
12.708,-0.170,0.010
12.711,-0.185,0.010
12.714,-0.195,0.000
12.717,-0.200,0.010
12.719,-0.190,0.025
12.722,-0.185,0.030
12.725,-0.205,0.010
12.728,-0.215,0.005
12.731,-0.215,-0.015
12.733,-0.210,0.000
12.736,-0.210,0.025
12.739,-0.200,0.020
12.742,-0.200,0.010
12.744,-0.215,0.000
12.747,-0.215,-0.010
12.750,-0.200,0.000
12.753,-0.200,0.015
12.756,-0.190,0.010
12.758,-0.205,0.010
12.761,-0.205,-0.005
12.764,-0.225,-0.010
12.767,-0.220,0.005
12.769,-0.205,0.005
12.772,-0.200,0.025
12.775,-0.205,0.010
12.778,-0.195,-0.005
12.781,-0.210,-0.015
12.783,-0.215,0.005
12.786,-0.200,0.025
12.789,-0.190,0.020
12.792,-0.200,0.015
12.794,-0.215,-0.020
12.797,-0.220,-0.005
12.800,-0.220,0.000
12.803,-0.205,0.020
12.806,-0.190,0.015
12.808,-0.185,0.015
12.811,-0.200,0.000
12.814,-0.220,0.000
12.817,-0.235,0.010
12.819,-0.225,0.025
12.822,-0.200,0.020
12.825,-0.205,0.020
12.828,-0.210,-0.005
12.831,-0.225,0.000
12.833,-0.225,0.015
12.836,-0.205,0.010
12.839,-0.185,0.015
12.842,-0.195,0.000
12.844,-0.215,-0.010
12.847,-0.220,-0.020
12.850,-0.225,-0.005
12.853,-0.215,0.015
12.856,-0.195,0.015
12.858,-0.205,0.000
12.861,-0.220,-0.010
12.864,-0.230,-0.010
12.867,-0.225,0.000
12.869,-0.220,0.020
12.872,-0.195,0.020
12.875,-0.210,0.015
12.878,-0.205,-0.010
12.881,-0.225,-0.020
12.883,-0.225,-0.005
12.886,-0.220,0.015
12.889,-0.205,0.015
12.892,-0.205,0.005
12.894,-0.210,-0.005
12.897,-0.230,0.000
12.900,-0.230,0.005
12.903,-0.225,0.010
12.906,-0.205,0.015
12.908,-0.190,0.015
12.911,-0.215,0.015
12.914,-0.220,0.010
12.917,-0.200,0.015
12.919,-0.180,0.040
12.922,-0.155,0.050
12.925,-0.140,0.060
12.928,-0.145,0.060
12.931,-0.165,0.050
12.933,-0.160,0.060
12.936,-0.140,0.080
12.939,-0.130,0.085
12.942,-0.120,0.090
12.944,-0.140,0.070
12.947,-0.145,0.070
12.950,-0.145,0.075
12.953,-0.150,0.065
12.956,-0.145,0.065
12.958,-0.140,0.055
12.961,-0.175,0.040
12.964,-0.195,0.030
12.967,-0.195,0.045
12.969,-0.185,0.060
12.972,-0.165,0.065
12.975,-0.165,0.065
12.978,-0.180,0.075
12.981,-0.185,0.055
12.983,-0.185,0.075
12.986,-0.155,0.075
12.989,-0.130,0.075
12.992,-0.150,0.050
12.994,-0.165,0.020
12.997,-0.205,0.020
13.000,-0.235,0.035
13.003,-0.225,0.045
13.006,-0.205,0.050
13.008,-0.195,0.030
13.011,-0.200,0.015
13.014,-0.215,0.010
13.017,-0.215,0.015
13.019,-0.230,0.035
13.022,-0.205,0.045
13.025,-0.200,0.030
13.028,-0.210,0.010
13.031,-0.230,0.005
13.033,-0.215,0.020
13.036,-0.210,0.035
13.039,-0.205,0.040
13.042,-0.200,0.020
13.044,-0.215,0.010
13.047,-0.225,0.005
13.050,-0.235,0.010
13.053,-0.220,0.020
13.056,-0.205,0.030
13.058,-0.225,0.025
13.061,-0.210,0.015
13.064,-0.230,0.015
13.067,-0.225,0.030
13.069,-0.225,0.035
13.072,-0.205,0.040
13.075,-0.200,0.045
13.078,-0.210,0.035
13.081,-0.220,0.035
13.083,-0.235,0.075
13.086,-0.210,0.100
13.089,-0.180,0.130
13.092,-0.160,0.155
13.094,-0.165,0.190
13.097,-0.160,0.255
13.100,-0.130,0.335
13.103,-0.100,0.410
13.106,-0.085,0.500
13.108,-0.150,0.620
13.111,-0.240,0.785
13.114,-0.310,0.945
13.117,-0.340,1.135
13.119,-0.375,1.320
13.122,-0.435,1.495
13.125,-0.510,1.660
13.128,-0.545,1.840
13.131,-0.510,2.040
13.133,-0.420,2.220
13.136,-0.300,2.300
13.139,-0.155,2.225
13.142,-0.020,1.960
13.144,0.045,1.545
13.147,0.015,1.065
13.150,-0.110,0.655
13.153,-0.315,0.365
13.156,-0.485,0.185
13.158,-0.595,0.065
13.161,-0.610,0.015
13.164,-0.590,0.020
13.167,-0.515,0.050
13.169,-0.420,0.045
13.172,-0.300,0.045
13.175,-0.235,0.020
13.178,-0.225,-0.010
13.181,-0.205,-0.015
13.183,-0.200,-0.040
13.186,-0.190,-0.045
13.189,-0.160,-0.045
13.192,-0.165,-0.065
13.194,-0.180,-0.075
13.197,-0.185,-0.095
13.200,-0.175,-0.080
13.203,-0.155,-0.075
13.206,-0.130,-0.060
13.208,-0.130,-0.075
13.211,-0.150,-0.095
13.214,-0.150,-0.100
13.217,-0.155,-0.100
13.219,-0.135,-0.075
13.222,-0.115,-0.070
13.225,-0.115,-0.075
13.228,-0.115,-0.090
13.231,-0.140,-0.110
13.233,-0.125,-0.100
13.236,-0.125,-0.085
13.239,-0.095,-0.085
13.242,-0.100,-0.095
13.244,-0.110,-0.120
13.247,-0.130,-0.115
13.250,-0.130,-0.110
13.253,-0.125,-0.105
13.256,-0.105,-0.105
13.258,-0.105,-0.105
13.261,-0.110,-0.120
13.264,-0.110,-0.115
13.267,-0.110,-0.115
13.269,-0.105,-0.110
13.272,-0.080,-0.110
13.275,-0.080,-0.125
13.278,-0.090,-0.125
13.281,-0.115,-0.130
13.283,-0.105,-0.125
13.286,-0.095,-0.115
13.289,-0.080,-0.095
13.292,-0.075,-0.125
13.294,-0.080,-0.125
13.297,-0.085,-0.130
13.300,-0.090,-0.125
13.303,-0.080,-0.110
13.306,-0.065,-0.115
13.308,-0.065,-0.115
13.311,-0.085,-0.130
13.314,-0.100,-0.125
13.317,-0.080,-0.125
13.319,-0.070,-0.110
13.322,-0.040,-0.100
13.325,-0.045,-0.110
13.328,-0.055,-0.130
13.331,-0.065,-0.120
13.333,-0.060,-0.115
13.336,-0.055,-0.105
13.339,-0.040,-0.105
13.342,-0.025,-0.100
13.344,-0.035,-0.130
13.347,-0.040,-0.125
13.350,-0.040,-0.110
13.353,-0.025,-0.085
13.356,0.000,-0.090
13.358,-0.015,-0.090
13.361,-0.015,-0.095
13.364,-0.020,-0.105
13.367,-0.015,-0.090
13.369,-0.005,-0.075
13.372,0.020,-0.075
13.375,0.020,-0.075
13.378,0.020,-0.075
13.381,0.000,-0.065
13.383,0.020,-0.050
13.386,0.030,-0.025
13.389,0.060,-0.010
13.392,0.065,0.000
13.394,0.065,-0.005
13.397,0.060,-0.005
13.400,0.070,0.015
13.403,0.070,0.045
13.406,0.105,0.065
13.408,0.100,0.080
13.411,0.105,0.095
13.414,0.100,0.100
13.417,0.110,0.125
13.419,0.120,0.160
13.422,0.140,0.175
13.425,0.140,0.195
13.428,0.130,0.190
13.431,0.130,0.205
13.433,0.130,0.240
13.436,0.140,0.250
13.439,0.160,0.270
13.442,0.145,0.260
13.444,0.120,0.265
13.447,0.110,0.260
13.450,0.090,0.285
13.453,0.105,0.295
13.456,0.115,0.285
13.458,0.085,0.285
13.461,0.065,0.255
13.464,0.050,0.245
13.467,0.035,0.245
13.469,0.045,0.240
13.472,0.045,0.240
13.475,0.025,0.215
13.478,0.000,0.190
13.481,-0.020,0.180
13.483,-0.035,0.170
13.486,-0.030,0.165
13.489,-0.030,0.160
13.492,-0.045,0.140
13.494,-0.070,0.110
13.497,-0.090,0.105
13.500,-0.080,0.115
13.503,-0.080,0.125
13.506,-0.070,0.135
13.508,-0.070,0.110
13.511,-0.095,0.095
13.514,-0.100,0.090
13.517,-0.130,0.095
13.519,-0.125,0.120
13.522,-0.110,0.110
13.525,-0.105,0.095
13.528,-0.115,0.095
13.531,-0.125,0.075
13.533,-0.140,0.090
13.536,-0.130,0.090
13.539,-0.100,0.100
13.542,-0.120,0.075
13.544,-0.130,0.070
13.547,-0.150,0.075
13.550,-0.145,0.080
13.553,-0.120,0.085
13.556,-0.115,0.080
13.558,-0.110,0.075
13.561,-0.125,0.065
13.564,-0.135,0.065
13.567,-0.145,0.065
13.569,-0.130,0.085
13.572,-0.100,0.080
13.575,-0.125,0.070
13.578,-0.135,0.055
13.581,-0.140,0.055
13.583,-0.145,0.055
13.586,-0.130,0.065
13.589,-0.120,0.075
13.592,-0.120,0.060
13.594,-0.130,0.045
13.597,-0.145,0.035
13.600,-0.170,0.045
13.603,-0.150,0.060
13.606,-0.135,0.055
13.608,-0.145,0.055
13.611,-0.155,0.030
13.614,-0.160,0.030
13.617,-0.170,0.035
13.619,-0.145,0.050
13.622,-0.125,0.050
13.625,-0.135,0.040
13.628,-0.145,0.020
13.631,-0.155,0.030
13.633,-0.160,0.030
13.636,-0.155,0.040
13.639,-0.145,0.035
13.642,-0.140,0.035
13.644,-0.150,0.025
13.647,-0.150,0.025
13.650,-0.150,0.035
13.653,-0.135,0.045
13.656,-0.115,0.035
13.658,-0.130,0.035
13.661,-0.135,0.005
13.664,-0.150,0.025
13.667,-0.150,0.035
13.669,-0.135,0.055
13.672,-0.130,0.060
13.675,-0.140,0.045
13.678,-0.135,0.030
13.681,-0.145,0.035
13.683,-0.150,0.050
13.686,-0.135,0.065
13.689,-0.125,0.050
13.692,-0.135,0.050
13.694,-0.140,0.035
13.697,-0.145,0.035
13.700,-0.145,0.060
13.703,-0.130,0.070
13.706,-0.110,0.070
13.708,-0.120,0.060
13.711,-0.135,0.040
13.714,-0.145,0.040
13.717,-0.155,0.045
13.719,-0.135,0.060
13.722,-0.120,0.060
13.725,-0.130,0.040
13.728,-0.140,0.040
13.731,-0.160,0.030
13.733,-0.155,0.040
13.736,-0.155,0.060
13.739,-0.140,0.060
13.742,-0.150,0.045
13.744,-0.165,0.030
13.747,-0.170,0.025
13.750,-0.200,0.035
13.753,-0.170,0.055
13.756,-0.165,0.045
13.758,-0.165,0.035
13.761,-0.180,0.025
13.764,-0.185,0.015
13.767,-0.175,0.025
13.769,-0.170,0.055
13.772,-0.155,0.035
13.775,-0.165,0.030
13.778,-0.185,0.020
13.781,-0.200,0.015
13.783,-0.190,0.015
13.786,-0.175,0.015
13.789,-0.160,0.030
13.792,-0.165,0.020
13.794,-0.190,0.000
13.797,-0.200,0.005
13.800,-0.205,0.020
13.803,-0.195,0.025
13.806,-0.175,0.055
13.808,-0.185,0.025
13.811,-0.190,0.010
13.814,-0.195,0.000
13.817,-0.190,0.020
13.819,-0.190,0.020
13.822,-0.185,0.025
13.825,-0.190,0.020
13.828,-0.195,0.005
13.831,-0.205,-0.010
13.833,-0.205,-0.010
13.836,-0.205,0.015
13.839,-0.190,0.015
13.842,-0.190,0.025
13.844,-0.205,0.010
13.847,-0.200,0.005
13.850,-0.205,0.015
13.853,-0.190,0.020
13.856,-0.180,0.030
13.858,-0.205,0.010
13.861,-0.215,0.005
13.864,-0.220,-0.005
13.867,-0.215,0.005
13.869,-0.200,0.015
13.872,-0.195,0.010
13.875,-0.195,0.000
13.878,-0.200,-0.005
13.881,-0.220,-0.020
13.883,-0.220,-0.005
13.886,-0.205,0.005
13.889,-0.200,0.010
13.892,-0.195,0.005
13.894,-0.215,-0.005
13.897,-0.220,0.000
13.900,-0.210,0.015
13.903,-0.210,0.035
13.906,-0.185,0.020
13.908,-0.190,0.005
13.911,-0.215,0.005
13.914,-0.220,-0.005
13.917,-0.215,0.010
13.919,-0.205,0.025
13.922,-0.190,0.020
13.925,-0.195,0.020
13.928,-0.220,0.005
13.931,-0.220,0.005
13.933,-0.210,0.020
13.936,-0.200,0.035
13.939,-0.195,0.015
13.942,-0.195,0.015
13.944,-0.210,0.000
13.947,-0.215,-0.010
13.950,-0.220,0.000
13.953,-0.205,0.015
13.956,-0.190,0.015
13.958,-0.200,0.005
13.961,-0.210,-0.020
13.964,-0.215,-0.005
13.967,-0.210,0.000
13.969,-0.215,0.005
13.972,-0.195,0.015
13.975,-0.195,-0.015
13.978,-0.195,-0.015
13.981,-0.210,-0.015
13.983,-0.205,0.005
13.986,-0.195,0.020
13.989,-0.185,0.020
13.992,-0.195,0.015
13.994,-0.210,0.000
13.997,-0.230,-0.005
14.000,-0.220,0.030
14.003,-0.210,0.025
14.006,-0.190,0.025
14.008,-0.170,0.015
14.011,-0.185,0.015
14.014,-0.190,0.015
14.017,-0.195,0.025
14.019,-0.165,0.035
14.022,-0.160,0.060
14.025,-0.160,0.045
14.028,-0.160,0.030
14.031,-0.160,0.040
14.033,-0.165,0.060
14.036,-0.150,0.080
14.039,-0.130,0.080
14.042,-0.125,0.070
14.044,-0.135,0.070
14.047,-0.165,0.075
14.050,-0.160,0.075
14.053,-0.135,0.090
14.056,-0.125,0.090
14.058,-0.140,0.065
14.061,-0.160,0.050
14.064,-0.180,0.040
14.067,-0.200,0.050
14.069,-0.195,0.060
14.072,-0.185,0.055
14.075,-0.190,0.050
14.078,-0.200,0.035
14.081,-0.210,0.045
14.083,-0.205,0.045
14.086,-0.190,0.065
14.089,-0.170,0.070
14.092,-0.175,0.075
14.094,-0.175,0.070
14.097,-0.200,0.075
14.100,-0.180,0.070
14.103,-0.165,0.080
14.106,-0.150,0.075
14.108,-0.150,0.070
14.111,-0.170,0.035
14.114,-0.185,0.040
14.117,-0.200,0.040
14.119,-0.200,0.045
14.122,-0.205,0.045
14.125,-0.220,0.025
14.128,-0.235,0.025
14.131,-0.250,0.015
14.133,-0.250,0.035
14.136,-0.225,0.045
14.139,-0.210,0.055
14.142,-0.220,0.050
14.144,-0.225,0.025
14.147,-0.245,0.020
14.150,-0.255,0.025
14.153,-0.250,0.045
14.156,-0.220,0.035
14.158,-0.225,0.020
14.161,-0.235,0.010
14.164,-0.245,0.005
14.167,-0.240,0.020
14.169,-0.240,0.035
14.172,-0.240,0.050
14.175,-0.235,0.025
14.178,-0.230,-0.005
14.181,-0.260,-0.015
14.183,-0.270,0.010
14.186,-0.240,0.025
14.189,-0.210,0.045
14.192,-0.210,0.040
14.194,-0.210,0.035
14.197,-0.230,0.020
14.200,-0.220,0.030
14.203,-0.220,0.050
14.206,-0.205,0.050
14.208,-0.230,0.050
14.211,-0.220,0.040
14.214,-0.235,0.030
14.217,-0.225,0.055
14.219,-0.230,0.085
14.222,-0.215,0.100
14.225,-0.210,0.115
14.228,-0.205,0.130
14.231,-0.190,0.165
14.233,-0.180,0.215
14.236,-0.150,0.285
14.239,-0.125,0.320
14.242,-0.090,0.365
14.244,-0.090,0.415
14.247,-0.130,0.490
14.250,-0.180,0.615
14.253,-0.220,0.760
14.256,-0.245,0.910
14.258,-0.290,1.035
14.261,-0.345,1.165
14.264,-0.440,1.305
14.267,-0.515,1.445
14.269,-0.565,1.615
14.272,-0.555,1.785
14.275,-0.495,1.965
14.278,-0.430,2.090
14.281,-0.325,2.130
14.283,-0.200,2.065
14.286,-0.075,1.860
14.289,0.020,1.495
14.292,0.035,1.055
14.294,-0.065,0.655
14.297,-0.240,0.385
14.300,-0.435,0.195
14.303,-0.550,0.095
14.306,-0.585,0.040
14.308,-0.585,0.015
14.311,-0.570,0.015
14.314,-0.515,0.005
14.317,-0.420,0.030
14.319,-0.330,0.045
14.322,-0.245,0.030
14.325,-0.240,0.005
14.328,-0.230,-0.020
14.331,-0.235,-0.040
14.333,-0.230,-0.045
14.336,-0.215,-0.045
14.339,-0.200,-0.050
14.342,-0.205,-0.065
14.344,-0.210,-0.075
14.347,-0.215,-0.075
14.350,-0.210,-0.080
14.353,-0.195,-0.060
14.356,-0.170,-0.080
14.358,-0.170,-0.095
14.361,-0.175,-0.100
14.364,-0.175,-0.075
14.367,-0.170,-0.080
14.369,-0.170,-0.075
14.372,-0.150,-0.075
14.375,-0.145,-0.090
14.378,-0.165,-0.110
14.381,-0.165,-0.110
14.383,-0.165,-0.105
14.386,-0.165,-0.100
14.389,-0.145,-0.090
14.392,-0.140,-0.095
14.394,-0.150,-0.110
14.397,-0.155,-0.120
14.400,-0.160,-0.105
14.403,-0.145,-0.085
14.406,-0.145,-0.095
14.408,-0.130,-0.125
14.411,-0.150,-0.135
14.414,-0.165,-0.125
14.417,-0.175,-0.110
14.419,-0.155,-0.095
14.422,-0.145,-0.090
14.425,-0.125,-0.105
14.428,-0.145,-0.120
14.431,-0.150,-0.130
14.433,-0.155,-0.125
14.436,-0.150,-0.110
14.439,-0.115,-0.110
14.442,-0.130,-0.105
14.444,-0.140,-0.125
14.447,-0.145,-0.140
14.450,-0.140,-0.130
14.453,-0.140,-0.120
14.456,-0.135,-0.130
14.458,-0.110,-0.135
14.461,-0.130,-0.150
14.464,-0.130,-0.135
14.467,-0.140,-0.135
14.469,-0.140,-0.115
14.472,-0.110,-0.120
14.475,-0.130,-0.115
14.478,-0.140,-0.150
14.481,-0.130,-0.140
14.483,-0.125,-0.145
14.486,-0.105,-0.135
14.489,-0.100,-0.125
14.492,-0.095,-0.125
14.494,-0.115,-0.140
14.497,-0.115,-0.125
14.500,-0.115,-0.125
14.503,-0.085,-0.115
14.506,-0.080,-0.125
14.508,-0.080,-0.125
14.511,-0.100,-0.130
14.514,-0.105,-0.130
14.517,-0.095,-0.130
14.519,-0.075,-0.110
14.522,-0.055,-0.105
14.525,-0.060,-0.120
14.528,-0.065,-0.105
14.531,-0.085,-0.100
14.533,-0.060,-0.100
14.536,-0.045,-0.075
14.539,-0.015,-0.080
14.542,-0.025,-0.075
14.544,-0.045,-0.080
14.547,-0.050,-0.050
14.550,-0.030,-0.030
14.553,0.000,-0.020
14.556,0.015,0.005
14.558,0.015,0.015
14.561,-0.005,0.020
14.564,-0.005,0.035
14.567,0.010,0.060
14.569,0.020,0.085
14.572,0.025,0.100
14.575,0.025,0.105
14.578,0.025,0.120
14.581,0.010,0.140
14.583,0.020,0.175
14.586,0.035,0.205
14.589,0.055,0.215
14.592,0.045,0.220
14.594,0.030,0.205
14.597,0.015,0.220
14.600,0.025,0.250
14.603,0.010,0.275
14.606,0.035,0.270
14.608,0.030,0.260
14.611,0.005,0.235
14.614,-0.025,0.220
14.617,-0.030,0.220
14.619,-0.020,0.225
14.622,-0.025,0.215
14.625,-0.035,0.210
14.628,-0.055,0.195
14.631,-0.085,0.170
14.633,-0.090,0.165
14.636,-0.075,0.160
14.639,-0.095,0.155
14.642,-0.095,0.135
14.644,-0.115,0.115
14.647,-0.140,0.100
14.650,-0.155,0.100
14.653,-0.130,0.105
14.656,-0.140,0.105
14.658,-0.135,0.085
14.661,-0.165,0.060
14.664,-0.190,0.065
14.667,-0.195,0.070
14.669,-0.175,0.085
14.672,-0.160,0.090
14.675,-0.160,0.085
14.678,-0.185,0.060
14.681,-0.195,0.050
14.683,-0.190,0.050
14.686,-0.185,0.055
14.689,-0.185,0.065
14.692,-0.190,0.065
14.694,-0.180,0.055
14.697,-0.210,0.055
14.700,-0.205,0.070
14.703,-0.205,0.080
14.706,-0.185,0.075
14.708,-0.190,0.060
14.711,-0.205,0.035
14.714,-0.205,0.035
14.717,-0.215,0.045
14.719,-0.195,0.070
14.722,-0.180,0.060
14.725,-0.195,0.045
14.728,-0.210,0.035
14.731,-0.210,0.020
14.733,-0.220,0.030
14.736,-0.205,0.035
14.739,-0.200,0.040
14.742,-0.205,0.035
14.744,-0.210,0.015
14.747,-0.205,0.015
14.750,-0.215,0.015
14.753,-0.205,0.030
14.756,-0.190,0.025
14.758,-0.200,0.010
14.761,-0.230,0.000
14.764,-0.240,0.015
14.767,-0.250,0.015
14.769,-0.210,0.035
14.772,-0.200,0.040
14.775,-0.210,0.020
14.778,-0.210,0.015
14.781,-0.225,0.000
14.783,-0.225,0.005
14.786,-0.225,0.015
14.789,-0.215,0.020
14.792,-0.200,0.015
14.794,-0.205,0.005
14.797,-0.215,0.020
14.800,-0.225,0.020
14.803,-0.205,0.030
14.806,-0.195,0.025
14.808,-0.195,0.005
14.811,-0.220,-0.010
14.814,-0.230,0.000
14.817,-0.230,0.020
14.819,-0.220,0.035
14.822,-0.210,0.040
14.825,-0.205,0.020
14.828,-0.225,0.015
14.831,-0.235,0.010
14.833,-0.230,0.025
14.836,-0.210,0.025
14.839,-0.200,0.040
14.842,-0.210,0.035
14.844,-0.215,0.015
14.847,-0.225,0.015
14.850,-0.250,0.030
14.853,-0.220,0.035
14.856,-0.200,0.020
14.858,-0.200,0.025
14.861,-0.225,0.005
14.864,-0.250,0.015
14.867,-0.230,0.020
14.869,-0.215,0.040
14.872,-0.205,0.030
14.875,-0.215,0.020
14.878,-0.230,0.010
14.881,-0.245,0.005
14.883,-0.240,0.020
14.886,-0.225,0.015
14.889,-0.220,0.040
14.892,-0.230,0.025
14.894,-0.235,0.010
14.897,-0.255,0.005
14.900,-0.265,0.025
14.903,-0.255,0.030
14.906,-0.220,0.025
14.908,-0.245,0.015
14.911,-0.245,0.005
14.914,-0.265,0.010
14.917,-0.270,0.025
14.919,-0.250,0.025
14.922,-0.225,0.040
14.925,-0.235,0.030
14.928,-0.250,0.005
14.931,-0.255,0.015
14.933,-0.260,0.015
14.936,-0.265,0.030
14.939,-0.230,0.030
14.942,-0.225,0.015
14.944,-0.255,0.015
14.947,-0.265,0.005
14.950,-0.255,0.015
14.953,-0.245,0.010
14.956,-0.235,0.010
14.958,-0.240,0.010
14.961,-0.270,-0.010
14.964,-0.270,0.000
14.967,-0.270,0.015
14.969,-0.260,0.020
14.972,-0.245,0.020
14.975,-0.260,0.010
14.978,-0.280,0.005
14.981,-0.285,0.000
14.983,-0.275,0.010
14.986,-0.260,0.025
14.989,-0.255,0.015
14.992,-0.265,0.015
14.994,-0.270,0.005
14.997,-0.275,-0.005
15.000,-0.275,-0.005
15.003,-0.250,0.015
15.006,-0.260,0.015
15.008,-0.255,0.000
15.011,-0.275,-0.015
15.014,-0.265,-0.010
15.017,-0.280,0.010
15.019,-0.260,0.010
15.022,-0.230,0.010
15.025,-0.250,0.010
15.028,-0.260,0.005
15.031,-0.265,0.000
15.033,-0.275,0.010
15.036,-0.270,0.010
15.039,-0.255,0.025
15.042,-0.255,0.000
15.044,-0.260,0.000
15.047,-0.275,-0.015
15.050,-0.270,0.005
15.053,-0.265,0.015
15.056,-0.245,0.025
15.058,-0.260,0.015
15.061,-0.270,-0.005
15.064,-0.280,-0.010
15.067,-0.290,0.010
15.069,-0.280,0.020
15.072,-0.250,0.025
15.075,-0.260,0.015
15.078,-0.260,-0.010
15.081,-0.300,0.000
15.083,-0.285,0.005
15.086,-0.280,0.010
15.089,-0.250,0.020
15.092,-0.260,0.015
15.094,-0.265,-0.005
15.097,-0.270,-0.005
15.100,-0.280,0.010
15.103,-0.255,0.010
15.106,-0.240,0.025
15.108,-0.240,0.005
15.111,-0.280,-0.010
15.114,-0.275,-0.005
15.117,-0.280,0.015
15.119,-0.275,0.010
15.122,-0.250,0.020
15.125,-0.245,0.005
15.128,-0.275,0.005
15.131,-0.280,0.000
15.133,-0.265,0.005
15.136,-0.255,0.020
15.139,-0.255,0.015
15.142,-0.250,0.005
15.144,-0.260,-0.005
15.147,-0.285,-0.005
15.150,-0.280,0.000
15.153,-0.270,0.010
15.156,-0.255,0.020
15.158,-0.240,0.005
15.161,-0.245,0.005
15.164,-0.260,0.020
15.167,-0.230,0.025
15.169,-0.225,0.050
15.172,-0.215,0.040
15.175,-0.210,0.035
15.178,-0.230,0.030
15.181,-0.220,0.025
15.183,-0.220,0.040
15.186,-0.205,0.060
15.189,-0.180,0.070
15.192,-0.180,0.050
15.194,-0.190,0.050
15.197,-0.200,0.055
15.200,-0.205,0.065
15.203,-0.205,0.075
15.206,-0.195,0.065
15.208,-0.195,0.050
15.211,-0.230,0.025
15.214,-0.255,0.020
15.217,-0.255,0.030
15.219,-0.240,0.035
15.222,-0.245,0.035
15.225,-0.245,0.030
15.228,-0.250,0.015
15.231,-0.270,0.020
15.233,-0.250,0.030
15.236,-0.235,0.050
15.239,-0.220,0.065
15.242,-0.220,0.045
15.244,-0.240,0.045
15.247,-0.250,0.035
15.250,-0.235,0.045
15.253,-0.220,0.055
15.256,-0.200,0.055
15.258,-0.205,0.040
15.261,-0.215,0.010
15.264,-0.245,-0.005
15.267,-0.265,-0.005
15.269,-0.265,0.005
15.272,-0.265,-0.005
15.275,-0.275,0.005
15.278,-0.295,-0.015
15.281,-0.295,-0.005
15.283,-0.295,-0.005
15.286,-0.280,0.010
15.289,-0.260,0.000
15.292,-0.270,-0.005
15.294,-0.280,-0.025
15.297,-0.305,-0.020
15.300,-0.295,-0.015
15.303,-0.280,-0.005
15.306,-0.265,-0.005
15.308,-0.280,-0.010
15.311,-0.285,-0.020
15.314,-0.300,-0.015
15.317,-0.290,-0.005
15.319,-0.275,-0.005
15.322,-0.260,-0.010
15.325,-0.280,-0.025
15.328,-0.295,-0.025
15.331,-0.295,-0.015
15.333,-0.285,-0.005
15.336,-0.260,0.010
15.339,-0.255,-0.005
15.342,-0.270,-0.005
15.344,-0.280,-0.015
15.347,-0.290,-0.010
15.350,-0.285,0.005
15.353,-0.260,0.030
15.356,-0.250,0.040
15.358,-0.255,0.050
15.361,-0.255,0.050
15.364,-0.255,0.075
15.367,-0.245,0.130
15.369,-0.215,0.185
15.372,-0.190,0.250
15.375,-0.185,0.295
15.378,-0.180,0.340
15.381,-0.215,0.380
15.383,-0.270,0.520
15.386,-0.345,0.670
15.389,-0.410,0.825
15.392,-0.475,0.965
15.394,-0.545,1.105
15.397,-0.645,1.275
15.400,-0.715,1.440
15.403,-0.755,1.620
15.406,-0.725,1.815
15.408,-0.660,2.020
15.411,-0.570,2.145
15.414,-0.470,2.140
15.417,-0.325,1.950
15.419,-0.185,1.605
15.422,-0.135,1.120
15.425,-0.195,0.690
15.428,-0.365,0.385
15.431,-0.550,0.160
15.433,-0.650,0.030
15.436,-0.670,-0.020
15.439,-0.640,-0.015
15.442,-0.585,-0.015
15.444,-0.505,-0.015
15.447,-0.425,-0.030
15.450,-0.320,-0.015
15.453,-0.290,-0.015
15.456,-0.245,-0.020
15.458,-0.235,-0.050
15.461,-0.225,-0.085
15.464,-0.240,-0.100
15.467,-0.245,-0.095
15.469,-0.225,-0.100
15.472,-0.215,-0.105
15.475,-0.200,-0.120
15.478,-0.210,-0.140
15.481,-0.215,-0.130
15.483,-0.205,-0.130
15.486,-0.205,-0.125
15.489,-0.190,-0.115
15.492,-0.190,-0.120
15.494,-0.185,-0.140
15.497,-0.200,-0.150
15.500,-0.180,-0.130
15.503,-0.155,-0.130
15.506,-0.150,-0.130
15.508,-0.155,-0.140
15.511,-0.155,-0.165
15.514,-0.170,-0.160
15.517,-0.160,-0.140
15.519,-0.150,-0.145
15.522,-0.140,-0.145
15.525,-0.130,-0.170
15.528,-0.150,-0.180
15.531,-0.145,-0.180
15.533,-0.145,-0.165
15.536,-0.140,-0.155
15.539,-0.140,-0.155
15.542,-0.135,-0.170
15.544,-0.145,-0.190
15.547,-0.155,-0.190
15.550,-0.150,-0.180
15.553,-0.145,-0.180
15.556,-0.120,-0.170
15.558,-0.135,-0.180
15.561,-0.145,-0.200
15.564,-0.145,-0.190
15.567,-0.145,-0.185
15.569,-0.125,-0.170
15.572,-0.120,-0.175
15.575,-0.125,-0.185
15.578,-0.135,-0.200
15.581,-0.145,-0.200
15.583,-0.135,-0.180
15.586,-0.120,-0.170
15.589,-0.115,-0.155
15.592,-0.120,-0.165
15.594,-0.125,-0.195
15.597,-0.120,-0.190
15.600,-0.105,-0.180
15.603,-0.100,-0.165
15.606,-0.080,-0.165
15.608,-0.075,-0.175
15.611,-0.080,-0.190
15.614,-0.090,-0.170
15.617,-0.095,-0.160
15.619,-0.070,-0.145
15.622,-0.055,-0.160
15.625,-0.055,-0.160
15.628,-0.060,-0.165
15.631,-0.070,-0.170
15.633,-0.055,-0.155
15.636,-0.060,-0.130
15.639,-0.035,-0.125
15.642,-0.030,-0.140
15.644,-0.025,-0.140
15.647,-0.045,-0.135
15.650,-0.030,-0.110
15.653,0.000,-0.080
15.656,0.000,-0.080
15.658,0.005,-0.080
15.661,-0.005,-0.070
15.664,-0.005,-0.060
15.667,0.005,-0.035
15.669,0.025,-0.010
15.672,0.035,0.000
15.675,0.035,0.005
15.678,0.035,0.015
15.681,0.015,0.030
15.683,0.035,0.055
15.686,0.050,0.090
15.689,0.075,0.095
15.692,0.065,0.100
15.694,0.065,0.110
15.697,0.050,0.140
15.700,0.060,0.160
15.703,0.075,0.205
15.706,0.090,0.220
15.708,0.070,0.215
15.711,0.060,0.220
15.714,0.070,0.220
15.717,0.065,0.240
15.719,0.070,0.260
15.722,0.075,0.255
15.725,0.070,0.245
15.728,0.040,0.240
15.731,0.025,0.225
15.733,0.010,0.250
15.736,0.015,0.245
15.739,0.005,0.230
15.742,-0.010,0.215
15.744,-0.020,0.195
15.747,-0.040,0.180
15.750,-0.055,0.185
15.753,-0.050,0.185
15.756,-0.045,0.175
15.758,-0.065,0.145
15.761,-0.090,0.120
15.764,-0.105,0.120
15.767,-0.115,0.115
15.769,-0.115,0.120
15.772,-0.110,0.105
15.775,-0.120,0.100
15.778,-0.135,0.070
15.781,-0.150,0.075
15.783,-0.150,0.075
15.786,-0.145,0.090
15.789,-0.145,0.075
15.792,-0.140,0.080
15.794,-0.170,0.060
15.797,-0.175,0.055
15.800,-0.170,0.065
15.803,-0.165,0.080
15.806,-0.165,0.075
15.808,-0.175,0.060
15.811,-0.185,0.040
15.814,-0.190,0.050
15.817,-0.180,0.060
15.819,-0.165,0.075
15.822,-0.170,0.065
15.825,-0.180,0.055
15.828,-0.170,0.040
15.831,-0.200,0.040
15.833,-0.185,0.055
15.836,-0.190,0.065
15.839,-0.175,0.060
15.842,-0.175,0.060
15.844,-0.175,0.045
15.847,-0.195,0.055
15.850,-0.195,0.055
15.853,-0.170,0.060
15.856,-0.160,0.060
15.858,-0.175,0.045
15.861,-0.190,0.025
15.864,-0.205,0.035
15.867,-0.185,0.035
15.869,-0.165,0.050
15.872,-0.155,0.040
15.875,-0.160,0.040
15.878,-0.185,0.015
15.881,-0.195,0.020
15.883,-0.185,0.030
15.886,-0.185,0.030
15.889,-0.170,0.040
15.892,-0.175,0.025
15.894,-0.190,0.020
15.897,-0.195,0.020
15.900,-0.190,0.035
15.903,-0.160,0.040
15.906,-0.155,0.040
15.908,-0.155,0.020
15.911,-0.175,0.010
15.914,-0.180,0.020
15.917,-0.190,0.035
15.919,-0.170,0.050
15.922,-0.160,0.040
15.925,-0.160,0.035
15.928,-0.165,0.015
15.931,-0.180,0.015
15.933,-0.175,0.030
15.936,-0.165,0.045
15.939,-0.160,0.045
15.942,-0.155,0.035
15.944,-0.170,0.040
15.947,-0.200,0.025
15.950,-0.205,0.035
15.953,-0.175,0.045
15.956,-0.170,0.035
15.958,-0.170,0.025
15.961,-0.190,0.030
15.964,-0.195,0.030
15.967,-0.190,0.035
15.969,-0.175,0.055
15.972,-0.160,0.045
15.975,-0.165,0.035
15.978,-0.195,0.025
15.981,-0.200,0.025
15.983,-0.190,0.035
15.986,-0.180,0.050
15.989,-0.170,0.050
15.992,-0.185,0.045
15.994,-0.200,0.015
15.997,-0.200,0.025
16.000,-0.200,0.030
16.003,-0.190,0.030
16.006,-0.190,0.040
16.008,-0.195,0.035
16.011,-0.200,0.020
16.014,-0.220,0.010
16.017,-0.220,0.020
16.019,-0.220,0.030
16.022,-0.205,0.040
16.025,-0.215,0.020
16.028,-0.240,0.010
16.031,-0.235,0.020
16.033,-0.240,0.030
16.036,-0.210,0.035
16.039,-0.210,0.020
16.042,-0.225,0.010
16.044,-0.225,0.000
16.047,-0.245,-0.010
16.050,-0.255,0.020
16.053,-0.235,0.020
16.056,-0.215,0.020
16.058,-0.225,0.005
16.061,-0.230,0.000
16.064,-0.235,0.000
16.067,-0.260,0.005
16.069,-0.235,0.020
16.072,-0.215,0.015
16.075,-0.220,0.010
16.078,-0.235,0.000
16.081,-0.250,0.000
16.083,-0.260,0.020
16.086,-0.230,0.020
16.089,-0.240,0.015
16.092,-0.245,0.010
16.094,-0.250,-0.005
16.097,-0.260,-0.005
16.100,-0.255,0.020
16.103,-0.240,0.015
16.106,-0.225,0.015
16.108,-0.230,0.010
16.111,-0.240,0.000
16.114,-0.250,0.005
16.117,-0.255,0.020
16.119,-0.240,0.015
16.122,-0.225,0.015
16.125,-0.240,0.005
16.128,-0.245,-0.005
16.131,-0.260,0.015
16.133,-0.260,0.020
16.136,-0.260,0.035
16.139,-0.235,0.025
16.142,-0.250,0.020
16.144,-0.255,-0.005
16.147,-0.270,0.010
16.150,-0.265,0.010
16.153,-0.245,0.035
16.156,-0.230,0.035
16.158,-0.230,0.030
16.161,-0.245,0.005
16.164,-0.255,0.015
16.167,-0.245,0.030
16.169,-0.230,0.040
16.172,-0.220,0.025
16.175,-0.220,0.010
16.178,-0.240,0.000
16.181,-0.245,0.020
16.183,-0.245,0.030
16.186,-0.225,0.050
16.189,-0.220,0.025
16.192,-0.220,0.035
16.194,-0.240,0.010
16.197,-0.260,0.000
16.200,-0.250,0.030
16.203,-0.235,0.045
16.206,-0.225,0.040
16.208,-0.230,0.025
16.211,-0.240,0.025
16.214,-0.240,0.015
16.217,-0.240,0.030
16.219,-0.225,0.045
16.222,-0.220,0.025
16.225,-0.230,0.020
16.228,-0.240,0.010
16.231,-0.250,0.015
16.233,-0.245,0.030
16.236,-0.220,0.045
16.239,-0.195,0.050
16.242,-0.190,0.045
16.244,-0.210,0.030
16.247,-0.200,0.045
16.250,-0.195,0.065
16.253,-0.175,0.075
16.256,-0.155,0.085
16.258,-0.170,0.075
16.261,-0.175,0.060
16.264,-0.180,0.070
16.267,-0.185,0.085
16.269,-0.160,0.095
16.272,-0.145,0.100
16.275,-0.150,0.080
16.278,-0.175,0.075
16.281,-0.190,0.090
16.283,-0.200,0.100
16.286,-0.170,0.100
16.289,-0.170,0.080
16.292,-0.170,0.075
16.294,-0.205,0.045
16.297,-0.225,0.045
16.300,-0.230,0.065
16.303,-0.220,0.080
16.306,-0.205,0.065
16.308,-0.210,0.065
16.311,-0.220,0.055
16.314,-0.235,0.065
16.317,-0.230,0.080
16.319,-0.210,0.100
16.322,-0.205,0.090
16.325,-0.195,0.075
16.328,-0.200,0.065
16.331,-0.215,0.060
16.333,-0.195,0.070
16.336,-0.175,0.080
16.339,-0.180,0.055
16.342,-0.200,0.035
16.344,-0.230,0.010
16.347,-0.255,0.020
16.350,-0.265,0.030
16.353,-0.255,0.045
16.356,-0.245,0.035
16.358,-0.265,0.045
16.361,-0.265,0.025
16.364,-0.265,0.020
16.367,-0.250,0.020
16.369,-0.255,0.035
16.372,-0.250,0.040
16.375,-0.250,0.030
16.378,-0.255,0.010
16.381,-0.265,0.010
16.383,-0.250,0.025
16.386,-0.230,0.035
16.389,-0.225,0.035
16.392,-0.235,0.015
16.394,-0.250,0.015
16.397,-0.265,0.010
16.400,-0.255,0.015
16.403,-0.250,0.030
16.406,-0.240,0.030
16.408,-0.225,0.020
16.411,-0.265,0.000
16.414,-0.270,0.010
16.417,-0.260,0.025
16.419,-0.240,0.015
16.422,-0.245,0.025
16.425,-0.225,0.020
16.428,-0.245,0.020
16.431,-0.260,0.025
16.433,-0.265,0.045
16.436,-0.245,0.055
16.439,-0.215,0.055
16.442,-0.240,0.060
16.444,-0.245,0.060
16.447,-0.235,0.090
16.450,-0.215,0.145
16.453,-0.205,0.205
16.456,-0.185,0.265
16.458,-0.165,0.300
16.461,-0.145,0.360
16.464,-0.150,0.435
16.467,-0.175,0.545
16.469,-0.260,0.710
16.472,-0.300,0.875
16.475,-0.335,1.035
16.478,-0.385,1.175
16.481,-0.460,1.330
16.483,-0.545,1.515
16.486,-0.590,1.680
16.489,-0.570,1.880
16.492,-0.515,2.080
16.494,-0.445,2.205
16.497,-0.320,2.245
16.500,-0.185,2.170
16.503,-0.045,1.890
16.506,0.035,1.465
16.508,0.010,0.990
16.511,-0.150,0.605
16.514,-0.360,0.330
16.517,-0.510,0.175
16.519,-0.590,0.085
16.522,-0.590,0.025
16.525,-0.580,0.015
16.528,-0.560,0.025
16.531,-0.495,0.015
16.533,-0.385,0.030
16.536,-0.315,0.010
16.539,-0.245,0.010
16.542,-0.220,-0.005
16.544,-0.230,-0.035
16.547,-0.225,-0.040
16.550,-0.205,-0.050
16.553,-0.190,-0.055
16.556,-0.175,-0.070
16.558,-0.180,-0.080
16.561,-0.195,-0.105
16.564,-0.200,-0.100
16.567,-0.185,-0.080
16.569,-0.150,-0.070
16.572,-0.125,-0.080
16.575,-0.140,-0.090
16.578,-0.160,-0.100
16.581,-0.150,-0.105
16.583,-0.145,-0.085
16.586,-0.135,-0.085
16.589,-0.120,-0.075
16.592,-0.125,-0.090
16.594,-0.130,-0.100
16.597,-0.125,-0.100
16.600,-0.135,-0.090
16.603,-0.105,-0.080
16.606,-0.100,-0.090
16.608,-0.105,-0.095
16.611,-0.110,-0.115
16.614,-0.135,-0.120
16.617,-0.130,-0.105
16.619,-0.105,-0.100
16.622,-0.125,-0.085
16.625,-0.105,-0.110
16.628,-0.115,-0.125
16.631,-0.125,-0.120
16.633,-0.135,-0.105
16.636,-0.120,-0.090
16.639,-0.100,-0.100
16.642,-0.100,-0.100
16.644,-0.100,-0.115
16.647,-0.115,-0.125
16.650,-0.100,-0.105
16.653,-0.085,-0.095
16.656,-0.075,-0.110
16.658,-0.075,-0.130
16.661,-0.095,-0.130
16.664,-0.110,-0.135
16.667,-0.100,-0.130
16.669,-0.075,-0.110
16.672,-0.060,-0.110
16.675,-0.080,-0.120
16.678,-0.085,-0.135
16.681,-0.085,-0.130
16.683,-0.085,-0.120
16.686,-0.060,-0.105
16.689,-0.050,-0.100
16.692,-0.065,-0.105
16.694,-0.065,-0.130
16.697,-0.075,-0.120
16.700,-0.075,-0.100
16.703,-0.065,-0.095
16.706,-0.060,-0.110
16.708,-0.050,-0.105
16.711,-0.060,-0.110
16.714,-0.060,-0.105
16.717,-0.050,-0.095
16.719,-0.040,-0.070
16.722,-0.020,-0.085
16.725,-0.025,-0.085
16.728,-0.020,-0.110
16.731,-0.030,-0.100
16.733,-0.020,-0.080
16.736,-0.005,-0.055
16.739,0.005,-0.050
16.742,0.010,-0.060
16.744,0.010,-0.065
16.747,-0.010,-0.035
16.750,0.015,-0.020
16.753,0.025,-0.005
16.756,0.045,0.000
16.758,0.055,-0.005
16.761,0.025,0.000
16.764,0.040,0.035
16.767,0.045,0.050
16.769,0.070,0.075
16.772,0.070,0.095
16.775,0.080,0.090
16.778,0.075,0.110
16.781,0.070,0.125
16.783,0.090,0.160
16.786,0.105,0.185
16.789,0.130,0.215
16.792,0.110,0.205
16.794,0.110,0.205
16.797,0.095,0.240
16.800,0.105,0.270
16.803,0.105,0.285
16.806,0.140,0.300
16.808,0.110,0.295
16.811,0.100,0.300
16.814,0.080,0.290
16.817,0.080,0.300
16.819,0.075,0.310
16.822,0.070,0.290
16.825,0.065,0.280
16.828,0.040,0.260
16.831,0.020,0.245
16.833,0.000,0.250
16.836,0.000,0.250
16.839,0.010,0.230
16.842,-0.025,0.220
16.844,-0.065,0.185
16.847,-0.080,0.165
16.850,-0.075,0.170
