'Elapsed time','MLII','V5'
'seconds','mV','mV'
0.000,-0.805,-0.455
0.003,-0.805,-0.455
0.006,-0.805,-0.455
0.008,-0.805,-0.455
0.011,-0.805,-0.455
0.014,-0.805,-0.455
0.017,-0.805,-0.455
0.019,-0.820,-0.455
0.022,-0.835,-0.455
0.025,-0.840,-0.430
0.028,-0.835,-0.435
0.031,-0.845,-0.415
0.033,-0.840,-0.420
0.036,-0.840,-0.405
0.039,-0.855,-0.400
0.042,-0.880,-0.415
0.044,-0.905,-0.420
0.047,-0.940,-0.440
0.050,-0.950,-0.475
0.053,-0.985,-0.485
0.056,-0.980,-0.495
0.058,-1.020,-0.490
0.061,-1.015,-0.495
0.064,-1.020,-0.490
0.067,-1.015,-0.490
0.069,-1.010,-0.475
0.072,-0.990,-0.465
0.075,-0.995,-0.470
0.078,-0.995,-0.485
0.081,-1.010,-0.490
0.083,-1.020,-0.505
0.086,-1.030,-0.515
0.089,-1.040,-0.515
0.092,-1.035,-0.505
0.094,-1.035,-0.515
0.097,-1.040,-0.490
0.100,-1.025,-0.495
0.103,-1.025,-0.470
0.106,-1.005,-0.455
0.108,-1.010,-0.470
0.111,-1.005,-0.455
0.114,-1.010,-0.470
0.117,-1.010,-0.485
0.119,-1.025,-0.480
0.122,-1.030,-0.505
0.125,-1.045,-0.490
0.128,-1.035,-0.495
0.131,-1.035,-0.480
0.133,-1.020,-0.480
0.136,-1.010,-0.470
0.139,-0.995,-0.455
0.142,-0.995,-0.465
0.144,-0.980,-0.455
0.147,-0.965,-0.470
0.150,-0.980,-0.465
0.153,-0.985,-0.495
0.156,-0.980,-0.495
0.158,-0.970,-0.475
0.161,-0.960,-0.480
0.164,-0.935,-0.445
0.167,-0.910,-0.410
0.169,-0.860,-0.335
0.172,-0.745,-0.265
0.175,-0.580,-0.130
0.178,-0.360,0.030
0.181,-0.095,0.185
0.183,0.165,0.305
0.186,0.435,0.385
0.189,0.710,0.405
0.192,0.975,0.445
0.194,1.160,0.460
0.197,1.200,0.460
0.200,1.070,0.415
0.203,0.735,0.305
0.206,0.255,0.140
0.208,-0.310,-0.135
0.211,-0.910,-0.455
0.214,-1.395,-0.815
0.217,-1.660,-1.085
0.219,-1.700,-1.220
0.222,-1.590,-1.170
0.225,-1.395,-1.020
0.228,-1.230,-0.845
0.231,-1.105,-0.720
0.233,-1.065,-0.595
0.236,-1.030,-0.545
0.239,-1.050,-0.545
0.242,-1.050,-0.540
0.244,-1.035,-0.545
0.247,-1.020,-0.540
0.250,-1.020,-0.530
0.253,-0.995,-0.510
0.256,-0.995,-0.505
0.258,-1.000,-0.505
0.261,-1.010,-0.475
0.264,-1.020,-0.490
0.267,-1.005,-0.450
0.269,-1.010,-0.460
0.272,-1.000,-0.440
0.275,-0.990,-0.455
0.278,-0.985,-0.450
0.281,-1.000,-0.475
0.283,-1.000,-0.455
0.286,-0.995,-0.465
0.289,-1.010,-0.475
0.292,-1.010,-0.470
0.294,-1.020,-0.475
0.297,-1.020,-0.455
0.300,-0.990,-0.440
0.303,-0.990,-0.440
0.306,-0.980,-0.435
0.308,-0.970,-0.430
0.311,-0.970,-0.440
0.314,-0.975,-0.440
0.317,-0.990,-0.455
0.319,-0.990,-0.450
0.322,-0.990,-0.460
0.325,-1.010,-0.460
0.328,-1.015,-0.450
0.331,-1.020,-0.425
0.333,-1.005,-0.420
0.336,-1.000,-0.435
0.339,-0.975,-0.415
0.342,-0.980,-0.425
0.344,-0.980,-0.415
0.347,-0.975,-0.420
0.350,-0.990,-0.430
0.353,-0.990,-0.435
0.356,-1.005,-0.430
0.358,-1.000,-0.425
0.361,-1.005,-0.435
0.364,-0.995,-0.410
0.367,-1.000,-0.420
0.369,-0.975,-0.410
0.372,-0.965,-0.410
0.375,-0.960,-0.410
0.378,-0.965,-0.415
0.381,-0.960,-0.420
0.383,-0.960,-0.420
0.386,-0.960,-0.425
0.389,-0.980,-0.415
0.392,-0.975,-0.410
0.394,-0.970,-0.400
0.397,-0.960,-0.385
0.400,-0.945,-0.380
0.403,-0.930,-0.365
0.406,-0.910,-0.345
0.408,-0.910,-0.335
0.411,-0.925,-0.345
0.414,-0.905,-0.330
0.417,-0.910,-0.330
0.419,-0.900,-0.355
0.422,-0.915,-0.360
0.425,-0.910,-0.340
0.428,-0.895,-0.305
0.431,-0.885,-0.315
0.433,-0.865,-0.305
0.436,-0.845,-0.280
0.439,-0.830,-0.265
0.442,-0.810,-0.260
0.444,-0.790,-0.265
0.447,-0.785,-0.265
0.450,-0.770,-0.260
0.453,-0.770,-0.270
0.456,-0.770,-0.280
0.458,-0.760,-0.255
0.461,-0.730,-0.240
0.464,-0.715,-0.215
0.467,-0.690,-0.180
0.469,-0.675,-0.170
0.472,-0.640,-0.150
0.475,-0.625,-0.150
0.478,-0.610,-0.135
0.481,-0.595,-0.135
0.483,-0.585,-0.140
0.486,-0.580,-0.135
0.489,-0.575,-0.130
0.492,-0.565,-0.130
0.494,-0.570,-0.105
0.497,-0.550,-0.110
0.500,-0.540,-0.085
0.503,-0.520,-0.075
0.506,-0.500,-0.070
0.508,-0.495,-0.090
0.511,-0.500,-0.095
0.514,-0.510,-0.095
0.517,-0.545,-0.135
0.519,-0.575,-0.160
0.522,-0.595,-0.165
0.525,-0.620,-0.170
0.528,-0.645,-0.195
0.531,-0.655,-0.210
0.533,-0.670,-0.205
0.536,-0.670,-0.210
0.539,-0.720,-0.225
0.542,-0.725,-0.235
0.544,-0.750,-0.230
0.547,-0.765,-0.275
0.550,-0.785,-0.280
0.553,-0.815,-0.320
0.556,-0.830,-0.350
0.558,-0.870,-0.345
0.561,-0.885,-0.375
0.564,-0.905,-0.370
0.567,-0.910,-0.365
0.569,-0.905,-0.365
0.572,-0.925,-0.370
0.575,-0.910,-0.380
0.578,-0.910,-0.390
0.581,-0.920,-0.415
0.583,-0.940,-0.415
0.586,-0.945,-0.430
0.589,-0.975,-0.445
0.592,-0.980,-0.445
0.594,-0.985,-0.430
0.597,-0.985,-0.440
0.600,-0.965,-0.450
0.603,-0.955,-0.420
0.606,-0.945,-0.430
0.608,-0.940,-0.435
0.611,-0.940,-0.440
0.614,-0.950,-0.420
0.617,-0.960,-0.430
0.619,-0.970,-0.435
0.622,-0.975,-0.450
0.625,-0.970,-0.445
0.628,-0.985,-0.440
0.631,-0.990,-0.435
0.633,-0.990,-0.430
0.636,-0.975,-0.415
0.639,-0.970,-0.400
0.642,-0.945,-0.405
0.644,-0.950,-0.410
0.647,-0.965,-0.415
0.650,-0.965,-0.425
0.653,-0.975,-0.440
0.656,-0.985,-0.445
0.658,-0.985,-0.440
0.661,-0.980,-0.445
0.664,-0.960,-0.435
0.667,-0.960,-0.430
0.669,-0.945,-0.415
0.672,-0.950,-0.390
0.675,-0.935,-0.425
0.678,-0.940,-0.420
0.681,-0.950,-0.410
0.683,-0.955,-0.410
0.686,-0.945,-0.435
0.689,-0.960,-0.435
0.692,-0.965,-0.410
0.694,-0.970,-0.410
0.697,-0.980,-0.415
0.700,-0.965,-0.415
0.703,-0.960,-0.385
0.706,-0.955,-0.380
0.708,-0.930,-0.385
0.711,-0.950,-0.390
0.714,-0.940,-0.400
0.717,-0.950,-0.400
0.719,-0.960,-0.410
0.722,-0.985,-0.415
0.725,-0.990,-0.405
0.728,-0.985,-0.415
0.731,-0.970,-0.410
0.733,-0.960,-0.395
0.736,-0.960,-0.385
0.739,-0.940,-0.395
0.742,-0.940,-0.395
0.744,-0.945,-0.400
0.747,-0.955,-0.420
0.750,-0.965,-0.430
0.753,-0.975,-0.445
0.756,-0.985,-0.445
0.758,-0.990,-0.430
0.761,-0.990,-0.425
0.764,-1.000,-0.415
0.767,-0.995,-0.400
0.769,-0.965,-0.405
0.772,-0.970,-0.390
0.775,-0.955,-0.395
0.778,-0.960,-0.390
0.781,-0.970,-0.400
0.783,-0.985,-0.420
0.786,-0.990,-0.425
0.789,-0.995,-0.435
0.792,-1.010,-0.440
0.794,-1.025,-0.440
0.797,-1.000,-0.420
0.800,-0.990,-0.425
0.803,-0.980,-0.425
0.806,-0.970,-0.395
0.808,-0.980,-0.405
0.811,-0.980,-0.410
0.814,-0.985,-0.450
0.817,-1.015,-0.430
0.819,-1.025,-0.460
0.822,-1.040,-0.465
0.825,-1.035,-0.475
0.828,-1.025,-0.465
0.831,-1.015,-0.455
0.833,-1.020,-0.440
0.836,-1.010,-0.420
0.839,-0.985,-0.405
0.842,-0.980,-0.425
0.844,-0.990,-0.400
0.847,-0.995,-0.420
0.850,-1.015,-0.440
0.853,-1.030,-0.435
0.856,-1.045,-0.460
0.858,-1.045,-0.460
0.861,-1.050,-0.465
0.864,-1.055,-0.445
0.867,-1.040,-0.445
0.869,-1.005,-0.430
0.872,-0.995,-0.415
0.875,-1.010,-0.400
0.878,-1.015,-0.410
0.881,-1.025,-0.430
0.883,-1.035,-0.440
0.886,-1.030,-0.455
0.889,-1.035,-0.455
0.892,-1.025,-0.475
0.894,-1.035,-0.470
0.897,-1.025,-0.450
0.900,-1.030,-0.440
0.903,-1.035,-0.440
0.906,-1.025,-0.430
0.908,-1.005,-0.440
0.911,-1.015,-0.430
0.914,-1.000,-0.430
0.917,-1.015,-0.435
0.919,-1.025,-0.450
0.922,-1.015,-0.440
0.925,-1.020,-0.450
0.928,-1.040,-0.440
0.931,-1.035,-0.440
0.933,-1.025,-0.435
0.936,-1.015,-0.420
0.939,-1.010,-0.425
0.942,-1.000,-0.415
0.944,-1.020,-0.410
0.947,-1.000,-0.420
0.950,-1.020,-0.420
0.953,-1.020,-0.435
0.956,-1.010,-0.440
0.958,-1.030,-0.455
0.961,-1.020,-0.445
0.964,-1.045,-0.445
0.967,-1.045,-0.425
0.969,-1.035,-0.435
0.972,-1.015,-0.425
0.975,-1.015,-0.425
0.978,-1.015,-0.430
0.981,-1.010,-0.435
0.983,-1.000,-0.465
0.986,-1.020,-0.455
0.989,-1.035,-0.485
0.992,-1.040,-0.465
0.994,-1.035,-0.450
0.997,-1.020,-0.445
1.000,-1.010,-0.430
1.003,-1.010,-0.415
1.006,-1.010,-0.410
1.008,-1.005,-0.405
1.011,-1.010,-0.400
1.014,-1.005,-0.420
1.017,-1.015,-0.440
1.019,-1.030,-0.455
1.022,-1.025,-0.435
1.025,-1.040,-0.445
1.028,-1.035,-0.450
1.031,-1.025,-0.435
1.033,-1.025,-0.420
1.036,-1.020,-0.415
1.039,-0.995,-0.400
1.042,-0.985,-0.420
1.044,-0.990,-0.425
1.047,-0.985,-0.420
1.050,-1.005,-0.425
1.053,-1.020,-0.430
1.056,-1.025,-0.450
1.058,-1.030,-0.455
1.061,-1.030,-0.465
1.064,-1.040,-0.450
1.067,-1.015,-0.420
1.069,-1.005,-0.430
1.072,-1.000,-0.405
1.075,-0.980,-0.410
1.078,-0.995,-0.420
1.081,-1.010,-0.420
1.083,-1.030,-0.430
1.086,-1.020,-0.440
1.089,-1.035,-0.430
1.092,-1.050,-0.435
1.094,-1.060,-0.430
1.097,-1.030,-0.425
1.100,-1.025,-0.410
1.103,-1.015,-0.415
1.106,-1.015,-0.415
1.108,-1.015,-0.400
1.111,-1.015,-0.410
1.114,-1.020,-0.420
1.117,-1.020,-0.425
1.119,-1.030,-0.420
1.122,-1.030,-0.445
1.125,-1.035,-0.460
1.128,-1.040,-0.430
1.131,-1.025,-0.425
1.133,-1.025,-0.415
1.136,-1.020,-0.410
1.139,-0.990,-0.400
1.142,-1.005,-0.415
1.144,-0.990,-0.410
1.147,-0.995,-0.405
1.150,-1.010,-0.410
1.153,-1.020,-0.420
1.156,-1.025,-0.430
1.158,-1.025,-0.430
1.161,-1.030,-0.435
1.164,-1.030,-0.420
1.167,-1.030,-0.410
1.169,-1.015,-0.410
1.172,-1.000,-0.375
1.175,-0.995,-0.385
1.178,-1.000,-0.385
1.181,-0.990,-0.400
1.183,-0.995,-0.400
1.186,-1.010,-0.415
1.189,-1.005,-0.415
1.192,-1.005,-0.415
1.194,-1.010,-0.420
1.197,-1.010,-0.420
1.200,-1.010,-0.410
1.203,-1.000,-0.405
1.206,-0.980,-0.405
1.208,-0.965,-0.405
1.211,-0.990,-0.395
1.214,-0.990,-0.405
1.217,-0.990,-0.415
1.219,-0.995,-0.425
1.222,-1.015,-0.430
1.225,-1.010,-0.430
1.228,-1.010,-0.420
1.231,-1.020,-0.405
1.233,-1.005,-0.395
1.236,-0.980,-0.380
1.239,-0.990,-0.375
1.242,-0.970,-0.370
1.244,-0.970,-0.365
1.247,-0.985,-0.380
1.250,-1.005,-0.400
1.253,-0.995,-0.400
1.256,-1.020,-0.395
1.258,-1.030,-0.415
1.261,-1.025,-0.420
1.264,-1.015,-0.410
1.267,-1.010,-0.425
1.269,-0.985,-0.395
1.272,-0.985,-0.385
1.275,-0.970,-0.380
1.278,-0.960,-0.390
1.281,-0.945,-0.395
1.283,-0.960,-0.400
1.286,-0.960,-0.405
1.289,-0.960,-0.405
1.292,-0.945,-0.410
1.294,-0.945,-0.410
1.297,-0.915,-0.410
1.300,-0.900,-0.385
1.303,-0.885,-0.365
1.306,-0.895,-0.350
1.308,-0.885,-0.335
1.311,-0.895,-0.365
1.314,-0.870,-0.365
1.317,-0.845,-0.385
1.319,-0.825,-0.385
1.322,-0.810,-0.385
1.325,-0.785,-0.375
1.328,-0.785,-0.360
1.331,-0.770,-0.345
1.333,-0.780,-0.320
1.336,-0.780,-0.305
1.339,-0.780,-0.310
1.342,-0.805,-0.320
1.344,-0.820,-0.310
1.347,-0.820,-0.305
1.350,-0.830,-0.330
1.353,-0.835,-0.340
1.356,-0.840,-0.345
1.358,-0.860,-0.355
1.361,-0.860,-0.365
1.364,-0.880,-0.335
1.367,-0.910,-0.345
1.369,-0.925,-0.340
1.372,-0.950,-0.330
1.375,-0.955,-0.345
1.378,-0.985,-0.355
1.381,-0.985,-0.380
1.383,-0.995,-0.390
1.386,-1.020,-0.390
1.389,-1.030,-0.415
1.392,-1.055,-0.405
1.394,-1.060,-0.400
1.397,-1.060,-0.400
1.400,-1.045,-0.395
1.403,-1.035,-0.370
1.406,-1.040,-0.370
1.408,-1.025,-0.365
1.411,-1.025,-0.370
1.414,-1.020,-0.385
1.417,-1.035,-0.380
1.419,-1.040,-0.400
1.422,-1.070,-0.415
1.425,-1.065,-0.400
1.428,-1.070,-0.390
1.431,-1.070,-0.385
1.433,-1.060,-0.390
1.436,-1.045,-0.385
1.439,-1.035,-0.375
1.442,-1.040,-0.380
1.444,-1.050,-0.390
1.447,-1.020,-0.390
1.450,-1.020,-0.390
1.453,-1.045,-0.405
1.456,-1.020,-0.400
1.458,-1.050,-0.400
1.461,-1.035,-0.395
1.464,-1.045,-0.385
1.467,-1.020,-0.390
1.469,-1.005,-0.370
1.472,-1.005,-0.365
1.475,-0.975,-0.355
1.478,-0.985,-0.370
1.481,-0.980,-0.370
1.483,-0.980,-0.370
1.486,-0.990,-0.375
1.489,-0.990,-0.365
1.492,-0.995,-0.345
1.494,-0.995,-0.350
1.497,-0.990,-0.315
1.500,-0.975,-0.290
1.503,-0.920,-0.240
1.506,-0.820,-0.165
1.508,-0.665,-0.060
1.511,-0.430,0.095
1.514,-0.160,0.265
1.517,0.100,0.415
1.519,0.370,0.525
1.522,0.650,0.590
1.525,0.895,0.605
1.528,1.100,0.595
1.531,1.130,0.560
1.533,0.970,0.465
1.536,0.630,0.315
1.539,0.155,0.110
1.542,-0.415,-0.185
1.544,-1.005,-0.520
1.547,-1.455,-0.850
1.550,-1.730,-1.080
1.553,-1.805,-1.205
1.556,-1.740,-1.205
1.558,-1.585,-1.085
1.561,-1.430,-0.925
1.564,-1.315,-0.760
1.567,-1.235,-0.640
1.569,-1.190,-0.555
1.572,-1.145,-0.495
1.575,-1.100,-0.465
1.578,-1.070,-0.450
1.581,-1.035,-0.450
1.583,-0.985,-0.445
1.586,-0.985,-0.455
1.589,-1.010,-0.425
1.592,-1.025,-0.425
1.594,-1.025,-0.410
1.597,-1.035,-0.405
1.600,-1.035,-0.380
1.603,-1.020,-0.370
1.606,-1.010,-0.360
1.608,-0.985,-0.335
1.611,-0.985,-0.345
1.614,-0.985,-0.335
1.617,-0.990,-0.360
1.619,-0.995,-0.365
1.622,-1.005,-0.370
1.625,-1.030,-0.370
1.628,-1.020,-0.355
1.631,-1.020,-0.355
1.633,-1.015,-0.340
1.636,-1.005,-0.330
1.639,-1.005,-0.310
1.642,-1.005,-0.310
1.644,-0.995,-0.310
1.647,-0.995,-0.320
1.650,-1.005,-0.325
1.653,-1.020,-0.335
1.656,-1.025,-0.355
1.658,-1.030,-0.360
1.661,-1.030,-0.360
1.664,-1.015,-0.355
1.667,-1.000,-0.345
1.669,-0.980,-0.335
1.672,-0.990,-0.320
1.675,-0.985,-0.305
1.678,-0.995,-0.315
1.681,-0.985,-0.320
1.683,-0.985,-0.310
1.686,-1.005,-0.330
1.689,-1.005,-0.320
1.692,-1.020,-0.330
1.694,-1.025,-0.325
1.697,-1.015,-0.320
1.700,-1.015,-0.305
1.703,-1.000,-0.290
1.706,-1.000,-0.285
1.708,-1.000,-0.280
1.711,-0.985,-0.290
1.714,-0.965,-0.300
1.717,-0.985,-0.310
1.719,-0.995,-0.325
1.722,-0.995,-0.310
1.725,-0.985,-0.320
1.728,-0.985,-0.305
1.731,-0.985,-0.300
1.733,-0.975,-0.295
1.736,-0.960,-0.270
1.739,-0.950,-0.270
1.742,-0.940,-0.270
1.744,-0.940,-0.290
1.747,-0.935,-0.265
1.750,-0.940,-0.275
1.753,-0.930,-0.275
1.756,-0.935,-0.275
1.758,-0.930,-0.270
1.761,-0.920,-0.250
1.764,-0.915,-0.240
1.767,-0.885,-0.225
1.769,-0.895,-0.220
1.772,-0.880,-0.205
1.775,-0.865,-0.190
1.778,-0.870,-0.190
1.781,-0.835,-0.185
1.783,-0.820,-0.195
1.786,-0.820,-0.220
1.789,-0.830,-0.205
1.792,-0.815,-0.200
1.794,-0.840,-0.190
1.797,-0.805,-0.170
1.800,-0.795,-0.160
1.803,-0.755,-0.150
1.806,-0.725,-0.135
1.808,-0.710,-0.115
1.811,-0.695,-0.130
1.814,-0.675,-0.125
1.817,-0.675,-0.120
1.819,-0.680,-0.125
1.822,-0.675,-0.130
1.825,-0.680,-0.135
1.828,-0.655,-0.110
1.831,-0.640,-0.100
1.833,-0.630,-0.070
1.836,-0.610,-0.065
1.839,-0.590,-0.055
1.842,-0.575,-0.050
1.844,-0.570,-0.060
1.847,-0.570,-0.065
1.850,-0.585,-0.080
1.853,-0.595,-0.095
1.856,-0.605,-0.110
1.858,-0.635,-0.120
1.861,-0.645,-0.115
1.864,-0.650,-0.150
1.867,-0.650,-0.135
1.869,-0.650,-0.140
1.872,-0.670,-0.130
1.875,-0.680,-0.150
1.878,-0.710,-0.190
1.881,-0.705,-0.190
1.883,-0.735,-0.215
1.886,-0.765,-0.250
1.889,-0.795,-0.270
1.892,-0.820,-0.290
1.894,-0.825,-0.290
1.897,-0.845,-0.295
1.900,-0.850,-0.310
1.903,-0.860,-0.295
1.906,-0.870,-0.295
1.908,-0.880,-0.295
1.911,-0.875,-0.320
1.914,-0.880,-0.310
1.917,-0.915,-0.330
1.919,-0.925,-0.335
1.922,-0.945,-0.355
1.925,-0.945,-0.365
1.928,-0.975,-0.380
1.931,-0.970,-0.370
1.933,-0.980,-0.365
1.936,-0.965,-0.360
1.939,-0.935,-0.350
1.942,-0.930,-0.355
1.944,-0.935,-0.375
1.947,-0.940,-0.365
1.950,-0.945,-0.380
1.953,-0.945,-0.385
1.956,-0.965,-0.400
1.958,-0.985,-0.405
1.961,-0.990,-0.385
1.964,-0.980,-0.395
1.967,-0.975,-0.400
1.969,-0.960,-0.390
1.972,-0.960,-0.385
1.975,-0.945,-0.380
1.978,-0.945,-0.390
1.981,-0.945,-0.395
1.983,-0.945,-0.405
1.986,-0.960,-0.400
1.989,-0.970,-0.405
1.992,-0.970,-0.400
1.994,-0.980,-0.385
1.997,-0.970,-0.395
2.000,-0.965,-0.390
2.003,-0.945,-0.385
2.006,-0.940,-0.370
2.008,-0.925,-0.370
2.011,-0.925,-0.360
2.014,-0.925,-0.365
2.017,-0.935,-0.395
2.019,-0.950,-0.385
2.022,-0.955,-0.395
2.025,-0.965,-0.400
2.028,-0.955,-0.395
2.031,-0.955,-0.395
2.033,-0.955,-0.390
2.036,-0.950,-0.370
2.039,-0.925,-0.380
2.042,-0.920,-0.355
2.044,-0.900,-0.360
2.047,-0.920,-0.365
2.050,-0.925,-0.395
2.053,-0.925,-0.390
2.056,-0.930,-0.405
2.058,-0.930,-0.390
2.061,-0.940,-0.380
2.064,-0.920,-0.385
2.067,-0.905,-0.375
2.069,-0.900,-0.365
2.072,-0.915,-0.330
2.075,-0.900,-0.330
2.078,-0.890,-0.335
2.081,-0.885,-0.340
2.083,-0.900,-0.355
2.086,-0.905,-0.370
2.089,-0.900,-0.375
2.092,-0.905,-0.375
2.094,-0.920,-0.370
2.097,-0.925,-0.370
2.100,-0.925,-0.355
2.103,-0.915,-0.340
2.106,-0.905,-0.330
2.108,-0.895,-0.335
2.111,-0.900,-0.340
2.114,-0.895,-0.360
2.117,-0.895,-0.370
2.119,-0.900,-0.385
2.122,-0.915,-0.400
2.125,-0.920,-0.410
2.128,-0.935,-0.400
2.131,-0.940,-0.390
2.133,-0.945,-0.390
2.136,-0.935,-0.380
2.139,-0.920,-0.370
2.142,-0.920,-0.355
2.144,-0.925,-0.375
2.147,-0.920,-0.375
2.150,-0.930,-0.385
2.153,-0.935,-0.405
2.156,-0.960,-0.420
2.158,-0.960,-0.410
2.161,-0.965,-0.400
2.164,-0.945,-0.400
2.167,-0.960,-0.390
2.169,-0.950,-0.380
2.172,-0.950,-0.375
2.175,-0.955,-0.380
2.178,-0.950,-0.385
2.181,-0.940,-0.385
2.183,-0.950,-0.405
2.186,-0.970,-0.410
2.189,-0.970,-0.440
2.192,-0.980,-0.430
2.194,-0.980,-0.425
2.197,-0.980,-0.440
2.200,-0.970,-0.435
2.203,-0.965,-0.435
2.206,-0.975,-0.405
2.208,-0.965,-0.410
2.211,-0.975,-0.415
2.214,-0.965,-0.415
2.217,-0.975,-0.430
2.219,-0.980,-0.440
2.222,-0.990,-0.470
2.225,-1.000,-0.465
2.228,-1.015,-0.460
2.231,-1.010,-0.455
2.233,-0.995,-0.440
2.236,-0.975,-0.445
2.239,-0.975,-0.425
2.242,-0.965,-0.425
2.244,-0.960,-0.425
2.247,-0.970,-0.430
2.250,-0.975,-0.445
2.253,-0.970,-0.450
2.256,-1.005,-0.465
2.258,-0.995,-0.480
2.261,-1.005,-0.470
2.264,-1.000,-0.465
2.267,-0.995,-0.475
2.269,-0.970,-0.460
2.272,-0.980,-0.445
2.275,-0.965,-0.435
2.278,-0.965,-0.440
2.281,-0.965,-0.460
2.283,-0.975,-0.455
2.286,-0.990,-0.465
2.289,-1.005,-0.465
2.292,-1.010,-0.470
2.294,-1.015,-0.450
2.297,-1.015,-0.455
2.300,-1.015,-0.440
2.303,-0.985,-0.455
2.306,-0.970,-0.450
2.308,-0.980,-0.445
2.311,-0.980,-0.455
2.314,-0.965,-0.460
2.317,-0.990,-0.465
2.319,-0.985,-0.475
2.322,-1.000,-0.480
2.325,-1.005,-0.480
2.328,-1.000,-0.485
2.331,-1.000,-0.470
2.333,-1.010,-0.460
2.336,-1.005,-0.460
2.339,-0.995,-0.470
2.342,-0.990,-0.455
2.344,-0.965,-0.465
2.347,-0.970,-0.460
2.350,-0.985,-0.475
2.353,-0.980,-0.490
2.356,-1.005,-0.490
2.358,-1.005,-0.495
2.361,-1.015,-0.500
2.364,-1.010,-0.475
2.367,-1.005,-0.465
2.369,-1.000,-0.470
2.372,-0.980,-0.435
2.375,-0.985,-0.440
2.378,-0.985,-0.455
2.381,-0.975,-0.460
2.383,-0.980,-0.470
2.386,-0.990,-0.475
2.389,-0.990,-0.475
2.392,-0.995,-0.495
2.394,-1.005,-0.490
2.397,-1.010,-0.480
2.400,-1.010,-0.470
2.403,-0.995,-0.450
2.406,-1.000,-0.470
2.408,-0.980,-0.450
2.411,-0.970,-0.465
2.414,-0.965,-0.480
2.417,-0.975,-0.465
2.419,-0.995,-0.490
2.422,-1.005,-0.510
2.425,-1.000,-0.500
2.428,-1.000,-0.505
2.431,-1.005,-0.485
2.433,-0.990,-0.480
2.436,-0.985,-0.480
2.439,-0.990,-0.460
2.442,-0.970,-0.445
2.444,-0.980,-0.445
2.447,-0.980,-0.450
2.450,-0.970,-0.470
2.453,-0.995,-0.470
2.456,-1.005,-0.475
2.458,-0.995,-0.490
2.461,-1.010,-0.490
2.464,-1.000,-0.480
2.467,-1.005,-0.470
2.469,-0.995,-0.470
2.472,-0.985,-0.445
2.475,-0.965,-0.445
2.478,-0.970,-0.445
2.481,-0.960,-0.460
2.483,-0.980,-0.470
2.486,-0.985,-0.480
2.489,-0.995,-0.480
2.492,-1.005,-0.505
2.494,-1.000,-0.505
2.497,-1.000,-0.490
2.500,-0.990,-0.480
2.503,-0.975,-0.470
2.506,-0.950,-0.470
2.508,-0.950,-0.450
2.511,-0.955,-0.465
2.514,-0.965,-0.460
2.517,-0.980,-0.460
2.519,-0.980,-0.470
2.522,-0.980,-0.480
2.525,-0.985,-0.485
2.528,-0.995,-0.485
2.531,-0.990,-0.465
2.533,-0.985,-0.465
2.536,-0.960,-0.470
2.539,-0.955,-0.460
2.542,-0.950,-0.435
2.544,-0.955,-0.445
2.547,-0.965,-0.450
2.550,-0.965,-0.460
2.553,-0.965,-0.470
2.556,-0.980,-0.485
2.558,-0.970,-0.475
2.561,-0.985,-0.490
2.564,-0.985,-0.470
2.567,-0.970,-0.475
2.569,-0.960,-0.470
2.572,-0.955,-0.455
2.575,-0.940,-0.445
2.578,-0.940,-0.455
2.581,-0.945,-0.470
2.583,-0.940,-0.465
2.586,-0.950,-0.465
2.589,-0.950,-0.480
2.592,-0.960,-0.475
2.594,-0.970,-0.470
2.597,-0.955,-0.465
2.600,-0.960,-0.460
2.603,-0.930,-0.450
2.606,-0.880,-0.440
2.608,-0.855,-0.430
2.611,-0.850,-0.440
2.614,-0.850,-0.445
2.617,-0.860,-0.450
2.619,-0.875,-0.470
2.622,-0.855,-0.465
2.625,-0.840,-0.470
2.628,-0.840,-0.475
2.631,-0.810,-0.440
2.633,-0.780,-0.430
2.636,-0.745,-0.425
2.639,-0.740,-0.395
2.642,-0.720,-0.400
2.644,-0.740,-0.400
2.647,-0.750,-0.410
2.650,-0.770,-0.420
2.653,-0.795,-0.435
2.656,-0.805,-0.435
2.658,-0.830,-0.415
2.661,-0.820,-0.415
2.664,-0.815,-0.395
2.667,-0.850,-0.385
2.669,-0.820,-0.365
2.672,-0.835,-0.375
2.675,-0.835,-0.365
2.678,-0.850,-0.390
2.681,-0.895,-0.420
2.683,-0.935,-0.430
2.686,-0.965,-0.430
2.689,-0.980,-0.465
2.692,-1.000,-0.470
2.694,-1.005,-0.465
2.697,-1.015,-0.465
2.700,-1.020,-0.460
2.703,-1.025,-0.450
2.706,-1.010,-0.465
2.708,-1.000,-0.455
2.711,-1.005,-0.465
2.714,-1.000,-0.465
2.717,-1.010,-0.470
2.719,-1.005,-0.485
2.722,-1.035,-0.500
2.725,-1.030,-0.505
2.728,-1.035,-0.485
2.731,-1.040,-0.480
2.733,-1.040,-0.470
2.736,-1.035,-0.455
2.739,-1.025,-0.440
2.742,-1.000,-0.450
2.744,-1.015,-0.440
2.747,-0.995,-0.450
2.750,-1.005,-0.450
2.753,-1.025,-0.450
2.756,-1.015,-0.475
2.758,-1.020,-0.485
2.761,-1.025,-0.465
2.764,-1.020,-0.460
2.767,-1.010,-0.465
2.769,-1.000,-0.440
2.772,-0.985,-0.430
2.775,-0.965,-0.440
2.778,-0.970,-0.425
2.781,-0.970,-0.445
2.783,-0.965,-0.465
2.786,-0.975,-0.465
2.789,-0.980,-0.470
2.792,-0.970,-0.470
2.794,-0.970,-0.460
2.797,-0.955,-0.445
2.800,-0.930,-0.440
2.803,-0.915,-0.390
2.806,-0.900,-0.360
2.808,-0.870,-0.330
2.811,-0.795,-0.270
2.814,-0.690,-0.175
2.817,-0.500,-0.060
2.819,-0.290,0.100
2.822,-0.035,0.245
2.825,0.240,0.375
2.828,0.520,0.440
2.831,0.810,0.470
2.833,1.100,0.485
2.836,1.295,0.490
2.839,1.320,0.480
2.842,1.170,0.415
2.844,0.825,0.310
2.847,0.320,0.120
2.850,-0.295,-0.160
2.853,-0.870,-0.500
2.856,-1.340,-0.835
2.858,-1.635,-1.115
2.861,-1.690,-1.230
2.864,-1.585,-1.185
2.867,-1.380,-1.035
2.869,-1.175,-0.850
2.872,-1.055,-0.675
2.875,-0.995,-0.585
2.878,-0.990,-0.525
2.881,-1.015,-0.520
2.883,-1.030,-0.535
2.886,-1.030,-0.530
2.889,-1.030,-0.535
2.892,-1.010,-0.520
2.894,-0.995,-0.495
2.897,-0.980,-0.460
2.900,-0.960,-0.445
2.903,-0.960,-0.430
2.906,-0.965,-0.415
2.908,-0.975,-0.430
2.911,-0.960,-0.415
2.914,-0.960,-0.440
2.917,-0.975,-0.460
2.919,-0.970,-0.435
2.922,-0.965,-0.455
2.925,-0.980,-0.445
2.928,-0.975,-0.450
2.931,-0.955,-0.430
2.933,-0.960,-0.435
2.936,-0.955,-0.425
2.939,-0.940,-0.415
2.942,-0.935,-0.420
2.944,-0.935,-0.415
2.947,-0.945,-0.425
2.950,-0.960,-0.420
2.953,-0.965,-0.430
2.956,-0.975,-0.445
2.958,-0.980,-0.435
2.961,-0.975,-0.425
2.964,-0.975,-0.410
2.967,-0.965,-0.410
2.969,-0.945,-0.395
2.972,-0.960,-0.400
2.975,-0.925,-0.405
2.978,-0.935,-0.405
2.981,-0.935,-0.415
2.983,-0.935,-0.405
2.986,-0.955,-0.405
2.989,-0.960,-0.415
2.992,-0.945,-0.415
2.994,-0.975,-0.415
2.997,-0.960,-0.405
3.000,-0.955,-0.375
3.003,-0.950,-0.385
3.006,-0.925,-0.355
3.008,-0.925,-0.375
3.011,-0.935,-0.380
3.014,-0.925,-0.405
3.017,-0.945,-0.375
3.019,-0.940,-0.400
3.022,-0.930,-0.395
3.025,-0.930,-0.400
3.028,-0.930,-0.395
3.031,-0.920,-0.370
3.033,-0.905,-0.385
3.036,-0.900,-0.345
3.039,-0.885,-0.350
3.042,-0.875,-0.335
3.044,-0.870,-0.330
3.047,-0.870,-0.335
3.050,-0.885,-0.325
3.053,-0.875,-0.340
3.056,-0.870,-0.345
3.058,-0.870,-0.330
3.061,-0.865,-0.340
3.064,-0.855,-0.315
3.067,-0.835,-0.295
3.069,-0.815,-0.290
3.072,-0.790,-0.270
3.075,-0.780,-0.255
3.078,-0.770,-0.265
3.081,-0.770,-0.275
3.083,-0.765,-0.275
3.086,-0.765,-0.290
3.089,-0.750,-0.275
3.092,-0.735,-0.265
3.094,-0.735,-0.245
3.097,-0.720,-0.235
3.100,-0.685,-0.225
3.103,-0.655,-0.200
3.106,-0.635,-0.175
3.108,-0.615,-0.155
3.111,-0.595,-0.160
3.114,-0.590,-0.165
3.117,-0.585,-0.140
3.119,-0.575,-0.160
3.122,-0.565,-0.155
3.125,-0.565,-0.150
3.128,-0.550,-0.120
3.131,-0.535,-0.125
3.133,-0.510,-0.095
3.136,-0.475,-0.085
3.139,-0.465,-0.075
3.142,-0.430,-0.090
3.144,-0.450,-0.075
3.147,-0.435,-0.070
3.150,-0.455,-0.095
3.153,-0.450,-0.095
3.156,-0.455,-0.120
3.158,-0.475,-0.115
3.161,-0.485,-0.120
3.164,-0.495,-0.115
3.167,-0.485,-0.120
3.169,-0.485,-0.140
3.172,-0.490,-0.155
3.175,-0.515,-0.160
3.178,-0.545,-0.170
3.181,-0.580,-0.185
3.183,-0.610,-0.220
3.186,-0.630,-0.265
3.189,-0.665,-0.275
3.192,-0.685,-0.285
3.194,-0.710,-0.290
3.197,-0.725,-0.295
3.200,-0.725,-0.310
3.203,-0.740,-0.320
3.206,-0.740,-0.325
3.208,-0.760,-0.330
3.211,-0.775,-0.355
3.214,-0.785,-0.370
3.217,-0.800,-0.395
3.219,-0.830,-0.410
3.222,-0.855,-0.415
3.225,-0.860,-0.425
3.228,-0.865,-0.425
3.231,-0.860,-0.430
3.233,-0.860,-0.420
3.236,-0.860,-0.425
3.239,-0.845,-0.410
3.242,-0.845,-0.430
3.244,-0.860,-0.430
3.247,-0.870,-0.450
3.250,-0.870,-0.450
3.253,-0.870,-0.470
3.256,-0.880,-0.470
3.258,-0.885,-0.470
3.261,-0.890,-0.465
3.264,-0.890,-0.445
3.267,-0.885,-0.425
3.269,-0.875,-0.425
3.272,-0.865,-0.425
3.275,-0.880,-0.435
3.278,-0.875,-0.435
3.281,-0.880,-0.440
3.283,-0.875,-0.455
3.286,-0.890,-0.455
3.289,-0.890,-0.465
3.292,-0.890,-0.465
3.294,-0.895,-0.450
3.297,-0.890,-0.455
3.300,-0.865,-0.445
3.303,-0.875,-0.440
3.306,-0.860,-0.430
3.308,-0.865,-0.455
3.311,-0.870,-0.435
3.314,-0.860,-0.440
3.317,-0.860,-0.465
3.319,-0.865,-0.470
3.322,-0.865,-0.465
3.325,-0.875,-0.475
3.328,-0.890,-0.460
3.331,-0.885,-0.445
3.333,-0.870,-0.440
3.336,-0.855,-0.440
3.339,-0.845,-0.415
3.342,-0.845,-0.425
3.344,-0.840,-0.415
3.347,-0.855,-0.420
3.350,-0.865,-0.440
3.353,-0.875,-0.460
3.356,-0.875,-0.450
3.358,-0.865,-0.450
3.361,-0.855,-0.450
3.364,-0.860,-0.435
3.367,-0.845,-0.430
3.369,-0.845,-0.410
3.372,-0.835,-0.400
3.375,-0.835,-0.410
3.378,-0.840,-0.405
3.381,-0.835,-0.420
3.383,-0.845,-0.440
3.386,-0.855,-0.445
3.389,-0.860,-0.460
3.392,-0.870,-0.460
3.394,-0.875,-0.455
3.397,-0.865,-0.440
3.400,-0.855,-0.425
3.403,-0.865,-0.425
3.406,-0.860,-0.405
3.408,-0.855,-0.420
3.411,-0.855,-0.415
3.414,-0.855,-0.430
3.417,-0.875,-0.435
3.419,-0.885,-0.440
3.422,-0.895,-0.455
3.425,-0.890,-0.445
3.428,-0.895,-0.445
3.431,-0.895,-0.440
3.433,-0.870,-0.430
3.436,-0.875,-0.410
3.439,-0.865,-0.415
3.442,-0.870,-0.420
3.444,-0.865,-0.415
3.447,-0.875,-0.435
3.450,-0.885,-0.455
3.453,-0.885,-0.465
3.456,-0.915,-0.480
3.458,-0.910,-0.485
3.461,-0.915,-0.470
3.464,-0.915,-0.475
3.467,-0.895,-0.475
3.469,-0.900,-0.450
3.472,-0.885,-0.455
3.475,-0.880,-0.455
3.478,-0.870,-0.455
3.481,-0.890,-0.455
3.483,-0.900,-0.485
3.486,-0.910,-0.490
3.489,-0.910,-0.485
3.492,-0.915,-0.500
3.494,-0.925,-0.505
3.497,-0.920,-0.485
3.500,-0.910,-0.460
3.503,-0.900,-0.445
3.506,-0.895,-0.440
3.508,-0.895,-0.450
3.511,-0.895,-0.455
3.514,-0.890,-0.460
3.517,-0.890,-0.455
3.519,-0.905,-0.460
3.522,-0.920,-0.485
3.525,-0.940,-0.480
3.528,-0.935,-0.480
3.531,-0.950,-0.465
3.533,-0.945,-0.475
3.536,-0.905,-0.455
3.539,-0.900,-0.450
3.542,-0.910,-0.470
3.544,-0.895,-0.465
3.547,-0.905,-0.475
3.550,-0.935,-0.475
3.553,-0.935,-0.500
3.556,-0.930,-0.500
3.558,-0.945,-0.495
3.561,-0.945,-0.475
3.564,-0.930,-0.470
3.567,-0.925,-0.460
3.569,-0.925,-0.455
3.572,-0.905,-0.450
3.575,-0.905,-0.445
3.578,-0.900,-0.455
3.581,-0.905,-0.450
3.583,-0.915,-0.460
3.586,-0.915,-0.470
3.589,-0.925,-0.465
3.592,-0.935,-0.490
3.594,-0.930,-0.475
3.597,-0.940,-0.455
3.600,-0.925,-0.470
3.603,-0.920,-0.465
3.606,-0.915,-0.465
3.608,-0.915,-0.470
3.611,-0.905,-0.465
3.614,-0.910,-0.475
3.617,-0.910,-0.485
3.619,-0.925,-0.490
3.622,-0.925,-0.505
3.625,-0.940,-0.485
3.628,-0.950,-0.490
3.631,-0.925,-0.485
3.633,-0.930,-0.470
3.636,-0.905,-0.465
3.639,-0.905,-0.455
3.642,-0.905,-0.455
3.644,-0.905,-0.465
3.647,-0.900,-0.460
3.650,-0.920,-0.455
3.653,-0.920,-0.470
3.656,-0.930,-0.470
3.658,-0.935,-0.460
3.661,-0.940,-0.465
3.664,-0.930,-0.465
3.667,-0.925,-0.460
3.669,-0.925,-0.460
3.672,-0.920,-0.455
3.675,-0.910,-0.450
3.678,-0.905,-0.450
3.681,-0.905,-0.460
3.683,-0.915,-0.470
3.686,-0.935,-0.475
3.689,-0.930,-0.505
3.692,-0.940,-0.480
3.694,-0.945,-0.495
3.697,-0.940,-0.485
3.700,-0.950,-0.470
3.703,-0.940,-0.465
3.706,-0.940,-0.455
3.708,-0.930,-0.470
3.711,-0.945,-0.450
3.714,-0.920,-0.470
3.717,-0.945,-0.475
3.719,-0.955,-0.480
3.722,-0.955,-0.490
3.725,-0.955,-0.485
3.728,-0.955,-0.470
3.731,-0.955,-0.465
3.733,-0.940,-0.470
3.736,-0.940,-0.455
3.739,-0.935,-0.445
3.742,-0.940,-0.445
3.744,-0.930,-0.455
3.747,-0.920,-0.465
3.750,-0.925,-0.460
3.753,-0.935,-0.485
3.756,-0.935,-0.495
3.758,-0.935,-0.480
3.761,-0.935,-0.495
3.764,-0.945,-0.465
3.767,-0.945,-0.465
3.769,-0.935,-0.470
3.772,-0.930,-0.450
3.775,-0.905,-0.475
3.778,-0.915,-0.465
3.781,-0.915,-0.480
3.783,-0.935,-0.500
3.786,-0.935,-0.510
3.789,-0.945,-0.500
3.792,-0.945,-0.505
3.794,-0.950,-0.490
3.797,-0.955,-0.465
3.800,-0.950,-0.485
3.803,-0.930,-0.455
3.806,-0.905,-0.450
3.808,-0.915,-0.445
3.811,-0.925,-0.455
3.814,-0.925,-0.460
3.817,-0.930,-0.470
3.819,-0.935,-0.475
3.822,-0.950,-0.485
3.825,-0.940,-0.485
3.828,-0.945,-0.490
3.831,-0.955,-0.465
3.833,-0.925,-0.460
3.836,-0.930,-0.460
3.839,-0.915,-0.435
3.842,-0.915,-0.450
3.844,-0.930,-0.460
3.847,-0.915,-0.490
3.850,-0.930,-0.470
3.853,-0.930,-0.510
3.856,-0.935,-0.505
3.858,-0.940,-0.495
3.861,-0.940,-0.510
3.864,-0.930,-0.480
3.867,-0.925,-0.480
3.869,-0.910,-0.450
3.872,-0.910,-0.445
3.875,-0.895,-0.435
3.878,-0.900,-0.440
3.881,-0.910,-0.470
3.883,-0.915,-0.455
3.886,-0.925,-0.465
3.889,-0.940,-0.485
3.892,-0.940,-0.480
3.894,-0.940,-0.470
3.897,-0.930,-0.460
3.900,-0.940,-0.470
3.903,-0.905,-0.440
3.906,-0.895,-0.435
3.908,-0.880,-0.450
3.911,-0.875,-0.460
3.914,-0.890,-0.460
3.917,-0.895,-0.475
3.919,-0.900,-0.480
3.922,-0.895,-0.485
3.925,-0.885,-0.475
3.928,-0.855,-0.480
3.931,-0.835,-0.475
3.933,-0.820,-0.455
3.936,-0.810,-0.460
3.939,-0.795,-0.450
3.942,-0.790,-0.445
3.944,-0.790,-0.435
3.947,-0.785,-0.450
3.950,-0.770,-0.435
3.953,-0.755,-0.450
3.956,-0.730,-0.435
3.958,-0.710,-0.435
3.961,-0.705,-0.410
3.964,-0.695,-0.410
3.967,-0.685,-0.400
3.969,-0.690,-0.380
3.972,-0.695,-0.370
3.975,-0.695,-0.380
3.978,-0.720,-0.375
3.981,-0.735,-0.395
3.983,-0.750,-0.390
3.986,-0.750,-0.405
3.989,-0.765,-0.395
3.992,-0.755,-0.390
3.994,-0.765,-0.375
3.997,-0.770,-0.390
4.000,-0.785,-0.365
4.003,-0.810,-0.395
4.006,-0.840,-0.390
4.008,-0.865,-0.405
4.011,-0.870,-0.420
4.014,-0.895,-0.435
4.017,-0.920,-0.450
4.019,-0.930,-0.470
4.022,-0.940,-0.470
4.025,-0.955,-0.470
4.028,-0.970,-0.465
4.031,-0.970,-0.460
4.033,-0.970,-0.455
4.036,-0.970,-0.425
4.039,-0.950,-0.445
4.042,-0.935,-0.435
4.044,-0.950,-0.445
4.047,-0.950,-0.445
4.050,-0.960,-0.445
4.053,-0.975,-0.470
4.056,-0.980,-0.455
4.058,-0.990,-0.485
4.061,-0.995,-0.450
4.064,-0.975,-0.460
4.067,-0.985,-0.455
4.069,-0.965,-0.455
4.072,-0.950,-0.435
4.075,-0.940,-0.435
4.078,-0.945,-0.455
4.081,-0.955,-0.460
4.083,-0.950,-0.465
4.086,-0.970,-0.470
4.089,-0.975,-0.470
4.092,-0.970,-0.485
4.094,-0.965,-0.460
4.097,-0.985,-0.450
4.100,-0.955,-0.455
4.103,-0.950,-0.440
4.106,-0.945,-0.420
4.108,-0.935,-0.430
4.111,-0.925,-0.410
4.114,-0.920,-0.430
4.117,-0.930,-0.435
4.119,-0.920,-0.440
4.122,-0.910,-0.450
4.125,-0.915,-0.440
4.128,-0.915,-0.425
4.131,-0.905,-0.405
4.133,-0.875,-0.380
4.136,-0.840,-0.360
4.139,-0.805,-0.300
4.142,-0.705,-0.215
4.144,-0.545,-0.100
4.147,-0.320,0.050
4.150,-0.025,0.245
4.153,0.265,0.365
4.156,0.580,0.450
4.158,0.895,0.510
4.161,1.180,0.530
4.164,1.315,0.520
4.167,1.260,0.470
4.169,0.990,0.350
4.172,0.530,0.190
4.175,-0.075,-0.085
4.178,-0.710,-0.430
4.181,-1.220,-0.775
4.183,-1.555,-1.065
4.186,-1.655,-1.215
4.189,-1.570,-1.200
4.192,-1.400,-1.085
4.194,-1.210,-0.895
4.197,-1.095,-0.730
4.200,-1.035,-0.610
4.203,-1.010,-0.555
4.206,-1.010,-0.515
4.208,-1.010,-0.520
4.211,-0.985,-0.520
4.214,-0.965,-0.520
4.217,-0.930,-0.510
4.219,-0.925,-0.505
4.222,-0.940,-0.490
4.225,-0.945,-0.495
4.228,-0.960,-0.485
4.231,-0.965,-0.475
4.233,-0.955,-0.465
4.236,-0.935,-0.440
4.239,-0.925,-0.455
4.242,-0.935,-0.430
4.244,-0.920,-0.430
4.247,-0.930,-0.425
4.250,-0.935,-0.435
4.253,-0.930,-0.435
4.256,-0.935,-0.450
4.258,-0.950,-0.440
4.261,-0.945,-0.440
4.264,-0.935,-0.425
4.267,-0.945,-0.435
4.269,-0.935,-0.410
4.272,-0.930,-0.395
4.275,-0.920,-0.390
4.278,-0.925,-0.375
4.281,-0.910,-0.395
4.283,-0.925,-0.390
4.286,-0.940,-0.415
4.289,-0.930,-0.425
4.292,-0.945,-0.420
4.294,-0.945,-0.425
4.297,-0.945,-0.420
4.300,-0.935,-0.425
4.303,-0.920,-0.405
4.306,-0.920,-0.390
4.308,-0.910,-0.400
4.311,-0.910,-0.385
4.314,-0.910,-0.400
4.317,-0.925,-0.405
4.319,-0.940,-0.405
4.322,-0.950,-0.405
4.325,-0.960,-0.405
4.328,-0.950,-0.400
4.331,-0.920,-0.385
4.333,-0.920,-0.370
4.336,-0.910,-0.380
4.339,-0.885,-0.360
4.342,-0.875,-0.355
4.344,-0.880,-0.370
4.347,-0.885,-0.370
4.350,-0.885,-0.380
4.353,-0.895,-0.395
4.356,-0.890,-0.385
4.358,-0.900,-0.390
4.361,-0.895,-0.380
4.364,-0.880,-0.360
4.367,-0.885,-0.350
4.369,-0.865,-0.350
4.372,-0.855,-0.345
4.375,-0.845,-0.345
4.378,-0.835,-0.345
4.381,-0.835,-0.360
4.383,-0.840,-0.340
4.386,-0.820,-0.345
4.389,-0.810,-0.355
4.392,-0.820,-0.340
4.394,-0.810,-0.315
4.397,-0.800,-0.305
4.400,-0.785,-0.290
4.403,-0.770,-0.285
4.406,-0.755,-0.255
4.408,-0.730,-0.265
4.411,-0.720,-0.255
4.414,-0.700,-0.240
4.417,-0.690,-0.245
4.419,-0.685,-0.255
4.422,-0.685,-0.250
4.425,-0.675,-0.235
4.428,-0.670,-0.230
4.431,-0.645,-0.210
4.433,-0.640,-0.190
4.436,-0.620,-0.165
4.439,-0.595,-0.165
4.442,-0.575,-0.165
4.444,-0.555,-0.150
4.447,-0.530,-0.150
4.450,-0.545,-0.155
4.453,-0.530,-0.160
4.456,-0.520,-0.160
4.458,-0.530,-0.170
4.461,-0.520,-0.145
4.464,-0.495,-0.130
4.467,-0.480,-0.120
4.469,-0.460,-0.115
4.472,-0.455,-0.105
4.475,-0.455,-0.105
4.478,-0.425,-0.085
4.481,-0.420,-0.105
4.483,-0.425,-0.110
4.486,-0.450,-0.130
4.489,-0.465,-0.140
4.492,-0.470,-0.150
4.494,-0.490,-0.145
4.497,-0.495,-0.145
4.500,-0.535,-0.155
4.503,-0.545,-0.160
4.506,-0.555,-0.160
4.508,-0.545,-0.180
4.511,-0.570,-0.195
4.514,-0.590,-0.230
4.517,-0.640,-0.250
4.519,-0.670,-0.275
4.522,-0.700,-0.320
4.525,-0.720,-0.330
4.528,-0.735,-0.335
4.531,-0.750,-0.360
4.533,-0.770,-0.360
4.536,-0.800,-0.375
4.539,-0.805,-0.375
4.542,-0.800,-0.390
4.544,-0.810,-0.385
4.547,-0.825,-0.390
4.550,-0.840,-0.405
4.553,-0.845,-0.420
4.556,-0.865,-0.415
4.558,-0.880,-0.420
4.561,-0.890,-0.435
4.564,-0.900,-0.430
4.567,-0.895,-0.430
4.569,-0.900,-0.415
4.572,-0.880,-0.420
4.575,-0.875,-0.425
4.578,-0.885,-0.425
4.581,-0.895,-0.440
4.583,-0.895,-0.435
4.586,-0.910,-0.435
4.589,-0.915,-0.460
4.592,-0.925,-0.460
4.594,-0.925,-0.455
4.597,-0.920,-0.455
4.600,-0.915,-0.455
4.603,-0.905,-0.455
4.606,-0.900,-0.450
4.608,-0.880,-0.440
4.611,-0.880,-0.445
4.614,-0.885,-0.455
4.617,-0.880,-0.450
4.619,-0.900,-0.455
4.622,-0.910,-0.475
4.625,-0.915,-0.470
4.628,-0.925,-0.475
4.631,-0.915,-0.450
4.633,-0.915,-0.455
4.636,-0.895,-0.415
4.639,-0.895,-0.415
4.642,-0.875,-0.410
4.644,-0.870,-0.410
4.647,-0.875,-0.420
4.650,-0.880,-0.435
4.653,-0.900,-0.445
4.656,-0.910,-0.460
4.658,-0.900,-0.455
4.661,-0.900,-0.455
4.664,-0.900,-0.445
4.667,-0.890,-0.445
4.669,-0.885,-0.455
4.672,-0.895,-0.440
4.675,-0.865,-0.430
4.678,-0.860,-0.420
4.681,-0.870,-0.420
4.683,-0.865,-0.425
4.686,-0.880,-0.435
4.689,-0.890,-0.445
4.692,-0.900,-0.450
4.694,-0.900,-0.440
4.697,-0.900,-0.435
4.700,-0.890,-0.430
4.703,-0.880,-0.410
4.706,-0.865,-0.395
4.708,-0.875,-0.405
4.711,-0.875,-0.400
4.714,-0.865,-0.410
4.717,-0.875,-0.410
4.719,-0.890,-0.435
4.722,-0.905,-0.430
4.725,-0.890,-0.435
4.728,-0.900,-0.440
4.731,-0.905,-0.425
4.733,-0.900,-0.430
4.736,-0.905,-0.415
4.739,-0.895,-0.405
4.742,-0.900,-0.405
4.744,-0.900,-0.415
4.747,-0.900,-0.435
4.750,-0.910,-0.440
4.753,-0.920,-0.445
4.756,-0.915,-0.460
4.758,-0.940,-0.450
4.761,-0.945,-0.475
4.764,-0.955,-0.465
4.767,-0.950,-0.455
4.769,-0.935,-0.445
4.772,-0.930,-0.425
4.775,-0.910,-0.435
4.778,-0.910,-0.430
4.781,-0.925,-0.430
4.783,-0.945,-0.440
4.786,-0.960,-0.450
4.789,-0.955,-0.455
4.792,-0.955,-0.455
4.794,-0.960,-0.460
4.797,-0.965,-0.450
4.800,-0.950,-0.445
4.803,-0.955,-0.435
4.806,-0.935,-0.405
4.808,-0.945,-0.425
4.811,-0.925,-0.435
4.814,-0.920,-0.440
4.817,-0.925,-0.460
4.819,-0.935,-0.465
4.822,-0.950,-0.475
4.825,-0.955,-0.475
4.828,-0.960,-0.470
4.831,-0.965,-0.470
4.833,-0.955,-0.455
4.836,-0.945,-0.465
4.839,-0.930,-0.435
4.842,-0.915,-0.430
4.844,-0.920,-0.425
4.847,-0.935,-0.450
4.850,-0.945,-0.460
4.853,-0.955,-0.470
4.856,-0.970,-0.470
4.858,-0.975,-0.470
4.861,-0.965,-0.485
4.864,-0.955,-0.470
4.867,-0.940,-0.450
4.869,-0.950,-0.445
4.872,-0.945,-0.425
4.875,-0.935,-0.430
4.878,-0.935,-0.430
4.881,-0.935,-0.435
4.883,-0.960,-0.465
4.886,-0.960,-0.480
4.889,-0.955,-0.475
4.892,-0.970,-0.465
4.894,-0.965,-0.465
4.897,-0.960,-0.470
4.900,-0.960,-0.470
4.903,-0.950,-0.455
4.906,-0.945,-0.465
4.908,-0.925,-0.460
4.911,-0.930,-0.450
4.914,-0.910,-0.455
4.917,-0.925,-0.470
4.919,-0.940,-0.480
4.922,-0.940,-0.480
4.925,-0.960,-0.475
4.928,-0.960,-0.470
4.931,-0.955,-0.470
4.933,-0.950,-0.460
4.936,-0.950,-0.470
4.939,-0.940,-0.445
4.942,-0.935,-0.440
4.944,-0.935,-0.440
4.947,-0.930,-0.450
4.950,-0.935,-0.460
4.953,-0.930,-0.460
4.956,-0.945,-0.475
4.958,-0.940,-0.475
4.961,-0.950,-0.475
4.964,-0.950,-0.480
4.967,-0.950,-0.480
4.969,-0.945,-0.465
4.972,-0.925,-0.465
4.975,-0.925,-0.445
4.978,-0.925,-0.455
4.981,-0.930,-0.460
4.983,-0.945,-0.460
4.986,-0.950,-0.470
4.989,-0.955,-0.480
4.992,-0.955,-0.490
4.994,-0.960,-0.485
4.997,-0.955,-0.475
5.000,-0.955,-0.465
5.003,-0.935,-0.440
5.006,-0.930,-0.440
5.008,-0.920,-0.440
5.011,-0.905,-0.440
5.014,-0.905,-0.435
5.017,-0.915,-0.445
5.019,-0.930,-0.455
5.022,-0.950,-0.465
5.025,-0.975,-0.475
5.028,-0.960,-0.465
5.031,-0.955,-0.470
5.033,-0.960,-0.440
5.036,-0.940,-0.440
5.039,-0.920,-0.420
5.042,-0.905,-0.420
5.044,-0.910,-0.435
5.047,-0.895,-0.440
5.050,-0.920,-0.445
5.053,-0.935,-0.460
5.056,-0.950,-0.480
5.058,-0.940,-0.475
5.061,-0.940,-0.485
5.064,-0.955,-0.465
5.067,-0.940,-0.450
5.069,-0.925,-0.450
5.072,-0.910,-0.445
5.075,-0.915,-0.440
5.078,-0.920,-0.430
5.081,-0.920,-0.425
5.083,-0.930,-0.430
5.086,-0.925,-0.450
5.089,-0.930,-0.455
5.092,-0.930,-0.460
5.094,-0.930,-0.455
5.097,-0.915,-0.445
5.100,-0.920,-0.455
5.103,-0.920,-0.420
5.106,-0.880,-0.405
5.108,-0.865,-0.425
5.111,-0.845,-0.425
5.114,-0.825,-0.430
5.117,-0.810,-0.435
5.119,-0.825,-0.455
5.122,-0.830,-0.450
5.125,-0.825,-0.465
5.128,-0.825,-0.475
5.131,-0.820,-0.470
5.133,-0.800,-0.460
5.136,-0.780,-0.430
5.139,-0.730,-0.415
5.142,-0.695,-0.390
5.144,-0.680,-0.405
5.147,-0.675,-0.380
5.150,-0.670,-0.385
5.153,-0.690,-0.390
5.156,-0.710,-0.400
5.158,-0.740,-0.405
5.161,-0.760,-0.395
5.164,-0.790,-0.395
5.167,-0.770,-0.360
5.169,-0.760,-0.365
5.172,-0.740,-0.355
5.175,-0.735,-0.335
5.178,-0.745,-0.345
5.181,-0.770,-0.365
5.183,-0.800,-0.355
5.186,-0.855,-0.385
5.189,-0.895,-0.425
5.192,-0.925,-0.440
5.194,-0.940,-0.435
5.197,-0.940,-0.435
5.200,-0.945,-0.430
5.203,-0.935,-0.420
5.206,-0.945,-0.425
5.208,-0.945,-0.425
5.211,-0.950,-0.425
5.214,-0.960,-0.430
5.217,-0.970,-0.455
5.219,-0.970,-0.465
5.222,-0.985,-0.475
5.225,-0.995,-0.470
5.228,-1.010,-0.460
5.231,-0.995,-0.440
5.233,-1.005,-0.430
5.236,-0.990,-0.420
5.239,-0.985,-0.415
5.242,-0.955,-0.420
5.244,-0.955,-0.420
5.247,-0.955,-0.415
5.250,-0.970,-0.405
5.253,-0.980,-0.415
5.256,-0.995,-0.420
5.258,-0.990,-0.445
5.261,-0.995,-0.460
5.264,-1.005,-0.440
5.267,-0.985,-0.440
5.269,-0.975,-0.440
5.272,-0.955,-0.420
5.275,-0.950,-0.415
5.278,-0.935,-0.420
5.281,-0.955,-0.430
5.283,-0.945,-0.425
5.286,-0.950,-0.430
5.289,-0.955,-0.440
5.292,-0.945,-0.450
5.294,-0.965,-0.445
5.297,-0.950,-0.435
5.300,-0.930,-0.430
5.303,-0.920,-0.405
5.306,-0.895,-0.390
5.308,-0.890,-0.385
5.311,-0.870,-0.400
5.314,-0.860,-0.380
5.317,-0.860,-0.365
5.319,-0.870,-0.355
5.322,-0.875,-0.335
5.325,-0.820,-0.285
5.328,-0.685,-0.185
5.331,-0.480,-0.030
5.333,-0.190,0.180
5.336,0.110,0.355
5.339,0.425,0.510
5.342,0.750,0.600
5.344,1.060,0.625
5.347,1.285,0.620
5.350,1.310,0.545
5.353,1.130,0.410
5.356,0.745,0.230
5.358,0.180,-0.005
5.361,-0.460,-0.315
5.364,-1.070,-0.655
5.367,-1.520,-0.985
5.369,-1.750,-1.215
5.372,-1.780,-1.300
5.375,-1.665,-1.260
5.378,-1.490,-1.115
5.381,-1.325,-0.950
5.383,-1.220,-0.815
5.386,-1.165,-0.705
5.389,-1.125,-0.630
5.392,-1.100,-0.580
5.394,-1.060,-0.550
5.397,-1.030,-0.505
5.400,-0.990,-0.505
5.403,-0.955,-0.470
5.406,-0.930,-0.450
5.408,-0.930,-0.455
5.411,-0.940,-0.450
5.414,-0.935,-0.440
5.417,-0.940,-0.445
5.419,-0.945,-0.425
5.422,-0.940,-0.425
5.425,-0.950,-0.440
5.428,-0.955,-0.425
5.431,-0.955,-0.425
5.433,-0.970,-0.415
5.436,-0.965,-0.395
5.439,-0.940,-0.385
5.442,-0.935,-0.370
5.444,-0.935,-0.390
5.447,-0.905,-0.385
5.450,-0.910,-0.395
5.453,-0.935,-0.410
5.456,-0.935,-0.415
5.458,-0.945,-0.400
5.461,-0.950,-0.400
5.464,-0.950,-0.390
5.467,-0.945,-0.380
5.469,-0.930,-0.350
5.472,-0.920,-0.345
5.475,-0.920,-0.335
5.478,-0.915,-0.360
5.481,-0.905,-0.350
5.483,-0.905,-0.375
5.486,-0.935,-0.385
5.489,-0.940,-0.380
5.492,-0.955,-0.390
5.494,-0.960,-0.395
5.497,-0.955,-0.395
5.500,-0.945,-0.385
5.503,-0.930,-0.385
5.506,-0.935,-0.370
5.508,-0.910,-0.355
5.511,-0.900,-0.355
5.514,-0.900,-0.365
5.517,-0.915,-0.360
5.519,-0.925,-0.355
5.522,-0.930,-0.370
5.525,-0.960,-0.365
5.528,-0.955,-0.355
5.531,-0.940,-0.355
5.533,-0.940,-0.360
5.536,-0.915,-0.350
5.539,-0.910,-0.335
5.542,-0.900,-0.330
5.544,-0.875,-0.330
5.547,-0.870,-0.330
5.550,-0.875,-0.345
5.553,-0.870,-0.335
5.556,-0.885,-0.340
5.558,-0.885,-0.330
5.561,-0.885,-0.340
5.564,-0.875,-0.335
5.567,-0.865,-0.310
5.569,-0.850,-0.305
5.572,-0.835,-0.290
5.575,-0.785,-0.285
5.578,-0.770,-0.285
5.581,-0.765,-0.275
5.583,-0.775,-0.275
5.586,-0.775,-0.270
5.589,-0.775,-0.275
5.592,-0.770,-0.250
5.594,-0.760,-0.230
5.597,-0.755,-0.225
5.600,-0.745,-0.210
5.603,-0.705,-0.190
5.606,-0.685,-0.165
5.608,-0.650,-0.155
5.611,-0.645,-0.160
5.614,-0.630,-0.160
5.617,-0.635,-0.160
5.619,-0.625,-0.150
5.622,-0.630,-0.160
5.625,-0.610,-0.155
5.628,-0.605,-0.140
5.631,-0.590,-0.135
5.633,-0.570,-0.115
5.636,-0.550,-0.105
5.639,-0.530,-0.095
5.642,-0.495,-0.105
5.644,-0.480,-0.110
5.647,-0.480,-0.095
5.650,-0.470,-0.105
5.653,-0.470,-0.120
5.656,-0.490,-0.120
5.658,-0.495,-0.130
5.661,-0.505,-0.125
5.664,-0.500,-0.110
5.667,-0.515,-0.100
5.669,-0.505,-0.100
5.672,-0.490,-0.105
5.675,-0.500,-0.100
5.678,-0.520,-0.125
5.681,-0.560,-0.130
5.683,-0.570,-0.160
5.686,-0.610,-0.180
5.689,-0.640,-0.240
5.692,-0.650,-0.240
5.694,-0.675,-0.260
5.697,-0.710,-0.285
5.700,-0.705,-0.275
5.703,-0.720,-0.285
5.706,-0.750,-0.285
5.708,-0.750,-0.280
5.711,-0.760,-0.305
5.714,-0.775,-0.330
5.717,-0.790,-0.345
5.719,-0.810,-0.360
5.722,-0.835,-0.385
5.725,-0.860,-0.375
5.728,-0.865,-0.395
5.731,-0.870,-0.395
5.733,-0.885,-0.390
5.736,-0.860,-0.385
5.739,-0.860,-0.390
5.742,-0.850,-0.385
5.744,-0.845,-0.380
5.747,-0.850,-0.390
5.750,-0.870,-0.385
5.753,-0.880,-0.400
5.756,-0.885,-0.415
5.758,-0.895,-0.420
5.761,-0.905,-0.420
5.764,-0.895,-0.400
5.767,-0.885,-0.395
5.769,-0.875,-0.385
5.772,-0.870,-0.385
5.775,-0.865,-0.380
5.778,-0.870,-0.375
5.781,-0.865,-0.390
5.783,-0.870,-0.405
5.786,-0.885,-0.410
5.789,-0.885,-0.425
5.792,-0.900,-0.430
5.794,-0.900,-0.420
5.797,-0.885,-0.445
5.800,-0.880,-0.420
5.803,-0.885,-0.420
5.806,-0.880,-0.400
5.808,-0.875,-0.395
5.811,-0.870,-0.395
5.814,-0.880,-0.390
5.817,-0.865,-0.390
5.819,-0.855,-0.395
5.822,-0.850,-0.385
5.825,-0.880,-0.395
5.828,-0.880,-0.395
5.831,-0.865,-0.395
5.833,-0.865,-0.390
5.836,-0.835,-0.370
5.839,-0.845,-0.360
5.842,-0.830,-0.360
5.844,-0.815,-0.360
5.847,-0.825,-0.365
5.850,-0.820,-0.355
5.853,-0.840,-0.385
5.856,-0.835,-0.375
5.858,-0.840,-0.410
5.861,-0.840,-0.375
5.864,-0.850,-0.400
5.867,-0.850,-0.385
5.869,-0.845,-0.375
5.872,-0.815,-0.375
5.875,-0.820,-0.365
5.878,-0.810,-0.370
5.881,-0.820,-0.360
5.883,-0.830,-0.360
5.886,-0.835,-0.385
5.889,-0.850,-0.380
5.892,-0.855,-0.405
5.894,-0.855,-0.395
5.897,-0.860,-0.390
5.900,-0.845,-0.380
5.903,-0.840,-0.380
5.906,-0.820,-0.355
5.908,-0.820,-0.345
5.911,-0.820,-0.365
5.914,-0.815,-0.375
5.917,-0.825,-0.370
5.919,-0.850,-0.390
5.922,-0.845,-0.400
5.925,-0.870,-0.410
5.928,-0.875,-0.395
5.931,-0.885,-0.395
5.933,-0.870,-0.400
5.936,-0.850,-0.400
5.939,-0.860,-0.380
5.942,-0.845,-0.385
5.944,-0.830,-0.380
5.947,-0.830,-0.395
5.950,-0.840,-0.420
5.953,-0.860,-0.425
5.956,-0.870,-0.445
5.958,-0.880,-0.450
5.961,-0.880,-0.435
5.964,-0.875,-0.435
5.967,-0.880,-0.430
5.969,-0.870,-0.425
5.972,-0.865,-0.400
5.975,-0.860,-0.395
5.978,-0.880,-0.415
5.981,-0.865,-0.405
5.983,-0.865,-0.415
5.986,-0.875,-0.430
5.989,-0.890,-0.430
5.992,-0.890,-0.440
5.994,-0.910,-0.435
5.997,-0.895,-0.435
6.000,-0.900,-0.430
6.003,-0.875,-0.425
6.006,-0.880,-0.430
6.008,-0.870,-0.425
6.011,-0.880,-0.425
6.014,-0.865,-0.425
6.017,-0.865,-0.425
6.019,-0.885,-0.440
6.022,-0.890,-0.460
6.025,-0.890,-0.460
6.028,-0.900,-0.470
6.031,-0.900,-0.470
6.033,-0.885,-0.450
6.036,-0.900,-0.460
6.039,-0.895,-0.455
6.042,-0.890,-0.445
6.044,-0.875,-0.455
6.047,-0.895,-0.465
6.050,-0.895,-0.460
6.053,-0.900,-0.455
6.056,-0.905,-0.470
6.058,-0.905,-0.475
6.061,-0.905,-0.475
6.064,-0.905,-0.460
6.067,-0.910,-0.450
6.069,-0.895,-0.450
6.072,-0.885,-0.460
6.075,-0.880,-0.435
6.078,-0.895,-0.455
6.081,-0.880,-0.450
6.083,-0.885,-0.465
6.086,-0.880,-0.455
6.089,-0.885,-0.470
6.092,-0.890,-0.475
6.094,-0.900,-0.485
6.097,-0.885,-0.470
6.100,-0.915,-0.475
6.103,-0.905,-0.460
6.106,-0.905,-0.450
6.108,-0.875,-0.455
6.111,-0.880,-0.480
6.114,-0.890,-0.475
6.117,-0.880,-0.485
6.119,-0.900,-0.500
6.122,-0.895,-0.510
6.125,-0.910,-0.495
6.128,-0.925,-0.495
6.131,-0.925,-0.480
6.133,-0.910,-0.470
6.136,-0.890,-0.470
6.139,-0.895,-0.465
6.142,-0.870,-0.460
6.144,-0.880,-0.470
6.147,-0.870,-0.475
6.150,-0.880,-0.485
6.153,-0.885,-0.480
6.156,-0.885,-0.490
6.158,-0.905,-0.495
6.161,-0.905,-0.500
6.164,-0.915,-0.495
6.167,-0.895,-0.480
6.169,-0.890,-0.475
6.172,-0.880,-0.470
6.175,-0.890,-0.475
6.178,-0.875,-0.485
6.181,-0.880,-0.475
6.183,-0.880,-0.505
6.186,-0.875,-0.505
6.189,-0.895,-0.520
6.192,-0.900,-0.520
6.194,-0.905,-0.520
6.197,-0.900,-0.520
6.200,-0.910,-0.505
6.203,-0.900,-0.485
6.206,-0.895,-0.485
6.208,-0.875,-0.470
6.211,-0.870,-0.495
6.214,-0.875,-0.485
6.217,-0.885,-0.490
6.219,-0.895,-0.500
6.222,-0.895,-0.510
6.225,-0.895,-0.500
6.228,-0.905,-0.515
6.231,-0.900,-0.520
6.233,-0.900,-0.495
6.236,-0.885,-0.490
6.239,-0.875,-0.475
6.242,-0.860,-0.475
6.244,-0.835,-0.485
6.247,-0.820,-0.485
6.250,-0.815,-0.505
6.253,-0.825,-0.510
6.256,-0.815,-0.520
6.258,-0.815,-0.520
6.261,-0.815,-0.515
6.264,-0.800,-0.520
6.267,-0.805,-0.490
6.269,-0.795,-0.500
6.272,-0.785,-0.505
6.275,-0.750,-0.485
6.278,-0.715,-0.485
6.281,-0.705,-0.465
6.283,-0.670,-0.470
6.286,-0.675,-0.470
6.289,-0.690,-0.460
6.292,-0.685,-0.465
6.294,-0.695,-0.485
6.297,-0.740,-0.455
6.300,-0.720,-0.470
6.303,-0.725,-0.435
6.306,-0.710,-0.430
6.308,-0.715,-0.425
6.311,-0.710,-0.415
6.314,-0.735,-0.400
6.317,-0.735,-0.415
6.319,-0.760,-0.420
6.322,-0.765,-0.445
6.325,-0.800,-0.455
6.328,-0.830,-0.465
6.331,-0.880,-0.480
6.333,-0.905,-0.480
6.336,-0.910,-0.490
6.339,-0.930,-0.500
6.342,-0.910,-0.500
6.344,-0.915,-0.495
6.347,-0.920,-0.510
6.350,-0.930,-0.515
6.353,-0.945,-0.535
6.356,-0.955,-0.540
6.358,-0.975,-0.550
6.361,-0.975,-0.535
6.364,-0.975,-0.535
6.367,-0.970,-0.515
6.369,-0.965,-0.520
6.372,-0.975,-0.495
6.375,-0.970,-0.495
6.378,-0.950,-0.495
6.381,-0.965,-0.515
6.383,-0.975,-0.510
6.386,-0.990,-0.535
6.389,-1.005,-0.540
6.392,-1.000,-0.550
6.394,-1.010,-0.535
6.397,-1.005,-0.520
6.400,-0.985,-0.520
6.403,-0.990,-0.525
6.406,-0.965,-0.505
6.408,-0.955,-0.515
6.411,-0.950,-0.520
6.414,-0.945,-0.520
6.417,-0.955,-0.530
6.419,-0.955,-0.530
6.422,-0.960,-0.545
6.425,-0.970,-0.545
6.428,-0.965,-0.555
6.431,-0.960,-0.540
6.433,-0.940,-0.540
6.436,-0.960,-0.525
6.439,-0.925,-0.515
6.442,-0.925,-0.505
6.444,-0.920,-0.505
6.447,-0.935,-0.510
6.450,-0.920,-0.495
6.453,-0.925,-0.515
6.456,-0.920,-0.525
6.458,-0.940,-0.510
6.461,-0.925,-0.510
6.464,-0.905,-0.510
6.467,-0.880,-0.475
6.469,-0.840,-0.440
6.472,-0.810,-0.415
6.475,-0.735,-0.340
6.478,-0.610,-0.255
6.481,-0.405,-0.140
6.483,-0.165,0.000
6.486,0.080,0.190
6.489,0.340,0.310
6.492,0.605,0.370
6.494,0.895,0.395
6.497,1.150,0.405
6.500,1.365,0.390
6.503,1.400,0.385
6.506,1.255,0.330
6.508,0.945,0.220
6.511,0.470,0.035
6.514,-0.120,-0.230
6.517,-0.755,-0.555
6.519,-1.300,-0.900
6.522,-1.655,-1.210
6.525,-1.760,-1.385
6.528,-1.700,-1.395
6.531,-1.520,-1.295
6.533,-1.330,-1.115
6.536,-1.170,-0.915
6.539,-1.085,-0.790
6.542,-1.060,-0.690
6.544,-1.070,-0.655
6.547,-1.075,-0.630
6.550,-1.060,-0.645
6.553,-1.050,-0.635
6.556,-1.005,-0.620
6.558,-0.985,-0.620
6.561,-0.950,-0.585
6.564,-0.955,-0.580
6.567,-0.945,-0.560
6.569,-0.945,-0.540
6.572,-0.950,-0.525
6.575,-0.935,-0.535
6.578,-0.940,-0.520
6.581,-0.935,-0.525
6.583,-0.940,-0.505
6.586,-0.950,-0.535
6.589,-0.960,-0.545
6.592,-0.955,-0.525
6.594,-0.970,-0.520
6.597,-0.965,-0.510
6.600,-0.945,-0.510
6.603,-0.940,-0.500
6.606,-0.925,-0.470
6.608,-0.925,-0.470
6.611,-0.925,-0.475
6.614,-0.935,-0.485
6.617,-0.940,-0.490
6.619,-0.940,-0.480
6.622,-0.945,-0.490
6.625,-0.950,-0.500
6.628,-0.960,-0.505
6.631,-0.950,-0.480
6.633,-0.955,-0.495
6.636,-0.945,-0.485
6.639,-0.945,-0.470
6.642,-0.935,-0.465
6.644,-0.910,-0.470
6.647,-0.925,-0.470
6.650,-0.915,-0.485
6.653,-0.925,-0.495
6.656,-0.935,-0.515
6.658,-0.940,-0.520
6.661,-0.950,-0.515
6.664,-0.965,-0.500
6.667,-0.950,-0.495
6.669,-0.930,-0.475
6.672,-0.925,-0.455
6.675,-0.915,-0.450
6.678,-0.905,-0.445
6.681,-0.905,-0.450
6.683,-0.905,-0.455
6.686,-0.905,-0.470
6.689,-0.915,-0.470
6.692,-0.915,-0.485
6.694,-0.920,-0.465
6.697,-0.920,-0.460
6.700,-0.905,-0.455
6.703,-0.900,-0.450
6.706,-0.885,-0.440
6.708,-0.885,-0.415
6.711,-0.875,-0.420
6.714,-0.855,-0.420
6.717,-0.855,-0.430
6.719,-0.855,-0.435
6.722,-0.875,-0.445
6.725,-0.860,-0.435
6.728,-0.855,-0.440
6.731,-0.850,-0.425
6.733,-0.840,-0.420
6.736,-0.820,-0.400
6.739,-0.795,-0.385
6.742,-0.770,-0.355
6.744,-0.775,-0.350
6.747,-0.755,-0.360
6.750,-0.750,-0.330
6.753,-0.730,-0.345
6.756,-0.745,-0.340
6.758,-0.725,-0.335
6.761,-0.715,-0.325
6.764,-0.700,-0.310
6.767,-0.675,-0.285
6.769,-0.645,-0.290
6.772,-0.620,-0.255
6.775,-0.600,-0.240
6.778,-0.575,-0.230
6.781,-0.560,-0.230
6.783,-0.545,-0.220
6.786,-0.530,-0.225
6.789,-0.525,-0.230
6.792,-0.525,-0.235
6.794,-0.505,-0.230
6.797,-0.490,-0.220
6.800,-0.480,-0.200
6.803,-0.455,-0.185
6.806,-0.430,-0.180
6.808,-0.410,-0.165
6.811,-0.400,-0.170
6.814,-0.390,-0.160
6.817,-0.390,-0.170
6.819,-0.400,-0.175
6.822,-0.415,-0.175
6.825,-0.415,-0.180
6.828,-0.440,-0.190
6.831,-0.445,-0.195
6.833,-0.460,-0.210
6.836,-0.460,-0.220
6.839,-0.465,-0.225
6.842,-0.490,-0.225
6.844,-0.520,-0.255
6.847,-0.545,-0.280
6.850,-0.575,-0.290
6.853,-0.600,-0.325
6.856,-0.645,-0.360
6.858,-0.665,-0.385
6.861,-0.695,-0.405
6.864,-0.725,-0.420
6.867,-0.750,-0.425
6.869,-0.755,-0.435
6.872,-0.770,-0.455
6.875,-0.775,-0.445
6.878,-0.785,-0.465
6.881,-0.800,-0.475
6.883,-0.820,-0.495
6.886,-0.835,-0.515
6.889,-0.855,-0.535
6.892,-0.880,-0.550
6.894,-0.870,-0.545
6.897,-0.880,-0.545
6.900,-0.885,-0.530
6.903,-0.875,-0.505
6.906,-0.875,-0.520
6.908,-0.875,-0.510
6.911,-0.870,-0.530
6.914,-0.870,-0.525
6.917,-0.890,-0.545
6.919,-0.885,-0.560
6.922,-0.910,-0.570
6.925,-0.900,-0.555
6.928,-0.910,-0.565
6.931,-0.925,-0.570
6.933,-0.920,-0.560
6.936,-0.920,-0.540
6.939,-0.900,-0.530
6.942,-0.895,-0.540
6.944,-0.895,-0.540
6.947,-0.890,-0.540
6.950,-0.895,-0.555
6.953,-0.915,-0.580
6.956,-0.925,-0.565
6.958,-0.930,-0.585
6.961,-0.925,-0.575
6.964,-0.930,-0.580
6.967,-0.925,-0.570
6.969,-0.910,-0.560
6.972,-0.910,-0.550
6.975,-0.890,-0.535
6.978,-0.890,-0.540
6.981,-0.885,-0.550
6.983,-0.890,-0.560
6.986,-0.890,-0.545
6.989,-0.890,-0.560
6.992,-0.910,-0.560
6.994,-0.910,-0.560
6.997,-0.905,-0.545
7.000,-0.910,-0.550
7.003,-0.910,-0.530
7.006,-0.885,-0.520
7.008,-0.880,-0.505
7.011,-0.870,-0.535
7.014,-0.865,-0.515
7.017,-0.855,-0.530
7.019,-0.875,-0.530
7.022,-0.885,-0.560
7.025,-0.890,-0.560
7.028,-0.915,-0.555
7.031,-0.915,-0.570
7.033,-0.895,-0.535
7.036,-0.885,-0.545
7.039,-0.885,-0.525
7.042,-0.875,-0.510
7.044,-0.850,-0.500
7.047,-0.865,-0.500
7.050,-0.860,-0.495
7.053,-0.875,-0.525
7.056,-0.885,-0.525
7.058,-0.890,-0.535
7.061,-0.900,-0.535
7.064,-0.905,-0.530
7.067,-0.890,-0.535
7.069,-0.890,-0.525
7.072,-0.880,-0.515
7.075,-0.875,-0.495
7.078,-0.875,-0.520
7.081,-0.875,-0.510
7.083,-0.895,-0.515
7.086,-0.895,-0.520
7.089,-0.915,-0.545
7.092,-0.930,-0.545
7.094,-0.920,-0.550
7.097,-0.925,-0.550
7.100,-0.925,-0.555
7.103,-0.920,-0.550
7.106,-0.920,-0.525
7.108,-0.910,-0.535
7.111,-0.910,-0.545
7.114,-0.915,-0.540
7.117,-0.910,-0.545
7.119,-0.925,-0.555
7.122,-0.955,-0.555
7.125,-0.965,-0.570
7.128,-0.970,-0.575
7.131,-0.955,-0.585
7.133,-0.950,-0.570
7.136,-0.950,-0.560
7.139,-0.940,-0.560
7.142,-0.925,-0.530
7.144,-0.925,-0.570
7.147,-0.935,-0.565
7.150,-0.935,-0.570
7.153,-0.950,-0.570
7.156,-0.955,-0.590
7.158,-0.970,-0.595
7.161,-0.960,-0.590
7.164,-0.965,-0.590
7.167,-0.970,-0.575
7.169,-0.955,-0.580
7.172,-0.955,-0.580
7.175,-0.940,-0.565
7.178,-0.925,-0.580
7.181,-0.925,-0.590
7.183,-0.925,-0.590
7.186,-0.950,-0.600
7.189,-0.960,-0.610
7.192,-0.960,-0.600
7.194,-0.975,-0.615
7.197,-0.975,-0.600
7.200,-0.985,-0.590
7.203,-0.975,-0.575
7.206,-0.960,-0.570
7.208,-0.945,-0.545
7.211,-0.940,-0.575
7.214,-0.950,-0.585
7.217,-0.945,-0.585
7.219,-0.960,-0.590
7.222,-0.960,-0.620
7.225,-0.975,-0.625
7.228,-0.980,-0.610
7.231,-0.980,-0.610
7.233,-0.970,-0.595
7.236,-0.970,-0.585
7.239,-0.960,-0.580
7.242,-0.955,-0.560
7.244,-0.940,-0.585
7.247,-0.955,-0.590
7.250,-0.970,-0.595
7.253,-0.980,-0.615
7.256,-0.980,-0.625
7.258,-0.980,-0.630
7.261,-0.990,-0.625
7.264,-1.000,-0.630
7.267,-0.980,-0.615
7.269,-0.990,-0.605
7.272,-0.980,-0.600
7.275,-0.960,-0.585
7.278,-0.950,-0.585
7.281,-0.950,-0.590
7.283,-0.965,-0.600
7.286,-0.955,-0.605
7.289,-0.965,-0.610
7.292,-0.975,-0.620
7.294,-0.975,-0.615
7.297,-0.985,-0.605
7.300,-0.975,-0.590
7.303,-0.985,-0.600
7.306,-0.980,-0.570
7.308,-0.970,-0.590
7.311,-0.960,-0.600
7.314,-0.965,-0.605
7.317,-0.970,-0.605
7.319,-0.985,-0.615
7.322,-0.980,-0.615
7.325,-0.995,-0.630
7.328,-1.010,-0.630
7.331,-1.020,-0.615
7.333,-1.020,-0.620
7.336,-0.990,-0.620
7.339,-0.995,-0.605
7.342,-0.980,-0.610
7.344,-0.980,-0.600
7.347,-0.965,-0.610
7.350,-0.970,-0.610
7.353,-0.970,-0.620
7.356,-0.985,-0.640
7.358,-0.990,-0.620
7.361,-0.990,-0.630
7.364,-0.985,-0.625
7.367,-1.000,-0.615
7.369,-1.010,-0.605
7.372,-1.000,-0.595
7.375,-0.975,-0.590
7.378,-0.955,-0.580
7.381,-0.955,-0.600
7.383,-0.955,-0.605
7.386,-0.975,-0.615
7.389,-0.995,-0.625
7.392,-0.995,-0.630
7.394,-1.010,-0.625
7.397,-1.000,-0.615
7.400,-0.990,-0.615
7.403,-0.990,-0.610
7.406,-0.975,-0.600
7.408,-0.975,-0.580
7.411,-0.965,-0.585
7.414,-0.960,-0.595
7.417,-0.970,-0.620
7.419,-0.975,-0.620
7.422,-0.970,-0.630
7.425,-0.990,-0.630
7.428,-0.995,-0.620
7.431,-0.985,-0.635
7.433,-0.990,-0.625
7.436,-0.990,-0.605
7.439,-0.975,-0.595
7.442,-0.950,-0.600
7.444,-0.950,-0.585
7.447,-0.950,-0.585
7.450,-0.950,-0.605
7.453,-0.955,-0.595
7.456,-0.965,-0.625
7.458,-0.980,-0.620
7.461,-0.985,-0.620
7.464,-0.970,-0.620
7.467,-0.975,-0.615
7.469,-0.965,-0.615
7.472,-0.955,-0.605
7.475,-0.940,-0.590
7.478,-0.945,-0.605
7.481,-0.935,-0.610
7.483,-0.975,-0.610
7.486,-0.995,-0.630
7.489,-0.990,-0.615
7.492,-0.990,-0.635
7.494,-0.985,-0.650
7.497,-0.990,-0.635
7.500,-0.960,-0.610
7.503,-0.970,-0.620
7.506,-0.970,-0.605
7.508,-0.950,-0.600
7.511,-0.945,-0.575
7.514,-0.940,-0.600
7.517,-0.945,-0.600
7.519,-0.945,-0.610
7.522,-0.955,-0.620
7.525,-0.975,-0.625
7.528,-0.985,-0.625
7.531,-0.985,-0.625
7.533,-0.980,-0.615
7.536,-0.960,-0.595
7.539,-0.960,-0.580
7.542,-0.965,-0.575
7.544,-0.945,-0.585
7.547,-0.940,-0.580
7.550,-0.950,-0.590
7.553,-0.950,-0.605
7.556,-0.960,-0.615
7.558,-0.980,-0.615
7.561,-0.990,-0.620
7.564,-0.970,-0.625
7.567,-0.980,-0.625
7.569,-0.960,-0.615
7.572,-0.945,-0.600
7.575,-0.945,-0.585
7.578,-0.930,-0.575
7.581,-0.945,-0.575
7.583,-0.940,-0.585
7.586,-0.945,-0.600
7.589,-0.950,-0.590
7.592,-0.950,-0.610
7.594,-0.950,-0.615
7.597,-0.950,-0.615
7.600,-0.935,-0.590
7.603,-0.905,-0.585
7.606,-0.880,-0.580
7.608,-0.860,-0.560
7.611,-0.840,-0.575
7.614,-0.835,-0.570
7.617,-0.815,-0.570
7.619,-0.820,-0.580
7.622,-0.840,-0.585
7.625,-0.840,-0.600
7.628,-0.830,-0.615
7.631,-0.815,-0.600
7.633,-0.785,-0.585
7.636,-0.760,-0.560
7.639,-0.730,-0.565
7.642,-0.705,-0.530
7.644,-0.710,-0.525
7.647,-0.720,-0.530
7.650,-0.735,-0.540
7.653,-0.740,-0.550
7.656,-0.765,-0.575
7.658,-0.790,-0.560
7.661,-0.805,-0.550
7.664,-0.825,-0.545
7.667,-0.815,-0.530
7.669,-0.815,-0.510
7.672,-0.795,-0.490
7.675,-0.820,-0.495
7.678,-0.810,-0.495
7.681,-0.825,-0.500
7.683,-0.855,-0.505
7.686,-0.880,-0.540
7.689,-0.915,-0.560
7.692,-0.960,-0.575
7.694,-0.995,-0.575
7.697,-1.010,-0.590
7.700,-1.015,-0.585
7.703,-1.010,-0.590
7.706,-1.010,-0.580
7.708,-1.005,-0.570
7.711,-1.000,-0.580
7.714,-0.995,-0.570
7.717,-1.005,-0.570
7.719,-1.020,-0.590
7.722,-1.020,-0.620
7.725,-1.020,-0.610
7.728,-1.040,-0.615
7.731,-1.040,-0.595
7.733,-1.030,-0.585
7.736,-1.045,-0.575
7.739,-1.030,-0.575
7.742,-1.015,-0.575
7.744,-1.010,-0.570
7.747,-1.015,-0.565
7.750,-1.015,-0.560
7.753,-1.025,-0.565
7.756,-1.025,-0.585
7.758,-1.030,-0.605
7.761,-1.030,-0.590
7.764,-1.030,-0.570
7.767,-1.045,-0.570
7.769,-1.030,-0.565
7.772,-1.020,-0.575
7.775,-1.005,-0.535
7.778,-1.000,-0.550
7.781,-1.010,-0.570
7.783,-0.995,-0.580
7.786,-1.000,-0.565
7.789,-0.995,-0.585
7.792,-1.000,-0.585
7.794,-1.005,-0.580
7.797,-0.990,-0.575
7.800,-0.995,-0.570
7.803,-0.975,-0.545
7.806,-0.945,-0.540
7.808,-0.925,-0.510
7.811,-0.905,-0.480
7.814,-0.870,-0.450
7.817,-0.770,-0.410
7.819,-0.635,-0.270
7.822,-0.395,-0.140
7.825,-0.110,0.045
7.828,0.200,0.205
7.831,0.530,0.320
7.833,0.870,0.395
7.836,1.185,0.425
7.839,1.360,0.420
7.842,1.360,0.400
7.844,1.115,0.330
7.847,0.645,0.155
7.850,0.020,-0.075
7.853,-0.620,-0.405
7.856,-1.220,-0.765
7.858,-1.610,-1.110
7.861,-1.750,-1.300
7.864,-1.670,-1.345
7.867,-1.495,-1.215
7.869,-1.295,-1.025
7.872,-1.160,-0.860
7.875,-1.065,-0.720
7.878,-1.045,-0.660
7.881,-1.070,-0.630
7.883,-1.075,-0.650
7.886,-1.080,-0.660
7.889,-1.050,-0.655
7.892,-1.035,-0.655
7.894,-1.015,-0.640
7.897,-0.990,-0.630
7.900,-1.000,-0.610
7.903,-1.000,-0.590
7.906,-0.990,-0.570
7.908,-0.995,-0.565
7.911,-0.995,-0.560
7.914,-0.985,-0.570
7.917,-0.990,-0.560
7.919,-0.995,-0.570
7.922,-1.010,-0.580
7.925,-1.015,-0.600
7.928,-1.015,-0.590
7.931,-1.030,-0.585
7.933,-1.010,-0.590
7.936,-1.005,-0.575
7.939,-1.005,-0.550
7.942,-0.985,-0.545
7.944,-0.990,-0.550
7.947,-0.980,-0.540
7.950,-0.980,-0.550
7.953,-0.995,-0.545
7.956,-1.010,-0.555
7.958,-1.020,-0.570
7.961,-1.015,-0.560
7.964,-1.025,-0.550
7.967,-1.025,-0.550
7.969,-1.025,-0.545
7.972,-1.020,-0.525
7.975,-1.005,-0.525
7.978,-0.985,-0.515
7.981,-0.970,-0.525
7.983,-0.970,-0.530
7.986,-0.985,-0.520
7.989,-0.990,-0.540
7.992,-1.000,-0.555
7.994,-1.000,-0.555
7.997,-1.005,-0.555
8.000,-1.005,-0.545
8.003,-0.995,-0.545
8.006,-0.980,-0.520
8.008,-0.985,-0.510
8.011,-0.980,-0.505
8.014,-0.975,-0.515
8.017,-0.980,-0.510
8.019,-0.975,-0.530
8.022,-0.995,-0.520
8.025,-1.005,-0.525
8.028,-0.995,-0.520
8.031,-1.000,-0.505
8.033,-0.975,-0.505
8.036,-0.960,-0.500
8.039,-0.940,-0.480
8.042,-0.935,-0.465
8.044,-0.925,-0.470
8.047,-0.905,-0.470
8.050,-0.930,-0.470
8.053,-0.920,-0.470
8.056,-0.910,-0.470
8.058,-0.920,-0.485
8.061,-0.925,-0.475
8.064,-0.930,-0.460
8.067,-0.900,-0.470
8.069,-0.880,-0.450
8.072,-0.870,-0.425
8.075,-0.845,-0.410
8.078,-0.820,-0.415
8.081,-0.810,-0.400
8.083,-0.800,-0.390
8.086,-0.795,-0.410
8.089,-0.790,-0.405
8.092,-0.780,-0.390
8.094,-0.780,-0.385
8.097,-0.755,-0.375
8.100,-0.745,-0.345
8.103,-0.710,-0.315
8.106,-0.680,-0.300
8.108,-0.660,-0.270
8.111,-0.635,-0.255
8.114,-0.630,-0.260
8.117,-0.630,-0.265
8.119,-0.610,-0.255
8.122,-0.595,-0.240
8.125,-0.580,-0.250
8.128,-0.570,-0.230
8.131,-0.560,-0.245
8.133,-0.545,-0.230
8.136,-0.520,-0.210
8.139,-0.500,-0.180
8.142,-0.485,-0.190
8.144,-0.460,-0.185
8.147,-0.460,-0.200
8.150,-0.435,-0.200
8.153,-0.435,-0.210
8.156,-0.450,-0.215
8.158,-0.470,-0.215
8.161,-0.470,-0.235
8.164,-0.475,-0.250
8.167,-0.490,-0.250
8.169,-0.505,-0.220
8.172,-0.525,-0.225
8.175,-0.520,-0.235
8.178,-0.530,-0.265
8.181,-0.565,-0.270
8.183,-0.580,-0.295
8.186,-0.615,-0.330
8.189,-0.645,-0.365
8.192,-0.685,-0.370
8.194,-0.710,-0.405
8.197,-0.740,-0.425
8.200,-0.765,-0.435
8.203,-0.795,-0.435
8.206,-0.800,-0.450
8.208,-0.835,-0.445
8.211,-0.830,-0.470
8.214,-0.850,-0.485
8.217,-0.860,-0.510
8.219,-0.875,-0.520
8.222,-0.890,-0.540
8.225,-0.905,-0.570
8.228,-0.915,-0.545
8.231,-0.915,-0.565
8.233,-0.915,-0.555
8.236,-0.920,-0.550
8.239,-0.900,-0.550
8.242,-0.910,-0.530
8.244,-0.890,-0.525
8.247,-0.900,-0.540
8.250,-0.915,-0.540
8.253,-0.915,-0.545
8.256,-0.925,-0.565
8.258,-0.925,-0.570
8.261,-0.930,-0.575
8.264,-0.945,-0.580
8.267,-0.945,-0.555
8.269,-0.925,-0.550
8.272,-0.920,-0.545
8.275,-0.925,-0.535
8.278,-0.910,-0.540
8.281,-0.900,-0.565
8.283,-0.900,-0.560
8.286,-0.910,-0.575
8.289,-0.915,-0.575
8.292,-0.925,-0.575
8.294,-0.935,-0.585
8.297,-0.935,-0.575
8.300,-0.920,-0.560
8.303,-0.915,-0.570
8.306,-0.905,-0.550
8.308,-0.895,-0.535
8.311,-0.880,-0.530
8.314,-0.885,-0.540
8.317,-0.880,-0.540
8.319,-0.890,-0.530
8.322,-0.895,-0.545
8.325,-0.890,-0.550
8.328,-0.910,-0.560
8.331,-0.910,-0.545
8.333,-0.920,-0.535
8.336,-0.900,-0.535
8.339,-0.895,-0.535
8.342,-0.885,-0.505
8.344,-0.875,-0.510
8.347,-0.870,-0.505
8.350,-0.860,-0.520
8.353,-0.890,-0.530
8.356,-0.875,-0.545
8.358,-0.895,-0.535
8.361,-0.905,-0.555
8.364,-0.910,-0.545
8.367,-0.910,-0.535
8.369,-0.885,-0.530
8.372,-0.875,-0.530
8.375,-0.890,-0.510
8.378,-0.860,-0.505
8.381,-0.880,-0.515
8.383,-0.860,-0.515
8.386,-0.890,-0.525
8.389,-0.890,-0.525
8.392,-0.895,-0.540
8.394,-0.895,-0.535
8.397,-0.900,-0.535
8.400,-0.910,-0.530
8.403,-0.900,-0.520
8.406,-0.890,-0.510
8.408,-0.885,-0.510
8.411,-0.880,-0.520
8.414,-0.885,-0.515
8.417,-0.880,-0.505
8.419,-0.880,-0.520
8.422,-0.895,-0.550
8.425,-0.905,-0.560
8.428,-0.925,-0.560
8.431,-0.930,-0.555
8.433,-0.935,-0.550
8.436,-0.920,-0.540
8.439,-0.910,-0.560
8.442,-0.905,-0.550
8.444,-0.900,-0.535
8.447,-0.900,-0.535
8.450,-0.895,-0.550
8.453,-0.905,-0.570
8.456,-0.925,-0.555
8.458,-0.925,-0.570
8.461,-0.935,-0.555
8.464,-0.945,-0.560
8.467,-0.935,-0.565
8.469,-0.935,-0.570
8.472,-0.925,-0.560
8.475,-0.915,-0.535
8.478,-0.905,-0.535
8.481,-0.905,-0.545
8.483,-0.900,-0.540
8.486,-0.920,-0.555
8.489,-0.930,-0.575
8.492,-0.945,-0.580
8.494,-0.945,-0.585
8.497,-0.945,-0.580
8.500,-0.950,-0.575
8.503,-0.935,-0.560
8.506,-0.915,-0.570
8.508,-0.905,-0.540
8.511,-0.905,-0.565
8.514,-0.895,-0.555
8.517,-0.925,-0.575
8.519,-0.920,-0.590
8.522,-0.940,-0.575
8.525,-0.935,-0.585
8.528,-0.935,-0.590
8.531,-0.945,-0.570
8.533,-0.960,-0.580
8.536,-0.940,-0.570
8.539,-0.930,-0.565
8.542,-0.930,-0.555
8.544,-0.915,-0.540
8.547,-0.910,-0.545
8.550,-0.905,-0.560
8.553,-0.925,-0.555
8.556,-0.930,-0.570
8.558,-0.925,-0.560
8.561,-0.945,-0.580
8.564,-0.945,-0.570
8.567,-0.950,-0.570
8.569,-0.940,-0.555
8.572,-0.935,-0.565
8.575,-0.930,-0.535
8.578,-0.925,-0.530
8.581,-0.920,-0.545
8.583,-0.945,-0.565
8.586,-0.930,-0.590
8.589,-0.965,-0.590
8.592,-0.955,-0.600
8.594,-0.945,-0.600
8.597,-0.960,-0.590
8.600,-0.960,-0.565
8.603,-0.945,-0.565
8.606,-0.950,-0.540
8.608,-0.940,-0.540
8.611,-0.925,-0.535
8.614,-0.915,-0.535
8.617,-0.935,-0.550
8.619,-0.940,-0.560
8.622,-0.950,-0.555
8.625,-0.960,-0.565
8.628,-0.970,-0.570
8.631,-0.965,-0.580
8.633,-0.965,-0.580
8.636,-0.955,-0.560
8.639,-0.945,-0.555
8.642,-0.935,-0.545
8.644,-0.950,-0.540
8.647,-0.940,-0.550
8.650,-0.940,-0.560
8.653,-0.935,-0.565
8.656,-0.945,-0.585
8.658,-0.950,-0.570
8.661,-0.960,-0.600
8.664,-0.965,-0.580
8.667,-0.950,-0.555
8.669,-0.945,-0.570
8.672,-0.950,-0.580
8.675,-0.940,-0.555
8.678,-0.925,-0.560
8.681,-0.925,-0.560
8.683,-0.925,-0.550
8.686,-0.925,-0.550
8.689,-0.935,-0.550
8.692,-0.950,-0.575
8.694,-0.955,-0.565
8.697,-0.970,-0.570
8.700,-0.970,-0.585
8.703,-0.960,-0.570
8.706,-0.935,-0.565
8.708,-0.935,-0.545
8.711,-0.925,-0.550
8.714,-0.915,-0.545
8.717,-0.915,-0.540
8.719,-0.920,-0.550
8.722,-0.940,-0.560
8.725,-0.940,-0.575
8.728,-0.955,-0.575
8.731,-0.970,-0.600
8.733,-0.960,-0.590
8.736,-0.965,-0.585
8.739,-0.970,-0.570
8.742,-0.950,-0.570
8.744,-0.935,-0.545
8.747,-0.930,-0.570
8.750,-0.915,-0.560
8.753,-0.920,-0.570
8.756,-0.935,-0.580
8.758,-0.940,-0.595
8.761,-0.960,-0.580
8.764,-0.950,-0.575
8.767,-0.955,-0.580
8.769,-0.950,-0.565
8.772,-0.945,-0.560
8.775,-0.940,-0.555
8.778,-0.920,-0.540
8.781,-0.920,-0.550
8.783,-0.925,-0.565
8.786,-0.940,-0.575
8.789,-0.960,-0.555
8.792,-0.960,-0.585
8.794,-0.965,-0.585
8.797,-0.945,-0.580
8.800,-0.945,-0.585
8.803,-0.920,-0.565
8.806,-0.900,-0.550
8.808,-0.880,-0.535
8.811,-0.860,-0.545
8.814,-0.845,-0.535
8.817,-0.830,-0.535
8.819,-0.810,-0.565
8.822,-0.825,-0.575
8.825,-0.840,-0.595
8.828,-0.850,-0.610
8.831,-0.875,-0.595
8.833,-0.860,-0.565
8.836,-0.825,-0.555
8.839,-0.790,-0.545
8.842,-0.730,-0.525
8.844,-0.685,-0.505
8.847,-0.680,-0.500
8.850,-0.670,-0.490
8.853,-0.705,-0.495
8.856,-0.720,-0.520
8.858,-0.735,-0.515
8.861,-0.770,-0.505
8.864,-0.780,-0.525
8.867,-0.795,-0.500
8.869,-0.795,-0.485
8.872,-0.780,-0.465
8.875,-0.775,-0.470
8.878,-0.780,-0.465
8.881,-0.780,-0.480
8.883,-0.800,-0.485
8.886,-0.830,-0.515
8.889,-0.865,-0.525
8.892,-0.915,-0.550
8.894,-0.940,-0.575
8.897,-0.975,-0.590
8.900,-0.990,-0.590
8.903,-0.990,-0.585
8.906,-0.975,-0.560
8.908,-0.965,-0.565
8.911,-0.970,-0.555
8.914,-0.960,-0.550
8.917,-0.970,-0.565
8.919,-0.990,-0.555
8.922,-0.990,-0.560
8.925,-1.010,-0.570
8.928,-1.010,-0.585
8.931,-1.020,-0.570
8.933,-1.025,-0.560
8.936,-1.020,-0.550
8.939,-1.010,-0.555
8.942,-1.005,-0.545
8.944,-0.985,-0.530
8.947,-0.975,-0.530
8.950,-0.990,-0.545
8.953,-0.980,-0.535
8.956,-0.990,-0.560
8.958,-1.005,-0.565
8.961,-1.000,-0.590
8.964,-1.010,-0.570
8.967,-1.015,-0.575
8.969,-0.990,-0.580
8.972,-0.980,-0.555
8.975,-0.980,-0.560
8.978,-0.965,-0.550
8.981,-0.980,-0.550
8.983,-0.970,-0.565
8.986,-0.990,-0.555
8.989,-0.975,-0.555
8.992,-0.985,-0.550
8.994,-0.970,-0.550
8.997,-0.975,-0.555
9.000,-0.960,-0.550
9.003,-0.970,-0.535
9.006,-0.950,-0.540
9.008,-0.940,-0.520
9.011,-0.920,-0.520
9.014,-0.920,-0.500
9.017,-0.895,-0.495
9.019,-0.900,-0.495
9.022,-0.885,-0.505
9.025,-0.880,-0.475
9.028,-0.845,-0.430
9.031,-0.735,-0.360
9.033,-0.560,-0.225
9.036,-0.310,-0.050
9.039,-0.030,0.115
9.042,0.240,0.265
9.044,0.535,0.390
9.047,0.835,0.435
9.050,1.095,0.470
9.053,1.285,0.435
9.056,1.315,0.405
9.058,1.145,0.320
9.061,0.825,0.220
9.064,0.370,0.045
9.067,-0.170,-0.200
9.069,-0.715,-0.455
9.072,-1.195,-0.725
9.075,-1.540,-1.020
9.078,-1.685,-1.210
9.081,-1.700,-1.320
9.083,-1.600,-1.300
9.086,-1.450,-1.215
9.089,-1.325,-1.070
9.092,-1.245,-0.945
9.094,-1.220,-0.830
9.097,-1.215,-0.755
9.100,-1.200,-0.720
9.103,-1.150,-0.665
9.106,-1.090,-0.630
9.108,-1.035,-0.605
9.111,-0.990,-0.585
9.114,-0.940,-0.575
9.117,-0.935,-0.565
9.119,-0.960,-0.555
9.122,-0.990,-0.575
9.125,-1.000,-0.575
9.128,-1.010,-0.565
9.131,-1.005,-0.555
9.133,-1.005,-0.545
9.136,-0.990,-0.540
9.139,-0.990,-0.530
9.142,-0.985,-0.515
9.144,-0.975,-0.515
9.147,-0.975,-0.495
9.150,-0.965,-0.490
9.153,-0.980,-0.505
9.156,-0.960,-0.520
9.158,-0.975,-0.510
9.161,-0.975,-0.515
9.164,-0.985,-0.510
9.167,-0.980,-0.515
9.169,-0.960,-0.495
9.172,-0.960,-0.480
9.175,-0.955,-0.470
9.178,-0.955,-0.465
9.181,-0.955,-0.485
9.183,-0.940,-0.475
9.186,-0.940,-0.495
9.189,-0.965,-0.505
9.192,-0.970,-0.515
9.194,-0.970,-0.525
9.197,-0.965,-0.505
9.200,-0.970,-0.515
9.203,-0.950,-0.505
9.206,-0.940,-0.480
9.208,-0.950,-0.475
9.211,-0.950,-0.470
9.214,-0.940,-0.470
9.217,-0.940,-0.465
9.219,-0.950,-0.460
9.222,-0.975,-0.485
9.225,-0.970,-0.485
9.228,-0.970,-0.505
9.231,-0.960,-0.495
9.233,-0.970,-0.480
9.236,-0.960,-0.470
9.239,-0.955,-0.460
9.242,-0.945,-0.450
9.244,-0.925,-0.445
9.247,-0.910,-0.450
9.250,-0.910,-0.440
9.253,-0.905,-0.450
9.256,-0.905,-0.450
9.258,-0.920,-0.465
9.261,-0.920,-0.455
9.264,-0.910,-0.470
9.267,-0.905,-0.465
9.269,-0.895,-0.440
9.272,-0.880,-0.440
9.275,-0.870,-0.425
9.278,-0.850,-0.400
9.281,-0.845,-0.405
9.283,-0.835,-0.385
9.286,-0.830,-0.395
9.289,-0.820,-0.390
9.292,-0.845,-0.405
9.294,-0.840,-0.400
9.297,-0.840,-0.385
9.300,-0.830,-0.375
9.303,-0.810,-0.355
9.306,-0.780,-0.345
9.308,-0.755,-0.315
9.311,-0.730,-0.305
9.314,-0.710,-0.305
9.317,-0.700,-0.305
9.319,-0.690,-0.305
9.322,-0.690,-0.300
9.325,-0.685,-0.290
9.328,-0.660,-0.295
9.331,-0.665,-0.275
9.333,-0.660,-0.265
9.336,-0.620,-0.260
9.339,-0.595,-0.230
9.342,-0.560,-0.235
9.344,-0.545,-0.225
9.347,-0.515,-0.205
9.350,-0.490,-0.200
9.353,-0.500,-0.215
9.356,-0.475,-0.205
9.358,-0.485,-0.205
9.361,-0.475,-0.185
9.364,-0.470,-0.200
9.367,-0.475,-0.180
9.369,-0.450,-0.160
9.372,-0.445,-0.155
9.375,-0.420,-0.135
9.378,-0.400,-0.140
9.381,-0.410,-0.140
9.383,-0.415,-0.160
9.386,-0.420,-0.165
9.389,-0.440,-0.190
9.392,-0.475,-0.205
9.394,-0.485,-0.225
9.397,-0.510,-0.240
9.400,-0.535,-0.245
9.403,-0.560,-0.245
9.406,-0.565,-0.255
9.408,-0.585,-0.275
9.411,-0.605,-0.275
9.414,-0.625,-0.315
9.417,-0.650,-0.315
9.419,-0.685,-0.365
9.422,-0.710,-0.380
9.425,-0.750,-0.420
9.428,-0.775,-0.440
9.431,-0.800,-0.450
9.433,-0.820,-0.465
9.436,-0.820,-0.460
9.439,-0.825,-0.455
9.442,-0.815,-0.450
9.444,-0.815,-0.440
9.447,-0.810,-0.460
9.450,-0.825,-0.455
9.453,-0.840,-0.475
9.456,-0.850,-0.475
9.458,-0.855,-0.485
9.461,-0.875,-0.495
9.464,-0.875,-0.485
9.467,-0.870,-0.485
9.469,-0.870,-0.470
9.472,-0.855,-0.470
9.475,-0.850,-0.465
9.478,-0.855,-0.475
9.481,-0.850,-0.490
9.483,-0.855,-0.490
9.486,-0.855,-0.510
9.489,-0.880,-0.510
9.492,-0.890,-0.515
9.494,-0.900,-0.530
9.497,-0.905,-0.510
9.500,-0.910,-0.520
9.503,-0.890,-0.500
9.506,-0.875,-0.500
9.508,-0.860,-0.505
9.511,-0.860,-0.480
9.514,-0.845,-0.495
9.517,-0.835,-0.465
9.519,-0.855,-0.470
9.522,-0.865,-0.480
9.525,-0.885,-0.490
9.528,-0.890,-0.510
9.531,-0.895,-0.500
9.533,-0.905,-0.510
9.536,-0.875,-0.495
9.539,-0.860,-0.510
9.542,-0.845,-0.485
9.544,-0.830,-0.475
9.547,-0.820,-0.480
9.550,-0.825,-0.480
9.553,-0.820,-0.480
9.556,-0.840,-0.490
9.558,-0.845,-0.470
9.561,-0.840,-0.485
9.564,-0.845,-0.480
9.567,-0.850,-0.485
9.569,-0.855,-0.475
9.572,-0.840,-0.465
9.575,-0.815,-0.460
9.578,-0.805,-0.450
9.581,-0.800,-0.440
9.583,-0.790,-0.465
9.586,-0.810,-0.445
9.589,-0.815,-0.480
9.592,-0.825,-0.465
9.594,-0.835,-0.475
9.597,-0.835,-0.475
9.600,-0.840,-0.475
9.603,-0.840,-0.455
9.606,-0.810,-0.460
9.608,-0.810,-0.425
9.611,-0.805,-0.425
9.614,-0.800,-0.430
9.617,-0.795,-0.430
9.619,-0.800,-0.425
9.622,-0.800,-0.445
9.625,-0.825,-0.440
9.628,-0.810,-0.455
9.631,-0.825,-0.445
9.633,-0.825,-0.445
9.636,-0.825,-0.465
9.639,-0.810,-0.455
9.642,-0.805,-0.455
9.644,-0.790,-0.460
9.647,-0.805,-0.440
9.650,-0.790,-0.440
9.653,-0.805,-0.455
9.656,-0.820,-0.465
9.658,-0.835,-0.470
9.661,-0.855,-0.480
9.664,-0.865,-0.480
9.667,-0.850,-0.475
9.669,-0.860,-0.475
9.672,-0.840,-0.460
9.675,-0.830,-0.450
9.678,-0.815,-0.455
9.681,-0.815,-0.450
9.683,-0.835,-0.450
9.686,-0.825,-0.465
9.689,-0.830,-0.455
9.692,-0.830,-0.475
9.694,-0.835,-0.480
9.697,-0.850,-0.470
9.700,-0.870,-0.505
9.703,-0.850,-0.475
9.706,-0.865,-0.480
9.708,-0.850,-0.460
9.711,-0.845,-0.455
9.714,-0.830,-0.460
9.717,-0.845,-0.455
9.719,-0.845,-0.485
9.722,-0.850,-0.495
9.725,-0.845,-0.505
9.728,-0.865,-0.505
9.731,-0.870,-0.495
9.733,-0.870,-0.500
9.736,-0.865,-0.495
9.739,-0.845,-0.480
9.742,-0.845,-0.470
9.744,-0.840,-0.475
9.747,-0.850,-0.475
9.750,-0.835,-0.460
9.753,-0.850,-0.475
9.756,-0.835,-0.475
9.758,-0.850,-0.500
9.761,-0.865,-0.500
9.764,-0.880,-0.505
9.767,-0.875,-0.500
9.769,-0.870,-0.475
9.772,-0.850,-0.470
9.775,-0.855,-0.445
9.778,-0.845,-0.445
9.781,-0.850,-0.460
9.783,-0.845,-0.475
9.786,-0.825,-0.490
9.789,-0.850,-0.485
9.792,-0.850,-0.520
9.794,-0.860,-0.520
9.797,-0.855,-0.515
9.800,-0.850,-0.500
9.803,-0.845,-0.480
9.806,-0.845,-0.470
9.808,-0.840,-0.480
9.811,-0.845,-0.465
9.814,-0.845,-0.460
9.817,-0.845,-0.465
9.819,-0.855,-0.470
9.822,-0.845,-0.495
9.825,-0.840,-0.505
9.828,-0.865,-0.510
9.831,-0.880,-0.500
9.833,-0.865,-0.490
9.836,-0.850,-0.485
9.839,-0.855,-0.465
9.842,-0.835,-0.465
9.844,-0.820,-0.455
9.847,-0.835,-0.460
9.850,-0.820,-0.465
9.853,-0.840,-0.475
9.856,-0.835,-0.500
9.858,-0.835,-0.495
9.861,-0.860,-0.505
9.864,-0.865,-0.495
9.867,-0.870,-0.505
9.869,-0.860,-0.505
9.872,-0.855,-0.480
9.875,-0.835,-0.470
9.878,-0.835,-0.480
9.881,-0.820,-0.475
9.883,-0.815,-0.465
9.886,-0.815,-0.495
9.889,-0.820,-0.485
9.892,-0.835,-0.480
9.894,-0.835,-0.490
9.897,-0.845,-0.490
9.900,-0.840,-0.485
9.903,-0.845,-0.475
9.906,-0.840,-0.480
9.908,-0.845,-0.465
9.911,-0.810,-0.450
9.914,-0.805,-0.460
9.917,-0.795,-0.470
9.919,-0.805,-0.475
9.922,-0.820,-0.465
9.925,-0.815,-0.485
9.928,-0.820,-0.490
9.931,-0.820,-0.500
9.933,-0.810,-0.480
9.936,-0.790,-0.485
9.939,-0.780,-0.475
9.942,-0.765,-0.460
9.944,-0.740,-0.470
9.947,-0.730,-0.480
9.950,-0.715,-0.465
9.953,-0.710,-0.480
9.956,-0.715,-0.490
9.958,-0.705,-0.495
9.961,-0.705,-0.490
9.964,-0.710,-0.485
9.967,-0.685,-0.480
9.969,-0.640,-0.465
9.972,-0.625,-0.430
9.975,-0.595,-0.415
9.978,-0.560,-0.395
9.981,-0.565,-0.390
9.983,-0.580,-0.395
9.986,-0.600,-0.395
9.989,-0.615,-0.420
9.992,-0.625,-0.440
9.994,-0.645,-0.450
9.997,-0.665,-0.450
10.000,-0.650,-0.430
10.003,-0.655,-0.415
10.006,-0.645,-0.400
10.008,-0.640,-0.385
10.011,-0.635,-0.375
10.014,-0.660,-0.390
10.017,-0.700,-0.405
10.019,-0.730,-0.425
10.022,-0.775,-0.440
10.025,-0.800,-0.475
10.028,-0.825,-0.490
10.031,-0.840,-0.500
10.033,-0.855,-0.500
10.036,-0.855,-0.495
10.039,-0.850,-0.480
10.042,-0.850,-0.480
10.044,-0.845,-0.460
10.047,-0.845,-0.480
10.050,-0.850,-0.480
10.053,-0.860,-0.480
10.056,-0.865,-0.470
10.058,-0.890,-0.475
10.061,-0.890,-0.480
10.064,-0.890,-0.500
10.067,-0.885,-0.490
10.069,-0.885,-0.490
10.072,-0.895,-0.475
10.075,-0.885,-0.475
10.078,-0.870,-0.460
10.081,-0.855,-0.470
10.083,-0.875,-0.475
10.086,-0.885,-0.480
10.089,-0.870,-0.495
10.092,-0.890,-0.515
10.094,-0.885,-0.505
10.097,-0.885,-0.505
10.100,-0.885,-0.510
10.103,-0.890,-0.495
10.106,-0.885,-0.500
10.108,-0.875,-0.480
10.111,-0.870,-0.470
10.114,-0.860,-0.460
10.117,-0.870,-0.485
10.119,-0.860,-0.485
10.122,-0.860,-0.490
10.125,-0.865,-0.490
10.128,-0.875,-0.510
10.131,-0.880,-0.505
10.133,-0.880,-0.490
10.136,-0.875,-0.465
10.139,-0.860,-0.470
10.142,-0.835,-0.450
10.144,-0.820,-0.440
10.147,-0.800,-0.440
10.150,-0.795,-0.440
10.153,-0.775,-0.435
10.156,-0.770,-0.435
10.158,-0.760,-0.425
10.161,-0.755,-0.400
10.164,-0.675,-0.335
10.167,-0.525,-0.245
10.169,-0.300,-0.105
10.172,-0.025,0.065
10.175,0.250,0.240
10.178,0.540,0.395
10.181,0.835,0.465
10.183,1.155,0.490
10.186,1.385,0.495
10.189,1.475,0.475
10.192,1.360,0.395
10.194,1.030,0.270
10.197,0.515,0.055
10.200,-0.125,-0.225
10.203,-0.765,-0.575
10.206,-1.360,-0.915
10.208,-1.690,-1.190
10.211,-1.745,-1.330
10.214,-1.635,-1.295
10.217,-1.445,-1.165
10.219,-1.240,-0.990
10.222,-1.110,-0.815
10.225,-1.020,-0.710
10.228,-0.970,-0.650
10.231,-0.950,-0.595
10.233,-0.925,-0.600
10.236,-0.905,-0.580
10.239,-0.880,-0.545
10.242,-0.855,-0.550
10.244,-0.855,-0.540
10.247,-0.830,-0.530
10.250,-0.835,-0.505
10.253,-0.850,-0.525
10.256,-0.860,-0.525
10.258,-0.850,-0.505
10.261,-0.860,-0.525
10.264,-0.855,-0.510
10.267,-0.855,-0.490
10.269,-0.850,-0.490
10.272,-0.850,-0.475
10.275,-0.835,-0.465
10.278,-0.815,-0.450
10.281,-0.815,-0.445
10.283,-0.815,-0.450
10.286,-0.820,-0.460
10.289,-0.815,-0.455
10.292,-0.830,-0.475
10.294,-0.840,-0.470
10.297,-0.850,-0.485
10.300,-0.835,-0.465
10.303,-0.835,-0.460
10.306,-0.825,-0.465
10.308,-0.810,-0.440
10.311,-0.795,-0.450
10.314,-0.790,-0.430
10.317,-0.790,-0.450
10.319,-0.800,-0.455
10.322,-0.810,-0.465
10.325,-0.815,-0.470
10.328,-0.820,-0.495
10.331,-0.840,-0.490
10.333,-0.845,-0.475
10.336,-0.845,-0.465
10.339,-0.825,-0.460
10.342,-0.815,-0.440
10.344,-0.800,-0.425
10.347,-0.790,-0.430
10.350,-0.795,-0.430
10.353,-0.790,-0.430
10.356,-0.800,-0.440
10.358,-0.800,-0.450
10.361,-0.805,-0.465
10.364,-0.810,-0.460
10.367,-0.800,-0.450
10.369,-0.795,-0.425
10.372,-0.790,-0.425
10.375,-0.770,-0.425
10.378,-0.765,-0.400
10.381,-0.765,-0.380
10.383,-0.745,-0.405
10.386,-0.740,-0.405
10.389,-0.750,-0.425
10.392,-0.765,-0.430
10.394,-0.775,-0.430
10.397,-0.785,-0.415
10.400,-0.775,-0.420
10.403,-0.770,-0.415
10.406,-0.750,-0.385
10.408,-0.735,-0.365
10.411,-0.700,-0.350
10.414,-0.700,-0.360
10.417,-0.695,-0.345
10.419,-0.685,-0.340
10.422,-0.670,-0.350
10.425,-0.675,-0.345
10.428,-0.665,-0.350
10.431,-0.655,-0.340
10.433,-0.640,-0.315
10.436,-0.635,-0.305
10.439,-0.630,-0.290
10.442,-0.590,-0.270
10.444,-0.560,-0.235
10.447,-0.540,-0.240
10.450,-0.520,-0.245
10.453,-0.500,-0.215
10.456,-0.480,-0.220
10.458,-0.470,-0.220
10.461,-0.465,-0.215
10.464,-0.450,-0.220
10.467,-0.435,-0.215
10.469,-0.415,-0.190
10.472,-0.395,-0.185
10.475,-0.375,-0.155
10.478,-0.355,-0.145
10.481,-0.325,-0.145
10.483,-0.330,-0.140
10.486,-0.325,-0.125
10.489,-0.330,-0.130
10.492,-0.315,-0.140
10.494,-0.300,-0.160
10.497,-0.305,-0.145
10.500,-0.305,-0.150
10.503,-0.315,-0.140
10.506,-0.315,-0.150
10.508,-0.320,-0.140
10.511,-0.325,-0.150
10.514,-0.335,-0.175
10.517,-0.355,-0.180
10.519,-0.385,-0.220
10.522,-0.415,-0.230
10.525,-0.450,-0.265
10.528,-0.470,-0.300
10.531,-0.510,-0.315
10.533,-0.525,-0.325
10.536,-0.565,-0.340
10.539,-0.565,-0.350
10.542,-0.585,-0.360
10.544,-0.610,-0.365
10.547,-0.625,-0.400
10.550,-0.645,-0.410
10.553,-0.665,-0.420
10.556,-0.685,-0.440
10.558,-0.695,-0.465
10.561,-0.710,-0.455
10.564,-0.730,-0.460
10.567,-0.750,-0.485
10.569,-0.760,-0.470
10.572,-0.755,-0.475
10.575,-0.760,-0.470
10.578,-0.760,-0.475
10.581,-0.745,-0.460
10.583,-0.750,-0.480
10.586,-0.745,-0.485
10.589,-0.755,-0.495
10.592,-0.780,-0.515
10.594,-0.785,-0.515
10.597,-0.800,-0.525
10.600,-0.800,-0.525
10.603,-0.800,-0.515
10.606,-0.795,-0.520
10.608,-0.775,-0.505
10.611,-0.790,-0.510
10.614,-0.775,-0.520
10.617,-0.775,-0.515
10.619,-0.780,-0.530
10.622,-0.790,-0.540
10.625,-0.805,-0.555
10.628,-0.815,-0.555
10.631,-0.810,-0.560
10.633,-0.820,-0.545
10.636,-0.810,-0.525
10.639,-0.805,-0.510
10.642,-0.800,-0.520
10.644,-0.785,-0.505
10.647,-0.785,-0.515
10.650,-0.785,-0.510
10.653,-0.795,-0.515
10.656,-0.790,-0.525
10.658,-0.800,-0.525
10.661,-0.820,-0.535
10.664,-0.825,-0.540
10.667,-0.825,-0.535
10.669,-0.815,-0.520
10.672,-0.800,-0.525
10.675,-0.790,-0.510
10.678,-0.770,-0.495
10.681,-0.760,-0.500
10.683,-0.775,-0.500
10.686,-0.760,-0.515
10.689,-0.760,-0.535
10.692,-0.785,-0.540
10.694,-0.770,-0.550
10.697,-0.795,-0.535
10.700,-0.790,-0.525
10.703,-0.775,-0.525
10.706,-0.770,-0.515
10.708,-0.780,-0.500
10.711,-0.765,-0.490
10.714,-0.740,-0.500
10.717,-0.735,-0.490
10.719,-0.745,-0.500
10.722,-0.745,-0.500
10.725,-0.750,-0.505
10.728,-0.750,-0.510
10.731,-0.765,-0.510
10.733,-0.770,-0.505
10.736,-0.765,-0.515
10.739,-0.770,-0.490
10.742,-0.755,-0.490
10.744,-0.750,-0.490
10.747,-0.745,-0.470
10.750,-0.755,-0.485
10.753,-0.745,-0.510
10.756,-0.765,-0.495
10.758,-0.780,-0.505
10.761,-0.790,-0.520
10.764,-0.790,-0.530
10.767,-0.795,-0.545
10.769,-0.795,-0.525
10.772,-0.790,-0.535
10.775,-0.790,-0.500
10.778,-0.765,-0.510
10.781,-0.760,-0.510
10.783,-0.770,-0.510
10.786,-0.775,-0.515
10.789,-0.785,-0.535
10.792,-0.795,-0.545
10.794,-0.820,-0.555
10.797,-0.830,-0.560
10.800,-0.830,-0.545
10.803,-0.825,-0.525
10.806,-0.815,-0.525
10.808,-0.810,-0.525
10.811,-0.785,-0.515
10.814,-0.795,-0.515
10.817,-0.780,-0.520
10.819,-0.800,-0.515
10.822,-0.820,-0.525
10.825,-0.820,-0.545
10.828,-0.830,-0.560
10.831,-0.830,-0.555
10.833,-0.830,-0.570
10.836,-0.820,-0.550
10.839,-0.820,-0.555
10.842,-0.800,-0.560
10.844,-0.805,-0.540
10.847,-0.805,-0.545
10.850,-0.805,-0.540
10.853,-0.810,-0.550
10.856,-0.825,-0.570
10.858,-0.835,-0.565
10.861,-0.840,-0.580
10.864,-0.835,-0.565
10.867,-0.855,-0.570
10.869,-0.840,-0.575
10.872,-0.840,-0.570
10.875,-0.830,-0.540
10.878,-0.835,-0.555
10.881,-0.825,-0.545
10.883,-0.840,-0.535
10.886,-0.830,-0.545
10.889,-0.825,-0.560
10.892,-0.855,-0.560
10.894,-0.855,-0.575
10.897,-0.850,-0.570
10.900,-0.850,-0.565
10.903,-0.850,-0.585
10.906,-0.855,-0.560
10.908,-0.840,-0.550
10.911,-0.830,-0.560
10.914,-0.820,-0.540
10.917,-0.825,-0.550
10.919,-0.820,-0.575
10.922,-0.845,-0.585
10.925,-0.855,-0.585
10.928,-0.855,-0.610
10.931,-0.870,-0.600
10.933,-0.865,-0.600
10.936,-0.860,-0.580
10.939,-0.855,-0.580
10.942,-0.860,-0.560
10.944,-0.860,-0.555
10.947,-0.850,-0.560
10.950,-0.860,-0.570
10.953,-0.875,-0.580
10.956,-0.855,-0.570
10.958,-0.875,-0.595
10.961,-0.875,-0.595
10.964,-0.865,-0.590
10.967,-0.870,-0.595
10.969,-0.850,-0.585
10.972,-0.855,-0.580
10.975,-0.845,-0.580
10.978,-0.835,-0.570
10.981,-0.835,-0.580
10.983,-0.835,-0.570
10.986,-0.835,-0.585
10.989,-0.850,-0.600
10.992,-0.870,-0.605
10.994,-0.860,-0.605
10.997,-0.860,-0.625
11.000,-0.855,-0.610
11.003,-0.860,-0.610
11.006,-0.865,-0.595
11.008,-0.850,-0.585
11.011,-0.845,-0.585
11.014,-0.835,-0.570
11.017,-0.835,-0.575
11.019,-0.845,-0.585
11.022,-0.845,-0.585
11.025,-0.855,-0.590
11.028,-0.865,-0.590
11.031,-0.870,-0.605
11.033,-0.860,-0.605
11.036,-0.860,-0.585
11.039,-0.860,-0.585
11.042,-0.835,-0.560
11.044,-0.825,-0.550
11.047,-0.830,-0.560
11.050,-0.835,-0.555
11.053,-0.820,-0.570
11.056,-0.840,-0.585
11.058,-0.840,-0.610
11.061,-0.855,-0.605
11.064,-0.860,-0.610
11.067,-0.865,-0.605
11.069,-0.850,-0.635
11.072,-0.855,-0.610
11.075,-0.865,-0.585
11.078,-0.850,-0.575
11.081,-0.830,-0.590
11.083,-0.830,-0.575
11.086,-0.845,-0.580
11.089,-0.845,-0.575
11.092,-0.855,-0.590
11.094,-0.865,-0.610
11.097,-0.890,-0.595
11.100,-0.875,-0.595
11.103,-0.870,-0.595
11.106,-0.850,-0.575
11.108,-0.850,-0.565
11.111,-0.845,-0.545
11.114,-0.830,-0.565
11.117,-0.825,-0.560
11.119,-0.825,-0.575
11.122,-0.840,-0.585
11.125,-0.855,-0.580
11.128,-0.860,-0.590
11.131,-0.855,-0.605
11.133,-0.860,-0.590
11.136,-0.865,-0.595
11.139,-0.850,-0.575
11.142,-0.855,-0.585
11.144,-0.825,-0.570
11.147,-0.820,-0.580
11.150,-0.840,-0.580
11.153,-0.825,-0.580
11.156,-0.835,-0.585
11.158,-0.850,-0.600
11.161,-0.845,-0.615
11.164,-0.845,-0.615
11.167,-0.850,-0.600
11.169,-0.850,-0.580
11.172,-0.845,-0.560
11.175,-0.840,-0.555
11.178,-0.845,-0.545
11.181,-0.820,-0.560
11.183,-0.805,-0.560
11.186,-0.825,-0.570
11.189,-0.820,-0.585
11.192,-0.840,-0.585
11.194,-0.845,-0.575
11.197,-0.845,-0.590
11.200,-0.850,-0.595
11.203,-0.850,-0.590
11.206,-0.835,-0.560
11.208,-0.825,-0.560
11.211,-0.815,-0.560
11.214,-0.815,-0.560
11.217,-0.805,-0.560
11.219,-0.825,-0.580
11.222,-0.820,-0.575
11.225,-0.840,-0.590
11.228,-0.850,-0.590
11.231,-0.840,-0.605
11.233,-0.845,-0.600
11.236,-0.850,-0.585
11.239,-0.860,-0.570
11.242,-0.840,-0.560
11.244,-0.815,-0.555
11.247,-0.805,-0.540
11.250,-0.815,-0.560
11.253,-0.820,-0.555
11.256,-0.825,-0.570
11.258,-0.820,-0.570
11.261,-0.830,-0.580
11.264,-0.835,-0.590
11.267,-0.840,-0.585
11.269,-0.850,-0.585
11.272,-0.825,-0.565
11.275,-0.820,-0.560
11.278,-0.815,-0.535
11.281,-0.800,-0.550
11.283,-0.790,-0.550
11.286,-0.795,-0.555
11.289,-0.795,-0.560
11.292,-0.795,-0.585
11.294,-0.795,-0.580
11.297,-0.780,-0.585
11.300,-0.770,-0.580
11.303,-0.735,-0.590
11.306,-0.720,-0.570
11.308,-0.710,-0.560
11.311,-0.710,-0.540
11.314,-0.695,-0.540
11.317,-0.690,-0.560
11.319,-0.685,-0.550
11.322,-0.670,-0.565
11.325,-0.670,-0.555
11.328,-0.660,-0.555
11.331,-0.640,-0.545
11.333,-0.640,-0.520
11.336,-0.640,-0.530
11.339,-0.630,-0.495
11.342,-0.640,-0.500
11.344,-0.640,-0.505
11.347,-0.650,-0.515
11.350,-0.660,-0.520
11.353,-0.650,-0.515
11.356,-0.680,-0.525
11.358,-0.695,-0.530
11.361,-0.710,-0.520
11.364,-0.720,-0.525
11.367,-0.720,-0.515
11.369,-0.720,-0.505
11.372,-0.725,-0.500
11.375,-0.730,-0.495
11.378,-0.745,-0.505
11.381,-0.750,-0.515
11.383,-0.780,-0.530
11.386,-0.800,-0.545
11.389,-0.840,-0.555
11.392,-0.865,-0.575
11.394,-0.880,-0.585
11.397,-0.885,-0.575
11.400,-0.900,-0.585
11.403,-0.895,-0.595
11.406,-0.915,-0.580
11.408,-0.915,-0.575
11.411,-0.905,-0.555
11.414,-0.915,-0.550
11.417,-0.885,-0.565
11.419,-0.895,-0.575
11.422,-0.905,-0.575
11.425,-0.900,-0.585
11.428,-0.920,-0.585
11.431,-0.925,-0.575
11.433,-0.945,-0.590
11.436,-0.940,-0.585
11.439,-0.910,-0.580
11.442,-0.895,-0.560
11.444,-0.890,-0.570
11.447,-0.885,-0.560
11.450,-0.875,-0.585
11.453,-0.880,-0.600
11.456,-0.885,-0.575
11.458,-0.890,-0.615
11.461,-0.895,-0.615
11.464,-0.905,-0.615
11.467,-0.910,-0.605
11.469,-0.915,-0.590
11.472,-0.895,-0.570
11.475,-0.890,-0.575
11.478,-0.870,-0.555
11.481,-0.860,-0.555
11.483,-0.865,-0.555
11.486,-0.870,-0.555
11.489,-0.860,-0.565
11.492,-0.860,-0.565
11.494,-0.865,-0.585
11.497,-0.865,-0.565
11.500,-0.850,-0.555
11.503,-0.840,-0.535
11.506,-0.810,-0.515
11.508,-0.800,-0.510
11.511,-0.750,-0.465
11.514,-0.690,-0.430
11.517,-0.585,-0.355
11.519,-0.400,-0.260
11.522,-0.170,-0.135
11.525,0.080,0.010
11.528,0.340,0.165
11.531,0.610,0.245
11.533,0.895,0.290
11.536,1.185,0.310
11.539,1.405,0.335
11.542,1.535,0.365
11.544,1.475,0.360
11.547,1.205,0.295
11.550,0.725,0.155
11.553,0.125,-0.050
11.556,-0.515,-0.330
11.558,-1.120,-0.680
11.561,-1.525,-1.010
11.564,-1.670,-1.235
11.567,-1.615,-1.320
11.569,-1.430,-1.260
11.572,-1.220,-1.095
11.575,-1.040,-0.925
11.578,-0.945,-0.760
11.581,-0.925,-0.675
11.583,-0.945,-0.645
11.586,-0.980,-0.645
11.589,-0.965,-0.670
11.592,-0.970,-0.665
11.594,-0.940,-0.670
11.597,-0.925,-0.660
11.600,-0.915,-0.640
11.603,-0.890,-0.625
11.606,-0.885,-0.600
11.608,-0.885,-0.590
11.611,-0.890,-0.565
11.614,-0.890,-0.585
11.617,-0.900,-0.580
11.619,-0.905,-0.580
11.622,-0.915,-0.580
11.625,-0.915,-0.585
11.628,-0.910,-0.590
11.631,-0.915,-0.585
11.633,-0.915,-0.580
11.636,-0.910,-0.560
11.639,-0.900,-0.555
11.642,-0.885,-0.550
11.644,-0.880,-0.520
11.647,-0.880,-0.520
11.650,-0.885,-0.530
11.653,-0.880,-0.530
11.656,-0.880,-0.555
11.658,-0.895,-0.545
11.661,-0.905,-0.560
11.664,-0.900,-0.555
11.667,-0.905,-0.555
11.669,-0.905,-0.550
11.672,-0.900,-0.545
11.675,-0.895,-0.530
11.678,-0.895,-0.540
11.681,-0.875,-0.520
11.683,-0.875,-0.530
11.686,-0.880,-0.525
11.689,-0.880,-0.545
11.692,-0.885,-0.555
11.694,-0.895,-0.575
11.697,-0.910,-0.565
11.700,-0.905,-0.550
11.703,-0.915,-0.550
11.706,-0.900,-0.535
11.708,-0.880,-0.525
11.711,-0.875,-0.510
11.714,-0.880,-0.495
11.717,-0.860,-0.490
11.719,-0.870,-0.500
11.722,-0.865,-0.505
11.725,-0.870,-0.515
11.728,-0.880,-0.520
11.731,-0.870,-0.520
11.733,-0.880,-0.505
11.736,-0.870,-0.505
11.739,-0.885,-0.500
11.742,-0.860,-0.475
11.744,-0.840,-0.475
11.747,-0.825,-0.470
11.750,-0.825,-0.480
11.753,-0.825,-0.470
11.756,-0.835,-0.490
11.758,-0.840,-0.475
11.761,-0.850,-0.485
11.764,-0.845,-0.500
11.767,-0.840,-0.495
11.769,-0.830,-0.485
11.772,-0.815,-0.485
11.775,-0.790,-0.450
11.778,-0.765,-0.440
11.781,-0.770,-0.425
11.783,-0.755,-0.420
11.786,-0.740,-0.425
11.789,-0.735,-0.415
11.792,-0.730,-0.400
11.794,-0.730,-0.400
11.797,-0.715,-0.410
11.800,-0.715,-0.385
11.803,-0.705,-0.370
11.806,-0.680,-0.365
11.808,-0.650,-0.335
11.811,-0.625,-0.330
11.814,-0.610,-0.310
11.817,-0.595,-0.295
11.819,-0.565,-0.295
11.822,-0.555,-0.300
11.825,-0.545,-0.295
11.828,-0.540,-0.300
11.831,-0.515,-0.305
11.833,-0.515,-0.285
11.836,-0.495,-0.275
11.839,-0.475,-0.260
11.842,-0.445,-0.240
11.844,-0.415,-0.235
11.847,-0.400,-0.215
11.850,-0.385,-0.215
11.853,-0.370,-0.210
11.856,-0.360,-0.195
11.858,-0.355,-0.215
11.861,-0.350,-0.210
11.864,-0.360,-0.200
11.867,-0.360,-0.200
11.869,-0.365,-0.190
11.872,-0.340,-0.190
11.875,-0.345,-0.190
11.878,-0.355,-0.190
11.881,-0.355,-0.190
11.883,-0.375,-0.210
11.886,-0.395,-0.245
11.889,-0.425,-0.240
11.892,-0.460,-0.295
11.894,-0.480,-0.305
11.897,-0.515,-0.335
11.900,-0.535,-0.345
11.903,-0.540,-0.355
11.906,-0.575,-0.375
11.908,-0.590,-0.385
11.911,-0.610,-0.405
11.914,-0.635,-0.415
11.917,-0.650,-0.440
11.919,-0.675,-0.450
11.922,-0.685,-0.475
11.925,-0.715,-0.490
11.928,-0.745,-0.505
11.931,-0.765,-0.515
11.933,-0.775,-0.520
11.936,-0.785,-0.520
11.939,-0.800,-0.520
11.942,-0.785,-0.510
11.944,-0.780,-0.520
11.947,-0.780,-0.520
11.950,-0.775,-0.530
11.953,-0.790,-0.525
11.956,-0.800,-0.545
11.958,-0.820,-0.565
11.961,-0.830,-0.565
11.964,-0.835,-0.580
11.967,-0.830,-0.565
11.969,-0.830,-0.555
11.972,-0.825,-0.555
11.975,-0.830,-0.550
11.978,-0.810,-0.540
11.981,-0.815,-0.540
11.983,-0.800,-0.560
11.986,-0.810,-0.560
11.989,-0.810,-0.575
11.992,-0.825,-0.590
11.994,-0.840,-0.585
11.997,-0.855,-0.600
12.000,-0.845,-0.590
12.003,-0.845,-0.580
12.006,-0.840,-0.565
12.008,-0.835,-0.570
12.011,-0.820,-0.565
12.014,-0.815,-0.550
12.017,-0.820,-0.535
12.019,-0.805,-0.550
12.022,-0.825,-0.555
12.025,-0.820,-0.595
12.028,-0.845,-0.580
12.031,-0.850,-0.580
12.033,-0.865,-0.600
12.036,-0.855,-0.590
12.039,-0.835,-0.575
12.042,-0.830,-0.565
12.044,-0.820,-0.555
12.047,-0.795,-0.550
12.050,-0.805,-0.555
12.053,-0.795,-0.550
12.056,-0.800,-0.550
12.058,-0.820,-0.575
12.061,-0.825,-0.575
12.064,-0.830,-0.600
12.067,-0.830,-0.595
12.069,-0.830,-0.585
12.072,-0.830,-0.575
12.075,-0.825,-0.560
12.078,-0.815,-0.560
12.081,-0.810,-0.540
12.083,-0.800,-0.545
12.086,-0.795,-0.540
12.089,-0.805,-0.555
12.092,-0.830,-0.565
12.094,-0.845,-0.560
12.097,-0.845,-0.565
12.100,-0.850,-0.560
12.103,-0.830,-0.560
12.106,-0.830,-0.550
12.108,-0.815,-0.540
12.111,-0.810,-0.530
12.114,-0.820,-0.535
12.117,-0.820,-0.545
12.119,-0.815,-0.530
12.122,-0.805,-0.550
12.125,-0.835,-0.560
12.128,-0.825,-0.575
12.131,-0.830,-0.575
12.133,-0.840,-0.595
12.136,-0.845,-0.595
12.139,-0.830,-0.575
12.142,-0.825,-0.555
12.144,-0.825,-0.560
12.147,-0.815,-0.535
12.150,-0.820,-0.550
12.153,-0.825,-0.570
12.156,-0.835,-0.575
12.158,-0.840,-0.580
12.161,-0.855,-0.575
12.164,-0.860,-0.595
12.167,-0.860,-0.580
12.169,-0.865,-0.580
12.172,-0.850,-0.580
12.175,-0.850,-0.580
12.178,-0.850,-0.560
12.181,-0.835,-0.545
12.183,-0.840,-0.550
12.186,-0.845,-0.595
12.189,-0.845,-0.580
12.192,-0.850,-0.595
12.194,-0.875,-0.595
12.197,-0.870,-0.600
12.200,-0.875,-0.600
12.203,-0.875,-0.600
12.206,-0.885,-0.580
12.208,-0.860,-0.575
12.211,-0.860,-0.565
12.214,-0.840,-0.560
12.217,-0.840,-0.585
12.219,-0.850,-0.590
12.222,-0.850,-0.590
12.225,-0.875,-0.600
12.228,-0.875,-0.610
12.231,-0.880,-0.610
12.233,-0.880,-0.610
12.236,-0.890,-0.610
12.239,-0.880,-0.600
12.242,-0.885,-0.590
12.244,-0.870,-0.575
12.247,-0.870,-0.570
12.250,-0.865,-0.590
12.253,-0.860,-0.580
12.256,-0.880,-0.585
12.258,-0.890,-0.590
12.261,-0.895,-0.605
12.264,-0.890,-0.615
12.267,-0.895,-0.610
12.269,-0.910,-0.610
12.272,-0.900,-0.615
12.275,-0.895,-0.600
12.278,-0.870,-0.580
12.281,-0.860,-0.585
12.283,-0.865,-0.590
12.286,-0.870,-0.590
12.289,-0.870,-0.600
12.292,-0.885,-0.620
12.294,-0.895,-0.635
12.297,-0.900,-0.625
12.300,-0.915,-0.610
12.303,-0.900,-0.605
12.306,-0.915,-0.600
12.308,-0.900,-0.595
12.311,-0.875,-0.570
12.314,-0.880,-0.565
12.317,-0.870,-0.570
12.319,-0.865,-0.585
12.322,-0.890,-0.580
12.325,-0.900,-0.595
12.328,-0.910,-0.620
12.331,-0.910,-0.610
12.333,-0.905,-0.600
12.336,-0.925,-0.585
12.339,-0.910,-0.595
12.342,-0.900,-0.570
12.344,-0.870,-0.570
12.347,-0.870,-0.570
12.350,-0.875,-0.565
12.353,-0.875,-0.575
12.356,-0.885,-0.595
12.358,-0.905,-0.590
12.361,-0.910,-0.615
12.364,-0.905,-0.615
12.367,-0.910,-0.620
12.369,-0.910,-0.620
12.372,-0.895,-0.605
12.375,-0.890,-0.585
12.378,-0.890,-0.575
12.381,-0.885,-0.565
12.383,-0.870,-0.580
12.386,-0.870,-0.575
12.389,-0.875,-0.590
12.392,-0.885,-0.590
12.394,-0.905,-0.615
12.397,-0.915,-0.605
12.400,-0.895,-0.595
12.403,-0.910,-0.570
12.406,-0.900,-0.590
12.408,-0.890,-0.565
12.411,-0.880,-0.555
12.414,-0.870,-0.560
12.417,-0.885,-0.560
12.419,-0.880,-0.570
12.422,-0.880,-0.580
12.425,-0.895,-0.590
12.428,-0.890,-0.605
12.431,-0.920,-0.625
12.433,-0.915,-0.615
12.436,-0.900,-0.615
12.439,-0.895,-0.585
12.442,-0.880,-0.580
12.444,-0.880,-0.570
12.447,-0.855,-0.575
12.450,-0.860,-0.570
12.453,-0.865,-0.580
12.456,-0.865,-0.590
12.458,-0.885,-0.590
12.461,-0.885,-0.595
12.464,-0.895,-0.605
12.467,-0.915,-0.590
12.469,-0.910,-0.585
12.472,-0.905,-0.580
12.475,-0.880,-0.565
12.478,-0.880,-0.550
12.481,-0.870,-0.530
12.483,-0.865,-0.560
12.486,-0.860,-0.555
12.489,-0.890,-0.570
12.492,-0.885,-0.570
12.494,-0.890,-0.585
12.497,-0.890,-0.595
12.500,-0.890,-0.590
12.503,-0.885,-0.585
12.506,-0.880,-0.570
12.508,-0.875,-0.555
12.511,-0.860,-0.555
12.514,-0.860,-0.565
12.517,-0.870,-0.570
12.519,-0.855,-0.565
12.522,-0.870,-0.560
12.525,-0.880,-0.565
12.528,-0.885,-0.575
12.531,-0.895,-0.575
12.533,-0.885,-0.575
12.536,-0.880,-0.560
12.539,-0.870,-0.570
12.542,-0.875,-0.560
12.544,-0.870,-0.570
12.547,-0.865,-0.565
12.550,-0.850,-0.550
12.553,-0.855,-0.560
12.556,-0.855,-0.550
12.558,-0.875,-0.560
12.561,-0.875,-0.575
12.564,-0.870,-0.565
12.567,-0.885,-0.560
12.569,-0.875,-0.570
12.572,-0.890,-0.545
12.575,-0.870,-0.560
12.578,-0.870,-0.545
12.581,-0.870,-0.555
12.583,-0.870,-0.565
12.586,-0.870,-0.560
12.589,-0.850,-0.560
12.592,-0.860,-0.560
12.594,-0.880,-0.575
12.597,-0.875,-0.585
12.600,-0.890,-0.570
12.603,-0.895,-0.575
12.606,-0.890,-0.560
12.608,-0.875,-0.535
12.611,-0.855,-0.530
12.614,-0.830,-0.525
12.617,-0.820,-0.535
12.619,-0.805,-0.525
12.622,-0.800,-0.530
12.625,-0.795,-0.545
12.628,-0.790,-0.555
12.631,-0.790,-0.550
12.633,-0.770,-0.560
12.636,-0.765,-0.555
12.639,-0.755,-0.535
12.642,-0.740,-0.535
12.644,-0.740,-0.520
12.647,-0.725,-0.510
12.650,-0.715,-0.515
12.653,-0.675,-0.510
12.656,-0.650,-0.500
12.658,-0.630,-0.500
12.661,-0.625,-0.505
12.664,-0.625,-0.505
12.667,-0.640,-0.510
12.669,-0.660,-0.505
12.672,-0.670,-0.485
12.675,-0.685,-0.485
12.678,-0.690,-0.485
12.681,-0.680,-0.465
12.683,-0.690,-0.470
12.686,-0.700,-0.470
12.689,-0.710,-0.460
12.692,-0.720,-0.455
12.694,-0.735,-0.470
12.697,-0.755,-0.470
12.700,-0.785,-0.485
12.703,-0.825,-0.495
12.706,-0.850,-0.515
12.708,-0.855,-0.510
12.711,-0.875,-0.520
12.714,-0.870,-0.515
12.717,-0.895,-0.530
12.719,-0.880,-0.520
12.722,-0.895,-0.520
12.725,-0.905,-0.535
12.728,-0.915,-0.555
12.731,-0.925,-0.555
12.733,-0.940,-0.570
12.736,-0.940,-0.565
12.739,-0.925,-0.560
12.742,-0.915,-0.550
12.744,-0.900,-0.525
12.747,-0.885,-0.510
12.750,-0.900,-0.535
12.753,-0.920,-0.530
12.756,-0.915,-0.545
12.758,-0.920,-0.540
12.761,-0.930,-0.550
12.764,-0.940,-0.555
12.767,-0.930,-0.560
12.769,-0.930,-0.555
12.772,-0.915,-0.550
12.775,-0.905,-0.515
12.778,-0.905,-0.510
12.781,-0.890,-0.515
12.783,-0.885,-0.525
12.786,-0.905,-0.520
12.789,-0.900,-0.510
12.792,-0.900,-0.520
12.794,-0.905,-0.540
12.797,-0.900,-0.545
12.800,-0.915,-0.545
12.803,-0.895,-0.545
12.806,-0.905,-0.535
12.808,-0.890,-0.530
12.811,-0.875,-0.510
12.814,-0.855,-0.510
12.817,-0.840,-0.510
12.819,-0.835,-0.505
12.822,-0.835,-0.505
12.825,-0.830,-0.520
12.828,-0.830,-0.500
12.831,-0.840,-0.490
12.833,-0.820,-0.480
12.836,-0.775,-0.420
12.839,-0.680,-0.350
12.842,-0.510,-0.225
12.844,-0.285,-0.085
12.847,-0.015,0.085
12.850,0.255,0.225
12.853,0.535,0.345
12.856,0.845,0.405
12.858,1.120,0.410
12.861,1.295,0.405
12.864,1.305,0.365
12.867,1.130,0.285
12.869,0.755,0.170
12.872,0.250,-0.015
12.875,-0.325,-0.270
12.878,-0.875,-0.565
12.881,-1.320,-0.875
12.883,-1.585,-1.150
12.886,-1.615,-1.280
12.889,-1.550,-1.300
12.892,-1.375,-1.185
12.894,-1.235,-1.050
12.897,-1.130,-0.890
12.900,-1.060,-0.785
12.903,-1.050,-0.700
12.906,-1.020,-0.640
12.908,-0.985,-0.615
12.911,-0.955,-0.595
12.914,-0.895,-0.580
12.917,-0.860,-0.565
12.919,-0.850,-0.540
12.922,-0.850,-0.535
12.925,-0.865,-0.535
12.928,-0.890,-0.545
12.931,-0.905,-0.540
12.933,-0.900,-0.520
12.936,-0.895,-0.525
12.939,-0.895,-0.510
12.942,-0.880,-0.510
12.944,-0.880,-0.485
12.947,-0.855,-0.495
12.950,-0.845,-0.480
12.953,-0.840,-0.485
12.956,-0.850,-0.495
12.958,-0.860,-0.500
12.961,-0.875,-0.500
12.964,-0.885,-0.510
12.967,-0.890,-0.480
12.969,-0.880,-0.500
12.972,-0.880,-0.485
12.975,-0.875,-0.480
12.978,-0.855,-0.455
12.981,-0.850,-0.445
12.983,-0.850,-0.465
12.986,-0.855,-0.455
12.989,-0.870,-0.455
12.992,-0.885,-0.465
12.994,-0.900,-0.460
12.997,-0.880,-0.475
13.000,-0.885,-0.480
13.003,-0.880,-0.480
13.006,-0.890,-0.445
13.008,-0.875,-0.430
13.011,-0.860,-0.425
13.014,-0.830,-0.415
13.017,-0.825,-0.435
13.019,-0.820,-0.430
13.022,-0.830,-0.445
13.025,-0.835,-0.460
13.028,-0.855,-0.465
13.031,-0.850,-0.480
13.033,-0.875,-0.470
13.036,-0.860,-0.470
13.039,-0.845,-0.455
13.042,-0.835,-0.430
13.044,-0.840,-0.420
13.047,-0.825,-0.425
13.050,-0.820,-0.425
13.053,-0.820,-0.410
13.056,-0.815,-0.430
13.058,-0.825,-0.440
13.061,-0.835,-0.445
13.064,-0.860,-0.425
13.067,-0.815,-0.420
13.069,-0.820,-0.395
13.072,-0.810,-0.390
13.075,-0.800,-0.385
13.078,-0.770,-0.360
13.081,-0.750,-0.355
13.083,-0.745,-0.370
13.086,-0.735,-0.380
13.089,-0.730,-0.375
13.092,-0.740,-0.370
13.094,-0.725,-0.370
13.097,-0.730,-0.375
13.100,-0.720,-0.355
13.103,-0.705,-0.360
13.106,-0.695,-0.325
13.108,-0.675,-0.315
13.111,-0.640,-0.295
13.114,-0.600,-0.275
13.117,-0.595,-0.260
13.119,-0.575,-0.255
13.122,-0.580,-0.270
13.125,-0.585,-0.260
13.128,-0.570,-0.250
13.131,-0.555,-0.245
13.133,-0.540,-0.250
13.136,-0.525,-0.240
13.139,-0.505,-0.225
13.142,-0.485,-0.215
13.144,-0.445,-0.200
13.147,-0.430,-0.180
13.150,-0.410,-0.170
13.153,-0.395,-0.160
13.156,-0.400,-0.155
13.158,-0.380,-0.170
13.161,-0.380,-0.160
13.164,-0.380,-0.180
13.167,-0.360,-0.170
13.169,-0.345,-0.155
13.172,-0.340,-0.130
13.175,-0.325,-0.120
13.178,-0.335,-0.140
13.181,-0.330,-0.130
13.183,-0.315,-0.135
13.186,-0.345,-0.150
13.189,-0.350,-0.170
13.192,-0.385,-0.190
13.194,-0.390,-0.200
13.197,-0.415,-0.220
13.200,-0.430,-0.215
13.203,-0.465,-0.220
13.206,-0.475,-0.230
13.208,-0.495,-0.240
13.211,-0.510,-0.245
13.214,-0.505,-0.250
13.217,-0.535,-0.290
13.219,-0.575,-0.290
13.222,-0.595,-0.325
13.225,-0.610,-0.340
13.228,-0.660,-0.365
13.231,-0.680,-0.385
13.233,-0.715,-0.395
13.236,-0.720,-0.410
13.239,-0.720,-0.400
13.242,-0.740,-0.405
13.244,-0.750,-0.410
13.247,-0.755,-0.420
13.250,-0.755,-0.435
13.253,-0.735,-0.420
13.256,-0.735,-0.445
13.258,-0.750,-0.450
13.261,-0.770,-0.465
13.264,-0.795,-0.470
13.267,-0.795,-0.480
13.269,-0.800,-0.490
13.272,-0.780,-0.460
13.275,-0.790,-0.470
13.278,-0.785,-0.450
13.281,-0.785,-0.440
13.283,-0.790,-0.450
13.286,-0.775,-0.450
13.289,-0.780,-0.460
13.292,-0.775,-0.475
13.294,-0.790,-0.485
13.297,-0.810,-0.480
13.300,-0.815,-0.490
13.303,-0.820,-0.475
13.306,-0.805,-0.470
13.308,-0.795,-0.455
13.311,-0.785,-0.470
13.314,-0.775,-0.460
13.317,-0.790,-0.470
13.319,-0.775,-0.465
13.322,-0.785,-0.470
13.325,-0.795,-0.460
13.328,-0.815,-0.465
13.331,-0.795,-0.470
13.333,-0.810,-0.475
13.336,-0.815,-0.480
13.339,-0.800,-0.480
13.342,-0.790,-0.475
13.344,-0.785,-0.470
13.347,-0.755,-0.470
13.350,-0.755,-0.465
13.353,-0.765,-0.450
13.356,-0.755,-0.460
13.358,-0.775,-0.460
13.361,-0.780,-0.460
13.364,-0.785,-0.465
13.367,-0.790,-0.470
13.369,-0.790,-0.465
13.372,-0.790,-0.440
13.375,-0.775,-0.430
13.378,-0.740,-0.415
13.381,-0.725,-0.420
13.383,-0.720,-0.420
13.386,-0.715,-0.430
13.389,-0.725,-0.430
13.392,-0.730,-0.440
13.394,-0.755,-0.455
13.397,-0.765,-0.465
13.400,-0.760,-0.455
13.403,-0.760,-0.445
13.406,-0.735,-0.455
13.408,-0.750,-0.440
13.411,-0.725,-0.420
13.414,-0.725,-0.410
13.417,-0.730,-0.410
13.419,-0.725,-0.420
13.422,-0.710,-0.425
13.425,-0.735,-0.425
13.428,-0.735,-0.440
13.431,-0.745,-0.450
13.433,-0.740,-0.425
13.436,-0.770,-0.435
13.439,-0.750,-0.425
13.442,-0.755,-0.415
13.444,-0.745,-0.405
13.447,-0.745,-0.400
13.450,-0.755,-0.395
13.453,-0.750,-0.410
13.456,-0.755,-0.420
13.458,-0.765,-0.430
13.461,-0.760,-0.425
13.464,-0.765,-0.450
13.467,-0.770,-0.450
13.469,-0.780,-0.455
13.472,-0.770,-0.455
13.475,-0.770,-0.450
13.478,-0.765,-0.450
13.481,-0.760,-0.440
13.483,-0.755,-0.430
13.486,-0.765,-0.445
13.489,-0.780,-0.455
13.492,-0.780,-0.460
13.494,-0.790,-0.465
13.497,-0.785,-0.455
13.500,-0.785,-0.455
13.503,-0.795,-0.470
13.506,-0.795,-0.445
13.508,-0.785,-0.455
13.511,-0.785,-0.430
13.514,-0.775,-0.420
13.517,-0.775,-0.425
13.519,-0.780,-0.415
13.522,-0.785,-0.415
13.525,-0.790,-0.430
13.528,-0.800,-0.450
13.531,-0.810,-0.475
13.533,-0.810,-0.470
13.536,-0.815,-0.470
13.539,-0.800,-0.475
13.542,-0.795,-0.470
13.544,-0.800,-0.460
13.547,-0.795,-0.445
13.550,-0.785,-0.455
13.553,-0.770,-0.460
13.556,-0.780,-0.470
13.558,-0.785,-0.475
13.561,-0.805,-0.480
13.564,-0.810,-0.500
13.567,-0.815,-0.485
13.569,-0.820,-0.480
13.572,-0.830,-0.465
13.575,-0.800,-0.455
13.578,-0.800,-0.445
13.581,-0.790,-0.450
13.583,-0.790,-0.450
13.586,-0.795,-0.435
13.589,-0.800,-0.465
13.592,-0.820,-0.465
13.594,-0.820,-0.475
13.597,-0.845,-0.485
13.600,-0.835,-0.485
13.603,-0.830,-0.470
13.606,-0.810,-0.460
13.608,-0.800,-0.460
13.611,-0.800,-0.450
13.614,-0.785,-0.425
13.617,-0.780,-0.430
13.619,-0.785,-0.435
13.622,-0.795,-0.450
13.625,-0.800,-0.465
13.628,-0.810,-0.475
13.631,-0.820,-0.485
13.633,-0.805,-0.485
13.636,-0.800,-0.485
13.639,-0.805,-0.480
13.642,-0.805,-0.470
13.644,-0.800,-0.455
13.647,-0.785,-0.445
13.650,-0.790,-0.445
13.653,-0.780,-0.440
13.656,-0.790,-0.450
13.658,-0.805,-0.460
13.661,-0.805,-0.480
13.664,-0.805,-0.490
13.667,-0.815,-0.485
13.669,-0.825,-0.470
13.672,-0.825,-0.485
13.675,-0.815,-0.480
13.678,-0.795,-0.460
13.681,-0.800,-0.445
13.683,-0.795,-0.455
13.686,-0.790,-0.465
13.689,-0.785,-0.470
13.692,-0.795,-0.490
13.694,-0.810,-0.480
13.697,-0.810,-0.510
13.700,-0.825,-0.495
13.703,-0.810,-0.500
13.706,-0.805,-0.485
13.708,-0.805,-0.460
13.711,-0.790,-0.470
13.714,-0.780,-0.450
13.717,-0.770,-0.455
13.719,-0.785,-0.460
13.722,-0.780,-0.465
13.725,-0.790,-0.460
13.728,-0.785,-0.465
13.731,-0.790,-0.460
13.733,-0.795,-0.485
13.736,-0.800,-0.475
13.739,-0.800,-0.460
13.742,-0.795,-0.450
13.744,-0.790,-0.450
13.747,-0.780,-0.435
13.750,-0.785,-0.435
13.753,-0.780,-0.430
13.756,-0.775,-0.455
13.758,-0.780,-0.460
13.761,-0.785,-0.465
13.764,-0.790,-0.465
13.767,-0.815,-0.470
13.769,-0.815,-0.485
13.772,-0.790,-0.470
13.775,-0.795,-0.460
13.778,-0.775,-0.465
13.781,-0.765,-0.440
13.783,-0.765,-0.465
13.786,-0.760,-0.455
13.789,-0.780,-0.470
13.792,-0.790,-0.485
13.794,-0.800,-0.470
13.797,-0.790,-0.485
13.800,-0.795,-0.455
13.803,-0.800,-0.460
13.806,-0.800,-0.460
13.808,-0.805,-0.450
13.811,-0.780,-0.445
13.814,-0.760,-0.430
13.817,-0.755,-0.415
13.819,-0.735,-0.450
13.822,-0.735,-0.440
13.825,-0.765,-0.450
13.828,-0.775,-0.460
13.831,-0.750,-0.465
13.833,-0.755,-0.455
13.836,-0.740,-0.460
13.839,-0.730,-0.435
13.842,-0.700,-0.445
13.844,-0.685,-0.420
13.847,-0.660,-0.430
13.850,-0.650,-0.445
13.853,-0.665,-0.435
13.856,-0.655,-0.440
13.858,-0.660,-0.440
13.861,-0.640,-0.460
13.864,-0.620,-0.455
13.867,-0.605,-0.445
13.869,-0.570,-0.430
13.872,-0.545,-0.420
13.875,-0.545,-0.415
13.878,-0.535,-0.385
13.881,-0.545,-0.380
13.883,-0.550,-0.390
13.886,-0.550,-0.385
13.889,-0.580,-0.395
13.892,-0.590,-0.405
13.894,-0.610,-0.405
13.897,-0.610,-0.390
13.900,-0.615,-0.395
13.903,-0.625,-0.385
13.906,-0.640,-0.385
13.908,-0.630,-0.380
13.911,-0.625,-0.390
13.914,-0.665,-0.370
13.917,-0.690,-0.395
13.919,-0.715,-0.410
13.922,-0.755,-0.425
13.925,-0.785,-0.445
13.928,-0.790,-0.460
13.931,-0.805,-0.485
13.933,-0.815,-0.480
13.936,-0.815,-0.475
13.939,-0.840,-0.470
13.942,-0.835,-0.455
13.944,-0.825,-0.465
13.947,-0.835,-0.440
13.950,-0.820,-0.430
13.953,-0.830,-0.440
13.956,-0.835,-0.430
13.958,-0.835,-0.450
13.961,-0.830,-0.480
13.964,-0.835,-0.480
13.967,-0.845,-0.480
13.969,-0.845,-0.465
13.972,-0.840,-0.460
13.975,-0.835,-0.450
13.978,-0.840,-0.445
13.981,-0.815,-0.435
13.983,-0.810,-0.440
13.986,-0.820,-0.440
13.989,-0.815,-0.440
13.992,-0.830,-0.455
13.994,-0.835,-0.470
13.997,-0.840,-0.470
14.000,-0.845,-0.490
14.003,-0.850,-0.465
14.006,-0.860,-0.470
14.008,-0.835,-0.485
14.011,-0.835,-0.465
14.014,-0.810,-0.450
14.017,-0.805,-0.455
14.019,-0.810,-0.450
14.022,-0.810,-0.485
14.025,-0.810,-0.465
14.028,-0.805,-0.490
14.031,-0.810,-0.485
14.033,-0.815,-0.475
14.036,-0.825,-0.470
14.039,-0.815,-0.465
14.042,-0.795,-0.455
14.044,-0.765,-0.425
14.047,-0.765,-0.430
14.050,-0.735,-0.415
14.053,-0.725,-0.410
14.056,-0.720,-0.385
14.058,-0.705,-0.380
14.061,-0.665,-0.345
14.064,-0.580,-0.290
14.067,-0.425,-0.175
14.069,-0.200,-0.050
14.072,0.045,0.120
14.075,0.320,0.280
14.078,0.575,0.405
14.081,0.855,0.455
14.083,1.140,0.470
14.086,1.365,0.470
14.089,1.475,0.440
14.092,1.410,0.385
14.094,1.175,0.290
14.097,0.770,0.145
14.100,0.240,-0.040
14.103,-0.360,-0.325
14.106,-0.940,-0.620
14.108,-1.375,-0.935
14.111,-1.625,-1.180
14.114,-1.655,-1.290
14.117,-1.555,-1.290
14.119,-1.360,-1.200
14.122,-1.200,-1.045
14.125,-1.085,-0.900
14.128,-1.040,-0.790
14.131,-1.015,-0.725
14.133,-1.015,-0.665
14.136,-0.990,-0.640
14.139,-0.950,-0.600
14.142,-0.920,-0.585
14.144,-0.855,-0.540
14.147,-0.810,-0.510
14.150,-0.800,-0.505
14.153,-0.780,-0.500
14.156,-0.805,-0.500
14.158,-0.830,-0.495
14.161,-0.830,-0.485
14.164,-0.870,-0.505
14.167,-0.860,-0.505
14.169,-0.845,-0.500
14.172,-0.840,-0.495
14.175,-0.830,-0.485
14.178,-0.810,-0.475
14.181,-0.795,-0.475
14.183,-0.790,-0.455
14.186,-0.780,-0.450
14.189,-0.780,-0.455
14.192,-0.785,-0.450
14.194,-0.795,-0.460
14.197,-0.820,-0.470
14.200,-0.820,-0.460
14.203,-0.815,-0.460
14.206,-0.820,-0.465
14.208,-0.820,-0.440
14.211,-0.800,-0.435
14.214,-0.800,-0.410
14.217,-0.780,-0.420
14.219,-0.780,-0.430
14.222,-0.795,-0.430
14.225,-0.805,-0.425
14.228,-0.810,-0.450
14.231,-0.820,-0.460
14.233,-0.810,-0.460
14.236,-0.820,-0.440
14.239,-0.810,-0.445
14.242,-0.815,-0.430
14.244,-0.800,-0.435
14.247,-0.790,-0.425
14.250,-0.780,-0.430
14.253,-0.805,-0.435
14.256,-0.800,-0.435
14.258,-0.805,-0.435
14.261,-0.810,-0.460
14.264,-0.820,-0.460
14.267,-0.805,-0.460
14.269,-0.805,-0.465
14.272,-0.820,-0.440
14.275,-0.815,-0.430
14.278,-0.790,-0.410
14.281,-0.795,-0.395
14.283,-0.780,-0.390
14.286,-0.775,-0.410
14.289,-0.765,-0.395
14.292,-0.775,-0.390
14.294,-0.795,-0.420
14.297,-0.800,-0.415
14.300,-0.795,-0.415
14.303,-0.805,-0.405
14.306,-0.790,-0.395
14.308,-0.775,-0.385
14.311,-0.755,-0.375
14.314,-0.740,-0.370
14.317,-0.745,-0.370
14.319,-0.725,-0.375
14.322,-0.705,-0.365
14.325,-0.705,-0.380
14.328,-0.715,-0.380
14.331,-0.705,-0.390
14.333,-0.705,-0.385
14.336,-0.685,-0.360
14.339,-0.685,-0.350
14.342,-0.665,-0.315
14.344,-0.640,-0.305
14.347,-0.640,-0.295
14.350,-0.630,-0.285
14.353,-0.610,-0.270
14.356,-0.595,-0.285
14.358,-0.585,-0.280
14.361,-0.575,-0.260
14.364,-0.570,-0.270
14.367,-0.565,-0.260
14.369,-0.555,-0.245
14.372,-0.530,-0.225
14.375,-0.515,-0.220
14.378,-0.485,-0.195
14.381,-0.455,-0.170
14.383,-0.440,-0.170
14.386,-0.430,-0.160
14.389,-0.410,-0.175
14.392,-0.410,-0.175
14.394,-0.395,-0.180
14.397,-0.390,-0.180
14.400,-0.385,-0.170
14.403,-0.375,-0.170
14.406,-0.360,-0.155
14.408,-0.340,-0.135
14.411,-0.325,-0.130
14.414,-0.305,-0.120
14.417,-0.290,-0.120
14.419,-0.285,-0.120
14.422,-0.290,-0.130
14.425,-0.310,-0.130
14.428,-0.310,-0.130
14.431,-0.340,-0.165
14.433,-0.345,-0.175
14.436,-0.365,-0.175
14.439,-0.370,-0.195
14.442,-0.390,-0.190
14.444,-0.395,-0.205
14.447,-0.415,-0.205
14.450,-0.435,-0.235
14.453,-0.445,-0.235
14.456,-0.480,-0.285
14.458,-0.520,-0.300
14.461,-0.560,-0.325
14.464,-0.590,-0.345
14.467,-0.605,-0.365
14.469,-0.635,-0.405
14.472,-0.650,-0.410
14.475,-0.680,-0.415
14.478,-0.675,-0.430
14.481,-0.685,-0.420
14.483,-0.685,-0.430
14.486,-0.705,-0.455
14.489,-0.705,-0.455
14.492,-0.735,-0.480
14.494,-0.740,-0.480
14.497,-0.740,-0.495
14.500,-0.755,-0.495
14.503,-0.770,-0.485
14.506,-0.770,-0.500
14.508,-0.780,-0.475
14.511,-0.765,-0.460
14.514,-0.750,-0.465
14.517,-0.760,-0.470
14.519,-0.755,-0.465
14.522,-0.745,-0.485
14.525,-0.775,-0.495
14.528,-0.795,-0.510
14.531,-0.800,-0.510
14.533,-0.805,-0.520
14.536,-0.820,-0.510
14.539,-0.815,-0.505
14.542,-0.820,-0.490
14.544,-0.805,-0.495
14.547,-0.800,-0.495
14.550,-0.780,-0.495
14.553,-0.785,-0.515
14.556,-0.775,-0.510
14.558,-0.785,-0.525
14.561,-0.820,-0.515
14.564,-0.815,-0.535
14.567,-0.810,-0.530
14.569,-0.820,-0.535
14.572,-0.815,-0.520
14.575,-0.790,-0.505
14.578,-0.790,-0.500
14.581,-0.780,-0.480
14.583,-0.770,-0.505
14.586,-0.770,-0.490
14.589,-0.765,-0.495
14.592,-0.770,-0.500
14.594,-0.785,-0.515
14.597,-0.795,-0.520
14.600,-0.800,-0.520
14.603,-0.795,-0.495
14.606,-0.795,-0.500
14.608,-0.800,-0.500
14.611,-0.785,-0.480
14.614,-0.765,-0.465
14.617,-0.745,-0.480
14.619,-0.750,-0.470
14.622,-0.760,-0.480
14.625,-0.765,-0.505
14.628,-0.760,-0.500
14.631,-0.760,-0.510
14.633,-0.765,-0.495
14.636,-0.770,-0.495
14.639,-0.760,-0.490
14.642,-0.745,-0.475
14.644,-0.735,-0.455
14.647,-0.735,-0.445
14.650,-0.730,-0.445
14.653,-0.730,-0.450
14.656,-0.730,-0.455
14.658,-0.740,-0.455
14.661,-0.750,-0.470
14.664,-0.760,-0.500
14.667,-0.750,-0.485
14.669,-0.755,-0.490
14.672,-0.755,-0.475
14.675,-0.760,-0.470
14.678,-0.735,-0.450
14.681,-0.750,-0.445
14.683,-0.740,-0.450
14.686,-0.745,-0.450
14.689,-0.735,-0.470
14.692,-0.750,-0.475
14.694,-0.765,-0.475
14.697,-0.765,-0.485
14.700,-0.790,-0.485
14.703,-0.800,-0.495
14.706,-0.790,-0.500
14.708,-0.780,-0.495
14.711,-0.770,-0.495
14.714,-0.770,-0.475
14.717,-0.760,-0.465
14.719,-0.755,-0.460
14.722,-0.770,-0.485
14.725,-0.785,-0.485
14.728,-0.800,-0.510
14.731,-0.810,-0.500
14.733,-0.815,-0.520
14.736,-0.825,-0.510
14.739,-0.825,-0.505
14.742,-0.805,-0.490
14.744,-0.790,-0.475
14.747,-0.805,-0.480
14.750,-0.800,-0.480
14.753,-0.800,-0.480
14.756,-0.790,-0.500
14.758,-0.790,-0.505
14.761,-0.810,-0.515
14.764,-0.815,-0.525
14.767,-0.830,-0.530
14.769,-0.820,-0.530
14.772,-0.830,-0.520
14.775,-0.825,-0.520
14.778,-0.820,-0.520
14.781,-0.795,-0.490
14.783,-0.790,-0.495
14.786,-0.795,-0.500
14.789,-0.795,-0.505
14.792,-0.795,-0.520
14.794,-0.825,-0.520
14.797,-0.830,-0.525
14.800,-0.835,-0.540
14.803,-0.840,-0.530
14.806,-0.840,-0.535
14.808,-0.840,-0.525
14.811,-0.815,-0.505
14.814,-0.820,-0.515
14.817,-0.815,-0.505
14.819,-0.815,-0.500
14.822,-0.825,-0.505
14.825,-0.820,-0.530
14.828,-0.835,-0.540
14.831,-0.835,-0.545
14.833,-0.840,-0.545
14.836,-0.855,-0.560
14.839,-0.845,-0.530
14.842,-0.840,-0.530
14.844,-0.835,-0.535
14.847,-0.820,-0.525
14.850,-0.820,-0.515
14.853,-0.820,-0.515
14.856,-0.830,-0.530
14.858,-0.835,-0.545
14.861,-0.840,-0.555
14.864,-0.855,-0.560
14.867,-0.855,-0.560
14.869,-0.860,-0.550
14.872,-0.865,-0.540
14.875,-0.845,-0.540
14.878,-0.830,-0.525
14.881,-0.830,-0.505
14.883,-0.835,-0.525
14.886,-0.825,-0.520
14.889,-0.825,-0.520
14.892,-0.840,-0.545
14.894,-0.850,-0.545
14.897,-0.840,-0.545
14.900,-0.865,-0.545
14.903,-0.865,-0.540
14.906,-0.855,-0.535
14.908,-0.855,-0.530
14.911,-0.855,-0.520
14.914,-0.850,-0.525
14.917,-0.825,-0.535
14.919,-0.830,-0.545
14.922,-0.825,-0.545
14.925,-0.850,-0.545
14.928,-0.860,-0.555
14.931,-0.865,-0.565
14.933,-0.865,-0.565
14.936,-0.870,-0.565
14.939,-0.875,-0.555
14.942,-0.850,-0.545
14.944,-0.850,-0.530
14.947,-0.860,-0.510
14.950,-0.840,-0.530
14.953,-0.830,-0.520
14.956,-0.840,-0.530
14.958,-0.845,-0.535
14.961,-0.860,-0.545
14.964,-0.865,-0.555
14.967,-0.870,-0.565
14.969,-0.865,-0.550
14.972,-0.875,-0.545
14.975,-0.860,-0.535
14.978,-0.850,-0.535
14.981,-0.840,-0.540
14.983,-0.830,-0.525
14.986,-0.835,-0.515
14.989,-0.840,-0.545
14.992,-0.865,-0.540
14.994,-0.865,-0.560
14.997,-0.885,-0.560
15.000,-0.865,-0.575
15.003,-0.875,-0.555
15.006,-0.855,-0.555
15.008,-0.855,-0.545
15.011,-0.855,-0.535
15.014,-0.860,-0.515
15.017,-0.835,-0.515
15.019,-0.835,-0.525
15.022,-0.835,-0.520
15.025,-0.840,-0.530
15.028,-0.850,-0.545
15.031,-0.870,-0.550
15.033,-0.870,-0.555
15.036,-0.865,-0.550
15.039,-0.870,-0.545
15.042,-0.855,-0.535
15.044,-0.840,-0.525
15.047,-0.850,-0.515
15.050,-0.825,-0.520
15.053,-0.830,-0.505
15.056,-0.820,-0.540
15.058,-0.835,-0.545
15.061,-0.840,-0.550
15.064,-0.855,-0.560
15.067,-0.860,-0.565
15.069,-0.855,-0.565
15.072,-0.850,-0.565
15.075,-0.860,-0.550
15.078,-0.850,-0.545
15.081,-0.835,-0.540
15.083,-0.820,-0.515
15.086,-0.825,-0.530
15.089,-0.835,-0.535
15.092,-0.865,-0.545
15.094,-0.855,-0.545
15.097,-0.880,-0.550
15.100,-0.885,-0.535
15.103,-0.880,-0.545
15.106,-0.880,-0.530
15.108,-0.865,-0.535
15.111,-0.860,-0.530
15.114,-0.855,-0.535
15.117,-0.835,-0.520
15.119,-0.835,-0.520
15.122,-0.830,-0.530
15.125,-0.850,-0.535
15.128,-0.850,-0.550
15.131,-0.860,-0.550
15.133,-0.870,-0.555
15.136,-0.870,-0.545
15.139,-0.870,-0.555
15.142,-0.870,-0.550
15.144,-0.845,-0.550
15.147,-0.840,-0.545
15.150,-0.840,-0.515
15.153,-0.825,-0.550
15.156,-0.845,-0.540
15.158,-0.845,-0.535
15.161,-0.870,-0.530
15.164,-0.880,-0.545
15.167,-0.870,-0.550
15.169,-0.870,-0.540
15.172,-0.870,-0.535
15.175,-0.855,-0.520
15.178,-0.855,-0.525
15.181,-0.850,-0.510
15.183,-0.830,-0.515
15.186,-0.840,-0.520
15.189,-0.840,-0.520
15.192,-0.860,-0.525
15.194,-0.855,-0.555
15.197,-0.860,-0.545
15.200,-0.855,-0.555
15.203,-0.865,-0.555
15.206,-0.865,-0.550
15.208,-0.855,-0.535
15.211,-0.860,-0.535
15.214,-0.855,-0.530
15.217,-0.835,-0.525
15.219,-0.840,-0.540
15.222,-0.840,-0.530
15.225,-0.835,-0.545
15.228,-0.840,-0.550
15.231,-0.855,-0.560
15.233,-0.860,-0.565
15.236,-0.865,-0.560
15.239,-0.850,-0.550
15.242,-0.870,-0.540
15.244,-0.855,-0.510
15.247,-0.835,-0.515
15.250,-0.840,-0.510
15.253,-0.830,-0.520
15.256,-0.830,-0.510
15.258,-0.845,-0.520
15.261,-0.850,-0.535
15.264,-0.850,-0.550
15.267,-0.865,-0.540
15.269,-0.875,-0.535
15.272,-0.870,-0.530
15.275,-0.855,-0.530
15.278,-0.850,-0.515
15.281,-0.835,-0.515
15.283,-0.830,-0.505
15.286,-0.820,-0.525
15.289,-0.815,-0.520
15.292,-0.810,-0.545
15.294,-0.815,-0.555
15.297,-0.815,-0.550
15.300,-0.820,-0.555
15.303,-0.800,-0.555
15.306,-0.795,-0.545
15.308,-0.760,-0.540
15.311,-0.730,-0.530
15.314,-0.720,-0.520
15.317,-0.700,-0.510
15.319,-0.695,-0.515
15.322,-0.700,-0.520
15.325,-0.705,-0.525
15.328,-0.700,-0.515
15.331,-0.695,-0.530
15.333,-0.680,-0.520
15.336,-0.660,-0.510
15.339,-0.625,-0.495
15.342,-0.620,-0.475
15.344,-0.625,-0.475
15.347,-0.635,-0.470
15.350,-0.640,-0.465
15.353,-0.665,-0.480
15.356,-0.670,-0.480
15.358,-0.685,-0.480
15.361,-0.705,-0.480
15.364,-0.705,-0.500
15.367,-0.705,-0.490
15.369,-0.730,-0.500
15.372,-0.725,-0.495
15.375,-0.735,-0.485
15.378,-0.730,-0.465
15.381,-0.750,-0.460
15.383,-0.750,-0.465
15.386,-0.785,-0.470
15.389,-0.815,-0.490
15.392,-0.845,-0.510
15.394,-0.885,-0.520
15.397,-0.890,-0.530
15.400,-0.930,-0.535
15.403,-0.910,-0.525
15.406,-0.935,-0.550
15.408,-0.930,-0.525
15.411,-0.910,-0.525
15.414,-0.910,-0.530
15.417,-0.905,-0.525
15.419,-0.905,-0.520
15.422,-0.900,-0.530
15.425,-0.910,-0.545
15.428,-0.915,-0.540
15.431,-0.910,-0.550
15.433,-0.940,-0.560
15.436,-0.945,-0.545
15.439,-0.940,-0.530
15.442,-0.930,-0.545
15.444,-0.910,-0.540
15.447,-0.895,-0.540
15.450,-0.890,-0.525
15.453,-0.895,-0.525
15.456,-0.885,-0.540
15.458,-0.890,-0.535
15.461,-0.905,-0.540
15.464,-0.915,-0.550
15.467,-0.930,-0.545
15.469,-0.915,-0.550
15.472,-0.920,-0.545
15.475,-0.915,-0.520
15.478,-0.905,-0.520
15.481,-0.890,-0.520
15.483,-0.875,-0.510
15.486,-0.885,-0.520
15.489,-0.880,-0.505
15.492,-0.880,-0.515
15.494,-0.880,-0.530
15.497,-0.890,-0.535
15.500,-0.880,-0.520
15.503,-0.885,-0.495
15.506,-0.870,-0.510
15.508,-0.865,-0.495
15.511,-0.810,-0.460
15.514,-0.770,-0.425
15.517,-0.705,-0.405
15.519,-0.565,-0.305
15.522,-0.360,-0.185
15.525,-0.105,0.000
15.528,0.180,0.160
15.531,0.490,0.270
15.533,0.795,0.340
15.536,1.120,0.385
15.539,1.370,0.395
15.542,1.480,0.405
15.544,1.360,0.395
15.547,1.060,0.310
15.550,0.560,0.150
15.553,-0.080,-0.085
15.556,-0.720,-0.415
15.558,-1.270,-0.755
15.561,-1.605,-1.070
15.564,-1.675,-1.265
15.567,-1.565,-1.275
15.569,-1.350,-1.165
15.572,-1.130,-0.985
15.575,-1.000,-0.805
15.578,-0.945,-0.675
15.581,-0.945,-0.610
15.583,-0.955,-0.590
15.586,-0.975,-0.615
15.589,-0.980,-0.625
15.592,-0.950,-0.635
15.594,-0.940,-0.625
15.597,-0.915,-0.630
15.600,-0.900,-0.600
15.603,-0.890,-0.575
15.606,-0.915,-0.565
15.608,-0.905,-0.555
15.611,-0.900,-0.525
15.614,-0.895,-0.515
15.617,-0.895,-0.510
15.619,-0.895,-0.515
15.622,-0.890,-0.520
15.625,-0.895,-0.530
15.628,-0.905,-0.530
15.631,-0.900,-0.535
15.633,-0.920,-0.530
15.636,-0.920,-0.540
15.639,-0.915,-0.540
15.642,-0.905,-0.520
15.644,-0.905,-0.515
15.647,-0.895,-0.510
15.650,-0.885,-0.500
15.653,-0.880,-0.505
15.656,-0.875,-0.505
15.658,-0.885,-0.525
15.661,-0.910,-0.525
15.664,-0.920,-0.530
15.667,-0.925,-0.545
15.669,-0.925,-0.540
15.672,-0.925,-0.545
15.675,-0.905,-0.525
15.678,-0.905,-0.530
15.681,-0.875,-0.515
15.683,-0.860,-0.515
15.686,-0.870,-0.515
15.689,-0.875,-0.510
15.692,-0.880,-0.515
15.694,-0.890,-0.515
15.697,-0.900,-0.515
15.700,-0.905,-0.535
15.703,-0.925,-0.515
15.706,-0.920,-0.525
15.708,-0.905,-0.515
15.711,-0.905,-0.485
15.714,-0.890,-0.480
15.717,-0.870,-0.470
15.719,-0.865,-0.485
15.722,-0.875,-0.495
15.725,-0.900,-0.505
15.728,-0.900,-0.505
15.731,-0.910,-0.500
15.733,-0.900,-0.510
15.736,-0.895,-0.475
15.739,-0.895,-0.490
15.742,-0.885,-0.485
15.744,-0.865,-0.480
15.747,-0.845,-0.470
15.750,-0.840,-0.475
15.753,-0.830,-0.475
15.756,-0.830,-0.455
15.758,-0.845,-0.460
15.761,-0.835,-0.470
15.764,-0.830,-0.465
15.767,-0.830,-0.465
15.769,-0.820,-0.465
15.772,-0.820,-0.450
15.775,-0.805,-0.430
15.778,-0.790,-0.405
15.781,-0.765,-0.420
15.783,-0.750,-0.385
15.786,-0.740,-0.375
15.789,-0.725,-0.380
15.792,-0.715,-0.390
15.794,-0.720,-0.390
15.797,-0.710,-0.390
15.800,-0.710,-0.385
15.803,-0.680,-0.360
15.806,-0.685,-0.350
15.808,-0.655,-0.355
15.811,-0.625,-0.320
15.814,-0.605,-0.305
15.817,-0.575,-0.285
15.819,-0.555,-0.300
15.822,-0.545,-0.300
15.825,-0.535,-0.285
15.828,-0.530,-0.285
15.831,-0.520,-0.285
15.833,-0.505,-0.270
15.836,-0.495,-0.260
15.839,-0.475,-0.235
15.842,-0.460,-0.225
15.844,-0.440,-0.195
15.847,-0.420,-0.185
15.850,-0.385,-0.175
15.853,-0.380,-0.180
15.856,-0.355,-0.185
15.858,-0.355,-0.185
15.861,-0.365,-0.180
15.864,-0.370,-0.195
15.867,-0.380,-0.195
15.869,-0.385,-0.205
15.872,-0.395,-0.215
15.875,-0.405,-0.200
15.878,-0.395,-0.210
15.881,-0.420,-0.210
15.883,-0.430,-0.220
15.886,-0.445,-0.260
15.889,-0.460,-0.265
15.892,-0.480,-0.305
15.894,-0.525,-0.340
15.897,-0.560,-0.355
15.900,-0.585,-0.360
15.903,-0.605,-0.380
15.906,-0.625,-0.405
15.908,-0.660,-0.410
15.911,-0.680,-0.410
15.914,-0.695,-0.440
15.917,-0.695,-0.435
15.919,-0.715,-0.455
15.922,-0.735,-0.465
15.925,-0.745,-0.495
15.928,-0.770,-0.515
15.931,-0.800,-0.535
15.933,-0.815,-0.530
15.936,-0.830,-0.545
15.939,-0.855,-0.540
15.942,-0.845,-0.545
15.944,-0.835,-0.550
15.947,-0.840,-0.530
15.950,-0.825,-0.530
15.953,-0.815,-0.530
15.956,-0.830,-0.560
15.958,-0.855,-0.570
15.961,-0.855,-0.580
15.964,-0.870,-0.590
15.967,-0.880,-0.600
15.969,-0.885,-0.590
15.972,-0.885,-0.595
15.975,-0.870,-0.580
15.978,-0.860,-0.580
15.981,-0.870,-0.555
15.983,-0.850,-0.555
15.986,-0.845,-0.570
15.989,-0.840,-0.565
15.992,-0.850,-0.570
15.994,-0.850,-0.580
15.997,-0.875,-0.580
16.000,-0.870,-0.595
16.003,-0.865,-0.580
16.006,-0.875,-0.580
16.008,-0.865,-0.580
16.011,-0.865,-0.580
16.014,-0.855,-0.560
16.017,-0.850,-0.550
16.019,-0.845,-0.540
16.022,-0.850,-0.555
16.025,-0.840,-0.565
16.028,-0.885,-0.590
16.031,-0.870,-0.580
16.033,-0.875,-0.600
16.036,-0.875,-0.590
16.039,-0.885,-0.590
16.042,-0.870,-0.590
16.044,-0.860,-0.570
16.047,-0.860,-0.570
16.050,-0.840,-0.550
16.053,-0.850,-0.565
16.056,-0.845,-0.565
16.058,-0.845,-0.575
16.061,-0.855,-0.565
16.064,-0.865,-0.565
16.067,-0.865,-0.575
16.069,-0.865,-0.580
16.072,-0.875,-0.560
16.075,-0.865,-0.570
16.078,-0.855,-0.560
16.081,-0.865,-0.550
16.083,-0.840,-0.535
16.086,-0.830,-0.545
16.089,-0.840,-0.550
16.092,-0.850,-0.550
16.094,-0.870,-0.560
16.097,-0.870,-0.580
16.100,-0.885,-0.590
16.103,-0.880,-0.590
16.106,-0.885,-0.580
16.108,-0.880,-0.580
16.111,-0.860,-0.580
16.114,-0.870,-0.560
16.117,-0.865,-0.555
16.119,-0.865,-0.545
16.122,-0.870,-0.560
16.125,-0.865,-0.565
16.128,-0.880,-0.580
16.131,-0.885,-0.585
16.133,-0.890,-0.585
16.136,-0.915,-0.595
16.139,-0.915,-0.580
16.142,-0.915,-0.590
16.144,-0.915,-0.580
16.147,-0.905,-0.565
16.150,-0.895,-0.550
16.153,-0.880,-0.560
16.156,-0.895,-0.575
16.158,-0.905,-0.590
16.161,-0.925,-0.590
16.164,-0.940,-0.610
16.167,-0.925,-0.605
16.169,-0.935,-0.605
16.172,-0.940,-0.605
16.175,-0.940,-0.600
16.178,-0.930,-0.595
16.181,-0.915,-0.595
16.183,-0.910,-0.605
16.186,-0.915,-0.600
16.189,-0.920,-0.600
16.192,-0.915,-0.605
16.194,-0.935,-0.610
16.197,-0.940,-0.605
16.200,-0.945,-0.630
16.203,-0.940,-0.615
16.206,-0.940,-0.590
16.208,-0.950,-0.605
16.211,-0.945,-0.610
16.214,-0.925,-0.585
16.217,-0.910,-0.570
16.219,-0.910,-0.600
16.222,-0.910,-0.600
16.225,-0.910,-0.605
16.228,-0.940,-0.610
16.231,-0.945,-0.630
16.233,-0.955,-0.615
16.236,-0.970,-0.615
16.239,-0.970,-0.620
16.242,-0.965,-0.600
16.244,-0.965,-0.595
16.247,-0.950,-0.605
16.250,-0.935,-0.600
16.253,-0.915,-0.600
16.256,-0.915,-0.590
16.258,-0.920,-0.610
16.261,-0.930,-0.615
16.264,-0.960,-0.635
16.267,-0.965,-0.645
16.269,-0.960,-0.635
16.272,-0.965,-0.625
16.275,-0.965,-0.620
16.278,-0.940,-0.610
16.281,-0.935,-0.595
16.283,-0.925,-0.600
16.286,-0.915,-0.600
16.289,-0.925,-0.595
16.292,-0.930,-0.605
16.294,-0.950,-0.610
16.297,-0.945,-0.625
16.300,-0.955,-0.620
16.303,-0.945,-0.630
16.306,-0.975,-0.615
16.308,-0.950,-0.615
16.311,-0.950,-0.610
16.314,-0.930,-0.600
16.317,-0.930,-0.610
16.319,-0.945,-0.605
16.322,-0.925,-0.625
16.325,-0.940,-0.630
16.328,-0.945,-0.635
16.331,-0.945,-0.645
16.333,-0.965,-0.645
16.336,-0.970,-0.645
16.339,-0.965,-0.650
16.342,-0.960,-0.635
16.344,-0.960,-0.615
16.347,-0.955,-0.605
16.350,-0.940,-0.605
16.353,-0.930,-0.620
16.356,-0.925,-0.615
16.358,-0.935,-0.625
16.361,-0.945,-0.625
16.364,-0.955,-0.620
16.367,-0.950,-0.625
16.369,-0.960,-0.650
16.372,-0.965,-0.615
