'Elapsed time','MLII','V1'
'seconds','mV','mV'
0.000,-0.215,0.095
0.003,-0.215,0.095
0.006,-0.215,0.095
0.008,-0.215,0.095
0.011,-0.215,0.095
0.014,-0.215,0.095
0.017,-0.215,0.095
0.019,-0.215,0.095
0.022,-0.210,0.095
0.025,-0.200,0.110
0.028,-0.190,0.100
0.031,-0.195,0.085
0.033,-0.200,0.050
0.036,-0.200,0.060
0.039,-0.175,0.090
0.042,-0.160,0.095
0.044,-0.160,0.095
0.047,-0.155,0.070
0.050,-0.175,0.045
0.053,-0.160,0.055
0.056,-0.160,0.065
0.058,-0.170,0.090
0.061,-0.155,0.090
0.064,-0.170,0.065
0.067,-0.185,0.060
0.069,-0.165,0.055
0.072,-0.175,0.065
0.075,-0.160,0.085
0.078,-0.145,0.085
0.081,-0.165,0.035
0.083,-0.195,0.010
0.086,-0.235,-0.045
0.089,-0.255,-0.070
0.092,-0.260,-0.075
0.094,-0.250,-0.115
0.097,-0.260,-0.175
0.100,-0.270,-0.235
0.103,-0.240,-0.265
0.106,-0.145,-0.250
0.108,-0.035,-0.220
0.111,0.095,-0.190
0.114,0.235,-0.180
0.117,0.315,-0.180
0.119,0.340,-0.185
0.122,0.380,-0.150
0.125,0.410,-0.060
0.128,0.480,0.115
0.131,0.590,0.375
0.133,0.710,0.675
0.136,0.795,0.940
0.139,0.815,1.080
0.142,0.775,1.135
0.144,0.710,1.185
0.147,0.655,1.225
0.150,0.580,1.280
0.153,0.485,1.305
0.156,0.370,1.305
0.158,0.215,1.290
0.161,0.020,1.220
0.164,-0.145,1.135
0.167,-0.265,1.035
0.169,-0.315,0.965
0.172,-0.345,0.900
0.175,-0.350,0.895
0.178,-0.390,0.895
0.181,-0.405,0.895
0.183,-0.465,0.905
0.186,-0.510,0.910
0.189,-0.490,0.965
0.192,-0.445,1.010
0.194,-0.390,1.040
0.197,-0.375,1.070
0.200,-0.345,1.070
0.203,-0.295,1.075
0.206,-0.230,1.065
0.208,-0.180,1.025
0.211,-0.160,0.945
0.214,-0.160,0.845
0.217,-0.200,0.725
0.219,-0.240,0.590
0.222,-0.260,0.445
0.225,-0.275,0.365
0.228,-0.275,0.255
0.231,-0.270,0.195
0.233,-0.280,0.145
0.236,-0.270,0.145
0.239,-0.265,0.125
0.242,-0.265,0.105
0.244,-0.260,0.085
0.247,-0.275,0.060
0.250,-0.285,0.045
0.253,-0.285,0.060
0.256,-0.285,0.070
0.258,-0.280,0.070
0.261,-0.285,0.035
0.264,-0.280,0.010
0.267,-0.300,0.010
0.269,-0.290,0.025
0.272,-0.290,0.050
0.275,-0.290,0.040
0.278,-0.280,0.035
0.281,-0.285,0.000
0.283,-0.300,-0.005
0.286,-0.290,0.015
0.289,-0.280,0.045
0.292,-0.260,0.045
0.294,-0.265,0.035
0.297,-0.265,0.000
0.300,-0.280,-0.015
0.303,-0.280,0.000
0.306,-0.270,0.015
0.308,-0.260,0.040
0.311,-0.265,0.035
0.314,-0.270,0.020
0.317,-0.280,-0.010
0.319,-0.285,0.000
0.322,-0.270,0.015
0.325,-0.250,0.045
0.328,-0.250,0.055
0.331,-0.255,0.030
0.333,-0.260,0.000
0.336,-0.250,-0.005
0.339,-0.240,0.025
0.342,-0.235,0.050
0.344,-0.225,0.045
0.347,-0.225,0.030
0.350,-0.240,0.010
0.353,-0.230,0.010
0.356,-0.210,0.030
0.358,-0.190,0.035
0.361,-0.190,0.055
0.364,-0.205,0.055
0.367,-0.215,0.025
0.369,-0.215,0.020
0.372,-0.195,0.035
0.375,-0.195,0.075
0.378,-0.175,0.080
0.381,-0.175,0.075
0.383,-0.180,0.045
0.386,-0.175,0.045
0.389,-0.165,0.070
0.392,-0.165,0.100
0.394,-0.135,0.115
0.397,-0.135,0.090
0.400,-0.140,0.090
0.403,-0.135,0.085
0.406,-0.130,0.110
0.408,-0.110,0.125
0.411,-0.090,0.140
0.414,-0.085,0.140
0.417,-0.100,0.125
0.419,-0.095,0.130
0.422,-0.080,0.140
0.425,-0.065,0.165
0.428,-0.065,0.180
0.431,-0.085,0.185
0.433,-0.075,0.175
0.436,-0.070,0.180
0.439,-0.055,0.180
0.442,-0.035,0.195
0.444,-0.035,0.215
0.447,-0.035,0.220
0.450,-0.035,0.215
0.453,-0.030,0.215
0.456,-0.020,0.220
0.458,-0.015,0.230
0.461,0.000,0.245
0.464,0.005,0.255
0.467,-0.005,0.260
0.469,0.010,0.260
0.472,0.035,0.265
0.475,0.050,0.275
0.478,0.050,0.295
0.481,0.050,0.290
0.483,0.045,0.290
0.486,0.040,0.295
0.489,0.035,0.295
0.492,0.070,0.305
0.494,0.070,0.315
0.497,0.070,0.320
0.500,0.065,0.315
0.503,0.075,0.320
0.506,0.070,0.320
0.508,0.080,0.340
0.511,0.100,0.350
0.514,0.095,0.360
0.517,0.085,0.345
0.519,0.080,0.340
0.522,0.095,0.350
0.525,0.105,0.370
0.528,0.125,0.375
0.531,0.125,0.370
0.533,0.125,0.370
0.536,0.110,0.380
0.539,0.130,0.385
0.542,0.150,0.390
0.544,0.145,0.405
0.547,0.140,0.395
0.550,0.115,0.405
0.553,0.110,0.410
0.556,0.125,0.400
0.558,0.140,0.405
0.561,0.145,0.420
0.564,0.135,0.415
0.567,0.130,0.425
0.569,0.125,0.430
0.572,0.125,0.435
0.575,0.140,0.430
0.578,0.140,0.440
0.581,0.135,0.435
0.583,0.130,0.450
0.586,0.140,0.460
0.589,0.145,0.460
0.592,0.150,0.465
0.594,0.140,0.460
0.597,0.125,0.470
0.600,0.115,0.480
0.603,0.115,0.490
0.606,0.130,0.495
0.608,0.120,0.490
0.611,0.115,0.490
0.614,0.115,0.500
0.617,0.100,0.510
0.619,0.090,0.525
0.622,0.100,0.530
0.625,0.110,0.535
0.628,0.105,0.540
0.631,0.090,0.550
0.633,0.075,0.570
0.636,0.080,0.565
0.639,0.085,0.585
0.642,0.110,0.580
0.644,0.105,0.580
0.647,0.100,0.580
0.650,0.085,0.600
0.653,0.090,0.610
0.656,0.105,0.630
0.658,0.095,0.635
0.661,0.095,0.615
0.664,0.080,0.625
0.667,0.070,0.620
0.669,0.060,0.650
0.672,0.070,0.660
0.675,0.090,0.645
0.678,0.090,0.635
0.681,0.090,0.640
0.683,0.085,0.630
0.686,0.075,0.655
0.689,0.085,0.660
0.692,0.105,0.655
0.694,0.115,0.645
0.697,0.105,0.630
0.700,0.110,0.640
0.703,0.110,0.645
0.706,0.120,0.650
0.708,0.130,0.640
0.711,0.145,0.605
0.714,0.135,0.610
0.717,0.125,0.610
0.719,0.125,0.630
0.722,0.135,0.640
0.725,0.135,0.635
0.728,0.150,0.625
0.731,0.145,0.610
0.733,0.145,0.610
0.736,0.145,0.635
0.739,0.160,0.650
0.742,0.165,0.640
0.744,0.175,0.630
0.747,0.170,0.620
0.750,0.165,0.610
0.753,0.175,0.625
0.756,0.165,0.640
0.758,0.195,0.630
0.761,0.195,0.625
0.764,0.185,0.590
0.767,0.185,0.590
0.769,0.190,0.605
0.772,0.200,0.620
0.775,0.225,0.625
0.778,0.220,0.605
0.781,0.205,0.555
0.783,0.185,0.525
0.786,0.180,0.515
0.789,0.185,0.525
0.792,0.190,0.510
0.794,0.190,0.475
0.797,0.190,0.410
0.800,0.200,0.365
0.803,0.210,0.375
0.806,0.275,0.395
0.808,0.335,0.435
0.811,0.390,0.450
0.814,0.405,0.465
0.817,0.405,0.475
0.819,0.395,0.490
0.822,0.420,0.530
0.825,0.420,0.565
0.828,0.405,0.565
0.831,0.355,0.560
0.833,0.285,0.515
0.836,0.200,0.520
0.839,0.110,0.500
0.842,0.010,0.520
0.844,-0.070,0.535
0.847,-0.200,0.555
0.850,-0.330,0.555
0.853,-0.465,0.540
0.856,-0.580,0.535
0.858,-0.700,0.505
0.861,-0.790,0.455
0.864,-0.870,0.395
0.867,-0.930,0.355
0.869,-0.975,0.310
0.872,-0.985,0.305
0.875,-0.965,0.305
0.878,-0.930,0.320
0.881,-0.870,0.350
0.883,-0.800,0.385
0.886,-0.705,0.420
0.889,-0.605,0.455
0.892,-0.495,0.475
0.894,-0.445,0.455
0.897,-0.445,0.400
0.900,-0.470,0.305
0.903,-0.525,0.200
0.906,-0.570,0.085
0.908,-0.630,-0.025
0.911,-0.710,-0.135
0.914,-0.800,-0.260
0.917,-0.885,-0.385
0.919,-0.940,-0.505
0.922,-0.955,-0.615
0.925,-0.975,-0.685
0.928,-0.975,-0.740
0.931,-0.975,-0.770
0.933,-0.985,-0.810
0.936,-1.000,-0.835
0.939,-0.990,-0.850
0.942,-0.985,-0.855
0.944,-0.990,-0.870
0.947,-1.005,-0.870
0.950,-0.995,-0.880
0.953,-1.005,-0.875
0.956,-1.005,-0.890
0.958,-0.995,-0.900
0.961,-0.990,-0.905
0.964,-1.010,-0.915
0.967,-1.020,-0.920
0.969,-1.025,-0.910
0.972,-1.025,-0.920
0.975,-1.020,-0.930
0.978,-1.005,-0.950
0.981,-1.025,-0.945
0.983,-1.030,-0.950
0.986,-1.030,-0.935
0.989,-1.015,-0.935
0.992,-1.015,-0.950
0.994,-1.005,-0.970
0.997,-1.015,-0.975
1.000,-1.020,-0.965
1.003,-1.030,-0.960
1.006,-1.015,-0.945
1.008,-0.980,-0.960
1.011,-0.990,-0.980
1.014,-0.990,-0.985
1.017,-1.000,-0.975
1.019,-1.005,-0.955
1.022,-0.995,-0.940
1.025,-0.985,-0.950
1.028,-1.010,-0.960
1.031,-1.010,-0.975
1.033,-0.995,-0.970
1.036,-1.000,-0.945
1.039,-0.985,-0.925
1.042,-0.965,-0.935
1.044,-0.960,-0.940
1.047,-0.965,-0.935
1.050,-0.975,-0.930
1.053,-0.960,-0.905
1.056,-0.940,-0.895
1.058,-0.920,-0.885
1.061,-0.910,-0.900
1.064,-0.910,-0.900
1.067,-0.940,-0.880
1.069,-0.945,-0.860
1.072,-0.915,-0.830
1.075,-0.895,-0.830
1.078,-0.895,-0.835
1.081,-0.905,-0.840
1.083,-0.885,-0.825
1.086,-0.875,-0.795
1.089,-0.845,-0.770
1.092,-0.820,-0.760
1.094,-0.810,-0.785
1.097,-0.810,-0.775
1.100,-0.820,-0.770
1.103,-0.810,-0.750
1.106,-0.800,-0.725
1.108,-0.800,-0.715
1.111,-0.790,-0.730
1.114,-0.800,-0.730
1.117,-0.790,-0.725
1.119,-0.775,-0.690
1.122,-0.750,-0.650
1.125,-0.740,-0.640
1.128,-0.725,-0.640
1.131,-0.720,-0.660
1.133,-0.725,-0.650
1.136,-0.720,-0.625
1.139,-0.700,-0.580
1.142,-0.700,-0.590
1.144,-0.700,-0.600
1.147,-0.700,-0.600
1.150,-0.715,-0.600
1.153,-0.710,-0.565
1.156,-0.675,-0.535
1.158,-0.665,-0.515
1.161,-0.650,-0.510
1.164,-0.650,-0.510
1.167,-0.655,-0.510
1.169,-0.645,-0.480
1.172,-0.630,-0.440
1.175,-0.610,-0.425
1.178,-0.600,-0.440
1.181,-0.605,-0.435
1.183,-0.605,-0.435
1.186,-0.600,-0.410
1.189,-0.570,-0.365
1.192,-0.550,-0.365
1.194,-0.540,-0.360
1.197,-0.560,-0.375
1.200,-0.550,-0.375
1.203,-0.540,-0.350
1.206,-0.525,-0.315
1.208,-0.500,-0.295
1.211,-0.500,-0.300
1.214,-0.505,-0.310
1.217,-0.500,-0.305
1.219,-0.495,-0.290
1.222,-0.470,-0.265
1.225,-0.455,-0.255
1.228,-0.450,-0.260
1.231,-0.450,-0.260
1.233,-0.455,-0.275
1.236,-0.455,-0.255
1.239,-0.435,-0.220
1.242,-0.415,-0.185
1.244,-0.405,-0.190
1.247,-0.400,-0.205
1.250,-0.415,-0.220
1.253,-0.400,-0.205
1.256,-0.410,-0.175
1.258,-0.395,-0.160
1.261,-0.370,-0.150
1.264,-0.380,-0.165
1.267,-0.385,-0.165
1.269,-0.385,-0.145
1.272,-0.375,-0.115
1.275,-0.365,-0.095
1.278,-0.345,-0.085
1.281,-0.335,-0.100
1.283,-0.345,-0.100
1.286,-0.340,-0.090
1.289,-0.320,-0.050
1.292,-0.305,-0.025
1.294,-0.305,-0.025
1.297,-0.300,-0.025
1.300,-0.305,-0.035
1.303,-0.295,-0.025
1.306,-0.280,0.000
1.308,-0.265,0.040
1.311,-0.255,0.040
1.314,-0.260,0.035
1.317,-0.280,0.015
1.319,-0.275,0.025
1.322,-0.270,0.045
1.325,-0.245,0.070
1.328,-0.250,0.085
1.331,-0.275,0.065
1.333,-0.275,0.055
1.336,-0.260,0.060
1.339,-0.250,0.075
1.342,-0.230,0.090
1.344,-0.230,0.105
1.347,-0.235,0.100
1.350,-0.245,0.085
1.353,-0.240,0.095
1.356,-0.220,0.090
1.358,-0.205,0.110
1.361,-0.200,0.105
1.364,-0.205,0.110
1.367,-0.220,0.105
1.369,-0.230,0.095
1.372,-0.215,0.100
1.375,-0.190,0.105
1.378,-0.200,0.125
1.381,-0.195,0.125
1.383,-0.215,0.125
1.386,-0.220,0.115
1.389,-0.220,0.110
1.392,-0.200,0.125
1.394,-0.200,0.125
1.397,-0.205,0.130
1.400,-0.215,0.115
1.403,-0.210,0.125
1.406,-0.210,0.120
1.408,-0.185,0.130
1.411,-0.185,0.135
1.414,-0.190,0.135
1.417,-0.190,0.130
1.419,-0.195,0.125
1.422,-0.175,0.120
1.425,-0.160,0.130
1.428,-0.170,0.135
1.431,-0.175,0.135
1.433,-0.175,0.130
1.436,-0.200,0.120
1.439,-0.180,0.125
1.442,-0.175,0.130
1.444,-0.175,0.140
1.447,-0.175,0.145
1.450,-0.190,0.130
1.453,-0.200,0.130
1.456,-0.175,0.130
1.458,-0.175,0.125
1.461,-0.170,0.135
1.464,-0.180,0.135
1.467,-0.185,0.140
1.469,-0.190,0.135
1.472,-0.185,0.130
1.475,-0.165,0.125
1.478,-0.145,0.130
1.481,-0.165,0.125
1.483,-0.165,0.130
1.486,-0.175,0.145
1.489,-0.170,0.145
1.492,-0.160,0.125
1.494,-0.165,0.125
1.497,-0.170,0.135
1.500,-0.195,0.140
1.503,-0.190,0.140
1.506,-0.195,0.135
1.508,-0.165,0.130
1.511,-0.175,0.125
1.514,-0.180,0.140
1.517,-0.190,0.130
1.519,-0.175,0.135
1.522,-0.170,0.125
1.525,-0.150,0.120
1.528,-0.155,0.140
1.531,-0.165,0.130
1.533,-0.160,0.135
1.536,-0.160,0.130
1.539,-0.150,0.110
1.542,-0.140,0.115
1.544,-0.135,0.120
1.547,-0.145,0.135
1.550,-0.160,0.125
1.553,-0.180,0.120
1.556,-0.160,0.120
1.558,-0.160,0.125
1.561,-0.160,0.125
1.564,-0.155,0.140
1.567,-0.160,0.140
1.569,-0.170,0.125
1.572,-0.160,0.125
1.575,-0.140,0.125
1.578,-0.140,0.130
1.581,-0.150,0.130
1.583,-0.155,0.125
1.586,-0.155,0.120
1.589,-0.140,0.130
1.592,-0.130,0.130
1.594,-0.125,0.130
1.597,-0.145,0.135
1.600,-0.145,0.125
1.603,-0.150,0.125
1.606,-0.145,0.125
1.608,-0.130,0.135
1.611,-0.135,0.130
1.614,-0.145,0.140
1.617,-0.160,0.125
1.619,-0.165,0.120
1.622,-0.150,0.130
1.625,-0.140,0.130
1.628,-0.140,0.135
1.631,-0.135,0.130
1.633,-0.140,0.120
1.636,-0.165,0.100
1.639,-0.145,0.115
1.642,-0.125,0.130
1.644,-0.120,0.135
1.647,-0.135,0.125
1.650,-0.140,0.110
1.653,-0.140,0.110
1.656,-0.135,0.100
1.658,-0.130,0.120
1.661,-0.135,0.130
1.664,-0.145,0.120
1.667,-0.150,0.115
1.669,-0.160,0.120
1.672,-0.150,0.110
1.675,-0.140,0.120
1.678,-0.135,0.125
1.681,-0.150,0.125
1.683,-0.150,0.115
1.686,-0.155,0.090
1.689,-0.145,0.110
1.692,-0.135,0.115
1.694,-0.125,0.125
1.697,-0.135,0.125
1.700,-0.130,0.100
1.703,-0.135,0.085
1.706,-0.125,0.110
1.708,-0.105,0.125
1.711,-0.115,0.125
1.714,-0.130,0.100
1.717,-0.140,0.085
1.719,-0.150,0.095
1.722,-0.130,0.110
1.725,-0.125,0.130
1.728,-0.130,0.115
1.731,-0.130,0.105
1.733,-0.140,0.085
1.736,-0.135,0.105
1.739,-0.125,0.120
1.742,-0.120,0.135
1.744,-0.110,0.135
1.747,-0.125,0.100
1.750,-0.155,0.090
1.753,-0.150,0.095
1.756,-0.130,0.120
1.758,-0.105,0.130
1.761,-0.115,0.115
1.764,-0.130,0.095
1.767,-0.125,0.075
1.769,-0.120,0.090
1.772,-0.120,0.120
1.775,-0.105,0.125
1.778,-0.110,0.120
1.781,-0.130,0.095
1.783,-0.135,0.075
1.786,-0.155,0.085
1.789,-0.125,0.115
1.792,-0.125,0.120
1.794,-0.130,0.120
1.797,-0.130,0.100
1.800,-0.135,0.075
1.803,-0.130,0.085
1.806,-0.130,0.105
1.808,-0.100,0.115
1.811,-0.105,0.115
1.814,-0.100,0.095
1.817,-0.115,0.075
1.819,-0.110,0.085
1.822,-0.110,0.110
1.825,-0.100,0.115
1.828,-0.100,0.115
1.831,-0.115,0.075
1.833,-0.120,0.075
1.836,-0.135,0.090
1.839,-0.130,0.105
1.842,-0.105,0.130
1.844,-0.115,0.105
1.847,-0.120,0.070
1.850,-0.130,0.065
1.853,-0.135,0.105
1.856,-0.110,0.115
1.858,-0.100,0.120
1.861,-0.105,0.100
1.864,-0.110,0.075
1.867,-0.120,0.060
1.869,-0.115,0.075
1.872,-0.095,0.100
1.875,-0.090,0.115
1.878,-0.090,0.105
1.881,-0.105,0.065
1.883,-0.105,0.060
1.886,-0.125,0.095
1.889,-0.105,0.110
1.892,-0.100,0.105
1.894,-0.110,0.095
1.897,-0.120,0.060
1.900,-0.125,0.060
1.903,-0.140,0.085
1.906,-0.110,0.100
1.908,-0.105,0.100
1.911,-0.100,0.085
1.914,-0.105,0.060
1.917,-0.120,0.055
1.919,-0.105,0.090
1.922,-0.110,0.095
1.925,-0.095,0.085
1.928,-0.100,0.075
1.931,-0.105,0.055
1.933,-0.110,0.050
1.936,-0.115,0.070
1.939,-0.100,0.095
1.942,-0.085,0.095
1.944,-0.090,0.070
1.947,-0.110,0.060
1.950,-0.115,0.055
1.953,-0.115,0.085
1.956,-0.120,0.105
1.958,-0.100,0.095
1.961,-0.105,0.070
1.964,-0.110,0.050
1.967,-0.115,0.060
1.969,-0.105,0.080
1.972,-0.100,0.090
1.975,-0.080,0.080
1.978,-0.080,0.060
1.981,-0.095,0.055
1.983,-0.095,0.050
1.986,-0.100,0.070
1.989,-0.085,0.090
1.992,-0.080,0.080
1.994,-0.085,0.065
1.997,-0.095,0.035
2.000,-0.110,0.040
2.003,-0.120,0.055
2.006,-0.120,0.075
2.008,-0.095,0.065
2.011,-0.090,0.055
2.014,-0.115,0.030
2.017,-0.115,0.045
2.019,-0.115,0.065
2.022,-0.100,0.070
2.025,-0.105,0.075
2.028,-0.095,0.035
2.031,-0.095,0.025
2.033,-0.100,0.050
2.036,-0.105,0.065
2.039,-0.090,0.065
2.042,-0.075,0.065
2.044,-0.080,0.040
2.047,-0.100,0.025
2.050,-0.100,0.050
2.053,-0.095,0.055
2.056,-0.095,0.055
2.058,-0.095,0.050
2.061,-0.105,0.040
2.064,-0.100,0.035
2.067,-0.120,0.040
2.069,-0.115,0.055
2.072,-0.095,0.070
2.075,-0.080,0.065
2.078,-0.080,0.035
2.081,-0.095,0.035
2.083,-0.120,0.035
2.086,-0.095,0.050
2.089,-0.105,0.060
2.092,-0.080,0.055
2.094,-0.085,0.025
2.097,-0.080,0.025
2.100,-0.095,0.025
2.103,-0.090,0.055
2.106,-0.085,0.050
2.108,-0.080,0.045
2.111,-0.070,0.015
2.114,-0.090,0.015
2.117,-0.105,0.035
2.119,-0.115,0.045
2.122,-0.095,0.055
2.125,-0.095,0.040
2.128,-0.085,0.015
2.131,-0.110,0.015
2.133,-0.110,0.035
2.136,-0.110,0.050
2.139,-0.095,0.045
2.142,-0.075,0.050
2.144,-0.070,0.015
2.147,-0.085,0.015
2.150,-0.095,0.030
2.153,-0.090,0.030
2.156,-0.080,0.050
2.158,-0.065,0.050
2.161,-0.060,0.015
2.164,-0.075,0.005
2.167,-0.090,0.020
2.169,-0.095,0.040
2.172,-0.100,0.040
2.175,-0.085,0.030
2.178,-0.085,0.020
2.181,-0.090,0.010
2.183,-0.085,0.010
2.186,-0.105,0.030
2.189,-0.085,0.045
2.192,-0.080,0.035
2.194,-0.080,0.010
2.197,-0.090,0.005
2.200,-0.090,0.010
2.203,-0.100,0.035
2.206,-0.080,0.055
2.208,-0.075,0.045
2.211,-0.070,0.030
2.214,-0.075,0.020
2.217,-0.085,0.040
2.219,-0.085,0.050
2.222,-0.070,0.070
2.225,-0.065,0.065
2.228,-0.070,0.050
2.231,-0.075,0.035
2.233,-0.080,0.035
2.236,-0.085,0.060
2.239,-0.070,0.075
2.242,-0.070,0.065
2.244,-0.055,0.025
2.247,-0.070,0.005
2.250,-0.065,0.010
2.253,-0.075,0.015
2.256,-0.070,0.030
2.258,-0.055,0.025
2.261,-0.055,-0.010
2.264,-0.060,-0.035
2.267,-0.095,-0.045
2.269,-0.130,-0.055
2.272,-0.130,-0.080
2.275,-0.115,-0.120
2.278,-0.105,-0.165
2.281,-0.115,-0.230
2.283,-0.125,-0.260
2.286,-0.085,-0.275
2.289,-0.015,-0.280
2.292,0.095,-0.265
2.294,0.225,-0.270
2.297,0.315,-0.295
2.300,0.385,-0.285
2.303,0.415,-0.240
2.306,0.465,-0.180
2.308,0.515,-0.085
2.311,0.615,0.135
2.314,0.750,0.430
2.317,0.865,0.755
2.319,0.900,0.970
2.322,0.875,1.075
2.325,0.820,1.115
2.328,0.750,1.135
2.331,0.675,1.175
2.333,0.590,1.210
2.336,0.455,1.230
2.339,0.300,1.220
2.342,0.115,1.160
2.344,-0.060,1.045
2.347,-0.160,0.920
2.350,-0.235,0.840
2.353,-0.250,0.815
2.356,-0.255,0.830
2.358,-0.290,0.835
2.361,-0.305,0.820
2.364,-0.365,0.795
2.367,-0.385,0.825
2.369,-0.340,0.895
2.372,-0.275,0.965
2.375,-0.245,0.985
2.378,-0.190,0.985
2.381,-0.160,0.955
2.383,-0.100,0.935
2.386,-0.060,0.910
2.389,-0.050,0.855
2.392,-0.030,0.755
2.394,-0.065,0.600
2.397,-0.105,0.455
2.400,-0.150,0.315
2.403,-0.170,0.220
2.406,-0.165,0.165
2.408,-0.145,0.125
2.411,-0.155,0.070
2.414,-0.160,0.005
2.417,-0.190,-0.010
2.419,-0.170,-0.010
2.422,-0.160,-0.005
2.425,-0.150,-0.010
2.428,-0.150,-0.020
2.431,-0.155,-0.060
2.433,-0.170,-0.065
2.436,-0.175,-0.060
2.439,-0.150,-0.050
2.442,-0.155,-0.035
2.444,-0.145,-0.040
2.447,-0.155,-0.070
2.450,-0.170,-0.080
2.453,-0.160,-0.075
2.456,-0.165,-0.050
2.458,-0.150,-0.040
2.461,-0.155,-0.050
2.464,-0.165,-0.080
2.467,-0.180,-0.095
2.469,-0.170,-0.090
2.472,-0.170,-0.080
2.475,-0.155,-0.055
2.478,-0.155,-0.065
2.481,-0.165,-0.075
2.483,-0.165,-0.105
2.486,-0.180,-0.100
2.489,-0.160,-0.080
2.492,-0.135,-0.070
2.494,-0.135,-0.050
2.497,-0.140,-0.100
2.500,-0.165,-0.100
2.503,-0.145,-0.100
2.506,-0.125,-0.075
2.508,-0.115,-0.055
2.511,-0.120,-0.060
2.514,-0.125,-0.070
2.517,-0.140,-0.105
2.519,-0.125,-0.075
2.522,-0.115,-0.065
2.525,-0.095,-0.045
2.528,-0.105,-0.040
2.531,-0.110,-0.080
2.533,-0.115,-0.080
2.536,-0.115,-0.070
2.539,-0.100,-0.035
2.542,-0.080,-0.025
2.544,-0.080,-0.030
2.547,-0.085,-0.055
2.550,-0.075,-0.070
2.553,-0.075,-0.060
2.556,-0.065,-0.020
2.558,-0.035,-0.015
2.561,-0.035,-0.015
2.564,-0.060,-0.030
2.567,-0.065,-0.030
2.569,-0.045,-0.025
2.572,-0.030,0.010
2.575,-0.015,0.035
2.578,-0.020,0.035
2.581,-0.030,0.010
2.583,-0.040,0.000
2.586,-0.040,0.025
2.589,-0.020,0.055
2.592,-0.010,0.065
2.594,0.010,0.055
2.597,-0.015,0.045
2.600,0.000,0.040
2.603,0.005,0.065
2.606,0.010,0.095
2.608,0.040,0.120
2.611,0.040,0.105
2.614,0.045,0.070
2.617,0.040,0.070
2.619,0.065,0.105
2.622,0.085,0.130
2.625,0.100,0.145
2.628,0.090,0.130
2.631,0.085,0.110
2.633,0.075,0.115
2.636,0.070,0.130
2.639,0.090,0.165
2.642,0.085,0.180
2.644,0.095,0.160
2.647,0.100,0.145
2.650,0.105,0.145
2.653,0.115,0.175
2.656,0.125,0.210
2.658,0.135,0.210
2.661,0.145,0.195
2.664,0.140,0.180
2.667,0.120,0.185
2.669,0.125,0.210
2.672,0.150,0.230
2.675,0.175,0.230
2.678,0.175,0.220
2.681,0.160,0.205
2.683,0.155,0.215
2.686,0.150,0.240
2.689,0.170,0.260
2.692,0.180,0.260
2.694,0.180,0.250
2.697,0.175,0.225
2.700,0.155,0.245
2.703,0.160,0.265
2.706,0.180,0.285
2.708,0.195,0.285
2.711,0.195,0.265
2.714,0.190,0.255
2.717,0.175,0.265
2.719,0.185,0.295
2.722,0.200,0.320
2.725,0.210,0.305
2.728,0.195,0.280
2.731,0.190,0.280
2.733,0.195,0.295
2.736,0.185,0.325
2.739,0.200,0.340
2.742,0.200,0.335
2.744,0.190,0.320
2.747,0.175,0.305
2.750,0.170,0.335
2.753,0.165,0.360
2.756,0.175,0.375
2.758,0.180,0.360
2.761,0.175,0.340
2.764,0.165,0.335
2.767,0.155,0.360
2.769,0.160,0.380
2.772,0.155,0.405
2.775,0.165,0.385
2.778,0.160,0.385
2.781,0.155,0.415
2.783,0.130,0.440
2.786,0.165,0.465
2.789,0.160,0.450
2.792,0.170,0.440
2.794,0.145,0.440
2.797,0.135,0.460
2.800,0.130,0.480
2.803,0.135,0.495
2.806,0.145,0.485
2.808,0.135,0.480
2.811,0.130,0.465
2.814,0.130,0.485
2.817,0.135,0.510
2.819,0.135,0.520
2.822,0.150,0.500
2.825,0.140,0.485
2.828,0.125,0.480
2.831,0.130,0.500
2.833,0.140,0.515
2.836,0.155,0.510
2.839,0.165,0.500
2.842,0.170,0.485
2.844,0.165,0.490
2.847,0.150,0.490
2.850,0.165,0.505
2.853,0.165,0.510
2.856,0.175,0.500
2.858,0.170,0.480
2.861,0.150,0.485
2.864,0.165,0.490
2.867,0.160,0.505
2.869,0.175,0.515
2.872,0.195,0.490
2.875,0.205,0.485
2.878,0.195,0.470
2.881,0.190,0.485
2.883,0.205,0.515
2.886,0.210,0.510
2.889,0.225,0.495
2.892,0.230,0.490
2.894,0.230,0.485
2.897,0.220,0.495
2.900,0.240,0.515
2.903,0.255,0.515
2.906,0.275,0.495
2.908,0.270,0.490
2.911,0.255,0.485
2.914,0.235,0.475
2.917,0.220,0.470
2.919,0.240,0.465
2.922,0.230,0.440
2.925,0.210,0.395
2.928,0.160,0.370
2.931,0.150,0.355
2.933,0.160,0.350
2.936,0.160,0.350
2.939,0.185,0.350
2.942,0.175,0.345
2.944,0.145,0.345
2.947,0.130,0.325
2.950,0.130,0.320
2.953,0.140,0.320
2.956,0.155,0.320
2.958,0.150,0.345
2.961,0.100,0.350
2.964,0.035,0.355
2.967,-0.075,0.335
2.969,-0.195,0.345
2.972,-0.310,0.340
2.975,-0.415,0.355
2.978,-0.500,0.360
2.981,-0.625,0.325
2.983,-0.785,0.230
2.986,-0.945,0.155
2.989,-1.000,0.080
2.992,-1.055,0.020
2.994,-1.080,-0.025
2.997,-1.110,-0.065
3.000,-1.145,-0.100
3.003,-1.145,-0.110
3.006,-1.090,-0.070
3.008,-1.005,-0.005
3.011,-0.950,0.055
3.014,-0.920,0.110
3.017,-0.895,0.135
3.019,-0.870,0.155
3.022,-0.830,0.170
3.025,-0.805,0.170
3.028,-0.805,0.140
3.031,-0.830,0.060
3.033,-0.845,-0.030
3.036,-0.840,-0.160
3.039,-0.840,-0.310
3.042,-0.840,-0.465
3.044,-0.860,-0.620
3.047,-0.885,-0.765
3.050,-0.885,-0.865
3.053,-0.870,-0.915
3.056,-0.840,-0.945
3.058,-0.835,-0.960
3.061,-0.845,-0.995
3.064,-0.860,-1.025
3.067,-0.865,-1.030
3.069,-0.855,-1.040
3.072,-0.855,-1.025
3.075,-0.850,-1.025
3.078,-0.865,-1.055
3.081,-0.885,-1.065
3.083,-0.890,-1.075
3.086,-0.875,-1.075
3.089,-0.855,-1.075
3.092,-0.855,-1.070
3.094,-0.865,-1.065
3.097,-0.880,-1.085
3.100,-0.880,-1.090
3.103,-0.875,-1.085
3.106,-0.850,-1.080
3.108,-0.860,-1.080
3.111,-0.865,-1.100
3.114,-0.865,-1.110
3.117,-0.880,-1.110
3.119,-0.860,-1.090
3.122,-0.830,-1.085
3.125,-0.835,-1.090
3.128,-0.845,-1.110
3.131,-0.860,-1.115
3.133,-0.850,-1.115
3.136,-0.830,-1.090
3.139,-0.810,-1.065
3.142,-0.810,-1.070
3.144,-0.830,-1.090
3.147,-0.820,-1.100
3.150,-0.815,-1.080
3.153,-0.800,-1.055
3.156,-0.775,-1.030
3.158,-0.770,-1.045
3.161,-0.770,-1.050
3.164,-0.770,-1.055
3.167,-0.755,-1.035
3.169,-0.745,-1.005
3.172,-0.720,-0.980
3.175,-0.730,-0.980
3.178,-0.730,-1.000
3.181,-0.720,-0.995
3.183,-0.720,-0.975
3.186,-0.690,-0.940
3.189,-0.685,-0.915
3.192,-0.660,-0.925
3.194,-0.680,-0.940
3.197,-0.675,-0.945
3.200,-0.665,-0.900
3.203,-0.640,-0.870
3.206,-0.615,-0.830
3.208,-0.620,-0.840
3.211,-0.620,-0.855
3.214,-0.625,-0.845
3.217,-0.620,-0.810
3.219,-0.595,-0.770
3.222,-0.580,-0.750
3.225,-0.575,-0.770
3.228,-0.565,-0.775
3.231,-0.570,-0.755
3.233,-0.545,-0.725
3.236,-0.525,-0.680
3.239,-0.500,-0.675
3.242,-0.505,-0.675
3.244,-0.485,-0.685
3.247,-0.475,-0.670
3.250,-0.475,-0.635
3.253,-0.455,-0.610
3.256,-0.435,-0.605
3.258,-0.445,-0.620
3.261,-0.455,-0.630
3.264,-0.435,-0.605
3.267,-0.425,-0.560
3.269,-0.410,-0.525
3.272,-0.385,-0.535
3.275,-0.380,-0.535
3.278,-0.370,-0.540
3.281,-0.365,-0.520
3.283,-0.360,-0.480
3.286,-0.335,-0.470
3.289,-0.310,-0.455
3.292,-0.320,-0.475
3.294,-0.325,-0.475
3.297,-0.335,-0.460
3.300,-0.320,-0.425
3.303,-0.310,-0.395
3.306,-0.310,-0.385
3.308,-0.280,-0.405
3.311,-0.290,-0.400
3.314,-0.285,-0.385
3.317,-0.280,-0.345
3.319,-0.255,-0.310
3.322,-0.235,-0.305
3.325,-0.240,-0.330
3.328,-0.255,-0.315
3.331,-0.260,-0.295
3.333,-0.240,-0.265
3.336,-0.220,-0.255
3.339,-0.195,-0.255
3.342,-0.205,-0.265
3.344,-0.215,-0.270
3.347,-0.220,-0.235
3.350,-0.215,-0.220
3.353,-0.220,-0.210
3.356,-0.210,-0.215
3.358,-0.210,-0.230
3.361,-0.225,-0.215
3.364,-0.225,-0.200
3.367,-0.220,-0.175
3.369,-0.205,-0.145
3.372,-0.205,-0.145
3.375,-0.210,-0.180
3.378,-0.210,-0.165
3.381,-0.225,-0.145
3.383,-0.235,-0.130
3.386,-0.205,-0.105
3.389,-0.200,-0.110
3.392,-0.190,-0.115
3.394,-0.200,-0.095
3.397,-0.215,-0.075
3.400,-0.210,-0.055
3.403,-0.195,-0.055
3.406,-0.195,-0.055
3.408,-0.200,-0.060
3.411,-0.210,-0.050
3.414,-0.220,-0.025
3.417,-0.215,-0.005
3.419,-0.215,0.000
3.422,-0.210,-0.010
3.425,-0.200,-0.010
3.428,-0.220,-0.005
3.431,-0.225,0.015
3.433,-0.230,0.035
3.436,-0.210,0.025
3.439,-0.200,0.025
3.442,-0.200,0.020
3.444,-0.205,0.025
3.447,-0.210,0.040
3.450,-0.200,0.055
3.453,-0.200,0.050
3.456,-0.190,0.035
3.458,-0.190,0.040
3.461,-0.205,0.035
3.464,-0.210,0.055
3.467,-0.220,0.070
3.469,-0.200,0.065
3.472,-0.195,0.055
3.475,-0.200,0.045
3.478,-0.205,0.055
3.481,-0.220,0.065
3.483,-0.215,0.065
3.486,-0.205,0.075
3.489,-0.205,0.060
3.492,-0.200,0.050
3.494,-0.205,0.055
3.497,-0.210,0.070
3.500,-0.205,0.080
3.503,-0.190,0.075
3.506,-0.175,0.070
3.508,-0.180,0.075
3.511,-0.185,0.070
3.514,-0.200,0.080
3.517,-0.195,0.090
3.519,-0.190,0.085
3.522,-0.185,0.080
3.525,-0.200,0.080
3.528,-0.205,0.090
3.531,-0.215,0.095
3.533,-0.220,0.090
3.536,-0.190,0.095
3.539,-0.185,0.095
3.542,-0.175,0.115
3.544,-0.180,0.110
3.547,-0.185,0.100
3.550,-0.195,0.100
3.553,-0.175,0.110
3.556,-0.165,0.105
3.558,-0.165,0.120
3.561,-0.175,0.105
3.564,-0.190,0.100
3.567,-0.185,0.105
3.569,-0.170,0.110
3.572,-0.170,0.120
3.575,-0.180,0.130
3.578,-0.185,0.120
3.581,-0.195,0.115
3.583,-0.195,0.120
3.586,-0.185,0.110
3.589,-0.170,0.120
3.592,-0.170,0.130
3.594,-0.175,0.130
3.597,-0.185,0.120
3.600,-0.185,0.120
3.603,-0.170,0.125
3.606,-0.160,0.130
3.608,-0.180,0.135
3.611,-0.175,0.130
3.614,-0.170,0.125
3.617,-0.175,0.115
3.619,-0.170,0.125
3.622,-0.145,0.140
3.625,-0.150,0.145
3.628,-0.170,0.145
3.631,-0.180,0.130
3.633,-0.175,0.130
3.636,-0.180,0.140
3.639,-0.180,0.150
3.642,-0.165,0.160
3.644,-0.190,0.145
3.647,-0.180,0.120
3.650,-0.195,0.130
3.653,-0.180,0.145
3.656,-0.160,0.160
3.658,-0.175,0.165
3.661,-0.185,0.145
3.664,-0.185,0.130
3.667,-0.180,0.130
3.669,-0.160,0.155
3.672,-0.155,0.175
3.675,-0.170,0.160
3.678,-0.165,0.135
3.681,-0.175,0.125
3.683,-0.170,0.140
3.686,-0.175,0.155
3.689,-0.165,0.175
3.692,-0.165,0.170
3.694,-0.175,0.150
3.697,-0.190,0.140
3.700,-0.175,0.150
3.703,-0.170,0.160
3.706,-0.170,0.170
3.708,-0.175,0.170
3.711,-0.180,0.155
3.714,-0.185,0.140
3.717,-0.185,0.150
3.719,-0.165,0.165
3.722,-0.155,0.180
3.725,-0.160,0.165
3.728,-0.155,0.145
3.731,-0.160,0.135
3.733,-0.160,0.150
3.736,-0.150,0.170
3.739,-0.160,0.190
3.742,-0.155,0.185
3.744,-0.170,0.150
3.747,-0.175,0.145
3.750,-0.185,0.165
3.753,-0.170,0.195
3.756,-0.175,0.180
3.758,-0.175,0.165
3.761,-0.185,0.165
3.764,-0.185,0.140
3.767,-0.175,0.175
3.769,-0.170,0.190
3.772,-0.160,0.195
3.775,-0.170,0.180
3.778,-0.170,0.150
3.781,-0.175,0.150
3.783,-0.185,0.180
3.786,-0.165,0.210
3.789,-0.155,0.200
3.792,-0.180,0.180
3.794,-0.175,0.155
3.797,-0.185,0.160
3.800,-0.180,0.175
3.803,-0.180,0.210
3.806,-0.175,0.200
3.808,-0.170,0.185
3.811,-0.180,0.155
3.814,-0.200,0.175
3.817,-0.195,0.195
3.819,-0.170,0.215
3.822,-0.160,0.205
3.825,-0.165,0.200
3.828,-0.185,0.160
3.831,-0.175,0.175
3.833,-0.160,0.205
3.836,-0.160,0.225
3.839,-0.155,0.215
3.842,-0.150,0.190
3.844,-0.160,0.175
3.847,-0.170,0.170
3.850,-0.165,0.200
3.853,-0.155,0.215
3.856,-0.160,0.215
3.858,-0.155,0.195
3.861,-0.165,0.170
3.864,-0.180,0.175
3.867,-0.185,0.210
3.869,-0.165,0.225
3.872,-0.165,0.215
3.875,-0.155,0.190
3.878,-0.170,0.170
3.881,-0.175,0.190
3.883,-0.165,0.215
3.886,-0.160,0.230
3.889,-0.150,0.205
3.892,-0.145,0.195
3.894,-0.155,0.190
3.897,-0.165,0.200
3.900,-0.165,0.230
3.903,-0.150,0.235
3.906,-0.150,0.210
3.908,-0.165,0.205
3.911,-0.180,0.190
3.914,-0.185,0.215
3.917,-0.180,0.230
3.919,-0.160,0.240
3.922,-0.155,0.230
3.925,-0.150,0.205
3.928,-0.170,0.195
3.931,-0.180,0.215
3.933,-0.175,0.235
3.936,-0.160,0.230
3.939,-0.145,0.215
3.942,-0.155,0.195
3.944,-0.150,0.195
3.947,-0.170,0.225
3.950,-0.160,0.230
3.953,-0.155,0.230
3.956,-0.160,0.210
3.958,-0.155,0.205
3.961,-0.155,0.215
3.964,-0.170,0.225
3.967,-0.175,0.235
3.969,-0.165,0.240
3.972,-0.155,0.225
3.975,-0.165,0.205
3.978,-0.165,0.220
3.981,-0.185,0.230
3.983,-0.190,0.230
3.986,-0.170,0.235
3.989,-0.165,0.230
3.992,-0.165,0.215
3.994,-0.175,0.215
3.997,-0.185,0.225
4.000,-0.190,0.240
4.003,-0.170,0.240
4.006,-0.150,0.225
4.008,-0.140,0.210
4.011,-0.160,0.210
4.014,-0.175,0.230
4.017,-0.165,0.240
4.019,-0.170,0.235
4.022,-0.155,0.215
4.025,-0.165,0.220
4.028,-0.180,0.220
4.031,-0.185,0.230
4.033,-0.185,0.245
4.036,-0.175,0.235
4.039,-0.165,0.230
4.042,-0.165,0.215
4.044,-0.165,0.220
4.047,-0.180,0.230
4.050,-0.175,0.245
4.053,-0.170,0.230
4.056,-0.155,0.235
4.058,-0.150,0.220
4.061,-0.160,0.230
4.064,-0.165,0.250
4.067,-0.160,0.250
4.069,-0.155,0.245
4.072,-0.155,0.230
4.075,-0.155,0.225
4.078,-0.165,0.240
4.081,-0.180,0.245
4.083,-0.185,0.245
4.086,-0.175,0.245
4.089,-0.145,0.240
4.092,-0.155,0.230
4.094,-0.165,0.240
4.097,-0.180,0.245
4.100,-0.175,0.255
4.103,-0.160,0.245
4.106,-0.150,0.240
4.108,-0.160,0.225
4.111,-0.170,0.225
4.114,-0.160,0.240
4.117,-0.155,0.265
4.119,-0.135,0.250
4.122,-0.160,0.235
4.125,-0.155,0.225
4.128,-0.160,0.240
4.131,-0.170,0.250
4.133,-0.170,0.260
4.136,-0.160,0.260
4.139,-0.170,0.240
4.142,-0.165,0.235
4.144,-0.175,0.245
4.147,-0.180,0.245
4.150,-0.185,0.260
4.153,-0.175,0.260
4.156,-0.160,0.245
4.158,-0.155,0.245
4.161,-0.175,0.250
4.164,-0.170,0.260
4.167,-0.170,0.265
4.169,-0.155,0.265
4.172,-0.145,0.255
4.175,-0.155,0.240
4.178,-0.155,0.255
4.181,-0.160,0.270
4.183,-0.150,0.260
4.186,-0.145,0.270
4.189,-0.140,0.255
4.192,-0.150,0.245
4.194,-0.170,0.255
4.197,-0.180,0.255
4.200,-0.180,0.260
4.203,-0.165,0.260
4.206,-0.145,0.255
4.208,-0.155,0.250
4.211,-0.180,0.265
4.214,-0.170,0.265
4.217,-0.165,0.270
4.219,-0.165,0.265
4.222,-0.145,0.255
4.225,-0.160,0.255
4.228,-0.185,0.270
4.231,-0.170,0.265
4.233,-0.155,0.265
4.236,-0.145,0.275
4.239,-0.130,0.260
4.242,-0.135,0.260
4.244,-0.150,0.265
4.247,-0.160,0.275
4.250,-0.155,0.285
4.253,-0.140,0.285
4.256,-0.145,0.270
4.258,-0.145,0.275
4.261,-0.150,0.270
4.264,-0.160,0.285
4.267,-0.155,0.285
4.269,-0.145,0.295
4.272,-0.140,0.270
4.275,-0.155,0.270
4.278,-0.155,0.275
4.281,-0.165,0.295
4.283,-0.150,0.305
4.286,-0.145,0.295
4.289,-0.140,0.290
4.292,-0.150,0.290
4.294,-0.165,0.290
4.297,-0.175,0.300
4.300,-0.165,0.310
4.303,-0.135,0.295
4.306,-0.135,0.295
4.308,-0.145,0.290
4.311,-0.160,0.290
4.314,-0.160,0.310
4.317,-0.155,0.300
4.319,-0.140,0.310
4.322,-0.130,0.290
4.325,-0.135,0.270
4.328,-0.145,0.270
4.331,-0.150,0.280
4.333,-0.155,0.310
4.336,-0.145,0.300
4.339,-0.125,0.295
4.342,-0.120,0.285
4.344,-0.130,0.285
4.347,-0.135,0.300
4.350,-0.130,0.295
4.353,-0.115,0.295
4.356,-0.110,0.265
4.358,-0.125,0.255
4.361,-0.165,0.250
4.364,-0.195,0.230
4.367,-0.225,0.190
4.369,-0.240,0.150
4.372,-0.230,0.095
4.375,-0.240,0.060
4.378,-0.220,0.035
4.381,-0.165,0.015
4.383,-0.055,0.010
4.386,0.080,0.015
4.389,0.210,0.045
4.392,0.300,0.040
4.394,0.330,0.070
4.397,0.355,0.115
4.400,0.410,0.220
4.403,0.540,0.435
4.406,0.690,0.780
4.408,0.775,1.095
4.411,0.775,1.275
4.414,0.720,1.325
4.417,0.665,1.345
4.419,0.615,1.400
4.422,0.540,1.475
4.425,0.415,1.515
4.428,0.245,1.510
4.431,0.040,1.445
4.433,-0.120,1.370
4.436,-0.220,1.280
4.439,-0.260,1.200
4.442,-0.285,1.150
4.444,-0.335,1.135
4.447,-0.360,1.140
4.450,-0.395,1.125
4.453,-0.425,1.135
4.456,-0.415,1.150
4.458,-0.385,1.190
4.461,-0.360,1.250
4.464,-0.335,1.285
4.467,-0.300,1.280
4.469,-0.245,1.280
4.472,-0.180,1.285
4.475,-0.140,1.255
4.478,-0.135,1.215
4.481,-0.125,1.120
4.483,-0.140,1.005
4.486,-0.180,0.870
4.489,-0.205,0.730
4.492,-0.230,0.605
4.494,-0.250,0.495
4.497,-0.245,0.435
4.500,-0.240,0.375
4.503,-0.230,0.345
4.506,-0.210,0.330
4.508,-0.220,0.320
4.511,-0.230,0.295
4.514,-0.230,0.290
4.517,-0.230,0.285
4.519,-0.220,0.270
4.522,-0.210,0.275
4.525,-0.220,0.270
4.528,-0.225,0.270
4.531,-0.235,0.260
4.533,-0.230,0.255
4.536,-0.225,0.265
4.539,-0.230,0.245
4.542,-0.235,0.260
4.544,-0.245,0.265
4.547,-0.250,0.255
4.550,-0.245,0.230
4.553,-0.220,0.245
4.556,-0.215,0.260
4.558,-0.220,0.265
4.561,-0.225,0.250
4.564,-0.250,0.230
4.567,-0.230,0.230
4.569,-0.205,0.240
4.572,-0.195,0.260
4.575,-0.195,0.260
4.578,-0.210,0.235
4.581,-0.220,0.225
4.583,-0.210,0.230
4.586,-0.190,0.265
4.589,-0.195,0.270
4.592,-0.200,0.245
4.594,-0.215,0.225
4.597,-0.200,0.225
4.600,-0.190,0.240
4.603,-0.185,0.270
4.606,-0.175,0.285
4.608,-0.180,0.270
4.611,-0.200,0.235
4.614,-0.195,0.235
4.617,-0.180,0.265
4.619,-0.160,0.295
4.622,-0.150,0.295
4.625,-0.150,0.270
4.628,-0.150,0.255
4.631,-0.155,0.255
4.633,-0.140,0.280
4.636,-0.125,0.310
4.639,-0.120,0.305
4.642,-0.130,0.295
4.644,-0.140,0.265
4.647,-0.145,0.270
4.650,-0.130,0.310
4.653,-0.115,0.340
4.656,-0.105,0.340
4.658,-0.120,0.320
4.661,-0.130,0.320
4.664,-0.120,0.315
4.667,-0.100,0.355
4.669,-0.080,0.375
4.672,-0.075,0.370
4.675,-0.070,0.355
4.678,-0.070,0.340
4.681,-0.075,0.360
4.683,-0.065,0.390
4.686,-0.040,0.410
4.689,-0.030,0.400
4.692,-0.025,0.385
4.694,-0.035,0.395
4.697,-0.045,0.400
4.700,-0.045,0.435
4.703,-0.035,0.450
4.706,-0.010,0.435
4.708,-0.010,0.430
4.711,-0.025,0.425
4.714,-0.025,0.435
4.717,-0.020,0.470
4.719,0.005,0.475
4.722,0.010,0.480
4.725,0.020,0.470
4.728,0.015,0.460
4.731,0.005,0.485
4.733,0.025,0.505
4.736,0.035,0.505
4.739,0.045,0.490
4.742,0.060,0.480
4.744,0.040,0.495
4.747,0.040,0.520
4.750,0.050,0.520
4.753,0.065,0.515
4.756,0.070,0.515
4.758,0.065,0.530
4.761,0.065,0.540
4.764,0.050,0.535
4.767,0.060,0.550
4.769,0.075,0.545
4.772,0.095,0.565
4.775,0.090,0.575
4.778,0.075,0.550
4.781,0.075,0.550
4.783,0.100,0.560
4.786,0.110,0.595
4.789,0.110,0.605
4.792,0.110,0.585
4.794,0.105,0.580
4.797,0.100,0.575
4.800,0.105,0.595
4.803,0.100,0.620
4.806,0.110,0.610
4.808,0.115,0.595
4.811,0.100,0.600
4.814,0.095,0.615
4.817,0.095,0.640
4.819,0.100,0.640
4.822,0.095,0.630
4.825,0.095,0.615
4.828,0.090,0.620
4.831,0.075,0.645
4.833,0.085,0.665
4.836,0.100,0.680
4.839,0.100,0.660
4.842,0.080,0.660
4.844,0.075,0.655
4.847,0.075,0.690
4.850,0.085,0.715
4.853,0.090,0.710
4.856,0.070,0.700
4.858,0.070,0.700
4.861,0.060,0.710
4.864,0.055,0.730
4.867,0.055,0.765
4.869,0.065,0.765
4.872,0.060,0.740
4.875,0.050,0.735
4.878,0.050,0.750
4.881,0.030,0.765
4.883,0.045,0.775
4.886,0.040,0.765
4.889,0.045,0.745
4.892,0.040,0.750
4.894,0.045,0.745
4.897,0.040,0.760
4.900,0.060,0.760
4.903,0.070,0.765
4.906,0.070,0.760
4.908,0.055,0.740
4.911,0.050,0.740
4.914,0.045,0.735
4.917,0.040,0.750
4.919,0.055,0.755
4.922,0.065,0.740
4.925,0.050,0.720
4.928,0.055,0.735
4.931,0.050,0.745
4.933,0.070,0.750
4.936,0.085,0.735
4.939,0.090,0.730
4.942,0.090,0.730
4.944,0.090,0.735
4.947,0.100,0.745
4.950,0.105,0.735
4.953,0.125,0.735
4.956,0.130,0.730
4.958,0.135,0.725
4.961,0.140,0.730
4.964,0.130,0.725
4.967,0.135,0.715
4.969,0.140,0.710
4.972,0.155,0.720
4.975,0.170,0.705
4.978,0.165,0.705
4.981,0.155,0.705
4.983,0.155,0.680
4.986,0.145,0.665
4.989,0.135,0.650
4.992,0.130,0.620
4.994,0.110,0.605
4.997,0.110,0.565
5.000,0.140,0.525
5.003,0.160,0.495
5.006,0.185,0.480
5.008,0.210,0.480
5.011,0.195,0.480
5.014,0.215,0.510
5.017,0.220,0.530
5.019,0.225,0.565
5.022,0.205,0.595
5.025,0.150,0.595
5.028,0.080,0.585
5.031,0.000,0.570
5.033,-0.075,0.605
5.036,-0.185,0.660
5.039,-0.280,0.710
5.042,-0.395,0.710
5.044,-0.520,0.685
5.047,-0.650,0.635
5.050,-0.720,0.590
5.053,-0.820,0.540
5.056,-0.920,0.475
5.058,-0.995,0.405
5.061,-1.035,0.335
5.064,-1.045,0.300
5.067,-1.000,0.325
5.069,-0.950,0.370
5.072,-0.875,0.410
5.075,-0.770,0.440
5.078,-0.695,0.445
5.081,-0.620,0.470
5.083,-0.555,0.480
5.086,-0.500,0.485
5.089,-0.485,0.445
5.092,-0.530,0.345
5.094,-0.595,0.185
5.097,-0.660,0.045
5.100,-0.710,-0.070
5.103,-0.750,-0.165
5.106,-0.800,-0.285
5.108,-0.835,-0.410
5.111,-0.860,-0.510
5.114,-0.885,-0.600
5.117,-0.880,-0.645
5.119,-0.865,-0.670
5.122,-0.870,-0.700
5.125,-0.895,-0.745
5.128,-0.895,-0.765
5.131,-0.905,-0.785
5.133,-0.905,-0.785
5.136,-0.895,-0.775
5.139,-0.900,-0.780
5.142,-0.905,-0.805
5.144,-0.915,-0.835
5.147,-0.910,-0.845
5.150,-0.910,-0.845
5.153,-0.895,-0.825
5.156,-0.900,-0.830
5.158,-0.905,-0.845
5.161,-0.915,-0.880
5.164,-0.915,-0.890
5.167,-0.910,-0.870
5.169,-0.910,-0.860
5.172,-0.900,-0.850
5.175,-0.895,-0.875
5.178,-0.910,-0.900
5.181,-0.915,-0.910
5.183,-0.910,-0.895
5.186,-0.895,-0.875
5.189,-0.885,-0.880
5.192,-0.900,-0.900
5.194,-0.900,-0.925
5.197,-0.910,-0.930
5.200,-0.885,-0.915
5.203,-0.875,-0.895
5.206,-0.865,-0.895
5.208,-0.870,-0.920
5.211,-0.890,-0.940
5.214,-0.880,-0.940
5.217,-0.860,-0.915
5.219,-0.840,-0.890
5.222,-0.825,-0.880
5.225,-0.845,-0.895
5.228,-0.830,-0.925
5.231,-0.835,-0.920
5.233,-0.815,-0.885
5.236,-0.810,-0.865
5.239,-0.805,-0.850
5.242,-0.800,-0.860
5.244,-0.810,-0.885
5.247,-0.820,-0.890
5.250,-0.805,-0.855
5.253,-0.785,-0.830
5.256,-0.785,-0.815
5.258,-0.790,-0.825
5.261,-0.805,-0.830
5.264,-0.795,-0.840
5.267,-0.775,-0.805
5.269,-0.745,-0.785
5.272,-0.720,-0.760
5.275,-0.720,-0.760
5.278,-0.715,-0.785
5.281,-0.715,-0.780
5.283,-0.705,-0.760
5.286,-0.675,-0.740
5.289,-0.675,-0.715
5.292,-0.655,-0.730
5.294,-0.685,-0.725
5.297,-0.675,-0.730
5.300,-0.665,-0.710
5.303,-0.645,-0.670
5.306,-0.635,-0.650
5.308,-0.645,-0.650
5.311,-0.645,-0.665
5.314,-0.630,-0.665
5.317,-0.625,-0.655
5.319,-0.605,-0.630
5.322,-0.605,-0.605
5.325,-0.595,-0.615
5.328,-0.620,-0.605
5.331,-0.610,-0.610
5.333,-0.600,-0.605
5.336,-0.570,-0.580
5.339,-0.555,-0.555
5.342,-0.555,-0.565
5.344,-0.570,-0.540
5.347,-0.570,-0.545
5.350,-0.550,-0.530
5.353,-0.520,-0.510
5.356,-0.510,-0.485
5.358,-0.510,-0.475
5.361,-0.510,-0.475
5.364,-0.515,-0.470
5.367,-0.505,-0.460
5.369,-0.485,-0.430
5.372,-0.470,-0.400
5.375,-0.465,-0.400
5.378,-0.485,-0.410
5.381,-0.470,-0.410
5.383,-0.450,-0.400
5.386,-0.430,-0.370
5.389,-0.415,-0.365
5.392,-0.420,-0.355
5.394,-0.420,-0.370
5.397,-0.420,-0.370
5.400,-0.400,-0.365
5.403,-0.385,-0.340
5.406,-0.375,-0.310
5.408,-0.365,-0.315
5.411,-0.375,-0.325
5.414,-0.370,-0.325
5.417,-0.365,-0.320
5.419,-0.350,-0.295
5.422,-0.355,-0.275
5.425,-0.360,-0.280
5.428,-0.385,-0.290
5.431,-0.370,-0.280
5.433,-0.360,-0.290
5.436,-0.340,-0.255
5.439,-0.320,-0.240
5.442,-0.330,-0.235
5.444,-0.335,-0.250
5.447,-0.340,-0.250
5.450,-0.330,-0.230
5.453,-0.305,-0.225
5.456,-0.295,-0.190
5.458,-0.305,-0.185
5.461,-0.300,-0.190
5.464,-0.300,-0.200
5.467,-0.300,-0.180
5.469,-0.275,-0.170
5.472,-0.265,-0.140
5.475,-0.270,-0.135
5.478,-0.285,-0.145
5.481,-0.285,-0.140
5.483,-0.270,-0.135
5.486,-0.260,-0.120
5.489,-0.250,-0.110
5.492,-0.250,-0.095
5.494,-0.255,-0.100
5.497,-0.265,-0.105
5.500,-0.260,-0.105
5.503,-0.245,-0.075
5.506,-0.240,-0.070
5.508,-0.230,-0.070
5.511,-0.245,-0.080
5.514,-0.240,-0.075
5.517,-0.240,-0.085
5.519,-0.220,-0.075
5.522,-0.220,-0.060
5.525,-0.220,-0.065
5.528,-0.230,-0.070
5.531,-0.225,-0.075
5.533,-0.220,-0.055
5.536,-0.230,-0.075
5.539,-0.220,-0.055
5.542,-0.230,-0.060
5.544,-0.245,-0.070
5.547,-0.245,-0.060
5.550,-0.230,-0.065
5.553,-0.215,-0.055
5.556,-0.215,-0.070
5.558,-0.210,-0.065
5.561,-0.225,-0.060
5.564,-0.230,-0.080
5.567,-0.220,-0.070
5.569,-0.215,-0.070
5.572,-0.195,-0.065
5.575,-0.200,-0.065
5.578,-0.210,-0.085
5.581,-0.215,-0.085
5.583,-0.205,-0.075
5.586,-0.215,-0.070
5.589,-0.200,-0.070
5.592,-0.205,-0.060
5.594,-0.220,-0.080
5.597,-0.220,-0.095
5.600,-0.215,-0.090
5.603,-0.205,-0.080
5.606,-0.210,-0.065
5.608,-0.210,-0.075
5.611,-0.215,-0.085
5.614,-0.225,-0.090
5.617,-0.225,-0.090
5.619,-0.205,-0.090
5.622,-0.180,-0.065
5.625,-0.185,-0.065
5.628,-0.200,-0.090
5.631,-0.190,-0.095
5.633,-0.200,-0.095
5.636,-0.175,-0.090
5.639,-0.160,-0.075
5.642,-0.185,-0.080
5.644,-0.195,-0.095
5.647,-0.205,-0.110
5.650,-0.200,-0.105
5.653,-0.205,-0.090
5.656,-0.195,-0.090
5.658,-0.195,-0.090
5.661,-0.200,-0.110
5.664,-0.210,-0.120
5.667,-0.205,-0.105
5.669,-0.185,-0.090
5.672,-0.185,-0.085
5.675,-0.195,-0.100
5.678,-0.190,-0.120
5.681,-0.205,-0.125
5.683,-0.190,-0.120
5.686,-0.175,-0.105
5.689,-0.165,-0.085
5.692,-0.175,-0.105
5.694,-0.185,-0.125
5.697,-0.185,-0.125
5.700,-0.200,-0.110
5.703,-0.185,-0.100
5.706,-0.175,-0.100
5.708,-0.185,-0.115
5.711,-0.205,-0.145
5.714,-0.210,-0.145
5.717,-0.195,-0.125
5.719,-0.180,-0.100
5.722,-0.190,-0.095
5.725,-0.190,-0.135
5.728,-0.205,-0.160
5.731,-0.200,-0.150
5.733,-0.185,-0.135
5.736,-0.180,-0.100
5.739,-0.170,-0.120
5.742,-0.175,-0.140
5.744,-0.190,-0.165
5.747,-0.195,-0.160
5.750,-0.180,-0.130
5.753,-0.175,-0.115
5.756,-0.170,-0.120
5.758,-0.175,-0.145
5.761,-0.190,-0.165
5.764,-0.200,-0.165
5.767,-0.195,-0.145
5.769,-0.180,-0.125
5.772,-0.185,-0.130
5.775,-0.175,-0.170
5.778,-0.195,-0.180
5.781,-0.195,-0.160
5.783,-0.185,-0.135
5.786,-0.175,-0.125
5.789,-0.175,-0.145
5.792,-0.180,-0.160
5.794,-0.180,-0.180
5.797,-0.185,-0.170
5.800,-0.175,-0.150
5.803,-0.170,-0.135
5.806,-0.165,-0.155
5.808,-0.170,-0.175
5.811,-0.185,-0.195
5.814,-0.185,-0.175
5.817,-0.180,-0.145
5.819,-0.165,-0.145
5.822,-0.175,-0.160
5.825,-0.180,-0.185
5.828,-0.200,-0.195
5.831,-0.200,-0.175
5.833,-0.185,-0.165
5.836,-0.175,-0.155
5.839,-0.170,-0.170
5.842,-0.175,-0.195
5.844,-0.190,-0.205
5.847,-0.200,-0.190
5.850,-0.170,-0.160
5.853,-0.155,-0.170
5.856,-0.145,-0.180
5.858,-0.160,-0.190
5.861,-0.170,-0.215
5.864,-0.175,-0.190
5.867,-0.175,-0.165
5.869,-0.175,-0.170
5.872,-0.160,-0.185
5.875,-0.170,-0.205
5.878,-0.180,-0.195
5.881,-0.190,-0.190
5.883,-0.170,-0.175
5.886,-0.185,-0.185
5.889,-0.165,-0.200
5.892,-0.165,-0.215
5.894,-0.175,-0.215
5.897,-0.185,-0.195
5.900,-0.165,-0.185
5.903,-0.150,-0.185
5.906,-0.150,-0.210
5.908,-0.155,-0.220
5.911,-0.160,-0.210
5.914,-0.175,-0.205
5.917,-0.165,-0.185
5.919,-0.150,-0.200
5.922,-0.165,-0.205
5.925,-0.170,-0.230
5.928,-0.175,-0.215
5.931,-0.180,-0.205
5.933,-0.175,-0.195
5.936,-0.155,-0.195
5.939,-0.165,-0.220
5.942,-0.175,-0.220
5.944,-0.170,-0.225
5.947,-0.190,-0.215
5.950,-0.185,-0.205
5.953,-0.170,-0.205
5.956,-0.160,-0.230
5.958,-0.165,-0.225
5.961,-0.175,-0.220
5.964,-0.175,-0.205
5.967,-0.150,-0.210
5.969,-0.150,-0.205
5.972,-0.150,-0.225
5.975,-0.155,-0.235
5.978,-0.165,-0.220
5.981,-0.180,-0.210
5.983,-0.180,-0.210
5.986,-0.165,-0.210
5.989,-0.170,-0.230
5.992,-0.165,-0.230
5.994,-0.175,-0.230
5.997,-0.185,-0.215
6.000,-0.175,-0.225
6.003,-0.165,-0.215
6.006,-0.165,-0.245
6.008,-0.185,-0.230
6.011,-0.185,-0.245
6.014,-0.175,-0.220
6.017,-0.155,-0.230
6.019,-0.145,-0.225
6.022,-0.160,-0.230
6.025,-0.170,-0.245
6.028,-0.160,-0.245
6.031,-0.170,-0.230
6.033,-0.170,-0.215
6.036,-0.155,-0.230
6.039,-0.155,-0.230
6.042,-0.160,-0.255
6.044,-0.165,-0.255
6.047,-0.185,-0.245
6.050,-0.180,-0.210
6.053,-0.165,-0.225
6.056,-0.170,-0.240
6.058,-0.185,-0.240
6.061,-0.175,-0.240
6.064,-0.175,-0.245
6.067,-0.175,-0.220
6.069,-0.170,-0.225
6.072,-0.165,-0.235
6.075,-0.170,-0.240
6.078,-0.170,-0.265
6.081,-0.175,-0.240
6.083,-0.150,-0.220
6.086,-0.150,-0.225
6.089,-0.150,-0.240
6.092,-0.165,-0.265
6.094,-0.175,-0.260
6.097,-0.195,-0.235
6.100,-0.165,-0.220
6.103,-0.165,-0.215
6.106,-0.155,-0.240
6.108,-0.165,-0.255
6.111,-0.185,-0.255
6.114,-0.175,-0.245
6.117,-0.165,-0.225
6.119,-0.155,-0.225
6.122,-0.155,-0.235
6.125,-0.160,-0.255
6.128,-0.160,-0.260
6.131,-0.175,-0.255
6.133,-0.160,-0.230
6.136,-0.150,-0.230
6.139,-0.145,-0.225
6.142,-0.145,-0.250
6.144,-0.155,-0.270
6.147,-0.155,-0.260
6.150,-0.155,-0.235
6.153,-0.150,-0.215
6.156,-0.145,-0.235
6.158,-0.170,-0.260
6.161,-0.175,-0.275
6.164,-0.185,-0.250
6.167,-0.175,-0.235
6.169,-0.160,-0.225
6.172,-0.150,-0.235
6.175,-0.170,-0.260
6.178,-0.175,-0.270
6.181,-0.170,-0.260
6.183,-0.160,-0.245
6.186,-0.150,-0.210
6.189,-0.145,-0.230
6.192,-0.150,-0.255
6.194,-0.165,-0.280
6.197,-0.165,-0.255
6.200,-0.165,-0.240
6.203,-0.145,-0.225
6.206,-0.140,-0.230
6.208,-0.155,-0.260
6.211,-0.170,-0.270
6.214,-0.175,-0.265
6.217,-0.155,-0.240
6.219,-0.155,-0.220
6.222,-0.155,-0.235
6.225,-0.160,-0.250
6.228,-0.160,-0.275
6.231,-0.165,-0.255
6.233,-0.160,-0.250
6.236,-0.145,-0.230
6.239,-0.150,-0.225
6.242,-0.155,-0.255
6.244,-0.180,-0.270
6.247,-0.165,-0.265
6.250,-0.150,-0.245
6.253,-0.140,-0.225
6.256,-0.145,-0.240
6.258,-0.145,-0.250
6.261,-0.150,-0.275
6.264,-0.165,-0.260
6.267,-0.170,-0.250
6.269,-0.145,-0.225
6.272,-0.140,-0.230
6.275,-0.145,-0.245
6.278,-0.170,-0.270
6.281,-0.160,-0.270
6.283,-0.155,-0.255
6.286,-0.150,-0.240
6.289,-0.140,-0.225
6.292,-0.170,-0.235
6.294,-0.180,-0.265
6.297,-0.175,-0.270
6.300,-0.170,-0.255
6.303,-0.150,-0.235
6.306,-0.145,-0.230
6.308,-0.170,-0.245
6.311,-0.175,-0.255
6.314,-0.170,-0.260
6.317,-0.145,-0.255
6.319,-0.135,-0.235
6.322,-0.135,-0.225
6.325,-0.140,-0.225
6.328,-0.150,-0.245
6.331,-0.165,-0.260
6.333,-0.170,-0.250
6.336,-0.165,-0.245
6.339,-0.150,-0.225
6.342,-0.165,-0.230
6.344,-0.170,-0.245
6.347,-0.175,-0.250
6.350,-0.165,-0.250
6.353,-0.150,-0.240
6.356,-0.145,-0.235
6.358,-0.155,-0.235
6.361,-0.165,-0.245
6.364,-0.170,-0.250
6.367,-0.155,-0.245
6.369,-0.140,-0.235
6.372,-0.135,-0.225
6.375,-0.150,-0.230
6.378,-0.150,-0.245
6.381,-0.155,-0.260
6.383,-0.140,-0.245
6.386,-0.135,-0.230
6.389,-0.135,-0.220
6.392,-0.150,-0.220
6.394,-0.165,-0.235
6.397,-0.175,-0.245
6.400,-0.165,-0.225
6.403,-0.145,-0.220
6.406,-0.150,-0.205
6.408,-0.170,-0.210
6.411,-0.170,-0.215
6.414,-0.160,-0.210
6.417,-0.140,-0.220
6.419,-0.130,-0.205
6.422,-0.115,-0.185
6.425,-0.120,-0.190
6.428,-0.125,-0.200
6.431,-0.135,-0.205
6.433,-0.115,-0.230
6.436,-0.095,-0.210
6.439,-0.100,-0.225
6.442,-0.125,-0.225
6.444,-0.135,-0.235
6.447,-0.130,-0.255
6.450,-0.135,-0.255
6.453,-0.140,-0.255
6.456,-0.145,-0.275
6.458,-0.185,-0.300
6.461,-0.225,-0.340
6.464,-0.230,-0.395
6.467,-0.235,-0.430
6.469,-0.220,-0.460
6.472,-0.195,-0.500
6.475,-0.165,-0.510
6.478,-0.080,-0.535
6.481,0.035,-0.540
6.483,0.160,-0.515
6.486,0.260,-0.505
6.489,0.320,-0.490
6.492,0.360,-0.460
6.494,0.380,-0.405
6.497,0.455,-0.280
6.500,0.600,-0.020
6.503,0.720,0.295
6.506,0.770,0.575
6.508,0.735,0.715
6.511,0.660,0.760
6.514,0.600,0.790
6.517,0.545,0.835
6.519,0.470,0.915
6.522,0.350,0.950
6.525,0.155,0.920
6.528,-0.045,0.850
6.531,-0.185,0.755
6.533,-0.245,0.675
6.536,-0.260,0.620
6.539,-0.290,0.585
6.542,-0.305,0.570
6.544,-0.360,0.550
6.547,-0.405,0.545
6.550,-0.415,0.555
6.553,-0.385,0.600
6.556,-0.350,0.660
6.558,-0.320,0.685
6.561,-0.310,0.690
6.564,-0.270,0.690
6.567,-0.215,0.700
6.569,-0.145,0.705
6.572,-0.120,0.660
6.575,-0.120,0.585
6.578,-0.145,0.460
6.581,-0.190,0.325
6.583,-0.205,0.195
6.586,-0.220,0.085
6.589,-0.225,-0.015
6.592,-0.235,-0.085
6.594,-0.240,-0.145
6.597,-0.225,-0.200
6.600,-0.225,-0.215
6.603,-0.210,-0.220
6.606,-0.205,-0.215
6.608,-0.205,-0.240
6.611,-0.220,-0.260
6.614,-0.215,-0.280
6.617,-0.210,-0.280
6.619,-0.210,-0.260
6.622,-0.215,-0.260
6.625,-0.225,-0.265
6.628,-0.245,-0.295
6.631,-0.235,-0.300
6.633,-0.220,-0.295
6.636,-0.215,-0.275
6.639,-0.220,-0.275
6.642,-0.220,-0.275
6.644,-0.225,-0.300
6.647,-0.220,-0.315
6.650,-0.205,-0.305
6.653,-0.210,-0.285
6.656,-0.190,-0.280
6.658,-0.200,-0.280
6.661,-0.210,-0.310
6.664,-0.200,-0.320
6.667,-0.195,-0.300
6.669,-0.175,-0.275
6.672,-0.190,-0.265
6.675,-0.195,-0.280
6.678,-0.205,-0.305
6.681,-0.205,-0.315
6.683,-0.190,-0.300
6.686,-0.175,-0.275
6.689,-0.165,-0.270
6.692,-0.175,-0.285
6.694,-0.185,-0.305
6.697,-0.190,-0.310
6.700,-0.165,-0.285
6.703,-0.150,-0.260
6.706,-0.145,-0.255
6.708,-0.150,-0.270
6.711,-0.150,-0.285
6.714,-0.155,-0.295
6.717,-0.145,-0.285
6.719,-0.125,-0.260
6.722,-0.125,-0.250
6.725,-0.135,-0.255
6.728,-0.145,-0.260
6.731,-0.130,-0.275
6.733,-0.145,-0.260
6.736,-0.115,-0.230
6.739,-0.110,-0.235
6.742,-0.120,-0.235
6.744,-0.135,-0.250
6.747,-0.120,-0.255
6.750,-0.110,-0.240
6.753,-0.095,-0.205
6.756,-0.095,-0.195
6.758,-0.095,-0.205
6.761,-0.105,-0.215
6.764,-0.100,-0.220
6.767,-0.075,-0.215
6.769,-0.060,-0.180
6.772,-0.055,-0.175
6.775,-0.075,-0.170
6.778,-0.070,-0.205
6.781,-0.050,-0.200
6.783,-0.045,-0.175
6.786,-0.030,-0.150
6.789,-0.040,-0.135
6.792,-0.040,-0.140
6.794,-0.060,-0.165
6.797,-0.050,-0.165
6.800,-0.035,-0.135
6.803,-0.015,-0.115
6.806,-0.020,-0.105
6.808,-0.025,-0.115
6.811,-0.015,-0.130
6.814,-0.035,-0.120
6.817,-0.005,-0.115
6.819,0.010,-0.100
6.822,0.020,-0.080
6.825,-0.005,-0.080
6.828,0.010,-0.090
6.831,0.000,-0.100
6.833,0.015,-0.085
6.836,0.040,-0.065
6.839,0.045,-0.050
6.842,0.045,-0.045
6.844,0.040,-0.050
6.847,0.050,-0.055
6.850,0.055,-0.070
6.853,0.065,-0.055
6.856,0.055,-0.040
6.858,0.060,-0.030
6.861,0.050,-0.040
6.864,0.040,-0.040
6.867,0.060,-0.050
6.869,0.075,-0.035
6.872,0.075,-0.030
6.875,0.075,-0.020
6.878,0.075,-0.015
6.881,0.065,-0.015
6.883,0.090,-0.020
6.886,0.100,-0.005
6.889,0.100,0.000
6.892,0.110,0.000
6.894,0.085,0.000
6.897,0.085,0.010
6.900,0.105,0.005
6.903,0.120,0.015
6.906,0.125,0.015
6.908,0.110,0.025
6.911,0.095,0.035
6.914,0.100,0.030
6.917,0.095,0.035
6.919,0.100,0.030
6.922,0.100,0.035
6.925,0.095,0.040
6.928,0.085,0.050
6.931,0.080,0.060
6.933,0.090,0.075
6.936,0.085,0.070
6.939,0.090,0.065
6.942,0.080,0.055
6.944,0.080,0.080
6.947,0.080,0.090
6.950,0.070,0.105
6.953,0.105,0.090
6.956,0.100,0.090
6.958,0.090,0.085
6.961,0.070,0.095
6.964,0.075,0.125
6.967,0.075,0.145
6.969,0.085,0.145
6.972,0.090,0.125
6.975,0.070,0.115
6.978,0.045,0.135
6.981,0.035,0.160
6.983,0.055,0.190
6.986,0.070,0.185
6.989,0.070,0.175
6.992,0.050,0.175
6.994,0.030,0.170
6.997,0.035,0.210
7.000,0.045,0.225
7.003,0.060,0.215
7.006,0.060,0.210
7.008,0.060,0.185
7.011,0.030,0.200
7.014,0.050,0.225
7.017,0.060,0.240
7.019,0.075,0.240
7.022,0.075,0.230
7.025,0.070,0.200
7.028,0.060,0.205
7.031,0.065,0.235
7.033,0.065,0.240
7.036,0.065,0.245
7.039,0.080,0.215
7.042,0.065,0.200
7.044,0.065,0.195
7.047,0.065,0.215
7.050,0.070,0.230
7.053,0.065,0.235
7.056,0.085,0.215
7.058,0.080,0.205
7.061,0.070,0.195
7.064,0.080,0.220
7.067,0.090,0.225
7.069,0.105,0.235
7.072,0.110,0.215
7.075,0.110,0.185
7.078,0.095,0.180
7.081,0.105,0.210
7.083,0.130,0.220
7.086,0.130,0.240
7.089,0.145,0.220
7.092,0.145,0.195
7.094,0.130,0.185
7.097,0.130,0.195
7.100,0.155,0.220
7.103,0.155,0.230
7.106,0.185,0.220
7.108,0.180,0.195
7.111,0.170,0.185
7.114,0.175,0.175
7.117,0.185,0.195
7.119,0.200,0.200
7.122,0.185,0.185
7.125,0.165,0.150
7.128,0.145,0.120
7.131,0.155,0.105
7.133,0.165,0.115
7.136,0.190,0.085
7.139,0.190,0.055
7.142,0.175,0.000
7.144,0.165,-0.065
7.147,0.170,-0.080
7.150,0.175,-0.075
7.153,0.185,-0.050
7.156,0.165,-0.035
7.158,0.135,-0.050
7.161,0.120,-0.055
7.164,0.080,-0.045
7.167,0.050,-0.020
7.169,0.005,-0.015
7.172,-0.050,-0.040
7.175,-0.125,-0.065
7.178,-0.245,-0.085
7.181,-0.360,-0.070
7.183,-0.485,-0.035
7.186,-0.565,-0.025
7.189,-0.615,-0.020
7.192,-0.710,-0.050
7.194,-0.870,-0.095
7.197,-1.010,-0.135
7.200,-1.090,-0.160
7.203,-1.105,-0.205
7.206,-1.100,-0.250
7.208,-1.095,-0.300
7.211,-1.120,-0.315
7.214,-1.110,-0.305
7.217,-1.060,-0.245
7.219,-0.975,-0.185
7.222,-0.890,-0.115
7.225,-0.830,-0.085
7.228,-0.790,-0.075
7.231,-0.750,-0.055
7.233,-0.705,-0.040
7.236,-0.710,-0.030
7.239,-0.720,-0.080
7.242,-0.745,-0.140
7.244,-0.775,-0.220
7.247,-0.790,-0.290
7.250,-0.815,-0.355
7.253,-0.805,-0.440
7.256,-0.820,-0.585
7.258,-0.850,-0.740
7.261,-0.875,-0.900
7.264,-0.895,-1.005
7.267,-0.890,-1.080
7.269,-0.895,-1.105
7.272,-0.880,-1.140
7.275,-0.895,-1.190
7.278,-0.895,-1.230
7.281,-0.905,-1.245
7.283,-0.900,-1.255
7.286,-0.885,-1.250
7.289,-0.890,-1.255
7.292,-0.910,-1.270
7.294,-0.910,-1.300
7.297,-0.910,-1.310
7.300,-0.900,-1.315
7.303,-0.880,-1.295
7.306,-0.890,-1.285
7.308,-0.900,-1.310
7.311,-0.910,-1.320
7.314,-0.910,-1.340
7.317,-0.905,-1.325
7.319,-0.890,-1.320
7.322,-0.895,-1.320
7.325,-0.885,-1.330
7.328,-0.900,-1.350
7.331,-0.895,-1.355
7.333,-0.885,-1.350
7.336,-0.865,-1.335
7.339,-0.865,-1.335
7.342,-0.865,-1.345
7.344,-0.870,-1.360
7.347,-0.870,-1.365
7.350,-0.860,-1.360
7.353,-0.850,-1.355
7.356,-0.840,-1.325
7.358,-0.840,-1.335
7.361,-0.840,-1.340
7.364,-0.845,-1.345
7.367,-0.825,-1.335
7.369,-0.810,-1.310
7.372,-0.790,-1.305
7.375,-0.790,-1.305
7.378,-0.805,-1.310
7.381,-0.805,-1.310
7.383,-0.790,-1.300
7.386,-0.770,-1.275
7.389,-0.765,-1.265
7.392,-0.765,-1.265
7.394,-0.770,-1.260
7.397,-0.770,-1.265
7.400,-0.755,-1.245
7.403,-0.725,-1.220
7.406,-0.720,-1.200
7.408,-0.715,-1.200
7.411,-0.735,-1.195
7.414,-0.725,-1.200
7.417,-0.705,-1.180
7.419,-0.695,-1.150
7.422,-0.670,-1.135
7.425,-0.655,-1.125
7.428,-0.655,-1.135
7.431,-0.655,-1.125
7.433,-0.640,-1.110
7.436,-0.635,-1.085
7.439,-0.625,-1.065
7.442,-0.620,-1.055
7.444,-0.635,-1.060
7.447,-0.635,-1.050
7.450,-0.615,-1.045
7.453,-0.600,-1.005
7.456,-0.585,-0.995
7.458,-0.580,-0.990
7.461,-0.585,-0.980
7.464,-0.585,-0.975
7.467,-0.550,-0.960
7.469,-0.535,-0.935
7.472,-0.535,-0.910
7.475,-0.525,-0.895
7.478,-0.525,-0.895
7.481,-0.515,-0.895
7.483,-0.505,-0.875
7.486,-0.480,-0.860
7.489,-0.470,-0.830
7.492,-0.470,-0.830
7.494,-0.470,-0.820
7.497,-0.465,-0.825
7.500,-0.450,-0.795
7.503,-0.430,-0.770
7.506,-0.415,-0.750
7.508,-0.420,-0.730
7.511,-0.410,-0.740
7.514,-0.405,-0.725
7.517,-0.385,-0.715
7.519,-0.350,-0.670
7.522,-0.330,-0.655
7.525,-0.335,-0.660
7.528,-0.350,-0.665
7.531,-0.340,-0.645
7.533,-0.330,-0.635
7.536,-0.300,-0.600
7.539,-0.305,-0.585
7.542,-0.295,-0.595
7.544,-0.285,-0.600
7.547,-0.275,-0.600
7.550,-0.255,-0.600
7.553,-0.255,-0.565
7.556,-0.245,-0.565
7.558,-0.260,-0.565
7.561,-0.275,-0.570
7.564,-0.275,-0.570
7.567,-0.265,-0.560
7.569,-0.255,-0.520
7.572,-0.255,-0.510
7.575,-0.250,-0.535
7.578,-0.245,-0.540
7.581,-0.255,-0.535
7.583,-0.245,-0.505
7.586,-0.210,-0.485
7.589,-0.225,-0.475
7.592,-0.240,-0.490
7.594,-0.245,-0.510
7.597,-0.245,-0.495
7.600,-0.235,-0.470
7.603,-0.235,-0.440
7.606,-0.230,-0.430
7.608,-0.220,-0.440
7.611,-0.240,-0.455
7.614,-0.250,-0.420
7.617,-0.250,-0.380
7.619,-0.235,-0.365
7.622,-0.230,-0.350
7.625,-0.240,-0.375
7.628,-0.240,-0.385
7.631,-0.240,-0.365
7.633,-0.230,-0.325
7.636,-0.220,-0.300
7.639,-0.220,-0.290
7.642,-0.220,-0.305
7.644,-0.230,-0.325
7.647,-0.230,-0.305
7.650,-0.240,-0.275
7.653,-0.205,-0.245
7.656,-0.195,-0.265
7.658,-0.215,-0.275
7.661,-0.225,-0.290
7.664,-0.225,-0.270
7.667,-0.215,-0.245
7.669,-0.205,-0.225
7.672,-0.210,-0.225
7.675,-0.230,-0.245
7.678,-0.235,-0.255
7.681,-0.240,-0.250
7.683,-0.210,-0.225
7.686,-0.210,-0.200
7.689,-0.200,-0.210
7.692,-0.225,-0.235
7.694,-0.225,-0.245
7.697,-0.225,-0.235
7.700,-0.210,-0.190
7.703,-0.195,-0.185
7.706,-0.185,-0.205
7.708,-0.195,-0.225
7.711,-0.210,-0.230
7.714,-0.210,-0.205
7.717,-0.205,-0.185
7.719,-0.195,-0.185
7.722,-0.195,-0.205
7.725,-0.200,-0.230
7.728,-0.210,-0.220
7.731,-0.215,-0.190
7.733,-0.210,-0.185
7.736,-0.215,-0.180
7.739,-0.190,-0.195
7.742,-0.200,-0.215
7.744,-0.205,-0.215
7.747,-0.215,-0.190
7.750,-0.205,-0.170
7.753,-0.195,-0.190
7.756,-0.195,-0.195
7.758,-0.205,-0.205
7.761,-0.200,-0.210
7.764,-0.200,-0.190
7.767,-0.195,-0.175
7.769,-0.190,-0.165
7.772,-0.180,-0.195
7.775,-0.195,-0.205
7.778,-0.190,-0.210
7.781,-0.205,-0.185
7.783,-0.210,-0.165
7.786,-0.195,-0.175
7.789,-0.190,-0.190
7.792,-0.195,-0.210
7.794,-0.210,-0.200
7.797,-0.210,-0.185
7.800,-0.190,-0.170
7.803,-0.190,-0.170
7.806,-0.180,-0.185
7.808,-0.190,-0.195
7.811,-0.200,-0.190
7.814,-0.195,-0.175
7.817,-0.190,-0.165
7.819,-0.165,-0.185
7.822,-0.155,-0.185
7.825,-0.175,-0.190
7.828,-0.195,-0.180
7.831,-0.205,-0.175
7.833,-0.185,-0.165
7.836,-0.190,-0.165
7.839,-0.190,-0.180
7.842,-0.190,-0.185
7.844,-0.210,-0.180
7.847,-0.210,-0.165
7.850,-0.190,-0.160
7.853,-0.185,-0.170
7.856,-0.175,-0.180
7.858,-0.190,-0.175
7.861,-0.200,-0.160
7.864,-0.200,-0.160
7.867,-0.195,-0.155
7.869,-0.175,-0.175
7.872,-0.170,-0.175
7.875,-0.180,-0.190
7.878,-0.180,-0.185
7.881,-0.190,-0.165
7.883,-0.175,-0.160
7.886,-0.170,-0.170
7.889,-0.165,-0.180
7.892,-0.190,-0.185
7.894,-0.185,-0.185
7.897,-0.195,-0.165
7.900,-0.185,-0.155
7.903,-0.170,-0.170
7.906,-0.165,-0.185
7.908,-0.175,-0.190
7.911,-0.190,-0.180
7.914,-0.200,-0.165
7.917,-0.190,-0.160
7.919,-0.170,-0.175
7.922,-0.165,-0.165
7.925,-0.175,-0.180
7.928,-0.170,-0.180
7.931,-0.180,-0.155
7.933,-0.180,-0.155
7.936,-0.155,-0.155
7.939,-0.160,-0.170
7.942,-0.170,-0.180
7.944,-0.190,-0.175
7.947,-0.180,-0.160
7.950,-0.175,-0.160
7.953,-0.170,-0.170
7.956,-0.160,-0.185
7.958,-0.175,-0.180
7.961,-0.175,-0.175
7.964,-0.200,-0.165
7.967,-0.180,-0.150
7.969,-0.160,-0.160
7.972,-0.175,-0.175
7.975,-0.175,-0.190
7.978,-0.190,-0.160
7.981,-0.190,-0.160
7.983,-0.175,-0.165
7.986,-0.155,-0.165
7.989,-0.150,-0.185
7.992,-0.170,-0.175
7.994,-0.175,-0.170
7.997,-0.190,-0.165
8.000,-0.175,-0.170
8.003,-0.180,-0.180
8.006,-0.175,-0.180
8.008,-0.185,-0.185
8.011,-0.195,-0.175
8.014,-0.200,-0.170
8.017,-0.195,-0.165
8.019,-0.175,-0.170
8.022,-0.190,-0.180
8.025,-0.190,-0.175
8.028,-0.205,-0.175
8.031,-0.200,-0.170
8.033,-0.180,-0.170
8.036,-0.170,-0.170
8.039,-0.175,-0.175
8.042,-0.175,-0.185
8.044,-0.185,-0.185
8.047,-0.205,-0.170
8.050,-0.190,-0.175
8.053,-0.170,-0.195
8.056,-0.165,-0.185
8.058,-0.175,-0.200
8.061,-0.185,-0.180
8.064,-0.200,-0.180
8.067,-0.180,-0.175
8.069,-0.175,-0.185
8.072,-0.175,-0.200
8.075,-0.185,-0.190
8.078,-0.195,-0.175
8.081,-0.190,-0.170
8.083,-0.185,-0.170
8.086,-0.180,-0.185
8.089,-0.185,-0.190
8.092,-0.190,-0.195
8.094,-0.195,-0.175
8.097,-0.195,-0.170
8.100,-0.190,-0.170
8.103,-0.170,-0.180
8.106,-0.175,-0.185
8.108,-0.170,-0.205
8.111,-0.185,-0.185
8.114,-0.200,-0.175
8.117,-0.170,-0.175
8.119,-0.170,-0.185
8.122,-0.160,-0.200
8.125,-0.195,-0.195
8.128,-0.185,-0.205
8.131,-0.190,-0.180
8.133,-0.185,-0.170
8.136,-0.175,-0.185
8.139,-0.170,-0.195
8.142,-0.185,-0.190
8.144,-0.180,-0.190
8.147,-0.185,-0.170
8.150,-0.180,-0.170
8.153,-0.170,-0.180
8.156,-0.155,-0.185
8.158,-0.170,-0.205
8.161,-0.180,-0.195
8.164,-0.180,-0.175
8.167,-0.165,-0.165
8.169,-0.175,-0.180
8.172,-0.165,-0.185
8.175,-0.165,-0.205
8.178,-0.180,-0.190
8.181,-0.185,-0.180
8.183,-0.190,-0.175
8.186,-0.175,-0.185
8.189,-0.175,-0.200
8.192,-0.185,-0.205
8.194,-0.180,-0.190
8.197,-0.190,-0.180
8.200,-0.175,-0.165
8.203,-0.180,-0.185
8.206,-0.180,-0.185
8.208,-0.170,-0.205
8.211,-0.185,-0.190
8.214,-0.180,-0.185
8.217,-0.170,-0.180
8.219,-0.155,-0.185
8.222,-0.155,-0.190
8.225,-0.165,-0.195
8.228,-0.165,-0.190
8.231,-0.170,-0.180
8.233,-0.165,-0.170
8.236,-0.155,-0.185
8.239,-0.155,-0.195
8.242,-0.175,-0.195
8.244,-0.190,-0.200
8.247,-0.185,-0.180
8.250,-0.175,-0.180
8.253,-0.170,-0.195
8.256,-0.170,-0.210
8.258,-0.175,-0.205
8.261,-0.180,-0.195
8.264,-0.175,-0.180
8.267,-0.170,-0.175
8.269,-0.160,-0.175
8.272,-0.165,-0.195
8.275,-0.170,-0.195
8.278,-0.175,-0.205
8.281,-0.170,-0.180
8.283,-0.160,-0.180
8.286,-0.155,-0.185
8.289,-0.165,-0.195
8.292,-0.180,-0.205
8.294,-0.190,-0.200
8.297,-0.190,-0.185
8.300,-0.185,-0.180
8.303,-0.180,-0.190
8.306,-0.170,-0.210
8.308,-0.170,-0.215
8.311,-0.195,-0.205
8.314,-0.190,-0.190
8.317,-0.170,-0.180
8.319,-0.170,-0.190
8.322,-0.165,-0.200
8.325,-0.180,-0.205
8.328,-0.195,-0.210
8.331,-0.180,-0.195
8.333,-0.170,-0.180
8.336,-0.155,-0.190
8.339,-0.160,-0.200
8.342,-0.170,-0.215
8.344,-0.170,-0.205
8.347,-0.180,-0.195
8.350,-0.160,-0.180
8.353,-0.160,-0.180
8.356,-0.175,-0.210
8.358,-0.175,-0.210
8.361,-0.190,-0.200
8.364,-0.190,-0.180
8.367,-0.190,-0.175
8.369,-0.175,-0.190
8.372,-0.175,-0.200
8.375,-0.185,-0.210
8.378,-0.185,-0.205
8.381,-0.180,-0.180
8.383,-0.170,-0.190
8.386,-0.165,-0.185
8.389,-0.165,-0.215
8.392,-0.170,-0.220
8.394,-0.170,-0.205
8.397,-0.165,-0.195
8.400,-0.165,-0.185
8.403,-0.155,-0.205
8.406,-0.145,-0.210
8.408,-0.160,-0.205
8.411,-0.195,-0.210
8.414,-0.190,-0.195
8.417,-0.175,-0.180
8.419,-0.160,-0.205
8.422,-0.165,-0.210
8.425,-0.170,-0.215
8.428,-0.175,-0.210
8.431,-0.175,-0.195
8.433,-0.170,-0.195
8.436,-0.155,-0.215
8.439,-0.165,-0.215
8.442,-0.170,-0.220
8.444,-0.165,-0.205
8.447,-0.180,-0.200
8.450,-0.160,-0.200
8.453,-0.145,-0.210
8.456,-0.145,-0.210
8.458,-0.160,-0.215
8.461,-0.165,-0.195
8.464,-0.185,-0.195
8.467,-0.180,-0.195
8.469,-0.175,-0.205
8.472,-0.165,-0.200
8.475,-0.155,-0.200
8.478,-0.185,-0.200
8.481,-0.185,-0.190
8.483,-0.175,-0.205
8.486,-0.155,-0.210
8.489,-0.160,-0.210
8.492,-0.185,-0.205
8.494,-0.195,-0.205
8.497,-0.185,-0.195
8.500,-0.165,-0.195
8.503,-0.155,-0.205
8.506,-0.150,-0.205
8.508,-0.160,-0.195
8.511,-0.185,-0.185
8.514,-0.170,-0.185
8.517,-0.155,-0.200
8.519,-0.155,-0.195
8.522,-0.170,-0.180
8.525,-0.175,-0.185
8.528,-0.180,-0.195
8.531,-0.180,-0.200
8.533,-0.170,-0.200
8.536,-0.160,-0.195
8.539,-0.160,-0.180
8.542,-0.165,-0.180
8.544,-0.175,-0.200
8.547,-0.200,-0.195
8.550,-0.160,-0.190
8.553,-0.155,-0.190
8.556,-0.150,-0.175
8.558,-0.155,-0.175
8.561,-0.160,-0.195
8.564,-0.150,-0.210
8.567,-0.130,-0.180
8.569,-0.125,-0.180
8.572,-0.120,-0.170
8.575,-0.130,-0.185
8.578,-0.135,-0.185
8.581,-0.140,-0.195
8.583,-0.130,-0.185
8.586,-0.105,-0.160
8.589,-0.105,-0.160
8.592,-0.130,-0.180
8.594,-0.165,-0.220
8.597,-0.195,-0.240
8.600,-0.200,-0.275
8.603,-0.180,-0.290
8.606,-0.160,-0.320
8.608,-0.170,-0.375
8.611,-0.135,-0.425
8.614,-0.055,-0.455
8.617,0.075,-0.435
8.619,0.200,-0.415
8.622,0.300,-0.395
8.625,0.340,-0.410
8.628,0.350,-0.410
8.631,0.375,-0.355
8.633,0.460,-0.215
8.636,0.590,0.035
8.639,0.715,0.355
8.642,0.750,0.605
8.644,0.725,0.725
8.647,0.660,0.795
8.650,0.610,0.860
8.653,0.565,0.930
8.656,0.480,0.965
8.658,0.330,0.955
8.661,0.145,0.915
8.664,-0.050,0.860
8.667,-0.175,0.790
8.669,-0.220,0.710
8.672,-0.240,0.620
8.675,-0.265,0.560
8.678,-0.305,0.560
8.681,-0.335,0.565
8.683,-0.365,0.580
8.686,-0.380,0.590
8.689,-0.380,0.625
8.692,-0.370,0.645
8.694,-0.340,0.675
8.697,-0.310,0.715
8.700,-0.260,0.750
8.703,-0.195,0.760
8.706,-0.155,0.735
8.708,-0.135,0.660
8.711,-0.155,0.585
8.714,-0.185,0.480
8.717,-0.200,0.390
8.719,-0.225,0.245
8.722,-0.235,0.105
8.725,-0.245,-0.010
8.728,-0.255,-0.080
8.731,-0.245,-0.105
8.733,-0.235,-0.120
8.736,-0.225,-0.125
8.739,-0.225,-0.175
8.742,-0.245,-0.190
8.744,-0.260,-0.215
8.747,-0.260,-0.200
8.750,-0.250,-0.185
8.753,-0.245,-0.185
8.756,-0.235,-0.205
8.758,-0.250,-0.235
8.761,-0.265,-0.255
8.764,-0.265,-0.230
8.767,-0.260,-0.200
8.769,-0.235,-0.210
8.772,-0.240,-0.220
8.775,-0.255,-0.240
8.778,-0.245,-0.265
8.781,-0.245,-0.250
8.783,-0.225,-0.210
8.786,-0.215,-0.210
8.789,-0.220,-0.225
8.792,-0.225,-0.250
8.794,-0.235,-0.255
8.797,-0.250,-0.250
8.800,-0.250,-0.225
8.803,-0.235,-0.210
8.806,-0.220,-0.235
8.808,-0.230,-0.265
8.811,-0.245,-0.265
8.814,-0.240,-0.245
8.817,-0.225,-0.220
8.819,-0.205,-0.220
8.822,-0.215,-0.230
8.825,-0.225,-0.250
8.828,-0.220,-0.255
8.831,-0.215,-0.245
8.833,-0.200,-0.215
8.836,-0.195,-0.225
8.839,-0.180,-0.230
8.842,-0.180,-0.245
8.844,-0.185,-0.245
8.847,-0.180,-0.225
8.850,-0.175,-0.200
8.853,-0.160,-0.200
8.856,-0.160,-0.205
8.858,-0.170,-0.225
8.861,-0.185,-0.240
8.864,-0.175,-0.220
8.867,-0.160,-0.190
8.869,-0.145,-0.185
8.872,-0.145,-0.200
8.875,-0.155,-0.200
8.878,-0.155,-0.210
8.881,-0.160,-0.205
8.883,-0.135,-0.160
8.886,-0.115,-0.160
8.889,-0.115,-0.165
8.892,-0.130,-0.180
8.894,-0.130,-0.195
8.897,-0.135,-0.175
8.900,-0.120,-0.135
8.903,-0.090,-0.125
8.906,-0.085,-0.135
8.908,-0.105,-0.145
8.911,-0.095,-0.155
8.914,-0.100,-0.145
8.917,-0.070,-0.120
8.919,-0.060,-0.100
8.922,-0.070,-0.090
8.925,-0.070,-0.120
8.928,-0.085,-0.115
8.931,-0.085,-0.100
8.933,-0.055,-0.070
8.936,-0.035,-0.060
8.939,-0.040,-0.065
8.942,-0.045,-0.075
8.944,-0.050,-0.080
8.947,-0.040,-0.070
8.950,-0.030,-0.040
8.953,-0.010,-0.025
8.956,-0.010,-0.030
8.958,0.000,-0.050
8.961,-0.010,-0.055
8.964,-0.020,-0.040
8.967,-0.005,-0.015
8.969,0.020,0.005
8.972,0.020,0.010
8.975,0.005,-0.010
8.978,0.005,-0.020
8.981,0.000,-0.005
8.983,0.010,0.010
8.986,0.035,0.035
8.989,0.040,0.040
8.992,0.035,0.010
8.994,0.035,0.010
8.997,0.030,0.015
9.000,0.050,0.040
9.003,0.055,0.060
9.006,0.065,0.050
9.008,0.060,0.045
9.011,0.050,0.025
9.014,0.065,0.040
9.017,0.075,0.070
9.019,0.100,0.090
9.022,0.075,0.080
9.025,0.085,0.055
9.028,0.085,0.045
9.031,0.080,0.060
9.033,0.090,0.095
9.036,0.100,0.105
9.039,0.095,0.110
9.042,0.080,0.100
9.044,0.075,0.085
9.047,0.070,0.090
9.050,0.090,0.120
9.053,0.105,0.130
9.056,0.095,0.140
9.058,0.075,0.115
9.061,0.080,0.115
9.064,0.070,0.125
9.067,0.090,0.165
9.069,0.110,0.180
9.072,0.100,0.165
9.075,0.090,0.135
9.078,0.080,0.150
9.081,0.075,0.170
9.083,0.080,0.185
9.086,0.090,0.225
9.089,0.075,0.195
9.092,0.060,0.185
9.094,0.050,0.195
9.097,0.050,0.215
9.100,0.055,0.245
9.103,0.060,0.265
9.106,0.070,0.245
9.108,0.060,0.245
9.111,0.050,0.230
9.114,0.055,0.250
9.117,0.060,0.290
9.119,0.060,0.300
9.122,0.075,0.295
9.125,0.060,0.275
9.128,0.060,0.260
9.131,0.055,0.280
9.133,0.060,0.310
9.136,0.090,0.315
9.139,0.090,0.310
9.142,0.070,0.285
9.144,0.035,0.285
9.147,0.055,0.310
9.150,0.070,0.320
9.153,0.085,0.330
9.156,0.090,0.315
9.158,0.075,0.290
9.161,0.060,0.290
9.164,0.075,0.300
9.167,0.085,0.330
9.169,0.105,0.345
9.172,0.105,0.315
9.175,0.100,0.295
9.178,0.090,0.285
9.181,0.100,0.285
9.183,0.105,0.320
9.186,0.130,0.330
9.189,0.130,0.310
9.192,0.130,0.290
9.194,0.120,0.275
9.197,0.120,0.295
9.200,0.145,0.325
9.203,0.155,0.325
9.206,0.160,0.305
9.208,0.145,0.280
9.211,0.150,0.295
9.214,0.155,0.310
9.217,0.170,0.330
9.219,0.190,0.320
9.222,0.195,0.300
9.225,0.195,0.280
9.228,0.185,0.295
9.231,0.190,0.315
9.233,0.220,0.335
9.236,0.225,0.320
9.239,0.245,0.300
9.242,0.215,0.265
9.244,0.205,0.255
9.247,0.200,0.260
9.250,0.190,0.265
9.253,0.185,0.250
9.256,0.175,0.210
9.258,0.150,0.160
9.261,0.145,0.140
9.264,0.135,0.130
9.267,0.155,0.105
9.269,0.160,0.085
9.272,0.150,0.055
9.275,0.130,0.055
9.278,0.085,0.070
9.281,0.050,0.090
9.283,0.020,0.100
9.286,0.005,0.065
9.289,-0.040,0.040
9.292,-0.080,0.010
9.294,-0.115,0.005
9.297,-0.150,0.015
9.300,-0.210,0.040
9.303,-0.310,0.065
9.306,-0.435,0.085
9.308,-0.555,0.085
9.311,-0.625,0.135
9.314,-0.675,0.170
9.317,-0.760,0.155
9.319,-0.880,0.090
9.322,-0.975,0.015
9.325,-1.030,-0.050
9.328,-1.050,-0.070
9.331,-1.040,-0.050
9.333,-1.025,-0.025
9.336,-0.995,-0.010
9.339,-0.940,-0.020
9.342,-0.870,-0.005
9.344,-0.795,0.040
9.347,-0.750,0.110
9.350,-0.730,0.135
9.353,-0.720,0.115
9.356,-0.720,0.060
9.358,-0.725,0.020
9.361,-0.745,-0.005
9.364,-0.765,-0.025
9.367,-0.795,-0.090
9.369,-0.805,-0.200
9.372,-0.830,-0.315
9.375,-0.855,-0.455
9.378,-0.860,-0.580
9.381,-0.865,-0.695
9.383,-0.870,-0.800
9.386,-0.855,-0.915
9.389,-0.850,-1.010
9.392,-0.865,-1.090
9.394,-0.875,-1.100
9.397,-0.870,-1.105
9.400,-0.865,-1.095
9.403,-0.855,-1.120
9.406,-0.855,-1.155
9.408,-0.865,-1.170
9.411,-0.865,-1.155
9.414,-0.875,-1.150
9.417,-0.860,-1.150
9.419,-0.850,-1.165
9.422,-0.850,-1.195
9.425,-0.875,-1.200
9.428,-0.890,-1.210
9.431,-0.885,-1.175
9.433,-0.875,-1.185
9.436,-0.850,-1.215
9.439,-0.845,-1.220
9.442,-0.880,-1.235
9.444,-0.875,-1.215
9.447,-0.860,-1.195
9.450,-0.850,-1.195
9.453,-0.840,-1.210
9.456,-0.820,-1.235
9.458,-0.830,-1.230
9.461,-0.830,-1.210
9.464,-0.820,-1.190
9.467,-0.805,-1.195
9.469,-0.800,-1.215
9.472,-0.800,-1.220
9.475,-0.795,-1.225
9.478,-0.805,-1.205
9.481,-0.810,-1.190
9.483,-0.805,-1.185
9.486,-0.785,-1.190
9.489,-0.770,-1.200
9.492,-0.780,-1.200
9.494,-0.790,-1.170
9.497,-0.775,-1.140
9.500,-0.755,-1.150
9.503,-0.725,-1.135
9.506,-0.715,-1.145
9.508,-0.735,-1.140
9.511,-0.730,-1.125
9.514,-0.715,-1.095
9.517,-0.700,-1.100
9.519,-0.680,-1.090
9.522,-0.665,-1.085
9.525,-0.660,-1.070
9.528,-0.670,-1.045
9.531,-0.665,-1.040
9.533,-0.645,-1.035
9.536,-0.620,-1.025
9.539,-0.620,-0.995
9.542,-0.615,-1.000
9.544,-0.620,-0.975
9.547,-0.605,-0.960
9.550,-0.600,-0.970
9.553,-0.570,-0.945
9.556,-0.575,-0.930
9.558,-0.565,-0.910
9.561,-0.565,-0.900
9.564,-0.555,-0.895
9.567,-0.540,-0.880
9.569,-0.520,-0.860
9.572,-0.510,-0.840
9.575,-0.500,-0.835
9.578,-0.500,-0.810
9.581,-0.485,-0.800
9.583,-0.475,-0.790
9.586,-0.455,-0.780
9.589,-0.455,-0.760
9.592,-0.450,-0.755
9.594,-0.460,-0.740
9.597,-0.460,-0.730
9.600,-0.435,-0.720
9.603,-0.415,-0.695
9.606,-0.410,-0.690
9.608,-0.405,-0.675
9.611,-0.400,-0.670
9.614,-0.390,-0.660
9.617,-0.370,-0.640
9.619,-0.350,-0.625
9.622,-0.340,-0.595
9.625,-0.340,-0.595
9.628,-0.330,-0.580
9.631,-0.320,-0.575
9.633,-0.295,-0.555
9.636,-0.270,-0.535
9.639,-0.260,-0.515
9.642,-0.275,-0.515
9.644,-0.280,-0.535
9.647,-0.270,-0.525
9.650,-0.260,-0.495
9.653,-0.245,-0.460
9.656,-0.225,-0.460
9.658,-0.225,-0.460
9.661,-0.225,-0.480
9.664,-0.215,-0.465
9.667,-0.205,-0.435
9.669,-0.180,-0.430
9.672,-0.185,-0.430
9.675,-0.195,-0.435
9.678,-0.200,-0.460
9.681,-0.185,-0.445
9.683,-0.175,-0.405
9.686,-0.150,-0.385
9.689,-0.160,-0.385
9.692,-0.155,-0.405
9.694,-0.165,-0.395
9.697,-0.165,-0.380
9.700,-0.150,-0.340
9.703,-0.140,-0.330
9.706,-0.130,-0.335
9.708,-0.150,-0.360
9.711,-0.160,-0.355
9.714,-0.175,-0.330
9.717,-0.165,-0.290
9.719,-0.145,-0.280
9.722,-0.150,-0.280
9.725,-0.165,-0.305
9.728,-0.170,-0.275
9.731,-0.150,-0.240
9.733,-0.145,-0.195
9.736,-0.115,-0.195
9.739,-0.115,-0.205
9.742,-0.140,-0.215
9.744,-0.150,-0.210
9.747,-0.140,-0.165
9.750,-0.135,-0.150
9.753,-0.130,-0.145
9.756,-0.135,-0.150
9.758,-0.160,-0.175
9.761,-0.160,-0.165
9.764,-0.155,-0.120
9.767,-0.130,-0.105
9.769,-0.135,-0.100
9.772,-0.140,-0.125
9.775,-0.140,-0.140
9.778,-0.145,-0.130
9.781,-0.150,-0.100
9.783,-0.135,-0.080
9.786,-0.120,-0.090
9.789,-0.125,-0.110
9.792,-0.135,-0.120
9.794,-0.135,-0.110
9.797,-0.130,-0.085
9.800,-0.120,-0.075
9.803,-0.110,-0.090
9.806,-0.110,-0.110
9.808,-0.120,-0.115
9.811,-0.140,-0.105
9.814,-0.145,-0.075
9.817,-0.140,-0.070
9.819,-0.135,-0.075
9.822,-0.120,-0.095
9.825,-0.140,-0.105
9.828,-0.155,-0.085
9.831,-0.145,-0.070
9.833,-0.145,-0.065
9.836,-0.105,-0.075
9.839,-0.115,-0.090
9.842,-0.130,-0.090
9.844,-0.135,-0.075
9.847,-0.130,-0.065
9.850,-0.110,-0.055
9.853,-0.105,-0.065
9.856,-0.110,-0.080
9.858,-0.120,-0.080
9.861,-0.130,-0.080
9.864,-0.125,-0.060
9.867,-0.130,-0.070
9.869,-0.120,-0.080
9.872,-0.130,-0.085
9.875,-0.125,-0.080
9.878,-0.140,-0.070
9.881,-0.130,-0.065
9.883,-0.140,-0.065
9.886,-0.115,-0.085
9.889,-0.110,-0.070
9.892,-0.125,-0.065
9.894,-0.145,-0.050
9.897,-0.130,-0.065
9.900,-0.115,-0.065
9.903,-0.100,-0.070
9.906,-0.100,-0.065
9.908,-0.110,-0.065
9.911,-0.115,-0.070
9.914,-0.120,-0.050
9.917,-0.110,-0.050
9.919,-0.100,-0.060
9.922,-0.120,-0.070
9.925,-0.120,-0.065
9.928,-0.130,-0.055
9.931,-0.125,-0.065
9.933,-0.110,-0.070
9.936,-0.100,-0.060
9.939,-0.095,-0.060
9.942,-0.110,-0.060
9.944,-0.135,-0.055
9.947,-0.130,-0.060
9.950,-0.115,-0.060
9.953,-0.110,-0.060
9.956,-0.100,-0.055
9.958,-0.110,-0.050
9.961,-0.110,-0.055
9.964,-0.105,-0.075
9.967,-0.100,-0.060
9.969,-0.080,-0.055
9.972,-0.085,-0.035
9.975,-0.105,-0.050
9.978,-0.120,-0.055
9.981,-0.135,-0.050
9.983,-0.105,-0.055
9.986,-0.100,-0.055
9.989,-0.115,-0.050
9.992,-0.100,-0.045
9.994,-0.125,-0.050
9.997,-0.120,-0.055
10.000,-0.105,-0.065
10.003,-0.095,-0.055
10.006,-0.095,-0.050
10.008,-0.105,-0.040
10.011,-0.110,-0.060
10.014,-0.100,-0.065
10.017,-0.090,-0.055
10.019,-0.075,-0.055
10.022,-0.080,-0.040
10.025,-0.095,-0.050
10.028,-0.105,-0.065
10.031,-0.105,-0.065
10.033,-0.095,-0.060
10.036,-0.085,-0.050
10.039,-0.095,-0.040
10.042,-0.100,-0.050
10.044,-0.120,-0.075
10.047,-0.115,-0.075
10.050,-0.095,-0.060
10.053,-0.095,-0.045
10.056,-0.105,-0.030
10.058,-0.110,-0.055
10.061,-0.125,-0.070
10.064,-0.115,-0.070
10.067,-0.095,-0.055
10.069,-0.075,-0.040
10.072,-0.075,-0.035
10.075,-0.100,-0.050
10.078,-0.095,-0.075
10.081,-0.095,-0.080
10.083,-0.085,-0.065
10.086,-0.075,-0.050
10.089,-0.090,-0.045
10.092,-0.105,-0.065
10.094,-0.110,-0.070
10.097,-0.110,-0.080
10.100,-0.095,-0.055
10.103,-0.085,-0.055
10.106,-0.090,-0.050
10.108,-0.105,-0.060
10.111,-0.115,-0.080
10.114,-0.110,-0.070
10.117,-0.085,-0.070
10.119,-0.100,-0.055
10.122,-0.095,-0.045
10.125,-0.085,-0.055
10.128,-0.095,-0.075
10.131,-0.090,-0.075
10.133,-0.075,-0.065
10.136,-0.070,-0.050
10.139,-0.075,-0.045
10.142,-0.095,-0.065
10.144,-0.100,-0.080
10.147,-0.095,-0.075
10.150,-0.095,-0.055
10.153,-0.090,-0.045
10.156,-0.090,-0.045
10.158,-0.100,-0.075
10.161,-0.110,-0.090
10.164,-0.105,-0.080
10.167,-0.100,-0.060
10.169,-0.080,-0.050
10.172,-0.090,-0.045
10.175,-0.085,-0.075
10.178,-0.100,-0.100
10.181,-0.095,-0.080
10.183,-0.080,-0.060
10.186,-0.075,-0.040
10.189,-0.080,-0.050
10.192,-0.085,-0.095
10.194,-0.100,-0.090
10.197,-0.090,-0.085
10.200,-0.090,-0.065
10.203,-0.080,-0.055
10.206,-0.085,-0.060
10.208,-0.100,-0.080
10.211,-0.105,-0.100
10.214,-0.110,-0.080
10.217,-0.095,-0.070
10.219,-0.090,-0.050
10.222,-0.095,-0.060
10.225,-0.110,-0.090
10.228,-0.115,-0.100
10.231,-0.120,-0.090
10.233,-0.110,-0.060
10.236,-0.090,-0.050
10.239,-0.080,-0.060
10.242,-0.095,-0.090
10.244,-0.105,-0.100
10.247,-0.105,-0.085
10.250,-0.095,-0.070
10.253,-0.090,-0.050
10.256,-0.100,-0.070
10.258,-0.105,-0.105
10.261,-0.120,-0.105
10.264,-0.125,-0.085
10.267,-0.100,-0.050
10.269,-0.095,-0.055
10.272,-0.120,-0.075
10.275,-0.110,-0.100
10.278,-0.120,-0.110
10.281,-0.115,-0.075
10.283,-0.110,-0.055
10.286,-0.095,-0.055
10.289,-0.100,-0.075
10.292,-0.110,-0.100
10.294,-0.110,-0.105
10.297,-0.110,-0.070
10.300,-0.095,-0.060
10.303,-0.085,-0.050
10.306,-0.095,-0.075
10.308,-0.105,-0.100
10.311,-0.110,-0.105
10.314,-0.120,-0.080
10.317,-0.110,-0.050
10.319,-0.090,-0.065
10.322,-0.090,-0.075
10.325,-0.110,-0.100
10.328,-0.115,-0.105
10.331,-0.105,-0.065
10.333,-0.115,-0.050
10.336,-0.095,-0.060
10.339,-0.100,-0.095
10.342,-0.115,-0.100
10.344,-0.115,-0.090
10.347,-0.110,-0.070
10.350,-0.090,-0.065
10.353,-0.090,-0.065
10.356,-0.090,-0.085
10.358,-0.105,-0.095
10.361,-0.110,-0.085
10.364,-0.115,-0.055
10.367,-0.095,-0.050
10.369,-0.100,-0.070
10.372,-0.100,-0.105
10.375,-0.110,-0.090
10.378,-0.110,-0.075
10.381,-0.115,-0.075
10.383,-0.115,-0.060
10.386,-0.105,-0.070
10.389,-0.095,-0.085
10.392,-0.105,-0.095
10.394,-0.105,-0.075
10.397,-0.105,-0.065
10.400,-0.095,-0.065
10.403,-0.085,-0.075
10.406,-0.085,-0.095
10.408,-0.100,-0.085
10.411,-0.110,-0.085
10.414,-0.105,-0.070
10.417,-0.105,-0.065
10.419,-0.100,-0.080
10.422,-0.095,-0.085
10.425,-0.125,-0.080
10.428,-0.130,-0.085
10.431,-0.120,-0.070
10.433,-0.125,-0.080
10.436,-0.110,-0.075
10.439,-0.105,-0.080
10.442,-0.115,-0.075
10.444,-0.125,-0.085
10.447,-0.115,-0.090
10.450,-0.115,-0.080
10.453,-0.095,-0.075
10.456,-0.095,-0.075
10.458,-0.105,-0.070
10.461,-0.125,-0.080
10.464,-0.110,-0.085
10.467,-0.110,-0.080
10.469,-0.100,-0.060
10.472,-0.110,-0.065
10.475,-0.120,-0.070
10.478,-0.125,-0.085
10.481,-0.135,-0.090
10.483,-0.120,-0.075
10.486,-0.090,-0.060
10.489,-0.105,-0.060
10.492,-0.115,-0.080
10.494,-0.125,-0.085
10.497,-0.120,-0.085
10.500,-0.100,-0.070
10.503,-0.100,-0.045
10.506,-0.100,-0.065
10.508,-0.110,-0.075
10.511,-0.115,-0.095
10.514,-0.115,-0.075
10.517,-0.095,-0.065
10.519,-0.090,-0.050
10.522,-0.105,-0.060
10.525,-0.125,-0.070
10.528,-0.130,-0.095
10.531,-0.125,-0.080
10.533,-0.095,-0.055
10.536,-0.100,-0.050
10.539,-0.105,-0.050
10.542,-0.120,-0.085
10.544,-0.120,-0.090
10.547,-0.110,-0.060
10.550,-0.100,-0.045
10.553,-0.105,-0.050
10.556,-0.115,-0.060
10.558,-0.110,-0.095
10.561,-0.110,-0.080
10.564,-0.105,-0.065
10.567,-0.085,-0.035
10.569,-0.080,-0.060
10.572,-0.095,-0.070
10.575,-0.110,-0.090
10.578,-0.115,-0.065
10.581,-0.105,-0.040
10.583,-0.105,-0.040
10.586,-0.100,-0.045
10.589,-0.105,-0.070
10.592,-0.110,-0.080
10.594,-0.125,-0.080
10.597,-0.115,-0.045
10.600,-0.100,-0.045
10.603,-0.095,-0.050
10.606,-0.100,-0.075
10.608,-0.110,-0.080
10.611,-0.130,-0.065
10.614,-0.110,-0.050
10.617,-0.100,-0.045
10.619,-0.080,-0.065
10.622,-0.090,-0.065
10.625,-0.100,-0.075
10.628,-0.110,-0.055
10.631,-0.115,-0.040
10.633,-0.100,-0.050
10.636,-0.095,-0.065
10.639,-0.100,-0.065
10.642,-0.100,-0.060
10.644,-0.115,-0.065
10.647,-0.120,-0.055
10.650,-0.110,-0.055
10.653,-0.090,-0.055
10.656,-0.100,-0.055
10.658,-0.115,-0.045
10.661,-0.120,-0.055
10.664,-0.105,-0.065
10.667,-0.095,-0.060
10.669,-0.095,-0.070
10.672,-0.125,-0.100
10.675,-0.150,-0.130
10.678,-0.160,-0.170
10.681,-0.150,-0.200
10.683,-0.140,-0.235
10.686,-0.105,-0.250
10.689,-0.050,-0.255
10.692,0.050,-0.275
10.694,0.170,-0.285
10.697,0.285,-0.255
10.700,0.365,-0.240
10.703,0.390,-0.220
10.706,0.425,-0.170
10.708,0.520,-0.040
10.711,0.660,0.245
10.714,0.765,0.645
10.717,0.785,0.895
10.719,0.750,0.985
10.722,0.660,0.990
10.725,0.585,1.025
10.728,0.460,1.070
10.731,0.300,1.110
10.733,0.090,1.050
10.736,-0.080,0.905
10.739,-0.155,0.755
10.742,-0.200,0.675
10.744,-0.225,0.670
10.747,-0.270,0.650
10.750,-0.310,0.675
10.753,-0.290,0.710
10.756,-0.230,0.790
10.758,-0.200,0.820
10.761,-0.155,0.825
10.764,-0.095,0.830
10.767,-0.055,0.830
10.769,-0.045,0.785
10.772,-0.075,0.660
10.775,-0.130,0.510
10.778,-0.175,0.345
10.781,-0.195,0.230
10.783,-0.195,0.160
10.786,-0.180,0.095
10.789,-0.170,0.035
10.792,-0.190,-0.015
10.794,-0.190,-0.040
10.797,-0.195,-0.045
10.800,-0.175,-0.025
10.803,-0.165,-0.035
10.806,-0.175,-0.060
10.808,-0.175,-0.095
10.811,-0.185,-0.095
10.814,-0.170,-0.075
10.817,-0.170,-0.050
10.819,-0.160,-0.070
10.822,-0.165,-0.080
10.825,-0.180,-0.105
10.828,-0.175,-0.100
10.831,-0.175,-0.070
10.833,-0.185,-0.050
10.836,-0.160,-0.070
10.839,-0.170,-0.095
10.842,-0.170,-0.110
10.844,-0.180,-0.095
10.847,-0.180,-0.085
10.850,-0.170,-0.070
10.853,-0.160,-0.095
10.856,-0.160,-0.100
10.858,-0.170,-0.110
10.861,-0.180,-0.095
10.864,-0.165,-0.080
10.867,-0.150,-0.070
10.869,-0.145,-0.090
10.872,-0.145,-0.095
10.875,-0.150,-0.095
10.878,-0.160,-0.080
10.881,-0.165,-0.075
10.883,-0.150,-0.080
10.886,-0.145,-0.085
10.889,-0.145,-0.090
10.892,-0.145,-0.080
10.894,-0.150,-0.070
10.897,-0.150,-0.060
10.900,-0.120,-0.060
10.903,-0.120,-0.070
10.906,-0.120,-0.070
10.908,-0.130,-0.065
10.911,-0.135,-0.065
10.914,-0.120,-0.050
10.917,-0.100,-0.060
10.919,-0.085,-0.060
10.922,-0.085,-0.040
10.925,-0.090,-0.040
10.928,-0.090,-0.045
10.931,-0.080,-0.020
10.933,-0.085,-0.030
10.936,-0.060,-0.015
10.939,-0.070,-0.005
10.942,-0.090,0.000
10.944,-0.090,-0.015
10.947,-0.080,-0.005
10.950,-0.060,0.015
10.953,-0.050,0.015
10.956,-0.045,0.025
10.958,-0.055,0.025
10.961,-0.055,0.020
10.964,-0.050,0.025
10.967,-0.025,0.050
10.969,-0.025,0.060
10.972,-0.020,0.065
10.975,-0.005,0.065
10.978,-0.025,0.065
10.981,-0.020,0.060
10.983,0.005,0.075
10.986,0.020,0.110
10.989,0.020,0.105
10.992,-0.005,0.105
10.994,-0.015,0.090
10.997,0.005,0.095
11.000,0.015,0.120
11.003,0.030,0.125
11.006,0.025,0.140
11.008,0.015,0.125
11.011,0.010,0.125
11.014,0.025,0.125
11.017,0.040,0.155
11.019,0.045,0.160
11.022,0.060,0.165
11.025,0.060,0.155
11.028,0.045,0.140
11.031,0.060,0.160
11.033,0.065,0.175
11.036,0.080,0.200
11.039,0.080,0.185
11.042,0.070,0.170
11.044,0.060,0.165
11.047,0.065,0.180
11.050,0.080,0.210
11.053,0.085,0.230
11.056,0.095,0.210
11.058,0.075,0.190
11.061,0.070,0.195
11.064,0.090,0.220
11.067,0.085,0.245
11.069,0.105,0.250
11.072,0.100,0.235
11.075,0.090,0.215
11.078,0.095,0.210
11.081,0.095,0.240
11.083,0.100,0.265
11.086,0.120,0.265
11.089,0.115,0.245
11.092,0.100,0.240
11.094,0.105,0.240
11.097,0.100,0.265
11.100,0.105,0.300
11.103,0.115,0.305
11.106,0.105,0.280
11.108,0.090,0.260
11.111,0.085,0.275
11.114,0.090,0.290
11.117,0.105,0.325
11.119,0.105,0.325
11.122,0.110,0.315
11.125,0.090,0.290
11.128,0.080,0.300
11.131,0.085,0.330
11.133,0.095,0.370
11.136,0.100,0.360
11.139,0.110,0.355
11.142,0.100,0.335
11.144,0.090,0.360
11.147,0.085,0.380
11.150,0.085,0.415
11.153,0.100,0.395
11.156,0.085,0.380
11.158,0.075,0.370
11.161,0.070,0.375
11.164,0.070,0.415
11.167,0.090,0.430
11.169,0.090,0.420
11.172,0.080,0.390
11.175,0.065,0.395
11.178,0.075,0.400
11.181,0.080,0.420
11.183,0.095,0.435
11.186,0.105,0.420
11.189,0.105,0.395
11.192,0.100,0.400
11.194,0.100,0.420
11.197,0.110,0.430
11.200,0.120,0.445
11.203,0.125,0.430
11.206,0.115,0.420
11.208,0.110,0.400
11.211,0.110,0.410
11.214,0.105,0.440
11.217,0.120,0.455
11.219,0.135,0.435
11.222,0.140,0.410
11.225,0.135,0.415
11.228,0.120,0.415
11.231,0.130,0.445
11.233,0.155,0.465
11.236,0.165,0.440
11.239,0.165,0.430
11.242,0.170,0.425
11.244,0.165,0.435
11.247,0.170,0.450
11.250,0.205,0.470
11.253,0.205,0.460
11.256,0.200,0.435
11.258,0.190,0.435
11.261,0.195,0.460
11.264,0.220,0.465
11.267,0.240,0.475
11.269,0.240,0.475
11.272,0.235,0.445
11.275,0.245,0.435
11.278,0.235,0.450
11.281,0.240,0.450
11.283,0.220,0.445
11.286,0.210,0.415
11.289,0.185,0.380
11.292,0.160,0.365
11.294,0.155,0.365
11.297,0.160,0.375
11.300,0.140,0.350
11.303,0.155,0.315
11.306,0.135,0.270
11.308,0.115,0.275
11.311,0.105,0.275
11.314,0.100,0.285
11.317,0.095,0.280
11.319,0.065,0.255
11.322,0.035,0.235
11.325,0.015,0.230
11.328,0.000,0.245
11.331,-0.020,0.245
11.333,-0.035,0.250
11.336,-0.105,0.230
11.339,-0.225,0.215
11.342,-0.320,0.240
11.344,-0.385,0.305
11.347,-0.455,0.380
11.350,-0.545,0.410
11.353,-0.655,0.400
11.356,-0.770,0.315
11.358,-0.865,0.260
11.361,-0.925,0.205
11.364,-0.980,0.170
11.367,-0.995,0.140
11.369,-1.010,0.090
11.372,-0.990,0.060
11.375,-0.990,0.085
11.378,-0.950,0.120
11.381,-0.880,0.175
11.383,-0.815,0.215
11.386,-0.770,0.220
11.389,-0.755,0.210
11.392,-0.735,0.210
11.394,-0.735,0.220
11.397,-0.735,0.205
11.400,-0.740,0.185
11.403,-0.735,0.130
11.406,-0.760,0.060
11.408,-0.785,-0.020
11.411,-0.805,-0.090
11.414,-0.810,-0.190
11.417,-0.800,-0.320
11.419,-0.805,-0.485
11.422,-0.815,-0.645
11.425,-0.830,-0.770
11.428,-0.820,-0.830
11.431,-0.805,-0.865
11.433,-0.795,-0.890
11.436,-0.805,-0.930
11.439,-0.810,-0.965
11.442,-0.825,-0.985
11.444,-0.830,-0.995
11.447,-0.835,-0.970
11.450,-0.830,-0.975
11.453,-0.810,-0.990
11.456,-0.815,-1.015
11.458,-0.820,-1.030
11.461,-0.830,-1.040
11.464,-0.815,-1.020
11.467,-0.810,-1.005
11.469,-0.810,-1.015
11.472,-0.810,-1.035
11.475,-0.820,-1.065
11.478,-0.840,-1.065
11.481,-0.820,-1.040
11.483,-0.800,-1.025
11.486,-0.800,-1.025
11.489,-0.795,-1.060
11.492,-0.800,-1.080
11.494,-0.820,-1.080
11.497,-0.815,-1.050
11.500,-0.795,-1.035
11.503,-0.775,-1.040
11.506,-0.780,-1.060
11.508,-0.790,-1.080
11.511,-0.795,-1.085
11.514,-0.780,-1.050
11.517,-0.750,-1.025
11.519,-0.755,-1.030
11.522,-0.740,-1.045
11.525,-0.745,-1.055
11.528,-0.745,-1.050
11.531,-0.720,-1.025
11.533,-0.710,-1.000
11.536,-0.695,-1.000
11.539,-0.690,-1.010
11.542,-0.685,-1.030
11.544,-0.705,-1.025
11.547,-0.685,-0.990
11.550,-0.685,-0.950
11.553,-0.670,-0.950
11.556,-0.670,-0.965
11.558,-0.685,-0.975
11.561,-0.665,-0.970
11.564,-0.660,-0.950
11.567,-0.640,-0.905
11.569,-0.640,-0.895
11.572,-0.625,-0.905
11.575,-0.615,-0.915
11.578,-0.620,-0.915
11.581,-0.615,-0.885
11.583,-0.605,-0.850
11.586,-0.580,-0.825
11.589,-0.575,-0.845
11.592,-0.580,-0.845
11.594,-0.585,-0.845
11.597,-0.560,-0.820
11.600,-0.540,-0.790
11.603,-0.515,-0.770
11.606,-0.505,-0.770
11.608,-0.535,-0.780
11.611,-0.525,-0.775
11.614,-0.525,-0.770
11.617,-0.510,-0.730
11.619,-0.495,-0.710
11.622,-0.485,-0.705
11.625,-0.490,-0.700
11.628,-0.485,-0.695
11.631,-0.470,-0.690
11.633,-0.465,-0.655
11.636,-0.435,-0.650
11.639,-0.435,-0.620
11.642,-0.425,-0.625
11.644,-0.435,-0.630
11.647,-0.415,-0.610
11.650,-0.400,-0.580
11.653,-0.380,-0.570
11.656,-0.375,-0.550
11.658,-0.370,-0.550
11.661,-0.375,-0.545
11.664,-0.355,-0.535
11.667,-0.330,-0.515
11.669,-0.325,-0.495
11.672,-0.325,-0.475
11.675,-0.330,-0.480
11.678,-0.325,-0.475
11.681,-0.305,-0.465
11.683,-0.295,-0.440
11.686,-0.270,-0.425
11.689,-0.280,-0.410
11.692,-0.285,-0.400
11.694,-0.275,-0.400
11.697,-0.260,-0.400
11.700,-0.245,-0.370
11.703,-0.240,-0.355
11.706,-0.235,-0.340
11.708,-0.240,-0.345
11.711,-0.230,-0.355
11.714,-0.220,-0.350
11.717,-0.180,-0.325
11.719,-0.185,-0.305
11.722,-0.160,-0.295
11.725,-0.155,-0.300
11.728,-0.155,-0.310
11.731,-0.150,-0.305
11.733,-0.135,-0.285
11.736,-0.135,-0.280
11.739,-0.145,-0.275
11.742,-0.160,-0.270
11.744,-0.165,-0.270
11.747,-0.150,-0.260
11.750,-0.135,-0.250
11.753,-0.125,-0.240
11.756,-0.130,-0.230
11.758,-0.125,-0.230
11.761,-0.135,-0.220
11.764,-0.130,-0.210
11.767,-0.120,-0.210
11.769,-0.100,-0.205
11.772,-0.115,-0.210
11.775,-0.120,-0.185
11.778,-0.130,-0.190
11.781,-0.120,-0.175
11.783,-0.115,-0.165
11.786,-0.110,-0.175
11.789,-0.125,-0.150
11.792,-0.140,-0.150
11.794,-0.140,-0.115
11.797,-0.135,-0.105
11.800,-0.125,-0.090
11.803,-0.125,-0.085
11.806,-0.110,-0.085
11.808,-0.130,-0.085
11.811,-0.130,-0.050
11.814,-0.140,-0.030
11.817,-0.125,-0.015
11.819,-0.115,-0.030
11.822,-0.125,-0.040
11.825,-0.130,-0.030
11.828,-0.125,-0.015
11.831,-0.125,0.015
11.833,-0.105,0.010
11.836,-0.105,0.020
11.839,-0.105,-0.005
11.842,-0.110,0.005
11.844,-0.130,0.025
11.847,-0.130,0.040
11.850,-0.110,0.055
11.853,-0.105,0.035
11.856,-0.115,0.020
11.858,-0.125,0.025
11.861,-0.130,0.040
11.864,-0.130,0.065
11.867,-0.110,0.070
11.869,-0.110,0.045
11.872,-0.115,0.035
11.875,-0.125,0.035
11.878,-0.130,0.050
11.881,-0.120,0.080
11.883,-0.120,0.080
11.886,-0.110,0.070
11.889,-0.110,0.045
11.892,-0.115,0.040
11.894,-0.115,0.030
11.897,-0.110,0.065
11.900,-0.105,0.090
11.903,-0.105,0.075
11.906,-0.105,0.050
11.908,-0.115,0.045
11.911,-0.120,0.040
11.914,-0.120,0.065
11.917,-0.115,0.080
11.919,-0.110,0.075
11.922,-0.115,0.065
11.925,-0.130,0.050
11.928,-0.135,0.050
11.931,-0.110,0.060
11.933,-0.115,0.105
11.936,-0.110,0.090
11.939,-0.125,0.075
11.942,-0.120,0.050
11.944,-0.120,0.045
11.947,-0.115,0.060
11.950,-0.105,0.085
11.953,-0.095,0.080
11.956,-0.110,0.075
11.958,-0.100,0.060
11.961,-0.100,0.050
11.964,-0.100,0.065
11.967,-0.085,0.100
11.969,-0.095,0.090
11.972,-0.090,0.080
11.975,-0.105,0.070
11.978,-0.120,0.045
11.981,-0.115,0.070
11.983,-0.095,0.090
11.986,-0.110,0.095
11.989,-0.100,0.090
11.992,-0.100,0.070
11.994,-0.115,0.050
11.997,-0.110,0.075
12.000,-0.100,0.085
12.003,-0.095,0.095
12.006,-0.100,0.090
12.008,-0.090,0.065
12.011,-0.100,0.055
12.014,-0.090,0.060
12.017,-0.090,0.070
12.019,-0.070,0.085
12.022,-0.075,0.090
12.025,-0.090,0.075
12.028,-0.105,0.080
12.031,-0.090,0.060
12.033,-0.090,0.070
12.036,-0.085,0.080
12.039,-0.090,0.080
12.042,-0.110,0.080
12.044,-0.105,0.065
12.047,-0.100,0.075
12.050,-0.095,0.070
12.053,-0.095,0.070
12.056,-0.075,0.075
12.058,-0.090,0.070
12.061,-0.095,0.065
12.064,-0.095,0.065
12.067,-0.090,0.075
12.069,-0.075,0.075
12.072,-0.080,0.075
12.075,-0.080,0.075
12.078,-0.085,0.070
12.081,-0.085,0.065
12.083,-0.075,0.060
12.086,-0.070,0.075
12.089,-0.075,0.065
12.092,-0.085,0.075
12.094,-0.095,0.080
12.097,-0.095,0.075
12.100,-0.080,0.070
12.103,-0.080,0.065
12.106,-0.085,0.070
12.108,-0.085,0.065
12.111,-0.095,0.070
12.114,-0.095,0.095
12.117,-0.085,0.080
12.119,-0.075,0.070
12.122,-0.080,0.060
12.125,-0.090,0.055
12.128,-0.090,0.065
12.131,-0.095,0.090
12.133,-0.075,0.095
12.136,-0.070,0.070
12.139,-0.075,0.055
12.142,-0.085,0.045
12.144,-0.085,0.055
12.147,-0.085,0.075
12.150,-0.070,0.095
12.153,-0.070,0.075
12.156,-0.090,0.050
12.158,-0.100,0.035
12.161,-0.095,0.060
12.164,-0.080,0.065
12.167,-0.075,0.085
12.169,-0.085,0.085
12.172,-0.090,0.060
12.175,-0.090,0.040
12.178,-0.090,0.050
12.181,-0.085,0.075
12.183,-0.070,0.100
12.186,-0.070,0.080
12.189,-0.075,0.070
12.192,-0.090,0.045
12.194,-0.090,0.045
12.197,-0.075,0.075
12.200,-0.065,0.090
12.203,-0.065,0.090
12.206,-0.070,0.070
12.208,-0.090,0.055
12.211,-0.100,0.045
12.214,-0.080,0.055
12.217,-0.075,0.085
12.219,-0.070,0.080
12.222,-0.080,0.075
12.225,-0.095,0.040
12.228,-0.095,0.045
12.231,-0.090,0.045
12.233,-0.095,0.070
12.236,-0.085,0.085
12.239,-0.080,0.070
12.242,-0.090,0.050
12.244,-0.105,0.040
12.247,-0.090,0.045
12.250,-0.080,0.055
12.253,-0.075,0.065
12.256,-0.080,0.075
12.258,-0.075,0.050
12.261,-0.085,0.035
12.264,-0.085,0.045
12.267,-0.070,0.055
12.269,-0.070,0.065
12.272,-0.070,0.075
12.275,-0.080,0.045
12.278,-0.095,0.045
12.281,-0.090,0.040
12.283,-0.085,0.045
12.286,-0.080,0.060
12.289,-0.080,0.055
12.292,-0.100,0.050
12.294,-0.105,0.040
12.297,-0.085,0.030
12.300,-0.080,0.040
12.303,-0.075,0.050
12.306,-0.080,0.050
12.308,-0.115,0.050
12.311,-0.100,0.050
12.314,-0.085,0.040
12.317,-0.070,0.040
12.319,-0.065,0.045
12.322,-0.070,0.050
12.325,-0.085,0.040
12.328,-0.085,0.055
12.331,-0.080,0.055
12.333,-0.065,0.050
12.336,-0.070,0.055
12.339,-0.070,0.045
12.342,-0.095,0.035
12.344,-0.090,0.050
12.347,-0.080,0.045
12.350,-0.080,0.050
12.353,-0.070,0.030
12.356,-0.080,0.030
12.358,-0.095,0.035
12.361,-0.090,0.055
12.364,-0.090,0.050
12.367,-0.080,0.060
12.369,-0.080,0.045
12.372,-0.080,0.025
12.375,-0.085,0.035
12.378,-0.095,0.040
12.381,-0.105,0.060
12.383,-0.065,0.050
12.386,-0.060,0.040
12.389,-0.070,0.025
12.392,-0.085,0.035
12.394,-0.085,0.045
12.397,-0.075,0.055
12.400,-0.075,0.040
12.403,-0.065,0.030
12.406,-0.095,0.020
12.408,-0.095,0.035
12.411,-0.100,0.030
12.414,-0.095,0.055
12.417,-0.070,0.050
12.419,-0.070,0.045
12.422,-0.085,0.020
12.425,-0.080,0.025
12.428,-0.095,0.030
12.431,-0.090,0.045
12.433,-0.065,0.070
12.436,-0.065,0.050
12.439,-0.070,0.035
12.442,-0.075,0.010
12.444,-0.090,0.025
12.447,-0.075,0.055
12.450,-0.065,0.070
12.453,-0.070,0.055
12.456,-0.075,0.030
12.458,-0.095,0.010
12.461,-0.105,0.025
12.464,-0.090,0.050
12.467,-0.085,0.065
12.469,-0.080,0.060
12.472,-0.085,0.040
12.475,-0.095,0.015
12.478,-0.095,0.030
12.481,-0.085,0.055
12.483,-0.085,0.075
12.486,-0.080,0.065
12.489,-0.100,0.035
12.492,-0.095,0.010
12.494,-0.095,0.015
12.497,-0.090,0.045
12.500,-0.080,0.065
12.503,-0.075,0.050
12.506,-0.070,0.035
12.508,-0.095,0.015
12.511,-0.100,0.030
12.514,-0.090,0.040
12.517,-0.080,0.060
12.519,-0.085,0.050
12.522,-0.090,0.040
12.525,-0.090,0.015
12.528,-0.095,0.025
12.531,-0.090,0.035
12.533,-0.080,0.065
12.536,-0.095,0.070
12.539,-0.085,0.035
12.542,-0.095,0.010
12.544,-0.095,0.015
12.547,-0.090,0.035
12.550,-0.075,0.065
12.553,-0.065,0.060
12.556,-0.075,0.035
12.558,-0.090,0.025
12.561,-0.085,0.010
12.564,-0.075,0.030
12.567,-0.070,0.050
12.569,-0.070,0.065
12.572,-0.070,0.040
12.575,-0.085,0.005
12.578,-0.090,0.005
12.581,-0.100,0.030
12.583,-0.080,0.050
12.586,-0.080,0.050
12.589,-0.090,0.035
12.592,-0.110,0.030
12.594,-0.095,0.015
12.597,-0.085,0.025
12.600,-0.075,0.040
12.603,-0.060,0.060
12.606,-0.065,0.050
12.608,-0.080,0.020
12.611,-0.080,0.025
12.614,-0.075,0.025
12.617,-0.060,0.045
12.619,-0.050,0.050
12.622,-0.060,0.040
12.625,-0.090,0.020
12.628,-0.085,0.015
12.631,-0.080,0.020
12.633,-0.070,0.045
12.636,-0.065,0.055
12.639,-0.075,0.045
12.642,-0.085,0.020
12.644,-0.085,0.020
12.647,-0.080,0.025
12.650,-0.070,0.045
12.653,-0.060,0.045
12.656,-0.080,0.040
12.658,-0.090,0.025
12.661,-0.085,0.025
12.664,-0.075,0.030
12.667,-0.075,0.050
12.669,-0.065,0.045
12.672,-0.065,0.050
12.675,-0.060,0.030
12.678,-0.085,0.025
12.681,-0.070,0.025
12.683,-0.060,0.040
12.686,-0.065,0.050
12.689,-0.080,0.050
12.692,-0.085,0.030
12.694,-0.090,0.025
12.697,-0.075,0.025
12.700,-0.075,0.055
12.703,-0.070,0.060
12.706,-0.080,0.050
12.708,-0.100,0.040
12.711,-0.095,0.025
12.714,-0.080,0.025
12.717,-0.070,0.045
12.719,-0.075,0.055
12.722,-0.080,0.050
12.725,-0.075,0.035
12.728,-0.075,0.015
12.731,-0.065,0.025
12.733,-0.070,0.040
12.736,-0.060,0.055
12.739,-0.065,0.045
12.742,-0.075,0.035
12.744,-0.085,0.020
12.747,-0.085,0.035
12.750,-0.060,0.055
12.753,-0.070,0.060
12.756,-0.085,0.045
12.758,-0.080,0.030
12.761,-0.085,0.020
12.764,-0.080,0.025
12.767,-0.065,0.050
12.769,-0.065,0.055
12.772,-0.060,0.060
12.775,-0.080,0.030
12.778,-0.090,0.040
12.781,-0.075,0.040
12.783,-0.060,0.050
12.786,-0.055,0.065
12.789,-0.055,0.055
12.792,-0.070,0.025
12.794,-0.070,0.030
12.797,-0.060,0.040
12.800,-0.035,0.045
12.803,-0.045,0.065
12.806,-0.055,0.055
12.808,-0.075,0.045
12.811,-0.090,0.040
12.814,-0.070,0.040
12.817,-0.050,0.055
12.819,-0.055,0.065
12.822,-0.055,0.060
12.825,-0.075,0.050
12.828,-0.070,0.025
12.831,-0.075,0.015
12.833,-0.095,0.010
12.836,-0.100,-0.005
12.839,-0.110,-0.035
12.842,-0.115,-0.085
12.844,-0.100,-0.120
12.847,-0.075,-0.150
12.850,-0.010,-0.160
12.853,0.070,-0.165
12.856,0.160,-0.155
12.858,0.255,-0.150
12.861,0.330,-0.160
12.864,0.395,-0.145
12.867,0.425,-0.125
12.869,0.445,-0.075
12.872,0.540,0.025
12.875,0.670,0.230
12.878,0.770,0.540
12.881,0.820,0.820
12.883,0.805,0.980
12.886,0.745,1.040
12.889,0.680,1.060
12.892,0.610,1.075
12.894,0.550,1.115
12.897,0.465,1.140
12.900,0.345,1.155
12.903,0.175,1.145
12.906,0.020,1.065
12.908,-0.060,0.950
12.911,-0.105,0.850
12.914,-0.135,0.780
12.917,-0.150,0.745
12.919,-0.170,0.745
12.922,-0.200,0.740
12.925,-0.250,0.705
12.928,-0.275,0.715
12.931,-0.250,0.755
12.933,-0.205,0.805
12.936,-0.160,0.855
12.939,-0.135,0.875
12.942,-0.110,0.880
12.944,-0.075,0.890
12.947,-0.030,0.885
12.950,0.000,0.885
12.953,-0.005,0.840
12.956,-0.050,0.755
12.958,-0.075,0.655
12.961,-0.110,0.535
12.964,-0.110,0.405
12.967,-0.120,0.310
12.969,-0.125,0.215
12.972,-0.130,0.150
12.975,-0.130,0.120
12.978,-0.170,0.080
12.981,-0.150,0.055
12.983,-0.130,0.045
12.986,-0.140,0.045
12.989,-0.135,0.030
12.992,-0.160,0.015
12.994,-0.150,0.010
12.997,-0.145,0.005
13.000,-0.140,0.000
13.003,-0.135,0.015
13.006,-0.140,0.010
13.008,-0.150,0.005
13.011,-0.155,0.000
13.014,-0.145,-0.010
13.017,-0.140,-0.005
13.019,-0.135,-0.005
13.022,-0.130,0.000
13.025,-0.145,-0.010
13.028,-0.135,-0.015
13.031,-0.130,-0.015
13.033,-0.125,-0.015
13.036,-0.125,-0.005
13.039,-0.125,-0.010
13.042,-0.150,-0.020
13.044,-0.155,-0.005
13.047,-0.135,-0.010
13.050,-0.135,-0.015
13.053,-0.125,-0.015
13.056,-0.130,-0.005
13.058,-0.145,-0.015
13.061,-0.150,0.000
13.064,-0.125,-0.015
13.067,-0.115,-0.010
13.069,-0.105,-0.005
13.072,-0.105,-0.005
13.075,-0.135,-0.010
13.078,-0.130,-0.015
13.081,-0.105,-0.010
13.083,-0.095,-0.015
13.086,-0.090,0.000
13.089,-0.090,0.000
13.092,-0.095,-0.005
13.094,-0.095,0.000
13.097,-0.100,0.000
13.100,-0.080,0.000
13.103,-0.085,0.005
13.106,-0.080,0.000
13.108,-0.085,0.000
13.111,-0.095,0.020
13.114,-0.075,0.025
13.117,-0.060,0.025
13.119,-0.070,0.015
13.122,-0.065,0.025
13.125,-0.075,0.030
13.128,-0.065,0.030
13.131,-0.060,0.035
13.133,-0.025,0.050
13.136,-0.035,0.035
13.139,-0.030,0.035
13.142,-0.040,0.045
13.144,-0.025,0.050
13.147,-0.015,0.060
13.150,-0.015,0.060
13.153,-0.015,0.060
13.156,-0.015,0.070
13.158,-0.015,0.070
13.161,-0.010,0.085
13.164,-0.005,0.090
13.167,0.010,0.100
13.169,0.015,0.100
13.172,0.020,0.100
13.175,0.005,0.105
13.178,0.000,0.130
13.181,0.020,0.130
13.183,0.020,0.135
13.186,0.045,0.120
13.189,0.040,0.135
13.192,0.050,0.135
13.194,0.045,0.160
13.197,0.055,0.155
13.200,0.070,0.150
13.203,0.065,0.165
13.206,0.065,0.155
13.208,0.055,0.165
13.211,0.055,0.180
13.214,0.065,0.195
13.217,0.070,0.195
13.219,0.080,0.180
13.222,0.060,0.180
13.225,0.085,0.185
13.228,0.065,0.200
13.231,0.090,0.225
13.233,0.100,0.215
13.236,0.105,0.205
13.239,0.105,0.185
13.242,0.085,0.195
13.244,0.095,0.225
13.247,0.110,0.245
13.250,0.125,0.250
13.253,0.135,0.235
13.256,0.135,0.230
13.258,0.135,0.220
13.261,0.130,0.240
13.264,0.135,0.260
13.267,0.135,0.265
13.269,0.130,0.255
13.272,0.120,0.250
13.275,0.120,0.255
13.278,0.115,0.270
13.281,0.135,0.285
13.283,0.145,0.290
13.286,0.145,0.275
13.289,0.135,0.270
13.292,0.135,0.265
13.294,0.130,0.280
13.297,0.130,0.310
13.300,0.140,0.305
13.303,0.150,0.295
13.306,0.140,0.290
13.308,0.120,0.290
13.311,0.135,0.315
13.314,0.140,0.335
13.317,0.155,0.330
13.319,0.140,0.325
13.322,0.140,0.310
13.325,0.130,0.315
13.328,0.125,0.345
13.331,0.120,0.345
13.333,0.125,0.365
13.336,0.130,0.350
13.339,0.120,0.340
13.342,0.100,0.340
13.344,0.085,0.365
13.347,0.095,0.395
13.350,0.095,0.395
13.353,0.115,0.385
13.356,0.100,0.370
13.358,0.100,0.370
13.361,0.105,0.410
13.364,0.110,0.420
13.367,0.130,0.425
13.369,0.135,0.410
13.372,0.125,0.390
13.375,0.110,0.395
13.378,0.090,0.410
13.381,0.100,0.435
13.383,0.120,0.440
13.386,0.120,0.435
13.389,0.105,0.405
13.392,0.105,0.400
13.394,0.105,0.420
13.397,0.110,0.450
13.400,0.120,0.450
13.403,0.120,0.430
13.406,0.120,0.420
13.408,0.095,0.400
13.411,0.105,0.415
13.414,0.125,0.440
13.417,0.150,0.450
13.419,0.145,0.435
13.422,0.140,0.420
13.425,0.145,0.395
13.428,0.135,0.410
13.431,0.165,0.440
13.433,0.170,0.465
13.436,0.185,0.445
13.439,0.180,0.415
13.442,0.185,0.400
13.444,0.180,0.420
13.447,0.190,0.445
13.450,0.195,0.465
13.453,0.175,0.445
13.456,0.185,0.425
13.458,0.190,0.400
13.461,0.200,0.410
13.464,0.200,0.440
13.467,0.215,0.455
13.469,0.215,0.470
13.472,0.220,0.430
13.475,0.215,0.425
13.478,0.215,0.425
13.481,0.240,0.440
13.483,0.250,0.470
13.486,0.260,0.470
13.489,0.265,0.450
13.492,0.255,0.420
13.494,0.250,0.425
13.497,0.245,0.435
13.500,0.240,0.445
13.503,0.225,0.425
13.506,0.200,0.385
13.508,0.170,0.360
13.511,0.165,0.350
13.514,0.155,0.355
13.517,0.150,0.340
13.519,0.140,0.310
13.522,0.130,0.270
13.525,0.105,0.240
13.528,0.100,0.245
13.531,0.080,0.265
13.533,0.060,0.260
13.536,0.050,0.250
13.539,0.040,0.220
13.542,0.020,0.200
13.544,0.025,0.205
13.547,0.020,0.230
13.550,-0.015,0.240
13.553,-0.100,0.245
13.556,-0.210,0.240
13.558,-0.285,0.270
13.561,-0.375,0.345
13.564,-0.445,0.400
13.567,-0.505,0.455
13.569,-0.620,0.455
13.572,-0.730,0.400
13.575,-0.830,0.315
13.578,-0.910,0.265
13.581,-0.960,0.225
13.583,-0.970,0.195
13.586,-0.975,0.160
13.589,-0.950,0.130
13.592,-0.925,0.125
13.594,-0.895,0.140
13.597,-0.820,0.160
13.600,-0.760,0.205
13.603,-0.710,0.215
13.606,-0.700,0.205
13.608,-0.700,0.175
13.611,-0.700,0.185
13.614,-0.690,0.180
13.617,-0.710,0.170
13.619,-0.725,0.105
13.622,-0.765,0.005
13.625,-0.800,-0.080
13.628,-0.810,-0.165
13.631,-0.805,-0.255
13.633,-0.810,-0.360
13.636,-0.820,-0.495
13.639,-0.825,-0.645
13.642,-0.840,-0.760
13.644,-0.840,-0.825
13.647,-0.830,-0.870
13.650,-0.810,-0.875
13.653,-0.805,-0.920
13.656,-0.815,-0.945
13.658,-0.820,-0.975
13.661,-0.820,-0.980
13.664,-0.815,-0.970
13.667,-0.830,-0.950
13.669,-0.825,-0.960
13.672,-0.830,-1.005
13.675,-0.840,-1.030
13.678,-0.850,-1.015
13.681,-0.840,-1.005
13.683,-0.820,-1.010
13.686,-0.820,-1.020
13.689,-0.820,-1.040
13.692,-0.825,-1.070
13.694,-0.825,-1.050
13.697,-0.815,-1.030
13.700,-0.805,-1.020
13.703,-0.800,-1.050
13.706,-0.800,-1.065
13.708,-0.805,-1.075
13.711,-0.795,-1.045
13.714,-0.795,-1.040
13.717,-0.780,-1.030
13.719,-0.770,-1.050
13.722,-0.785,-1.075
13.725,-0.795,-1.065
13.728,-0.800,-1.055
13.731,-0.780,-1.030
13.733,-0.775,-1.025
13.736,-0.760,-1.045
13.739,-0.760,-1.055
13.742,-0.760,-1.050
13.744,-0.770,-1.025
13.747,-0.740,-1.005
13.750,-0.725,-0.995
13.753,-0.720,-1.000
13.756,-0.715,-1.015
13.758,-0.715,-0.995
13.761,-0.720,-0.970
13.764,-0.690,-0.955
13.767,-0.670,-0.960
13.769,-0.670,-0.965
13.772,-0.665,-0.970
13.775,-0.670,-0.945
13.778,-0.675,-0.930
13.781,-0.655,-0.905
13.783,-0.640,-0.895
13.786,-0.625,-0.905
13.789,-0.615,-0.905
13.792,-0.635,-0.885
13.794,-0.625,-0.850
13.797,-0.605,-0.845
13.800,-0.585,-0.830
13.803,-0.580,-0.825
13.806,-0.570,-0.820
13.808,-0.580,-0.800
13.811,-0.570,-0.780
13.814,-0.555,-0.765
13.817,-0.540,-0.760
13.819,-0.525,-0.760
13.822,-0.520,-0.745
13.825,-0.520,-0.730
13.828,-0.515,-0.725
13.831,-0.495,-0.715
13.833,-0.475,-0.705
13.836,-0.465,-0.690
13.839,-0.465,-0.680
13.842,-0.485,-0.660
13.844,-0.480,-0.650
13.847,-0.455,-0.645
13.850,-0.435,-0.640
13.853,-0.430,-0.625
13.856,-0.425,-0.600
13.858,-0.420,-0.590
13.861,-0.420,-0.580
13.864,-0.400,-0.585
13.867,-0.365,-0.550
13.869,-0.365,-0.530
13.872,-0.350,-0.525
13.875,-0.350,-0.515
13.878,-0.350,-0.510
13.881,-0.330,-0.490
13.883,-0.310,-0.465
13.886,-0.295,-0.450
13.889,-0.295,-0.445
13.892,-0.305,-0.455
13.894,-0.290,-0.445
13.897,-0.280,-0.425
13.900,-0.270,-0.395
13.903,-0.270,-0.380
13.906,-0.285,-0.385
13.908,-0.285,-0.395
13.911,-0.265,-0.385
13.914,-0.255,-0.355
13.917,-0.230,-0.340
13.919,-0.220,-0.330
13.922,-0.205,-0.345
13.925,-0.200,-0.340
13.928,-0.185,-0.355
13.931,-0.180,-0.325
13.933,-0.155,-0.300
13.936,-0.150,-0.290
13.939,-0.160,-0.295
13.942,-0.175,-0.315
13.944,-0.185,-0.300
13.947,-0.180,-0.285
13.950,-0.160,-0.250
13.953,-0.155,-0.245
13.956,-0.150,-0.250
13.958,-0.160,-0.260
13.961,-0.175,-0.245
13.964,-0.145,-0.235
13.967,-0.135,-0.200
13.969,-0.135,-0.190
13.972,-0.145,-0.205
13.975,-0.155,-0.210
13.978,-0.160,-0.210
13.981,-0.150,-0.180
13.983,-0.135,-0.160
13.986,-0.125,-0.130
13.989,-0.135,-0.145
13.992,-0.135,-0.145
13.994,-0.150,-0.130
13.997,-0.135,-0.100
14.000,-0.125,-0.065
14.003,-0.130,-0.050
14.006,-0.145,-0.065
14.008,-0.160,-0.070
14.011,-0.165,-0.075
14.014,-0.145,-0.035
14.017,-0.140,-0.015
14.019,-0.130,-0.010
14.022,-0.145,-0.025
14.025,-0.150,-0.040
14.028,-0.145,-0.025
14.031,-0.135,0.010
14.033,-0.120,0.025
14.036,-0.115,0.025
14.039,-0.115,-0.010
14.042,-0.130,-0.020
14.044,-0.125,0.000
14.047,-0.115,0.015
14.050,-0.115,0.030
14.053,-0.115,0.035
14.056,-0.135,0.005
14.058,-0.160,0.000
14.061,-0.155,0.020
14.064,-0.160,0.030
14.067,-0.140,0.050
14.069,-0.125,0.050
14.072,-0.140,0.025
14.075,-0.145,0.010
14.078,-0.150,0.020
14.081,-0.130,0.040
14.083,-0.125,0.070
14.086,-0.120,0.055
14.089,-0.135,0.035
14.092,-0.135,0.015
14.094,-0.135,0.025
14.097,-0.120,0.045
14.100,-0.115,0.065
14.103,-0.100,0.050
14.106,-0.125,0.030
14.108,-0.125,0.020
14.111,-0.135,0.035
14.114,-0.115,0.055
14.117,-0.110,0.075
14.119,-0.120,0.065
14.122,-0.115,0.020
14.125,-0.145,0.035
14.128,-0.140,0.040
14.131,-0.115,0.065
14.133,-0.105,0.085
14.136,-0.115,0.070
14.139,-0.120,0.045
14.142,-0.125,0.030
14.144,-0.125,0.040
14.147,-0.115,0.075
14.150,-0.110,0.085
14.153,-0.115,0.070
14.156,-0.120,0.040
14.158,-0.105,0.035
14.161,-0.120,0.045
14.164,-0.115,0.070
14.167,-0.100,0.085
14.169,-0.100,0.065
14.172,-0.120,0.045
14.175,-0.125,0.035
14.178,-0.130,0.040
14.181,-0.120,0.060
14.183,-0.125,0.080
14.186,-0.095,0.075
14.189,-0.100,0.055
14.192,-0.110,0.030
14.194,-0.120,0.040
14.197,-0.105,0.070
14.200,-0.090,0.080
14.203,-0.090,0.080
14.206,-0.100,0.050
14.208,-0.100,0.045
14.211,-0.110,0.045
14.214,-0.090,0.055
14.217,-0.080,0.085
14.219,-0.085,0.080
14.222,-0.095,0.060
14.225,-0.110,0.040
14.228,-0.110,0.050
14.231,-0.100,0.075
14.233,-0.090,0.080
14.236,-0.090,0.090
14.239,-0.105,0.070
14.242,-0.095,0.040
14.244,-0.105,0.055
14.247,-0.100,0.065
14.250,-0.095,0.085
14.253,-0.085,0.090
14.256,-0.100,0.070
14.258,-0.095,0.050
14.261,-0.110,0.050
14.264,-0.090,0.065
14.267,-0.080,0.075
14.269,-0.075,0.095
14.272,-0.100,0.075
14.275,-0.100,0.050
14.278,-0.120,0.030
14.281,-0.100,0.055
14.283,-0.080,0.085
14.286,-0.085,0.095
14.289,-0.095,0.075
14.292,-0.105,0.055
14.294,-0.115,0.045
14.297,-0.100,0.050
14.300,-0.080,0.080
14.303,-0.080,0.075
14.306,-0.085,0.070
14.308,-0.095,0.055
14.311,-0.095,0.035
14.314,-0.090,0.040
14.317,-0.075,0.075
14.319,-0.080,0.070
14.322,-0.105,0.075
14.325,-0.090,0.050
14.328,-0.090,0.040
14.331,-0.075,0.050
14.333,-0.055,0.075
14.336,-0.055,0.070
14.339,-0.070,0.065
14.342,-0.075,0.040
14.344,-0.090,0.035
14.347,-0.080,0.050
14.350,-0.070,0.060
14.353,-0.085,0.070
14.356,-0.075,0.065
14.358,-0.095,0.045
14.361,-0.100,0.035
14.364,-0.095,0.045
14.367,-0.085,0.050
14.369,-0.070,0.070
14.372,-0.085,0.055
14.375,-0.090,0.045
14.378,-0.105,0.030
14.381,-0.090,0.050
14.383,-0.075,0.065
14.386,-0.065,0.075
14.389,-0.075,0.055
14.392,-0.080,0.035
14.394,-0.080,0.030
14.397,-0.080,0.040
14.400,-0.065,0.055
14.403,-0.075,0.070
14.406,-0.080,0.055
14.408,-0.095,0.035
14.411,-0.085,0.025
14.414,-0.080,0.050
14.417,-0.075,0.050
14.419,-0.070,0.070
14.422,-0.090,0.055
14.425,-0.080,0.050
14.428,-0.085,0.030
14.431,-0.080,0.035
14.433,-0.060,0.055
14.436,-0.070,0.065
14.439,-0.080,0.055
14.442,-0.085,0.035
14.444,-0.080,0.030
14.447,-0.080,0.035
14.450,-0.055,0.035
14.453,-0.055,0.065
14.456,-0.070,0.050
14.458,-0.080,0.045
14.461,-0.100,0.030
14.464,-0.080,0.040
14.467,-0.070,0.050
14.469,-0.075,0.050
14.472,-0.090,0.040
14.475,-0.095,0.035
14.478,-0.110,0.025
14.481,-0.095,0.020
14.483,-0.070,0.040
14.486,-0.065,0.050
14.489,-0.085,0.045
14.492,-0.090,0.045
14.494,-0.100,0.035
14.497,-0.075,0.030
14.500,-0.065,0.050
14.503,-0.065,0.055
14.506,-0.075,0.040
14.508,-0.075,0.025
14.511,-0.080,0.025
14.514,-0.085,0.030
14.517,-0.070,0.050
14.519,-0.070,0.040
14.522,-0.085,0.040
14.525,-0.100,0.015
14.528,-0.095,0.010
14.531,-0.090,0.035
14.533,-0.080,0.055
14.536,-0.080,0.060
14.539,-0.085,0.030
14.542,-0.090,0.005
14.544,-0.105,0.010
14.547,-0.090,0.030
14.550,-0.085,0.055
14.553,-0.075,0.050
14.556,-0.090,0.020
14.558,-0.090,0.015
14.561,-0.100,0.005
14.564,-0.085,0.040
14.567,-0.060,0.040
14.569,-0.065,0.040
14.572,-0.090,0.030
14.575,-0.085,0.005
14.578,-0.100,0.010
14.581,-0.085,0.030
14.583,-0.060,0.045
14.586,-0.070,0.045
14.589,-0.080,0.025
14.592,-0.090,0.010
14.594,-0.095,0.015
14.597,-0.075,0.040
14.600,-0.070,0.050
14.603,-0.070,0.055
14.606,-0.070,0.025
14.608,-0.085,0.000
14.611,-0.075,0.005
14.614,-0.070,0.030
14.617,-0.070,0.045
14.619,-0.055,0.035
14.622,-0.075,0.015
14.625,-0.075,-0.010
14.628,-0.100,0.015
14.631,-0.085,0.035
14.633,-0.070,0.040
14.636,-0.080,0.020
14.639,-0.090,0.005
14.642,-0.090,-0.010
14.644,-0.085,0.010
14.647,-0.085,0.035
14.650,-0.070,0.035
14.653,-0.075,0.025
14.656,-0.100,0.005
14.658,-0.085,-0.010
14.661,-0.090,0.015
14.664,-0.075,0.030
14.667,-0.070,0.050
14.669,-0.065,0.025
14.672,-0.060,0.000
14.675,-0.065,-0.005
14.678,-0.080,0.005
14.681,-0.060,0.035
14.683,-0.060,0.025
14.686,-0.070,0.010
14.689,-0.080,-0.010
14.692,-0.085,0.000
14.694,-0.110,0.025
14.697,-0.080,0.030
14.700,-0.065,0.040
14.703,-0.080,0.010
14.706,-0.090,0.005
14.708,-0.080,0.000
14.711,-0.095,0.025
14.714,-0.090,0.035
14.717,-0.065,0.025
14.719,-0.065,0.005
14.722,-0.065,-0.010
14.725,-0.070,0.000
14.728,-0.075,0.025
14.731,-0.060,0.020
14.733,-0.055,0.035
14.736,-0.060,0.000
14.739,-0.075,0.005
14.742,-0.075,0.010
14.744,-0.090,0.020
14.747,-0.075,0.025
14.750,-0.065,0.010
14.753,-0.060,0.000
14.756,-0.075,-0.010
14.758,-0.085,0.005
14.761,-0.090,0.020
14.764,-0.075,0.025
14.767,-0.060,0.015
14.769,-0.065,0.000
14.772,-0.080,-0.010
14.775,-0.070,-0.005
14.778,-0.070,0.020
14.781,-0.060,0.035
14.783,-0.040,0.020
14.786,-0.050,-0.005
14.789,-0.065,-0.005
14.792,-0.070,0.000
14.794,-0.075,0.015
14.797,-0.065,0.025
14.800,-0.065,0.020
14.803,-0.060,0.005
14.806,-0.060,0.000
14.808,-0.090,0.010
14.811,-0.080,0.015
14.814,-0.070,0.025
14.817,-0.055,0.020
14.819,-0.050,-0.010
14.822,-0.065,-0.005
14.825,-0.065,0.005
14.828,-0.070,0.020
14.831,-0.065,0.025
14.833,-0.045,0.020
14.836,-0.045,0.000
14.839,-0.050,0.000
14.842,-0.050,0.010
14.844,-0.055,0.015
14.847,-0.050,0.015
14.850,-0.040,0.010
14.853,-0.055,-0.005
14.856,-0.055,-0.005
14.858,-0.075,0.000
14.861,-0.075,0.020
14.864,-0.070,0.015
14.867,-0.075,0.005
14.869,-0.070,-0.005
14.872,-0.075,-0.010
14.875,-0.075,0.000
14.878,-0.075,0.015
14.881,-0.070,0.020
14.883,-0.055,0.000
14.886,-0.055,0.005
14.889,-0.060,-0.010
14.892,-0.085,0.000
14.894,-0.075,0.005
14.897,-0.060,0.015
14.900,-0.050,-0.010
14.903,-0.050,-0.010
14.906,-0.065,-0.010
14.908,-0.075,0.000
14.911,-0.080,0.015
14.914,-0.085,0.005
14.917,-0.065,0.000
14.919,-0.060,0.000
14.922,-0.080,-0.005
14.925,-0.090,0.000
14.928,-0.090,0.010
14.931,-0.065,0.000
14.933,-0.050,-0.005
14.936,-0.060,0.000
14.939,-0.065,-0.010
14.942,-0.065,-0.010
14.944,-0.075,0.005
14.947,-0.065,0.005
14.950,-0.055,0.000
14.953,-0.045,-0.010
14.956,-0.050,-0.010
14.958,-0.055,-0.010
14.961,-0.080,0.015
14.964,-0.070,0.010
14.967,-0.040,-0.005
14.969,-0.055,-0.005
14.972,-0.070,-0.030
14.975,-0.080,-0.020
14.978,-0.110,-0.035
14.981,-0.115,-0.050
14.983,-0.095,-0.090
14.986,-0.085,-0.130
14.989,-0.090,-0.170
14.992,-0.090,-0.180
14.994,-0.050,-0.195
14.997,0.065,-0.200
15.000,0.180,-0.200
15.003,0.285,-0.225
15.006,0.350,-0.215
15.008,0.385,-0.215
15.011,0.410,-0.185
15.014,0.475,-0.130
15.017,0.595,0.000
15.019,0.745,0.265
15.022,0.805,0.575
15.025,0.800,0.820
15.028,0.755,0.930
15.031,0.705,0.975
15.033,0.660,0.995
15.036,0.595,1.050
15.039,0.485,1.095
15.042,0.350,1.110
15.044,0.175,1.095
15.047,0.025,1.005
15.050,-0.060,0.915
15.053,-0.100,0.815
15.056,-0.140,0.735
15.058,-0.160,0.705
15.061,-0.190,0.700
15.064,-0.215,0.690
15.067,-0.235,0.670
15.069,-0.250,0.670
15.072,-0.235,0.715
15.075,-0.215,0.770
15.078,-0.195,0.815
15.081,-0.140,0.840
15.083,-0.090,0.845
15.086,-0.045,0.850
15.089,-0.020,0.840
15.092,-0.025,0.815
15.094,-0.045,0.745
15.097,-0.065,0.625
15.100,-0.095,0.515
15.103,-0.110,0.380
15.106,-0.130,0.260
15.108,-0.155,0.170
15.111,-0.160,0.130
15.114,-0.120,0.070
15.117,-0.110,0.040
15.119,-0.100,0.015
15.122,-0.120,0.010
15.125,-0.130,0.000
15.128,-0.145,-0.010
15.131,-0.130,-0.025
15.133,-0.115,-0.035
15.136,-0.125,-0.030
15.139,-0.145,-0.025
15.142,-0.145,-0.035
15.144,-0.140,-0.030
15.147,-0.135,-0.045
15.150,-0.125,-0.050
15.153,-0.125,-0.040
15.156,-0.135,-0.045
15.158,-0.160,-0.050
15.161,-0.160,-0.060
15.164,-0.135,-0.060
15.167,-0.130,-0.050
15.169,-0.120,-0.060
15.172,-0.125,-0.055
15.175,-0.125,-0.060
15.178,-0.145,-0.055
15.181,-0.125,-0.060
15.183,-0.115,-0.060
15.186,-0.120,-0.050
15.189,-0.120,-0.050
15.192,-0.140,-0.070
15.194,-0.145,-0.055
15.197,-0.135,-0.060
15.200,-0.120,-0.055
15.203,-0.110,-0.050
15.206,-0.110,-0.050
15.208,-0.130,-0.055
15.211,-0.140,-0.055
15.214,-0.115,-0.060
15.217,-0.095,-0.055
15.219,-0.090,-0.040
15.222,-0.100,-0.030
15.225,-0.110,-0.050
15.228,-0.110,-0.050
15.231,-0.090,-0.040
15.233,-0.075,-0.030
15.236,-0.075,-0.025
15.239,-0.090,-0.025
15.242,-0.080,-0.045
15.244,-0.085,-0.045
15.247,-0.080,-0.050
15.250,-0.065,-0.030
15.253,-0.055,-0.020
15.256,-0.060,-0.020
15.258,-0.075,-0.020
15.261,-0.075,-0.020
15.264,-0.065,-0.020
15.267,-0.040,-0.005
15.269,-0.030,0.010
15.272,-0.055,0.005
15.275,-0.040,0.000
15.278,-0.045,0.000
15.281,-0.040,0.005
15.283,-0.015,0.020
15.286,-0.015,0.040
15.289,-0.010,0.030
15.292,-0.020,0.020
15.294,-0.020,0.025
15.297,-0.015,0.035
15.300,0.005,0.050
15.303,0.020,0.070
15.306,0.000,0.050
15.308,-0.005,0.070
15.311,-0.010,0.055
15.314,0.010,0.070
15.317,0.025,0.090
15.319,0.030,0.100
15.322,0.020,0.095
15.325,0.015,0.085
15.328,0.030,0.085
15.331,0.050,0.110
15.333,0.060,0.135
15.336,0.065,0.135
15.339,0.050,0.130
15.342,0.055,0.115
15.344,0.060,0.125
15.347,0.075,0.150
15.350,0.100,0.165
15.353,0.085,0.165
15.356,0.090,0.155
15.358,0.080,0.140
15.361,0.075,0.145
15.364,0.085,0.180
15.367,0.100,0.190
15.369,0.095,0.195
15.372,0.095,0.185
15.375,0.095,0.155
15.378,0.085,0.170
15.381,0.100,0.190
15.383,0.115,0.220
15.386,0.120,0.215
15.389,0.095,0.190
15.392,0.085,0.185
15.394,0.100,0.195
15.397,0.120,0.225
15.400,0.140,0.235
15.403,0.135,0.235
15.406,0.135,0.220
15.408,0.115,0.195
15.411,0.105,0.220
15.414,0.135,0.245
15.417,0.125,0.255
15.419,0.130,0.245
15.422,0.120,0.230
15.425,0.100,0.210
15.428,0.110,0.235
15.431,0.120,0.260
15.433,0.125,0.290
15.436,0.120,0.270
15.439,0.110,0.245
15.442,0.095,0.255
15.444,0.100,0.275
15.447,0.120,0.300
15.450,0.120,0.315
15.453,0.125,0.305
15.456,0.120,0.275
15.458,0.110,0.280
15.461,0.110,0.305
15.464,0.110,0.335
15.467,0.125,0.345
15.469,0.115,0.325
15.472,0.100,0.310
15.475,0.085,0.315
15.478,0.075,0.350
15.481,0.095,0.365
15.483,0.115,0.365
15.486,0.100,0.350
15.489,0.095,0.340
15.492,0.095,0.340
15.494,0.090,0.365
15.497,0.110,0.390
15.500,0.120,0.380
15.503,0.115,0.370
15.506,0.110,0.350
15.508,0.105,0.370
15.511,0.105,0.385
15.514,0.115,0.405
15.517,0.125,0.390
15.519,0.130,0.375
15.522,0.120,0.365
15.525,0.100,0.375
15.528,0.100,0.390
15.531,0.125,0.390
15.533,0.130,0.380
15.536,0.135,0.375
15.539,0.135,0.375
15.542,0.140,0.380
15.544,0.135,0.400
15.547,0.160,0.395
15.550,0.170,0.385
15.553,0.170,0.395
15.556,0.175,0.400
15.558,0.165,0.410
15.561,0.165,0.415
15.564,0.185,0.405
15.567,0.200,0.395
15.569,0.195,0.415
15.572,0.205,0.415
15.575,0.190,0.425
15.578,0.200,0.415
15.581,0.220,0.420
15.583,0.230,0.415
15.586,0.225,0.425
15.589,0.215,0.435
15.592,0.220,0.430
15.594,0.220,0.425
15.597,0.240,0.435
15.600,0.260,0.450
15.603,0.255,0.450
15.606,0.260,0.440
15.608,0.245,0.425
15.611,0.225,0.415
15.614,0.225,0.400
15.617,0.220,0.400
15.619,0.205,0.395
15.622,0.185,0.385
15.625,0.145,0.340
15.628,0.140,0.290
15.631,0.130,0.265
15.633,0.140,0.255
15.636,0.125,0.260
15.639,0.080,0.245
15.642,0.055,0.215
15.644,0.035,0.205
15.647,0.060,0.220
15.650,0.075,0.250
15.653,0.060,0.255
15.656,0.040,0.235
15.658,-0.010,0.230
15.661,-0.090,0.260
15.664,-0.170,0.315
15.667,-0.235,0.400
15.669,-0.315,0.445
15.672,-0.395,0.465
15.675,-0.505,0.450
15.678,-0.625,0.435
15.681,-0.715,0.415
15.683,-0.785,0.375
15.686,-0.845,0.305
15.689,-0.875,0.235
15.692,-0.865,0.175
15.694,-0.855,0.190
15.697,-0.830,0.190
15.700,-0.790,0.170
15.703,-0.745,0.130
15.706,-0.700,0.115
15.708,-0.670,0.140
15.711,-0.640,0.170
15.714,-0.615,0.180
15.717,-0.610,0.165
15.719,-0.640,0.115
15.722,-0.675,0.035
15.725,-0.705,-0.055
15.728,-0.745,-0.155
15.731,-0.750,-0.250
15.733,-0.760,-0.405
15.736,-0.775,-0.580
15.739,-0.800,-0.720
15.742,-0.835,-0.820
15.744,-0.830,-0.875
15.747,-0.825,-0.910
15.750,-0.820,-0.975
15.753,-0.820,-1.010
15.756,-0.825,-1.030
15.758,-0.830,-1.035
15.761,-0.830,-1.040
15.764,-0.825,-1.040
15.767,-0.805,-1.045
15.769,-0.815,-1.085
15.772,-0.825,-1.085
15.775,-0.825,-1.075
15.778,-0.830,-1.065
15.781,-0.810,-1.070
15.783,-0.795,-1.080
15.786,-0.790,-1.105
15.789,-0.815,-1.120
15.792,-0.815,-1.110
15.794,-0.815,-1.090
15.797,-0.810,-1.100
15.800,-0.800,-1.110
15.803,-0.795,-1.130
15.806,-0.800,-1.135
15.808,-0.810,-1.115
15.811,-0.800,-1.115
15.814,-0.790,-1.100
15.817,-0.775,-1.120
15.819,-0.775,-1.135
15.822,-0.775,-1.115
15.825,-0.775,-1.115
15.828,-0.775,-1.100
15.831,-0.755,-1.100
15.833,-0.730,-1.105
15.836,-0.720,-1.125
15.839,-0.730,-1.110
15.842,-0.755,-1.095
15.844,-0.760,-1.085
15.847,-0.725,-1.085
15.850,-0.715,-1.085
15.853,-0.710,-1.075
15.856,-0.710,-1.070
15.858,-0.715,-1.050
15.861,-0.725,-1.045
15.864,-0.690,-1.030
15.867,-0.680,-1.035
15.869,-0.665,-1.015
15.872,-0.660,-1.015
15.875,-0.680,-0.995
15.878,-0.670,-0.985
15.881,-0.650,-0.985
15.883,-0.635,-0.975
15.886,-0.630,-0.955
15.889,-0.630,-0.945
15.892,-0.625,-0.930
15.894,-0.625,-0.935
15.897,-0.600,-0.900
15.900,-0.575,-0.900
15.903,-0.570,-0.890
15.906,-0.600,-0.875
15.908,-0.585,-0.860
15.911,-0.580,-0.855
15.914,-0.565,-0.840
15.917,-0.545,-0.830
15.919,-0.540,-0.805
15.922,-0.535,-0.800
15.925,-0.540,-0.800
15.928,-0.515,-0.790
15.931,-0.515,-0.770
15.933,-0.480,-0.755
15.936,-0.485,-0.745
15.939,-0.490,-0.720
15.942,-0.480,-0.725
15.944,-0.460,-0.715
15.947,-0.445,-0.700
15.950,-0.415,-0.680
15.953,-0.415,-0.670
15.956,-0.430,-0.655
15.958,-0.425,-0.655
15.961,-0.420,-0.665
15.964,-0.400,-0.630
15.967,-0.380,-0.610
15.969,-0.380,-0.605
15.972,-0.375,-0.595
15.975,-0.375,-0.585
15.978,-0.375,-0.570
15.981,-0.350,-0.575
15.983,-0.325,-0.545
15.986,-0.310,-0.525
15.989,-0.315,-0.520
15.992,-0.320,-0.520
15.994,-0.315,-0.515
15.997,-0.300,-0.495
16.000,-0.280,-0.475
16.003,-0.275,-0.465
16.006,-0.290,-0.460
16.008,-0.290,-0.460
16.011,-0.265,-0.440
16.014,-0.240,-0.440
16.017,-0.215,-0.420
16.019,-0.220,-0.410
16.022,-0.220,-0.415
16.025,-0.215,-0.420
16.028,-0.215,-0.400
16.031,-0.195,-0.385
16.033,-0.185,-0.380
16.036,-0.175,-0.365
16.039,-0.190,-0.375
16.042,-0.205,-0.370
16.044,-0.205,-0.370
16.047,-0.185,-0.350
16.050,-0.160,-0.320
16.053,-0.160,-0.315
16.056,-0.145,-0.310
16.058,-0.160,-0.305
16.061,-0.165,-0.310
16.064,-0.145,-0.295
16.067,-0.135,-0.275
16.069,-0.130,-0.270
16.072,-0.155,-0.270
16.075,-0.175,-0.270
16.078,-0.170,-0.265
16.081,-0.160,-0.255
16.083,-0.145,-0.225
16.086,-0.150,-0.210
16.089,-0.155,-0.200
16.092,-0.165,-0.200
16.094,-0.155,-0.175
16.097,-0.145,-0.165
16.100,-0.125,-0.140
16.103,-0.140,-0.140
16.106,-0.150,-0.120
16.108,-0.160,-0.130
16.111,-0.150,-0.125
16.114,-0.140,-0.105
16.117,-0.115,-0.080
16.119,-0.110,-0.070
16.122,-0.125,-0.065
16.125,-0.130,-0.065
16.128,-0.125,-0.070
16.131,-0.120,-0.055
16.133,-0.120,-0.045
16.136,-0.125,-0.025
16.139,-0.125,-0.040
16.142,-0.140,-0.055
16.144,-0.130,-0.040
16.147,-0.120,-0.030
16.150,-0.115,-0.020
16.153,-0.115,-0.015
16.156,-0.130,-0.010
16.158,-0.130,-0.030
16.161,-0.130,-0.030
16.164,-0.120,-0.025
16.167,-0.115,-0.005
16.169,-0.090,0.005
16.172,-0.110,-0.015
16.175,-0.105,-0.015
16.178,-0.110,-0.025
16.181,-0.090,-0.010
16.183,-0.085,0.000
16.186,-0.085,0.005
16.189,-0.105,-0.005
16.192,-0.115,-0.010
16.194,-0.125,-0.015
16.197,-0.110,-0.005
16.200,-0.090,0.015
16.203,-0.100,0.020
16.206,-0.120,0.000
16.208,-0.135,-0.005
16.211,-0.120,-0.010
16.214,-0.110,0.010
16.217,-0.100,0.025
16.219,-0.110,0.025
16.222,-0.105,0.000
16.225,-0.115,-0.015
16.228,-0.110,-0.015
16.231,-0.100,0.015
16.233,-0.085,0.035
16.236,-0.085,0.030
16.239,-0.100,0.010
16.242,-0.120,-0.005
16.244,-0.120,-0.005
16.247,-0.100,0.025
16.250,-0.080,0.020
16.253,-0.105,0.030
16.256,-0.110,0.005
16.258,-0.120,0.000
16.261,-0.110,0.010
16.264,-0.100,0.020
16.267,-0.090,0.030
16.269,-0.095,0.025
16.272,-0.105,0.010
16.275,-0.105,0.005
16.278,-0.105,0.005
16.281,-0.095,0.015
16.283,-0.075,0.020
16.286,-0.080,0.030
16.289,-0.085,0.020
16.292,-0.090,0.005
16.294,-0.090,0.005
16.297,-0.085,0.020
16.300,-0.085,0.040
16.303,-0.085,0.030
16.306,-0.085,0.015
16.308,-0.095,-0.005
16.311,-0.105,0.005
16.314,-0.095,0.035
16.317,-0.065,0.030
16.319,-0.080,0.035
16.322,-0.085,0.015
16.325,-0.090,0.000
16.328,-0.105,0.000
16.331,-0.090,0.045
16.333,-0.080,0.045
16.336,-0.075,0.025
16.339,-0.080,0.010
16.342,-0.095,0.000
16.344,-0.080,0.015
16.347,-0.070,0.045
16.350,-0.055,0.055
16.353,-0.070,0.035
16.356,-0.075,-0.005
16.358,-0.085,-0.005
16.361,-0.100,0.010
16.364,-0.100,0.050
16.367,-0.075,0.055
16.369,-0.085,0.040
16.372,-0.085,0.010
16.375,-0.100,-0.005
16.378,-0.100,0.025
16.381,-0.080,0.045
16.383,-0.070,0.045
16.386,-0.075,0.025
16.389,-0.080,0.005
16.392,-0.095,0.010
16.394,-0.095,0.030
16.397,-0.080,0.045
16.400,-0.065,0.050
16.403,-0.070,0.025
16.406,-0.080,0.010
16.408,-0.090,0.025
16.411,-0.090,0.040
16.414,-0.075,0.065
16.417,-0.065,0.040
16.419,-0.075,0.030
16.422,-0.090,0.010
16.425,-0.090,0.020
16.428,-0.085,0.045
16.431,-0.075,0.050
16.433,-0.070,0.045
16.436,-0.070,0.020
16.439,-0.080,0.015
16.442,-0.090,0.030
16.444,-0.080,0.045
16.447,-0.075,0.050
16.450,-0.060,0.025
16.453,-0.065,0.025
16.456,-0.070,0.015
16.458,-0.080,0.035
16.461,-0.075,0.040
16.464,-0.075,0.060
16.467,-0.060,0.030
16.469,-0.070,0.025
16.472,-0.080,0.015
16.475,-0.090,0.035
16.478,-0.090,0.045
16.481,-0.070,0.060
16.483,-0.060,0.030
16.486,-0.060,0.020
16.489,-0.070,0.005
16.492,-0.080,0.030
16.494,-0.085,0.045
16.497,-0.075,0.045
16.500,-0.055,0.025
16.503,-0.055,0.020
16.506,-0.070,0.025
16.508,-0.095,0.025
16.511,-0.085,0.045
16.514,-0.070,0.030
16.517,-0.060,0.025
16.519,-0.070,0.010
16.522,-0.090,0.020
16.525,-0.090,0.035
16.528,-0.090,0.030
16.531,-0.080,0.025
16.533,-0.060,0.010
16.536,-0.070,0.020
16.539,-0.085,0.025
16.542,-0.105,0.020
16.544,-0.100,0.020
16.547,-0.090,0.020
16.550,-0.080,0.015
16.553,-0.075,0.015
16.556,-0.075,0.015
16.558,-0.090,0.030
16.561,-0.080,0.020
16.564,-0.070,0.025
16.567,-0.055,0.015
16.569,-0.075,0.015
16.572,-0.075,0.030
16.575,-0.090,0.025
16.578,-0.085,0.025
16.581,-0.085,0.015
16.583,-0.075,0.025
16.586,-0.085,0.020
16.589,-0.095,0.025
16.592,-0.100,0.015
16.594,-0.105,0.005
16.597,-0.075,0.015
16.600,-0.070,0.010
16.603,-0.075,0.015
16.606,-0.090,0.005
16.608,-0.095,0.010
16.611,-0.085,0.015
16.614,-0.080,0.010
16.617,-0.050,0.010
16.619,-0.070,0.015
16.622,-0.075,0.015
16.625,-0.095,0.010
16.628,-0.090,0.015
16.631,-0.085,0.025
16.633,-0.070,0.030
16.636,-0.075,0.020
16.639,-0.075,0.015
16.642,-0.090,0.005
16.644,-0.075,0.000
16.647,-0.075,0.005
16.650,-0.070,0.015
16.653,-0.065,0.025
16.656,-0.070,0.020
16.658,-0.095,0.000
16.661,-0.075,0.010
16.664,-0.070,0.015
16.667,-0.050,0.025
16.669,-0.055,0.035
16.672,-0.070,0.020
16.675,-0.075,0.005
16.678,-0.070,0.010
16.681,-0.055,0.015
16.683,-0.040,0.030
16.686,-0.060,0.025
16.689,-0.065,0.020
16.692,-0.100,0.005
16.694,-0.090,-0.005
16.697,-0.070,0.010
16.700,-0.065,0.040
16.703,-0.065,0.035
16.706,-0.075,0.015
16.708,-0.095,-0.005
16.711,-0.090,0.010
16.714,-0.085,0.025
16.717,-0.080,0.040
16.719,-0.070,0.020
16.722,-0.070,-0.015
16.725,-0.080,-0.010
16.728,-0.090,0.020
16.731,-0.065,0.045
16.733,-0.055,0.030
16.736,-0.065,-0.005
16.739,-0.080,-0.005
16.742,-0.105,0.005
16.744,-0.100,0.020
16.747,-0.080,0.005
16.750,-0.070,0.005
16.753,-0.075,0.000
16.756,-0.090,0.015
16.758,-0.095,0.015
16.761,-0.095,0.000
16.764,-0.085,0.005
16.767,-0.070,0.020
16.769,-0.065,0.030
16.772,-0.070,0.015
16.775,-0.080,0.000
16.778,-0.075,-0.005
16.781,-0.065,0.010
16.783,-0.060,0.025
16.786,-0.055,0.015
16.789,-0.075,-0.005
16.792,-0.080,-0.005
16.794,-0.080,0.000
16.797,-0.075,0.020
16.800,-0.060,0.025
16.803,-0.070,0.015
16.806,-0.070,0.000
16.808,-0.080,-0.005
16.811,-0.080,-0.010
16.814,-0.070,0.000
16.817,-0.070,0.015
16.819,-0.065,0.015
16.822,-0.070,-0.015
16.825,-0.075,-0.020
16.828,-0.065,-0.015
16.831,-0.060,0.010
16.833,-0.055,0.025
16.836,-0.045,0.015
16.839,-0.070,-0.005
16.842,-0.085,-0.015
16.844,-0.085,0.000
16.847,-0.070,0.015
16.850,-0.060,0.015
16.853,-0.070,0.005
16.856,-0.075,-0.015
16.858,-0.090,-0.020
16.861,-0.095,-0.010
16.864,-0.080,0.015
16.867,-0.070,0.015
16.869,-0.055,0.015
16.872,-0.075,-0.015
16.875,-0.080,-0.025
16.878,-0.075,-0.005
16.881,-0.055,0.005
16.883,-0.045,0.025
16.886,-0.045,0.000
16.889,-0.065,-0.010
16.892,-0.065,-0.025
16.894,-0.075,-0.020
16.897,-0.055,0.005
16.900,-0.060,0.020
16.903,-0.085,0.015
16.906,-0.080,-0.020
16.908,-0.085,-0.025
16.911,-0.080,-0.020
16.914,-0.060,0.010
16.917,-0.050,0.025
16.919,-0.075,0.005
16.922,-0.070,-0.015
16.925,-0.075,-0.025
