'Elapsed time','MLII','V1'
'seconds','mV','mV'
0.000,-0.500,0.050
0.003,-0.500,0.050
0.006,-0.500,0.050
0.008,-0.500,0.050
0.011,-0.500,0.050
0.014,-0.500,0.050
0.017,-0.500,0.050
0.019,-0.500,0.050
0.022,-0.460,0.050
0.025,-0.400,0.040
0.028,-0.340,0.020
0.031,-0.290,-0.005
0.033,-0.275,-0.050
0.036,-0.280,-0.095
0.039,-0.280,-0.100
0.042,-0.285,-0.100
0.044,-0.265,-0.080
0.047,-0.240,-0.085
0.050,-0.215,-0.105
0.053,-0.210,-0.145
0.056,-0.205,-0.185
0.058,-0.195,-0.175
0.061,-0.185,-0.155
0.064,-0.175,-0.150
0.067,-0.170,-0.155
0.069,-0.185,-0.180
0.072,-0.185,-0.175
0.075,-0.170,-0.190
0.078,-0.145,-0.200
0.081,-0.120,-0.210
0.083,-0.095,-0.230
0.086,-0.100,-0.260
0.089,-0.125,-0.280
0.092,-0.115,-0.290
0.094,-0.110,-0.270
0.097,-0.070,-0.260
0.100,-0.055,-0.295
0.103,-0.050,-0.320
0.106,-0.060,-0.380
0.108,-0.050,-0.400
0.111,-0.020,-0.415
0.114,0.000,-0.415
0.117,0.015,-0.440
0.119,0.025,-0.470
0.122,0.025,-0.485
0.125,0.050,-0.505
0.128,0.090,-0.515
0.131,0.110,-0.525
0.133,0.140,-0.560
0.136,0.145,-0.575
0.139,0.150,-0.590
0.142,0.140,-0.605
0.144,0.140,-0.600
0.147,0.180,-0.570
0.150,0.210,-0.595
0.153,0.225,-0.615
0.156,0.235,-0.610
0.158,0.245,-0.605
0.161,0.250,-0.570
0.164,0.275,-0.545
0.167,0.275,-0.520
0.169,0.260,-0.530
0.172,0.230,-0.485
0.175,0.230,-0.460
0.178,0.205,-0.420
0.181,0.220,-0.385
0.183,0.215,-0.360
0.186,0.175,-0.340
0.189,0.140,-0.320
0.192,0.110,-0.275
0.194,0.090,-0.240
0.197,0.080,-0.185
0.200,0.060,-0.160
0.203,0.035,-0.155
0.206,0.000,-0.135
0.208,-0.030,-0.105
0.211,-0.040,-0.085
0.214,-0.060,-0.035
0.217,-0.080,-0.020
0.219,-0.115,-0.010
0.222,-0.150,0.010
0.225,-0.180,0.020
0.228,-0.190,0.060
0.231,-0.190,0.085
0.233,-0.190,0.080
0.236,-0.220,0.065
0.239,-0.240,0.050
0.242,-0.265,0.050
0.244,-0.280,0.095
0.247,-0.265,0.130
0.250,-0.265,0.115
0.253,-0.270,0.095
0.256,-0.290,0.085
0.258,-0.300,0.085
0.261,-0.310,0.090
0.264,-0.295,0.100
0.267,-0.295,0.105
0.269,-0.305,0.110
0.272,-0.315,0.105
0.275,-0.325,0.120
0.278,-0.305,0.135
0.281,-0.280,0.125
0.283,-0.280,0.105
0.286,-0.280,0.095
0.289,-0.300,0.080
0.292,-0.305,0.090
0.294,-0.310,0.110
0.297,-0.290,0.135
0.300,-0.275,0.135
0.303,-0.280,0.115
0.306,-0.285,0.100
0.308,-0.265,0.090
0.311,-0.260,0.110
0.314,-0.235,0.110
0.317,-0.245,0.095
0.319,-0.260,0.090
0.322,-0.270,0.090
0.325,-0.290,0.115
0.328,-0.270,0.115
0.331,-0.235,0.115
0.333,-0.215,0.095
0.336,-0.220,0.080
0.339,-0.240,0.070
0.342,-0.250,0.085
0.344,-0.250,0.095
0.347,-0.245,0.120
0.350,-0.230,0.120
0.353,-0.230,0.095
0.356,-0.230,0.085
0.358,-0.235,0.080
0.361,-0.220,0.090
0.364,-0.215,0.090
0.367,-0.215,0.080
0.369,-0.225,0.080
0.372,-0.245,0.075
0.375,-0.250,0.080
0.378,-0.240,0.095
0.381,-0.220,0.105
0.383,-0.215,0.090
0.386,-0.225,0.070
0.389,-0.240,0.055
0.392,-0.255,0.070
0.394,-0.235,0.090
0.397,-0.230,0.115
0.400,-0.225,0.105
0.403,-0.240,0.095
0.406,-0.240,0.080
0.408,-0.245,0.070
0.411,-0.230,0.075
0.414,-0.225,0.090
0.417,-0.215,0.105
0.419,-0.225,0.120
0.422,-0.245,0.110
0.425,-0.225,0.130
0.428,-0.190,0.135
0.431,-0.150,0.165
0.433,-0.125,0.150
0.436,-0.110,0.110
0.439,-0.120,0.100
0.442,-0.110,0.075
0.444,-0.085,0.105
0.447,-0.065,0.095
0.450,-0.030,0.090
0.453,-0.005,0.050
0.456,0.010,0.035
0.458,0.010,0.030
0.461,0.025,0.050
0.464,0.040,0.070
0.467,0.035,0.080
0.469,0.025,0.075
0.472,0.020,0.065
0.475,0.015,0.065
0.478,0.020,0.070
0.481,0.010,0.075
0.483,-0.025,0.060
0.486,-0.075,0.035
0.489,-0.130,0.040
0.492,-0.165,0.045
0.494,-0.180,0.075
0.497,-0.175,0.080
0.500,-0.190,0.070
0.503,-0.210,0.055
0.506,-0.225,0.025
0.508,-0.240,0.015
0.511,-0.230,0.040
0.514,-0.230,0.065
0.517,-0.250,0.070
0.519,-0.265,0.075
0.522,-0.280,0.060
0.525,-0.275,0.055
0.528,-0.270,0.060
0.531,-0.260,0.060
0.533,-0.245,0.065
0.536,-0.270,0.040
0.539,-0.285,0.040
0.542,-0.290,0.055
0.544,-0.290,0.095
0.547,-0.270,0.105
0.550,-0.250,0.085
0.553,-0.250,0.065
0.556,-0.255,0.045
0.558,-0.255,0.055
0.561,-0.245,0.090
0.564,-0.220,0.130
0.567,-0.205,0.145
0.569,-0.185,0.090
0.572,-0.165,0.015
0.575,-0.095,-0.010
0.578,0.015,-0.030
0.581,0.205,-0.040
0.583,0.425,-0.030
0.586,0.655,0.025
0.589,0.915,0.170
0.592,1.135,0.420
0.594,1.295,0.640
0.597,1.315,0.805
0.600,1.130,0.895
0.603,0.740,0.890
0.606,0.275,0.845
0.608,-0.165,0.835
0.611,-0.470,0.850
0.614,-0.605,0.930
0.617,-0.610,1.010
0.619,-0.590,1.080
0.622,-0.575,1.135
0.625,-0.600,1.195
0.628,-0.615,1.245
0.631,-0.645,1.290
0.633,-0.690,1.320
0.636,-0.725,1.380
0.639,-0.755,1.435
0.642,-0.755,1.505
0.644,-0.730,1.550
0.647,-0.715,1.555
0.650,-0.705,1.505
0.653,-0.725,1.385
0.656,-0.750,1.230
0.658,-0.745,1.060
0.661,-0.715,0.905
0.664,-0.650,0.735
0.667,-0.600,0.570
0.669,-0.550,0.405
0.672,-0.505,0.255
0.675,-0.450,0.165
0.678,-0.365,0.110
0.681,-0.280,0.075
0.683,-0.235,0.030
0.686,-0.195,-0.010
0.689,-0.185,-0.025
0.692,-0.170,-0.030
0.694,-0.155,-0.040
0.697,-0.140,-0.030
0.700,-0.125,-0.060
0.703,-0.105,-0.090
0.706,-0.105,-0.130
0.708,-0.095,-0.135
0.711,-0.085,-0.135
0.714,-0.070,-0.125
0.717,-0.065,-0.125
0.719,-0.075,-0.135
0.722,-0.070,-0.170
0.725,-0.070,-0.175
0.728,-0.040,-0.190
0.731,-0.020,-0.185
0.733,-0.025,-0.210
0.736,-0.025,-0.235
0.739,-0.045,-0.250
0.742,-0.035,-0.255
0.744,-0.010,-0.225
0.747,0.015,-0.230
0.750,0.030,-0.245
0.753,0.020,-0.280
0.756,0.030,-0.310
0.758,0.030,-0.310
0.761,0.050,-0.295
0.764,0.065,-0.305
0.767,0.070,-0.315
0.769,0.075,-0.340
0.772,0.085,-0.390
0.775,0.090,-0.415
0.778,0.130,-0.420
0.781,0.160,-0.450
0.783,0.185,-0.470
0.786,0.190,-0.510
0.789,0.185,-0.525
0.792,0.185,-0.530
0.794,0.220,-0.525
0.797,0.250,-0.535
0.800,0.280,-0.570
0.803,0.270,-0.590
0.806,0.285,-0.620
0.808,0.295,-0.620
0.811,0.320,-0.610
0.814,0.355,-0.580
0.817,0.365,-0.585
0.819,0.370,-0.580
0.822,0.360,-0.580
0.825,0.365,-0.565
0.828,0.395,-0.520
0.831,0.395,-0.500
0.833,0.395,-0.500
0.836,0.355,-0.475
0.839,0.325,-0.450
0.842,0.305,-0.395
0.844,0.290,-0.345
0.847,0.285,-0.310
0.850,0.270,-0.285
0.853,0.230,-0.265
0.856,0.185,-0.245
0.858,0.155,-0.210
0.861,0.120,-0.150
0.864,0.100,-0.085
0.867,0.080,-0.070
0.869,0.050,-0.050
0.872,0.020,-0.055
0.875,0.000,-0.045
0.878,-0.025,-0.020
0.881,-0.010,-0.005
0.883,-0.020,0.020
0.886,-0.055,0.020
0.889,-0.080,0.035
0.892,-0.090,0.055
0.894,-0.100,0.070
0.897,-0.110,0.080
0.900,-0.115,0.065
0.903,-0.120,0.040
0.906,-0.140,0.035
0.908,-0.170,0.035
0.911,-0.170,0.085
0.914,-0.160,0.095
0.917,-0.165,0.105
0.919,-0.190,0.095
0.922,-0.205,0.075
0.925,-0.195,0.075
0.928,-0.175,0.075
0.931,-0.160,0.090
0.933,-0.160,0.085
0.936,-0.190,0.085
0.939,-0.200,0.075
0.942,-0.190,0.100
0.944,-0.180,0.105
0.947,-0.160,0.095
0.950,-0.150,0.085
0.953,-0.170,0.070
0.956,-0.175,0.065
0.958,-0.190,0.070
0.961,-0.175,0.105
0.964,-0.150,0.135
0.967,-0.140,0.115
0.969,-0.140,0.075
0.972,-0.145,0.040
0.975,-0.145,0.050
0.978,-0.145,0.080
0.981,-0.135,0.080
0.983,-0.135,0.090
0.986,-0.145,0.075
0.989,-0.150,0.055
0.992,-0.150,0.055
0.994,-0.135,0.060
0.997,-0.125,0.070
1.000,-0.105,0.055
1.003,-0.125,0.060
1.006,-0.160,0.060
1.008,-0.165,0.055
1.011,-0.145,0.080
1.014,-0.125,0.070
1.017,-0.120,0.065
1.019,-0.125,0.060
1.022,-0.150,0.020
1.025,-0.145,0.045
1.028,-0.155,0.065
1.031,-0.135,0.085
1.033,-0.150,0.090
1.036,-0.140,0.055
1.039,-0.145,0.055
1.042,-0.145,0.050
1.044,-0.135,0.060
1.047,-0.125,0.070
1.050,-0.130,0.080
1.053,-0.140,0.065
1.056,-0.155,0.065
1.058,-0.165,0.065
1.061,-0.155,0.075
1.064,-0.135,0.075
1.067,-0.120,0.065
1.069,-0.120,0.050
1.072,-0.140,0.060
1.075,-0.155,0.090
1.078,-0.145,0.110
1.081,-0.135,0.135
1.083,-0.110,0.125
1.086,-0.100,0.115
1.089,-0.095,0.110
1.092,-0.095,0.120
1.094,-0.060,0.145
1.097,-0.030,0.165
1.100,-0.015,0.165
1.103,0.000,0.140
1.106,0.010,0.110
1.108,0.020,0.075
1.111,0.050,0.085
1.114,0.095,0.065
1.117,0.105,0.055
1.119,0.120,0.045
1.122,0.130,0.050
1.125,0.135,0.065
1.128,0.135,0.080
1.131,0.145,0.085
1.133,0.160,0.075
1.136,0.170,0.070
1.139,0.135,0.050
1.142,0.115,0.065
1.144,0.075,0.090
1.147,0.040,0.105
1.150,0.005,0.095
1.153,-0.030,0.060
1.156,-0.065,0.040
1.158,-0.080,0.030
1.161,-0.105,0.055
1.164,-0.085,0.060
1.167,-0.125,0.085
1.169,-0.145,0.075
1.172,-0.135,0.075
1.175,-0.145,0.060
1.178,-0.135,0.070
1.181,-0.150,0.070
1.183,-0.135,0.075
1.186,-0.145,0.065
1.189,-0.160,0.065
1.192,-0.180,0.080
1.194,-0.170,0.095
1.197,-0.160,0.090
1.200,-0.135,0.075
1.203,-0.150,0.050
1.206,-0.160,0.045
1.208,-0.165,0.060
1.211,-0.160,0.065
1.214,-0.135,0.110
1.217,-0.135,0.105
1.219,-0.135,0.100
1.222,-0.125,0.100
1.225,-0.135,0.110
1.228,-0.105,0.100
1.231,-0.050,0.025
1.233,0.005,-0.015
1.236,0.085,-0.065
1.239,0.180,-0.040
1.242,0.360,-0.015
1.244,0.610,0.045
1.247,0.875,0.185
1.250,1.120,0.375
1.253,1.305,0.555
1.256,1.350,0.715
1.258,1.240,0.855
1.261,0.930,0.915
1.264,0.500,0.915
1.267,0.080,0.865
1.269,-0.270,0.870
1.272,-0.420,0.875
1.275,-0.435,0.955
1.278,-0.385,1.050
1.281,-0.370,1.140
1.283,-0.400,1.200
1.286,-0.465,1.250
1.289,-0.515,1.290
1.292,-0.555,1.335
1.294,-0.570,1.410
1.297,-0.555,1.475
1.300,-0.535,1.515
1.303,-0.555,1.545
1.306,-0.585,1.545
1.308,-0.595,1.520
1.311,-0.605,1.465
1.314,-0.615,1.365
1.317,-0.605,1.220
1.319,-0.585,1.040
1.322,-0.560,0.855
1.325,-0.520,0.670
1.328,-0.470,0.515
1.331,-0.410,0.380
1.333,-0.355,0.255
1.336,-0.320,0.170
1.339,-0.275,0.110
1.342,-0.230,0.105
1.344,-0.155,0.100
1.347,-0.105,0.080
1.350,-0.060,0.030
1.353,-0.060,-0.010
1.356,-0.055,-0.055
1.358,-0.050,-0.070
1.361,-0.035,-0.055
1.364,0.000,-0.045
1.367,0.015,-0.055
1.369,0.020,-0.090
1.372,0.025,-0.115
1.375,0.020,-0.135
1.378,0.025,-0.135
1.381,0.045,-0.135
1.383,0.060,-0.140
1.386,0.035,-0.160
1.389,0.010,-0.180
1.392,0.025,-0.170
1.394,0.055,-0.160
1.397,0.070,-0.175
1.400,0.080,-0.200
1.403,0.090,-0.230
1.406,0.085,-0.245
1.408,0.065,-0.260
1.411,0.085,-0.245
1.414,0.105,-0.240
1.417,0.105,-0.245
1.419,0.095,-0.285
1.422,0.115,-0.320
1.425,0.125,-0.350
1.428,0.145,-0.345
1.431,0.180,-0.375
1.433,0.190,-0.395
1.436,0.200,-0.410
1.439,0.175,-0.430
1.442,0.195,-0.440
1.444,0.215,-0.455
1.447,0.230,-0.465
1.450,0.250,-0.505
1.453,0.260,-0.540
1.456,0.250,-0.580
1.458,0.275,-0.585
1.461,0.285,-0.575
1.464,0.320,-0.560
1.467,0.325,-0.585
1.469,0.335,-0.600
1.472,0.340,-0.625
1.475,0.350,-0.625
1.478,0.375,-0.610
1.481,0.400,-0.600
1.483,0.405,-0.595
1.486,0.395,-0.590
1.489,0.380,-0.570
1.492,0.370,-0.525
1.494,0.385,-0.485
1.497,0.395,-0.470
1.500,0.390,-0.445
1.503,0.375,-0.430
1.506,0.335,-0.445
1.508,0.320,-0.405
1.511,0.305,-0.360
1.514,0.295,-0.305
1.517,0.290,-0.255
1.519,0.250,-0.235
1.522,0.235,-0.220
1.525,0.210,-0.195
1.528,0.195,-0.160
1.531,0.185,-0.135
1.533,0.170,-0.105
1.536,0.130,-0.090
1.539,0.075,-0.065
1.542,0.065,-0.030
1.544,0.050,0.010
1.547,0.050,0.025
1.550,0.045,0.030
1.553,0.025,0.005
1.556,0.000,-0.005
1.558,-0.025,0.005
1.561,-0.035,0.055
1.564,-0.045,0.090
1.567,-0.045,0.085
1.569,-0.065,0.080
1.572,-0.080,0.065
1.575,-0.095,0.070
1.578,-0.085,0.090
1.581,-0.080,0.095
1.583,-0.085,0.085
1.586,-0.095,0.070
1.589,-0.120,0.075
1.592,-0.125,0.095
1.594,-0.100,0.100
1.597,-0.100,0.120
1.600,-0.090,0.100
1.603,-0.095,0.070
1.606,-0.110,0.050
1.608,-0.115,0.075
1.611,-0.110,0.095
1.614,-0.095,0.115
1.617,-0.095,0.125
1.619,-0.105,0.095
1.622,-0.110,0.055
1.625,-0.110,0.065
1.628,-0.090,0.070
1.631,-0.075,0.085
1.633,-0.085,0.080
1.636,-0.100,0.070
1.639,-0.135,0.075
1.642,-0.105,0.085
1.644,-0.085,0.110
1.647,-0.085,0.105
1.650,-0.075,0.060
1.653,-0.070,0.055
1.656,-0.095,0.060
1.658,-0.105,0.065
1.661,-0.090,0.090
1.664,-0.075,0.110
1.667,-0.065,0.100
1.669,-0.070,0.085
1.672,-0.085,0.050
1.675,-0.110,0.045
1.678,-0.110,0.075
1.681,-0.095,0.095
1.683,-0.070,0.085
1.686,-0.080,0.095
1.689,-0.100,0.065
1.692,-0.100,0.080
1.694,-0.100,0.085
1.697,-0.080,0.090
1.700,-0.080,0.080
1.703,-0.100,0.055
1.706,-0.120,0.065
1.708,-0.130,0.075
1.711,-0.115,0.105
1.714,-0.105,0.130
1.717,-0.100,0.100
1.719,-0.115,0.055
1.722,-0.145,0.045
1.725,-0.120,0.060
1.728,-0.105,0.075
1.731,-0.095,0.100
1.733,-0.100,0.100
1.736,-0.100,0.095
1.739,-0.125,0.080
1.742,-0.135,0.075
1.744,-0.115,0.095
1.747,-0.090,0.120
1.750,-0.075,0.125
1.753,-0.085,0.135
1.756,-0.110,0.140
1.758,-0.100,0.140
1.761,-0.075,0.180
1.764,-0.050,0.200
1.767,-0.030,0.190
1.769,-0.015,0.175
1.772,-0.005,0.125
1.775,-0.015,0.100
1.778,0.005,0.100
1.781,0.020,0.105
1.783,0.065,0.095
1.786,0.095,0.055
1.789,0.095,0.040
1.792,0.115,0.070
1.794,0.145,0.085
1.797,0.165,0.080
1.800,0.160,0.085
1.803,0.125,0.070
1.806,0.095,0.070
1.808,0.090,0.085
1.811,0.100,0.095
1.814,0.090,0.120
1.817,0.085,0.115
1.819,0.045,0.085
1.822,-0.005,0.075
1.825,-0.060,0.060
1.828,-0.080,0.065
1.831,-0.085,0.095
1.833,-0.105,0.095
1.836,-0.120,0.065
1.839,-0.140,0.065
1.842,-0.155,0.055
1.844,-0.155,0.065
1.847,-0.160,0.085
1.850,-0.175,0.055
1.853,-0.180,0.055
1.856,-0.205,0.040
1.858,-0.225,0.050
1.861,-0.220,0.070
1.864,-0.195,0.095
1.867,-0.195,0.075
1.869,-0.195,0.060
1.872,-0.230,0.045
1.875,-0.225,0.040
1.878,-0.220,0.055
1.881,-0.210,0.075
1.883,-0.215,0.080
1.886,-0.215,0.070
1.889,-0.255,0.055
1.892,-0.235,0.070
1.894,-0.205,0.065
1.897,-0.190,0.080
1.900,-0.185,0.075
1.903,-0.175,0.090
1.906,-0.180,0.090
1.908,-0.175,0.055
1.911,-0.150,0.015
1.914,-0.060,-0.015
1.917,0.045,-0.025
1.919,0.190,-0.035
1.922,0.370,-0.015
1.925,0.615,0.085
1.928,0.865,0.275
1.931,1.080,0.495
1.933,1.205,0.690
1.936,1.185,0.810
1.939,0.930,0.885
1.942,0.530,0.870
1.944,0.100,0.845
1.947,-0.240,0.840
1.950,-0.440,0.850
1.953,-0.515,0.890
1.956,-0.495,0.955
1.958,-0.510,1.050
1.961,-0.515,1.140
1.964,-0.525,1.200
1.967,-0.565,1.215
1.969,-0.610,1.240
1.972,-0.650,1.270
1.975,-0.675,1.305
1.978,-0.690,1.390
1.981,-0.665,1.485
1.983,-0.685,1.520
1.986,-0.685,1.535
1.989,-0.720,1.510
1.992,-0.720,1.455
1.994,-0.730,1.335
1.997,-0.705,1.195
2.000,-0.690,1.005
2.003,-0.675,0.815
2.006,-0.660,0.630
2.008,-0.630,0.455
2.011,-0.570,0.320
2.014,-0.495,0.215
2.017,-0.435,0.130
2.019,-0.360,0.075
2.022,-0.320,0.025
2.025,-0.265,0.010
2.028,-0.240,-0.005
2.031,-0.220,-0.020
2.033,-0.210,-0.040
2.036,-0.210,-0.070
2.039,-0.220,-0.090
2.042,-0.195,-0.120
2.044,-0.165,-0.110
2.047,-0.145,-0.115
2.050,-0.160,-0.140
2.053,-0.160,-0.155
2.056,-0.175,-0.195
2.058,-0.170,-0.185
2.061,-0.170,-0.165
2.064,-0.125,-0.150
2.067,-0.125,-0.175
2.069,-0.110,-0.210
2.072,-0.125,-0.250
2.075,-0.135,-0.260
2.078,-0.120,-0.255
2.081,-0.105,-0.235
2.083,-0.105,-0.250
2.086,-0.105,-0.260
2.089,-0.120,-0.290
2.092,-0.105,-0.305
2.094,-0.090,-0.310
2.097,-0.060,-0.325
2.100,-0.045,-0.350
2.103,-0.050,-0.375
2.106,-0.065,-0.400
2.108,-0.075,-0.405
2.111,-0.060,-0.400
2.114,-0.045,-0.400
2.117,-0.025,-0.435
2.119,-0.025,-0.485
2.122,-0.020,-0.520
2.125,-0.005,-0.540
2.128,0.010,-0.545
2.131,0.030,-0.535
2.133,0.040,-0.555
2.136,0.045,-0.580
2.139,0.035,-0.600
2.142,0.035,-0.615
2.144,0.075,-0.615
2.147,0.110,-0.630
2.150,0.130,-0.635
2.153,0.115,-0.650
2.156,0.120,-0.670
2.158,0.115,-0.635
2.161,0.145,-0.605
2.164,0.155,-0.580
2.167,0.160,-0.560
2.169,0.170,-0.565
2.172,0.145,-0.575
2.175,0.140,-0.550
2.178,0.140,-0.515
2.181,0.145,-0.485
2.183,0.135,-0.445
2.186,0.105,-0.425
2.189,0.065,-0.400
2.192,0.050,-0.365
2.194,0.050,-0.320
2.197,0.035,-0.290
2.200,0.020,-0.270
2.203,-0.010,-0.275
2.206,-0.045,-0.245
2.208,-0.070,-0.210
2.211,-0.085,-0.165
2.214,-0.095,-0.110
2.217,-0.110,-0.095
2.219,-0.140,-0.100
2.222,-0.170,-0.100
2.225,-0.180,-0.085
2.228,-0.195,-0.050
2.231,-0.190,-0.030
2.233,-0.225,-0.005
2.236,-0.250,0.000
2.239,-0.285,0.000
2.242,-0.300,0.005
2.244,-0.310,0.025
2.247,-0.300,0.020
2.250,-0.310,0.010
2.253,-0.325,0.000
2.256,-0.360,-0.005
2.258,-0.370,0.015
2.261,-0.360,0.055
2.264,-0.345,0.060
2.267,-0.330,0.035
2.269,-0.340,0.015
2.272,-0.370,-0.005
2.275,-0.375,-0.005
2.278,-0.370,0.010
2.281,-0.370,0.025
2.283,-0.365,0.035
2.286,-0.365,0.035
2.289,-0.380,0.035
2.292,-0.370,0.015
2.294,-0.340,0.010
2.297,-0.340,0.030
2.300,-0.335,0.010
2.303,-0.360,0.010
2.306,-0.375,0.025
2.308,-0.385,0.020
2.311,-0.365,0.045
2.314,-0.340,0.045
2.317,-0.345,0.025
2.319,-0.360,-0.005
2.322,-0.370,-0.010
2.325,-0.375,-0.010
2.328,-0.375,0.015
2.331,-0.365,0.025
2.333,-0.360,0.025
2.336,-0.370,0.010
2.339,-0.375,0.010
2.342,-0.355,0.015
2.344,-0.355,0.015
2.347,-0.340,0.010
2.350,-0.345,0.010
2.353,-0.365,-0.010
2.356,-0.385,0.005
2.358,-0.390,0.020
2.361,-0.380,0.030
2.364,-0.360,0.040
2.367,-0.345,0.010
2.369,-0.360,0.000
2.372,-0.385,-0.015
2.375,-0.395,0.000
2.378,-0.400,0.030
2.381,-0.390,0.045
2.383,-0.370,0.070
2.386,-0.385,0.065
2.389,-0.385,0.045
2.392,-0.360,0.045
2.394,-0.350,0.055
2.397,-0.320,0.080
2.400,-0.320,0.080
2.403,-0.320,0.085
2.406,-0.330,0.065
2.408,-0.315,0.060
2.411,-0.290,0.055
2.414,-0.255,0.040
2.417,-0.225,-0.005
2.419,-0.205,-0.035
2.422,-0.200,-0.040
2.425,-0.185,-0.015
2.428,-0.160,0.010
2.431,-0.150,0.015
2.433,-0.155,0.025
2.436,-0.150,0.010
2.439,-0.170,0.000
2.442,-0.180,0.015
2.444,-0.170,0.035
2.447,-0.195,0.020
2.450,-0.205,0.030
2.453,-0.245,0.025
2.456,-0.290,0.015
2.458,-0.325,0.020
2.461,-0.355,0.010
2.464,-0.360,0.015
2.467,-0.390,-0.005
2.469,-0.405,-0.020
2.472,-0.425,-0.030
2.475,-0.455,-0.010
2.478,-0.450,0.010
2.481,-0.465,0.025
2.483,-0.465,0.015
2.486,-0.470,0.005
2.489,-0.485,-0.025
2.492,-0.505,-0.025
2.494,-0.505,-0.025
2.497,-0.500,0.015
2.500,-0.495,0.010
2.503,-0.510,0.005
2.506,-0.520,-0.005
2.508,-0.525,-0.010
2.511,-0.510,-0.005
2.514,-0.490,0.000
2.517,-0.470,0.000
2.519,-0.485,-0.025
2.522,-0.505,-0.030
2.525,-0.520,-0.005
2.528,-0.485,0.035
2.531,-0.470,0.045
2.533,-0.470,0.050
2.536,-0.465,0.035
2.539,-0.465,0.025
2.542,-0.455,-0.005
2.544,-0.415,-0.060
2.547,-0.340,-0.095
2.550,-0.250,-0.115
2.553,-0.110,-0.095
2.556,0.080,-0.060
2.558,0.330,0.040
2.561,0.605,0.185
2.564,0.835,0.350
2.567,0.970,0.470
2.569,0.955,0.600
2.572,0.785,0.705
2.575,0.445,0.735
2.578,0.030,0.725
2.581,-0.345,0.715
2.583,-0.620,0.705
2.586,-0.745,0.735
2.589,-0.750,0.775
2.592,-0.715,0.850
2.594,-0.710,0.910
2.597,-0.740,0.985
2.600,-0.765,1.045
2.603,-0.820,1.095
2.606,-0.860,1.130
2.608,-0.880,1.170
2.611,-0.880,1.220
2.614,-0.865,1.295
2.617,-0.860,1.345
2.619,-0.860,1.390
2.622,-0.880,1.400
2.625,-0.915,1.360
2.628,-0.925,1.300
2.631,-0.930,1.190
2.633,-0.905,1.020
2.636,-0.885,0.840
2.639,-0.840,0.650
2.642,-0.800,0.490
2.644,-0.740,0.350
2.647,-0.695,0.260
2.650,-0.645,0.170
2.653,-0.620,0.085
2.656,-0.575,0.050
2.658,-0.500,0.035
2.661,-0.430,0.000
2.664,-0.365,-0.005
2.667,-0.335,-0.040
2.669,-0.320,-0.090
2.672,-0.325,-0.115
2.675,-0.325,-0.115
2.678,-0.315,-0.110
2.681,-0.300,-0.100
2.683,-0.270,-0.120
2.686,-0.260,-0.160
2.689,-0.260,-0.180
2.692,-0.245,-0.175
2.694,-0.230,-0.185
2.697,-0.225,-0.180
2.700,-0.215,-0.180
2.703,-0.210,-0.195
2.706,-0.225,-0.215
2.708,-0.215,-0.220
2.711,-0.185,-0.205
2.714,-0.165,-0.225
2.717,-0.150,-0.250
2.719,-0.160,-0.285
2.722,-0.160,-0.305
2.725,-0.175,-0.315
2.728,-0.155,-0.285
2.731,-0.120,-0.290
2.733,-0.115,-0.295
2.736,-0.100,-0.345
2.739,-0.105,-0.385
2.742,-0.090,-0.400
2.744,-0.075,-0.415
2.747,-0.050,-0.420
2.750,-0.040,-0.435
2.753,-0.030,-0.460
2.756,-0.050,-0.470
2.758,-0.030,-0.480
2.761,-0.010,-0.495
2.764,0.025,-0.515
2.767,0.045,-0.535
2.769,0.040,-0.560
2.772,0.035,-0.575
2.775,0.045,-0.585
2.778,0.055,-0.565
2.781,0.090,-0.585
2.783,0.100,-0.605
2.786,0.110,-0.620
2.789,0.135,-0.620
2.792,0.155,-0.610
2.794,0.170,-0.585
2.797,0.185,-0.590
2.800,0.185,-0.595
2.803,0.165,-0.575
2.806,0.150,-0.520
2.808,0.165,-0.485
2.811,0.165,-0.455
2.814,0.180,-0.450
2.817,0.175,-0.450
2.819,0.140,-0.430
2.822,0.125,-0.405
2.825,0.100,-0.365
2.828,0.100,-0.325
2.831,0.070,-0.295
2.833,0.060,-0.270
2.836,0.015,-0.250
2.839,-0.015,-0.225
2.842,-0.010,-0.185
2.844,-0.005,-0.155
2.847,-0.020,-0.150
2.850,-0.035,-0.150
2.853,-0.080,-0.145
2.856,-0.105,-0.095
2.858,-0.100,-0.070
2.861,-0.120,-0.030
2.864,-0.145,0.000
2.867,-0.170,0.005
2.869,-0.185,-0.005
2.872,-0.200,0.015
2.875,-0.205,0.030
2.878,-0.200,0.045
2.881,-0.215,0.050
2.883,-0.240,0.050
2.886,-0.270,0.040
2.889,-0.280,0.075
2.892,-0.270,0.090
2.894,-0.270,0.095
2.897,-0.260,0.075
2.900,-0.260,0.050
2.903,-0.275,0.025
2.906,-0.285,0.050
2.908,-0.280,0.080
2.911,-0.285,0.085
2.914,-0.270,0.100
2.917,-0.285,0.080
2.919,-0.285,0.070
2.922,-0.285,0.065
2.925,-0.270,0.070
2.928,-0.260,0.080
2.931,-0.255,0.070
2.933,-0.265,0.065
2.936,-0.275,0.060
2.939,-0.285,0.065
2.942,-0.285,0.090
2.944,-0.260,0.110
2.947,-0.255,0.085
2.950,-0.245,0.060
2.953,-0.260,0.045
2.956,-0.265,0.050
2.958,-0.255,0.060
2.961,-0.245,0.070
2.964,-0.255,0.070
2.967,-0.255,0.080
2.969,-0.265,0.075
2.972,-0.255,0.075
2.975,-0.245,0.095
2.978,-0.225,0.065
2.981,-0.230,0.050
2.983,-0.230,0.045
2.986,-0.250,0.045
2.989,-0.265,0.060
2.992,-0.250,0.090
2.994,-0.245,0.095
2.997,-0.235,0.100
3.000,-0.260,0.080
3.003,-0.255,0.055
3.006,-0.260,0.040
3.008,-0.245,0.055
3.011,-0.225,0.070
3.014,-0.230,0.060
3.017,-0.235,0.060
3.019,-0.260,0.065
3.022,-0.270,0.070
3.025,-0.255,0.085
3.028,-0.240,0.090
3.031,-0.220,0.075
3.033,-0.220,0.060
3.036,-0.240,0.050
3.039,-0.230,0.045
3.042,-0.245,0.075
3.044,-0.230,0.105
3.047,-0.210,0.125
3.050,-0.235,0.130
3.053,-0.245,0.125
3.056,-0.225,0.115
3.058,-0.180,0.120
3.061,-0.155,0.130
3.064,-0.145,0.120
3.067,-0.140,0.115
3.069,-0.145,0.115
3.072,-0.145,0.105
3.075,-0.120,0.105
3.078,-0.105,0.100
3.081,-0.070,0.090
3.083,-0.060,0.055
3.086,-0.035,0.015
3.089,-0.025,0.010
3.092,0.000,0.035
3.094,0.025,0.060
3.097,0.010,0.075
3.100,0.015,0.065
3.103,-0.010,0.060
3.106,-0.005,0.070
3.108,0.015,0.075
3.111,0.025,0.085
3.114,0.015,0.060
3.117,0.000,0.045
3.119,-0.045,0.050
3.122,-0.090,0.050
3.125,-0.125,0.075
3.128,-0.140,0.080
3.131,-0.160,0.085
3.133,-0.185,0.045
3.136,-0.220,0.040
3.139,-0.230,0.030
3.142,-0.230,0.030
3.144,-0.235,0.045
3.147,-0.240,0.030
3.150,-0.270,0.035
3.153,-0.285,0.035
3.156,-0.305,0.055
3.158,-0.305,0.060
3.161,-0.300,0.085
3.164,-0.295,0.065
3.167,-0.310,0.030
3.169,-0.305,0.025
3.172,-0.310,0.025
3.175,-0.295,0.055
3.178,-0.295,0.055
3.181,-0.300,0.070
3.183,-0.320,0.060
3.186,-0.325,0.055
3.189,-0.325,0.060
3.192,-0.305,0.075
3.194,-0.285,0.070
3.197,-0.260,0.070
3.200,-0.280,0.060
3.203,-0.295,0.045
3.206,-0.305,0.075
3.208,-0.290,0.105
3.211,-0.250,0.140
3.214,-0.260,0.150
3.217,-0.245,0.100
3.219,-0.215,0.040
3.222,-0.170,-0.005
3.225,-0.055,-0.030
3.228,0.075,-0.055
3.231,0.235,-0.025
3.233,0.430,-0.005
3.236,0.640,0.065
3.239,0.880,0.220
3.242,1.090,0.410
3.244,1.250,0.590
3.247,1.300,0.725
3.250,1.205,0.815
3.253,0.960,0.865
3.256,0.600,0.860
3.258,0.215,0.875
3.261,-0.135,0.885
3.264,-0.400,0.890
3.267,-0.575,0.905
3.269,-0.630,0.930
3.272,-0.630,0.985
3.275,-0.590,1.070
3.278,-0.570,1.140
3.281,-0.595,1.175
3.283,-0.640,1.190
3.286,-0.695,1.245
3.289,-0.730,1.290
3.292,-0.755,1.355
3.294,-0.755,1.420
3.297,-0.730,1.475
3.300,-0.730,1.495
3.303,-0.730,1.500
3.306,-0.735,1.495
3.308,-0.740,1.480
3.311,-0.750,1.425
3.314,-0.755,1.310
3.317,-0.780,1.165
3.319,-0.765,1.015
3.322,-0.745,0.845
3.325,-0.690,0.710
3.328,-0.630,0.560
3.331,-0.570,0.410
3.333,-0.540,0.280
3.336,-0.505,0.155
3.339,-0.445,0.095
3.342,-0.385,0.075
3.344,-0.315,0.050
3.347,-0.265,0.030
3.350,-0.235,-0.015
3.353,-0.230,-0.045
3.356,-0.215,-0.045
3.358,-0.185,-0.070
3.361,-0.155,-0.080
3.364,-0.140,-0.105
3.367,-0.125,-0.135
3.369,-0.130,-0.155
3.372,-0.140,-0.160
3.375,-0.120,-0.130
3.378,-0.105,-0.130
3.381,-0.105,-0.140
3.383,-0.095,-0.160
3.386,-0.105,-0.180
3.389,-0.100,-0.195
3.392,-0.090,-0.185
3.394,-0.070,-0.185
3.397,-0.050,-0.190
3.400,-0.070,-0.230
3.403,-0.065,-0.240
3.406,-0.060,-0.220
3.408,-0.045,-0.215
3.411,-0.025,-0.215
3.414,-0.005,-0.245
3.417,-0.015,-0.285
3.419,-0.015,-0.315
3.422,-0.020,-0.340
3.425,-0.005,-0.325
3.428,0.010,-0.315
3.431,0.035,-0.325
3.433,0.040,-0.350
3.436,0.035,-0.390
3.439,0.055,-0.415
3.442,0.065,-0.430
3.444,0.095,-0.440
3.447,0.105,-0.470
3.450,0.105,-0.495
3.453,0.105,-0.505
3.456,0.115,-0.510
3.458,0.150,-0.495
3.461,0.165,-0.500
3.464,0.170,-0.510
3.467,0.175,-0.545
3.469,0.185,-0.585
3.472,0.175,-0.605
3.475,0.205,-0.605
3.478,0.230,-0.605
3.481,0.250,-0.610
3.483,0.250,-0.645
3.486,0.260,-0.635
3.489,0.250,-0.620
3.492,0.250,-0.610
3.494,0.285,-0.600
3.497,0.315,-0.610
3.500,0.315,-0.635
3.503,0.310,-0.625
3.506,0.320,-0.615
3.508,0.330,-0.590
3.511,0.340,-0.535
3.514,0.335,-0.525
3.517,0.325,-0.505
3.519,0.295,-0.495
3.522,0.280,-0.460
3.525,0.270,-0.420
3.528,0.265,-0.385
3.531,0.245,-0.375
3.533,0.230,-0.370
3.536,0.195,-0.335
3.539,0.165,-0.295
3.542,0.140,-0.230
3.544,0.140,-0.190
3.547,0.115,-0.150
3.550,0.075,-0.155
3.553,0.050,-0.140
3.556,0.025,-0.130
3.558,0.030,-0.100
3.561,0.020,-0.075
3.564,0.015,-0.060
3.567,-0.020,-0.055
3.569,-0.055,-0.040
3.572,-0.080,-0.010
3.575,-0.085,0.025
3.578,-0.080,0.040
3.581,-0.080,0.030
3.583,-0.110,0.020
3.586,-0.135,0.015
3.589,-0.140,0.020
3.592,-0.155,0.030
3.594,-0.145,0.060
3.597,-0.150,0.060
3.600,-0.175,0.055
3.603,-0.185,0.055
3.606,-0.200,0.070
3.608,-0.185,0.095
3.611,-0.170,0.105
3.614,-0.165,0.085
3.617,-0.190,0.060
3.619,-0.220,0.030
3.622,-0.220,0.055
3.625,-0.225,0.070
3.628,-0.210,0.100
3.631,-0.210,0.085
3.633,-0.230,0.080
3.636,-0.220,0.080
3.639,-0.235,0.075
3.642,-0.210,0.070
3.644,-0.210,0.075
3.647,-0.205,0.060
3.650,-0.230,0.050
3.653,-0.240,0.050
3.656,-0.230,0.065
3.658,-0.225,0.075
3.661,-0.205,0.085
3.664,-0.205,0.080
3.667,-0.200,0.065
3.669,-0.195,0.055
3.672,-0.190,0.040
3.675,-0.185,0.055
3.678,-0.165,0.070
3.681,-0.170,0.050
3.683,-0.190,0.040
3.686,-0.195,0.040
3.689,-0.200,0.055
3.692,-0.195,0.070
3.694,-0.180,0.085
3.697,-0.180,0.090
3.700,-0.180,0.070
3.703,-0.195,0.040
3.706,-0.205,0.035
3.708,-0.185,0.055
3.711,-0.160,0.070
3.714,-0.165,0.055
3.717,-0.165,0.040
3.719,-0.200,0.055
3.722,-0.200,0.060
3.725,-0.200,0.085
3.728,-0.200,0.075
3.731,-0.175,0.075
3.733,-0.175,0.030
3.736,-0.190,0.015
3.739,-0.205,0.030
3.742,-0.215,0.050
3.744,-0.200,0.075
3.747,-0.185,0.090
3.750,-0.190,0.060
3.753,-0.200,0.060
3.756,-0.200,0.060
3.758,-0.190,0.075
3.761,-0.170,0.065
3.764,-0.175,0.065
3.767,-0.195,0.045
3.769,-0.215,0.045
3.772,-0.215,0.060
3.775,-0.215,0.090
3.778,-0.190,0.120
3.781,-0.195,0.095
3.783,-0.205,0.090
3.786,-0.200,0.090
3.789,-0.210,0.070
3.792,-0.205,0.080
3.794,-0.170,0.105
3.797,-0.160,0.100
3.800,-0.180,0.095
3.803,-0.190,0.100
3.806,-0.180,0.120
3.808,-0.160,0.145
3.811,-0.125,0.165
3.814,-0.115,0.165
3.817,-0.090,0.150
3.819,-0.090,0.125
3.822,-0.100,0.110
3.825,-0.075,0.105
3.828,-0.050,0.095
3.831,-0.040,0.075
3.833,-0.035,0.065
3.836,-0.050,0.040
3.839,-0.020,0.050
3.842,0.030,0.070
3.844,0.065,0.075
3.847,0.075,0.055
3.850,0.080,0.045
3.853,0.050,0.045
3.856,0.040,0.060
3.858,0.040,0.095
3.861,0.040,0.100
3.864,0.040,0.095
3.867,0.000,0.080
3.869,-0.040,0.075
3.872,-0.095,0.070
3.875,-0.095,0.070
3.878,-0.120,0.085
3.881,-0.140,0.065
3.883,-0.165,0.040
3.886,-0.205,0.035
3.889,-0.210,0.055
3.892,-0.205,0.085
3.894,-0.205,0.085
3.897,-0.205,0.075
3.900,-0.230,0.055
3.903,-0.250,0.040
3.906,-0.250,0.030
3.908,-0.250,0.055
3.911,-0.250,0.075
3.914,-0.255,0.060
3.917,-0.275,0.055
3.919,-0.300,0.055
3.922,-0.305,0.070
3.925,-0.295,0.085
3.928,-0.280,0.080
3.931,-0.275,0.075
3.933,-0.285,0.065
3.936,-0.290,0.030
3.939,-0.300,0.030
3.942,-0.285,0.065
3.944,-0.280,0.095
3.947,-0.260,0.100
3.950,-0.265,0.080
3.953,-0.280,0.060
3.956,-0.275,0.060
3.958,-0.245,0.100
3.961,-0.230,0.130
3.964,-0.220,0.125
3.967,-0.205,0.105
3.969,-0.210,0.060
3.972,-0.190,0.015
3.975,-0.130,0.010
3.978,-0.040,0.015
3.981,0.040,-0.005
3.983,0.165,-0.020
3.986,0.305,-0.025
3.989,0.475,0.015
3.992,0.690,0.100
3.994,0.895,0.255
3.997,1.065,0.405
4.000,1.190,0.560
4.003,1.245,0.715
4.006,1.190,0.860
4.008,1.015,0.955
4.011,0.720,0.990
4.014,0.320,0.940
4.017,-0.100,0.900
4.019,-0.450,0.880
4.022,-0.615,0.915
4.025,-0.640,0.995
4.028,-0.585,1.105
4.031,-0.560,1.200
4.033,-0.590,1.255
4.036,-0.635,1.295
4.039,-0.670,1.335
4.042,-0.700,1.385
4.044,-0.720,1.445
4.047,-0.735,1.505
4.050,-0.725,1.555
4.053,-0.750,1.580
4.056,-0.750,1.595
4.058,-0.750,1.550
4.061,-0.745,1.420
4.064,-0.730,1.230
4.067,-0.735,1.010
4.069,-0.705,0.810
4.072,-0.660,0.650
4.075,-0.610,0.510
4.078,-0.565,0.405
4.081,-0.510,0.295
4.083,-0.465,0.205
4.086,-0.440,0.145
4.089,-0.375,0.100
4.092,-0.315,0.090
4.094,-0.260,0.055
4.097,-0.225,0.025
4.100,-0.195,-0.015
4.103,-0.190,-0.025
4.106,-0.190,-0.040
4.108,-0.170,-0.030
4.111,-0.150,-0.030
4.114,-0.130,-0.040
4.117,-0.130,-0.075
4.119,-0.125,-0.120
4.122,-0.115,-0.130
4.125,-0.100,-0.125
4.128,-0.085,-0.110
4.131,-0.090,-0.110
4.133,-0.090,-0.135
4.136,-0.105,-0.160
4.139,-0.095,-0.155
4.142,-0.080,-0.160
4.144,-0.060,-0.160
4.147,-0.060,-0.180
4.150,-0.050,-0.215
4.153,-0.045,-0.215
4.156,-0.040,-0.210
4.158,-0.035,-0.210
4.161,-0.010,-0.200
4.164,0.005,-0.220
4.167,0.005,-0.255
4.169,-0.015,-0.285
4.172,0.000,-0.305
4.175,0.020,-0.290
4.178,0.035,-0.295
4.181,0.045,-0.320
4.183,0.030,-0.330
4.186,0.025,-0.345
4.189,0.030,-0.370
4.192,0.060,-0.345
4.194,0.085,-0.370
4.197,0.095,-0.395
4.200,0.100,-0.425
4.203,0.115,-0.460
4.206,0.125,-0.480
4.208,0.130,-0.475
4.211,0.160,-0.480
4.214,0.170,-0.475
4.217,0.175,-0.505
4.219,0.180,-0.530
4.222,0.180,-0.530
4.225,0.210,-0.545
4.228,0.250,-0.540
4.231,0.260,-0.575
4.233,0.260,-0.590
4.236,0.250,-0.585
4.239,0.265,-0.545
4.242,0.275,-0.525
4.244,0.305,-0.485
4.247,0.330,-0.470
4.250,0.315,-0.475
4.253,0.290,-0.455
4.256,0.280,-0.435
4.258,0.265,-0.380
4.261,0.250,-0.345
4.264,0.240,-0.300
4.267,0.210,-0.305
4.269,0.180,-0.275
4.272,0.165,-0.245
4.275,0.140,-0.210
4.278,0.145,-0.175
4.281,0.130,-0.170
4.283,0.080,-0.145
4.286,0.055,-0.135
4.289,0.030,-0.095
4.292,0.020,-0.060
4.294,0.015,-0.015
4.297,0.010,0.005
4.300,-0.025,0.010
4.303,-0.055,0.020
4.306,-0.080,0.020
4.308,-0.080,0.040
4.311,-0.075,0.070
4.314,-0.095,0.075
4.317,-0.125,0.075
4.319,-0.150,0.075
4.322,-0.180,0.125
4.325,-0.175,0.135
4.328,-0.165,0.140
4.331,-0.170,0.120
4.333,-0.190,0.100
4.336,-0.215,0.120
4.339,-0.235,0.125
4.342,-0.230,0.140
4.344,-0.205,0.160
4.347,-0.210,0.175
4.350,-0.210,0.150
4.353,-0.225,0.130
4.356,-0.225,0.130
4.358,-0.215,0.140
4.361,-0.185,0.145
4.364,-0.195,0.150
4.367,-0.225,0.125
4.369,-0.250,0.120
4.372,-0.245,0.140
4.375,-0.235,0.160
4.378,-0.220,0.175
4.381,-0.200,0.175
4.383,-0.195,0.150
4.386,-0.210,0.130
4.389,-0.205,0.115
4.392,-0.200,0.135
4.394,-0.195,0.140
4.397,-0.200,0.145
4.400,-0.215,0.145
4.403,-0.225,0.140
4.406,-0.230,0.160
4.408,-0.215,0.155
4.411,-0.205,0.170
4.414,-0.205,0.140
4.417,-0.190,0.105
4.419,-0.190,0.100
4.422,-0.210,0.120
4.425,-0.205,0.145
4.428,-0.190,0.175
4.431,-0.190,0.170
4.433,-0.175,0.135
4.436,-0.195,0.120
4.439,-0.200,0.120
4.442,-0.195,0.120
4.444,-0.175,0.130
4.447,-0.175,0.140
4.450,-0.195,0.145
4.453,-0.215,0.140
4.456,-0.225,0.140
4.458,-0.220,0.155
4.461,-0.195,0.160
4.464,-0.195,0.135
4.467,-0.195,0.130
4.469,-0.200,0.110
4.472,-0.230,0.120
4.475,-0.210,0.140
4.478,-0.200,0.145
4.481,-0.205,0.155
4.483,-0.215,0.150
4.486,-0.235,0.155
4.489,-0.240,0.150
4.492,-0.205,0.160
4.494,-0.205,0.180
4.497,-0.200,0.160
4.500,-0.210,0.130
4.503,-0.225,0.125
4.506,-0.220,0.125
4.508,-0.225,0.145
4.511,-0.220,0.160
4.514,-0.220,0.160
4.517,-0.225,0.175
4.519,-0.240,0.155
4.522,-0.235,0.170
4.525,-0.215,0.180
4.528,-0.195,0.185
4.531,-0.190,0.195
4.533,-0.200,0.170
4.536,-0.210,0.190
4.539,-0.185,0.190
4.542,-0.160,0.235
4.544,-0.130,0.255
4.547,-0.110,0.230
4.550,-0.105,0.195
4.553,-0.110,0.165
4.556,-0.085,0.155
4.558,-0.065,0.155
4.561,-0.040,0.150
4.564,-0.025,0.125
4.567,-0.025,0.115
4.569,-0.035,0.110
4.572,-0.020,0.120
4.575,0.015,0.130
4.578,0.030,0.155
4.581,0.050,0.140
4.583,0.035,0.120
4.586,0.035,0.105
4.589,0.030,0.125
4.592,0.040,0.140
4.594,0.050,0.150
4.597,0.055,0.140
4.600,0.045,0.135
4.603,0.025,0.125
4.606,0.010,0.145
4.608,0.010,0.150
4.611,-0.005,0.175
4.614,-0.025,0.165
4.617,-0.050,0.150
4.619,-0.090,0.140
4.622,-0.125,0.145
4.625,-0.145,0.135
4.628,-0.170,0.145
4.631,-0.190,0.130
4.633,-0.230,0.125
4.636,-0.245,0.130
4.639,-0.255,0.130
4.642,-0.270,0.150
4.644,-0.270,0.155
4.647,-0.270,0.120
4.650,-0.295,0.105
4.653,-0.315,0.105
4.656,-0.325,0.135
4.658,-0.325,0.165
4.661,-0.300,0.155
4.664,-0.310,0.135
4.667,-0.315,0.130
4.669,-0.325,0.120
4.672,-0.330,0.135
4.675,-0.330,0.150
4.678,-0.310,0.180
4.681,-0.290,0.170
4.683,-0.305,0.170
4.686,-0.310,0.150
4.689,-0.300,0.145
4.692,-0.290,0.175
4.694,-0.255,0.170
4.697,-0.255,0.180
4.700,-0.250,0.180
4.703,-0.260,0.170
4.706,-0.255,0.155
4.708,-0.240,0.135
4.711,-0.210,0.130
4.714,-0.180,0.105
4.717,-0.140,0.055
4.719,-0.115,0.035
4.722,-0.035,0.035
4.725,0.095,0.070
4.728,0.255,0.090
4.731,0.410,0.105
4.733,0.605,0.190
4.736,0.805,0.325
4.739,0.980,0.530
4.742,1.135,0.745
4.744,1.155,0.940
4.747,0.945,1.005
4.750,0.525,0.975
4.753,0.035,0.905
4.756,-0.350,0.900
4.758,-0.555,0.950
4.761,-0.555,1.035
4.764,-0.500,1.140
4.767,-0.515,1.225
4.769,-0.585,1.285
4.772,-0.635,1.345
4.775,-0.655,1.390
4.778,-0.665,1.410
4.781,-0.680,1.435
4.783,-0.700,1.465
4.786,-0.715,1.500
4.789,-0.710,1.550
4.792,-0.720,1.615
4.794,-0.725,1.650
4.797,-0.730,1.630
4.800,-0.720,1.620
4.803,-0.740,1.590
4.806,-0.750,1.540
4.808,-0.750,1.485
4.811,-0.745,1.435
4.814,-0.755,1.330
4.817,-0.740,1.200
4.819,-0.745,1.080
4.822,-0.720,0.975
4.825,-0.680,0.880
4.828,-0.645,0.775
4.831,-0.610,0.645
4.833,-0.590,0.500
4.836,-0.560,0.375
4.839,-0.510,0.290
4.842,-0.475,0.240
4.844,-0.375,0.200
4.847,-0.320,0.160
4.850,-0.275,0.070
4.853,-0.240,0.035
4.856,-0.215,0.020
4.858,-0.200,0.020
4.861,-0.185,0.020
4.864,-0.165,0.000
4.867,-0.150,-0.035
4.869,-0.160,-0.070
4.872,-0.140,-0.090
4.875,-0.130,-0.075
4.878,-0.125,-0.075
4.881,-0.120,-0.090
4.883,-0.125,-0.100
4.886,-0.125,-0.120
4.889,-0.120,-0.110
4.892,-0.120,-0.120
4.894,-0.085,-0.110
4.897,-0.070,-0.115
4.900,-0.095,-0.150
4.903,-0.115,-0.175
4.906,-0.105,-0.180
4.908,-0.085,-0.175
4.911,-0.070,-0.165
4.914,-0.050,-0.165
4.917,-0.075,-0.190
4.919,-0.080,-0.195
4.922,-0.070,-0.190
4.925,-0.055,-0.175
4.928,-0.040,-0.190
4.931,-0.020,-0.210
4.933,-0.035,-0.225
4.936,-0.040,-0.275
4.939,-0.030,-0.285
4.942,-0.020,-0.285
4.944,0.000,-0.300
4.947,0.015,-0.320
4.950,0.010,-0.350
4.953,0.010,-0.375
4.956,0.020,-0.405
4.958,0.055,-0.410
4.961,0.085,-0.425
4.964,0.100,-0.465
4.967,0.100,-0.490
4.969,0.080,-0.515
4.972,0.100,-0.505
4.975,0.135,-0.510
4.978,0.160,-0.510
4.981,0.180,-0.535
4.983,0.190,-0.550
4.986,0.175,-0.565
4.989,0.175,-0.560
4.992,0.190,-0.530
4.994,0.215,-0.505
4.997,0.210,-0.480
5.000,0.210,-0.490
5.003,0.200,-0.495
5.006,0.195,-0.455
5.008,0.215,-0.445
5.011,0.215,-0.420
5.014,0.215,-0.420
5.017,0.215,-0.415
5.019,0.190,-0.410
5.022,0.175,-0.375
5.025,0.165,-0.325
5.028,0.165,-0.275
5.031,0.140,-0.235
5.033,0.115,-0.235
5.036,0.085,-0.220
5.039,0.060,-0.185
5.042,0.050,-0.150
5.044,0.045,-0.115
5.047,0.000,-0.090
5.050,-0.025,-0.065
5.053,-0.055,-0.050
5.056,-0.070,0.005
5.058,-0.095,0.040
5.061,-0.090,0.050
5.064,-0.090,0.055
5.067,-0.115,0.050
5.069,-0.140,0.060
5.072,-0.180,0.070
5.075,-0.180,0.120
5.078,-0.180,0.145
5.081,-0.200,0.155
5.083,-0.220,0.150
5.086,-0.240,0.135
5.089,-0.245,0.130
5.092,-0.265,0.140
5.094,-0.240,0.145
5.097,-0.235,0.150
5.100,-0.260,0.150
5.103,-0.265,0.140
5.106,-0.280,0.170
5.108,-0.280,0.190
5.111,-0.255,0.200
5.114,-0.255,0.190
5.117,-0.250,0.160
5.119,-0.270,0.140
5.122,-0.270,0.150
5.125,-0.260,0.155
5.128,-0.250,0.165
5.131,-0.250,0.175
5.133,-0.275,0.165
5.136,-0.275,0.165
5.139,-0.290,0.165
5.142,-0.275,0.175
5.144,-0.250,0.200
5.147,-0.250,0.180
5.150,-0.250,0.165
5.153,-0.260,0.140
5.156,-0.265,0.135
5.158,-0.265,0.155
5.161,-0.265,0.170
5.164,-0.265,0.155
5.167,-0.285,0.155
5.169,-0.290,0.145
5.172,-0.280,0.150
5.175,-0.260,0.155
5.178,-0.240,0.165
5.181,-0.240,0.150
5.183,-0.245,0.135
5.186,-0.280,0.125
5.189,-0.295,0.145
5.192,-0.280,0.170
5.194,-0.255,0.185
5.197,-0.250,0.170
5.200,-0.255,0.150
5.203,-0.275,0.130
5.206,-0.275,0.135
5.208,-0.280,0.145
5.211,-0.275,0.155
5.214,-0.275,0.165
5.217,-0.280,0.150
5.219,-0.300,0.160
5.222,-0.310,0.170
5.225,-0.315,0.180
5.228,-0.290,0.195
5.231,-0.265,0.180
5.233,-0.285,0.145
5.236,-0.295,0.115
5.239,-0.300,0.130
5.242,-0.300,0.155
5.244,-0.305,0.170
5.247,-0.295,0.195
5.250,-0.300,0.190
5.253,-0.310,0.205
5.256,-0.305,0.195
5.258,-0.270,0.200
5.261,-0.250,0.205
5.264,-0.235,0.190
5.267,-0.225,0.190
5.269,-0.215,0.190
5.272,-0.215,0.185
5.275,-0.185,0.200
5.278,-0.160,0.185
5.281,-0.140,0.165
5.283,-0.125,0.100
5.286,-0.105,0.090
5.289,-0.095,0.090
5.292,-0.075,0.135
5.294,-0.055,0.160
5.297,-0.045,0.170
5.300,-0.055,0.155
5.303,-0.075,0.145
5.306,-0.100,0.135
5.308,-0.100,0.140
5.311,-0.125,0.165
5.314,-0.155,0.160
5.317,-0.235,0.160
5.319,-0.275,0.145
5.322,-0.295,0.150
5.325,-0.310,0.150
5.328,-0.305,0.120
5.331,-0.315,0.125
5.333,-0.345,0.105
5.336,-0.370,0.100
5.339,-0.385,0.115
5.342,-0.390,0.145
5.344,-0.385,0.160
5.347,-0.385,0.165
5.350,-0.400,0.130
5.353,-0.415,0.115
5.356,-0.420,0.110
5.358,-0.415,0.135
5.361,-0.430,0.130
5.364,-0.415,0.130
5.367,-0.440,0.130
5.369,-0.465,0.140
5.372,-0.460,0.140
5.375,-0.450,0.140
5.378,-0.430,0.150
5.381,-0.430,0.140
5.383,-0.425,0.115
5.386,-0.460,0.100
5.389,-0.465,0.105
5.392,-0.435,0.150
5.394,-0.410,0.200
5.397,-0.380,0.220
5.400,-0.375,0.155
5.403,-0.350,0.065
5.406,-0.285,-0.010
5.408,-0.180,0.000
5.411,-0.010,0.020
5.414,0.180,0.075
5.417,0.415,0.155
5.419,0.650,0.315
5.422,0.845,0.505
5.425,0.955,0.680
5.428,0.935,0.825
5.431,0.695,0.890
5.433,0.320,0.865
5.436,-0.090,0.835
5.439,-0.425,0.850
5.442,-0.615,0.875
5.444,-0.675,0.920
5.447,-0.645,0.965
5.450,-0.650,1.015
5.453,-0.670,1.045
5.456,-0.710,1.095
5.458,-0.750,1.160
5.461,-0.775,1.250
5.464,-0.810,1.300
5.467,-0.860,1.330
5.469,-0.890,1.355
5.472,-0.880,1.425
5.475,-0.860,1.500
5.478,-0.845,1.535
5.481,-0.865,1.530
5.483,-0.905,1.470
5.486,-0.930,1.350
5.489,-0.945,1.235
5.492,-0.915,1.100
5.494,-0.865,0.920
5.497,-0.810,0.705
5.500,-0.770,0.505
5.503,-0.750,0.335
5.506,-0.730,0.215
5.508,-0.635,0.175
5.511,-0.590,0.145
5.514,-0.520,0.120
5.517,-0.470,0.075
5.519,-0.430,0.025
5.522,-0.410,-0.010
5.525,-0.385,-0.035
5.528,-0.370,-0.040
5.531,-0.370,-0.040
5.533,-0.375,-0.070
5.536,-0.390,-0.085
5.539,-0.380,-0.065
5.542,-0.355,-0.055
5.544,-0.350,-0.060
5.547,-0.335,-0.105
5.550,-0.345,-0.135
5.553,-0.330,-0.165
5.556,-0.320,-0.150
5.558,-0.330,-0.140
5.561,-0.310,-0.135
5.564,-0.290,-0.145
5.567,-0.305,-0.150
5.569,-0.295,-0.165
5.572,-0.300,-0.170
5.575,-0.275,-0.185
5.578,-0.265,-0.205
5.581,-0.260,-0.225
5.583,-0.275,-0.245
5.586,-0.295,-0.260
5.589,-0.290,-0.265
5.592,-0.275,-0.250
5.594,-0.250,-0.245
5.597,-0.235,-0.285
5.600,-0.215,-0.335
5.603,-0.220,-0.360
5.606,-0.215,-0.380
5.608,-0.200,-0.395
5.611,-0.195,-0.400
5.614,-0.195,-0.425
5.617,-0.180,-0.430
5.619,-0.180,-0.475
5.622,-0.155,-0.485
5.625,-0.135,-0.485
5.628,-0.110,-0.505
5.631,-0.080,-0.520
5.633,-0.085,-0.550
5.636,-0.105,-0.570
5.639,-0.090,-0.555
5.642,-0.065,-0.560
5.644,-0.040,-0.530
5.647,-0.020,-0.520
5.650,-0.010,-0.540
5.653,-0.005,-0.545
5.656,-0.010,-0.540
5.658,0.005,-0.525
5.661,0.015,-0.485
5.664,0.010,-0.470
5.667,0.005,-0.445
5.669,-0.020,-0.435
5.672,-0.030,-0.395
5.675,-0.030,-0.355
5.678,-0.015,-0.335
5.681,-0.050,-0.320
5.683,-0.095,-0.315
5.686,-0.105,-0.290
5.689,-0.145,-0.260
5.692,-0.150,-0.205
5.694,-0.160,-0.165
5.697,-0.170,-0.120
5.700,-0.205,-0.130
5.703,-0.235,-0.125
5.706,-0.275,-0.100
5.708,-0.260,-0.060
5.711,-0.250,-0.025
5.714,-0.270,-0.030
5.717,-0.305,-0.005
5.719,-0.355,0.005
5.722,-0.360,0.025
5.725,-0.350,0.050
5.728,-0.340,0.070
5.731,-0.355,0.075
5.733,-0.375,0.070
5.736,-0.400,0.060
5.739,-0.410,0.075
5.742,-0.415,0.080
5.744,-0.420,0.105
5.747,-0.430,0.120
5.750,-0.445,0.110
5.753,-0.470,0.110
5.756,-0.480,0.110
5.758,-0.470,0.120
5.761,-0.430,0.135
5.764,-0.435,0.105
5.767,-0.450,0.095
5.769,-0.470,0.090
5.772,-0.485,0.105
5.775,-0.485,0.135
5.778,-0.465,0.135
5.781,-0.460,0.135
5.783,-0.455,0.120
5.786,-0.475,0.100
5.789,-0.470,0.100
5.792,-0.455,0.105
5.794,-0.440,0.115
5.797,-0.445,0.095
5.800,-0.465,0.080
5.803,-0.485,0.085
5.806,-0.475,0.105
5.808,-0.475,0.140
5.811,-0.440,0.145
5.814,-0.430,0.120
5.817,-0.450,0.095
5.819,-0.440,0.075
5.822,-0.445,0.085
5.825,-0.425,0.080
5.828,-0.415,0.115
5.831,-0.435,0.120
5.833,-0.430,0.115
5.836,-0.445,0.110
5.839,-0.460,0.095
5.842,-0.440,0.105
5.844,-0.425,0.105
5.847,-0.415,0.075
5.850,-0.425,0.065
5.853,-0.435,0.050
5.856,-0.440,0.090
5.858,-0.445,0.100
5.861,-0.425,0.140
5.864,-0.425,0.115
5.867,-0.440,0.085
5.869,-0.435,0.070
5.872,-0.435,0.060
5.875,-0.420,0.075
5.878,-0.420,0.105
5.881,-0.410,0.110
5.883,-0.425,0.120
5.886,-0.440,0.135
5.889,-0.430,0.125
5.892,-0.405,0.145
5.894,-0.380,0.145
5.897,-0.350,0.130
5.900,-0.340,0.100
5.903,-0.340,0.100
5.906,-0.340,0.120
5.908,-0.330,0.130
5.911,-0.325,0.140
5.914,-0.305,0.125
5.917,-0.305,0.105
5.919,-0.300,0.080
5.922,-0.270,0.060
5.925,-0.230,0.060
5.928,-0.175,0.050
5.931,-0.145,0.070
5.933,-0.150,0.060
5.936,-0.155,0.045
5.939,-0.185,0.080
5.942,-0.170,0.100
5.944,-0.150,0.125
5.947,-0.150,0.130
5.950,-0.170,0.100
5.953,-0.200,0.070
5.956,-0.230,0.080
5.958,-0.250,0.085
5.961,-0.285,0.110
5.964,-0.320,0.095
5.967,-0.370,0.085
5.969,-0.410,0.090
5.972,-0.425,0.070
5.975,-0.420,0.070
5.978,-0.415,0.065
5.981,-0.415,0.070
5.983,-0.425,0.050
5.986,-0.435,0.030
5.989,-0.440,0.050
5.992,-0.450,0.065
5.994,-0.445,0.085
5.997,-0.455,0.105
6.000,-0.455,0.085
6.003,-0.470,0.075
6.006,-0.480,0.070
6.008,-0.465,0.060
6.011,-0.455,0.075
6.014,-0.445,0.055
6.017,-0.455,0.055
6.019,-0.465,0.040
6.022,-0.470,0.060
6.025,-0.450,0.070
6.028,-0.465,0.095
6.031,-0.445,0.095
6.033,-0.440,0.065
6.036,-0.435,0.045
6.039,-0.430,0.045
6.042,-0.420,0.075
6.044,-0.405,0.090
6.047,-0.410,0.095
6.050,-0.420,0.120
6.053,-0.410,0.125
6.056,-0.405,0.120
6.058,-0.350,0.065
6.061,-0.295,0.020
6.064,-0.240,-0.045
6.067,-0.165,-0.060
6.069,-0.065,-0.080
6.072,0.095,-0.050
6.075,0.325,0.010
6.078,0.580,0.130
6.081,0.805,0.285
6.083,1.000,0.415
6.086,1.110,0.530
6.089,1.095,0.645
6.092,0.945,0.765
6.094,0.620,0.790
6.097,0.220,0.760
6.100,-0.230,0.730
6.103,-0.540,0.730
6.106,-0.700,0.800
6.108,-0.685,0.895
6.111,-0.630,0.985
6.114,-0.620,1.010
6.117,-0.645,1.035
6.119,-0.705,1.060
6.122,-0.775,1.145
6.125,-0.790,1.190
6.128,-0.785,1.240
6.131,-0.815,1.305
6.133,-0.820,1.355
6.136,-0.820,1.410
6.139,-0.815,1.440
6.142,-0.800,1.450
6.144,-0.805,1.430
6.147,-0.815,1.335
6.150,-0.810,1.205
6.153,-0.840,1.075
6.156,-0.815,0.930
6.158,-0.775,0.815
6.161,-0.710,0.695
6.164,-0.670,0.530
6.167,-0.625,0.370
6.169,-0.590,0.235
6.172,-0.555,0.130
6.175,-0.485,0.090
6.178,-0.410,0.055
6.181,-0.370,0.040
6.183,-0.330,0.020
6.186,-0.295,0.005
6.189,-0.275,-0.010
6.192,-0.235,-0.030
6.194,-0.210,-0.045
6.197,-0.195,-0.090
6.200,-0.185,-0.125
6.203,-0.180,-0.140
6.206,-0.170,-0.140
6.208,-0.175,-0.120
6.211,-0.135,-0.110
6.214,-0.110,-0.135
6.217,-0.105,-0.155
6.219,-0.115,-0.185
6.222,-0.105,-0.190
6.225,-0.085,-0.200
6.228,-0.060,-0.195
6.231,-0.065,-0.205
6.233,-0.065,-0.200
6.236,-0.075,-0.220
6.239,-0.060,-0.220
6.242,-0.035,-0.215
6.244,-0.010,-0.240
6.247,0.025,-0.285
6.250,0.020,-0.325
6.253,0.010,-0.340
6.256,0.010,-0.330
6.258,0.020,-0.310
6.261,0.060,-0.335
6.264,0.070,-0.360
6.267,0.075,-0.400
6.269,0.110,-0.455
6.272,0.130,-0.470
6.275,0.150,-0.465
6.278,0.175,-0.475
6.281,0.185,-0.490
6.283,0.185,-0.525
6.286,0.210,-0.575
6.289,0.240,-0.595
6.292,0.265,-0.590
6.294,0.295,-0.575
6.297,0.290,-0.585
6.300,0.290,-0.595
6.303,0.300,-0.600
6.306,0.305,-0.580
6.308,0.340,-0.540
6.311,0.350,-0.545
6.314,0.370,-0.535
6.317,0.370,-0.565
6.319,0.360,-0.545
6.322,0.350,-0.490
6.325,0.340,-0.430
6.328,0.350,-0.380
6.331,0.335,-0.370
6.333,0.310,-0.355
6.336,0.285,-0.340
6.339,0.265,-0.305
6.342,0.255,-0.265
6.344,0.235,-0.220
6.347,0.205,-0.200
6.350,0.160,-0.165
6.353,0.145,-0.125
6.356,0.125,-0.055
6.358,0.120,-0.015
6.361,0.095,0.000
6.364,0.075,-0.005
6.367,0.040,0.015
6.369,0.005,0.035
6.372,-0.015,0.065
6.375,-0.015,0.100
6.378,-0.015,0.105
6.381,-0.015,0.090
6.383,-0.030,0.065
6.386,-0.040,0.065
6.389,-0.050,0.075
6.392,-0.045,0.105
6.394,-0.045,0.140
6.397,-0.045,0.145
6.400,-0.055,0.135
6.403,-0.070,0.105
6.406,-0.075,0.100
6.408,-0.070,0.125
6.411,-0.065,0.135
6.414,-0.055,0.135
6.417,-0.065,0.135
6.419,-0.065,0.120
6.422,-0.055,0.115
6.425,-0.055,0.120
6.428,-0.035,0.105
6.431,-0.035,0.100
6.433,-0.030,0.115
6.436,-0.040,0.120
6.439,-0.045,0.115
6.442,-0.025,0.090
6.444,-0.010,0.115
6.447,0.000,0.115
6.450,-0.005,0.095
6.453,-0.025,0.110
6.456,-0.035,0.105
6.458,-0.035,0.135
6.461,0.015,0.145
6.464,0.020,0.115
6.467,0.015,0.080
6.469,-0.020,0.080
6.472,-0.020,0.075
6.475,-0.020,0.095
6.478,-0.005,0.130
6.481,-0.005,0.145
6.483,-0.005,0.135
6.486,-0.010,0.135
6.489,-0.005,0.140
6.492,0.035,0.165
6.494,0.045,0.165
6.497,0.055,0.160
6.500,0.075,0.170
6.503,0.080,0.145
6.506,0.100,0.130
6.508,0.115,0.125
6.511,0.155,0.105
6.514,0.170,0.075
6.517,0.175,0.045
6.519,0.185,0.050
6.522,0.200,0.070
6.525,0.210,0.100
6.528,0.230,0.125
6.531,0.250,0.120
6.533,0.230,0.105
6.536,0.215,0.095
6.539,0.210,0.090
6.542,0.190,0.120
6.544,0.150,0.145
6.547,0.145,0.140
6.550,0.085,0.135
6.553,0.050,0.115
6.556,0.010,0.110
6.558,-0.005,0.090
6.561,-0.015,0.085
6.564,-0.025,0.090
6.567,-0.055,0.090
6.569,-0.075,0.090
6.572,-0.095,0.105
6.575,-0.090,0.130
6.578,-0.080,0.135
6.581,-0.070,0.110
6.583,-0.085,0.080
6.586,-0.125,0.075
6.589,-0.120,0.080
6.592,-0.130,0.110
6.594,-0.115,0.125
6.597,-0.125,0.130
6.600,-0.135,0.100
6.603,-0.140,0.095
6.606,-0.130,0.075
6.608,-0.115,0.095
6.611,-0.110,0.110
6.614,-0.115,0.110
6.617,-0.130,0.125
6.619,-0.130,0.120
6.622,-0.130,0.140
6.625,-0.100,0.170
6.628,-0.065,0.200
6.631,-0.040,0.165
6.633,-0.020,0.100
6.636,-0.015,0.020
6.639,0.035,-0.005
6.642,0.125,-0.005
6.644,0.295,0.035
6.647,0.480,0.065
6.650,0.710,0.120
6.653,0.940,0.270
6.656,1.155,0.460
6.658,1.330,0.660
6.661,1.350,0.820
6.664,1.140,0.935
6.667,0.735,0.940
6.669,0.265,0.900
6.672,-0.130,0.905
6.675,-0.360,0.940
6.678,-0.395,1.000
6.681,-0.350,1.055
6.683,-0.345,1.105
6.686,-0.400,1.170
6.689,-0.470,1.245
6.692,-0.505,1.315
6.694,-0.515,1.365
6.697,-0.530,1.410
6.700,-0.565,1.440
6.703,-0.570,1.495
6.706,-0.565,1.555
6.708,-0.550,1.615
6.711,-0.540,1.645
6.714,-0.565,1.610
6.717,-0.590,1.500
6.719,-0.620,1.355
6.722,-0.605,1.195
6.725,-0.550,1.015
6.728,-0.480,0.820
6.731,-0.435,0.620
6.733,-0.390,0.435
6.736,-0.355,0.305
6.739,-0.295,0.230
6.742,-0.235,0.190
6.744,-0.150,0.170
6.747,-0.080,0.120
6.750,-0.045,0.070
6.753,-0.045,0.025
6.756,-0.020,0.020
6.758,-0.005,0.020
6.761,0.015,0.015
6.764,0.020,0.000
6.767,0.030,-0.010
6.769,0.030,-0.030
6.772,0.030,-0.045
6.775,0.050,-0.055
6.778,0.085,-0.065
6.781,0.095,-0.070
6.783,0.085,-0.105
6.786,0.070,-0.115
6.789,0.065,-0.105
6.792,0.080,-0.090
6.794,0.100,-0.095
6.797,0.100,-0.125
6.800,0.115,-0.145
6.803,0.100,-0.175
6.806,0.115,-0.185
6.808,0.130,-0.195
6.811,0.140,-0.200
6.814,0.140,-0.200
6.817,0.130,-0.220
6.819,0.135,-0.240
6.822,0.150,-0.265
6.825,0.175,-0.270
6.828,0.200,-0.305
6.831,0.210,-0.320
6.833,0.210,-0.355
6.836,0.185,-0.370
6.839,0.215,-0.375
6.842,0.225,-0.375
6.844,0.245,-0.375
6.847,0.275,-0.400
6.850,0.280,-0.455
6.853,0.280,-0.495
6.856,0.295,-0.510
6.858,0.320,-0.515
6.861,0.335,-0.515
6.864,0.365,-0.515
6.867,0.360,-0.525
6.869,0.360,-0.550
6.872,0.385,-0.545
6.875,0.405,-0.535
6.878,0.430,-0.520
6.881,0.415,-0.525
6.883,0.410,-0.505
6.886,0.395,-0.495
6.889,0.380,-0.460
6.892,0.390,-0.420
6.894,0.395,-0.395
6.897,0.400,-0.370
6.900,0.385,-0.355
6.903,0.345,-0.345
6.906,0.315,-0.300
6.908,0.290,-0.270
6.911,0.285,-0.185
6.914,0.255,-0.165
6.917,0.235,-0.130
6.919,0.195,-0.130
6.922,0.180,-0.080
6.925,0.150,-0.050
6.928,0.130,-0.030
6.931,0.115,0.000
6.933,0.085,0.020
6.936,0.055,0.050
6.939,0.035,0.065
6.942,0.025,0.120
6.944,0.015,0.120
6.947,0.010,0.110
6.950,-0.015,0.115
6.953,-0.060,0.105
6.956,-0.080,0.135
6.958,-0.085,0.175
6.961,-0.075,0.195
6.964,-0.080,0.185
6.967,-0.090,0.165
6.969,-0.105,0.145
6.972,-0.110,0.160
6.975,-0.085,0.170
6.978,-0.085,0.185
6.981,-0.090,0.185
6.983,-0.105,0.195
6.986,-0.130,0.195
6.989,-0.115,0.190
6.992,-0.105,0.195
6.994,-0.085,0.195
6.997,-0.100,0.165
7.000,-0.110,0.175
7.003,-0.130,0.195
7.006,-0.125,0.220
7.008,-0.110,0.225
7.011,-0.085,0.210
7.014,-0.100,0.190
7.017,-0.085,0.175
7.019,-0.100,0.145
7.022,-0.090,0.165
7.025,-0.085,0.195
7.028,-0.090,0.220
7.031,-0.110,0.220
7.033,-0.120,0.200
7.036,-0.105,0.180
7.039,-0.090,0.150
7.042,-0.075,0.175
7.044,-0.065,0.185
7.047,-0.070,0.190
7.050,-0.085,0.190
7.053,-0.100,0.190
7.056,-0.110,0.170
7.058,-0.080,0.185
7.061,-0.065,0.185
7.064,-0.050,0.175
7.067,-0.070,0.155
7.069,-0.105,0.150
7.072,-0.090,0.195
7.075,-0.075,0.235
7.078,-0.040,0.245
7.081,-0.005,0.220
7.083,0.005,0.195
7.086,-0.015,0.205
7.089,-0.005,0.220
7.092,0.025,0.200
7.094,0.060,0.200
7.097,0.085,0.185
7.100,0.095,0.155
7.103,0.110,0.135
7.106,0.135,0.115
7.108,0.160,0.135
7.111,0.165,0.180
7.114,0.155,0.175
7.117,0.145,0.175
7.119,0.130,0.170
7.122,0.130,0.170
7.125,0.110,0.170
7.128,0.085,0.175
7.131,0.050,0.180
7.133,-0.020,0.155
7.136,-0.075,0.160
7.139,-0.105,0.165
7.142,-0.110,0.170
7.144,-0.110,0.175
7.147,-0.125,0.160
7.150,-0.150,0.140
7.153,-0.175,0.140
7.156,-0.205,0.145
7.158,-0.200,0.160
7.161,-0.195,0.170
7.164,-0.195,0.180
7.167,-0.195,0.140
7.169,-0.205,0.135
7.172,-0.230,0.135
7.175,-0.235,0.160
7.178,-0.225,0.170
7.181,-0.225,0.165
7.183,-0.220,0.150
7.186,-0.240,0.130
7.189,-0.230,0.135
7.192,-0.230,0.135
7.194,-0.195,0.150
7.197,-0.185,0.135
7.200,-0.200,0.135
7.203,-0.205,0.165
7.206,-0.215,0.195
7.208,-0.180,0.210
7.211,-0.140,0.160
7.214,-0.100,0.070
7.217,-0.025,0.015
7.219,0.090,0.005
7.222,0.275,0.035
7.225,0.510,0.120
7.228,0.795,0.315
7.231,1.050,0.525
7.233,1.225,0.710
7.236,1.265,0.855
7.239,1.090,0.935
7.242,0.745,0.955
7.244,0.305,0.940
7.247,-0.120,0.925
7.250,-0.415,0.945
7.253,-0.535,0.990
7.256,-0.500,1.075
7.258,-0.455,1.160
7.261,-0.455,1.220
7.264,-0.515,1.270
7.267,-0.580,1.310
7.269,-0.625,1.370
7.272,-0.675,1.435
7.275,-0.665,1.540
7.278,-0.645,1.610
7.281,-0.635,1.635
7.283,-0.655,1.650
7.286,-0.680,1.590
7.289,-0.695,1.495
7.292,-0.715,1.365
7.294,-0.705,1.215
7.297,-0.670,1.025
7.300,-0.630,0.820
7.303,-0.580,0.620
7.306,-0.530,0.455
7.308,-0.460,0.325
7.311,-0.415,0.230
7.314,-0.340,0.190
7.317,-0.290,0.155
7.319,-0.265,0.110
7.322,-0.210,0.105
7.325,-0.180,0.080
7.328,-0.150,0.075
7.331,-0.135,0.020
7.333,-0.125,-0.005
7.336,-0.130,-0.040
7.339,-0.125,-0.040
7.342,-0.130,-0.035
7.344,-0.110,-0.015
7.347,-0.095,-0.030
7.350,-0.095,-0.065
7.353,-0.105,-0.080
7.356,-0.095,-0.100
7.358,-0.080,-0.100
7.361,-0.060,-0.095
7.364,-0.065,-0.120
7.367,-0.055,-0.145
7.369,-0.070,-0.140
7.372,-0.080,-0.145
7.375,-0.055,-0.135
7.378,-0.030,-0.150
7.381,-0.015,-0.160
7.383,-0.010,-0.220
7.386,-0.030,-0.225
7.389,-0.030,-0.245
7.392,-0.020,-0.225
7.394,0.010,-0.220
7.397,0.015,-0.250
7.400,0.020,-0.275
7.403,0.020,-0.320
7.406,0.025,-0.340
7.408,0.040,-0.375
7.411,0.065,-0.385
7.414,0.090,-0.405
7.417,0.100,-0.425
7.419,0.095,-0.450
7.422,0.105,-0.465
7.425,0.120,-0.465
7.428,0.150,-0.465
7.431,0.165,-0.495
7.433,0.170,-0.525
7.436,0.165,-0.560
7.439,0.170,-0.555
7.442,0.200,-0.535
7.444,0.210,-0.525
7.447,0.215,-0.520
7.450,0.220,-0.535
7.453,0.225,-0.530
7.456,0.225,-0.510
7.458,0.235,-0.505
7.461,0.260,-0.465
7.464,0.250,-0.440
7.467,0.210,-0.425
7.469,0.190,-0.395
7.472,0.160,-0.345
7.475,0.155,-0.285
7.478,0.165,-0.245
7.481,0.140,-0.245
7.483,0.110,-0.235
7.486,0.065,-0.195
7.489,0.035,-0.170
7.492,0.015,-0.120
7.494,0.000,-0.070
7.497,-0.020,-0.030
7.500,-0.030,-0.035
7.503,-0.055,-0.020
7.506,-0.080,0.000
7.508,-0.105,0.025
7.511,-0.100,0.040
7.514,-0.130,0.075
7.517,-0.160,0.085
7.519,-0.185,0.095
7.522,-0.195,0.115
7.525,-0.205,0.125
7.528,-0.190,0.130
7.531,-0.195,0.130
7.533,-0.225,0.110
7.536,-0.255,0.105
7.539,-0.265,0.130
7.542,-0.265,0.155
7.544,-0.250,0.165
7.547,-0.250,0.150
7.550,-0.260,0.150
7.553,-0.275,0.140
7.556,-0.290,0.140
7.558,-0.270,0.155
7.561,-0.260,0.160
7.564,-0.270,0.175
7.567,-0.270,0.170
7.569,-0.285,0.160
7.572,-0.305,0.150
7.575,-0.280,0.160
7.578,-0.280,0.165
7.581,-0.265,0.155
7.583,-0.280,0.140
7.586,-0.295,0.140
7.589,-0.305,0.155
7.592,-0.285,0.190
7.594,-0.280,0.200
7.597,-0.275,0.170
7.600,-0.280,0.150
7.603,-0.290,0.135
7.606,-0.280,0.130
7.608,-0.275,0.150
7.611,-0.290,0.155
7.614,-0.300,0.160
7.617,-0.295,0.155
7.619,-0.300,0.150
7.622,-0.300,0.125
7.625,-0.265,0.130
7.628,-0.255,0.115
7.631,-0.255,0.125
7.633,-0.270,0.095
7.636,-0.285,0.105
7.639,-0.295,0.130
7.642,-0.295,0.140
7.644,-0.280,0.150
7.647,-0.275,0.130
7.650,-0.280,0.110
7.653,-0.305,0.100
7.656,-0.290,0.110
7.658,-0.290,0.120
7.661,-0.300,0.160
7.664,-0.300,0.160
7.667,-0.310,0.150
7.669,-0.320,0.150
7.672,-0.325,0.160
7.675,-0.295,0.180
7.678,-0.275,0.190
7.681,-0.255,0.165
7.683,-0.250,0.155
7.686,-0.255,0.170
7.689,-0.235,0.195
7.692,-0.210,0.210
7.694,-0.190,0.205
7.697,-0.175,0.150
7.700,-0.170,0.120
7.703,-0.160,0.090
7.706,-0.150,0.085
7.708,-0.115,0.075
7.711,-0.090,0.110
7.714,-0.080,0.110
7.717,-0.065,0.120
7.719,-0.075,0.100
7.722,-0.070,0.100
7.725,-0.070,0.115
7.728,-0.075,0.135
7.731,-0.075,0.110
7.733,-0.110,0.105
7.736,-0.160,0.095
7.739,-0.190,0.120
7.742,-0.230,0.140
7.744,-0.260,0.140
7.747,-0.290,0.120
7.750,-0.325,0.095
7.753,-0.360,0.060
7.756,-0.375,0.075
7.758,-0.405,0.100
7.761,-0.390,0.115
7.764,-0.405,0.110
7.767,-0.430,0.110
7.769,-0.445,0.095
7.772,-0.450,0.070
7.775,-0.445,0.070
7.778,-0.445,0.090
7.781,-0.450,0.090
7.783,-0.470,0.080
7.786,-0.495,0.075
7.789,-0.500,0.095
7.792,-0.500,0.095
7.794,-0.475,0.110
7.797,-0.480,0.075
7.800,-0.485,0.065
7.803,-0.505,0.040
7.806,-0.505,0.050
7.808,-0.510,0.085
7.811,-0.485,0.100
7.814,-0.495,0.095
7.817,-0.495,0.100
7.819,-0.495,0.105
7.822,-0.470,0.100
7.825,-0.450,0.075
7.828,-0.405,0.025
7.831,-0.375,-0.040
7.833,-0.295,-0.075
7.836,-0.195,-0.060
7.839,-0.030,-0.010
7.842,0.205,0.035
7.844,0.445,0.150
7.847,0.675,0.310
7.850,0.860,0.480
7.853,0.970,0.635
7.856,0.930,0.775
7.858,0.665,0.865
7.861,0.270,0.895
7.864,-0.200,0.855
7.867,-0.615,0.830
7.869,-0.845,0.825
7.872,-0.865,0.905
7.875,-0.800,0.995
7.878,-0.785,1.090
7.881,-0.830,1.150
7.883,-0.885,1.190
7.886,-0.945,1.240
7.889,-0.980,1.285
7.892,-0.995,1.340
7.894,-1.005,1.405
7.897,-0.995,1.455
7.900,-0.990,1.490
7.903,-1.015,1.505
7.906,-1.040,1.505
7.908,-1.060,1.430
7.911,-1.060,1.325
7.914,-1.060,1.155
7.917,-1.050,0.970
7.919,-1.035,0.775
7.922,-0.970,0.600
7.925,-0.925,0.455
7.928,-0.885,0.315
7.931,-0.840,0.225
7.933,-0.795,0.165
7.936,-0.750,0.120
7.939,-0.685,0.075
7.942,-0.640,0.050
7.944,-0.605,0.030
7.947,-0.575,0.005
7.950,-0.575,-0.040
7.953,-0.575,-0.055
7.956,-0.585,-0.060
7.958,-0.565,-0.050
7.961,-0.535,-0.060
7.964,-0.520,-0.075
7.967,-0.515,-0.120
7.969,-0.515,-0.140
7.972,-0.520,-0.160
7.975,-0.510,-0.145
7.978,-0.510,-0.145
7.981,-0.515,-0.145
7.983,-0.490,-0.165
7.986,-0.500,-0.170
7.989,-0.485,-0.175
7.992,-0.465,-0.180
7.994,-0.460,-0.190
7.997,-0.460,-0.200
8.000,-0.470,-0.240
8.003,-0.475,-0.245
8.006,-0.480,-0.260
8.008,-0.465,-0.255
8.011,-0.460,-0.255
8.014,-0.425,-0.295
8.017,-0.425,-0.315
8.019,-0.445,-0.355
8.022,-0.430,-0.365
8.025,-0.420,-0.385
8.028,-0.400,-0.380
8.031,-0.390,-0.385
8.033,-0.385,-0.435
8.036,-0.380,-0.465
8.039,-0.370,-0.490
8.042,-0.345,-0.500
8.044,-0.320,-0.515
8.047,-0.295,-0.525
8.050,-0.295,-0.565
8.053,-0.300,-0.580
8.056,-0.300,-0.575
8.058,-0.285,-0.560
8.061,-0.255,-0.560
8.064,-0.225,-0.565
8.067,-0.230,-0.605
8.069,-0.220,-0.605
8.072,-0.215,-0.595
8.075,-0.200,-0.565
8.078,-0.185,-0.525
8.081,-0.170,-0.505
8.083,-0.175,-0.495
8.086,-0.200,-0.480
8.089,-0.210,-0.450
8.092,-0.205,-0.420
8.094,-0.215,-0.390
8.097,-0.230,-0.375
8.100,-0.275,-0.330
8.103,-0.305,-0.330
8.106,-0.340,-0.265
8.108,-0.360,-0.230
8.111,-0.360,-0.170
8.114,-0.365,-0.170
8.117,-0.420,-0.170
8.119,-0.455,-0.145
8.122,-0.475,-0.130
8.125,-0.480,-0.090
8.128,-0.490,-0.035
8.131,-0.510,-0.015
8.133,-0.525,-0.010
8.136,-0.555,0.000
8.139,-0.575,0.015
8.142,-0.570,0.015
8.144,-0.575,0.045
8.147,-0.580,0.035
8.150,-0.615,0.025
8.153,-0.655,0.040
8.156,-0.665,0.045
8.158,-0.665,0.090
8.161,-0.640,0.110
8.164,-0.635,0.095
8.167,-0.645,0.055
8.169,-0.665,0.055
8.172,-0.685,0.070
8.175,-0.675,0.100
8.178,-0.675,0.115
8.181,-0.670,0.110
8.183,-0.685,0.100
8.186,-0.705,0.090
8.189,-0.700,0.070
8.192,-0.675,0.080
8.194,-0.655,0.085
8.197,-0.660,0.095
8.200,-0.675,0.075
8.203,-0.680,0.070
8.206,-0.685,0.090
8.208,-0.670,0.110
8.211,-0.645,0.110
8.214,-0.640,0.075
8.217,-0.650,0.045
8.219,-0.665,0.050
8.222,-0.660,0.060
8.225,-0.635,0.085
8.228,-0.630,0.095
8.231,-0.635,0.095
8.233,-0.640,0.090
8.236,-0.650,0.060
8.239,-0.640,0.070
8.242,-0.625,0.075
8.244,-0.595,0.080
8.247,-0.605,0.075
8.250,-0.625,0.045
8.253,-0.625,0.050
8.256,-0.645,0.075
8.258,-0.635,0.090
8.261,-0.605,0.105
8.264,-0.600,0.085
8.267,-0.600,0.060
8.269,-0.615,0.040
8.272,-0.625,0.065
8.275,-0.610,0.085
8.278,-0.600,0.110
8.281,-0.595,0.095
8.283,-0.610,0.115
8.286,-0.615,0.100
8.289,-0.610,0.100
8.292,-0.585,0.110
8.294,-0.545,0.120
8.297,-0.530,0.105
8.300,-0.540,0.120
8.303,-0.540,0.105
8.306,-0.550,0.110
8.308,-0.510,0.120
8.311,-0.475,0.110
8.314,-0.465,0.075
8.317,-0.455,0.035
8.319,-0.435,0.000
8.322,-0.415,0.005
8.325,-0.390,0.040
8.328,-0.370,0.045
8.331,-0.370,0.060
8.333,-0.375,0.055
8.336,-0.380,0.040
8.339,-0.380,0.060
8.342,-0.365,0.055
8.344,-0.350,0.060
8.347,-0.370,0.040
8.350,-0.395,0.040
8.353,-0.430,0.065
8.356,-0.455,0.060
8.358,-0.505,0.085
8.361,-0.530,0.090
8.364,-0.555,0.065
8.367,-0.575,0.040
8.369,-0.590,0.010
8.372,-0.610,0.005
8.375,-0.630,0.030
8.378,-0.630,0.040
8.381,-0.640,0.050
8.383,-0.650,0.050
8.386,-0.655,0.045
8.389,-0.650,0.055
8.392,-0.640,0.060
8.394,-0.635,0.050
8.397,-0.640,0.025
8.400,-0.665,0.015
8.403,-0.680,0.025
8.406,-0.690,0.050
8.408,-0.675,0.070
8.411,-0.665,0.075
8.414,-0.665,0.060
8.417,-0.665,0.020
8.419,-0.665,0.020
8.422,-0.645,0.035
8.425,-0.645,0.045
8.428,-0.630,0.050
8.431,-0.650,0.065
8.433,-0.640,0.060
8.436,-0.640,0.065
8.439,-0.620,0.085
8.442,-0.605,0.080
8.444,-0.565,0.030
8.447,-0.545,-0.020
8.450,-0.485,-0.080
8.453,-0.400,-0.085
8.456,-0.275,-0.065
8.458,-0.080,-0.015
8.461,0.175,0.075
8.464,0.430,0.185
8.467,0.660,0.300
8.469,0.835,0.425
8.472,0.915,0.555
8.475,0.825,0.705
8.478,0.560,0.785
8.481,0.140,0.775
8.483,-0.305,0.750
8.486,-0.675,0.725
8.489,-0.880,0.750
8.492,-0.885,0.815
8.494,-0.845,0.875
8.497,-0.830,0.925
8.500,-0.870,0.965
8.503,-0.925,1.005
8.506,-0.955,1.085
8.508,-0.980,1.150
8.511,-0.995,1.190
8.514,-1.020,1.220
8.517,-1.020,1.255
8.519,-1.020,1.295
8.522,-1.005,1.355
8.525,-1.000,1.405
8.528,-1.005,1.435
8.531,-1.025,1.400
8.533,-1.060,1.320
8.536,-1.085,1.175
8.539,-1.075,1.045
8.542,-1.025,0.900
8.544,-0.960,0.735
8.547,-0.925,0.550
8.550,-0.895,0.390
8.553,-0.855,0.245
8.556,-0.825,0.165
8.558,-0.750,0.125
8.561,-0.680,0.100
8.564,-0.615,0.050
8.567,-0.565,0.020
8.569,-0.530,-0.020
8.572,-0.505,-0.045
8.575,-0.485,-0.065
8.578,-0.460,-0.070
8.581,-0.455,-0.090
8.583,-0.465,-0.105
8.586,-0.460,-0.120
8.589,-0.445,-0.110
8.592,-0.425,-0.105
8.594,-0.390,-0.120
8.597,-0.380,-0.145
8.600,-0.395,-0.180
8.603,-0.390,-0.205
8.606,-0.390,-0.190
8.608,-0.385,-0.190
8.611,-0.370,-0.180
8.614,-0.365,-0.185
8.617,-0.345,-0.215
8.619,-0.345,-0.230
8.622,-0.330,-0.250
8.625,-0.320,-0.255
8.628,-0.300,-0.260
8.631,-0.290,-0.275
8.633,-0.285,-0.295
8.636,-0.290,-0.315
8.639,-0.295,-0.300
8.642,-0.280,-0.305
8.644,-0.250,-0.310
8.647,-0.235,-0.355
8.650,-0.230,-0.385
8.653,-0.225,-0.425
8.656,-0.210,-0.430
8.658,-0.190,-0.440
8.661,-0.175,-0.430
8.664,-0.160,-0.460
8.667,-0.165,-0.495
8.669,-0.145,-0.510
8.672,-0.140,-0.520
8.675,-0.095,-0.530
8.678,-0.060,-0.540
8.681,-0.035,-0.580
8.683,-0.035,-0.615
8.686,-0.040,-0.620
8.689,-0.035,-0.610
8.692,0.000,-0.595
8.694,0.020,-0.585
8.697,0.050,-0.580
8.700,0.055,-0.595
8.703,0.060,-0.640
8.706,0.065,-0.635
8.708,0.090,-0.600
8.711,0.110,-0.575
8.714,0.110,-0.565
8.717,0.100,-0.535
8.719,0.070,-0.525
8.722,0.075,-0.490
8.725,0.085,-0.450
8.728,0.095,-0.430
8.731,0.075,-0.420
8.733,0.040,-0.395
8.736,-0.005,-0.370
8.739,-0.020,-0.315
8.742,-0.030,-0.275
8.744,-0.040,-0.220
8.747,-0.065,-0.210
8.750,-0.085,-0.210
8.753,-0.115,-0.185
8.756,-0.130,-0.155
8.758,-0.145,-0.120
8.761,-0.155,-0.080
8.764,-0.175,-0.070
8.767,-0.205,-0.065
8.769,-0.235,-0.035
8.772,-0.250,-0.010
8.775,-0.270,0.000
8.778,-0.240,0.030
8.781,-0.260,0.025
8.783,-0.270,0.015
8.786,-0.305,0.030
8.789,-0.330,0.035
8.792,-0.330,0.065
8.794,-0.340,0.085
8.797,-0.335,0.075
8.800,-0.335,0.070
8.803,-0.340,0.055
8.806,-0.350,0.055
8.808,-0.340,0.065
8.811,-0.340,0.080
8.814,-0.340,0.085
8.817,-0.370,0.060
8.819,-0.385,0.070
8.822,-0.370,0.095
8.825,-0.335,0.105
8.828,-0.320,0.115
8.831,-0.315,0.090
8.833,-0.325,0.065
8.836,-0.335,0.060
8.839,-0.340,0.075
8.842,-0.315,0.090
8.844,-0.300,0.105
8.847,-0.290,0.100
8.850,-0.290,0.090
8.853,-0.305,0.080
8.856,-0.295,0.075
8.858,-0.285,0.080
8.861,-0.260,0.090
8.864,-0.265,0.090
8.867,-0.280,0.070
8.869,-0.295,0.065
8.872,-0.290,0.085
8.875,-0.285,0.085
8.878,-0.250,0.100
8.881,-0.250,0.105
8.883,-0.250,0.060
8.886,-0.260,0.055
8.889,-0.260,0.045
8.892,-0.255,0.055
8.894,-0.230,0.080
8.897,-0.230,0.080
8.900,-0.235,0.070
8.903,-0.265,0.060
8.906,-0.270,0.070
8.908,-0.265,0.090
8.911,-0.225,0.105
8.914,-0.210,0.070
8.917,-0.205,0.060
8.919,-0.225,0.035
8.922,-0.245,0.040
8.925,-0.235,0.065
8.928,-0.220,0.105
8.931,-0.225,0.115
8.933,-0.220,0.100
8.936,-0.220,0.105
8.939,-0.205,0.120
8.942,-0.185,0.095
8.944,-0.135,0.115
8.947,-0.125,0.105
8.950,-0.125,0.085
8.953,-0.110,0.090
8.956,-0.130,0.105
8.958,-0.100,0.100
8.961,-0.070,0.110
8.964,-0.030,0.080
8.967,-0.020,0.045
8.969,0.000,0.020
8.972,0.010,0.010
8.975,0.035,0.015
8.978,0.065,0.050
8.981,0.070,0.045
8.983,0.055,0.055
8.986,0.055,0.050
8.989,0.055,0.045
8.992,0.060,0.085
8.994,0.070,0.085
8.997,0.070,0.065
9.000,0.045,0.055
9.003,0.015,0.035
9.006,-0.035,0.060
9.008,-0.065,0.090
9.011,-0.100,0.095
9.014,-0.130,0.090
9.017,-0.140,0.065
9.019,-0.165,0.040
9.022,-0.185,0.045
9.025,-0.190,0.060
9.028,-0.190,0.075
9.031,-0.210,0.085
9.033,-0.215,0.085
9.036,-0.240,0.055
9.039,-0.250,0.060
9.042,-0.245,0.060
9.044,-0.240,0.065
9.047,-0.220,0.065
9.050,-0.260,0.055
9.053,-0.265,0.050
9.056,-0.285,0.055
9.058,-0.270,0.090
9.061,-0.250,0.100
9.064,-0.235,0.085
9.067,-0.225,0.050
9.069,-0.240,0.035
9.072,-0.245,0.065
9.075,-0.230,0.080
9.078,-0.215,0.110
9.081,-0.215,0.115
9.083,-0.205,0.130
9.086,-0.195,0.105
9.089,-0.155,0.080
9.092,-0.110,0.030
9.094,-0.005,-0.015
9.097,0.120,-0.020
9.100,0.300,-0.005
9.103,0.525,0.050
9.106,0.810,0.175
9.108,1.085,0.390
9.111,1.310,0.590
9.114,1.380,0.750
9.117,1.265,0.850
9.119,0.915,0.895
9.122,0.415,0.905
9.125,-0.050,0.905
9.128,-0.395,0.925
9.131,-0.545,0.960
9.133,-0.560,1.010
9.136,-0.535,1.040
9.139,-0.510,1.120
9.142,-0.515,1.185
9.144,-0.550,1.255
9.147,-0.585,1.300
9.150,-0.630,1.330
9.153,-0.645,1.375
9.156,-0.680,1.430
9.158,-0.650,1.490
9.161,-0.620,1.535
9.164,-0.625,1.550
9.167,-0.635,1.515
9.169,-0.650,1.475
9.172,-0.675,1.375
9.175,-0.680,1.270
9.178,-0.665,1.130
9.181,-0.615,0.960
9.183,-0.580,0.765
9.186,-0.560,0.580
9.189,-0.500,0.420
9.192,-0.450,0.295
9.194,-0.365,0.225
9.197,-0.330,0.175
9.200,-0.275,0.105
9.203,-0.230,0.085
9.206,-0.185,0.060
9.208,-0.140,0.045
9.211,-0.090,0.020
9.214,-0.070,-0.010
9.217,-0.065,-0.075
9.219,-0.065,-0.095
9.222,-0.065,-0.100
9.225,-0.055,-0.075
9.228,-0.050,-0.075
9.231,-0.045,-0.085
9.233,-0.030,-0.120
9.236,-0.020,-0.140
9.239,-0.020,-0.150
9.242,0.005,-0.150
9.244,0.025,-0.145
9.247,0.020,-0.180
9.250,0.010,-0.190
9.253,0.000,-0.195
9.256,0.005,-0.195
9.258,0.000,-0.180
9.261,0.030,-0.180
9.264,0.060,-0.195
9.267,0.060,-0.220
9.269,0.050,-0.260
9.272,0.045,-0.265
9.275,0.065,-0.265
9.278,0.080,-0.270
9.281,0.090,-0.275
9.283,0.085,-0.305
9.286,0.085,-0.325
9.289,0.095,-0.345
9.292,0.125,-0.335
9.294,0.150,-0.365
9.297,0.160,-0.385
9.300,0.165,-0.435
9.303,0.160,-0.450
9.306,0.160,-0.470
9.308,0.190,-0.475
9.311,0.220,-0.465
9.314,0.255,-0.505
9.317,0.260,-0.540
9.319,0.270,-0.590
9.322,0.290,-0.590
9.325,0.300,-0.585
9.328,0.320,-0.595
9.331,0.335,-0.600
9.333,0.330,-0.615
9.336,0.335,-0.620
9.339,0.360,-0.605
9.342,0.380,-0.590
9.344,0.410,-0.575
9.347,0.405,-0.590
9.350,0.415,-0.595
9.353,0.400,-0.590
9.356,0.400,-0.570
9.358,0.405,-0.540
9.361,0.405,-0.480
9.364,0.405,-0.470
9.367,0.390,-0.450
9.369,0.365,-0.450
9.372,0.355,-0.425
9.375,0.330,-0.390
9.378,0.350,-0.355
9.381,0.325,-0.335
9.383,0.300,-0.325
9.386,0.250,-0.280
9.389,0.225,-0.240
9.392,0.215,-0.190
9.394,0.195,-0.135
9.397,0.165,-0.125
9.400,0.155,-0.130
9.403,0.100,-0.110
9.406,0.095,-0.100
9.408,0.095,-0.050
9.411,0.085,-0.015
9.414,0.065,0.005
9.417,0.035,0.010
9.419,0.005,0.020
9.422,-0.020,0.035
9.425,-0.030,0.065
9.428,-0.005,0.085
9.431,-0.015,0.085
9.433,-0.030,0.065
9.436,-0.050,0.055
9.439,-0.065,0.070
9.442,-0.060,0.085
9.444,-0.055,0.110
9.447,-0.090,0.105
9.450,-0.095,0.100
9.453,-0.125,0.105
9.456,-0.135,0.105
9.458,-0.130,0.135
9.461,-0.105,0.145
9.464,-0.105,0.125
9.467,-0.115,0.110
9.469,-0.160,0.090
9.472,-0.150,0.095
9.475,-0.150,0.120
9.478,-0.135,0.135
9.481,-0.140,0.130
9.483,-0.150,0.125
9.486,-0.165,0.120
9.489,-0.170,0.135
9.492,-0.155,0.160
9.494,-0.135,0.155
9.497,-0.135,0.160
9.500,-0.145,0.120
9.503,-0.150,0.115
9.506,-0.145,0.125
9.508,-0.150,0.125
9.511,-0.140,0.145
9.514,-0.145,0.140
9.517,-0.150,0.135
9.519,-0.165,0.125
9.522,-0.155,0.145
9.525,-0.160,0.160
9.528,-0.145,0.180
9.531,-0.125,0.155
9.533,-0.140,0.135
9.536,-0.155,0.110
9.539,-0.145,0.115
9.542,-0.140,0.135
9.544,-0.120,0.140
9.547,-0.120,0.155
9.550,-0.145,0.145
9.553,-0.145,0.135
9.556,-0.145,0.145
9.558,-0.120,0.155
9.561,-0.105,0.150
9.564,-0.105,0.125
9.567,-0.115,0.120
9.569,-0.130,0.120
9.572,-0.145,0.105
9.575,-0.120,0.105
9.578,-0.125,0.145
9.581,-0.130,0.140
9.583,-0.145,0.135
9.586,-0.145,0.125
9.589,-0.130,0.125
9.592,-0.115,0.150
9.594,-0.095,0.135
9.597,-0.090,0.130
9.600,-0.110,0.100
9.603,-0.120,0.095
9.606,-0.135,0.100
9.608,-0.140,0.130
9.611,-0.135,0.150
9.614,-0.130,0.145
9.617,-0.125,0.150
9.619,-0.145,0.125
9.622,-0.135,0.135
9.625,-0.125,0.135
9.628,-0.115,0.150
9.631,-0.105,0.140
9.633,-0.125,0.125
9.636,-0.135,0.125
9.639,-0.150,0.160
9.642,-0.140,0.190
9.644,-0.125,0.205
9.647,-0.120,0.190
9.650,-0.110,0.190
9.653,-0.095,0.180
9.656,-0.080,0.190
9.658,-0.050,0.190
9.661,-0.030,0.190
9.664,-0.035,0.160
9.667,-0.030,0.150
9.669,-0.030,0.130
9.672,-0.030,0.135
9.675,-0.010,0.155
9.678,0.015,0.170
9.681,0.030,0.150
9.683,0.045,0.115
9.686,0.040,0.085
9.689,0.070,0.065
9.692,0.100,0.085
9.694,0.135,0.095
9.697,0.120,0.075
9.700,0.120,0.060
9.703,0.105,0.075
9.706,0.105,0.090
9.708,0.100,0.125
9.711,0.120,0.155
9.714,0.125,0.150
9.717,0.115,0.130
9.719,0.090,0.120
9.722,0.050,0.095
9.725,0.035,0.105
9.728,0.020,0.120
9.731,-0.015,0.100
9.733,-0.085,0.100
9.736,-0.120,0.095
9.739,-0.150,0.105
9.742,-0.150,0.115
9.744,-0.140,0.125
9.747,-0.155,0.105
9.750,-0.165,0.085
9.753,-0.175,0.070
9.756,-0.205,0.075
9.758,-0.195,0.085
9.761,-0.200,0.100
9.764,-0.220,0.110
9.767,-0.235,0.105
9.769,-0.250,0.100
9.772,-0.230,0.100
9.775,-0.230,0.110
9.778,-0.210,0.125
9.781,-0.220,0.110
9.783,-0.230,0.100
9.786,-0.260,0.070
9.789,-0.260,0.095
9.792,-0.255,0.115
9.794,-0.260,0.135
9.797,-0.265,0.155
9.800,-0.260,0.115
9.803,-0.260,0.115
9.806,-0.260,0.115
9.808,-0.225,0.135
9.811,-0.220,0.150
9.814,-0.210,0.125
9.817,-0.220,0.130
9.819,-0.240,0.140
9.822,-0.240,0.195
9.825,-0.205,0.220
9.828,-0.165,0.190
9.831,-0.135,0.110
9.833,-0.065,0.020
9.836,0.025,-0.020
9.839,0.135,-0.005
9.842,0.325,0.015
9.844,0.550,0.065
9.847,0.765,0.165
9.850,0.990,0.320
9.853,1.200,0.515
9.856,1.365,0.710
9.858,1.420,0.870
9.861,1.365,0.985
9.864,1.145,1.020
9.867,0.755,1.000
9.869,0.335,0.960
9.872,-0.065,0.960
9.875,-0.370,0.975
9.878,-0.530,1.010
9.881,-0.565,1.070
9.883,-0.530,1.115
9.886,-0.495,1.175
9.889,-0.495,1.235
9.892,-0.500,1.290
9.894,-0.515,1.335
9.897,-0.540,1.365
9.900,-0.575,1.405
9.903,-0.630,1.450
9.906,-0.665,1.500
9.908,-0.670,1.585
9.911,-0.650,1.660
9.914,-0.640,1.690
9.917,-0.635,1.700
9.919,-0.650,1.660
9.922,-0.655,1.575
9.925,-0.665,1.445
9.928,-0.675,1.295
9.931,-0.670,1.115
9.933,-0.640,0.910
9.936,-0.605,0.710
9.939,-0.550,0.520
9.942,-0.470,0.365
9.944,-0.405,0.250
9.947,-0.340,0.170
9.950,-0.275,0.130
9.953,-0.215,0.085
9.956,-0.180,0.065
9.958,-0.150,0.065
9.961,-0.140,0.060
9.964,-0.100,0.035
9.967,-0.100,-0.020
9.969,-0.085,-0.050
9.972,-0.100,-0.070
9.975,-0.085,-0.075
9.978,-0.050,-0.055
9.981,-0.045,-0.060
9.983,-0.070,-0.070
9.986,-0.070,-0.100
9.989,-0.070,-0.095
9.992,-0.050,-0.115
9.994,-0.015,-0.110
9.997,0.000,-0.145
10.000,-0.010,-0.155
10.003,-0.030,-0.180
10.006,-0.040,-0.175
10.008,-0.030,-0.145
10.011,0.000,-0.155
10.014,0.005,-0.185
10.017,0.020,-0.225
10.019,0.015,-0.260
10.022,0.025,-0.275
10.025,0.030,-0.265
10.028,0.045,-0.245
10.031,0.055,-0.265
10.033,0.055,-0.300
10.036,0.075,-0.350
10.039,0.085,-0.355
10.042,0.115,-0.370
10.044,0.145,-0.375
10.047,0.145,-0.415
10.050,0.135,-0.445
10.053,0.140,-0.485
10.056,0.140,-0.475
10.058,0.170,-0.470
10.061,0.205,-0.470
10.064,0.210,-0.500
10.067,0.225,-0.540
10.069,0.225,-0.575
10.072,0.225,-0.590
10.075,0.240,-0.570
10.078,0.270,-0.555
10.081,0.280,-0.565
10.083,0.280,-0.565
10.086,0.290,-0.580
10.089,0.295,-0.555
10.092,0.295,-0.535
10.094,0.320,-0.535
10.097,0.330,-0.520
10.100,0.345,-0.515
10.103,0.325,-0.495
10.106,0.310,-0.460
10.108,0.310,-0.420
10.111,0.305,-0.350
10.114,0.295,-0.335
10.117,0.255,-0.320
10.119,0.230,-0.300
10.122,0.175,-0.260
10.125,0.185,-0.210
10.128,0.150,-0.155
10.131,0.120,-0.115
10.133,0.090,-0.075
10.136,0.035,-0.055
10.139,0.025,-0.040
10.142,0.020,-0.010
10.144,0.005,0.025
10.147,-0.020,0.055
10.150,-0.070,0.055
10.153,-0.095,0.085
10.156,-0.125,0.100
10.158,-0.105,0.120
10.161,-0.100,0.115
10.164,-0.115,0.110
10.167,-0.135,0.100
10.169,-0.155,0.090
10.172,-0.160,0.120
10.175,-0.175,0.125
10.178,-0.175,0.155
10.181,-0.170,0.170
10.183,-0.180,0.165
10.186,-0.190,0.150
10.189,-0.195,0.155
10.192,-0.180,0.145
10.194,-0.185,0.165
10.197,-0.185,0.145
10.200,-0.200,0.135
10.203,-0.225,0.130
10.206,-0.235,0.155
10.208,-0.225,0.180
10.211,-0.210,0.190
10.214,-0.210,0.180
10.217,-0.200,0.165
10.219,-0.220,0.135
10.222,-0.200,0.135
10.225,-0.190,0.145
10.228,-0.190,0.160
10.231,-0.195,0.180
10.233,-0.200,0.165
10.236,-0.205,0.155
10.239,-0.195,0.165
10.242,-0.195,0.175
10.244,-0.160,0.175
10.247,-0.150,0.165
10.250,-0.180,0.175
10.253,-0.205,0.165
10.256,-0.220,0.185
10.258,-0.200,0.190
10.261,-0.175,0.200
10.264,-0.165,0.170
10.267,-0.165,0.150
10.269,-0.185,0.130
10.272,-0.200,0.145
10.275,-0.195,0.180
10.278,-0.185,0.200
10.281,-0.175,0.205
10.283,-0.190,0.190
10.286,-0.200,0.180
10.289,-0.200,0.160
10.292,-0.190,0.175
10.294,-0.180,0.190
10.297,-0.190,0.175
10.300,-0.210,0.160
10.303,-0.235,0.165
10.306,-0.245,0.180
10.308,-0.230,0.190
10.311,-0.225,0.195
10.314,-0.210,0.180
10.317,-0.220,0.160
10.319,-0.235,0.165
10.322,-0.240,0.155
10.325,-0.245,0.190
10.328,-0.240,0.215
10.331,-0.245,0.220
10.333,-0.250,0.215
10.336,-0.245,0.215
10.339,-0.245,0.215
10.342,-0.235,0.230
10.344,-0.190,0.240
10.347,-0.160,0.240
10.350,-0.160,0.225
10.353,-0.160,0.240
10.356,-0.150,0.260
10.358,-0.140,0.265
10.361,-0.130,0.250
10.364,-0.100,0.215
10.367,-0.095,0.185
10.369,-0.080,0.150
10.372,-0.055,0.145
10.375,-0.020,0.140
10.378,0.000,0.135
10.381,0.025,0.145
10.383,0.025,0.150
10.386,0.010,0.135
10.389,0.020,0.155
10.392,0.025,0.150
10.394,0.030,0.160
10.397,0.005,0.170
10.400,-0.010,0.150
10.403,-0.050,0.145
10.406,-0.090,0.145
10.408,-0.140,0.170
10.411,-0.190,0.185
10.414,-0.200,0.155
10.417,-0.225,0.125
10.419,-0.260,0.100
10.422,-0.280,0.095
10.425,-0.280,0.120
10.428,-0.295,0.140
10.431,-0.300,0.150
10.433,-0.320,0.140
10.436,-0.340,0.145
10.439,-0.345,0.130
10.442,-0.340,0.130
10.444,-0.330,0.135
10.447,-0.345,0.130
10.450,-0.360,0.125
10.453,-0.375,0.140
10.456,-0.385,0.165
10.458,-0.385,0.180
10.461,-0.375,0.195
10.464,-0.365,0.170
10.467,-0.365,0.155
10.469,-0.385,0.135
10.472,-0.385,0.140
10.475,-0.375,0.150
10.478,-0.365,0.170
10.481,-0.380,0.170
10.483,-0.390,0.180
10.486,-0.395,0.185
10.489,-0.390,0.175
10.492,-0.385,0.210
10.494,-0.340,0.230
10.497,-0.315,0.205
10.500,-0.325,0.135
10.503,-0.300,0.075
10.506,-0.245,0.045
10.508,-0.145,0.040
10.511,0.020,0.065
10.514,0.235,0.100
10.517,0.480,0.150
10.519,0.750,0.280
10.522,1.000,0.470
10.525,1.205,0.680
10.528,1.275,0.840
10.531,1.105,0.945
10.533,0.705,0.980
10.536,0.160,0.945
10.539,-0.310,0.935
10.542,-0.625,0.945
10.544,-0.710,0.990
10.547,-0.660,1.045
10.550,-0.605,1.100
10.553,-0.615,1.155
10.556,-0.660,1.235
10.558,-0.700,1.310
10.561,-0.740,1.370
10.564,-0.755,1.405
10.567,-0.800,1.420
10.569,-0.825,1.450
10.572,-0.830,1.500
10.575,-0.815,1.565
10.578,-0.780,1.610
10.581,-0.800,1.635
10.583,-0.815,1.615
10.586,-0.860,1.575
10.589,-0.870,1.485
10.592,-0.865,1.375
10.594,-0.845,1.215
10.597,-0.790,1.030
10.600,-0.755,0.835
10.603,-0.730,0.615
10.606,-0.690,0.455
10.608,-0.635,0.335
10.611,-0.570,0.260
10.614,-0.520,0.215
10.617,-0.455,0.150
10.619,-0.400,0.125
10.622,-0.365,0.100
10.625,-0.330,0.060
10.628,-0.300,0.030
10.631,-0.295,-0.005
10.633,-0.290,-0.020
10.636,-0.285,-0.035
10.639,-0.290,-0.020
10.642,-0.270,-0.005
10.644,-0.250,-0.015
10.647,-0.240,-0.040
10.650,-0.260,-0.085
10.653,-0.245,-0.100
10.656,-0.250,-0.110
10.658,-0.250,-0.100
10.661,-0.225,-0.100
10.664,-0.225,-0.110
10.667,-0.230,-0.125
10.669,-0.255,-0.150
10.672,-0.250,-0.150
10.675,-0.215,-0.150
10.678,-0.180,-0.145
10.681,-0.160,-0.175
10.683,-0.170,-0.190
10.686,-0.175,-0.230
10.689,-0.180,-0.220
10.692,-0.165,-0.215
10.694,-0.145,-0.190
10.697,-0.130,-0.205
10.700,-0.135,-0.245
10.703,-0.155,-0.285
10.706,-0.125,-0.295
10.708,-0.110,-0.315
10.711,-0.085,-0.320
10.714,-0.075,-0.335
10.717,-0.100,-0.385
10.719,-0.095,-0.400
10.722,-0.085,-0.410
10.725,-0.050,-0.405
10.728,-0.035,-0.410
10.731,-0.010,-0.435
10.733,0.005,-0.490
10.736,-0.005,-0.525
10.739,0.010,-0.540
10.742,0.035,-0.505
10.744,0.060,-0.485
10.747,0.090,-0.510
10.750,0.090,-0.515
10.753,0.085,-0.555
10.756,0.110,-0.540
10.758,0.135,-0.545
10.761,0.160,-0.520
10.764,0.165,-0.510
10.767,0.160,-0.510
10.769,0.140,-0.490
10.772,0.135,-0.460
10.775,0.135,-0.425
10.778,0.150,-0.375
10.781,0.145,-0.380
10.783,0.125,-0.370
10.786,0.090,-0.360
10.789,0.070,-0.315
10.792,0.050,-0.260
10.794,0.045,-0.215
10.797,0.015,-0.190
10.800,-0.015,-0.155
10.803,-0.055,-0.145
10.806,-0.070,-0.125
10.808,-0.080,-0.090
10.811,-0.090,-0.055
10.814,-0.110,-0.035
10.817,-0.130,-0.020
10.819,-0.185,0.005
10.822,-0.215,0.035
10.825,-0.245,0.075
10.828,-0.235,0.090
10.831,-0.235,0.085
10.833,-0.250,0.075
10.836,-0.275,0.075
10.839,-0.300,0.085
10.842,-0.315,0.100
10.844,-0.315,0.135
10.847,-0.325,0.145
10.850,-0.335,0.145
10.853,-0.365,0.145
10.856,-0.370,0.135
10.858,-0.365,0.160
10.861,-0.360,0.165
10.864,-0.370,0.155
10.867,-0.380,0.135
10.869,-0.410,0.125
10.872,-0.425,0.120
10.875,-0.420,0.155
10.878,-0.410,0.180
10.881,-0.405,0.190
10.883,-0.410,0.175
10.886,-0.410,0.140
10.889,-0.415,0.155
10.892,-0.420,0.155
10.894,-0.385,0.165
10.897,-0.390,0.170
10.900,-0.395,0.155
10.903,-0.410,0.140
10.906,-0.410,0.145
10.908,-0.400,0.150
10.911,-0.380,0.155
10.914,-0.390,0.145
10.917,-0.385,0.125
10.919,-0.410,0.110
10.922,-0.415,0.115
10.925,-0.400,0.135
10.928,-0.385,0.160
10.931,-0.370,0.145
10.933,-0.350,0.130
10.936,-0.365,0.110
10.939,-0.370,0.120
10.942,-0.355,0.130
10.944,-0.365,0.130
10.947,-0.345,0.130
10.950,-0.370,0.135
10.953,-0.390,0.125
10.956,-0.395,0.130
10.958,-0.380,0.150
10.961,-0.355,0.180
10.964,-0.345,0.155
10.967,-0.345,0.130
10.969,-0.360,0.120
10.972,-0.380,0.105
10.975,-0.375,0.120
10.978,-0.380,0.145
10.981,-0.380,0.145
10.983,-0.385,0.135
10.986,-0.385,0.135
10.989,-0.380,0.160
10.992,-0.390,0.170
10.994,-0.365,0.155
10.997,-0.360,0.145
11.000,-0.375,0.140
11.003,-0.380,0.145
11.006,-0.385,0.170
11.008,-0.375,0.200
11.011,-0.375,0.225
11.014,-0.355,0.220
11.017,-0.335,0.195
11.019,-0.310,0.190
11.022,-0.290,0.195
11.025,-0.280,0.175
11.028,-0.270,0.175
11.031,-0.255,0.185
11.033,-0.245,0.175
11.036,-0.245,0.160
11.039,-0.220,0.140
11.042,-0.180,0.130
11.044,-0.140,0.130
11.047,-0.120,0.115
11.050,-0.115,0.100
11.053,-0.130,0.105
11.056,-0.135,0.130
11.058,-0.145,0.150
11.061,-0.145,0.165
11.064,-0.170,0.185
11.067,-0.165,0.150
11.069,-0.175,0.130
11.072,-0.195,0.120
11.075,-0.245,0.130
11.078,-0.290,0.145
11.081,-0.325,0.145
11.083,-0.365,0.130
11.086,-0.395,0.125
11.089,-0.415,0.135
11.092,-0.390,0.145
11.094,-0.390,0.130
11.097,-0.395,0.115
11.100,-0.400,0.095
11.103,-0.420,0.075
11.106,-0.440,0.095
11.108,-0.450,0.110
11.111,-0.470,0.130
11.114,-0.465,0.125
11.117,-0.470,0.120
11.119,-0.480,0.130
11.122,-0.480,0.105
11.125,-0.460,0.105
11.128,-0.450,0.115
11.131,-0.465,0.120
11.133,-0.485,0.120
11.136,-0.495,0.115
11.139,-0.500,0.130
11.142,-0.475,0.140
11.144,-0.450,0.160
11.147,-0.440,0.135
11.150,-0.445,0.115
11.153,-0.460,0.090
11.156,-0.450,0.105
11.158,-0.450,0.135
11.161,-0.425,0.195
11.164,-0.405,0.185
11.167,-0.395,0.145
11.169,-0.370,0.080
11.172,-0.325,0.035
11.175,-0.235,0.005
11.178,-0.115,0.010
11.181,0.065,0.025
11.183,0.260,0.050
11.186,0.485,0.115
11.189,0.730,0.260
11.192,0.965,0.450
11.194,1.120,0.585
11.197,1.150,0.745
11.200,0.950,0.830
11.203,0.590,0.840
11.206,0.120,0.810
11.208,-0.305,0.795
11.211,-0.605,0.815
11.214,-0.720,0.875
11.217,-0.715,0.925
11.219,-0.660,0.995
11.222,-0.660,1.065
11.225,-0.685,1.105
11.228,-0.720,1.150
11.231,-0.760,1.190
11.233,-0.795,1.210
11.236,-0.825,1.235
11.239,-0.870,1.295
11.242,-0.850,1.370
11.244,-0.830,1.445
11.247,-0.815,1.490
11.250,-0.830,1.530
11.253,-0.845,1.525
11.256,-0.855,1.490
11.258,-0.855,1.445
11.261,-0.835,1.360
11.264,-0.850,1.245
11.267,-0.845,1.095
11.269,-0.835,0.945
11.272,-0.795,0.785
11.275,-0.735,0.650
11.278,-0.660,0.500
11.281,-0.610,0.360
11.283,-0.570,0.240
11.286,-0.515,0.170
11.289,-0.455,0.125
11.292,-0.395,0.110
11.294,-0.335,0.120
11.297,-0.310,0.090
11.300,-0.295,0.050
11.303,-0.285,0.035
11.306,-0.275,0.030
11.308,-0.245,0.010
11.311,-0.215,0.005
11.314,-0.200,-0.025
11.317,-0.190,-0.075
11.319,-0.215,-0.055
11.322,-0.205,-0.060
11.325,-0.190,-0.045
11.328,-0.175,-0.040
11.331,-0.150,-0.055
11.333,-0.155,-0.090
11.336,-0.155,-0.110
11.339,-0.175,-0.135
11.342,-0.140,-0.135
11.344,-0.120,-0.120
11.347,-0.120,-0.120
11.350,-0.120,-0.145
11.353,-0.115,-0.150
11.356,-0.105,-0.145
11.358,-0.090,-0.160
11.361,-0.065,-0.160
11.364,-0.040,-0.190
11.367,-0.045,-0.215
11.369,-0.060,-0.260
11.372,-0.060,-0.270
11.375,-0.035,-0.245
11.378,-0.005,-0.255
11.381,0.010,-0.265
11.383,0.020,-0.280
11.386,0.025,-0.320
11.389,0.040,-0.350
11.392,0.055,-0.365
11.394,0.080,-0.375
11.397,0.095,-0.390
11.400,0.095,-0.435
11.403,0.090,-0.460
11.406,0.115,-0.450
11.408,0.135,-0.450
11.411,0.180,-0.460
11.414,0.200,-0.465
11.417,0.220,-0.505
11.419,0.220,-0.530
11.422,0.210,-0.540
11.425,0.225,-0.530
11.428,0.250,-0.490
11.431,0.255,-0.510
11.433,0.250,-0.505
11.436,0.255,-0.490
11.439,0.285,-0.480
11.442,0.300,-0.455
11.444,0.320,-0.440
11.447,0.320,-0.425
11.450,0.305,-0.400
11.453,0.280,-0.400
11.456,0.260,-0.360
11.458,0.235,-0.310
11.461,0.230,-0.270
11.464,0.235,-0.220
11.467,0.215,-0.230
11.469,0.180,-0.215
11.472,0.155,-0.190
11.475,0.145,-0.135
11.478,0.135,-0.085
11.481,0.100,-0.060
11.483,0.070,-0.040
11.486,0.035,-0.030
11.489,0.010,0.025
11.492,0.010,0.050
11.494,0.010,0.090
11.497,-0.010,0.090
11.500,-0.015,0.090
11.503,-0.065,0.090
11.506,-0.085,0.130
11.508,-0.095,0.150
11.511,-0.095,0.180
11.514,-0.100,0.170
11.517,-0.110,0.180
11.519,-0.130,0.145
11.522,-0.145,0.170
11.525,-0.150,0.180
11.528,-0.140,0.195
11.531,-0.140,0.195
11.533,-0.150,0.195
11.536,-0.165,0.200
11.539,-0.170,0.215
11.542,-0.160,0.225
11.544,-0.140,0.230
11.547,-0.135,0.220
11.550,-0.150,0.195
11.553,-0.145,0.195
11.556,-0.175,0.180
11.558,-0.160,0.210
11.561,-0.160,0.225
11.564,-0.150,0.220
11.567,-0.170,0.210
11.569,-0.170,0.215
11.572,-0.155,0.190
11.575,-0.140,0.195
11.578,-0.120,0.200
11.581,-0.115,0.190
11.583,-0.145,0.180
11.586,-0.160,0.195
11.589,-0.150,0.190
11.592,-0.130,0.215
11.594,-0.115,0.220
11.597,-0.095,0.210
11.600,-0.110,0.185
11.603,-0.115,0.155
11.606,-0.110,0.165
11.608,-0.120,0.180
11.611,-0.100,0.205
11.614,-0.095,0.210
11.617,-0.095,0.205
11.619,-0.085,0.185
11.622,-0.085,0.185
11.625,-0.070,0.200
11.628,-0.055,0.185
11.631,-0.050,0.200
11.633,-0.070,0.175
11.636,-0.085,0.180
11.639,-0.105,0.200
11.642,-0.085,0.225
11.644,-0.070,0.235
11.647,-0.075,0.225
11.650,-0.060,0.190
11.653,-0.065,0.180
11.656,-0.065,0.180
11.658,-0.075,0.200
11.661,-0.055,0.215
11.664,-0.055,0.225
11.667,-0.075,0.210
11.669,-0.085,0.205
11.672,-0.095,0.205
11.675,-0.070,0.230
11.678,-0.060,0.235
11.681,-0.045,0.210
11.683,-0.050,0.200
11.686,-0.080,0.200
11.689,-0.075,0.225
11.692,-0.060,0.245
11.694,-0.040,0.280
11.697,-0.035,0.290
11.700,-0.030,0.280
11.703,-0.015,0.270
11.706,0.015,0.255
11.708,0.030,0.270
11.711,0.060,0.285
11.714,0.080,0.270
11.717,0.075,0.230
11.719,0.070,0.215
11.722,0.075,0.225
11.725,0.105,0.240
11.728,0.165,0.230
11.731,0.185,0.190
11.733,0.195,0.175
11.736,0.195,0.160
11.739,0.200,0.185
11.742,0.210,0.195
11.744,0.215,0.235
11.747,0.210,0.240
11.750,0.200,0.230
11.753,0.170,0.210
11.756,0.155,0.205
11.758,0.150,0.220
11.761,0.125,0.210
11.764,0.085,0.205
11.767,0.030,0.180
11.769,0.000,0.165
11.772,-0.035,0.190
11.775,-0.040,0.205
11.778,-0.045,0.230
11.781,-0.035,0.215
11.783,-0.060,0.180
11.786,-0.080,0.165
11.789,-0.095,0.170
11.792,-0.080,0.185
11.794,-0.100,0.190
11.797,-0.105,0.195
11.800,-0.125,0.180
11.803,-0.160,0.185
11.806,-0.160,0.195
11.808,-0.150,0.205
11.811,-0.125,0.200
11.814,-0.125,0.190
11.817,-0.120,0.155
11.819,-0.150,0.160
11.822,-0.160,0.175
11.825,-0.160,0.215
11.828,-0.120,0.235
11.831,-0.125,0.230
11.833,-0.120,0.205
11.836,-0.130,0.200
11.839,-0.130,0.195
11.842,-0.110,0.210
11.844,-0.090,0.210
11.847,-0.080,0.220
11.850,-0.100,0.245
11.853,-0.105,0.255
11.856,-0.100,0.250
11.858,-0.045,0.225
11.861,0.020,0.180
11.864,0.095,0.145
11.867,0.200,0.090
11.869,0.330,0.080
11.872,0.515,0.115
11.875,0.750,0.165
11.878,0.995,0.305
11.881,1.220,0.500
11.883,1.395,0.670
11.886,1.480,0.820
11.889,1.420,0.955
11.892,1.230,1.065
11.894,0.885,1.080
11.897,0.440,1.035
11.900,0.020,1.025
11.903,-0.300,1.025
11.906,-0.470,1.060
11.908,-0.480,1.130
11.911,-0.430,1.215
11.914,-0.405,1.270
11.917,-0.405,1.315
11.919,-0.455,1.335
11.922,-0.495,1.380
11.925,-0.520,1.455
11.928,-0.535,1.500
11.931,-0.580,1.560
11.933,-0.595,1.625
11.936,-0.585,1.675
11.939,-0.585,1.710
11.942,-0.585,1.745
11.944,-0.565,1.705
11.947,-0.565,1.610
11.950,-0.570,1.445
11.953,-0.595,1.295
11.956,-0.575,1.125
11.958,-0.530,0.970
11.961,-0.480,0.795
11.964,-0.425,0.620
11.967,-0.390,0.460
11.969,-0.335,0.340
11.972,-0.295,0.280
11.975,-0.225,0.235
11.978,-0.150,0.200
11.981,-0.105,0.180
11.983,-0.085,0.135
11.986,-0.070,0.110
11.989,-0.065,0.100
11.992,-0.030,0.075
11.994,-0.005,0.070
11.997,0.020,0.045
12.000,0.025,0.020
12.003,0.025,-0.005
12.006,0.020,-0.025
12.008,0.025,-0.020
12.011,0.035,-0.005
12.014,0.050,-0.015
12.017,0.055,-0.025
12.019,0.055,-0.050
12.022,0.055,-0.055
12.025,0.080,-0.080
12.028,0.090,-0.080
12.031,0.095,-0.080
12.033,0.095,-0.100
12.036,0.075,-0.105
12.039,0.055,-0.120
12.042,0.090,-0.115
12.044,0.105,-0.110
12.047,0.130,-0.125
12.050,0.145,-0.165
12.053,0.140,-0.200
12.056,0.145,-0.215
12.058,0.155,-0.205
12.061,0.170,-0.205
12.064,0.175,-0.205
12.067,0.180,-0.240
12.069,0.185,-0.270
12.072,0.195,-0.285
12.075,0.225,-0.315
12.078,0.240,-0.330
12.081,0.265,-0.365
12.083,0.255,-0.390
12.086,0.255,-0.425
12.089,0.255,-0.420
12.092,0.285,-0.420
12.094,0.310,-0.410
12.097,0.335,-0.445
12.100,0.355,-0.465
12.103,0.355,-0.500
12.106,0.365,-0.510
12.108,0.385,-0.510
12.111,0.415,-0.495
12.114,0.425,-0.485
12.117,0.420,-0.480
12.119,0.420,-0.485
12.122,0.430,-0.470
12.125,0.440,-0.455
12.128,0.455,-0.425
12.131,0.460,-0.400
12.133,0.440,-0.390
12.136,0.410,-0.375
12.139,0.380,-0.335
12.142,0.370,-0.280
12.144,0.370,-0.245
12.147,0.360,-0.225
12.150,0.340,-0.200
12.153,0.305,-0.180
12.156,0.275,-0.150
12.158,0.235,-0.100
12.161,0.215,-0.040
12.164,0.180,0.000
12.167,0.145,0.025
12.169,0.110,0.040
12.172,0.090,0.060
12.175,0.070,0.085
12.178,0.075,0.120
12.181,0.040,0.130
12.183,0.010,0.125
12.186,-0.020,0.150
12.189,-0.040,0.160
12.192,-0.040,0.190
12.194,-0.030,0.205
12.197,-0.030,0.190
12.200,-0.055,0.180
12.203,-0.075,0.155
12.206,-0.090,0.160
12.208,-0.095,0.215
12.211,-0.110,0.220
12.214,-0.100,0.220
12.217,-0.105,0.210
12.219,-0.115,0.200
12.222,-0.110,0.195
12.225,-0.115,0.195
12.228,-0.100,0.230
12.231,-0.095,0.215
12.233,-0.115,0.210
12.236,-0.145,0.190
12.239,-0.155,0.215
12.242,-0.125,0.220
12.244,-0.115,0.230
12.247,-0.100,0.205
12.250,-0.095,0.195
12.253,-0.110,0.170
12.256,-0.120,0.185
12.258,-0.110,0.215
12.261,-0.115,0.250
12.264,-0.105,0.230
12.267,-0.100,0.210
12.269,-0.125,0.180
12.272,-0.120,0.195
12.275,-0.100,0.200
12.278,-0.095,0.220
12.281,-0.095,0.220
12.283,-0.115,0.210
12.286,-0.120,0.210
12.289,-0.105,0.195
12.292,-0.090,0.205
12.294,-0.075,0.200
12.297,-0.080,0.195
12.300,-0.080,0.185
12.303,-0.110,0.170
12.306,-0.115,0.190
12.308,-0.100,0.200
12.311,-0.095,0.220
12.314,-0.090,0.220
12.317,-0.085,0.200
12.319,-0.095,0.185
12.322,-0.100,0.195
12.325,-0.090,0.180
12.328,-0.085,0.195
12.331,-0.095,0.215
12.333,-0.120,0.205
12.336,-0.120,0.195
12.339,-0.115,0.210
12.342,-0.110,0.225
12.344,-0.095,0.215
12.347,-0.100,0.190
12.350,-0.105,0.200
12.353,-0.130,0.190
12.356,-0.140,0.205
12.358,-0.125,0.245
12.361,-0.110,0.260
12.364,-0.080,0.250
12.367,-0.090,0.255
12.369,-0.085,0.240
12.372,-0.080,0.245
12.375,-0.065,0.275
12.378,-0.030,0.290
12.381,-0.010,0.310
12.383,0.000,0.285
12.386,-0.010,0.255
12.389,0.015,0.255
12.392,0.035,0.260
12.394,0.065,0.240
12.397,0.090,0.200
12.400,0.090,0.185
12.403,0.100,0.175
12.406,0.120,0.175
12.408,0.125,0.225
12.411,0.160,0.230
12.414,0.175,0.215
12.417,0.160,0.200
12.419,0.135,0.190
12.422,0.115,0.185
12.425,0.105,0.215
12.428,0.085,0.230
12.431,0.060,0.245
12.433,0.000,0.230
12.436,-0.045,0.205
12.439,-0.080,0.185
12.442,-0.090,0.185
12.444,-0.090,0.200
12.447,-0.100,0.205
12.450,-0.145,0.185
12.453,-0.175,0.185
12.456,-0.190,0.190
12.458,-0.185,0.200
12.461,-0.180,0.200
12.464,-0.175,0.200
12.467,-0.190,0.170
12.469,-0.200,0.160
12.472,-0.220,0.155
12.475,-0.220,0.190
12.478,-0.220,0.220
12.481,-0.215,0.205
12.483,-0.240,0.200
12.486,-0.230,0.190
12.489,-0.240,0.185
12.492,-0.225,0.180
12.494,-0.215,0.205
12.497,-0.200,0.205
12.500,-0.230,0.190
12.503,-0.225,0.195
12.506,-0.230,0.215
12.508,-0.210,0.230
12.511,-0.180,0.250
12.514,-0.170,0.275
12.517,-0.165,0.225
12.519,-0.165,0.190
12.522,-0.140,0.125
12.525,-0.070,0.075
12.528,0.045,0.095
12.531,0.200,0.120
12.533,0.415,0.130
12.536,0.655,0.200
12.539,0.905,0.355
12.542,1.175,0.575
12.544,1.375,0.795
12.547,1.390,0.970
12.550,1.145,1.050
12.553,0.655,1.050
12.556,0.110,1.025
12.558,-0.320,1.020
12.561,-0.535,1.060
12.564,-0.540,1.120
12.567,-0.485,1.190
12.569,-0.485,1.255
12.572,-0.520,1.330
12.575,-0.570,1.410
12.578,-0.605,1.485
12.581,-0.620,1.515
12.583,-0.680,1.550
12.586,-0.675,1.590
12.589,-0.660,1.655
12.592,-0.650,1.705
12.594,-0.635,1.735
12.597,-0.665,1.705
12.600,-0.710,1.600
12.603,-0.720,1.470
12.606,-0.710,1.315
12.608,-0.670,1.130
12.611,-0.610,0.940
12.614,-0.550,0.735
12.617,-0.520,0.540
12.619,-0.485,0.400
12.622,-0.435,0.325
12.625,-0.360,0.310
12.628,-0.280,0.275
12.631,-0.210,0.240
12.633,-0.170,0.180
12.636,-0.160,0.135
12.639,-0.160,0.115
12.642,-0.145,0.115
12.644,-0.115,0.110
12.647,-0.115,0.095
12.650,-0.115,0.070
12.653,-0.130,0.050
12.656,-0.110,0.050
12.658,-0.075,0.050
12.661,-0.060,0.045
12.664,-0.055,0.020
12.667,-0.065,-0.030
12.669,-0.070,-0.050
12.672,-0.070,-0.035
12.675,-0.055,-0.015
12.678,-0.045,0.005
12.681,-0.020,-0.020
12.683,-0.015,-0.055
12.686,-0.030,-0.085
12.689,-0.010,-0.105
12.692,0.000,-0.110
12.694,0.010,-0.105
12.697,0.015,-0.115
12.700,0.015,-0.130
12.703,0.010,-0.140
12.706,0.020,-0.165
12.708,0.040,-0.170
12.711,0.060,-0.195
12.714,0.080,-0.230
12.717,0.090,-0.270
12.719,0.085,-0.275
12.722,0.080,-0.270
12.725,0.085,-0.280
12.728,0.125,-0.275
12.731,0.130,-0.295
12.733,0.130,-0.335
12.736,0.145,-0.375
12.739,0.160,-0.390
12.742,0.190,-0.410
12.744,0.225,-0.415
12.747,0.225,-0.430
12.750,0.220,-0.445
12.753,0.215,-0.455
12.756,0.230,-0.460
12.758,0.255,-0.475
12.761,0.290,-0.465
12.764,0.310,-0.475
12.767,0.320,-0.485
12.769,0.315,-0.470
12.772,0.305,-0.435
12.775,0.295,-0.385
12.778,0.315,-0.350
12.781,0.310,-0.340
12.783,0.300,-0.325
12.786,0.285,-0.315
12.789,0.255,-0.280
12.792,0.225,-0.215
12.794,0.215,-0.160
12.797,0.190,-0.125
12.800,0.160,-0.100
12.803,0.125,-0.085
12.806,0.100,-0.065
12.808,0.085,-0.025
12.811,0.070,0.010
12.814,0.060,0.035
12.817,0.020,0.075
12.819,-0.005,0.090
12.822,-0.060,0.115
12.825,-0.040,0.135
12.828,-0.045,0.160
12.831,-0.060,0.160
12.833,-0.080,0.150
12.836,-0.100,0.155
12.839,-0.130,0.155
12.842,-0.140,0.195
12.844,-0.140,0.220
12.847,-0.160,0.225
12.850,-0.180,0.220
12.853,-0.190,0.205
12.856,-0.195,0.210
12.858,-0.190,0.220
12.861,-0.180,0.235
12.864,-0.175,0.225
12.867,-0.205,0.220
12.869,-0.220,0.225
12.872,-0.230,0.225
12.875,-0.235,0.240
12.878,-0.210,0.255
12.881,-0.220,0.230
12.883,-0.205,0.215
12.886,-0.215,0.185
12.889,-0.225,0.190
12.892,-0.225,0.210
12.894,-0.225,0.230
12.897,-0.205,0.245
12.900,-0.220,0.220
12.903,-0.225,0.205
12.906,-0.220,0.205
12.908,-0.190,0.205
12.911,-0.185,0.235
12.914,-0.185,0.215
12.917,-0.200,0.215
12.919,-0.235,0.205
12.922,-0.235,0.210
12.925,-0.215,0.215
12.928,-0.190,0.225
12.931,-0.180,0.200
12.933,-0.180,0.185
12.936,-0.200,0.165
12.939,-0.210,0.170
12.942,-0.215,0.210
12.944,-0.200,0.220
12.947,-0.200,0.255
12.950,-0.200,0.205
12.953,-0.210,0.195
12.956,-0.225,0.180
12.958,-0.210,0.180
12.961,-0.200,0.200
12.964,-0.200,0.190
12.967,-0.220,0.185
12.969,-0.245,0.195
12.972,-0.240,0.215
12.975,-0.235,0.215
12.978,-0.215,0.205
12.981,-0.205,0.210
12.983,-0.225,0.180
12.986,-0.235,0.165
12.989,-0.255,0.175
12.992,-0.255,0.205
12.994,-0.255,0.235
12.997,-0.235,0.230
13.000,-0.250,0.210
13.003,-0.265,0.195
13.006,-0.245,0.185
13.008,-0.235,0.190
13.011,-0.245,0.185
13.014,-0.240,0.215
13.017,-0.265,0.210
13.019,-0.265,0.230
13.022,-0.275,0.270
13.025,-0.255,0.290
13.028,-0.220,0.300
13.031,-0.190,0.265
13.033,-0.185,0.235
13.036,-0.180,0.240
13.039,-0.175,0.260
13.042,-0.160,0.285
13.044,-0.140,0.290
13.047,-0.120,0.270
13.050,-0.120,0.240
13.053,-0.105,0.210
13.056,-0.080,0.185
13.058,-0.050,0.180
13.061,-0.020,0.185
13.064,-0.010,0.190
13.067,0.000,0.185
13.069,-0.025,0.195
13.072,-0.020,0.210
13.075,-0.035,0.235
13.078,-0.010,0.245
13.081,-0.005,0.225
13.083,-0.035,0.200
13.086,-0.065,0.180
13.089,-0.110,0.200
13.092,-0.145,0.225
13.094,-0.185,0.245
13.097,-0.225,0.230
13.100,-0.240,0.195
13.103,-0.275,0.180
13.106,-0.275,0.175
13.108,-0.275,0.195
13.111,-0.280,0.205
13.114,-0.295,0.205
13.117,-0.340,0.195
13.119,-0.355,0.195
13.122,-0.360,0.195
13.125,-0.360,0.215
13.128,-0.330,0.200
13.131,-0.330,0.200
13.133,-0.340,0.190
13.136,-0.365,0.175
13.139,-0.385,0.185
13.142,-0.385,0.205
13.144,-0.375,0.230
13.147,-0.365,0.245
13.150,-0.370,0.210
13.153,-0.385,0.195
13.156,-0.390,0.210
13.158,-0.375,0.205
13.161,-0.355,0.210
13.164,-0.355,0.200
13.167,-0.385,0.185
13.169,-0.385,0.185
13.172,-0.390,0.210
13.175,-0.360,0.255
13.178,-0.330,0.270
13.181,-0.305,0.200
13.183,-0.270,0.110
13.186,-0.195,0.045
13.189,-0.100,0.040
13.192,0.070,0.065
13.194,0.290,0.130
13.197,0.555,0.240
13.200,0.820,0.400
13.203,1.040,0.560
13.206,1.200,0.755
13.208,1.190,0.905
13.211,0.960,0.985
13.214,0.505,1.005
13.217,-0.020,0.975
13.219,-0.450,0.955
13.222,-0.685,0.970
13.225,-0.710,1.035
13.228,-0.645,1.100
13.231,-0.580,1.160
13.233,-0.605,1.200
13.236,-0.660,1.255
13.239,-0.710,1.310
13.242,-0.755,1.375
13.244,-0.800,1.425
13.247,-0.810,1.480
13.250,-0.810,1.535
13.253,-0.820,1.570
13.256,-0.800,1.620
13.258,-0.795,1.640
13.261,-0.810,1.635
13.264,-0.835,1.555
13.267,-0.870,1.435
13.269,-0.885,1.275
13.272,-0.870,1.085
13.275,-0.805,0.900
13.278,-0.735,0.725
13.281,-0.675,0.520
13.283,-0.615,0.350
13.286,-0.580,0.255
13.289,-0.530,0.220
13.292,-0.470,0.215
13.294,-0.420,0.205
13.297,-0.365,0.170
13.300,-0.340,0.120
13.303,-0.330,0.090
13.306,-0.320,0.070
13.308,-0.295,0.040
13.311,-0.295,0.055
13.314,-0.285,0.035
13.317,-0.285,0.025
13.319,-0.310,0.005
13.322,-0.290,-0.010
13.325,-0.275,0.000
13.328,-0.240,-0.015
13.331,-0.250,-0.035
13.333,-0.245,-0.055
13.336,-0.255,-0.080
13.339,-0.250,-0.080
13.342,-0.245,-0.050
13.344,-0.220,-0.055
13.347,-0.205,-0.070
13.350,-0.195,-0.100
13.353,-0.200,-0.120
13.356,-0.200,-0.125
13.358,-0.185,-0.140
13.361,-0.170,-0.150
13.364,-0.170,-0.160
13.367,-0.185,-0.170
13.369,-0.195,-0.205
13.372,-0.190,-0.220
13.375,-0.185,-0.230
13.378,-0.150,-0.255
13.381,-0.115,-0.295
13.383,-0.105,-0.345
13.386,-0.115,-0.365
13.389,-0.115,-0.380
13.392,-0.105,-0.360
13.394,-0.080,-0.355
13.397,-0.050,-0.390
13.400,-0.055,-0.445
13.403,-0.035,-0.465
13.406,-0.025,-0.490
13.408,-0.015,-0.485
13.411,0.025,-0.475
13.414,0.020,-0.485
13.417,0.035,-0.505
13.419,0.035,-0.520
13.422,0.045,-0.500
13.425,0.075,-0.475
13.428,0.110,-0.470
13.431,0.115,-0.475
13.433,0.100,-0.445
13.436,0.075,-0.415
13.439,0.065,-0.370
13.442,0.075,-0.335
13.444,0.080,-0.300
13.447,0.065,-0.280
13.450,0.025,-0.280
13.453,0.000,-0.275
13.456,-0.025,-0.235
13.458,-0.040,-0.175
13.461,-0.055,-0.120
13.464,-0.075,-0.085
13.467,-0.110,-0.060
13.469,-0.145,-0.045
13.472,-0.175,-0.035
13.475,-0.185,0.015
13.478,-0.200,0.030
13.481,-0.210,0.050
13.483,-0.255,0.060
13.486,-0.285,0.090
13.489,-0.315,0.105
13.492,-0.320,0.125
13.494,-0.300,0.150
13.497,-0.300,0.140
13.500,-0.315,0.135
13.503,-0.355,0.130
13.506,-0.375,0.140
13.508,-0.385,0.180
13.511,-0.400,0.200
13.514,-0.380,0.185
13.517,-0.385,0.165
13.519,-0.395,0.155
13.522,-0.385,0.160
13.525,-0.385,0.175
13.528,-0.375,0.180
13.531,-0.380,0.185
13.533,-0.400,0.185
13.536,-0.415,0.170
13.539,-0.425,0.180
13.542,-0.405,0.190
13.544,-0.385,0.195
13.547,-0.380,0.185
13.550,-0.385,0.170
13.553,-0.400,0.155
13.556,-0.395,0.165
13.558,-0.415,0.190
13.561,-0.405,0.215
13.564,-0.385,0.205
13.567,-0.375,0.180
13.569,-0.390,0.155
13.572,-0.395,0.135
13.575,-0.410,0.155
13.578,-0.385,0.200
13.581,-0.365,0.205
13.583,-0.370,0.190
13.586,-0.360,0.155
13.589,-0.370,0.140
13.592,-0.350,0.160
13.594,-0.345,0.160
13.597,-0.350,0.155
13.600,-0.360,0.150
13.603,-0.380,0.165
13.606,-0.385,0.175
13.608,-0.370,0.190
13.611,-0.360,0.200
13.614,-0.350,0.180
13.617,-0.365,0.155
13.619,-0.385,0.145
13.622,-0.405,0.145
13.625,-0.405,0.160
13.628,-0.380,0.195
13.631,-0.385,0.195
13.633,-0.385,0.185
13.636,-0.400,0.175
13.639,-0.395,0.190
13.642,-0.380,0.205
13.644,-0.360,0.220
13.647,-0.335,0.215
13.650,-0.355,0.205
13.653,-0.355,0.190
13.656,-0.355,0.235
13.658,-0.315,0.250
13.661,-0.285,0.260
13.664,-0.265,0.220
13.667,-0.260,0.185
13.669,-0.250,0.170
13.672,-0.240,0.150
13.675,-0.220,0.150
13.678,-0.175,0.155
13.681,-0.130,0.175
13.683,-0.125,0.150
13.686,-0.125,0.130
13.689,-0.130,0.150
13.692,-0.115,0.170
13.694,-0.105,0.195
13.697,-0.110,0.180
13.700,-0.145,0.165
13.703,-0.180,0.155
13.706,-0.210,0.170
13.708,-0.245,0.195
13.711,-0.260,0.195
13.714,-0.300,0.185
13.717,-0.335,0.135
13.719,-0.380,0.125
13.722,-0.375,0.135
13.725,-0.380,0.160
13.728,-0.385,0.190
13.731,-0.400,0.170
13.733,-0.420,0.155
13.736,-0.435,0.145
13.739,-0.440,0.135
13.742,-0.435,0.145
13.744,-0.435,0.155
13.747,-0.440,0.140
13.750,-0.455,0.140
13.753,-0.475,0.160
13.756,-0.475,0.165
13.758,-0.450,0.190
13.761,-0.435,0.190
13.764,-0.440,0.165
13.767,-0.455,0.145
13.769,-0.455,0.130
13.772,-0.465,0.155
13.775,-0.450,0.170
13.778,-0.445,0.200
13.781,-0.440,0.175
13.783,-0.440,0.165
13.786,-0.445,0.160
13.789,-0.430,0.155
13.792,-0.410,0.210
13.794,-0.390,0.210
13.797,-0.375,0.160
13.800,-0.360,0.085
13.803,-0.320,0.045
13.806,-0.220,0.060
13.808,-0.050,0.075
13.811,0.165,0.120
13.814,0.425,0.165
13.817,0.690,0.285
13.819,0.925,0.435
13.822,1.105,0.605
13.825,1.165,0.765
13.828,1.035,0.900
13.831,0.690,0.915
13.833,0.200,0.880
13.836,-0.265,0.845
13.839,-0.585,0.840
13.842,-0.715,0.900
13.844,-0.670,0.965
13.847,-0.625,1.035
13.850,-0.625,1.105
13.853,-0.680,1.150
13.856,-0.735,1.200
13.858,-0.745,1.250
13.861,-0.775,1.305
13.864,-0.795,1.320
13.867,-0.805,1.345
13.869,-0.805,1.385
13.872,-0.805,1.470
13.875,-0.795,1.540
13.878,-0.785,1.590
13.881,-0.805,1.570
13.883,-0.825,1.500
13.886,-0.845,1.380
13.889,-0.840,1.265
13.892,-0.805,1.105
13.894,-0.750,0.930
13.897,-0.710,0.735
13.900,-0.675,0.560
13.903,-0.635,0.420
13.906,-0.585,0.315
13.908,-0.505,0.235
13.911,-0.440,0.210
13.914,-0.360,0.160
13.917,-0.315,0.100
13.919,-0.275,0.070
13.922,-0.255,0.050
13.925,-0.245,0.035
13.928,-0.225,0.035
13.931,-0.210,0.020
13.933,-0.200,0.005
13.936,-0.205,-0.010
13.939,-0.190,-0.030
13.942,-0.170,-0.045
13.944,-0.160,-0.055
13.947,-0.145,-0.065
13.950,-0.150,-0.080
13.953,-0.155,-0.095
13.956,-0.160,-0.095
13.958,-0.145,-0.085
13.961,-0.125,-0.085
13.964,-0.100,-0.115
13.967,-0.095,-0.145
13.969,-0.095,-0.165
13.972,-0.100,-0.165
13.975,-0.085,-0.170
13.978,-0.080,-0.155
13.981,-0.060,-0.170
13.983,-0.050,-0.190
13.986,-0.035,-0.225
13.989,-0.020,-0.260
13.992,0.000,-0.275
13.994,0.005,-0.275
13.997,0.035,-0.300
14.000,0.025,-0.340
14.003,0.020,-0.370
14.006,0.025,-0.380
14.008,0.080,-0.380
14.011,0.120,-0.400
14.014,0.150,-0.430
14.017,0.145,-0.470
14.019,0.150,-0.505
14.022,0.155,-0.505
14.025,0.180,-0.495
14.028,0.210,-0.480
14.031,0.240,-0.500
14.033,0.255,-0.535
14.036,0.260,-0.560
14.039,0.260,-0.555
14.042,0.280,-0.535
14.044,0.305,-0.495
14.047,0.315,-0.480
14.050,0.300,-0.455
14.053,0.290,-0.450
14.056,0.285,-0.425
14.058,0.305,-0.390
14.061,0.300,-0.355
14.064,0.275,-0.335
14.067,0.215,-0.310
14.069,0.180,-0.260
14.072,0.165,-0.205
14.075,0.150,-0.170
14.078,0.150,-0.125
14.081,0.140,-0.130
14.083,0.095,-0.115
14.086,0.070,-0.095
14.089,0.035,-0.050
14.092,0.020,0.005
14.094,0.010,0.030
14.097,0.000,0.060
14.100,-0.020,0.065
14.103,-0.040,0.065
14.106,-0.055,0.085
14.108,-0.070,0.110
14.111,-0.080,0.130
14.114,-0.100,0.140
14.117,-0.110,0.155
14.119,-0.135,0.155
14.122,-0.145,0.160
14.125,-0.120,0.160
14.128,-0.120,0.185
14.131,-0.130,0.170
14.133,-0.145,0.150
14.136,-0.165,0.165
14.139,-0.175,0.185
14.142,-0.170,0.200
14.144,-0.165,0.215
14.147,-0.140,0.205
14.150,-0.145,0.190
14.153,-0.150,0.165
14.156,-0.155,0.165
14.158,-0.170,0.180
14.161,-0.140,0.210
14.164,-0.140,0.225
14.167,-0.125,0.190
14.169,-0.150,0.175
14.172,-0.150,0.165
14.175,-0.115,0.175
14.178,-0.110,0.185
14.181,-0.100,0.185
14.183,-0.120,0.170
14.186,-0.115,0.165
14.189,-0.135,0.170
14.192,-0.120,0.195
14.194,-0.080,0.200
14.197,-0.075,0.180
14.200,-0.090,0.155
14.203,-0.095,0.140
14.206,-0.105,0.150
14.208,-0.100,0.175
14.211,-0.075,0.195
14.214,-0.085,0.190
14.217,-0.110,0.185
14.219,-0.100,0.170
14.222,-0.095,0.160
14.225,-0.080,0.155
14.228,-0.075,0.175
14.231,-0.070,0.160
14.233,-0.085,0.155
14.236,-0.120,0.170
14.239,-0.095,0.170
14.242,-0.085,0.180
14.244,-0.080,0.190
14.247,-0.070,0.170
14.250,-0.070,0.155
14.253,-0.105,0.160
14.256,-0.100,0.180
14.258,-0.095,0.205
14.261,-0.090,0.230
14.264,-0.085,0.220
14.267,-0.080,0.215
14.269,-0.075,0.215
14.272,-0.050,0.215
14.275,-0.040,0.225
14.278,-0.005,0.235
14.281,0.020,0.260
14.283,0.020,0.245
14.286,0.020,0.240
14.289,0.020,0.230
14.292,0.060,0.210
14.294,0.095,0.200
14.297,0.105,0.180
14.300,0.140,0.155
14.303,0.135,0.140
14.306,0.155,0.165
14.308,0.155,0.185
14.311,0.175,0.210
14.314,0.185,0.200
14.317,0.165,0.175
14.319,0.160,0.170
14.322,0.140,0.180
14.325,0.120,0.185
14.328,0.105,0.220
14.331,0.070,0.210
14.333,0.020,0.185
14.336,-0.040,0.185
14.339,-0.060,0.160
14.342,-0.075,0.170
14.344,-0.075,0.170
14.347,-0.090,0.170
14.350,-0.115,0.175
14.353,-0.150,0.165
14.356,-0.155,0.175
14.358,-0.155,0.185
14.361,-0.140,0.175
14.364,-0.135,0.175
14.367,-0.145,0.155
14.369,-0.150,0.155
14.372,-0.180,0.140
14.375,-0.170,0.170
14.378,-0.175,0.200
14.381,-0.180,0.200
14.383,-0.195,0.185
14.386,-0.185,0.180
14.389,-0.185,0.155
14.392,-0.180,0.165
14.394,-0.165,0.185
14.397,-0.160,0.195
14.400,-0.170,0.195
14.403,-0.180,0.200
14.406,-0.180,0.190
14.408,-0.165,0.220
14.411,-0.145,0.240
14.414,-0.125,0.250
14.417,-0.100,0.210
14.419,-0.100,0.145
14.422,-0.050,0.085
14.425,0.035,0.085
14.428,0.160,0.100
14.431,0.360,0.115
14.433,0.600,0.150
14.436,0.850,0.245
14.439,1.110,0.430
14.442,1.315,0.650
14.444,1.445,0.840
14.447,1.370,0.990
14.450,1.075,1.050
14.453,0.620,1.050
14.456,0.150,1.020
14.458,-0.210,1.020
14.461,-0.415,1.030
14.464,-0.470,1.075
14.467,-0.460,1.100
14.469,-0.430,1.160
14.472,-0.455,1.230
14.475,-0.490,1.325
14.478,-0.510,1.375
14.481,-0.535,1.430
14.483,-0.565,1.465
14.486,-0.610,1.495
14.489,-0.625,1.545
14.492,-0.610,1.605
14.494,-0.580,1.675
14.497,-0.580,1.695
14.500,-0.595,1.695
14.503,-0.625,1.675
14.506,-0.655,1.620
14.508,-0.665,1.535
14.511,-0.650,1.430
14.514,-0.620,1.275
14.517,-0.605,1.075
14.519,-0.570,0.890
14.522,-0.515,0.700
14.525,-0.465,0.555
14.528,-0.425,0.440
14.531,-0.385,0.325
14.533,-0.305,0.265
14.536,-0.245,0.215
14.539,-0.185,0.185
14.542,-0.130,0.160
14.544,-0.095,0.140
14.547,-0.085,0.090
14.550,-0.075,0.075
14.553,-0.080,0.035
14.556,-0.070,0.020
14.558,-0.055,0.035
14.561,-0.040,0.040
14.564,-0.015,0.020
14.567,-0.015,-0.005
14.569,-0.015,-0.040
14.572,-0.010,-0.060
14.575,-0.005,-0.045
14.578,0.015,-0.035
14.581,0.025,-0.050
14.583,0.005,-0.060
14.586,0.005,-0.075
14.589,0.005,-0.090
14.592,0.020,-0.090
14.594,0.050,-0.100
14.597,0.065,-0.115
14.600,0.055,-0.140
14.603,0.045,-0.150
14.606,0.045,-0.170
14.608,0.040,-0.155
14.611,0.070,-0.160
14.614,0.105,-0.190
14.617,0.110,-0.225
14.619,0.105,-0.265
14.622,0.095,-0.270
14.625,0.120,-0.270
14.628,0.140,-0.280
14.631,0.150,-0.275
14.633,0.160,-0.315
14.636,0.165,-0.335
14.639,0.180,-0.340
14.642,0.210,-0.380
14.644,0.235,-0.390
14.647,0.260,-0.415
14.650,0.255,-0.440
14.653,0.255,-0.480
14.656,0.255,-0.465
14.658,0.280,-0.455
14.661,0.315,-0.440
14.664,0.355,-0.450
14.667,0.360,-0.490
14.669,0.360,-0.510
14.672,0.350,-0.515
14.675,0.365,-0.485
14.678,0.375,-0.440
14.681,0.385,-0.405
14.683,0.375,-0.395
14.686,0.350,-0.395
14.689,0.350,-0.370
14.692,0.350,-0.340
14.694,0.345,-0.315
14.697,0.355,-0.285
14.700,0.320,-0.270
14.703,0.280,-0.250
14.706,0.235,-0.205
14.708,0.220,-0.145
14.711,0.215,-0.100
14.714,0.200,-0.070
14.717,0.165,-0.060
14.719,0.125,-0.065
14.722,0.105,-0.030
14.725,0.085,0.000
14.728,0.060,0.050
14.731,0.065,0.065
14.733,0.020,0.085
14.736,-0.010,0.095
14.739,-0.020,0.115
14.742,-0.025,0.135
14.744,-0.040,0.155
14.747,-0.035,0.145
14.750,-0.060,0.135
14.753,-0.100,0.150
14.756,-0.120,0.165
14.758,-0.110,0.190
14.761,-0.110,0.225
14.764,-0.110,0.215
14.767,-0.135,0.195
14.769,-0.140,0.165
14.772,-0.150,0.165
14.775,-0.145,0.175
14.778,-0.130,0.195
14.781,-0.150,0.205
14.783,-0.155,0.190
14.786,-0.175,0.185
14.789,-0.190,0.180
14.792,-0.175,0.195
14.794,-0.160,0.195
14.797,-0.140,0.185
14.800,-0.150,0.170
14.803,-0.180,0.155
14.806,-0.195,0.190
14.808,-0.180,0.225
14.811,-0.160,0.230
14.814,-0.160,0.215
14.817,-0.160,0.185
14.819,-0.165,0.160
14.822,-0.170,0.160
14.825,-0.175,0.175
14.828,-0.165,0.180
14.831,-0.150,0.200
14.833,-0.170,0.185
14.836,-0.175,0.175
14.839,-0.175,0.185
14.842,-0.160,0.195
14.844,-0.140,0.175
14.847,-0.135,0.175
14.850,-0.155,0.140
14.853,-0.170,0.135
14.856,-0.185,0.160
14.858,-0.170,0.195
14.861,-0.155,0.215
14.864,-0.150,0.205
14.867,-0.150,0.160
14.869,-0.160,0.150
14.872,-0.175,0.140
14.875,-0.175,0.165
14.878,-0.155,0.195
14.881,-0.150,0.175
14.883,-0.175,0.185
14.886,-0.185,0.170
14.889,-0.165,0.180
14.892,-0.155,0.185
14.894,-0.135,0.185
14.897,-0.135,0.185
14.900,-0.150,0.160
14.903,-0.175,0.155
14.906,-0.195,0.170
14.908,-0.190,0.215
14.911,-0.175,0.225
14.914,-0.175,0.220
14.917,-0.170,0.190
14.919,-0.175,0.175
14.922,-0.165,0.185
14.925,-0.165,0.215
14.928,-0.145,0.260
14.931,-0.140,0.255
14.933,-0.145,0.265
14.936,-0.125,0.250
14.939,-0.110,0.245
14.942,-0.070,0.265
14.944,-0.035,0.275
14.947,-0.025,0.225
14.950,-0.035,0.205
14.953,-0.035,0.185
14.956,-0.025,0.190
14.958,0.010,0.185
14.961,0.045,0.180
14.964,0.075,0.175
14.967,0.100,0.155
14.969,0.085,0.135
14.972,0.085,0.150
14.975,0.085,0.170
14.978,0.095,0.185
14.981,0.090,0.180
14.983,0.075,0.180
14.986,0.040,0.170
14.989,0.040,0.170
14.992,0.010,0.195
14.994,-0.010,0.205
14.997,-0.060,0.180
15.000,-0.105,0.150
15.003,-0.145,0.130
15.006,-0.160,0.150
15.008,-0.170,0.165
15.011,-0.185,0.185
15.014,-0.180,0.180
15.017,-0.200,0.150
15.019,-0.215,0.150
15.022,-0.220,0.155
15.025,-0.230,0.165
15.028,-0.240,0.170
15.031,-0.235,0.170
15.033,-0.255,0.170
15.036,-0.275,0.180
15.039,-0.275,0.185
15.042,-0.255,0.200
15.044,-0.250,0.205
15.047,-0.255,0.180
15.050,-0.270,0.150
15.053,-0.295,0.155
15.056,-0.275,0.175
15.058,-0.275,0.200
15.061,-0.265,0.230
15.064,-0.270,0.220
15.067,-0.265,0.195
15.069,-0.280,0.185
15.072,-0.275,0.185
15.075,-0.255,0.220
15.078,-0.225,0.265
15.081,-0.225,0.245
15.083,-0.200,0.195
15.086,-0.180,0.135
15.089,-0.090,0.090
15.092,0.045,0.090
15.094,0.230,0.125
15.097,0.460,0.135
15.100,0.730,0.225
15.103,0.990,0.395
15.106,1.195,0.630
15.108,1.325,0.845
15.111,1.260,1.020
15.114,0.965,1.065
15.117,0.520,1.040
15.119,0.025,0.995
15.122,-0.345,0.970
15.125,-0.535,1.005
15.128,-0.590,1.050
15.131,-0.545,1.130
15.133,-0.520,1.210
15.136,-0.535,1.265
15.139,-0.570,1.315
15.142,-0.590,1.370
15.144,-0.620,1.425
15.147,-0.640,1.450
15.150,-0.675,1.475
15.153,-0.700,1.520
15.156,-0.705,1.590
15.158,-0.695,1.680
15.161,-0.685,1.725
15.164,-0.680,1.720
15.167,-0.705,1.670
15.169,-0.725,1.565
15.172,-0.730,1.430
15.175,-0.715,1.305
15.178,-0.675,1.120
15.181,-0.660,0.940
15.183,-0.620,0.745
15.186,-0.580,0.555
15.189,-0.535,0.415
15.192,-0.455,0.325
15.194,-0.375,0.285
15.197,-0.295,0.230
15.200,-0.250,0.155
15.203,-0.210,0.130
15.206,-0.205,0.105
15.208,-0.200,0.100
15.211,-0.180,0.105
15.214,-0.160,0.090
15.217,-0.150,0.050
15.219,-0.140,0.025
15.222,-0.130,0.020
15.225,-0.100,-0.010
15.228,-0.090,-0.005
15.231,-0.080,-0.010
15.233,-0.100,-0.025
15.236,-0.110,-0.040
15.239,-0.130,-0.035
15.242,-0.100,-0.040
15.244,-0.085,-0.020
15.247,-0.060,-0.045
15.250,-0.065,-0.085
15.253,-0.070,-0.095
15.256,-0.080,-0.105
15.258,-0.090,-0.100
15.261,-0.075,-0.100
15.264,-0.050,-0.105
15.267,-0.050,-0.120
15.269,-0.055,-0.130
15.272,-0.045,-0.150
15.275,-0.035,-0.155
15.278,-0.010,-0.160
15.281,0.005,-0.200
15.283,0.010,-0.225
15.286,-0.020,-0.245
15.289,-0.010,-0.240
15.292,0.020,-0.245
15.294,0.040,-0.265
15.297,0.055,-0.290
15.300,0.075,-0.335
15.303,0.075,-0.360
15.306,0.080,-0.390
15.308,0.095,-0.395
15.311,0.115,-0.375
15.314,0.120,-0.400
15.317,0.115,-0.430
15.319,0.115,-0.445
15.322,0.130,-0.450
15.325,0.155,-0.460
15.328,0.190,-0.470
15.331,0.195,-0.500
15.333,0.205,-0.525
15.336,0.185,-0.535
15.339,0.185,-0.500
15.342,0.200,-0.460
15.344,0.225,-0.430
15.347,0.230,-0.430
15.350,0.230,-0.430
15.353,0.225,-0.425
15.356,0.220,-0.405
15.358,0.220,-0.375
15.361,0.215,-0.345
15.364,0.205,-0.340
15.367,0.165,-0.330
15.369,0.130,-0.295
15.372,0.110,-0.255
15.375,0.095,-0.200
15.378,0.085,-0.160
15.381,0.085,-0.170
15.383,0.055,-0.155
15.386,0.020,-0.125
15.389,-0.010,-0.095
15.392,-0.035,-0.030
15.394,-0.045,0.010
15.397,-0.065,0.040
15.400,-0.100,0.040
15.403,-0.125,0.050
15.406,-0.145,0.070
15.408,-0.165,0.090
15.411,-0.160,0.120
15.414,-0.185,0.140
15.417,-0.225,0.125
15.419,-0.260,0.145
15.422,-0.275,0.180
15.425,-0.280,0.190
15.428,-0.270,0.205
15.431,-0.285,0.200
15.433,-0.290,0.170
15.436,-0.315,0.165
15.439,-0.325,0.190
15.442,-0.345,0.200
15.444,-0.335,0.230
15.447,-0.340,0.235
15.450,-0.340,0.215
15.453,-0.355,0.200
15.456,-0.350,0.200
15.458,-0.340,0.210
15.461,-0.340,0.205
15.464,-0.345,0.205
15.467,-0.350,0.200
15.469,-0.385,0.190
15.472,-0.385,0.220
15.475,-0.360,0.235
15.478,-0.345,0.250
15.481,-0.320,0.215
15.483,-0.330,0.180
15.486,-0.355,0.175
15.489,-0.365,0.175
15.492,-0.355,0.195
15.494,-0.345,0.210
15.497,-0.345,0.215
15.500,-0.360,0.200
15.503,-0.375,0.200
15.506,-0.370,0.195
15.508,-0.355,0.205
15.511,-0.335,0.200
15.514,-0.350,0.195
15.517,-0.345,0.175
15.519,-0.355,0.165
15.522,-0.365,0.160
15.525,-0.360,0.195
15.528,-0.340,0.225
15.531,-0.330,0.210
15.533,-0.335,0.175
15.536,-0.345,0.165
15.539,-0.345,0.150
15.542,-0.345,0.165
15.544,-0.350,0.190
15.547,-0.340,0.180
15.550,-0.375,0.185
15.553,-0.380,0.195
15.556,-0.395,0.180
15.558,-0.385,0.195
15.561,-0.350,0.210
15.564,-0.340,0.195
15.567,-0.360,0.165
15.569,-0.395,0.150
15.572,-0.410,0.165
15.575,-0.400,0.185
15.578,-0.385,0.225
15.581,-0.365,0.240
15.583,-0.375,0.235
15.586,-0.380,0.225
15.589,-0.370,0.230
15.592,-0.330,0.230
15.594,-0.310,0.240
15.597,-0.295,0.250
15.600,-0.310,0.230
15.603,-0.300,0.240
15.606,-0.300,0.245
15.608,-0.285,0.235
15.611,-0.245,0.235
15.614,-0.215,0.210
15.617,-0.200,0.165
15.619,-0.185,0.120
15.622,-0.160,0.100
15.625,-0.140,0.130
15.628,-0.130,0.170
15.631,-0.135,0.185
15.633,-0.130,0.190
15.636,-0.150,0.190
15.639,-0.160,0.175
15.642,-0.175,0.190
15.644,-0.175,0.190
15.647,-0.175,0.170
15.650,-0.195,0.175
15.653,-0.245,0.175
15.656,-0.315,0.190
15.658,-0.345,0.180
15.661,-0.370,0.195
15.664,-0.365,0.200
15.667,-0.390,0.165
15.669,-0.410,0.150
15.672,-0.425,0.135
15.675,-0.435,0.145
15.678,-0.445,0.160
15.681,-0.450,0.170
15.683,-0.480,0.170
15.686,-0.500,0.160
15.689,-0.515,0.165
15.692,-0.510,0.185
15.694,-0.505,0.190
15.697,-0.500,0.180
15.700,-0.505,0.155
15.703,-0.525,0.140
15.706,-0.550,0.155
15.708,-0.530,0.165
15.711,-0.515,0.195
15.714,-0.500,0.200
15.717,-0.520,0.205
15.719,-0.545,0.180
15.722,-0.545,0.160
15.725,-0.525,0.185
15.728,-0.505,0.185
15.731,-0.530,0.175
15.733,-0.520,0.160
15.736,-0.540,0.165
15.739,-0.535,0.170
15.742,-0.530,0.195
15.744,-0.495,0.215
15.747,-0.480,0.235
15.750,-0.465,0.190
15.753,-0.460,0.130
15.756,-0.415,0.065
15.758,-0.350,0.020
15.761,-0.260,0.040
15.764,-0.100,0.055
15.767,0.075,0.080
15.769,0.300,0.140
15.772,0.570,0.255
15.775,0.820,0.425
15.778,0.990,0.575
15.781,1.060,0.695
15.783,0.945,0.830
15.786,0.635,0.905
15.789,0.215,0.915
15.792,-0.215,0.895
15.794,-0.545,0.905
15.797,-0.745,0.885
15.800,-0.810,0.890
15.803,-0.785,0.940
15.806,-0.750,1.005
15.808,-0.745,1.055
15.811,-0.770,1.150
15.814,-0.810,1.175
15.817,-0.860,1.220
15.819,-0.915,1.270
15.822,-0.950,1.310
15.825,-0.935,1.365
15.828,-0.925,1.420
15.831,-0.890,1.455
15.833,-0.900,1.500
15.836,-0.920,1.525
15.839,-0.940,1.550
15.842,-0.945,1.560
15.844,-0.955,1.515
15.847,-0.970,1.395
15.850,-0.970,1.270
15.853,-0.965,1.130
15.856,-0.930,0.970
15.858,-0.870,0.815
15.861,-0.815,0.670
15.864,-0.775,0.510
15.867,-0.735,0.345
15.869,-0.710,0.230
15.872,-0.655,0.190
15.875,-0.590,0.195
15.878,-0.515,0.190
15.881,-0.465,0.150
15.883,-0.435,0.100
15.886,-0.435,0.050
15.889,-0.455,0.030
15.892,-0.430,0.025
15.894,-0.400,0.035
15.897,-0.390,0.030
15.900,-0.385,-0.010
15.903,-0.390,-0.005
15.906,-0.385,-0.010
15.908,-0.365,0.000
15.911,-0.355,-0.010
15.914,-0.330,-0.035
15.917,-0.325,-0.060
15.919,-0.340,-0.090
15.922,-0.345,-0.085
15.925,-0.335,-0.090
15.928,-0.310,-0.070
15.931,-0.310,-0.075
15.933,-0.305,-0.080
15.936,-0.320,-0.120
15.939,-0.295,-0.135
15.942,-0.285,-0.150
15.944,-0.265,-0.145
15.947,-0.255,-0.170
15.950,-0.265,-0.185
15.953,-0.285,-0.195
15.956,-0.275,-0.190
15.958,-0.270,-0.190
15.961,-0.245,-0.165
15.964,-0.225,-0.200
15.967,-0.220,-0.245
15.969,-0.230,-0.290
15.972,-0.220,-0.310
15.975,-0.200,-0.315
15.978,-0.180,-0.310
15.981,-0.170,-0.330
15.983,-0.170,-0.345
15.986,-0.155,-0.365
15.989,-0.150,-0.400
15.992,-0.120,-0.410
15.994,-0.085,-0.420
15.997,-0.060,-0.450
16.000,-0.055,-0.475
16.003,-0.055,-0.490
16.006,-0.050,-0.500
16.008,-0.045,-0.480
16.011,-0.020,-0.460
16.014,0.010,-0.460
16.017,0.030,-0.480
16.019,0.030,-0.495
16.022,0.035,-0.495
16.025,0.040,-0.465
16.028,0.045,-0.435
16.031,0.045,-0.420
16.033,0.015,-0.390
16.036,0.015,-0.370
16.039,0.000,-0.350
16.042,-0.005,-0.320
16.044,0.015,-0.290
16.047,0.000,-0.275
16.050,-0.020,-0.270
16.053,-0.065,-0.260
16.056,-0.100,-0.210
16.058,-0.115,-0.145
16.061,-0.140,-0.105
16.064,-0.150,-0.085
16.067,-0.175,-0.070
16.069,-0.195,-0.065
16.072,-0.220,-0.045
16.075,-0.230,-0.025
16.078,-0.240,0.015
16.081,-0.260,0.040
16.083,-0.305,0.050
16.086,-0.330,0.075
16.089,-0.340,0.100
16.092,-0.350,0.125
16.094,-0.350,0.145
16.097,-0.375,0.130
16.100,-0.390,0.130
16.103,-0.410,0.130
16.106,-0.425,0.150
16.108,-0.435,0.160
16.111,-0.440,0.190
16.114,-0.430,0.205
16.117,-0.455,0.195
16.119,-0.445,0.180
16.122,-0.455,0.180
16.125,-0.455,0.175
16.128,-0.450,0.195
16.131,-0.450,0.185
16.133,-0.460,0.195
16.136,-0.465,0.170
16.139,-0.485,0.195
16.142,-0.465,0.215
16.144,-0.455,0.210
16.147,-0.440,0.215
16.150,-0.445,0.195
16.153,-0.455,0.170
16.156,-0.470,0.165
16.158,-0.465,0.170
16.161,-0.445,0.200
16.164,-0.440,0.200
16.167,-0.450,0.205
16.169,-0.460,0.190
16.172,-0.465,0.180
16.175,-0.450,0.175
16.178,-0.430,0.185
16.181,-0.415,0.165
16.183,-0.430,0.145
16.186,-0.455,0.155
16.189,-0.460,0.175
16.192,-0.440,0.195
16.194,-0.440,0.205
16.197,-0.430,0.185
16.200,-0.430,0.170
16.203,-0.440,0.155
16.206,-0.435,0.130
16.208,-0.425,0.160
16.211,-0.415,0.195
16.214,-0.425,0.180
16.217,-0.435,0.195
16.219,-0.445,0.180
16.222,-0.445,0.200
16.225,-0.435,0.200
16.228,-0.420,0.195
16.231,-0.410,0.175
16.233,-0.425,0.175
16.236,-0.460,0.170
16.239,-0.460,0.185
16.242,-0.440,0.240
16.244,-0.435,0.250
16.247,-0.420,0.270
16.250,-0.400,0.230
16.253,-0.410,0.205
16.256,-0.385,0.205
16.258,-0.345,0.220
16.261,-0.330,0.230
16.264,-0.330,0.235
16.267,-0.325,0.220
16.269,-0.340,0.225
16.272,-0.310,0.205
16.275,-0.280,0.220
16.278,-0.245,0.205
16.281,-0.215,0.170
16.283,-0.200,0.140
16.286,-0.200,0.120
16.289,-0.185,0.135
16.292,-0.170,0.165
16.294,-0.160,0.200
16.297,-0.145,0.200
16.300,-0.165,0.190
16.303,-0.165,0.195
16.306,-0.170,0.185
16.308,-0.175,0.170
16.311,-0.175,0.190
16.314,-0.200,0.185
16.317,-0.240,0.180
16.319,-0.305,0.180
16.322,-0.350,0.185
16.325,-0.365,0.205
16.328,-0.365,0.205
16.331,-0.365,0.185
16.333,-0.380,0.140
16.336,-0.395,0.145
16.339,-0.415,0.145
16.342,-0.415,0.160
16.344,-0.420,0.175
16.347,-0.420,0.180
16.350,-0.440,0.175
16.353,-0.460,0.160
16.356,-0.470,0.175
16.358,-0.445,0.170
16.361,-0.425,0.175
16.364,-0.425,0.165
16.367,-0.450,0.160
16.369,-0.470,0.150
16.372,-0.485,0.170
16.375,-0.470,0.195
16.378,-0.455,0.225
16.381,-0.440,0.195
16.383,-0.450,0.170
16.386,-0.455,0.155
16.389,-0.450,0.150
16.392,-0.435,0.180
16.394,-0.420,0.180
16.397,-0.415,0.190
16.400,-0.420,0.185
16.403,-0.435,0.190
16.406,-0.415,0.230
16.408,-0.385,0.245
16.411,-0.345,0.215
16.414,-0.300,0.130
16.417,-0.260,0.070
16.419,-0.180,0.035
16.422,-0.040,0.060
16.425,0.180,0.105
16.428,0.445,0.180
16.431,0.705,0.300
16.433,0.945,0.455
16.436,1.130,0.590
16.439,1.185,0.725
16.442,1.120,0.880
16.444,0.870,0.950
16.447,0.465,0.955
16.450,0.015,0.935
16.453,-0.375,0.900
16.456,-0.610,0.935
16.458,-0.710,0.960
16.461,-0.680,1.030
16.464,-0.630,1.085
16.467,-0.635,1.150
16.469,-0.685,1.165
16.472,-0.735,1.215
16.475,-0.765,1.285
16.478,-0.785,1.370
16.481,-0.800,1.410
16.483,-0.830,1.450
16.486,-0.855,1.480
16.489,-0.840,1.540
16.492,-0.825,1.580
16.494,-0.800,1.630
16.497,-0.805,1.645
16.500,-0.850,1.590
16.503,-0.865,1.500
16.506,-0.885,1.390
16.508,-0.880,1.275
16.511,-0.830,1.155
16.514,-0.770,0.960
16.517,-0.730,0.770
16.519,-0.700,0.570
16.522,-0.670,0.430
16.525,-0.615,0.335
16.528,-0.530,0.300
16.531,-0.465,0.255
16.533,-0.420,0.205
16.536,-0.380,0.175
16.539,-0.340,0.135
16.542,-0.295,0.120
16.544,-0.265,0.110
16.547,-0.245,0.070
16.550,-0.250,0.025
16.553,-0.255,0.010
16.556,-0.260,0.010
16.558,-0.230,0.025
16.561,-0.215,0.045
16.564,-0.205,0.035
16.567,-0.185,0.000
16.569,-0.195,-0.040
16.572,-0.185,-0.065
16.575,-0.175,-0.060
16.578,-0.175,-0.045
16.581,-0.170,-0.060
16.583,-0.160,-0.070
16.586,-0.170,-0.080
16.589,-0.175,-0.095
16.592,-0.150,-0.085
16.594,-0.115,-0.095
16.597,-0.105,-0.135
16.600,-0.100,-0.155
16.603,-0.120,-0.165
16.606,-0.110,-0.170
16.608,-0.105,-0.180
16.611,-0.080,-0.170
16.614,-0.075,-0.175
16.617,-0.055,-0.195
16.619,-0.065,-0.220
16.622,-0.045,-0.250
16.625,-0.025,-0.275
16.628,0.000,-0.275
16.631,0.000,-0.295
16.633,-0.005,-0.325
16.636,0.000,-0.340
16.639,-0.010,-0.350
16.642,0.030,-0.365
16.644,0.060,-0.360
16.647,0.080,-0.380
16.650,0.095,-0.415
16.653,0.100,-0.435
16.656,0.100,-0.470
16.658,0.120,-0.460
16.661,0.145,-0.440
16.664,0.160,-0.440
16.667,0.160,-0.455
16.669,0.165,-0.455
16.672,0.165,-0.455
16.675,0.175,-0.440
16.678,0.190,-0.435
16.681,0.205,-0.445
16.683,0.215,-0.425
16.686,0.210,-0.420
16.689,0.200,-0.390
16.692,0.190,-0.345
16.694,0.200,-0.315
16.697,0.195,-0.290
16.700,0.180,-0.275
16.703,0.160,-0.275
16.706,0.165,-0.250
16.708,0.150,-0.220
16.711,0.135,-0.195
16.714,0.120,-0.170
16.717,0.085,-0.145
16.719,0.050,-0.105
16.722,0.015,-0.070
16.725,0.015,-0.035
16.728,0.010,-0.005
16.731,0.010,0.010
16.733,-0.025,0.015
16.736,-0.040,0.035
16.739,-0.060,0.045
16.742,-0.090,0.080
16.744,-0.105,0.125
16.747,-0.120,0.140
16.750,-0.145,0.155
16.753,-0.155,0.165
16.756,-0.175,0.165
16.758,-0.150,0.170
16.761,-0.155,0.180
16.764,-0.155,0.170
16.767,-0.185,0.150
16.769,-0.215,0.160
16.772,-0.220,0.175
16.775,-0.225,0.220
16.778,-0.220,0.240
16.781,-0.210,0.210
16.783,-0.220,0.190
16.786,-0.255,0.175
16.789,-0.255,0.180
16.792,-0.235,0.190
16.794,-0.235,0.200
16.797,-0.240,0.210
16.800,-0.255,0.210
16.803,-0.275,0.205
16.806,-0.260,0.235
16.808,-0.245,0.230
16.811,-0.220,0.235
16.814,-0.205,0.215
16.817,-0.220,0.190
16.819,-0.245,0.185
16.822,-0.255,0.200
16.825,-0.240,0.235
16.828,-0.220,0.255
16.831,-0.210,0.250
16.833,-0.215,0.220
16.836,-0.230,0.205
16.839,-0.225,0.210
16.842,-0.215,0.215
16.844,-0.215,0.225
16.847,-0.205,0.215
16.850,-0.220,0.220
16.853,-0.240,0.205
16.856,-0.235,0.235
16.858,-0.225,0.240
16.861,-0.210,0.255
16.864,-0.195,0.235
16.867,-0.200,0.210
16.869,-0.210,0.185
16.872,-0.230,0.200
16.875,-0.215,0.230
16.878,-0.215,0.245
16.881,-0.210,0.255
16.883,-0.215,0.240
16.886,-0.225,0.230
16.889,-0.230,0.220
16.892,-0.215,0.220
16.894,-0.200,0.220
16.897,-0.205,0.225
16.900,-0.215,0.220
16.903,-0.235,0.215
16.906,-0.240,0.235
16.908,-0.235,0.255
16.911,-0.205,0.275
16.914,-0.205,0.270
16.917,-0.195,0.240
16.919,-0.210,0.220
16.922,-0.225,0.235
16.925,-0.210,0.245
16.928,-0.210,0.290
16.931,-0.185,0.300
16.933,-0.185,0.300
16.936,-0.180,0.280
16.939,-0.155,0.275
16.942,-0.130,0.305
16.944,-0.095,0.305
16.947,-0.070,0.290
16.950,-0.065,0.260
16.953,-0.070,0.215
16.956,-0.065,0.215
16.958,-0.045,0.230
16.961,-0.010,0.225
16.964,0.025,0.215
16.967,0.035,0.190
16.969,0.045,0.160
16.972,0.055,0.165
16.975,0.045,0.185
16.978,0.075,0.215
16.981,0.085,0.220
16.983,0.070,0.235
16.986,0.040,0.235
16.989,0.010,0.215
16.992,0.010,0.210
16.994,0.005,0.245
16.997,-0.010,0.235
17.000,-0.075,0.210
17.003,-0.125,0.175
17.006,-0.170,0.195
17.008,-0.180,0.185
17.011,-0.190,0.215
17.014,-0.195,0.225
17.017,-0.215,0.215
17.019,-0.230,0.185
17.022,-0.250,0.165
17.025,-0.250,0.180
17.028,-0.265,0.190
17.031,-0.265,0.200
17.033,-0.285,0.200
17.036,-0.305,0.190
17.039,-0.305,0.195
17.042,-0.310,0.210
17.044,-0.295,0.230
17.047,-0.285,0.215
17.050,-0.285,0.195
17.053,-0.305,0.175
17.056,-0.320,0.180
17.058,-0.330,0.215
17.061,-0.310,0.245
17.064,-0.300,0.240
17.067,-0.300,0.230
17.069,-0.310,0.195
17.072,-0.320,0.190
17.075,-0.290,0.205
17.078,-0.280,0.230
17.081,-0.270,0.250
17.083,-0.270,0.265
17.086,-0.280,0.255
17.089,-0.255,0.200
17.092,-0.180,0.155
17.094,-0.070,0.130
17.097,0.070,0.105
17.100,0.235,0.065
17.103,0.450,0.085
17.106,0.690,0.180
17.108,0.960,0.375
17.111,1.185,0.620
17.114,1.325,0.810
17.117,1.305,0.960
17.119,1.060,1.010
17.122,0.625,1.035
