'Elapsed time','MLII','V1'
'seconds','mV','mV'
0.000,-0.010,-0.615
0.003,-0.010,-0.615
0.006,-0.010,-0.615
0.008,-0.010,-0.615
0.011,-0.010,-0.615
0.014,-0.010,-0.615
0.017,-0.010,-0.615
0.019,-0.010,-0.615
0.022,-0.010,-0.620
0.025,-0.035,-0.610
0.028,-0.070,-0.595
0.031,-0.100,-0.555
0.033,-0.125,-0.555
0.036,-0.150,-0.530
0.039,-0.160,-0.525
0.042,-0.175,-0.525
0.044,-0.180,-0.510
0.047,-0.195,-0.505
0.050,-0.225,-0.495
0.053,-0.255,-0.485
0.056,-0.310,-0.485
0.058,-0.340,-0.480
0.061,-0.370,-0.485
0.064,-0.385,-0.475
0.067,-0.400,-0.475
0.069,-0.405,-0.440
0.072,-0.395,-0.390
0.075,-0.395,-0.370
0.078,-0.390,-0.350
0.081,-0.395,-0.325
0.083,-0.385,-0.305
0.086,-0.390,-0.290
0.089,-0.395,-0.265
0.092,-0.395,-0.255
0.094,-0.415,-0.260
0.097,-0.410,-0.260
0.100,-0.400,-0.270
0.103,-0.355,-0.305
0.106,-0.320,-0.330
0.108,-0.275,-0.350
0.111,-0.215,-0.370
0.114,-0.160,-0.420
0.117,-0.135,-0.450
0.119,-0.120,-0.490
0.122,-0.115,-0.525
0.125,-0.105,-0.550
0.128,-0.090,-0.570
0.131,-0.080,-0.580
0.133,-0.075,-0.580
0.136,-0.050,-0.570
0.139,-0.055,-0.585
0.142,-0.085,-0.580
0.144,-0.130,-0.595
0.147,-0.190,-0.605
0.150,-0.265,-0.605
0.153,-0.325,-0.640
0.156,-0.380,-0.665
0.158,-0.425,-0.675
0.161,-0.450,-0.700
0.164,-0.465,-0.690
0.167,-0.500,-0.680
0.169,-0.500,-0.660
0.172,-0.500,-0.675
0.175,-0.490,-0.665
0.178,-0.475,-0.660
0.181,-0.470,-0.670
0.183,-0.475,-0.690
0.186,-0.485,-0.710
0.189,-0.485,-0.705
0.192,-0.505,-0.705
0.194,-0.505,-0.700
0.197,-0.510,-0.690
0.200,-0.495,-0.690
0.203,-0.490,-0.690
0.206,-0.485,-0.685
0.208,-0.480,-0.680
0.211,-0.500,-0.675
0.214,-0.505,-0.675
0.217,-0.500,-0.650
0.219,-0.490,-0.640
0.222,-0.490,-0.610
0.225,-0.485,-0.570
0.228,-0.505,-0.530
0.231,-0.530,-0.520
0.233,-0.560,-0.585
0.236,-0.560,-0.775
0.239,-0.505,-1.065
0.242,-0.380,-1.455
0.244,-0.175,-1.870
0.247,0.105,-2.240
0.250,0.445,-2.505
0.253,0.815,-2.680
0.256,1.215,-2.740
0.258,1.575,-2.735
0.261,1.855,-2.700
0.264,1.965,-2.650
0.267,1.880,-2.600
0.269,1.620,-2.545
0.272,1.260,-2.465
0.275,0.860,-2.370
0.278,0.430,-2.205
0.281,0.010,-1.965
0.283,-0.375,-1.655
0.286,-0.720,-1.380
0.289,-1.010,-1.160
0.292,-1.210,-1.030
0.294,-1.325,-0.970
0.297,-1.320,-0.930
0.300,-1.230,-0.915
0.303,-1.100,-0.880
0.306,-0.960,-0.860
0.308,-0.845,-0.820
0.311,-0.780,-0.785
0.314,-0.750,-0.765
0.317,-0.760,-0.755
0.319,-0.800,-0.750
0.322,-0.850,-0.760
0.325,-0.885,-0.765
0.328,-0.905,-0.760
0.331,-0.900,-0.745
0.333,-0.905,-0.730
0.336,-0.895,-0.715
0.339,-0.905,-0.705
0.342,-0.920,-0.685
0.344,-0.930,-0.665
0.347,-0.935,-0.665
0.350,-0.930,-0.650
0.353,-0.920,-0.660
0.356,-0.910,-0.655
0.358,-0.905,-0.645
0.361,-0.920,-0.650
0.364,-0.925,-0.640
0.367,-0.940,-0.615
0.369,-0.940,-0.610
0.372,-0.935,-0.590
0.375,-0.930,-0.580
0.378,-0.915,-0.555
0.381,-0.900,-0.530
0.383,-0.885,-0.510
0.386,-0.890,-0.510
0.389,-0.905,-0.505
0.392,-0.910,-0.505
0.394,-0.905,-0.490
0.397,-0.885,-0.460
0.400,-0.850,-0.440
0.403,-0.815,-0.405
0.406,-0.795,-0.385
0.408,-0.775,-0.365
0.411,-0.770,-0.355
0.414,-0.755,-0.345
0.417,-0.730,-0.330
0.419,-0.710,-0.345
0.422,-0.675,-0.315
0.425,-0.640,-0.315
0.428,-0.615,-0.310
0.431,-0.585,-0.280
0.433,-0.560,-0.280
0.436,-0.540,-0.260
0.439,-0.515,-0.255
0.442,-0.480,-0.250
0.444,-0.440,-0.235
0.447,-0.395,-0.235
0.450,-0.355,-0.225
0.453,-0.330,-0.220
0.456,-0.300,-0.225
0.458,-0.280,-0.240
0.461,-0.260,-0.255
0.464,-0.240,-0.260
0.467,-0.210,-0.270
0.469,-0.155,-0.270
0.472,-0.105,-0.260
0.475,-0.060,-0.255
0.478,-0.025,-0.270
0.481,0.010,-0.275
0.483,0.045,-0.300
0.486,0.070,-0.315
0.489,0.100,-0.350
0.492,0.150,-0.385
0.494,0.180,-0.400
0.497,0.220,-0.410
0.500,0.255,-0.420
0.503,0.275,-0.410
0.506,0.300,-0.390
0.508,0.310,-0.375
0.511,0.325,-0.360
0.514,0.360,-0.355
0.517,0.390,-0.350
0.519,0.400,-0.330
0.522,0.380,-0.330
0.525,0.365,-0.320
0.528,0.335,-0.325
0.531,0.300,-0.335
0.533,0.275,-0.350
0.536,0.250,-0.375
0.539,0.230,-0.375
0.542,0.185,-0.380
0.544,0.125,-0.370
0.547,0.090,-0.355
0.550,0.035,-0.335
0.553,-0.010,-0.330
0.556,-0.065,-0.310
0.558,-0.105,-0.290
0.561,-0.145,-0.270
0.564,-0.175,-0.245
0.567,-0.205,-0.215
0.569,-0.230,-0.205
0.572,-0.255,-0.200
0.575,-0.265,-0.210
0.578,-0.275,-0.225
0.581,-0.275,-0.260
0.583,-0.265,-0.295
0.586,-0.265,-0.335
0.589,-0.275,-0.370
0.592,-0.315,-0.375
0.594,-0.355,-0.405
0.597,-0.405,-0.400
0.600,-0.445,-0.410
0.603,-0.455,-0.425
0.606,-0.470,-0.430
0.608,-0.475,-0.455
0.611,-0.490,-0.475
0.614,-0.500,-0.490
0.617,-0.515,-0.505
0.619,-0.525,-0.510
0.622,-0.555,-0.520
0.625,-0.550,-0.535
0.628,-0.555,-0.545
0.631,-0.555,-0.570
0.633,-0.550,-0.575
0.636,-0.545,-0.575
0.639,-0.540,-0.570
0.642,-0.530,-0.580
0.644,-0.515,-0.580
0.647,-0.505,-0.575
0.650,-0.490,-0.590
0.653,-0.475,-0.585
0.656,-0.465,-0.595
0.658,-0.480,-0.565
0.661,-0.490,-0.555
0.664,-0.520,-0.545
0.667,-0.540,-0.555
0.669,-0.550,-0.625
0.672,-0.535,-0.775
0.675,-0.480,-1.030
0.678,-0.375,-1.325
0.681,-0.210,-1.655
0.683,0.005,-1.955
0.686,0.290,-2.200
0.689,0.655,-2.370
0.692,1.080,-2.455
0.694,1.510,-2.505
0.697,1.865,-2.525
0.700,2.110,-2.530
0.703,2.175,-2.520
0.706,2.065,-2.530
0.708,1.815,-2.530
0.711,1.510,-2.500
0.714,1.155,-2.410
0.717,0.775,-2.195
0.719,0.410,-1.890
0.722,0.045,-1.550
0.725,-0.360,-1.260
0.728,-0.720,-1.065
0.731,-1.000,-0.945
0.733,-1.140,-0.895
0.736,-1.165,-0.880
0.739,-1.060,-0.870
0.742,-0.920,-0.855
0.744,-0.795,-0.825
0.747,-0.715,-0.815
0.750,-0.705,-0.795
0.753,-0.745,-0.795
0.756,-0.800,-0.790
0.758,-0.870,-0.800
0.761,-0.895,-0.785
0.764,-0.910,-0.780
0.767,-0.930,-0.755
0.769,-0.910,-0.735
0.772,-0.905,-0.720
0.775,-0.920,-0.705
0.778,-0.930,-0.690
0.781,-0.950,-0.675
0.783,-0.955,-0.660
0.786,-0.975,-0.645
0.789,-0.990,-0.630
0.792,-1.025,-0.625
0.794,-1.040,-0.625
0.797,-1.065,-0.620
0.800,-1.070,-0.605
0.803,-1.080,-0.590
0.806,-1.065,-0.560
0.808,-1.055,-0.540
0.811,-1.050,-0.510
0.814,-1.045,-0.495
0.817,-1.065,-0.495
0.819,-1.065,-0.485
0.822,-1.090,-0.490
0.825,-1.105,-0.480
0.828,-1.110,-0.445
0.831,-1.100,-0.430
0.833,-1.100,-0.405
0.836,-1.100,-0.380
0.839,-1.075,-0.360
0.842,-1.065,-0.355
0.844,-1.045,-0.345
0.847,-1.025,-0.345
0.850,-1.000,-0.320
0.853,-0.980,-0.325
0.856,-0.945,-0.300
0.858,-0.915,-0.305
0.861,-0.895,-0.295
0.864,-0.880,-0.305
0.867,-0.850,-0.315
0.869,-0.805,-0.320
0.872,-0.750,-0.310
0.875,-0.695,-0.305
0.878,-0.630,-0.290
0.881,-0.590,-0.300
0.883,-0.550,-0.290
0.886,-0.515,-0.310
0.889,-0.505,-0.355
0.892,-0.450,-0.380
0.894,-0.400,-0.400
0.897,-0.365,-0.410
0.900,-0.315,-0.425
0.903,-0.275,-0.440
0.906,-0.230,-0.440
0.908,-0.185,-0.460
0.911,-0.145,-0.485
0.914,-0.105,-0.500
0.917,-0.060,-0.530
0.919,-0.020,-0.540
0.922,0.000,-0.560
0.925,-0.015,-0.560
0.928,-0.015,-0.565
0.931,-0.020,-0.560
0.933,-0.015,-0.575
0.936,-0.005,-0.580
0.939,0.000,-0.585
0.942,0.000,-0.585
0.944,-0.005,-0.570
0.947,-0.015,-0.570
0.950,-0.040,-0.575
0.953,-0.075,-0.575
0.956,-0.090,-0.590
0.958,-0.110,-0.595
0.961,-0.135,-0.610
0.964,-0.170,-0.600
0.967,-0.195,-0.590
0.969,-0.205,-0.575
0.972,-0.240,-0.555
0.975,-0.245,-0.540
0.978,-0.250,-0.525
0.981,-0.250,-0.535
0.983,-0.260,-0.555
0.986,-0.295,-0.545
0.989,-0.325,-0.530
0.992,-0.355,-0.525
0.994,-0.390,-0.520
0.997,-0.410,-0.495
1.000,-0.430,-0.480
1.003,-0.435,-0.465
1.006,-0.455,-0.455
1.008,-0.460,-0.440
1.011,-0.495,-0.425
1.014,-0.490,-0.425
1.017,-0.515,-0.420
1.019,-0.530,-0.420
1.022,-0.545,-0.435
1.025,-0.555,-0.455
1.028,-0.575,-0.445
1.031,-0.575,-0.450
1.033,-0.600,-0.450
1.036,-0.600,-0.450
1.039,-0.605,-0.445
1.042,-0.605,-0.455
1.044,-0.585,-0.455
1.047,-0.555,-0.455
1.050,-0.555,-0.465
1.053,-0.555,-0.475
1.056,-0.565,-0.475
1.058,-0.590,-0.485
1.061,-0.600,-0.485
1.064,-0.600,-0.500
1.067,-0.605,-0.515
1.069,-0.595,-0.515
1.072,-0.595,-0.520
1.075,-0.575,-0.520
1.078,-0.595,-0.515
1.081,-0.590,-0.500
1.083,-0.585,-0.505
1.086,-0.590,-0.510
1.089,-0.600,-0.510
1.092,-0.600,-0.520
1.094,-0.595,-0.535
1.097,-0.605,-0.555
1.100,-0.630,-0.560
1.103,-0.630,-0.540
1.106,-0.625,-0.535
1.108,-0.595,-0.530
1.111,-0.580,-0.525
1.114,-0.560,-0.515
1.117,-0.565,-0.525
1.119,-0.575,-0.535
1.122,-0.600,-0.535
1.125,-0.620,-0.550
1.128,-0.640,-0.545
1.131,-0.615,-0.535
1.133,-0.610,-0.520
1.136,-0.600,-0.490
1.139,-0.580,-0.465
1.142,-0.575,-0.435
1.144,-0.565,-0.415
1.147,-0.555,-0.370
1.150,-0.550,-0.325
1.153,-0.545,-0.280
1.156,-0.555,-0.250
1.158,-0.555,-0.230
1.161,-0.545,-0.250
1.164,-0.555,-0.285
1.167,-0.550,-0.325
1.169,-0.535,-0.365
1.172,-0.495,-0.395
1.175,-0.455,-0.405
1.178,-0.405,-0.415
1.181,-0.365,-0.430
1.183,-0.340,-0.455
1.186,-0.325,-0.475
1.189,-0.320,-0.500
1.192,-0.315,-0.530
1.194,-0.315,-0.550
1.197,-0.300,-0.545
1.200,-0.290,-0.525
1.203,-0.280,-0.525
1.206,-0.285,-0.525
1.208,-0.290,-0.540
1.211,-0.305,-0.555
1.214,-0.340,-0.590
1.217,-0.390,-0.600
1.219,-0.445,-0.625
1.222,-0.500,-0.640
1.225,-0.565,-0.640
1.228,-0.615,-0.645
1.231,-0.660,-0.635
1.233,-0.695,-0.645
1.236,-0.700,-0.650
1.239,-0.680,-0.645
1.242,-0.665,-0.630
1.244,-0.645,-0.620
1.247,-0.625,-0.620
1.250,-0.630,-0.620
1.253,-0.630,-0.625
1.256,-0.655,-0.630
1.258,-0.665,-0.655
1.261,-0.675,-0.660
1.264,-0.680,-0.675
1.267,-0.675,-0.665
1.269,-0.665,-0.650
1.272,-0.660,-0.635
1.275,-0.660,-0.620
1.278,-0.660,-0.605
1.281,-0.660,-0.580
1.283,-0.675,-0.565
1.286,-0.665,-0.520
1.289,-0.680,-0.475
1.292,-0.685,-0.440
1.294,-0.720,-0.475
1.297,-0.745,-0.585
1.300,-0.735,-0.805
1.303,-0.670,-1.130
1.306,-0.530,-1.510
1.308,-0.295,-1.895
1.311,-0.010,-2.235
1.314,0.350,-2.505
1.317,0.770,-2.685
1.319,1.220,-2.770
1.322,1.610,-2.790
1.325,1.885,-2.770
1.328,1.975,-2.720
1.331,1.865,-2.660
1.333,1.580,-2.575
1.336,1.195,-2.460
1.339,0.755,-2.250
1.342,0.310,-1.935
1.344,-0.110,-1.560
1.347,-0.520,-1.235
1.350,-0.880,-1.000
1.353,-1.150,-0.870
1.356,-1.310,-0.830
1.358,-1.320,-0.835
1.361,-1.235,-0.845
1.364,-1.110,-0.840
1.367,-0.985,-0.845
1.369,-0.895,-0.810
1.372,-0.860,-0.795
1.375,-0.875,-0.780
1.378,-0.910,-0.755
1.381,-0.955,-0.735
1.383,-0.995,-0.715
1.386,-1.020,-0.710
1.389,-1.025,-0.710
1.392,-1.020,-0.720
1.394,-1.020,-0.720
1.397,-1.030,-0.720
1.400,-1.040,-0.695
1.403,-1.055,-0.675
1.406,-1.070,-0.640
1.408,-1.080,-0.630
1.411,-1.085,-0.605
1.414,-1.085,-0.600
1.417,-1.075,-0.600
1.419,-1.080,-0.590
1.422,-1.085,-0.585
1.425,-1.100,-0.590
1.428,-1.120,-0.575
1.431,-1.125,-0.570
1.433,-1.125,-0.545
1.436,-1.125,-0.540
1.439,-1.110,-0.540
1.442,-1.085,-0.525
1.444,-1.065,-0.490
1.447,-1.085,-0.470
1.450,-1.070,-0.470
1.453,-1.050,-0.460
1.456,-1.045,-0.445
1.458,-1.030,-0.450
1.461,-1.025,-0.460
1.464,-1.005,-0.440
1.467,-0.990,-0.420
1.469,-0.990,-0.400
1.472,-0.975,-0.370
1.475,-0.950,-0.330
1.478,-0.920,-0.305
1.481,-0.890,-0.300
1.483,-0.855,-0.285
1.486,-0.820,-0.280
1.489,-0.825,-0.285
1.492,-0.805,-0.265
1.494,-0.795,-0.245
1.497,-0.770,-0.215
1.500,-0.750,-0.190
1.503,-0.705,-0.180
1.506,-0.645,-0.145
1.508,-0.615,-0.140
1.511,-0.580,-0.120
1.514,-0.545,-0.115
1.517,-0.510,-0.105
1.519,-0.485,-0.100
1.522,-0.440,-0.090
1.525,-0.400,-0.095
1.528,-0.375,-0.090
1.531,-0.345,-0.080
1.533,-0.315,-0.070
1.536,-0.295,-0.070
1.539,-0.265,-0.075
1.542,-0.220,-0.055
1.544,-0.175,-0.045
1.547,-0.130,-0.045
1.550,-0.085,-0.050
1.553,-0.055,-0.060
1.556,-0.020,-0.085
1.558,0.000,-0.100
1.561,0.015,-0.110
1.564,0.030,-0.120
1.567,0.055,-0.140
1.569,0.085,-0.155
1.572,0.135,-0.170
1.575,0.140,-0.190
1.578,0.180,-0.215
1.581,0.185,-0.225
1.583,0.190,-0.275
1.586,0.185,-0.285
1.589,0.200,-0.325
1.592,0.220,-0.340
1.594,0.215,-0.375
1.597,0.215,-0.395
1.600,0.195,-0.405
1.603,0.190,-0.420
1.606,0.165,-0.435
1.608,0.155,-0.425
1.611,0.150,-0.425
1.614,0.155,-0.435
1.617,0.125,-0.445
1.619,0.105,-0.450
1.622,0.085,-0.470
1.625,0.045,-0.485
1.628,0.000,-0.485
1.631,-0.035,-0.490
1.633,-0.050,-0.470
1.636,-0.090,-0.450
1.639,-0.105,-0.450
1.642,-0.130,-0.430
1.644,-0.145,-0.440
1.647,-0.170,-0.445
1.650,-0.205,-0.440
1.653,-0.235,-0.435
1.656,-0.265,-0.435
1.658,-0.275,-0.430
1.661,-0.300,-0.435
1.664,-0.320,-0.435
1.667,-0.350,-0.420
1.669,-0.360,-0.420
1.672,-0.375,-0.410
1.675,-0.380,-0.395
1.678,-0.360,-0.370
1.681,-0.345,-0.340
1.683,-0.345,-0.320
1.686,-0.335,-0.285
1.689,-0.350,-0.270
1.692,-0.375,-0.255
1.694,-0.390,-0.255
1.697,-0.400,-0.255
1.700,-0.390,-0.255
1.703,-0.370,-0.270
1.706,-0.340,-0.280
1.708,-0.310,-0.295
1.711,-0.285,-0.320
1.714,-0.250,-0.355
1.717,-0.230,-0.400
1.719,-0.215,-0.440
1.722,-0.200,-0.500
1.725,-0.180,-0.520
1.728,-0.160,-0.530
1.731,-0.155,-0.540
1.733,-0.150,-0.535
1.736,-0.145,-0.545
1.739,-0.150,-0.545
1.742,-0.140,-0.550
1.744,-0.145,-0.550
1.747,-0.160,-0.570
1.750,-0.200,-0.580
1.753,-0.250,-0.590
1.756,-0.315,-0.600
1.758,-0.400,-0.610
1.761,-0.455,-0.635
1.764,-0.505,-0.655
1.767,-0.540,-0.670
1.769,-0.550,-0.675
1.772,-0.575,-0.675
1.775,-0.560,-0.655
1.778,-0.565,-0.650
1.781,-0.570,-0.645
1.783,-0.565,-0.660
1.786,-0.570,-0.665
1.789,-0.580,-0.680
1.792,-0.575,-0.695
1.794,-0.580,-0.700
1.797,-0.585,-0.705
1.800,-0.605,-0.690
1.803,-0.605,-0.685
1.806,-0.595,-0.690
1.808,-0.585,-0.695
1.811,-0.570,-0.685
1.814,-0.565,-0.700
1.817,-0.545,-0.700
1.819,-0.545,-0.685
1.822,-0.555,-0.665
1.825,-0.565,-0.640
1.828,-0.585,-0.595
1.831,-0.595,-0.560
1.833,-0.610,-0.520
1.836,-0.620,-0.545
1.839,-0.630,-0.635
1.842,-0.620,-0.825
1.844,-0.555,-1.105
1.847,-0.415,-1.465
1.850,-0.210,-1.870
1.853,0.035,-2.240
1.856,0.345,-2.545
1.858,0.690,-2.780
1.861,1.060,-2.895
1.864,1.430,-2.940
1.867,1.745,-2.930
1.869,1.900,-2.885
1.872,1.850,-2.815
1.875,1.635,-2.745
1.878,1.290,-2.665
1.881,0.855,-2.550
1.883,0.395,-2.335
1.886,-0.045,-1.995
1.889,-0.445,-1.610
1.892,-0.770,-1.280
1.894,-1.040,-1.065
1.897,-1.220,-0.945
1.900,-1.310,-0.890
1.903,-1.300,-0.900
1.906,-1.190,-0.900
1.908,-1.060,-0.895
1.911,-0.930,-0.875
1.914,-0.845,-0.850
1.917,-0.805,-0.840
1.919,-0.820,-0.825
1.922,-0.845,-0.820
1.925,-0.885,-0.810
1.928,-0.920,-0.800
1.931,-0.950,-0.810
1.933,-0.965,-0.800
1.936,-0.975,-0.770
1.939,-0.990,-0.765
1.942,-0.980,-0.750
1.944,-0.985,-0.735
1.947,-0.965,-0.725
1.950,-0.965,-0.725
1.953,-0.965,-0.720
1.956,-0.985,-0.710
1.958,-0.995,-0.710
1.961,-1.030,-0.695
1.964,-1.050,-0.680
1.967,-1.060,-0.665
1.969,-1.055,-0.670
1.972,-1.060,-0.640
1.975,-1.055,-0.620
1.978,-1.065,-0.625
1.981,-1.055,-0.605
1.983,-1.060,-0.605
1.986,-1.060,-0.590
1.989,-1.055,-0.570
1.992,-1.045,-0.560
1.994,-1.040,-0.560
1.997,-1.050,-0.550
2.000,-1.055,-0.540
2.003,-1.060,-0.510
2.006,-1.055,-0.505
2.008,-1.035,-0.470
2.011,-1.015,-0.450
2.014,-0.995,-0.425
2.017,-0.955,-0.410
2.019,-0.925,-0.405
2.022,-0.910,-0.400
2.025,-0.910,-0.395
2.028,-0.875,-0.390
2.031,-0.870,-0.375
2.033,-0.835,-0.365
2.036,-0.795,-0.330
2.039,-0.745,-0.305
2.042,-0.705,-0.295
2.044,-0.655,-0.280
2.047,-0.635,-0.265
2.050,-0.600,-0.260
2.053,-0.570,-0.255
2.056,-0.535,-0.250
2.058,-0.505,-0.245
2.061,-0.460,-0.225
2.064,-0.410,-0.230
2.067,-0.370,-0.215
2.069,-0.335,-0.220
2.072,-0.285,-0.220
2.075,-0.245,-0.225
2.078,-0.205,-0.235
2.081,-0.155,-0.235
2.083,-0.105,-0.240
2.086,-0.055,-0.240
2.089,-0.025,-0.245
2.092,0.000,-0.245
2.094,0.020,-0.265
2.097,0.040,-0.290
2.100,0.060,-0.315
2.103,0.090,-0.345
2.106,0.120,-0.350
2.108,0.155,-0.350
2.111,0.185,-0.350
2.114,0.210,-0.350
2.117,0.210,-0.370
2.119,0.200,-0.395
2.122,0.210,-0.410
2.125,0.185,-0.440
2.128,0.200,-0.460
2.131,0.195,-0.470
2.133,0.190,-0.465
2.136,0.190,-0.485
2.139,0.170,-0.500
2.142,0.160,-0.515
2.144,0.140,-0.515
2.147,0.135,-0.525
2.150,0.120,-0.555
2.153,0.100,-0.555
2.156,0.095,-0.560
2.158,0.075,-0.565
2.161,0.040,-0.580
2.164,0.005,-0.585
2.167,-0.025,-0.590
2.169,-0.050,-0.585
2.172,-0.075,-0.575
2.175,-0.080,-0.565
2.178,-0.095,-0.555
2.181,-0.095,-0.540
2.183,-0.115,-0.545
2.186,-0.145,-0.530
2.189,-0.180,-0.530
2.192,-0.210,-0.550
2.194,-0.245,-0.545
2.197,-0.270,-0.540
2.200,-0.275,-0.530
2.203,-0.305,-0.515
2.206,-0.325,-0.495
2.208,-0.345,-0.475
2.211,-0.365,-0.455
2.214,-0.380,-0.445
2.217,-0.390,-0.445
2.219,-0.400,-0.450
2.222,-0.410,-0.445
2.225,-0.420,-0.425
2.228,-0.435,-0.400
2.231,-0.445,-0.380
2.233,-0.470,-0.355
2.236,-0.485,-0.330
2.239,-0.490,-0.305
2.242,-0.495,-0.270
2.244,-0.485,-0.250
2.247,-0.475,-0.260
2.250,-0.450,-0.270
2.253,-0.435,-0.295
2.256,-0.430,-0.325
2.258,-0.410,-0.370
2.261,-0.385,-0.405
2.264,-0.345,-0.445
2.267,-0.320,-0.470
2.269,-0.290,-0.505
2.272,-0.260,-0.535
2.275,-0.240,-0.555
2.278,-0.225,-0.550
2.281,-0.215,-0.555
2.283,-0.195,-0.570
2.286,-0.190,-0.585
2.289,-0.185,-0.595
2.292,-0.190,-0.620
2.294,-0.195,-0.615
2.297,-0.215,-0.640
2.300,-0.260,-0.640
2.303,-0.320,-0.645
2.306,-0.375,-0.645
2.308,-0.435,-0.645
2.311,-0.470,-0.650
2.314,-0.505,-0.655
2.317,-0.540,-0.670
2.319,-0.570,-0.685
2.322,-0.590,-0.695
2.325,-0.620,-0.715
2.328,-0.630,-0.720
2.331,-0.630,-0.730
2.333,-0.635,-0.720
2.336,-0.610,-0.715
2.339,-0.600,-0.705
2.342,-0.595,-0.715
2.344,-0.580,-0.705
2.347,-0.590,-0.695
2.350,-0.595,-0.700
2.353,-0.610,-0.690
2.356,-0.605,-0.720
2.358,-0.615,-0.730
2.361,-0.610,-0.735
2.364,-0.595,-0.760
2.367,-0.595,-0.745
2.369,-0.595,-0.750
2.372,-0.590,-0.735
2.375,-0.590,-0.720
2.378,-0.580,-0.685
2.381,-0.570,-0.630
2.383,-0.565,-0.605
2.386,-0.570,-0.560
2.389,-0.585,-0.565
2.392,-0.605,-0.655
2.394,-0.605,-0.835
2.397,-0.580,-1.145
2.400,-0.460,-1.535
2.403,-0.270,-1.965
2.406,-0.025,-2.340
2.408,0.295,-2.645
2.411,0.695,-2.855
2.414,1.095,-2.975
2.417,1.495,-3.035
2.419,1.820,-3.040
2.422,2.025,-3.040
2.425,2.055,-3.025
2.428,1.890,-2.995
2.431,1.585,-2.950
2.433,1.175,-2.895
2.436,0.720,-2.795
2.439,0.265,-2.605
2.442,-0.140,-2.290
2.444,-0.485,-1.900
2.447,-0.770,-1.510
2.450,-0.985,-1.205
2.453,-1.125,-1.030
2.456,-1.185,-0.955
2.458,-1.155,-0.965
2.461,-1.075,-0.985
2.464,-0.975,-0.995
2.467,-0.865,-0.995
2.469,-0.775,-0.955
2.472,-0.720,-0.925
2.475,-0.730,-0.890
2.478,-0.730,-0.865
2.481,-0.755,-0.860
2.483,-0.780,-0.845
2.486,-0.800,-0.840
2.489,-0.820,-0.850
2.492,-0.850,-0.860
2.494,-0.865,-0.845
2.497,-0.865,-0.825
2.500,-0.860,-0.805
2.503,-0.855,-0.790
2.506,-0.855,-0.765
2.508,-0.855,-0.745
2.511,-0.850,-0.745
2.514,-0.860,-0.735
2.517,-0.860,-0.720
2.519,-0.865,-0.700
2.522,-0.885,-0.700
2.525,-0.880,-0.690
2.528,-0.885,-0.685
2.531,-0.890,-0.675
2.533,-0.905,-0.660
2.536,-0.910,-0.660
2.539,-0.915,-0.640
2.542,-0.915,-0.625
2.544,-0.910,-0.600
2.547,-0.890,-0.565
2.550,-0.875,-0.560
2.553,-0.860,-0.545
2.556,-0.855,-0.540
2.558,-0.870,-0.550
2.561,-0.870,-0.545
2.564,-0.860,-0.545
2.567,-0.845,-0.520
2.569,-0.825,-0.510
2.572,-0.790,-0.480
2.575,-0.760,-0.445
2.578,-0.725,-0.415
2.581,-0.700,-0.390
2.583,-0.690,-0.380
2.586,-0.665,-0.380
2.589,-0.640,-0.380
2.592,-0.610,-0.365
2.594,-0.580,-0.355
2.597,-0.550,-0.345
2.600,-0.520,-0.315
2.603,-0.485,-0.290
2.606,-0.450,-0.270
2.608,-0.420,-0.265
2.611,-0.380,-0.255
2.614,-0.345,-0.245
2.617,-0.305,-0.250
2.619,-0.270,-0.240
2.622,-0.225,-0.230
2.625,-0.210,-0.215
2.628,-0.175,-0.235
2.631,-0.150,-0.245
2.633,-0.125,-0.235
2.636,-0.085,-0.210
2.639,-0.035,-0.220
2.642,0.025,-0.225
2.644,0.080,-0.200
2.647,0.120,-0.200
2.650,0.155,-0.215
2.653,0.180,-0.235
2.656,0.195,-0.250
2.658,0.210,-0.270
2.661,0.235,-0.295
2.664,0.265,-0.335
2.667,0.280,-0.340
2.669,0.290,-0.345
2.672,0.305,-0.365
2.675,0.300,-0.360
2.678,0.305,-0.375
2.681,0.325,-0.395
2.683,0.330,-0.435
2.686,0.340,-0.450
2.689,0.335,-0.470
2.692,0.320,-0.485
2.694,0.305,-0.505
2.697,0.270,-0.525
2.700,0.240,-0.525
2.703,0.225,-0.530
2.706,0.210,-0.525
2.708,0.225,-0.555
2.711,0.225,-0.560
2.714,0.215,-0.565
2.717,0.195,-0.580
2.719,0.160,-0.575
2.722,0.110,-0.580
2.725,0.075,-0.605
2.728,0.040,-0.610
2.731,0.025,-0.630
2.733,-0.005,-0.625
2.736,-0.030,-0.620
2.739,-0.045,-0.610
2.742,-0.060,-0.590
2.744,-0.065,-0.565
2.747,-0.080,-0.565
2.750,-0.115,-0.565
2.753,-0.140,-0.565
2.756,-0.160,-0.565
2.758,-0.200,-0.570
2.761,-0.235,-0.555
2.764,-0.290,-0.550
2.767,-0.315,-0.540
2.769,-0.345,-0.525
2.772,-0.370,-0.515
2.775,-0.375,-0.510
2.778,-0.380,-0.495
2.781,-0.380,-0.510
2.783,-0.390,-0.480
2.786,-0.420,-0.475
2.789,-0.460,-0.460
2.792,-0.460,-0.450
2.794,-0.460,-0.450
2.797,-0.480,-0.425
2.800,-0.465,-0.410
2.803,-0.455,-0.400
2.806,-0.465,-0.370
2.808,-0.465,-0.345
2.811,-0.465,-0.305
2.814,-0.470,-0.290
2.817,-0.475,-0.285
2.819,-0.445,-0.300
2.822,-0.430,-0.325
2.825,-0.395,-0.350
2.828,-0.355,-0.370
2.831,-0.350,-0.375
2.833,-0.325,-0.380
2.836,-0.310,-0.385
2.839,-0.275,-0.415
2.842,-0.245,-0.440
2.844,-0.190,-0.480
2.847,-0.150,-0.525
2.850,-0.120,-0.555
2.853,-0.100,-0.590
2.856,-0.105,-0.595
2.858,-0.110,-0.595
2.861,-0.130,-0.605
2.864,-0.145,-0.600
2.867,-0.180,-0.605
2.869,-0.215,-0.620
2.872,-0.265,-0.625
2.875,-0.325,-0.640
2.878,-0.390,-0.630
2.881,-0.445,-0.655
2.883,-0.505,-0.655
2.886,-0.535,-0.665
2.889,-0.565,-0.665
2.892,-0.565,-0.680
2.894,-0.570,-0.705
2.897,-0.555,-0.705
2.900,-0.565,-0.720
2.903,-0.570,-0.715
2.906,-0.570,-0.715
2.908,-0.570,-0.705
2.911,-0.565,-0.680
2.914,-0.555,-0.685
2.917,-0.545,-0.685
2.919,-0.555,-0.705
2.922,-0.565,-0.715
2.925,-0.585,-0.730
2.928,-0.590,-0.740
2.931,-0.605,-0.735
2.933,-0.590,-0.735
2.936,-0.585,-0.700
2.939,-0.560,-0.685
2.942,-0.555,-0.645
2.944,-0.560,-0.590
2.947,-0.565,-0.540
2.950,-0.585,-0.495
2.953,-0.615,-0.485
2.956,-0.620,-0.555
2.958,-0.620,-0.715
2.961,-0.590,-1.020
2.964,-0.480,-1.380
2.967,-0.305,-1.765
2.969,-0.060,-2.100
2.972,0.200,-2.375
2.975,0.505,-2.530
2.978,0.855,-2.625
2.981,1.215,-2.655
2.983,1.560,-2.630
2.986,1.810,-2.600
2.989,1.880,-2.540
2.992,1.760,-2.465
2.994,1.450,-2.405
2.997,1.015,-2.295
3.000,0.520,-2.140
3.003,0.035,-1.895
3.006,-0.390,-1.630
3.008,-0.760,-1.390
3.011,-1.055,-1.215
3.014,-1.310,-1.120
3.017,-1.460,-1.055
3.019,-1.500,-1.000
3.022,-1.430,-0.950
3.025,-1.305,-0.900
3.028,-1.150,-0.855
3.031,-1.015,-0.810
3.033,-0.930,-0.790
3.036,-0.905,-0.775
3.039,-0.910,-0.770
3.042,-0.915,-0.760
3.044,-0.935,-0.735
3.047,-0.945,-0.740
3.050,-0.970,-0.725
3.053,-0.980,-0.715
3.056,-0.995,-0.720
3.058,-1.010,-0.725
3.061,-1.015,-0.730
3.064,-1.010,-0.720
3.067,-1.015,-0.705
3.069,-1.020,-0.690
3.072,-1.015,-0.655
3.075,-1.025,-0.660
3.078,-1.025,-0.655
3.081,-1.025,-0.645
3.083,-1.020,-0.645
3.086,-1.015,-0.645
3.089,-1.015,-0.640
3.092,-1.015,-0.620
3.094,-1.020,-0.605
3.097,-1.025,-0.590
3.100,-1.045,-0.580
3.103,-1.030,-0.580
3.106,-1.020,-0.575
3.108,-1.000,-0.570
3.111,-0.975,-0.535
3.114,-0.960,-0.520
3.117,-0.945,-0.485
3.119,-0.935,-0.470
3.122,-0.935,-0.460
3.125,-0.935,-0.455
3.128,-0.910,-0.460
3.131,-0.885,-0.465
3.133,-0.855,-0.445
3.136,-0.820,-0.420
3.139,-0.790,-0.380
3.142,-0.775,-0.355
3.144,-0.745,-0.330
3.147,-0.720,-0.315
3.150,-0.695,-0.320
3.153,-0.675,-0.330
3.156,-0.625,-0.325
3.158,-0.605,-0.325
3.161,-0.595,-0.315
3.164,-0.575,-0.300
3.167,-0.560,-0.285
3.169,-0.530,-0.285
3.172,-0.470,-0.280
3.175,-0.430,-0.290
3.178,-0.375,-0.295
3.181,-0.335,-0.295
3.183,-0.295,-0.285
3.186,-0.270,-0.290
3.189,-0.250,-0.285
3.192,-0.220,-0.300
3.194,-0.180,-0.325
3.197,-0.140,-0.340
3.200,-0.115,-0.370
3.203,-0.065,-0.380
3.206,-0.025,-0.385
3.208,-0.015,-0.400
3.211,0.015,-0.395
3.214,0.030,-0.430
3.217,0.040,-0.445
3.219,0.050,-0.480
3.222,0.070,-0.515
3.225,0.085,-0.535
3.228,0.095,-0.550
3.231,0.095,-0.560
3.233,0.095,-0.570
3.236,0.095,-0.570
3.239,0.090,-0.565
3.242,0.110,-0.585
3.244,0.115,-0.585
3.247,0.105,-0.595
3.250,0.100,-0.605
3.253,0.070,-0.610
3.256,0.035,-0.640
3.258,0.005,-0.640
3.261,-0.030,-0.635
3.264,-0.060,-0.620
3.267,-0.080,-0.630
3.269,-0.100,-0.620
3.272,-0.100,-0.600
3.275,-0.130,-0.595
3.278,-0.150,-0.575
3.281,-0.185,-0.580
3.283,-0.215,-0.560
3.286,-0.255,-0.555
3.289,-0.280,-0.555
3.292,-0.290,-0.555
3.294,-0.310,-0.550
3.297,-0.345,-0.545
3.300,-0.375,-0.535
3.303,-0.385,-0.525
3.306,-0.415,-0.500
3.308,-0.440,-0.480
3.311,-0.435,-0.470
3.314,-0.450,-0.460
3.317,-0.465,-0.470
3.319,-0.490,-0.475
3.322,-0.520,-0.475
3.325,-0.545,-0.485
3.328,-0.585,-0.480
3.331,-0.595,-0.445
3.333,-0.605,-0.435
3.336,-0.590,-0.420
3.339,-0.575,-0.385
3.342,-0.580,-0.360
3.344,-0.570,-0.355
3.347,-0.570,-0.340
3.350,-0.570,-0.325
3.353,-0.575,-0.305
3.356,-0.580,-0.265
3.358,-0.570,-0.240
3.361,-0.565,-0.235
3.364,-0.555,-0.230
3.367,-0.550,-0.260
3.369,-0.525,-0.280
3.372,-0.515,-0.300
3.375,-0.475,-0.305
3.378,-0.420,-0.310
3.381,-0.385,-0.315
3.383,-0.335,-0.345
3.386,-0.320,-0.385
3.389,-0.300,-0.435
3.392,-0.305,-0.485
3.394,-0.310,-0.530
3.397,-0.305,-0.535
3.400,-0.285,-0.540
3.403,-0.265,-0.530
3.406,-0.250,-0.515
3.408,-0.255,-0.515
3.411,-0.265,-0.540
3.414,-0.300,-0.555
3.417,-0.350,-0.575
3.419,-0.420,-0.595
3.422,-0.485,-0.615
3.425,-0.535,-0.620
3.428,-0.580,-0.635
3.431,-0.620,-0.630
3.433,-0.660,-0.630
3.436,-0.670,-0.625
3.439,-0.675,-0.645
3.442,-0.675,-0.655
3.444,-0.670,-0.650
3.447,-0.655,-0.650
3.450,-0.660,-0.655
3.453,-0.645,-0.675
3.456,-0.670,-0.680
3.458,-0.695,-0.705
3.461,-0.695,-0.710
3.464,-0.705,-0.710
3.467,-0.710,-0.715
3.469,-0.685,-0.695
3.472,-0.670,-0.680
3.475,-0.665,-0.665
3.478,-0.660,-0.670
3.481,-0.670,-0.665
3.483,-0.675,-0.665
3.486,-0.675,-0.665
3.489,-0.675,-0.640
3.492,-0.685,-0.595
3.494,-0.685,-0.545
3.497,-0.715,-0.505
3.500,-0.735,-0.525
3.503,-0.755,-0.620
3.506,-0.750,-0.840
3.508,-0.690,-1.160
3.511,-0.550,-1.540
3.514,-0.330,-1.955
3.517,-0.035,-2.285
3.519,0.290,-2.510
3.522,0.655,-2.650
3.525,1.020,-2.715
3.528,1.360,-2.745
3.531,1.645,-2.735
3.533,1.825,-2.720
3.536,1.860,-2.680
3.539,1.725,-2.610
3.542,1.430,-2.550
3.544,1.045,-2.450
3.547,0.605,-2.295
3.550,0.110,-2.060
3.553,-0.330,-1.750
3.556,-0.735,-1.470
3.558,-1.045,-1.235
3.561,-1.305,-1.085
3.564,-1.460,-0.985
3.567,-1.495,-0.940
3.569,-1.420,-0.915
3.572,-1.300,-0.895
3.575,-1.165,-0.890
3.578,-1.045,-0.845
3.581,-0.960,-0.835
3.583,-0.935,-0.815
3.586,-0.945,-0.805
3.589,-0.975,-0.790
3.592,-1.020,-0.780
3.594,-1.060,-0.785
3.597,-1.085,-0.770
3.600,-1.095,-0.775
3.603,-1.090,-0.760
3.606,-1.075,-0.760
3.608,-1.075,-0.730
3.611,-1.070,-0.720
3.614,-1.065,-0.700
3.617,-1.085,-0.695
3.619,-1.115,-0.700
3.622,-1.125,-0.695
3.625,-1.140,-0.705
3.628,-1.130,-0.710
3.631,-1.140,-0.685
3.633,-1.125,-0.675
3.636,-1.130,-0.645
3.639,-1.130,-0.625
3.642,-1.145,-0.615
3.644,-1.150,-0.600
3.647,-1.150,-0.600
3.650,-1.150,-0.600
3.653,-1.130,-0.590
3.656,-1.140,-0.580
3.658,-1.140,-0.565
3.661,-1.165,-0.555
3.664,-1.155,-0.545
3.667,-1.145,-0.510
3.669,-1.130,-0.500
3.672,-1.115,-0.480
3.675,-1.095,-0.470
3.678,-1.065,-0.455
3.681,-1.040,-0.445
3.683,-1.040,-0.440
3.686,-1.025,-0.415
3.689,-1.015,-0.410
3.692,-0.995,-0.390
3.694,-0.975,-0.395
3.697,-0.945,-0.380
3.700,-0.910,-0.360
3.703,-0.880,-0.345
3.706,-0.840,-0.325
3.708,-0.805,-0.300
3.711,-0.770,-0.270
3.714,-0.740,-0.275
3.717,-0.700,-0.280
3.719,-0.655,-0.280
3.722,-0.645,-0.285
3.725,-0.600,-0.290
3.728,-0.585,-0.295
3.731,-0.555,-0.300
3.733,-0.525,-0.285
3.736,-0.475,-0.280
3.739,-0.410,-0.270
3.742,-0.360,-0.265
3.744,-0.300,-0.280
3.747,-0.265,-0.290
3.750,-0.225,-0.305
3.753,-0.195,-0.315
3.756,-0.170,-0.340
3.758,-0.125,-0.360
3.761,-0.095,-0.375
3.764,-0.055,-0.400
3.767,-0.025,-0.410
3.769,0.005,-0.425
3.772,0.035,-0.430
3.775,0.030,-0.435
3.778,0.045,-0.450
3.781,0.060,-0.465
3.783,0.085,-0.475
3.786,0.100,-0.505
3.789,0.115,-0.525
3.792,0.115,-0.545
3.794,0.100,-0.570
3.797,0.085,-0.575
3.800,0.065,-0.575
3.803,0.055,-0.585
3.806,0.045,-0.580
3.808,0.040,-0.585
3.811,0.045,-0.575
3.814,0.045,-0.590
3.817,0.035,-0.605
3.819,0.000,-0.615
3.822,-0.030,-0.625
3.825,-0.065,-0.625
3.828,-0.100,-0.630
3.831,-0.120,-0.635
3.833,-0.145,-0.620
3.836,-0.155,-0.595
3.839,-0.185,-0.595
3.842,-0.195,-0.585
3.844,-0.220,-0.570
3.847,-0.260,-0.560
3.850,-0.280,-0.550
3.853,-0.315,-0.555
3.856,-0.330,-0.545
3.858,-0.365,-0.540
3.861,-0.390,-0.545
3.864,-0.420,-0.530
3.867,-0.455,-0.520
3.869,-0.475,-0.505
3.872,-0.505,-0.490
3.875,-0.505,-0.465
3.878,-0.510,-0.445
3.881,-0.510,-0.405
3.883,-0.510,-0.380
3.886,-0.520,-0.370
3.889,-0.540,-0.350
3.892,-0.545,-0.330
3.894,-0.565,-0.295
3.897,-0.560,-0.270
3.900,-0.565,-0.235
3.903,-0.550,-0.220
3.906,-0.540,-0.210
3.908,-0.535,-0.230
3.911,-0.520,-0.255
3.914,-0.495,-0.280
3.917,-0.455,-0.310
3.919,-0.415,-0.340
3.922,-0.380,-0.375
3.925,-0.360,-0.410
3.928,-0.325,-0.460
3.931,-0.320,-0.500
3.933,-0.315,-0.530
3.936,-0.290,-0.550
3.939,-0.270,-0.560
3.942,-0.240,-0.550
3.944,-0.215,-0.535
3.947,-0.225,-0.525
3.950,-0.235,-0.525
3.953,-0.285,-0.535
3.956,-0.340,-0.565
3.958,-0.405,-0.595
3.961,-0.470,-0.615
3.964,-0.535,-0.630
3.967,-0.595,-0.630
3.969,-0.625,-0.635
3.972,-0.670,-0.635
3.975,-0.710,-0.625
3.978,-0.705,-0.640
3.981,-0.710,-0.650
3.983,-0.705,-0.675
3.986,-0.705,-0.675
3.989,-0.700,-0.675
3.992,-0.700,-0.675
3.994,-0.720,-0.680
3.997,-0.735,-0.685
4.000,-0.750,-0.690
4.003,-0.750,-0.685
4.006,-0.740,-0.680
4.008,-0.720,-0.680
4.011,-0.695,-0.675
4.014,-0.680,-0.675
4.017,-0.685,-0.675
4.019,-0.690,-0.690
4.022,-0.710,-0.685
4.025,-0.705,-0.670
4.028,-0.720,-0.665
4.031,-0.710,-0.625
4.033,-0.740,-0.570
4.036,-0.740,-0.505
4.039,-0.755,-0.475
4.042,-0.780,-0.490
4.044,-0.790,-0.600
4.047,-0.750,-0.865
4.050,-0.645,-1.235
4.053,-0.480,-1.675
4.056,-0.240,-2.110
4.058,0.070,-2.470
4.061,0.430,-2.715
4.064,0.855,-2.865
4.067,1.270,-2.895
4.069,1.640,-2.890
4.072,1.820,-2.845
4.075,1.760,-2.790
4.078,1.515,-2.730
4.081,1.135,-2.685
4.083,0.660,-2.615
4.086,0.200,-2.470
4.089,-0.230,-2.210
4.092,-0.590,-1.850
4.094,-0.890,-1.470
4.097,-1.140,-1.165
4.100,-1.315,-0.970
4.103,-1.405,-0.865
4.106,-1.395,-0.845
4.108,-1.300,-0.845
4.111,-1.160,-0.850
4.114,-1.020,-0.845
4.117,-0.935,-0.845
4.119,-0.910,-0.820
4.122,-0.935,-0.815
4.125,-0.975,-0.795
4.128,-1.025,-0.790
4.131,-1.080,-0.775
4.133,-1.095,-0.775
4.136,-1.090,-0.755
4.139,-1.070,-0.745
4.142,-1.065,-0.730
4.144,-1.055,-0.710
4.147,-1.050,-0.705
4.150,-1.075,-0.700
4.153,-1.095,-0.690
4.156,-1.105,-0.685
4.158,-1.125,-0.680
4.161,-1.135,-0.660
4.164,-1.135,-0.660
4.167,-1.145,-0.655
4.169,-1.150,-0.640
4.172,-1.175,-0.615
4.175,-1.170,-0.600
4.178,-1.160,-0.580
4.181,-1.150,-0.575
4.183,-1.145,-0.545
4.186,-1.135,-0.545
4.189,-1.150,-0.550
4.192,-1.150,-0.545
4.194,-1.170,-0.545
4.197,-1.175,-0.525
4.200,-1.175,-0.510
4.203,-1.155,-0.475
4.206,-1.125,-0.455
4.208,-1.105,-0.435
4.211,-1.085,-0.415
4.214,-1.070,-0.405
4.217,-1.065,-0.395
4.219,-1.045,-0.375
4.222,-1.030,-0.370
4.225,-1.000,-0.355
4.228,-0.970,-0.340
4.231,-0.940,-0.330
4.233,-0.905,-0.315
4.236,-0.875,-0.295
4.239,-0.835,-0.265
4.242,-0.770,-0.240
4.244,-0.715,-0.220
4.247,-0.665,-0.210
4.250,-0.610,-0.210
4.253,-0.575,-0.205
4.256,-0.545,-0.205
4.258,-0.510,-0.225
4.261,-0.480,-0.220
4.264,-0.435,-0.210
4.267,-0.390,-0.200
4.269,-0.335,-0.200
4.272,-0.285,-0.190
4.275,-0.255,-0.210
4.278,-0.215,-0.230
4.281,-0.175,-0.240
4.283,-0.105,-0.265
4.286,-0.060,-0.270
4.289,-0.025,-0.285
4.292,0.015,-0.305
4.294,0.020,-0.340
4.297,0.030,-0.355
4.300,0.035,-0.380
4.303,0.055,-0.385
4.306,0.055,-0.390
4.308,0.095,-0.405
4.311,0.110,-0.395
4.314,0.115,-0.410
4.317,0.115,-0.435
4.319,0.085,-0.460
4.322,0.060,-0.490
4.325,0.040,-0.530
4.328,0.020,-0.545
4.331,0.025,-0.545
4.333,0.005,-0.545
4.336,-0.015,-0.550
4.339,-0.035,-0.565
4.342,-0.050,-0.580
4.344,-0.070,-0.575
4.347,-0.090,-0.590
4.350,-0.095,-0.585
4.353,-0.115,-0.585
4.356,-0.140,-0.600
4.358,-0.165,-0.600
4.361,-0.205,-0.605
4.364,-0.250,-0.605
4.367,-0.275,-0.600
4.369,-0.305,-0.600
4.372,-0.305,-0.575
4.375,-0.325,-0.545
4.378,-0.340,-0.510
4.381,-0.360,-0.495
4.383,-0.400,-0.490
4.386,-0.425,-0.500
4.389,-0.440,-0.495
4.392,-0.455,-0.495
4.394,-0.480,-0.480
4.397,-0.485,-0.465
4.400,-0.515,-0.440
4.403,-0.530,-0.415
4.406,-0.550,-0.385
4.408,-0.570,-0.350
4.411,-0.580,-0.325
4.414,-0.580,-0.305
4.417,-0.575,-0.260
4.419,-0.575,-0.230
4.422,-0.590,-0.210
4.425,-0.595,-0.210
4.428,-0.600,-0.220
4.431,-0.590,-0.255
4.433,-0.580,-0.270
4.436,-0.530,-0.295
4.439,-0.480,-0.310
4.442,-0.435,-0.320
4.444,-0.400,-0.355
4.447,-0.370,-0.390
4.450,-0.345,-0.445
4.453,-0.335,-0.505
4.456,-0.300,-0.555
4.458,-0.270,-0.580
4.461,-0.250,-0.590
4.464,-0.235,-0.595
4.467,-0.245,-0.565
4.469,-0.255,-0.575
4.472,-0.265,-0.565
4.475,-0.295,-0.585
4.478,-0.335,-0.605
4.481,-0.385,-0.615
4.483,-0.440,-0.640
4.486,-0.495,-0.645
4.489,-0.550,-0.660
4.492,-0.585,-0.680
4.494,-0.625,-0.690
4.497,-0.640,-0.705
4.500,-0.640,-0.700
4.503,-0.620,-0.695
4.506,-0.620,-0.685
4.508,-0.620,-0.680
4.511,-0.625,-0.675
4.514,-0.605,-0.685
4.517,-0.605,-0.670
4.519,-0.615,-0.690
4.522,-0.625,-0.715
4.525,-0.625,-0.705
4.528,-0.635,-0.720
4.531,-0.650,-0.725
4.533,-0.660,-0.715
4.536,-0.650,-0.710
4.539,-0.645,-0.705
4.542,-0.635,-0.705
4.544,-0.605,-0.690
4.547,-0.575,-0.680
4.550,-0.570,-0.660
4.553,-0.575,-0.625
4.556,-0.585,-0.575
4.558,-0.610,-0.530
4.561,-0.645,-0.500
4.564,-0.665,-0.540
4.567,-0.675,-0.665
4.569,-0.655,-0.900
4.572,-0.590,-1.250
4.575,-0.435,-1.645
4.578,-0.220,-2.045
4.581,0.035,-2.405
4.583,0.380,-2.670
4.586,0.750,-2.840
4.589,1.140,-2.920
4.592,1.520,-2.945
4.594,1.775,-2.935
4.597,1.820,-2.890
4.600,1.625,-2.855
4.603,1.275,-2.785
4.606,0.845,-2.730
4.608,0.375,-2.660
4.611,-0.040,-2.475
4.614,-0.405,-2.175
4.617,-0.700,-1.805
4.619,-0.945,-1.460
4.622,-1.135,-1.195
4.625,-1.290,-1.025
4.628,-1.345,-0.950
4.631,-1.335,-0.920
4.633,-1.240,-0.915
4.636,-1.115,-0.895
4.639,-0.965,-0.890
4.642,-0.880,-0.865
4.644,-0.845,-0.840
4.647,-0.855,-0.825
4.650,-0.885,-0.805
4.653,-0.930,-0.805
4.656,-0.960,-0.790
4.658,-0.980,-0.785
4.661,-0.990,-0.790
4.664,-0.990,-0.785
4.667,-0.980,-0.775
4.669,-0.985,-0.755
4.672,-1.005,-0.725
4.675,-1.015,-0.705
4.678,-1.005,-0.680
4.681,-1.000,-0.670
4.683,-0.990,-0.650
4.686,-0.990,-0.655
4.689,-1.015,-0.650
4.692,-1.030,-0.660
4.694,-1.045,-0.650
4.697,-1.040,-0.640
4.700,-1.045,-0.615
4.703,-1.025,-0.585
4.706,-1.010,-0.550
4.708,-0.995,-0.530
4.711,-1.005,-0.530
4.714,-1.020,-0.535
4.717,-1.010,-0.520
4.719,-0.995,-0.520
4.722,-0.990,-0.500
4.725,-0.990,-0.485
4.728,-0.975,-0.460
4.731,-0.950,-0.440
4.733,-0.950,-0.425
4.736,-0.925,-0.420
4.739,-0.905,-0.400
4.742,-0.880,-0.370
4.744,-0.865,-0.365
4.747,-0.840,-0.345
4.750,-0.795,-0.330
4.753,-0.770,-0.305
4.756,-0.750,-0.300
4.758,-0.715,-0.295
4.761,-0.695,-0.290
4.764,-0.670,-0.280
4.767,-0.635,-0.270
4.769,-0.570,-0.255
4.772,-0.520,-0.235
4.775,-0.500,-0.225
4.778,-0.450,-0.220
4.781,-0.405,-0.215
4.783,-0.375,-0.225
4.786,-0.350,-0.210
4.789,-0.335,-0.225
4.792,-0.300,-0.230
4.794,-0.245,-0.205
4.797,-0.220,-0.215
4.800,-0.185,-0.205
4.803,-0.160,-0.205
4.806,-0.125,-0.225
4.808,-0.080,-0.240
4.811,-0.030,-0.255
4.814,0.010,-0.265
4.817,0.055,-0.280
4.819,0.095,-0.295
4.822,0.110,-0.315
4.825,0.125,-0.335
4.828,0.125,-0.360
4.831,0.140,-0.385
4.833,0.140,-0.395
4.836,0.160,-0.405
4.839,0.180,-0.410
4.842,0.190,-0.425
4.844,0.205,-0.415
4.847,0.205,-0.425
4.850,0.195,-0.450
4.853,0.190,-0.475
4.856,0.175,-0.510
4.858,0.160,-0.540
4.861,0.150,-0.560
4.864,0.135,-0.585
4.867,0.095,-0.570
4.869,0.065,-0.560
4.872,0.050,-0.570
4.875,0.025,-0.575
4.878,0.010,-0.575
4.881,0.015,-0.585
4.883,0.010,-0.600
4.886,-0.005,-0.600
4.889,-0.030,-0.620
4.892,-0.070,-0.615
4.894,-0.110,-0.620
4.897,-0.155,-0.605
4.900,-0.190,-0.610
4.903,-0.210,-0.590
4.906,-0.230,-0.585
4.908,-0.250,-0.565
4.911,-0.280,-0.535
4.914,-0.305,-0.525
4.917,-0.320,-0.525
4.919,-0.355,-0.515
4.922,-0.385,-0.525
4.925,-0.415,-0.525
4.928,-0.420,-0.530
4.931,-0.455,-0.515
4.933,-0.470,-0.525
4.936,-0.500,-0.490
4.939,-0.525,-0.485
4.942,-0.535,-0.460
4.944,-0.540,-0.430
4.947,-0.540,-0.410
4.950,-0.530,-0.400
4.953,-0.535,-0.390
4.956,-0.555,-0.365
4.958,-0.580,-0.345
4.961,-0.600,-0.325
4.964,-0.605,-0.290
4.967,-0.600,-0.260
4.969,-0.590,-0.255
4.972,-0.570,-0.230
4.975,-0.550,-0.235
4.978,-0.530,-0.245
4.981,-0.510,-0.280
4.983,-0.475,-0.295
4.986,-0.440,-0.320
4.989,-0.400,-0.345
4.992,-0.365,-0.385
4.994,-0.340,-0.415
4.997,-0.325,-0.465
5.000,-0.300,-0.490
5.003,-0.280,-0.505
5.006,-0.240,-0.525
5.008,-0.205,-0.535
5.011,-0.180,-0.540
5.014,-0.170,-0.530
5.017,-0.185,-0.540
5.019,-0.235,-0.560
5.022,-0.300,-0.580
5.025,-0.380,-0.590
5.028,-0.460,-0.615
5.031,-0.525,-0.630
5.033,-0.570,-0.630
5.036,-0.600,-0.640
5.039,-0.630,-0.640
5.042,-0.645,-0.645
5.044,-0.655,-0.630
5.047,-0.655,-0.640
5.050,-0.660,-0.635
5.053,-0.645,-0.650
5.056,-0.630,-0.655
5.058,-0.635,-0.670
5.061,-0.655,-0.680
5.064,-0.660,-0.695
5.067,-0.680,-0.690
5.069,-0.675,-0.680
5.072,-0.670,-0.675
5.075,-0.640,-0.655
5.078,-0.630,-0.650
5.081,-0.625,-0.650
5.083,-0.620,-0.640
5.086,-0.620,-0.635
5.089,-0.640,-0.625
5.092,-0.655,-0.595
5.094,-0.650,-0.565
5.097,-0.665,-0.520
5.100,-0.675,-0.465
5.103,-0.685,-0.445
5.106,-0.700,-0.515
5.108,-0.720,-0.660
5.111,-0.700,-0.945
5.114,-0.600,-1.320
5.117,-0.415,-1.750
5.119,-0.145,-2.115
5.122,0.180,-2.400
5.125,0.560,-2.575
5.128,0.960,-2.650
5.131,1.345,-2.665
5.133,1.675,-2.605
5.136,1.860,-2.545
5.139,1.825,-2.465
5.142,1.590,-2.375
5.144,1.210,-2.310
5.147,0.750,-2.220
5.150,0.270,-2.110
5.153,-0.160,-1.910
5.156,-0.525,-1.670
5.158,-0.825,-1.430
5.161,-1.080,-1.220
5.164,-1.285,-1.095
5.167,-1.425,-0.975
5.169,-1.460,-0.915
5.172,-1.410,-0.870
5.175,-1.305,-0.855
5.178,-1.165,-0.815
5.181,-1.045,-0.790
5.183,-0.965,-0.765
5.186,-0.930,-0.745
5.189,-0.930,-0.730
5.192,-0.960,-0.725
5.194,-1.000,-0.725
5.197,-1.040,-0.720
5.200,-1.065,-0.715
5.203,-1.070,-0.710
5.206,-1.060,-0.700
5.208,-1.050,-0.685
5.211,-1.045,-0.660
5.214,-1.045,-0.640
5.217,-1.025,-0.650
5.219,-1.040,-0.640
5.222,-1.060,-0.645
5.225,-1.080,-0.655
5.228,-1.095,-0.660
5.231,-1.090,-0.645
5.233,-1.100,-0.630
5.236,-1.100,-0.605
5.239,-1.090,-0.585
5.242,-1.095,-0.575
5.244,-1.085,-0.565
5.247,-1.085,-0.540
5.250,-1.070,-0.550
5.253,-1.050,-0.545
5.256,-1.045,-0.525
5.258,-1.045,-0.515
5.261,-1.045,-0.490
5.264,-1.055,-0.490
5.267,-1.060,-0.460
5.269,-1.045,-0.455
5.272,-1.025,-0.435
5.275,-0.995,-0.415
5.278,-0.975,-0.375
5.281,-0.950,-0.370
5.283,-0.935,-0.355
5.286,-0.920,-0.345
5.289,-0.910,-0.345
5.292,-0.905,-0.335
5.294,-0.880,-0.340
5.297,-0.850,-0.335
5.300,-0.820,-0.320
5.303,-0.780,-0.300
5.306,-0.745,-0.260
5.308,-0.725,-0.245
5.311,-0.690,-0.225
5.314,-0.650,-0.215
5.317,-0.610,-0.225
5.319,-0.575,-0.235
5.322,-0.530,-0.225
5.325,-0.495,-0.230
5.328,-0.470,-0.235
5.331,-0.445,-0.220
5.333,-0.425,-0.235
5.336,-0.395,-0.235
5.339,-0.360,-0.245
5.342,-0.320,-0.250
5.344,-0.285,-0.275
5.347,-0.230,-0.275
5.350,-0.210,-0.290
5.353,-0.170,-0.305
5.356,-0.145,-0.325
5.358,-0.115,-0.350
5.361,-0.090,-0.395
5.364,-0.065,-0.410
5.367,-0.035,-0.430
5.369,-0.010,-0.460
5.372,0.020,-0.460
5.375,0.035,-0.465
5.378,0.050,-0.465
5.381,0.055,-0.460
5.383,0.070,-0.480
5.386,0.070,-0.500
5.389,0.085,-0.530
5.392,0.085,-0.555
5.394,0.060,-0.575
5.397,0.050,-0.580
5.400,0.020,-0.575
5.403,0.005,-0.570
5.406,-0.015,-0.570
5.408,-0.015,-0.575
5.411,-0.015,-0.590
5.414,-0.020,-0.590
5.417,-0.035,-0.605
5.419,-0.065,-0.595
5.422,-0.110,-0.595
5.425,-0.145,-0.590
5.428,-0.170,-0.585
5.431,-0.210,-0.580
5.433,-0.220,-0.580
5.436,-0.230,-0.575
5.439,-0.270,-0.555
5.442,-0.285,-0.545
5.444,-0.320,-0.525
5.447,-0.345,-0.505
5.450,-0.360,-0.495
5.453,-0.380,-0.485
5.456,-0.400,-0.490
5.458,-0.425,-0.485
5.461,-0.460,-0.500
5.464,-0.490,-0.485
5.467,-0.530,-0.470
5.469,-0.530,-0.460
5.472,-0.535,-0.445
5.475,-0.550,-0.430
5.478,-0.555,-0.420
5.481,-0.555,-0.395
5.483,-0.580,-0.395
5.486,-0.595,-0.370
5.489,-0.620,-0.350
5.492,-0.625,-0.345
5.494,-0.635,-0.325
5.497,-0.625,-0.280
5.500,-0.605,-0.260
5.503,-0.580,-0.210
5.506,-0.555,-0.195
5.508,-0.550,-0.175
5.511,-0.545,-0.190
5.514,-0.540,-0.215
5.517,-0.515,-0.250
5.519,-0.495,-0.275
5.522,-0.460,-0.280
5.525,-0.430,-0.305
5.528,-0.430,-0.340
5.531,-0.420,-0.370
5.533,-0.405,-0.410
5.536,-0.395,-0.435
5.539,-0.355,-0.475
5.542,-0.335,-0.485
5.544,-0.285,-0.495
5.547,-0.245,-0.500
5.550,-0.220,-0.510
5.553,-0.230,-0.495
5.556,-0.240,-0.520
5.558,-0.270,-0.540
5.561,-0.320,-0.560
5.564,-0.385,-0.565
5.567,-0.450,-0.570
5.569,-0.495,-0.570
5.572,-0.555,-0.575
5.575,-0.585,-0.595
5.578,-0.625,-0.590
5.581,-0.660,-0.600
5.583,-0.680,-0.625
5.586,-0.690,-0.630
5.589,-0.695,-0.635
5.592,-0.695,-0.645
5.594,-0.685,-0.640
5.597,-0.685,-0.640
5.600,-0.690,-0.645
5.603,-0.705,-0.650
5.606,-0.715,-0.655
5.608,-0.725,-0.670
5.611,-0.710,-0.665
5.614,-0.690,-0.655
5.617,-0.690,-0.650
5.619,-0.690,-0.645
5.622,-0.680,-0.655
5.625,-0.690,-0.670
5.628,-0.695,-0.690
5.631,-0.720,-0.705
5.633,-0.730,-0.695
5.636,-0.735,-0.675
5.639,-0.735,-0.635
5.642,-0.715,-0.595
5.644,-0.725,-0.530
5.647,-0.705,-0.485
5.650,-0.725,-0.465
5.653,-0.750,-0.515
5.656,-0.745,-0.670
5.658,-0.720,-0.930
5.661,-0.635,-1.295
5.664,-0.470,-1.705
5.667,-0.230,-2.095
5.669,0.070,-2.410
5.672,0.430,-2.610
5.675,0.840,-2.735
5.678,1.265,-2.765
5.681,1.640,-2.750
5.683,1.900,-2.720
5.686,1.955,-2.670
5.689,1.810,-2.610
5.692,1.470,-2.555
5.694,1.030,-2.495
5.697,0.550,-2.360
5.700,0.050,-2.135
5.703,-0.385,-1.805
5.706,-0.770,-1.480
5.708,-1.085,-1.200
5.711,-1.310,-1.025
5.714,-1.445,-0.925
5.717,-1.460,-0.885
5.719,-1.385,-0.880
5.722,-1.265,-0.880
5.725,-1.120,-0.870
5.728,-1.005,-0.850
5.731,-0.955,-0.825
5.733,-0.945,-0.815
5.736,-0.960,-0.785
5.739,-1.000,-0.765
5.742,-1.050,-0.750
5.744,-1.070,-0.730
5.747,-1.080,-0.745
5.750,-1.070,-0.725
5.753,-1.060,-0.740
5.756,-1.060,-0.725
5.758,-1.075,-0.710
5.761,-1.085,-0.700
5.764,-1.120,-0.685
5.767,-1.120,-0.680
5.769,-1.125,-0.660
5.772,-1.115,-0.660
5.775,-1.110,-0.645
5.778,-1.105,-0.640
5.781,-1.115,-0.625
5.783,-1.120,-0.605
5.786,-1.135,-0.600
5.789,-1.140,-0.595
5.792,-1.145,-0.590
5.794,-1.145,-0.580
5.797,-1.145,-0.590
5.800,-1.160,-0.565
5.803,-1.155,-0.545
5.806,-1.165,-0.515
5.808,-1.160,-0.490
5.811,-1.135,-0.485
5.814,-1.115,-0.475
5.817,-1.085,-0.470
5.819,-1.070,-0.455
5.822,-1.060,-0.435
5.825,-1.060,-0.440
5.828,-1.050,-0.430
5.831,-1.045,-0.415
5.833,-1.035,-0.375
5.836,-1.015,-0.375
5.839,-0.960,-0.355
5.842,-0.930,-0.350
5.844,-0.890,-0.345
5.847,-0.865,-0.335
5.850,-0.840,-0.315
5.853,-0.825,-0.290
5.856,-0.800,-0.290
5.858,-0.770,-0.280
5.861,-0.735,-0.280
5.864,-0.685,-0.285
5.867,-0.655,-0.270
5.869,-0.605,-0.260
5.872,-0.565,-0.255
5.875,-0.520,-0.245
5.878,-0.485,-0.230
5.881,-0.445,-0.240
5.883,-0.375,-0.240
5.886,-0.325,-0.260
5.889,-0.285,-0.265
5.892,-0.255,-0.300
5.894,-0.235,-0.300
5.897,-0.220,-0.310
5.900,-0.170,-0.330
5.903,-0.120,-0.330
5.906,-0.075,-0.345
5.908,-0.030,-0.365
5.911,0.005,-0.375
5.914,0.035,-0.400
5.917,0.040,-0.415
5.919,0.065,-0.425
5.922,0.070,-0.430
5.925,0.080,-0.455
5.928,0.090,-0.460
5.931,0.095,-0.495
5.933,0.085,-0.520
5.936,0.080,-0.530
5.939,0.070,-0.535
5.942,0.070,-0.545
5.944,0.065,-0.530
5.947,0.075,-0.550
5.950,0.070,-0.575
5.953,0.025,-0.580
5.956,-0.010,-0.590
5.958,-0.040,-0.595
5.961,-0.065,-0.615
5.964,-0.090,-0.610
5.967,-0.110,-0.615
5.969,-0.130,-0.590
5.972,-0.135,-0.605
5.975,-0.160,-0.595
5.978,-0.185,-0.590
5.981,-0.220,-0.585
5.983,-0.255,-0.570
5.986,-0.290,-0.575
5.989,-0.295,-0.570
5.992,-0.315,-0.560
5.994,-0.345,-0.545
5.997,-0.380,-0.545
6.000,-0.410,-0.530
6.003,-0.460,-0.530
6.006,-0.475,-0.500
6.008,-0.475,-0.485
6.011,-0.480,-0.470
6.014,-0.490,-0.455
6.017,-0.500,-0.430
6.019,-0.505,-0.420
6.022,-0.530,-0.400
6.025,-0.550,-0.390
6.028,-0.560,-0.370
6.031,-0.570,-0.325
6.033,-0.570,-0.275
6.036,-0.565,-0.230
6.039,-0.570,-0.205
6.042,-0.570,-0.200
6.044,-0.565,-0.210
6.047,-0.535,-0.225
6.050,-0.510,-0.260
6.053,-0.480,-0.290
6.056,-0.435,-0.310
6.058,-0.410,-0.335
6.061,-0.385,-0.375
6.064,-0.370,-0.425
6.067,-0.370,-0.470
6.069,-0.350,-0.510
6.072,-0.325,-0.525
6.075,-0.290,-0.540
6.078,-0.250,-0.530
6.081,-0.240,-0.525
6.083,-0.245,-0.535
6.086,-0.265,-0.535
6.089,-0.300,-0.565
6.092,-0.365,-0.585
6.094,-0.405,-0.600
6.097,-0.460,-0.610
6.100,-0.510,-0.610
6.103,-0.585,-0.625
6.106,-0.640,-0.635
6.108,-0.665,-0.630
6.111,-0.700,-0.640
6.114,-0.715,-0.650
6.117,-0.715,-0.655
6.119,-0.705,-0.640
6.122,-0.710,-0.645
6.125,-0.730,-0.650
6.128,-0.730,-0.665
6.131,-0.735,-0.680
6.133,-0.735,-0.685
6.136,-0.735,-0.700
6.139,-0.735,-0.705
6.142,-0.715,-0.685
6.144,-0.710,-0.670
6.147,-0.695,-0.665
6.150,-0.710,-0.660
6.153,-0.720,-0.660
6.156,-0.735,-0.680
6.158,-0.720,-0.690
6.161,-0.735,-0.695
6.164,-0.730,-0.670
6.167,-0.730,-0.630
6.169,-0.750,-0.575
6.172,-0.760,-0.510
6.175,-0.765,-0.475
6.178,-0.770,-0.460
6.181,-0.775,-0.540
6.183,-0.760,-0.695
6.186,-0.710,-0.955
6.189,-0.620,-1.290
6.192,-0.465,-1.685
6.194,-0.270,-2.080
6.197,0.005,-2.390
6.200,0.345,-2.635
6.203,0.745,-2.795
6.206,1.165,-2.860
6.208,1.550,-2.865
6.211,1.790,-2.830
6.214,1.840,-2.800
6.217,1.635,-2.755
6.219,1.280,-2.690
6.222,0.815,-2.605
6.225,0.300,-2.415
6.228,-0.190,-2.090
6.231,-0.615,-1.715
6.233,-0.980,-1.360
6.236,-1.250,-1.115
6.239,-1.425,-0.955
6.242,-1.480,-0.875
6.244,-1.430,-0.860
6.247,-1.315,-0.870
6.250,-1.160,-0.890
6.253,-1.025,-0.880
6.256,-0.925,-0.885
6.258,-0.910,-0.855
6.261,-0.935,-0.840
6.264,-1.000,-0.825
6.267,-1.045,-0.795
6.269,-1.075,-0.805
6.272,-1.080,-0.790
6.275,-1.085,-0.780
6.278,-1.065,-0.775
6.281,-1.060,-0.750
6.283,-1.060,-0.735
6.286,-1.075,-0.735
6.289,-1.075,-0.705
6.292,-1.080,-0.715
6.294,-1.090,-0.710
6.297,-1.080,-0.690
6.300,-1.105,-0.690
6.303,-1.115,-0.680
6.306,-1.125,-0.655
6.308,-1.125,-0.640
6.311,-1.140,-0.630
6.314,-1.125,-0.620
6.317,-1.115,-0.615
6.319,-1.120,-0.610
6.322,-1.105,-0.600
6.325,-1.115,-0.595
6.328,-1.120,-0.570
6.331,-1.125,-0.570
6.333,-1.110,-0.535
6.336,-1.090,-0.515
6.339,-1.060,-0.505
6.342,-1.025,-0.475
6.344,-0.995,-0.445
6.347,-0.985,-0.435
6.350,-0.965,-0.420
6.353,-0.955,-0.410
6.356,-0.940,-0.395
6.358,-0.900,-0.385
6.361,-0.870,-0.375
6.364,-0.845,-0.365
6.367,-0.810,-0.365
6.369,-0.760,-0.355
6.372,-0.735,-0.330
6.375,-0.690,-0.315
6.378,-0.640,-0.290
6.381,-0.580,-0.275
6.383,-0.540,-0.260
6.386,-0.495,-0.230
6.389,-0.450,-0.240
6.392,-0.430,-0.250
6.394,-0.410,-0.255
6.397,-0.390,-0.255
6.400,-0.360,-0.260
6.403,-0.310,-0.255
6.406,-0.255,-0.260
6.408,-0.210,-0.245
6.411,-0.170,-0.230
6.414,-0.125,-0.235
6.417,-0.100,-0.245
6.419,-0.065,-0.255
6.422,-0.015,-0.270
6.425,0.030,-0.285
6.428,0.085,-0.290
6.431,0.115,-0.305
6.433,0.135,-0.315
6.436,0.145,-0.335
6.439,0.150,-0.355
6.442,0.155,-0.370
6.444,0.160,-0.395
6.447,0.185,-0.390
6.450,0.215,-0.410
6.453,0.240,-0.430
6.456,0.235,-0.445
6.458,0.225,-0.470
6.461,0.210,-0.490
6.464,0.175,-0.530
6.467,0.160,-0.535
6.469,0.145,-0.550
6.472,0.140,-0.545
6.475,0.135,-0.555
6.478,0.110,-0.560
6.481,0.095,-0.560
6.483,0.065,-0.565
6.486,0.045,-0.585
6.489,0.015,-0.605
6.492,-0.010,-0.620
6.494,-0.015,-0.635
6.497,-0.025,-0.645
6.500,-0.060,-0.650
6.503,-0.100,-0.640
6.506,-0.120,-0.640
6.508,-0.140,-0.625
6.511,-0.175,-0.620
6.514,-0.170,-0.615
6.517,-0.185,-0.610
6.519,-0.210,-0.595
6.522,-0.245,-0.580
6.525,-0.260,-0.575
6.528,-0.320,-0.565
6.531,-0.365,-0.565
6.533,-0.400,-0.555
6.536,-0.415,-0.545
6.539,-0.420,-0.530
6.542,-0.425,-0.515
6.544,-0.435,-0.505
6.547,-0.445,-0.470
6.550,-0.465,-0.465
6.553,-0.495,-0.460
6.556,-0.535,-0.445
6.558,-0.540,-0.450
6.561,-0.560,-0.440
6.564,-0.570,-0.430
6.567,-0.570,-0.390
6.569,-0.570,-0.350
6.572,-0.575,-0.310
6.575,-0.585,-0.275
6.578,-0.575,-0.255
6.581,-0.580,-0.250
6.583,-0.575,-0.265
6.586,-0.555,-0.275
6.589,-0.545,-0.305
6.592,-0.530,-0.320
6.594,-0.515,-0.335
6.597,-0.495,-0.350
6.600,-0.465,-0.365
6.603,-0.425,-0.375
6.606,-0.385,-0.405
6.608,-0.350,-0.445
6.611,-0.310,-0.480
6.614,-0.280,-0.505
6.617,-0.260,-0.555
6.619,-0.250,-0.565
6.622,-0.245,-0.585
6.625,-0.235,-0.595
6.628,-0.245,-0.605
6.631,-0.255,-0.620
6.633,-0.275,-0.635
6.636,-0.300,-0.645
6.639,-0.335,-0.640
6.642,-0.385,-0.640
6.644,-0.445,-0.645
6.647,-0.505,-0.640
6.650,-0.545,-0.650
6.653,-0.575,-0.680
6.656,-0.600,-0.700
6.658,-0.605,-0.705
6.661,-0.610,-0.710
6.664,-0.620,-0.715
6.667,-0.630,-0.710
6.669,-0.650,-0.700
6.672,-0.655,-0.705
6.675,-0.655,-0.705
6.678,-0.630,-0.700
6.681,-0.615,-0.700
6.683,-0.615,-0.715
6.686,-0.630,-0.715
6.689,-0.625,-0.725
6.692,-0.645,-0.720
6.694,-0.650,-0.745
6.697,-0.655,-0.745
6.700,-0.650,-0.750
6.703,-0.655,-0.760
6.706,-0.655,-0.740
6.708,-0.645,-0.700
6.711,-0.650,-0.675
6.714,-0.640,-0.620
6.717,-0.630,-0.560
6.719,-0.640,-0.500
6.722,-0.660,-0.470
6.725,-0.670,-0.480
6.728,-0.690,-0.570
6.731,-0.705,-0.750
6.733,-0.665,-1.035
6.736,-0.550,-1.410
6.739,-0.380,-1.810
6.742,-0.125,-2.180
6.744,0.185,-2.455
6.747,0.550,-2.630
6.750,0.950,-2.730
6.753,1.355,-2.745
6.756,1.675,-2.720
6.758,1.830,-2.670
6.761,1.785,-2.605
6.764,1.510,-2.535
6.767,1.115,-2.465
6.769,0.625,-2.365
6.772,0.130,-2.185
6.775,-0.310,-1.915
6.778,-0.685,-1.620
6.781,-0.970,-1.360
6.783,-1.190,-1.200
6.786,-1.360,-1.095
6.789,-1.450,-1.040
6.792,-1.475,-0.995
6.794,-1.405,-0.985
6.797,-1.305,-0.945
6.800,-1.180,-0.910
6.803,-1.070,-0.875
6.806,-0.980,-0.840
6.808,-0.935,-0.825
6.811,-0.910,-0.805
6.814,-0.920,-0.815
6.817,-0.945,-0.805
6.819,-0.970,-0.785
6.822,-0.995,-0.780
6.825,-1.025,-0.780
6.828,-1.030,-0.760
6.831,-1.040,-0.765
6.833,-1.040,-0.765
6.836,-1.040,-0.750
6.839,-1.045,-0.730
6.842,-1.040,-0.720
6.844,-1.050,-0.695
6.847,-1.055,-0.685
6.850,-1.055,-0.695
6.853,-1.050,-0.675
6.856,-1.050,-0.665
6.858,-1.035,-0.660
6.861,-1.040,-0.655
6.864,-1.045,-0.655
6.867,-1.060,-0.630
6.869,-1.065,-0.645
6.872,-1.070,-0.630
6.875,-1.080,-0.615
6.878,-1.075,-0.600
6.881,-1.055,-0.575
6.883,-1.035,-0.555
6.886,-1.010,-0.530
6.889,-0.995,-0.535
6.892,-0.985,-0.520
6.894,-0.985,-0.520
6.897,-0.985,-0.520
6.900,-0.965,-0.495
6.903,-0.955,-0.465
6.906,-0.925,-0.445
6.908,-0.885,-0.410
6.911,-0.865,-0.395
6.914,-0.825,-0.350
6.917,-0.815,-0.360
6.919,-0.785,-0.355
6.922,-0.765,-0.360
6.925,-0.740,-0.350
6.928,-0.720,-0.360
6.931,-0.685,-0.335
6.933,-0.635,-0.315
6.936,-0.605,-0.310
6.939,-0.580,-0.310
6.942,-0.545,-0.315
6.944,-0.515,-0.290
6.947,-0.475,-0.280
6.950,-0.430,-0.280
6.953,-0.385,-0.265
6.956,-0.355,-0.270
6.958,-0.330,-0.290
6.961,-0.300,-0.315
6.964,-0.280,-0.330
6.967,-0.245,-0.340
6.969,-0.200,-0.350
6.972,-0.155,-0.350
6.975,-0.105,-0.350
6.978,-0.070,-0.345
6.981,-0.040,-0.355
6.983,-0.015,-0.390
6.986,0.005,-0.410
6.989,0.025,-0.450
6.992,0.030,-0.475
6.994,0.070,-0.500
6.997,0.075,-0.520
7.000,0.085,-0.530
7.003,0.095,-0.555
7.006,0.105,-0.555
7.008,0.100,-0.575
7.011,0.090,-0.565
7.014,0.105,-0.565
7.017,0.110,-0.585
7.019,0.110,-0.585
7.022,0.100,-0.580
7.025,0.065,-0.605
7.028,0.025,-0.610
7.031,-0.020,-0.625
7.033,-0.040,-0.635
7.036,-0.065,-0.650
7.039,-0.090,-0.645
7.042,-0.105,-0.640
7.044,-0.135,-0.615
7.047,-0.160,-0.610
7.050,-0.170,-0.605
7.053,-0.195,-0.610
7.056,-0.210,-0.610
7.058,-0.225,-0.625
7.061,-0.255,-0.615
7.064,-0.270,-0.600
7.067,-0.320,-0.590
7.069,-0.355,-0.575
7.072,-0.375,-0.555
7.075,-0.400,-0.545
7.078,-0.410,-0.550
7.081,-0.405,-0.525
7.083,-0.435,-0.515
7.086,-0.450,-0.495
7.089,-0.500,-0.485
7.092,-0.525,-0.475
7.094,-0.560,-0.480
7.097,-0.580,-0.485
7.100,-0.575,-0.485
7.103,-0.600,-0.490
7.106,-0.595,-0.465
7.108,-0.600,-0.450
7.111,-0.605,-0.405
7.114,-0.605,-0.370
7.117,-0.615,-0.355
7.119,-0.610,-0.320
7.122,-0.610,-0.305
7.125,-0.595,-0.280
7.128,-0.610,-0.255
7.131,-0.605,-0.250
7.133,-0.605,-0.240
7.136,-0.595,-0.240
7.139,-0.580,-0.230
7.142,-0.535,-0.265
7.144,-0.490,-0.285
7.147,-0.440,-0.290
7.150,-0.400,-0.315
7.153,-0.375,-0.340
7.156,-0.360,-0.375
7.158,-0.360,-0.435
7.161,-0.350,-0.455
7.164,-0.340,-0.485
7.167,-0.330,-0.490
7.169,-0.310,-0.505
7.172,-0.280,-0.510
7.175,-0.265,-0.520
7.178,-0.280,-0.520
7.181,-0.305,-0.530
7.183,-0.335,-0.555
7.186,-0.375,-0.560
7.189,-0.430,-0.575
7.192,-0.475,-0.600
7.194,-0.535,-0.620
7.197,-0.585,-0.650
7.200,-0.640,-0.665
7.203,-0.680,-0.660
7.206,-0.705,-0.660
7.208,-0.715,-0.650
7.211,-0.700,-0.630
7.214,-0.695,-0.635
7.217,-0.680,-0.640
7.219,-0.685,-0.645
7.222,-0.690,-0.655
7.225,-0.705,-0.660
7.228,-0.720,-0.660
7.231,-0.715,-0.675
7.233,-0.725,-0.670
7.236,-0.715,-0.670
7.239,-0.715,-0.680
7.242,-0.690,-0.665
7.244,-0.690,-0.670
7.247,-0.695,-0.665
7.250,-0.695,-0.680
7.253,-0.690,-0.670
7.256,-0.700,-0.675
7.258,-0.710,-0.655
7.261,-0.705,-0.650
7.264,-0.710,-0.630
7.267,-0.715,-0.575
7.269,-0.730,-0.525
7.272,-0.745,-0.475
7.275,-0.770,-0.490
7.278,-0.775,-0.595
7.281,-0.760,-0.800
7.283,-0.685,-1.125
7.286,-0.540,-1.505
7.289,-0.340,-1.915
7.292,-0.065,-2.250
7.294,0.250,-2.505
7.297,0.630,-2.650
7.300,1.025,-2.715
7.303,1.400,-2.735
7.306,1.710,-2.720
7.308,1.895,-2.685
7.311,1.915,-2.630
7.314,1.750,-2.565
7.317,1.450,-2.500
7.319,1.040,-2.435
7.322,0.595,-2.325
7.325,0.125,-2.135
7.328,-0.285,-1.855
7.331,-0.640,-1.560
7.333,-0.970,-1.285
7.336,-1.235,-1.115
7.339,-1.430,-1.010
7.342,-1.515,-0.950
7.344,-1.485,-0.935
7.347,-1.400,-0.900
7.350,-1.265,-0.880
7.353,-1.110,-0.835
7.356,-1.015,-0.800
7.358,-0.960,-0.785
7.361,-0.965,-0.770
7.364,-1.000,-0.785
7.367,-1.050,-0.775
7.369,-1.095,-0.775
7.372,-1.125,-0.765
7.375,-1.120,-0.740
7.378,-1.130,-0.725
7.381,-1.115,-0.705
7.383,-1.100,-0.705
7.386,-1.110,-0.690
7.389,-1.120,-0.700
7.392,-1.155,-0.695
7.394,-1.165,-0.690
7.397,-1.180,-0.690
7.400,-1.180,-0.655
7.403,-1.180,-0.645
7.406,-1.175,-0.630
7.408,-1.160,-0.625
7.411,-1.170,-0.625
7.414,-1.175,-0.600
7.417,-1.180,-0.605
7.419,-1.190,-0.600
7.422,-1.190,-0.590
7.425,-1.195,-0.595
7.428,-1.195,-0.585
7.431,-1.195,-0.550
7.433,-1.195,-0.540
7.436,-1.200,-0.535
7.439,-1.205,-0.520
7.442,-1.200,-0.505
7.444,-1.175,-0.475
7.447,-1.155,-0.465
7.450,-1.125,-0.450
7.453,-1.115,-0.430
7.456,-1.110,-0.415
7.458,-1.100,-0.415
7.461,-1.105,-0.410
7.464,-1.110,-0.420
7.467,-1.085,-0.410
7.469,-1.050,-0.395
7.472,-1.025,-0.355
7.475,-0.990,-0.345
7.478,-0.965,-0.300
7.481,-0.930,-0.285
7.483,-0.910,-0.270
7.486,-0.870,-0.280
7.489,-0.850,-0.300
7.492,-0.815,-0.305
7.494,-0.780,-0.300
7.497,-0.745,-0.285
7.500,-0.715,-0.270
7.503,-0.685,-0.270
7.506,-0.660,-0.255
7.508,-0.635,-0.250
7.511,-0.600,-0.245
7.514,-0.555,-0.250
7.517,-0.520,-0.270
7.519,-0.475,-0.280
7.522,-0.410,-0.275
7.525,-0.380,-0.285
7.528,-0.345,-0.285
7.531,-0.320,-0.305
7.533,-0.290,-0.320
7.536,-0.265,-0.355
7.539,-0.225,-0.355
7.542,-0.175,-0.375
7.544,-0.135,-0.370
7.547,-0.105,-0.385
7.550,-0.075,-0.385
7.553,-0.055,-0.410
7.556,-0.050,-0.425
7.558,-0.040,-0.460
7.561,-0.040,-0.485
7.564,-0.020,-0.520
7.567,-0.015,-0.525
7.569,-0.015,-0.530
7.572,-0.010,-0.535
7.575,-0.005,-0.525
7.578,-0.010,-0.535
7.581,-0.025,-0.550
7.583,-0.035,-0.570
7.586,-0.040,-0.575
7.589,-0.050,-0.595
7.592,-0.065,-0.595
7.594,-0.105,-0.590
7.597,-0.150,-0.600
7.600,-0.155,-0.600
7.603,-0.205,-0.600
7.606,-0.225,-0.605
7.608,-0.225,-0.610
7.611,-0.215,-0.610
7.614,-0.225,-0.585
7.617,-0.235,-0.585
7.619,-0.265,-0.565
7.622,-0.310,-0.560
7.625,-0.335,-0.565
7.628,-0.375,-0.560
7.631,-0.400,-0.565
7.633,-0.415,-0.560
7.636,-0.445,-0.550
7.639,-0.460,-0.530
7.642,-0.490,-0.495
7.644,-0.510,-0.475
7.647,-0.540,-0.455
7.650,-0.555,-0.445
7.653,-0.565,-0.440
7.656,-0.575,-0.440
7.658,-0.590,-0.445
7.661,-0.595,-0.440
7.664,-0.615,-0.430
7.667,-0.640,-0.400
7.669,-0.670,-0.360
7.672,-0.675,-0.310
7.675,-0.675,-0.280
7.678,-0.660,-0.250
7.681,-0.655,-0.205
7.683,-0.640,-0.175
7.686,-0.645,-0.170
7.689,-0.640,-0.175
7.692,-0.650,-0.205
7.694,-0.660,-0.230
7.697,-0.620,-0.260
7.700,-0.600,-0.290
7.703,-0.555,-0.290
7.706,-0.515,-0.315
7.708,-0.475,-0.330
7.711,-0.455,-0.365
7.714,-0.435,-0.395
7.717,-0.420,-0.435
7.719,-0.415,-0.460
7.722,-0.405,-0.495
7.725,-0.375,-0.510
7.728,-0.350,-0.530
7.731,-0.340,-0.535
7.733,-0.345,-0.550
7.736,-0.370,-0.560
7.739,-0.400,-0.560
7.742,-0.440,-0.550
7.744,-0.485,-0.545
7.747,-0.520,-0.550
7.750,-0.560,-0.565
7.753,-0.595,-0.565
7.756,-0.640,-0.590
7.758,-0.685,-0.605
7.761,-0.740,-0.625
7.764,-0.790,-0.640
7.767,-0.815,-0.630
7.769,-0.820,-0.625
7.772,-0.785,-0.625
7.775,-0.775,-0.610
7.778,-0.760,-0.610
7.781,-0.755,-0.620
7.783,-0.760,-0.625
7.786,-0.770,-0.635
7.789,-0.785,-0.645
7.792,-0.790,-0.655
7.794,-0.775,-0.655
7.797,-0.775,-0.665
7.800,-0.780,-0.660
7.803,-0.775,-0.665
7.806,-0.770,-0.660
7.808,-0.775,-0.655
7.811,-0.775,-0.655
7.814,-0.775,-0.650
7.817,-0.765,-0.635
7.819,-0.760,-0.615
7.822,-0.745,-0.575
7.825,-0.760,-0.530
7.828,-0.775,-0.485
7.831,-0.805,-0.475
7.833,-0.835,-0.505
7.836,-0.835,-0.615
7.839,-0.805,-0.795
7.842,-0.720,-1.060
7.844,-0.575,-1.380
7.847,-0.375,-1.765
7.850,-0.135,-2.110
7.853,0.160,-2.420
7.856,0.490,-2.640
7.858,0.845,-2.780
7.861,1.220,-2.830
7.864,1.540,-2.845
7.867,1.740,-2.820
7.869,1.775,-2.780
7.872,1.610,-2.715
7.875,1.305,-2.680
7.878,0.900,-2.630
7.881,0.450,-2.505
7.883,-0.005,-2.250
7.886,-0.420,-1.890
7.889,-0.805,-1.520
7.892,-1.125,-1.215
7.894,-1.350,-1.020
7.897,-1.485,-0.920
7.900,-1.510,-0.885
7.903,-1.440,-0.880
7.906,-1.305,-0.885
7.908,-1.150,-0.875
7.911,-1.030,-0.855
7.914,-0.955,-0.815
7.917,-0.935,-0.780
7.919,-0.970,-0.770
7.922,-1.025,-0.765
7.925,-1.065,-0.765
7.928,-1.100,-0.765
7.931,-1.135,-0.760
7.933,-1.130,-0.755
7.936,-1.135,-0.740
7.939,-1.125,-0.725
7.942,-1.130,-0.700
7.944,-1.125,-0.690
7.947,-1.145,-0.685
7.950,-1.145,-0.660
7.953,-1.145,-0.660
7.956,-1.150,-0.645
7.958,-1.160,-0.640
7.961,-1.175,-0.620
7.964,-1.190,-0.615
7.967,-1.210,-0.605
7.969,-1.220,-0.590
7.972,-1.220,-0.580
7.975,-1.195,-0.565
7.978,-1.195,-0.545
7.981,-1.190,-0.525
7.983,-1.180,-0.505
7.986,-1.180,-0.490
7.989,-1.190,-0.490
7.992,-1.195,-0.475
7.994,-1.185,-0.475
7.997,-1.180,-0.470
8.000,-1.155,-0.450
8.003,-1.140,-0.430
8.006,-1.135,-0.405
8.008,-1.110,-0.380
8.011,-1.085,-0.360
8.014,-1.050,-0.340
8.017,-1.015,-0.330
8.019,-0.965,-0.330
8.022,-0.935,-0.305
8.025,-0.915,-0.285
8.028,-0.890,-0.275
8.031,-0.865,-0.275
8.033,-0.835,-0.265
8.036,-0.810,-0.265
8.039,-0.760,-0.255
8.042,-0.700,-0.245
8.044,-0.635,-0.220
8.047,-0.595,-0.200
8.050,-0.540,-0.185
8.053,-0.500,-0.195
8.056,-0.455,-0.210
8.058,-0.400,-0.225
8.061,-0.365,-0.245
8.064,-0.320,-0.250
8.067,-0.270,-0.250
8.069,-0.245,-0.240
8.072,-0.220,-0.225
8.075,-0.190,-0.240
8.078,-0.140,-0.245
8.081,-0.095,-0.245
8.083,-0.045,-0.290
8.086,-0.005,-0.315
8.089,0.025,-0.335
8.092,0.045,-0.370
8.094,0.060,-0.375
8.097,0.065,-0.400
8.100,0.085,-0.410
8.103,0.080,-0.430
8.106,0.090,-0.450
8.108,0.105,-0.460
8.111,0.090,-0.475
8.114,0.095,-0.470
8.117,0.095,-0.475
8.119,0.080,-0.490
8.122,0.070,-0.500
8.125,0.050,-0.540
8.128,0.035,-0.560
8.131,0.020,-0.575
8.133,-0.025,-0.585
8.136,-0.055,-0.580
8.139,-0.065,-0.585
8.142,-0.090,-0.585
8.144,-0.090,-0.590
8.147,-0.100,-0.590
8.150,-0.120,-0.590
8.153,-0.140,-0.580
8.156,-0.165,-0.585
8.158,-0.190,-0.585
8.161,-0.215,-0.575
8.164,-0.220,-0.570
8.167,-0.250,-0.560
8.169,-0.270,-0.565
8.172,-0.290,-0.545
8.175,-0.325,-0.515
8.178,-0.365,-0.495
8.181,-0.400,-0.485
8.183,-0.420,-0.465
8.186,-0.425,-0.450
8.189,-0.435,-0.450
8.192,-0.460,-0.445
8.194,-0.480,-0.455
8.197,-0.510,-0.445
8.200,-0.540,-0.425
8.203,-0.565,-0.400
8.206,-0.565,-0.375
8.208,-0.565,-0.340
8.211,-0.550,-0.310
8.214,-0.540,-0.260
8.217,-0.525,-0.225
8.219,-0.525,-0.215
8.222,-0.540,-0.215
8.225,-0.545,-0.230
8.228,-0.530,-0.270
8.231,-0.520,-0.290
8.233,-0.490,-0.310
8.236,-0.455,-0.325
8.239,-0.415,-0.345
8.242,-0.380,-0.365
8.244,-0.350,-0.395
8.247,-0.315,-0.420
8.250,-0.310,-0.465
8.253,-0.275,-0.510
8.256,-0.260,-0.530
8.258,-0.235,-0.550
8.261,-0.220,-0.550
8.264,-0.225,-0.570
8.267,-0.220,-0.565
8.269,-0.240,-0.585
8.272,-0.265,-0.600
8.275,-0.285,-0.615
8.278,-0.315,-0.615
8.281,-0.360,-0.615
8.283,-0.420,-0.625
8.286,-0.480,-0.640
8.289,-0.535,-0.655
8.292,-0.590,-0.670
8.294,-0.620,-0.680
8.297,-0.630,-0.700
8.300,-0.610,-0.705
8.303,-0.595,-0.695
8.306,-0.595,-0.680
8.308,-0.600,-0.675
8.311,-0.605,-0.675
8.314,-0.630,-0.680
8.317,-0.630,-0.690
8.319,-0.630,-0.690
8.322,-0.615,-0.690
8.325,-0.615,-0.690
8.328,-0.605,-0.700
8.331,-0.610,-0.710
8.333,-0.625,-0.730
8.336,-0.625,-0.730
8.339,-0.605,-0.730
8.342,-0.615,-0.710
8.344,-0.605,-0.695
8.347,-0.600,-0.640
8.350,-0.605,-0.600
8.353,-0.620,-0.555
8.356,-0.645,-0.510
8.358,-0.670,-0.530
8.361,-0.665,-0.610
8.364,-0.645,-0.795
8.367,-0.575,-1.105
8.369,-0.430,-1.490
8.372,-0.235,-1.910
8.375,0.015,-2.285
8.378,0.315,-2.565
8.381,0.655,-2.750
8.383,1.040,-2.865
8.386,1.400,-2.910
8.389,1.700,-2.910
8.392,1.830,-2.890
8.394,1.755,-2.860
8.397,1.465,-2.820
8.400,1.055,-2.765
8.403,0.595,-2.695
8.406,0.110,-2.540
8.408,-0.295,-2.250
8.411,-0.650,-1.865
8.414,-0.925,-1.490
8.417,-1.135,-1.195
8.419,-1.285,-0.985
8.422,-1.380,-0.910
8.425,-1.375,-0.890
8.428,-1.295,-0.900
8.431,-1.165,-0.910
8.433,-1.035,-0.905
8.436,-0.935,-0.875
8.439,-0.880,-0.845
8.442,-0.880,-0.805
8.444,-0.905,-0.785
8.447,-0.940,-0.770
8.450,-0.965,-0.760
8.453,-0.975,-0.750
8.456,-0.990,-0.745
8.458,-1.000,-0.755
8.461,-1.010,-0.730
8.464,-1.015,-0.720
8.467,-1.025,-0.700
8.469,-1.045,-0.685
8.472,-1.025,-0.670
8.475,-1.020,-0.665
8.478,-1.025,-0.630
8.481,-1.030,-0.615
8.483,-1.045,-0.600
8.486,-1.050,-0.590
8.489,-1.070,-0.595
8.492,-1.075,-0.595
8.494,-1.065,-0.590
8.497,-1.050,-0.595
8.500,-1.060,-0.575
8.503,-1.055,-0.555
8.506,-1.055,-0.525
8.508,-1.050,-0.500
8.511,-1.055,-0.490
8.514,-1.030,-0.480
8.517,-1.005,-0.460
8.519,-0.970,-0.445
8.522,-0.950,-0.430
8.525,-0.940,-0.425
8.528,-0.940,-0.415
8.531,-0.935,-0.400
8.533,-0.930,-0.375
8.536,-0.905,-0.360
8.539,-0.875,-0.335
8.542,-0.840,-0.310
8.544,-0.810,-0.290
8.547,-0.795,-0.275
8.550,-0.770,-0.260
8.553,-0.735,-0.260
8.556,-0.715,-0.235
8.558,-0.680,-0.235
8.561,-0.645,-0.235
8.564,-0.600,-0.240
8.567,-0.555,-0.225
8.569,-0.520,-0.220
8.572,-0.495,-0.205
8.575,-0.465,-0.200
8.578,-0.435,-0.170
8.581,-0.400,-0.175
8.583,-0.340,-0.165
8.586,-0.295,-0.175
8.589,-0.240,-0.175
8.592,-0.190,-0.195
8.594,-0.165,-0.220
8.597,-0.150,-0.230
8.600,-0.130,-0.235
8.603,-0.105,-0.230
8.606,-0.065,-0.235
8.608,-0.025,-0.225
8.611,0.005,-0.240
8.614,0.030,-0.250
8.617,0.055,-0.280
8.619,0.075,-0.300
8.622,0.105,-0.315
8.625,0.120,-0.335
8.628,0.140,-0.360
8.631,0.150,-0.390
8.633,0.160,-0.395
8.636,0.145,-0.415
8.639,0.120,-0.425
8.642,0.100,-0.440
8.644,0.090,-0.450
8.647,0.080,-0.460
8.650,0.070,-0.455
8.653,0.080,-0.475
8.656,0.085,-0.480
8.658,0.070,-0.495
8.661,0.055,-0.520
8.664,0.020,-0.540
8.667,-0.005,-0.555
8.669,-0.045,-0.565
8.672,-0.080,-0.570
8.675,-0.095,-0.565
8.678,-0.110,-0.570
8.681,-0.110,-0.560
8.683,-0.135,-0.555
8.686,-0.160,-0.555
8.689,-0.190,-0.560
8.692,-0.225,-0.560
8.694,-0.245,-0.540
8.697,-0.275,-0.535
8.700,-0.290,-0.535
8.703,-0.335,-0.515
8.706,-0.345,-0.505
8.708,-0.380,-0.500
8.711,-0.400,-0.490
8.714,-0.440,-0.460
8.717,-0.430,-0.465
8.719,-0.455,-0.450
8.722,-0.490,-0.440
8.725,-0.510,-0.445
8.728,-0.545,-0.435
8.731,-0.580,-0.455
8.733,-0.610,-0.465
8.736,-0.610,-0.445
8.739,-0.620,-0.425
8.742,-0.620,-0.395
8.744,-0.620,-0.355
8.747,-0.610,-0.320
8.750,-0.625,-0.290
8.753,-0.625,-0.290
8.756,-0.640,-0.275
8.758,-0.650,-0.260
8.761,-0.665,-0.215
8.764,-0.675,-0.205
8.767,-0.680,-0.195
8.769,-0.670,-0.195
8.772,-0.640,-0.215
8.775,-0.600,-0.240
8.778,-0.555,-0.260
8.781,-0.505,-0.285
8.783,-0.455,-0.295
8.786,-0.415,-0.295
8.789,-0.405,-0.310
8.792,-0.395,-0.355
8.794,-0.375,-0.400
8.797,-0.375,-0.455
8.800,-0.365,-0.490
8.803,-0.340,-0.495
8.806,-0.300,-0.510
8.808,-0.280,-0.500
8.811,-0.270,-0.500
8.814,-0.275,-0.490
8.817,-0.300,-0.505
8.819,-0.345,-0.510
8.822,-0.395,-0.525
8.825,-0.465,-0.560
8.828,-0.520,-0.580
8.831,-0.570,-0.600
8.833,-0.615,-0.595
8.836,-0.645,-0.605
8.839,-0.670,-0.615
8.842,-0.690,-0.610
8.844,-0.715,-0.610
8.847,-0.705,-0.620
8.850,-0.700,-0.625
8.853,-0.695,-0.635
8.856,-0.700,-0.640
8.858,-0.715,-0.635
8.861,-0.700,-0.655
8.864,-0.715,-0.655
8.867,-0.710,-0.655
8.869,-0.720,-0.660
8.872,-0.725,-0.660
8.875,-0.715,-0.655
8.878,-0.705,-0.650
8.881,-0.695,-0.650
8.883,-0.680,-0.645
8.886,-0.690,-0.635
8.889,-0.675,-0.640
8.892,-0.695,-0.645
8.894,-0.700,-0.620
8.897,-0.700,-0.605
8.900,-0.700,-0.580
8.903,-0.725,-0.520
8.906,-0.735,-0.460
8.908,-0.770,-0.450
8.911,-0.785,-0.505
8.914,-0.785,-0.665
8.917,-0.720,-0.965
8.919,-0.595,-1.370
8.922,-0.380,-1.790
8.925,-0.105,-2.165
8.928,0.255,-2.415
8.931,0.635,-2.575
8.933,1.050,-2.620
8.936,1.435,-2.635
8.939,1.750,-2.595
8.942,1.905,-2.540
8.944,1.860,-2.490
8.947,1.615,-2.430
8.950,1.260,-2.345
8.953,0.820,-2.255
8.956,0.355,-2.095
8.958,-0.100,-1.865
8.961,-0.520,-1.575
8.964,-0.905,-1.340
8.967,-1.220,-1.145
8.969,-1.445,-0.990
8.972,-1.525,-0.915
8.975,-1.515,-0.860
8.978,-1.395,-0.820
8.981,-1.250,-0.785
8.983,-1.115,-0.755
8.986,-1.020,-0.740
8.989,-0.955,-0.720
8.992,-0.960,-0.715
8.994,-0.990,-0.705
8.997,-1.025,-0.715
9.000,-1.080,-0.705
9.003,-1.105,-0.695
9.006,-1.110,-0.685
9.008,-1.105,-0.655
9.011,-1.080,-0.645
9.014,-1.075,-0.645
9.017,-1.080,-0.640
9.019,-1.095,-0.645
9.022,-1.115,-0.630
9.025,-1.140,-0.610
9.028,-1.150,-0.605
9.031,-1.155,-0.600
9.033,-1.150,-0.595
9.036,-1.160,-0.590
9.039,-1.160,-0.580
9.042,-1.170,-0.570
9.044,-1.160,-0.565
9.047,-1.150,-0.545
9.050,-1.120,-0.520
9.053,-1.100,-0.505
9.056,-1.085,-0.490
9.058,-1.090,-0.485
9.061,-1.090,-0.465
9.064,-1.100,-0.465
9.067,-1.100,-0.445
9.069,-1.080,-0.425
9.072,-1.070,-0.400
9.075,-1.045,-0.380
9.078,-1.020,-0.375
9.081,-0.995,-0.345
9.083,-0.970,-0.350
9.086,-0.955,-0.335
9.089,-0.925,-0.325
9.092,-0.900,-0.305
9.094,-0.870,-0.300
9.097,-0.835,-0.285
9.100,-0.815,-0.270
9.103,-0.800,-0.265
9.106,-0.780,-0.265
9.108,-0.750,-0.255
9.111,-0.710,-0.235
9.114,-0.660,-0.225
9.117,-0.615,-0.200
9.119,-0.570,-0.205
9.122,-0.525,-0.210
9.125,-0.500,-0.220
9.128,-0.475,-0.225
9.131,-0.435,-0.245
9.133,-0.400,-0.240
9.136,-0.355,-0.250
9.139,-0.310,-0.245
9.142,-0.270,-0.245
9.144,-0.250,-0.250
9.147,-0.235,-0.270
9.150,-0.185,-0.295
9.153,-0.155,-0.315
9.156,-0.115,-0.330
9.158,-0.095,-0.355
9.161,-0.075,-0.375
9.164,-0.055,-0.405
9.167,-0.055,-0.435
9.169,-0.035,-0.445
9.172,-0.020,-0.465
9.175,-0.005,-0.480
9.178,0.015,-0.480
9.181,0.040,-0.470
9.183,0.050,-0.480
9.186,0.040,-0.500
9.189,0.020,-0.520
9.192,-0.005,-0.540
9.194,-0.035,-0.555
9.197,-0.055,-0.575
9.200,-0.060,-0.570
9.203,-0.075,-0.580
9.206,-0.085,-0.570
9.208,-0.115,-0.545
9.211,-0.140,-0.540
9.214,-0.150,-0.535
9.217,-0.180,-0.540
9.219,-0.200,-0.560
9.222,-0.210,-0.565
9.225,-0.230,-0.565
9.228,-0.255,-0.560
9.231,-0.300,-0.540
9.233,-0.335,-0.545
9.236,-0.380,-0.530
9.239,-0.390,-0.515
9.242,-0.415,-0.510
9.244,-0.425,-0.485
9.247,-0.440,-0.475
9.250,-0.460,-0.460
9.253,-0.480,-0.445
9.256,-0.520,-0.430
9.258,-0.545,-0.435
9.261,-0.580,-0.440
9.264,-0.600,-0.440
9.267,-0.625,-0.435
9.269,-0.635,-0.415
9.272,-0.650,-0.400
9.275,-0.640,-0.365
9.278,-0.640,-0.350
9.281,-0.655,-0.320
9.283,-0.660,-0.295
9.286,-0.645,-0.280
9.289,-0.645,-0.260
9.292,-0.635,-0.235
9.294,-0.645,-0.200
9.297,-0.650,-0.170
9.300,-0.660,-0.165
9.303,-0.660,-0.165
9.306,-0.635,-0.195
9.308,-0.600,-0.225
9.311,-0.550,-0.235
9.314,-0.505,-0.255
9.317,-0.465,-0.265
9.319,-0.435,-0.295
9.322,-0.420,-0.335
9.325,-0.415,-0.375
9.328,-0.395,-0.415
9.331,-0.375,-0.445
9.333,-0.360,-0.475
9.336,-0.345,-0.475
9.339,-0.340,-0.475
9.342,-0.340,-0.470
9.344,-0.350,-0.470
9.347,-0.370,-0.470
9.350,-0.410,-0.480
9.353,-0.455,-0.505
9.356,-0.500,-0.530
9.358,-0.550,-0.555
9.361,-0.615,-0.580
9.364,-0.670,-0.595
9.367,-0.710,-0.595
9.369,-0.750,-0.595
9.372,-0.770,-0.585
9.375,-0.755,-0.585
9.378,-0.730,-0.585
9.381,-0.730,-0.585
9.383,-0.735,-0.600
9.386,-0.750,-0.615
9.389,-0.765,-0.605
9.392,-0.770,-0.615
9.394,-0.775,-0.630
9.397,-0.780,-0.625
9.400,-0.775,-0.635
9.403,-0.790,-0.630
9.406,-0.790,-0.635
9.408,-0.795,-0.635
9.411,-0.795,-0.630
9.414,-0.765,-0.610
9.417,-0.760,-0.590
9.419,-0.745,-0.580
9.422,-0.730,-0.575
9.425,-0.740,-0.525
9.428,-0.765,-0.485
9.431,-0.805,-0.445
9.433,-0.835,-0.455
9.436,-0.860,-0.535
9.439,-0.825,-0.705
9.442,-0.745,-0.990
9.444,-0.615,-1.360
9.447,-0.400,-1.740
9.450,-0.150,-2.115
9.453,0.195,-2.385
9.456,0.560,-2.570
9.458,0.960,-2.675
9.461,1.345,-2.720
9.464,1.660,-2.705
9.467,1.830,-2.670
9.469,1.810,-2.650
9.472,1.610,-2.615
9.475,1.290,-2.560
9.478,0.920,-2.495
9.481,0.515,-2.375
9.483,0.105,-2.175
9.486,-0.295,-1.875
9.489,-0.670,-1.525
9.492,-1.015,-1.245
9.494,-1.290,-1.035
9.497,-1.485,-0.925
9.500,-1.535,-0.860
9.503,-1.475,-0.840
9.506,-1.350,-0.820
9.508,-1.185,-0.805
9.511,-1.075,-0.780
9.514,-0.995,-0.760
9.517,-0.975,-0.740
9.519,-1.020,-0.740
9.522,-1.080,-0.735
9.525,-1.120,-0.720
9.528,-1.145,-0.720
9.531,-1.155,-0.705
9.533,-1.145,-0.690
9.536,-1.150,-0.675
9.539,-1.140,-0.675
9.542,-1.150,-0.665
9.544,-1.160,-0.670
9.547,-1.170,-0.650
9.550,-1.175,-0.635
9.553,-1.175,-0.625
9.556,-1.170,-0.600
9.558,-1.180,-0.600
9.561,-1.195,-0.585
9.564,-1.215,-0.585
9.567,-1.235,-0.600
9.569,-1.250,-0.590
9.572,-1.260,-0.575
9.575,-1.240,-0.555
9.578,-1.230,-0.520
9.581,-1.215,-0.490
9.583,-1.215,-0.475
9.586,-1.205,-0.485
9.589,-1.215,-0.485
9.592,-1.210,-0.470
9.594,-1.220,-0.465
9.597,-1.205,-0.455
9.600,-1.185,-0.450
9.603,-1.180,-0.410
9.606,-1.175,-0.390
9.608,-1.160,-0.380
9.611,-1.145,-0.360
9.614,-1.135,-0.350
9.617,-1.095,-0.340
9.619,-1.065,-0.320
9.622,-1.030,-0.300
9.625,-1.010,-0.285
9.628,-0.995,-0.290
9.631,-0.980,-0.270
9.633,-0.950,-0.270
9.636,-0.925,-0.265
9.639,-0.890,-0.260
9.642,-0.845,-0.235
9.644,-0.780,-0.220
9.647,-0.730,-0.205
9.650,-0.695,-0.185
9.653,-0.665,-0.185
9.656,-0.635,-0.195
9.658,-0.605,-0.215
9.661,-0.545,-0.220
9.664,-0.505,-0.230
9.667,-0.460,-0.235
9.669,-0.410,-0.240
9.672,-0.370,-0.240
9.675,-0.325,-0.240
9.678,-0.285,-0.250
9.681,-0.250,-0.260
9.683,-0.185,-0.260
9.686,-0.145,-0.280
9.689,-0.110,-0.290
9.692,-0.075,-0.315
9.694,-0.070,-0.340
9.697,-0.065,-0.350
9.700,-0.060,-0.385
9.703,-0.045,-0.390
9.706,-0.015,-0.410
9.708,0.005,-0.415
9.711,0.030,-0.420
9.714,0.035,-0.430
9.717,0.045,-0.430
9.719,0.035,-0.460
9.722,0.025,-0.470
9.725,0.010,-0.500
9.728,-0.010,-0.525
9.731,-0.015,-0.550
9.733,-0.040,-0.550
9.736,-0.070,-0.545
9.739,-0.085,-0.520
9.742,-0.120,-0.535
9.744,-0.135,-0.525
9.747,-0.150,-0.520
9.750,-0.170,-0.525
9.753,-0.170,-0.525
9.756,-0.175,-0.535
9.758,-0.200,-0.530
9.761,-0.240,-0.535
9.764,-0.270,-0.530
9.767,-0.310,-0.525
9.769,-0.340,-0.505
9.772,-0.355,-0.505
9.775,-0.365,-0.495
9.778,-0.395,-0.485
9.781,-0.415,-0.465
9.783,-0.440,-0.445
9.786,-0.475,-0.440
9.789,-0.490,-0.430
9.792,-0.515,-0.425
9.794,-0.525,-0.420
9.797,-0.540,-0.440
9.800,-0.560,-0.435
9.803,-0.570,-0.415
9.806,-0.595,-0.380
9.808,-0.615,-0.350
9.811,-0.630,-0.305
9.814,-0.645,-0.270
9.817,-0.640,-0.235
9.819,-0.635,-0.190
9.822,-0.625,-0.170
9.825,-0.635,-0.150
9.828,-0.655,-0.125
9.831,-0.660,-0.125
9.833,-0.685,-0.150
9.836,-0.670,-0.155
9.839,-0.665,-0.190
9.842,-0.615,-0.205
9.844,-0.560,-0.230
9.847,-0.530,-0.225
9.850,-0.485,-0.255
9.853,-0.465,-0.295
9.856,-0.455,-0.320
9.858,-0.445,-0.360
9.861,-0.440,-0.410
9.864,-0.420,-0.435
9.867,-0.395,-0.470
9.869,-0.370,-0.490
9.872,-0.360,-0.495
9.875,-0.350,-0.475
9.878,-0.350,-0.475
9.881,-0.370,-0.480
9.883,-0.390,-0.475
9.886,-0.420,-0.495
9.889,-0.455,-0.505
9.892,-0.505,-0.525
9.894,-0.560,-0.555
9.897,-0.625,-0.575
9.900,-0.695,-0.580
9.903,-0.750,-0.585
9.906,-0.780,-0.590
9.908,-0.795,-0.575
9.911,-0.795,-0.570
9.914,-0.770,-0.575
9.917,-0.745,-0.580
9.919,-0.750,-0.600
9.922,-0.765,-0.595
9.925,-0.770,-0.610
9.928,-0.785,-0.620
9.931,-0.790,-0.625
9.933,-0.790,-0.625
9.936,-0.780,-0.620
9.939,-0.775,-0.625
9.942,-0.780,-0.620
9.944,-0.780,-0.615
9.947,-0.775,-0.610
9.950,-0.765,-0.605
9.953,-0.760,-0.600
9.956,-0.755,-0.580
9.958,-0.745,-0.575
9.961,-0.745,-0.545
9.964,-0.765,-0.510
9.967,-0.790,-0.465
9.969,-0.820,-0.420
9.972,-0.855,-0.400
9.975,-0.870,-0.450
9.978,-0.840,-0.580
9.981,-0.780,-0.775
9.983,-0.660,-1.075
9.986,-0.495,-1.460
9.989,-0.280,-1.860
9.992,-0.020,-2.225
9.994,0.325,-2.505
9.997,0.695,-2.690
10.000,1.130,-2.800
10.003,1.510,-2.835
10.006,1.765,-2.815
10.008,1.845,-2.785
10.011,1.710,-2.730
10.014,1.420,-2.700
10.017,1.020,-2.670
10.019,0.565,-2.630
10.022,0.100,-2.490
10.025,-0.310,-2.235
10.028,-0.645,-1.865
10.031,-0.925,-1.490
10.033,-1.150,-1.180
10.036,-1.325,-0.970
10.039,-1.415,-0.855
10.042,-1.420,-0.835
10.044,-1.350,-0.825
10.047,-1.220,-0.835
10.050,-1.075,-0.830
10.053,-0.980,-0.815
10.056,-0.940,-0.795
10.058,-0.965,-0.765
10.061,-1.015,-0.770
10.064,-1.070,-0.760
10.067,-1.095,-0.750
10.069,-1.100,-0.735
10.072,-1.100,-0.725
10.075,-1.090,-0.690
10.078,-1.090,-0.680
10.081,-1.090,-0.670
10.083,-1.105,-0.660
10.086,-1.115,-0.655
10.089,-1.120,-0.655
10.092,-1.115,-0.645
10.094,-1.120,-0.650
10.097,-1.120,-0.635
10.100,-1.130,-0.625
10.103,-1.145,-0.620
10.106,-1.155,-0.595
10.108,-1.160,-0.575
10.111,-1.155,-0.565
10.114,-1.140,-0.550
10.117,-1.130,-0.530
10.119,-1.130,-0.520
10.122,-1.125,-0.495
10.125,-1.130,-0.505
10.128,-1.145,-0.500
10.131,-1.155,-0.495
10.133,-1.155,-0.490
10.136,-1.130,-0.470
10.139,-1.105,-0.460
10.142,-1.075,-0.420
10.144,-1.045,-0.390
10.147,-1.020,-0.375
10.150,-1.005,-0.360
10.153,-0.990,-0.350
10.156,-0.965,-0.335
10.158,-0.945,-0.320
10.161,-0.915,-0.310
10.164,-0.880,-0.285
10.167,-0.850,-0.285
10.169,-0.830,-0.270
10.172,-0.805,-0.245
10.175,-0.770,-0.235
10.178,-0.740,-0.220
10.181,-0.695,-0.215
10.183,-0.635,-0.205
10.186,-0.585,-0.190
10.189,-0.535,-0.185
10.192,-0.490,-0.170
10.194,-0.465,-0.160
10.197,-0.455,-0.150
10.200,-0.425,-0.170
10.203,-0.400,-0.170
10.206,-0.355,-0.160
10.208,-0.310,-0.160
10.211,-0.260,-0.150
10.214,-0.215,-0.150
10.217,-0.170,-0.150
10.219,-0.140,-0.155
10.222,-0.105,-0.140
10.225,-0.050,-0.175
10.228,-0.005,-0.185
10.231,0.035,-0.205
10.233,0.065,-0.240
10.236,0.075,-0.250
10.239,0.085,-0.255
10.242,0.105,-0.260
10.244,0.125,-0.265
10.247,0.140,-0.275
10.250,0.160,-0.285
10.253,0.175,-0.305
10.256,0.185,-0.325
10.258,0.190,-0.345
10.261,0.185,-0.360
10.264,0.175,-0.385
10.267,0.155,-0.390
10.269,0.130,-0.395
10.272,0.115,-0.410
10.275,0.110,-0.415
10.278,0.105,-0.430
10.281,0.105,-0.445
10.283,0.090,-0.455
10.286,0.070,-0.470
10.289,0.035,-0.475
10.292,0.015,-0.480
10.294,-0.015,-0.495
10.297,-0.035,-0.515
10.300,-0.055,-0.545
10.303,-0.070,-0.545
10.306,-0.100,-0.545
10.308,-0.125,-0.545
10.311,-0.140,-0.525
10.314,-0.155,-0.520
10.317,-0.180,-0.505
10.319,-0.200,-0.515
10.322,-0.230,-0.505
10.325,-0.245,-0.515
10.328,-0.260,-0.505
10.331,-0.295,-0.505
10.333,-0.330,-0.500
10.336,-0.370,-0.485
10.339,-0.405,-0.470
10.342,-0.425,-0.455
10.344,-0.445,-0.445
10.347,-0.465,-0.420
10.350,-0.485,-0.415
10.353,-0.495,-0.410
10.356,-0.520,-0.410
10.358,-0.560,-0.400
10.361,-0.575,-0.395
10.364,-0.585,-0.375
10.367,-0.590,-0.360
10.369,-0.595,-0.325
10.372,-0.610,-0.310
10.375,-0.615,-0.295
10.378,-0.635,-0.275
10.381,-0.640,-0.230
10.383,-0.660,-0.205
10.386,-0.675,-0.170
10.389,-0.670,-0.145
10.392,-0.660,-0.130
10.394,-0.635,-0.145
10.397,-0.605,-0.160
10.400,-0.595,-0.195
10.403,-0.565,-0.225
10.406,-0.540,-0.250
10.408,-0.515,-0.265
10.411,-0.475,-0.265
10.414,-0.445,-0.290
10.417,-0.395,-0.315
10.419,-0.360,-0.370
10.422,-0.335,-0.415
10.425,-0.320,-0.445
10.428,-0.315,-0.480
10.431,-0.310,-0.500
10.433,-0.300,-0.505
10.436,-0.295,-0.495
10.439,-0.300,-0.480
10.442,-0.300,-0.485
10.444,-0.320,-0.485
10.447,-0.370,-0.490
10.450,-0.425,-0.510
10.453,-0.505,-0.530
10.456,-0.570,-0.550
10.458,-0.630,-0.555
10.461,-0.665,-0.570
10.464,-0.685,-0.570
10.467,-0.705,-0.580
10.469,-0.700,-0.595
10.472,-0.715,-0.595
10.475,-0.725,-0.610
10.478,-0.720,-0.600
10.481,-0.725,-0.600
10.483,-0.695,-0.580
10.486,-0.705,-0.565
10.489,-0.690,-0.575
10.492,-0.695,-0.590
10.494,-0.715,-0.585
10.497,-0.715,-0.615
10.500,-0.715,-0.620
10.503,-0.730,-0.630
10.506,-0.735,-0.625
10.508,-0.710,-0.605
10.511,-0.700,-0.600
10.514,-0.685,-0.585
10.517,-0.675,-0.575
10.519,-0.685,-0.565
10.522,-0.705,-0.550
10.525,-0.710,-0.525
10.528,-0.725,-0.490
10.531,-0.735,-0.435
10.533,-0.750,-0.380
10.536,-0.775,-0.360
10.539,-0.780,-0.400
10.542,-0.785,-0.530
10.544,-0.720,-0.775
10.547,-0.640,-1.125
10.550,-0.465,-1.530
10.553,-0.230,-1.935
10.556,0.055,-2.250
10.558,0.415,-2.495
10.561,0.795,-2.615
10.564,1.185,-2.655
10.567,1.520,-2.650
10.569,1.755,-2.630
10.572,1.790,-2.570
10.575,1.625,-2.515
10.578,1.315,-2.450
10.581,0.920,-2.395
10.583,0.490,-2.340
10.586,0.050,-2.225
10.589,-0.340,-2.020
10.592,-0.650,-1.745
10.594,-0.895,-1.465
10.597,-1.115,-1.225
10.600,-1.295,-1.065
10.603,-1.435,-0.950
10.606,-1.490,-0.885
10.608,-1.450,-0.845
10.611,-1.360,-0.810
10.614,-1.235,-0.780
10.617,-1.115,-0.760
10.619,-1.045,-0.735
10.622,-0.990,-0.715
10.625,-0.965,-0.705
10.628,-0.985,-0.695
10.631,-1.005,-0.700
10.633,-1.055,-0.695
10.636,-1.080,-0.680
10.639,-1.095,-0.660
10.642,-1.105,-0.650
10.644,-1.090,-0.645
10.647,-1.085,-0.640
10.650,-1.070,-0.625
10.653,-1.070,-0.610
10.656,-1.080,-0.610
10.658,-1.095,-0.600
10.661,-1.105,-0.580
10.664,-1.130,-0.585
10.667,-1.140,-0.575
10.669,-1.150,-0.565
10.672,-1.155,-0.545
10.675,-1.140,-0.530
10.678,-1.130,-0.520
10.681,-1.135,-0.490
10.683,-1.125,-0.475
10.686,-1.125,-0.465
10.689,-1.125,-0.465
10.692,-1.120,-0.465
10.694,-1.110,-0.465
10.697,-1.125,-0.455
10.700,-1.110,-0.450
10.703,-1.100,-0.435
10.706,-1.100,-0.430
10.708,-1.090,-0.395
10.711,-1.075,-0.370
10.714,-1.060,-0.350
10.717,-1.030,-0.335
10.719,-1.000,-0.325
10.722,-0.965,-0.305
10.725,-0.960,-0.300
10.728,-0.945,-0.295
10.731,-0.925,-0.275
10.733,-0.910,-0.275
10.736,-0.875,-0.255
10.739,-0.845,-0.250
10.742,-0.800,-0.240
10.744,-0.770,-0.235
10.747,-0.740,-0.230
10.750,-0.720,-0.200
10.753,-0.680,-0.175
10.756,-0.665,-0.165
10.758,-0.625,-0.165
10.761,-0.560,-0.160
10.764,-0.525,-0.175
10.767,-0.495,-0.190
10.769,-0.470,-0.195
10.772,-0.435,-0.190
10.775,-0.425,-0.185
10.778,-0.380,-0.185
10.781,-0.345,-0.170
10.783,-0.300,-0.175
10.786,-0.240,-0.215
10.789,-0.200,-0.210
10.792,-0.165,-0.240
10.794,-0.140,-0.270
10.797,-0.130,-0.290
10.800,-0.110,-0.300
10.803,-0.080,-0.305
10.806,-0.040,-0.310
10.808,-0.025,-0.330
10.811,0.010,-0.345
10.814,0.035,-0.365
10.817,0.035,-0.385
10.819,0.040,-0.400
10.822,0.045,-0.410
10.825,0.055,-0.430
10.828,0.050,-0.440
10.831,0.050,-0.460
10.833,0.060,-0.470
10.836,0.055,-0.480
10.839,0.040,-0.490
10.842,0.035,-0.500
10.844,0.025,-0.500
10.847,0.020,-0.505
10.850,0.000,-0.505
10.853,0.000,-0.510
10.856,-0.015,-0.515
10.858,-0.040,-0.520
10.861,-0.045,-0.540
10.864,-0.085,-0.545
10.867,-0.110,-0.545
10.869,-0.150,-0.550
10.872,-0.180,-0.555
10.875,-0.190,-0.540
10.878,-0.200,-0.530
10.881,-0.205,-0.515
10.883,-0.215,-0.505
10.886,-0.235,-0.500
10.889,-0.255,-0.490
10.892,-0.295,-0.500
10.894,-0.340,-0.490
10.897,-0.375,-0.500
10.900,-0.405,-0.490
10.903,-0.425,-0.470
10.906,-0.430,-0.460
10.908,-0.445,-0.455
10.911,-0.470,-0.430
10.914,-0.490,-0.420
10.917,-0.520,-0.410
10.919,-0.545,-0.390
10.922,-0.555,-0.395
10.925,-0.565,-0.375
10.928,-0.570,-0.370
10.931,-0.570,-0.365
10.933,-0.590,-0.360
10.936,-0.610,-0.335
10.939,-0.640,-0.305
10.942,-0.645,-0.275
10.944,-0.650,-0.240
10.947,-0.640,-0.210
10.950,-0.620,-0.155
10.953,-0.605,-0.135
10.956,-0.590,-0.115
10.958,-0.590,-0.115
10.961,-0.595,-0.145
10.964,-0.575,-0.190
10.967,-0.560,-0.230
10.969,-0.530,-0.240
10.972,-0.495,-0.255
10.975,-0.455,-0.255
10.978,-0.415,-0.270
10.981,-0.385,-0.295
10.983,-0.360,-0.345
10.986,-0.360,-0.400
10.989,-0.340,-0.435
10.992,-0.325,-0.465
10.994,-0.310,-0.465
10.997,-0.295,-0.475
11.000,-0.300,-0.475
11.003,-0.320,-0.470
11.006,-0.360,-0.490
11.008,-0.400,-0.500
11.011,-0.450,-0.515
11.014,-0.500,-0.515
11.017,-0.540,-0.525
11.019,-0.590,-0.540
11.022,-0.625,-0.540
11.025,-0.670,-0.545
11.028,-0.715,-0.555
11.031,-0.750,-0.570
11.033,-0.760,-0.595
11.036,-0.785,-0.590
11.039,-0.775,-0.595
11.042,-0.755,-0.600
11.044,-0.745,-0.600
11.047,-0.745,-0.585
11.050,-0.735,-0.570
11.053,-0.740,-0.580
11.056,-0.735,-0.590
11.058,-0.745,-0.585
11.061,-0.755,-0.615
11.064,-0.755,-0.625
11.067,-0.750,-0.625
11.069,-0.760,-0.630
11.072,-0.760,-0.605
11.075,-0.750,-0.615
11.078,-0.745,-0.605
11.081,-0.750,-0.585
11.083,-0.735,-0.570
11.086,-0.735,-0.540
11.089,-0.725,-0.485
11.092,-0.735,-0.440
11.094,-0.770,-0.400
11.097,-0.800,-0.425
11.100,-0.825,-0.530
11.103,-0.810,-0.730
11.106,-0.730,-1.040
11.108,-0.570,-1.410
11.111,-0.350,-1.775
11.114,-0.070,-2.105
11.117,0.240,-2.360
11.119,0.590,-2.540
11.122,0.965,-2.655
11.125,1.345,-2.720
11.128,1.655,-2.745
11.131,1.855,-2.760
11.133,1.875,-2.740
11.136,1.685,-2.685
11.139,1.350,-2.635
11.142,0.910,-2.550
11.144,0.420,-2.405
11.147,-0.055,-2.145
11.150,-0.485,-1.790
11.153,-0.855,-1.445
11.156,-1.145,-1.145
11.158,-1.350,-0.950
11.161,-1.445,-0.865
11.164,-1.435,-0.820
11.167,-1.345,-0.825
11.169,-1.220,-0.815
11.172,-1.100,-0.815
11.175,-1.000,-0.800
11.178,-0.945,-0.780
11.181,-0.950,-0.745
11.183,-0.975,-0.730
11.186,-1.025,-0.715
11.189,-1.050,-0.710
11.192,-1.080,-0.710
11.194,-1.090,-0.715
11.197,-1.085,-0.710
11.200,-1.080,-0.710
11.203,-1.085,-0.695
11.206,-1.095,-0.680
11.208,-1.110,-0.660
11.211,-1.120,-0.640
11.214,-1.115,-0.615
11.217,-1.115,-0.590
11.219,-1.110,-0.595
11.222,-1.110,-0.585
11.225,-1.125,-0.590
11.228,-1.150,-0.580
11.231,-1.160,-0.585
11.233,-1.170,-0.570
11.236,-1.180,-0.550
11.239,-1.175,-0.530
11.242,-1.175,-0.500
11.244,-1.170,-0.505
11.247,-1.160,-0.490
11.250,-1.155,-0.455
11.253,-1.145,-0.445
11.256,-1.145,-0.415
11.258,-1.135,-0.410
11.261,-1.120,-0.405
11.264,-1.105,-0.385
11.267,-1.100,-0.390
11.269,-1.105,-0.380
11.272,-1.095,-0.375
11.275,-1.080,-0.345
11.278,-1.050,-0.330
11.281,-1.040,-0.300
11.283,-1.000,-0.280
11.286,-0.960,-0.270
11.289,-0.915,-0.260
11.292,-0.880,-0.260
11.294,-0.870,-0.250
11.297,-0.840,-0.240
11.300,-0.810,-0.235
11.303,-0.795,-0.230
11.306,-0.735,-0.210
11.308,-0.670,-0.185
11.311,-0.645,-0.190
11.314,-0.595,-0.185
11.317,-0.565,-0.175
11.319,-0.525,-0.175
11.322,-0.500,-0.170
11.325,-0.470,-0.175
11.328,-0.440,-0.180
11.331,-0.365,-0.180
11.333,-0.320,-0.190
11.336,-0.270,-0.185
11.339,-0.225,-0.185
11.342,-0.185,-0.205
11.344,-0.155,-0.220
11.347,-0.115,-0.225
11.350,-0.055,-0.220
11.353,-0.025,-0.225
11.356,0.020,-0.240
11.358,0.040,-0.265
11.361,0.040,-0.295
11.364,0.040,-0.320
11.367,0.040,-0.345
11.369,0.075,-0.355
11.372,0.080,-0.355
11.375,0.105,-0.380
11.378,0.120,-0.380
11.381,0.130,-0.380
11.383,0.130,-0.405
11.386,0.120,-0.425
11.389,0.115,-0.445
11.392,0.100,-0.465
11.394,0.070,-0.475
11.397,0.060,-0.490
11.400,0.050,-0.495
11.403,0.010,-0.495
11.406,-0.010,-0.515
11.408,-0.020,-0.520
11.411,-0.040,-0.530
11.414,-0.060,-0.535
11.417,-0.050,-0.535
11.419,-0.060,-0.545
11.422,-0.070,-0.525
11.425,-0.110,-0.530
11.428,-0.140,-0.525
11.431,-0.170,-0.530
11.433,-0.210,-0.550
11.436,-0.255,-0.540
11.439,-0.265,-0.520
11.442,-0.290,-0.515
11.444,-0.305,-0.490
11.447,-0.320,-0.465
11.450,-0.340,-0.450
11.453,-0.365,-0.450
11.456,-0.390,-0.455
11.458,-0.425,-0.455
11.461,-0.440,-0.440
11.464,-0.455,-0.445
11.467,-0.465,-0.425
11.469,-0.475,-0.400
11.472,-0.490,-0.370
11.475,-0.500,-0.345
11.478,-0.520,-0.305
11.481,-0.535,-0.275
11.483,-0.515,-0.240
11.486,-0.530,-0.205
11.489,-0.515,-0.175
11.492,-0.550,-0.145
11.494,-0.565,-0.120
11.497,-0.570,-0.130
11.500,-0.580,-0.155
11.503,-0.590,-0.190
11.506,-0.550,-0.220
11.508,-0.505,-0.250
11.511,-0.460,-0.260
11.514,-0.400,-0.275
11.517,-0.360,-0.300
11.519,-0.330,-0.345
11.522,-0.325,-0.390
11.525,-0.320,-0.445
11.528,-0.310,-0.475
11.531,-0.310,-0.515
11.533,-0.295,-0.540
11.536,-0.295,-0.530
11.539,-0.285,-0.510
11.542,-0.290,-0.510
11.544,-0.310,-0.500
11.547,-0.335,-0.495
11.550,-0.370,-0.505
11.553,-0.420,-0.550
11.556,-0.475,-0.570
11.558,-0.535,-0.570
11.561,-0.595,-0.585
11.564,-0.650,-0.600
11.567,-0.700,-0.615
11.569,-0.725,-0.620
11.572,-0.725,-0.625
11.575,-0.715,-0.625
11.578,-0.695,-0.610
11.581,-0.700,-0.605
11.583,-0.695,-0.600
11.586,-0.685,-0.595
11.589,-0.680,-0.595
11.592,-0.690,-0.595
11.594,-0.680,-0.620
11.597,-0.685,-0.635
11.600,-0.680,-0.650
11.603,-0.675,-0.640
11.606,-0.690,-0.660
11.608,-0.690,-0.650
11.611,-0.690,-0.640
11.614,-0.700,-0.645
11.617,-0.680,-0.620
11.619,-0.655,-0.610
11.622,-0.650,-0.570
11.625,-0.650,-0.545
11.628,-0.670,-0.495
11.631,-0.690,-0.460
11.633,-0.720,-0.460
11.636,-0.730,-0.530
11.639,-0.705,-0.695
11.642,-0.625,-0.950
11.644,-0.485,-1.310
11.647,-0.285,-1.680
11.650,-0.030,-2.055
11.653,0.245,-2.385
11.656,0.545,-2.605
11.658,0.885,-2.780
11.661,1.260,-2.870
11.664,1.565,-2.925
11.667,1.775,-2.930
11.669,1.780,-2.905
11.672,1.545,-2.860
11.675,1.160,-2.795
11.678,0.700,-2.730
11.681,0.205,-2.605
11.683,-0.225,-2.350
11.686,-0.600,-1.960
11.689,-0.895,-1.575
11.692,-1.120,-1.245
11.694,-1.270,-1.030
11.697,-1.360,-0.910
11.700,-1.380,-0.880
11.703,-1.325,-0.880
11.706,-1.225,-0.885
11.708,-1.090,-0.855
11.711,-0.985,-0.830
11.714,-0.905,-0.810
11.717,-0.855,-0.780
11.719,-0.880,-0.765
11.722,-0.910,-0.750
11.725,-0.960,-0.745
11.728,-0.990,-0.740
11.731,-1.000,-0.725
11.733,-1.015,-0.720
11.736,-1.025,-0.710
11.739,-1.035,-0.695
11.742,-1.035,-0.670
11.744,-1.055,-0.655
11.747,-1.055,-0.650
11.750,-1.045,-0.625
11.753,-1.045,-0.610
11.756,-1.035,-0.595
11.758,-1.045,-0.595
11.761,-1.055,-0.595
11.764,-1.070,-0.600
11.767,-1.095,-0.600
11.769,-1.110,-0.590
11.772,-1.110,-0.560
11.775,-1.100,-0.525
11.778,-1.085,-0.505
11.781,-1.065,-0.470
11.783,-1.065,-0.465
11.786,-1.070,-0.455
11.789,-1.070,-0.460
11.792,-1.070,-0.450
11.794,-1.065,-0.435
11.797,-1.055,-0.425
11.800,-1.040,-0.415
11.803,-1.030,-0.385
11.806,-1.010,-0.365
11.808,-0.985,-0.330
11.811,-0.980,-0.325
11.814,-0.970,-0.315
11.817,-0.960,-0.295
11.819,-0.945,-0.280
11.822,-0.900,-0.270
11.825,-0.870,-0.240
11.828,-0.835,-0.225
11.831,-0.800,-0.200
11.833,-0.780,-0.200
11.836,-0.740,-0.190
11.839,-0.720,-0.180
11.842,-0.675,-0.165
11.844,-0.640,-0.170
11.847,-0.590,-0.150
11.850,-0.550,-0.140
11.853,-0.515,-0.125
11.856,-0.485,-0.110
11.858,-0.465,-0.100
11.861,-0.450,-0.115
11.864,-0.420,-0.105
11.867,-0.390,-0.130
11.869,-0.340,-0.120
11.872,-0.295,-0.120
11.875,-0.250,-0.120
11.878,-0.200,-0.100
11.881,-0.160,-0.100
11.883,-0.110,-0.105
11.886,-0.080,-0.120
11.889,-0.060,-0.145
11.892,-0.030,-0.170
11.894,-0.005,-0.185
11.897,0.015,-0.200
11.900,0.040,-0.210
11.903,0.055,-0.215
11.906,0.065,-0.230
11.908,0.080,-0.240
11.911,0.095,-0.245
11.914,0.115,-0.265
11.917,0.110,-0.270
11.919,0.125,-0.300
11.922,0.130,-0.310
11.925,0.135,-0.330
11.928,0.120,-0.340
11.931,0.105,-0.360
11.933,0.095,-0.365
11.936,0.080,-0.390
11.939,0.070,-0.415
11.942,0.065,-0.420
11.944,0.065,-0.435
11.947,0.065,-0.440
11.950,0.045,-0.455
11.953,0.025,-0.475
11.956,0.000,-0.480
11.958,-0.035,-0.485
11.961,-0.065,-0.495
11.964,-0.100,-0.515
11.967,-0.120,-0.525
11.969,-0.140,-0.530
11.972,-0.175,-0.520
11.975,-0.185,-0.490
11.978,-0.210,-0.475
11.981,-0.245,-0.470
11.983,-0.270,-0.470
11.986,-0.300,-0.470
11.989,-0.300,-0.475
11.992,-0.330,-0.465
11.994,-0.370,-0.455
11.997,-0.395,-0.455
12.000,-0.445,-0.445
12.003,-0.485,-0.435
12.006,-0.520,-0.425
12.008,-0.520,-0.410
12.011,-0.540,-0.405
12.014,-0.550,-0.390
12.017,-0.560,-0.370
12.019,-0.575,-0.355
12.022,-0.590,-0.340
12.025,-0.625,-0.335
12.028,-0.655,-0.350
12.031,-0.660,-0.345
12.033,-0.655,-0.335
12.036,-0.665,-0.320
12.039,-0.665,-0.285
12.042,-0.670,-0.255
12.044,-0.685,-0.210
12.047,-0.700,-0.175
12.050,-0.680,-0.150
12.053,-0.670,-0.125
12.056,-0.650,-0.125
12.058,-0.640,-0.135
12.061,-0.620,-0.175
12.064,-0.590,-0.200
12.067,-0.560,-0.225
12.069,-0.525,-0.235
12.072,-0.495,-0.245
12.075,-0.435,-0.275
12.078,-0.405,-0.310
12.081,-0.365,-0.340
12.083,-0.345,-0.365
12.086,-0.340,-0.390
12.089,-0.335,-0.410
12.092,-0.335,-0.425
12.094,-0.340,-0.435
12.097,-0.340,-0.455
12.100,-0.355,-0.465
12.103,-0.370,-0.490
12.106,-0.425,-0.495
12.108,-0.475,-0.495
12.111,-0.555,-0.505
12.114,-0.630,-0.500
12.117,-0.685,-0.510
12.119,-0.695,-0.520
12.122,-0.705,-0.515
12.125,-0.705,-0.530
12.128,-0.690,-0.535
12.131,-0.695,-0.555
12.133,-0.690,-0.555
12.136,-0.705,-0.560
12.139,-0.720,-0.565
12.142,-0.720,-0.560
12.144,-0.725,-0.555
12.147,-0.740,-0.560
12.150,-0.740,-0.565
12.153,-0.745,-0.570
12.156,-0.740,-0.560
12.158,-0.740,-0.555
12.161,-0.740,-0.570
12.164,-0.735,-0.580
12.167,-0.725,-0.595
12.169,-0.715,-0.590
12.172,-0.715,-0.605
12.175,-0.720,-0.595
12.178,-0.715,-0.555
12.181,-0.710,-0.505
12.183,-0.710,-0.450
12.186,-0.710,-0.375
12.189,-0.730,-0.340
12.192,-0.735,-0.360
12.194,-0.765,-0.460
12.197,-0.755,-0.655
12.200,-0.700,-0.975
12.203,-0.575,-1.360
12.206,-0.365,-1.755
12.208,-0.055,-2.110
12.211,0.305,-2.340
12.214,0.730,-2.485
12.217,1.130,-2.545
12.219,1.525,-2.540
12.222,1.800,-2.505
12.225,1.895,-2.455
12.228,1.775,-2.405
12.231,1.475,-2.330
12.233,1.045,-2.240
12.236,0.545,-2.135
12.239,0.025,-1.910
12.242,-0.460,-1.640
12.244,-0.865,-1.375
12.247,-1.205,-1.145
12.250,-1.425,-0.970
12.253,-1.535,-0.860
12.256,-1.520,-0.795
12.258,-1.435,-0.765
12.261,-1.310,-0.750
12.264,-1.180,-0.720
12.267,-1.100,-0.725
12.269,-1.040,-0.685
12.272,-1.020,-0.680
12.275,-1.020,-0.650
12.278,-1.035,-0.645
12.281,-1.050,-0.620
12.283,-1.070,-0.620
12.286,-1.100,-0.615
12.289,-1.110,-0.615
12.292,-1.115,-0.625
12.294,-1.120,-0.630
12.297,-1.110,-0.610
12.300,-1.115,-0.610
12.303,-1.120,-0.580
12.306,-1.120,-0.565
12.308,-1.140,-0.570
12.311,-1.135,-0.560
12.314,-1.150,-0.550
12.317,-1.140,-0.535
12.319,-1.135,-0.515
12.322,-1.135,-0.495
12.325,-1.135,-0.490
12.328,-1.135,-0.485
12.331,-1.145,-0.480
12.333,-1.140,-0.495
12.336,-1.145,-0.485
12.339,-1.140,-0.470
12.342,-1.115,-0.450
12.344,-1.095,-0.430
12.347,-1.080,-0.400
12.350,-1.075,-0.375
12.353,-1.060,-0.375
12.356,-1.045,-0.355
12.358,-1.045,-0.355
12.361,-1.025,-0.340
12.364,-1.005,-0.320
12.367,-0.975,-0.310
12.369,-0.955,-0.285
12.372,-0.935,-0.265
12.375,-0.910,-0.265
12.378,-0.900,-0.250
12.381,-0.860,-0.235
12.383,-0.820,-0.215
12.386,-0.755,-0.210
12.389,-0.720,-0.195
12.392,-0.695,-0.175
12.394,-0.670,-0.180
12.397,-0.645,-0.200
12.400,-0.615,-0.200
12.403,-0.590,-0.200
12.406,-0.545,-0.200
12.408,-0.495,-0.190
12.411,-0.455,-0.165
12.414,-0.430,-0.140
12.417,-0.390,-0.145
12.419,-0.355,-0.160
12.422,-0.315,-0.180
12.425,-0.270,-0.200
12.428,-0.235,-0.210
12.431,-0.195,-0.230
12.433,-0.170,-0.250
12.436,-0.160,-0.265
12.439,-0.140,-0.275
12.442,-0.105,-0.290
12.444,-0.060,-0.320
12.447,-0.025,-0.350
12.450,0.010,-0.355
12.453,0.040,-0.370
12.456,0.045,-0.380
12.458,0.040,-0.395
12.461,0.035,-0.405
12.464,0.020,-0.425
12.467,0.015,-0.445
12.469,0.015,-0.465
12.472,0.020,-0.485
12.475,0.025,-0.480
12.478,0.020,-0.485
12.481,-0.005,-0.480
12.483,-0.005,-0.485
12.486,-0.025,-0.495
12.489,-0.030,-0.505
12.492,-0.040,-0.510
12.494,-0.065,-0.525
12.497,-0.095,-0.525
12.500,-0.140,-0.525
12.503,-0.180,-0.510
12.506,-0.210,-0.495
12.508,-0.220,-0.495
12.511,-0.265,-0.505
12.514,-0.270,-0.485
12.517,-0.280,-0.480
12.519,-0.295,-0.455
12.522,-0.335,-0.450
12.525,-0.380,-0.430
12.528,-0.415,-0.420
12.531,-0.445,-0.415
12.533,-0.470,-0.415
12.536,-0.490,-0.410
12.539,-0.505,-0.405
12.542,-0.535,-0.390
12.544,-0.560,-0.370
12.547,-0.570,-0.360
12.550,-0.575,-0.355
12.553,-0.575,-0.345
12.556,-0.585,-0.340
12.558,-0.590,-0.335
12.561,-0.585,-0.340
12.564,-0.600,-0.320
12.567,-0.620,-0.300
12.569,-0.645,-0.275
12.572,-0.650,-0.230
12.575,-0.645,-0.200
12.578,-0.655,-0.160
12.581,-0.650,-0.110
12.583,-0.620,-0.090
12.586,-0.605,-0.085
12.589,-0.605,-0.100
12.592,-0.590,-0.130
12.594,-0.585,-0.155
12.597,-0.555,-0.175
12.600,-0.520,-0.215
12.603,-0.485,-0.230
12.606,-0.430,-0.265
12.608,-0.410,-0.305
12.611,-0.385,-0.335
12.614,-0.365,-0.360
12.617,-0.355,-0.375
12.619,-0.335,-0.385
12.622,-0.305,-0.400
12.625,-0.305,-0.410
12.628,-0.310,-0.420
12.631,-0.340,-0.440
12.633,-0.385,-0.455
12.636,-0.450,-0.465
12.639,-0.510,-0.480
12.642,-0.570,-0.485
12.644,-0.625,-0.470
12.647,-0.650,-0.470
12.650,-0.665,-0.485
12.653,-0.710,-0.500
12.656,-0.730,-0.510
12.658,-0.750,-0.530
12.661,-0.770,-0.535
12.664,-0.775,-0.535
12.667,-0.770,-0.540
12.669,-0.780,-0.550
12.672,-0.775,-0.545
12.675,-0.780,-0.545
12.678,-0.785,-0.545
12.681,-0.790,-0.550
12.683,-0.790,-0.540
12.686,-0.770,-0.535
12.689,-0.765,-0.545
12.692,-0.740,-0.550
12.694,-0.750,-0.555
12.697,-0.760,-0.560
12.700,-0.780,-0.565
12.703,-0.795,-0.575
12.706,-0.805,-0.570
12.708,-0.815,-0.545
12.711,-0.800,-0.525
12.714,-0.795,-0.455
12.717,-0.785,-0.395
12.719,-0.795,-0.365
12.722,-0.805,-0.375
12.725,-0.815,-0.500
12.728,-0.800,-0.735
12.731,-0.720,-1.050
12.733,-0.555,-1.430
12.736,-0.335,-1.795
12.739,-0.055,-2.120
12.742,0.265,-2.355
12.744,0.615,-2.525
12.747,0.985,-2.620
12.750,1.360,-2.660
12.753,1.675,-2.660
12.756,1.825,-2.630
12.758,1.800,-2.575
12.761,1.570,-2.515
12.764,1.190,-2.460
12.767,0.720,-2.375
12.769,0.220,-2.200
12.772,-0.285,-1.910
12.775,-0.700,-1.570
12.778,-1.050,-1.260
12.781,-1.315,-1.030
12.783,-1.475,-0.875
12.786,-1.530,-0.815
12.789,-1.500,-0.790
12.792,-1.385,-0.790
12.794,-1.240,-0.785
12.797,-1.105,-0.780
12.800,-1.020,-0.750
12.803,-0.980,-0.725
12.806,-1.000,-0.690
12.808,-1.025,-0.675
12.811,-1.070,-0.665
12.814,-1.095,-0.660
12.817,-1.120,-0.655
12.819,-1.115,-0.660
12.822,-1.105,-0.655
12.825,-1.100,-0.645
12.828,-1.105,-0.640
12.831,-1.095,-0.630
12.833,-1.115,-0.630
12.836,-1.135,-0.610
12.839,-1.170,-0.600
12.842,-1.190,-0.595
12.844,-1.195,-0.575
12.847,-1.185,-0.565
12.850,-1.175,-0.540
12.853,-1.165,-0.525
12.856,-1.170,-0.525
12.858,-1.170,-0.515
12.861,-1.195,-0.520
12.864,-1.215,-0.520
12.867,-1.210,-0.525
12.869,-1.220,-0.520
12.872,-1.220,-0.500
12.875,-1.210,-0.470
12.878,-1.195,-0.440
12.881,-1.200,-0.425
12.883,-1.195,-0.395
12.886,-1.185,-0.390
12.889,-1.175,-0.385
12.892,-1.160,-0.370
12.894,-1.145,-0.370
12.897,-1.130,-0.355
12.900,-1.125,-0.355
12.903,-1.115,-0.335
12.906,-1.110,-0.325
12.908,-1.100,-0.300
12.911,-1.090,-0.290
12.914,-1.045,-0.270
12.917,-1.010,-0.265
12.919,-0.970,-0.250
12.922,-0.940,-0.230
12.925,-0.910,-0.215
12.928,-0.890,-0.205
12.931,-0.865,-0.200
12.933,-0.840,-0.215
12.936,-0.800,-0.205
12.939,-0.760,-0.215
12.942,-0.720,-0.205
12.944,-0.680,-0.185
12.947,-0.640,-0.185
12.950,-0.625,-0.160
12.953,-0.570,-0.165
12.956,-0.540,-0.150
12.958,-0.500,-0.170
12.961,-0.435,-0.190
12.964,-0.395,-0.190
12.967,-0.350,-0.215
12.969,-0.315,-0.215
12.972,-0.280,-0.220
12.975,-0.230,-0.215
12.978,-0.195,-0.220
12.981,-0.150,-0.225
12.983,-0.110,-0.240
12.986,-0.060,-0.255
12.989,-0.020,-0.285
12.992,0.005,-0.315
12.994,0.015,-0.320
12.997,0.030,-0.330
13.000,0.035,-0.335
13.003,0.050,-0.370
13.006,0.060,-0.365
13.008,0.075,-0.390
13.011,0.080,-0.405
13.014,0.075,-0.405
13.017,0.075,-0.420
13.019,0.065,-0.420
13.022,0.050,-0.420
13.025,0.040,-0.430
13.028,0.035,-0.440
13.031,0.025,-0.465
13.033,0.010,-0.475
13.036,0.000,-0.500
13.039,-0.030,-0.500
13.042,-0.060,-0.495
13.044,-0.080,-0.495
13.047,-0.100,-0.480
13.050,-0.120,-0.485
13.053,-0.125,-0.495
13.056,-0.140,-0.495
13.058,-0.170,-0.495
13.061,-0.200,-0.490
13.064,-0.245,-0.490
13.067,-0.280,-0.480
13.069,-0.315,-0.465
13.072,-0.335,-0.450
13.075,-0.350,-0.440
13.078,-0.370,-0.430
13.081,-0.400,-0.415
13.083,-0.430,-0.410
13.086,-0.450,-0.390
13.089,-0.465,-0.390
13.092,-0.480,-0.380
13.094,-0.485,-0.360
13.097,-0.505,-0.350
13.100,-0.520,-0.315
13.103,-0.540,-0.300
13.106,-0.550,-0.265
13.108,-0.575,-0.230
13.111,-0.580,-0.195
13.114,-0.580,-0.160
13.117,-0.560,-0.105
13.119,-0.555,-0.090
13.122,-0.550,-0.085
13.125,-0.560,-0.095
13.128,-0.555,-0.120
13.131,-0.560,-0.145
13.133,-0.545,-0.185
13.136,-0.520,-0.190
13.139,-0.490,-0.210
13.142,-0.440,-0.240
13.144,-0.405,-0.280
13.147,-0.395,-0.315
13.150,-0.360,-0.360
13.153,-0.350,-0.385
13.156,-0.330,-0.405
13.158,-0.300,-0.400
13.161,-0.285,-0.405
13.164,-0.290,-0.400
13.167,-0.315,-0.410
13.169,-0.350,-0.430
13.172,-0.400,-0.445
13.175,-0.455,-0.465
13.178,-0.505,-0.480
13.181,-0.555,-0.480
13.183,-0.595,-0.465
13.186,-0.635,-0.485
13.189,-0.665,-0.480
13.192,-0.700,-0.495
13.194,-0.740,-0.520
13.197,-0.740,-0.540
13.200,-0.740,-0.545
13.203,-0.730,-0.540
13.206,-0.725,-0.535
13.208,-0.720,-0.530
13.211,-0.715,-0.515
13.214,-0.740,-0.525
13.217,-0.735,-0.525
13.219,-0.750,-0.545
13.222,-0.745,-0.545
13.225,-0.740,-0.540
13.228,-0.725,-0.550
13.231,-0.725,-0.540
13.233,-0.735,-0.555
13.236,-0.745,-0.565
13.239,-0.755,-0.555
13.242,-0.750,-0.540
13.244,-0.740,-0.515
13.247,-0.730,-0.490
13.250,-0.740,-0.430
13.253,-0.740,-0.380
13.256,-0.745,-0.360
13.258,-0.765,-0.375
13.261,-0.785,-0.470
13.264,-0.770,-0.665
13.267,-0.695,-0.985
13.269,-0.525,-1.390
13.272,-0.295,-1.805
13.275,0.045,-2.190
13.278,0.440,-2.470
13.281,0.905,-2.655
13.283,1.365,-2.740
13.286,1.730,-2.755
13.289,1.925,-2.735
13.292,1.925,-2.675
13.294,1.705,-2.635
13.297,1.340,-2.585
13.300,0.895,-2.525
13.303,0.400,-2.420
13.306,-0.030,-2.165
13.308,-0.410,-1.805
13.311,-0.735,-1.380
13.314,-1.015,-1.050
13.317,-1.205,-0.825
13.319,-1.290,-0.720
13.322,-1.285,-0.720
13.325,-1.195,-0.745
13.328,-1.070,-0.780
13.331,-0.955,-0.790
13.333,-0.890,-0.785
13.336,-0.880,-0.750
13.339,-0.915,-0.730
13.342,-0.950,-0.695
13.344,-1.010,-0.680
13.347,-1.040,-0.675
13.350,-1.045,-0.660
13.353,-1.040,-0.650
13.356,-1.020,-0.650
13.358,-1.020,-0.640
13.361,-1.030,-0.615
13.364,-1.050,-0.605
13.367,-1.075,-0.605
13.369,-1.090,-0.590
13.372,-1.105,-0.575
13.375,-1.105,-0.565
13.378,-1.105,-0.555
13.381,-1.105,-0.525
13.383,-1.105,-0.505
13.386,-1.105,-0.480
13.389,-1.125,-0.480
13.392,-1.135,-0.465
13.394,-1.135,-0.465
13.397,-1.140,-0.465
13.400,-1.145,-0.465
13.403,-1.160,-0.450
13.406,-1.165,-0.410
13.408,-1.155,-0.405
13.411,-1.150,-0.380
13.414,-1.155,-0.360
13.417,-1.135,-0.350
13.419,-1.115,-0.330
13.422,-1.100,-0.330
13.425,-1.085,-0.310
13.428,-1.065,-0.295
13.431,-1.055,-0.285
13.433,-1.035,-0.270
13.436,-1.015,-0.255
13.439,-0.985,-0.245
13.442,-0.960,-0.225
13.444,-0.950,-0.200
13.447,-0.905,-0.175
13.450,-0.870,-0.155
13.453,-0.840,-0.130
13.456,-0.785,-0.125
13.458,-0.725,-0.100
13.461,-0.685,-0.115
13.464,-0.630,-0.110
13.467,-0.595,-0.130
13.469,-0.565,-0.115
13.472,-0.530,-0.110
13.475,-0.490,-0.090
13.478,-0.435,-0.070
13.481,-0.380,-0.065
13.483,-0.325,-0.060
13.486,-0.270,-0.065
13.489,-0.240,-0.070
13.492,-0.195,-0.090
13.494,-0.150,-0.090
13.497,-0.125,-0.100
13.500,-0.085,-0.115
13.503,-0.040,-0.130
13.506,0.000,-0.145
13.508,0.030,-0.150
13.511,0.055,-0.155
13.514,0.085,-0.170
13.517,0.100,-0.175
13.519,0.115,-0.185
13.522,0.140,-0.200
13.525,0.150,-0.205
13.528,0.165,-0.220
13.531,0.165,-0.250
13.533,0.175,-0.260
13.536,0.165,-0.290
13.539,0.155,-0.300
13.542,0.140,-0.305
13.544,0.130,-0.320
13.547,0.135,-0.335
13.550,0.140,-0.345
13.553,0.135,-0.350
13.556,0.130,-0.375
13.558,0.105,-0.390
13.561,0.090,-0.405
13.564,0.065,-0.435
13.567,0.025,-0.445
13.569,0.005,-0.460
13.572,0.000,-0.455
13.575,-0.015,-0.455
13.578,-0.020,-0.440
13.581,-0.035,-0.435
13.583,-0.050,-0.430
13.586,-0.080,-0.425
13.589,-0.100,-0.430
13.592,-0.115,-0.425
13.594,-0.140,-0.420
13.597,-0.165,-0.415
13.600,-0.205,-0.415
13.603,-0.245,-0.405
13.606,-0.290,-0.395
13.608,-0.320,-0.390
13.611,-0.345,-0.375
13.614,-0.350,-0.345
13.617,-0.360,-0.320
13.619,-0.370,-0.310
13.622,-0.375,-0.295
13.625,-0.410,-0.295
13.628,-0.425,-0.290
13.631,-0.440,-0.280
13.633,-0.460,-0.260
13.636,-0.465,-0.225
13.639,-0.450,-0.185
13.642,-0.450,-0.155
13.644,-0.460,-0.115
13.647,-0.460,-0.115
13.650,-0.465,-0.115
13.653,-0.445,-0.150
13.656,-0.425,-0.170
13.658,-0.405,-0.215
13.661,-0.370,-0.245
13.664,-0.340,-0.265
13.667,-0.310,-0.295
13.669,-0.295,-0.340
13.672,-0.280,-0.375
13.675,-0.270,-0.410
13.678,-0.255,-0.425
13.681,-0.220,-0.445
13.683,-0.190,-0.450
13.686,-0.175,-0.440
13.689,-0.175,-0.440
13.692,-0.180,-0.435
13.694,-0.200,-0.455
13.697,-0.240,-0.485
13.700,-0.285,-0.510
13.703,-0.340,-0.540
13.706,-0.400,-0.530
13.708,-0.460,-0.535
13.711,-0.515,-0.540
13.714,-0.570,-0.545
13.717,-0.615,-0.540
13.719,-0.640,-0.540
13.722,-0.650,-0.560
13.725,-0.615,-0.560
13.728,-0.605,-0.560
13.731,-0.605,-0.580
13.733,-0.610,-0.590
13.736,-0.620,-0.585
13.739,-0.645,-0.590
13.742,-0.650,-0.600
13.744,-0.655,-0.610
13.747,-0.650,-0.595
13.750,-0.645,-0.595
13.753,-0.635,-0.590
13.756,-0.620,-0.595
13.758,-0.615,-0.590
13.761,-0.615,-0.590
13.764,-0.630,-0.605
13.767,-0.630,-0.610
13.769,-0.650,-0.625
13.772,-0.645,-0.615
13.775,-0.625,-0.600
13.778,-0.615,-0.560
13.781,-0.625,-0.520
13.783,-0.620,-0.445
13.786,-0.635,-0.415
13.789,-0.650,-0.420
13.792,-0.650,-0.510
13.794,-0.630,-0.690
13.797,-0.570,-1.000
13.800,-0.420,-1.390
13.803,-0.215,-1.805
13.806,0.065,-2.185
13.808,0.400,-2.490
13.811,0.805,-2.685
13.814,1.215,-2.825
13.817,1.590,-2.870
13.819,1.860,-2.870
13.822,1.935,-2.860
13.825,1.800,-2.820
13.828,1.490,-2.790
13.831,1.090,-2.755
13.833,0.650,-2.715
13.836,0.215,-2.660
13.839,-0.140,-2.495
13.842,-0.435,-2.185
13.844,-0.655,-1.785
13.847,-0.855,-1.380
13.850,-1.020,-1.055
13.853,-1.160,-0.855
13.856,-1.220,-0.780
13.858,-1.195,-0.770
13.861,-1.100,-0.790
13.864,-0.990,-0.825
13.867,-0.895,-0.830
13.869,-0.825,-0.825
13.872,-0.810,-0.795
13.875,-0.820,-0.755
13.878,-0.865,-0.745
13.881,-0.895,-0.715
13.883,-0.905,-0.695
13.886,-0.890,-0.680
13.889,-0.885,-0.680
13.892,-0.885,-0.670
13.894,-0.875,-0.665
13.897,-0.890,-0.675
13.900,-0.905,-0.665
13.903,-0.925,-0.660
13.906,-0.930,-0.645
13.908,-0.935,-0.635
13.911,-0.940,-0.615
13.914,-0.935,-0.600
13.917,-0.925,-0.580
13.919,-0.940,-0.555
13.922,-0.945,-0.550
13.925,-0.950,-0.530
13.928,-0.965,-0.515
13.931,-0.955,-0.520
13.933,-0.960,-0.525
13.936,-0.945,-0.530
13.939,-0.950,-0.520
13.942,-0.955,-0.510
13.944,-0.960,-0.485
13.947,-0.965,-0.445
13.950,-0.970,-0.425
13.953,-0.945,-0.405
13.956,-0.920,-0.385
13.958,-0.880,-0.365
13.961,-0.865,-0.365
13.964,-0.850,-0.340
13.967,-0.835,-0.335
13.969,-0.825,-0.325
13.972,-0.815,-0.295
13.975,-0.780,-0.275
13.978,-0.750,-0.250
13.981,-0.705,-0.230
13.983,-0.680,-0.210
13.986,-0.670,-0.195
13.989,-0.645,-0.175
13.992,-0.630,-0.175
13.994,-0.605,-0.165
13.997,-0.565,-0.140
14.000,-0.510,-0.140
14.003,-0.475,-0.110
14.006,-0.440,-0.100
14.008,-0.395,-0.085
14.011,-0.365,-0.070
14.014,-0.325,-0.070
14.017,-0.275,-0.075
14.019,-0.230,-0.060
14.022,-0.175,-0.065
14.025,-0.135,-0.055
14.028,-0.100,-0.050
14.031,-0.070,-0.050
14.033,-0.060,-0.075
14.036,-0.040,-0.080
14.039,-0.015,-0.090
14.042,0.030,-0.095
14.044,0.065,-0.095
14.047,0.115,-0.105
14.050,0.160,-0.100
14.053,0.175,-0.120
14.056,0.200,-0.145
14.058,0.200,-0.170
14.061,0.195,-0.205
14.064,0.190,-0.225
14.067,0.200,-0.250
14.069,0.205,-0.255
14.072,0.195,-0.250
14.075,0.175,-0.265
14.078,0.170,-0.265
14.081,0.160,-0.280
14.083,0.160,-0.290
14.086,0.165,-0.320
14.089,0.160,-0.335
14.092,0.155,-0.345
14.094,0.140,-0.370
14.097,0.095,-0.385
14.100,0.070,-0.410
14.103,0.035,-0.425
14.106,-0.005,-0.455
14.108,-0.020,-0.455
14.111,-0.045,-0.455
14.114,-0.065,-0.435
14.117,-0.090,-0.445
14.119,-0.120,-0.440
14.122,-0.120,-0.425
14.125,-0.150,-0.430
14.128,-0.175,-0.445
14.131,-0.195,-0.450
14.133,-0.220,-0.450
14.136,-0.240,-0.445
14.139,-0.255,-0.430
14.142,-0.290,-0.405
14.144,-0.325,-0.385
14.147,-0.360,-0.380
14.150,-0.395,-0.390
14.153,-0.410,-0.385
14.156,-0.430,-0.385
14.158,-0.470,-0.375
14.161,-0.495,-0.360
14.164,-0.525,-0.350
14.167,-0.545,-0.345
14.169,-0.570,-0.335
14.172,-0.580,-0.325
14.175,-0.595,-0.305
14.178,-0.585,-0.290
14.181,-0.585,-0.270
14.183,-0.585,-0.215
14.186,-0.580,-0.205
14.189,-0.580,-0.190
14.192,-0.585,-0.155
14.194,-0.590,-0.145
14.197,-0.595,-0.120
14.200,-0.595,-0.115
14.203,-0.595,-0.130
14.206,-0.580,-0.130
14.208,-0.560,-0.155
14.211,-0.515,-0.175
14.214,-0.460,-0.190
14.217,-0.420,-0.220
14.219,-0.365,-0.240
14.222,-0.345,-0.290
14.225,-0.320,-0.320
14.228,-0.310,-0.365
14.231,-0.325,-0.390
14.233,-0.305,-0.405
14.236,-0.280,-0.425
14.239,-0.260,-0.430
14.242,-0.250,-0.425
14.244,-0.255,-0.435
14.247,-0.275,-0.440
14.250,-0.335,-0.445
14.253,-0.375,-0.445
14.256,-0.455,-0.470
14.258,-0.525,-0.480
14.261,-0.575,-0.510
14.264,-0.605,-0.535
14.267,-0.640,-0.550
14.269,-0.660,-0.555
14.272,-0.665,-0.555
14.275,-0.680,-0.555
14.278,-0.675,-0.535
14.281,-0.655,-0.545
14.283,-0.645,-0.540
14.286,-0.645,-0.540
14.289,-0.650,-0.550
14.292,-0.660,-0.560
14.294,-0.680,-0.565
14.297,-0.695,-0.565
14.300,-0.710,-0.575
14.303,-0.700,-0.575
14.306,-0.670,-0.570
14.308,-0.660,-0.580
14.311,-0.650,-0.565
14.314,-0.645,-0.570
14.317,-0.645,-0.540
14.319,-0.650,-0.540
14.322,-0.660,-0.515
14.325,-0.660,-0.475
14.328,-0.655,-0.440
14.331,-0.655,-0.405
14.333,-0.670,-0.375
14.336,-0.685,-0.395
14.339,-0.715,-0.495
14.342,-0.710,-0.710
14.344,-0.610,-1.030
14.347,-0.445,-1.445
14.350,-0.195,-1.840
14.353,0.130,-2.170
14.356,0.540,-2.420
14.358,0.980,-2.545
14.361,1.410,-2.590
14.364,1.775,-2.570
14.367,1.985,-2.530
14.369,1.970,-2.480
14.372,1.720,-2.415
14.375,1.340,-2.350
14.378,0.880,-2.270
14.381,0.420,-2.155
14.383,-0.030,-1.950
14.386,-0.430,-1.685
14.389,-0.785,-1.395
14.392,-1.085,-1.155
14.394,-1.315,-0.970
14.397,-1.445,-0.885
14.400,-1.475,-0.830
14.403,-1.405,-0.810
14.406,-1.300,-0.770
14.408,-1.165,-0.730
14.411,-1.050,-0.685
14.414,-0.970,-0.660
14.417,-0.925,-0.620
14.419,-0.935,-0.595
14.422,-0.965,-0.605
14.425,-0.990,-0.610
14.428,-1.020,-0.605
14.431,-1.035,-0.620
14.433,-1.045,-0.620
14.436,-1.040,-0.620
14.439,-1.050,-0.605
14.442,-1.030,-0.590
14.444,-1.035,-0.570
14.447,-1.040,-0.560
14.450,-1.055,-0.545
14.453,-1.050,-0.530
14.456,-1.060,-0.535
14.458,-1.065,-0.510
14.461,-1.055,-0.495
14.464,-1.045,-0.510
14.467,-1.055,-0.485
14.469,-1.070,-0.490
14.472,-1.080,-0.490
14.475,-1.095,-0.475
14.478,-1.100,-0.450
14.481,-1.090,-0.435
14.483,-1.060,-0.410
14.486,-1.040,-0.385
14.489,-1.020,-0.395
14.492,-1.010,-0.375
14.494,-1.005,-0.375
14.497,-1.010,-0.380
14.500,-1.010,-0.365
14.503,-1.000,-0.355
14.506,-0.985,-0.330
14.508,-0.940,-0.315
14.511,-0.915,-0.285
14.514,-0.890,-0.270
14.517,-0.875,-0.265
14.519,-0.865,-0.250
14.522,-0.845,-0.250
14.525,-0.830,-0.240
14.528,-0.805,-0.225
14.531,-0.765,-0.215
14.533,-0.745,-0.200
14.536,-0.710,-0.180
14.539,-0.705,-0.160
14.542,-0.680,-0.155
14.544,-0.645,-0.160
14.547,-0.615,-0.165
14.550,-0.580,-0.145
14.553,-0.540,-0.140
14.556,-0.505,-0.130
14.558,-0.465,-0.115
14.561,-0.430,-0.130
14.564,-0.405,-0.140
14.567,-0.390,-0.145
14.569,-0.365,-0.160
14.572,-0.330,-0.155
14.575,-0.290,-0.160
14.578,-0.245,-0.170
14.581,-0.200,-0.170
14.583,-0.170,-0.160
14.586,-0.140,-0.185
14.589,-0.105,-0.205
14.592,-0.080,-0.220
14.594,-0.055,-0.260
14.597,-0.030,-0.305
14.600,0.000,-0.315
14.603,0.020,-0.310
14.606,0.035,-0.330
14.608,0.025,-0.325
14.611,0.025,-0.340
14.614,0.045,-0.360
14.617,0.060,-0.355
14.619,0.065,-0.370
14.622,0.085,-0.390
14.625,0.095,-0.400
14.628,0.080,-0.430
14.631,0.065,-0.440
14.633,0.040,-0.450
14.636,0.015,-0.460
14.639,0.010,-0.455
14.642,-0.025,-0.465
14.644,-0.035,-0.465
14.647,-0.050,-0.460
14.650,-0.050,-0.450
14.653,-0.075,-0.445
14.656,-0.100,-0.455
14.658,-0.135,-0.445
14.661,-0.160,-0.460
14.664,-0.190,-0.465
14.667,-0.215,-0.480
14.669,-0.220,-0.490
14.672,-0.255,-0.470
14.675,-0.275,-0.455
14.678,-0.305,-0.440
14.681,-0.325,-0.405
14.683,-0.360,-0.410
14.686,-0.360,-0.395
14.689,-0.380,-0.390
14.692,-0.395,-0.375
14.694,-0.415,-0.375
14.697,-0.440,-0.365
14.700,-0.485,-0.355
14.703,-0.525,-0.350
14.706,-0.560,-0.340
14.708,-0.570,-0.345
14.711,-0.585,-0.345
14.714,-0.565,-0.320
14.717,-0.575,-0.325
14.719,-0.570,-0.300
14.722,-0.570,-0.280
14.725,-0.585,-0.255
14.728,-0.585,-0.240
14.731,-0.600,-0.235
14.733,-0.610,-0.225
14.736,-0.605,-0.210
14.739,-0.605,-0.170
14.742,-0.620,-0.145
14.744,-0.620,-0.105
14.747,-0.610,-0.070
14.750,-0.605,-0.070
14.753,-0.575,-0.080
14.756,-0.540,-0.090
14.758,-0.495,-0.130
14.761,-0.465,-0.160
14.764,-0.440,-0.185
14.767,-0.415,-0.205
14.769,-0.395,-0.240
14.772,-0.380,-0.270
14.775,-0.350,-0.300
14.778,-0.325,-0.335
14.781,-0.285,-0.365
14.783,-0.270,-0.380
14.786,-0.255,-0.390
14.789,-0.250,-0.410
14.792,-0.260,-0.405
14.794,-0.285,-0.415
14.797,-0.315,-0.430
14.800,-0.335,-0.440
14.803,-0.375,-0.445
14.806,-0.415,-0.455
14.808,-0.465,-0.470
14.811,-0.535,-0.475
14.814,-0.590,-0.500
14.817,-0.625,-0.510
14.819,-0.670,-0.505
14.822,-0.675,-0.525
14.825,-0.695,-0.525
14.828,-0.695,-0.545
14.831,-0.685,-0.540
14.833,-0.695,-0.555
14.836,-0.705,-0.565
14.839,-0.710,-0.555
14.842,-0.725,-0.555
14.844,-0.715,-0.550
14.847,-0.720,-0.550
14.850,-0.700,-0.545
14.853,-0.680,-0.545
14.856,-0.685,-0.535
14.858,-0.680,-0.545
14.861,-0.685,-0.560
14.864,-0.700,-0.580
14.867,-0.725,-0.585
14.869,-0.730,-0.585
14.872,-0.735,-0.575
14.875,-0.725,-0.560
14.878,-0.715,-0.540
14.881,-0.700,-0.515
14.883,-0.710,-0.475
14.886,-0.710,-0.415
14.889,-0.740,-0.355
14.892,-0.760,-0.325
14.894,-0.775,-0.355
14.897,-0.795,-0.445
14.900,-0.765,-0.600
14.903,-0.685,-0.860
14.906,-0.555,-1.205
14.908,-0.360,-1.595
14.911,-0.105,-1.975
14.914,0.210,-2.265
14.917,0.575,-2.455
14.919,0.970,-2.570
14.922,1.370,-2.620
14.925,1.695,-2.605
14.928,1.865,-2.580
14.931,1.820,-2.540
14.933,1.565,-2.495
14.936,1.185,-2.460
14.939,0.715,-2.370
14.942,0.240,-2.280
14.944,-0.185,-2.040
14.947,-0.550,-1.725
14.950,-0.850,-1.405
14.953,-1.100,-1.140
14.956,-1.315,-0.995
14.958,-1.465,-0.905
14.961,-1.515,-0.855
14.964,-1.465,-0.835
14.967,-1.350,-0.815
14.969,-1.205,-0.770
14.972,-1.080,-0.745
14.975,-0.990,-0.705
14.978,-0.955,-0.680
14.981,-0.960,-0.670
14.983,-1.000,-0.665
14.986,-1.025,-0.660
14.989,-1.045,-0.655
14.992,-1.050,-0.650
14.994,-1.050,-0.640
14.997,-1.060,-0.645
15.000,-1.065,-0.625
15.003,-1.090,-0.625
15.006,-1.105,-0.630
15.008,-1.110,-0.610
15.011,-1.120,-0.590
15.014,-1.110,-0.565
15.017,-1.100,-0.550
15.019,-1.100,-0.525
15.022,-1.105,-0.520
15.025,-1.110,-0.510
15.028,-1.125,-0.525
15.031,-1.140,-0.525
15.033,-1.155,-0.515
15.036,-1.155,-0.515
15.039,-1.145,-0.500
15.042,-1.140,-0.485
15.044,-1.145,-0.455
15.047,-1.145,-0.425
15.050,-1.140,-0.425
15.053,-1.130,-0.405
15.056,-1.125,-0.410
15.058,-1.105,-0.390
15.061,-1.095,-0.395
15.064,-1.085,-0.380
15.067,-1.065,-0.360
15.069,-1.065,-0.350
15.072,-1.065,-0.330
15.075,-1.040,-0.325
15.078,-1.025,-0.315
15.081,-1.000,-0.300
15.083,-0.970,-0.280
15.086,-0.950,-0.260
15.089,-0.920,-0.240
15.092,-0.885,-0.240
15.094,-0.870,-0.230
15.097,-0.860,-0.230
15.100,-0.830,-0.235
15.103,-0.785,-0.235
15.106,-0.750,-0.230
15.108,-0.705,-0.205
15.111,-0.660,-0.185
15.114,-0.615,-0.170
15.117,-0.585,-0.160
15.119,-0.550,-0.150
15.122,-0.505,-0.155
15.125,-0.460,-0.160
15.128,-0.425,-0.180
15.131,-0.380,-0.180
15.133,-0.350,-0.185
15.136,-0.325,-0.185
15.139,-0.315,-0.205
15.142,-0.270,-0.205
15.144,-0.235,-0.210
15.147,-0.185,-0.205
15.150,-0.125,-0.220
15.153,-0.070,-0.230
15.156,-0.030,-0.245
15.158,0.000,-0.255
15.161,0.015,-0.265
15.164,0.025,-0.295
15.167,0.040,-0.320
15.169,0.065,-0.335
15.172,0.085,-0.370
15.175,0.090,-0.380
15.178,0.120,-0.385
15.181,0.125,-0.400
15.183,0.130,-0.405
15.186,0.120,-0.410
15.189,0.110,-0.425
15.192,0.110,-0.425
15.194,0.095,-0.455
15.197,0.075,-0.470
15.200,0.070,-0.485
15.203,0.055,-0.495
15.206,0.035,-0.500
15.208,0.025,-0.495
15.211,0.005,-0.485
15.214,-0.015,-0.490
15.217,-0.015,-0.490
15.219,-0.040,-0.500
15.222,-0.055,-0.505
15.225,-0.100,-0.490
15.228,-0.140,-0.490
15.231,-0.165,-0.485
15.233,-0.200,-0.480
15.236,-0.225,-0.475
15.239,-0.230,-0.470
15.242,-0.250,-0.465
15.244,-0.270,-0.450
15.247,-0.290,-0.445
15.250,-0.325,-0.425
15.253,-0.350,-0.405
15.256,-0.375,-0.395
15.258,-0.390,-0.380
15.261,-0.415,-0.380
15.264,-0.435,-0.370
15.267,-0.460,-0.375
15.269,-0.475,-0.350
15.272,-0.510,-0.325
15.275,-0.550,-0.300
15.278,-0.545,-0.270
15.281,-0.525,-0.240
15.283,-0.515,-0.205
15.286,-0.510,-0.175
15.289,-0.495,-0.150
15.292,-0.515,-0.125
15.294,-0.530,-0.110
15.297,-0.550,-0.100
15.300,-0.550,-0.105
15.303,-0.535,-0.125
15.306,-0.505,-0.135
15.308,-0.480,-0.160
15.311,-0.440,-0.175
15.314,-0.415,-0.200
15.317,-0.375,-0.220
15.319,-0.355,-0.235
15.322,-0.325,-0.270
15.325,-0.310,-0.320
15.328,-0.285,-0.350
15.331,-0.255,-0.385
15.333,-0.235,-0.410
15.336,-0.230,-0.425
15.339,-0.235,-0.445
15.342,-0.245,-0.440
15.344,-0.255,-0.435
15.347,-0.270,-0.445
15.350,-0.295,-0.445
15.353,-0.325,-0.445
15.356,-0.385,-0.450
15.358,-0.445,-0.460
15.361,-0.510,-0.485
15.364,-0.570,-0.505
15.367,-0.610,-0.525
15.369,-0.645,-0.540
15.372,-0.655,-0.545
15.375,-0.645,-0.540
15.378,-0.655,-0.530
15.381,-0.655,-0.530
15.383,-0.645,-0.540
15.386,-0.640,-0.535
15.389,-0.645,-0.550
15.392,-0.655,-0.540
15.394,-0.645,-0.550
15.397,-0.645,-0.555
15.400,-0.645,-0.545
15.403,-0.645,-0.555
15.406,-0.665,-0.570
15.408,-0.675,-0.565
15.411,-0.675,-0.590
15.414,-0.670,-0.585
15.417,-0.655,-0.575
15.419,-0.635,-0.560
15.422,-0.600,-0.555
15.425,-0.595,-0.530
15.428,-0.600,-0.535
15.431,-0.625,-0.505
15.433,-0.650,-0.465
15.436,-0.670,-0.435
15.439,-0.690,-0.405
15.442,-0.715,-0.405
15.444,-0.705,-0.485
15.447,-0.650,-0.670
15.450,-0.560,-0.960
15.453,-0.390,-1.345
15.456,-0.155,-1.770
15.458,0.160,-2.150
15.461,0.535,-2.435
15.464,0.955,-2.625
15.467,1.365,-2.730
15.469,1.720,-2.750
15.472,1.935,-2.740
15.475,1.960,-2.725
15.478,1.795,-2.685
15.481,1.510,-2.650
15.483,1.160,-2.600
15.486,0.780,-2.545
15.489,0.400,-2.430
15.492,0.025,-2.205
15.494,-0.345,-1.845
15.497,-0.685,-1.475
15.500,-0.990,-1.155
15.503,-1.220,-0.930
15.506,-1.335,-0.810
15.508,-1.325,-0.765
15.511,-1.215,-0.765
15.514,-1.070,-0.770
15.517,-0.940,-0.760
15.519,-0.845,-0.730
15.522,-0.815,-0.710
15.525,-0.840,-0.695
15.528,-0.880,-0.680
15.531,-0.920,-0.680
15.533,-0.945,-0.690
15.536,-0.965,-0.685
15.539,-0.970,-0.675
15.542,-0.975,-0.655
15.544,-0.975,-0.630
15.547,-0.970,-0.610
15.550,-0.975,-0.600
15.553,-0.975,-0.590
15.556,-0.980,-0.605
15.558,-0.980,-0.585
15.561,-0.985,-0.580
15.564,-1.000,-0.585
15.567,-1.015,-0.570
15.569,-1.040,-0.555
15.572,-1.050,-0.565
15.575,-1.070,-0.555
15.578,-1.065,-0.540
15.581,-1.060,-0.540
15.583,-1.055,-0.525
15.586,-1.045,-0.505
15.589,-1.055,-0.490
15.592,-1.060,-0.470
15.594,-1.055,-0.470
15.597,-1.070,-0.445
15.600,-1.080,-0.455
15.603,-1.070,-0.445
15.606,-1.055,-0.415
15.608,-1.050,-0.400
15.611,-1.045,-0.380
15.614,-1.025,-0.375
15.617,-1.010,-0.360
15.619,-1.000,-0.340
15.622,-0.970,-0.335
15.625,-0.955,-0.320
15.628,-0.925,-0.305
15.631,-0.930,-0.300
15.633,-0.900,-0.295
15.636,-0.880,-0.280
15.639,-0.865,-0.255
15.642,-0.830,-0.235
15.644,-0.780,-0.215
15.647,-0.740,-0.195
15.650,-0.675,-0.175
15.653,-0.620,-0.165
15.656,-0.585,-0.160
15.658,-0.550,-0.145
15.661,-0.510,-0.125
15.664,-0.465,-0.125
15.667,-0.420,-0.125
15.669,-0.385,-0.125
15.672,-0.350,-0.130
15.675,-0.320,-0.130
15.678,-0.280,-0.120
15.681,-0.245,-0.115
15.683,-0.195,-0.110
15.686,-0.155,-0.110
15.689,-0.105,-0.120
15.692,-0.040,-0.110
15.694,0.000,-0.145
15.697,0.035,-0.155
15.700,0.055,-0.180
15.703,0.085,-0.200
15.706,0.105,-0.210
15.708,0.130,-0.215
15.711,0.165,-0.225
15.714,0.195,-0.245
15.717,0.230,-0.265
15.719,0.250,-0.275
15.722,0.280,-0.290
15.725,0.275,-0.300
15.728,0.250,-0.330
15.731,0.255,-0.350
15.733,0.240,-0.360
15.736,0.225,-0.410
15.739,0.230,-0.425
15.742,0.220,-0.435
15.744,0.210,-0.445
15.747,0.195,-0.455
15.750,0.170,-0.465
15.753,0.160,-0.470
15.756,0.130,-0.480
15.758,0.130,-0.485
15.761,0.120,-0.500
15.764,0.095,-0.505
15.767,0.050,-0.515
15.769,0.030,-0.535
15.772,0.015,-0.545
15.775,-0.010,-0.545
15.778,-0.020,-0.530
15.781,-0.030,-0.515
15.783,-0.045,-0.490
15.786,-0.045,-0.475
15.789,-0.060,-0.465
15.792,-0.100,-0.450
15.794,-0.130,-0.455
15.797,-0.175,-0.455
15.800,-0.205,-0.465
15.803,-0.235,-0.455
15.806,-0.265,-0.430
15.808,-0.275,-0.415
15.811,-0.295,-0.395
15.814,-0.315,-0.400
15.817,-0.320,-0.385
15.819,-0.345,-0.370
15.822,-0.365,-0.370
15.825,-0.405,-0.350
15.828,-0.410,-0.335
15.831,-0.410,-0.305
15.833,-0.420,-0.290
15.836,-0.440,-0.270
15.839,-0.455,-0.255
15.842,-0.470,-0.225
15.844,-0.470,-0.195
15.847,-0.475,-0.150
15.850,-0.475,-0.125
15.853,-0.460,-0.095
15.856,-0.450,-0.115
15.858,-0.430,-0.125
15.861,-0.405,-0.140
15.864,-0.380,-0.175
15.867,-0.360,-0.205
15.869,-0.335,-0.230
15.872,-0.320,-0.245
15.875,-0.290,-0.275
15.878,-0.260,-0.295
15.881,-0.235,-0.330
15.883,-0.210,-0.345
15.886,-0.185,-0.370
15.889,-0.185,-0.410
15.892,-0.155,-0.430
15.894,-0.150,-0.440
15.897,-0.150,-0.445
15.900,-0.155,-0.450
15.903,-0.170,-0.465
15.906,-0.200,-0.465
15.908,-0.250,-0.465
15.911,-0.315,-0.475
15.914,-0.375,-0.495
15.917,-0.430,-0.505
15.919,-0.490,-0.515
15.922,-0.525,-0.520
15.925,-0.530,-0.525
15.928,-0.535,-0.530
15.931,-0.560,-0.535
15.933,-0.575,-0.540
15.936,-0.590,-0.550
15.939,-0.595,-0.555
15.942,-0.600,-0.555
15.944,-0.590,-0.560
15.947,-0.595,-0.560
15.950,-0.575,-0.555
15.953,-0.570,-0.530
15.956,-0.575,-0.540
15.958,-0.590,-0.525
15.961,-0.610,-0.535
15.964,-0.615,-0.550
15.967,-0.605,-0.560
15.969,-0.615,-0.590
15.972,-0.600,-0.590
15.975,-0.605,-0.580
15.978,-0.595,-0.565
15.981,-0.605,-0.540
15.983,-0.600,-0.510
15.986,-0.595,-0.470
15.989,-0.600,-0.440
15.992,-0.590,-0.395
15.994,-0.620,-0.325
15.997,-0.635,-0.320
16.000,-0.655,-0.360
16.003,-0.655,-0.475
16.006,-0.620,-0.705
16.008,-0.520,-1.045
16.011,-0.335,-1.455
16.014,-0.080,-1.880
16.017,0.230,-2.220
16.019,0.570,-2.485
16.022,0.975,-2.640
16.025,1.370,-2.695
16.028,1.690,-2.690
16.031,1.845,-2.680
16.033,1.770,-2.635
16.036,1.485,-2.590
16.039,1.055,-2.540
16.042,0.550,-2.470
16.044,0.055,-2.360
16.047,-0.385,-2.125
16.050,-0.745,-1.795
16.053,-1.000,-1.425
16.056,-1.195,-1.120
16.058,-1.320,-0.900
16.061,-1.370,-0.795
16.064,-1.325,-0.770
16.067,-1.245,-0.755
16.069,-1.130,-0.750
16.072,-1.025,-0.750
16.075,-0.965,-0.720
16.078,-0.920,-0.680
16.081,-0.910,-0.670
16.083,-0.910,-0.645
16.086,-0.930,-0.635
16.089,-0.955,-0.615
16.092,-0.970,-0.615
16.094,-0.980,-0.615
16.097,-0.990,-0.610
16.100,-0.990,-0.610
16.103,-0.995,-0.615
16.106,-1.005,-0.595
16.108,-1.020,-0.585
16.111,-1.025,-0.560
16.114,-1.035,-0.530
16.117,-1.040,-0.510
16.119,-1.045,-0.500
16.122,-1.045,-0.490
16.125,-1.040,-0.490
16.128,-1.035,-0.490
16.131,-1.035,-0.485
16.133,-1.045,-0.490
16.136,-1.045,-0.465
16.139,-1.055,-0.455
16.142,-1.045,-0.435
16.144,-1.035,-0.400
16.147,-1.035,-0.385
16.150,-1.015,-0.355
16.153,-0.995,-0.330
16.156,-0.980,-0.310
16.158,-0.965,-0.305
16.161,-0.945,-0.300
16.164,-0.930,-0.285
16.167,-0.915,-0.275
16.169,-0.900,-0.270
16.172,-0.875,-0.255
16.175,-0.860,-0.230
16.178,-0.845,-0.210
16.181,-0.830,-0.195
16.183,-0.810,-0.175
16.186,-0.765,-0.155
16.189,-0.730,-0.150
16.192,-0.680,-0.140
16.194,-0.650,-0.120
16.197,-0.620,-0.115
16.200,-0.590,-0.120
16.203,-0.580,-0.125
16.206,-0.545,-0.120
16.208,-0.500,-0.110
16.211,-0.450,-0.090
16.214,-0.400,-0.090
16.217,-0.355,-0.090
16.219,-0.325,-0.080
16.222,-0.300,-0.085
16.225,-0.270,-0.090
16.228,-0.245,-0.095
16.231,-0.210,-0.090
16.233,-0.170,-0.110
16.236,-0.125,-0.125
16.239,-0.100,-0.145
16.242,-0.060,-0.185
16.244,-0.025,-0.195
16.247,0.005,-0.210
16.250,0.045,-0.220
16.253,0.055,-0.235
16.256,0.090,-0.240
16.258,0.120,-0.260
16.261,0.130,-0.270
16.264,0.120,-0.305
16.267,0.115,-0.320
16.269,0.115,-0.340
16.272,0.095,-0.360
16.275,0.100,-0.365
16.278,0.095,-0.390
16.281,0.095,-0.385
16.283,0.080,-0.405
16.286,0.060,-0.410
16.289,0.040,-0.410
16.292,0.020,-0.430
16.294,-0.005,-0.440
16.297,-0.025,-0.455
16.300,-0.050,-0.455
16.303,-0.070,-0.465
16.306,-0.110,-0.470
16.308,-0.155,-0.475
16.311,-0.180,-0.465
16.314,-0.200,-0.450
16.317,-0.210,-0.430
16.319,-0.220,-0.420
16.322,-0.235,-0.410
16.325,-0.250,-0.400
16.328,-0.280,-0.405
16.331,-0.315,-0.395
16.333,-0.350,-0.405
16.336,-0.385,-0.400
16.339,-0.425,-0.385
16.342,-0.440,-0.350
16.344,-0.470,-0.345
16.347,-0.485,-0.335
16.350,-0.515,-0.315
16.353,-0.530,-0.295
16.356,-0.555,-0.290
16.358,-0.565,-0.290
16.361,-0.570,-0.275
16.364,-0.580,-0.270
16.367,-0.605,-0.270
16.369,-0.625,-0.265
16.372,-0.640,-0.270
16.375,-0.650,-0.260
16.378,-0.630,-0.235
16.381,-0.615,-0.200
16.383,-0.590,-0.170
16.386,-0.575,-0.140
16.389,-0.570,-0.110
16.392,-0.605,-0.065
16.394,-0.615,-0.045
16.397,-0.615,-0.050
16.400,-0.600,-0.075
16.403,-0.575,-0.105
16.406,-0.540,-0.115
16.408,-0.500,-0.130
16.411,-0.465,-0.150
16.414,-0.425,-0.160
16.417,-0.390,-0.190
16.419,-0.355,-0.230
16.422,-0.315,-0.285
16.425,-0.290,-0.305
16.428,-0.275,-0.340
16.431,-0.260,-0.355
16.433,-0.260,-0.370
16.436,-0.280,-0.390
16.439,-0.300,-0.395
16.442,-0.335,-0.405
16.444,-0.365,-0.400
16.447,-0.425,-0.410
16.450,-0.475,-0.415
16.453,-0.525,-0.420
16.456,-0.575,-0.430
16.458,-0.615,-0.455
