'Elapsed time','MLII','V1'
'seconds','mV','mV'
0.000,-0.095,0.025
0.003,-0.095,0.025
0.006,-0.095,0.025
0.008,-0.095,0.025
0.011,-0.095,0.025
0.014,-0.095,0.025
0.017,-0.095,0.025
0.019,-0.095,0.025
0.022,-0.110,0.025
0.025,-0.140,0.010
0.028,-0.140,0.025
0.031,-0.135,0.055
0.033,-0.115,0.045
0.036,-0.110,0.040
0.039,-0.135,0.025
0.042,-0.150,0.020
0.044,-0.180,0.015
0.047,-0.175,0.025
0.050,-0.160,0.040
0.053,-0.150,0.045
0.056,-0.160,0.030
0.058,-0.170,0.000
0.061,-0.185,0.020
0.064,-0.180,0.015
0.067,-0.175,0.030
0.069,-0.155,0.020
0.072,-0.170,0.010
0.075,-0.195,-0.015
0.078,-0.210,-0.015
0.081,-0.175,0.000
0.083,-0.145,0.010
0.086,-0.135,-0.010
0.089,-0.125,-0.010
0.092,-0.145,-0.015
0.094,-0.165,-0.020
0.097,-0.155,-0.005
0.100,-0.135,0.015
0.103,-0.120,0.000
0.106,-0.110,-0.005
0.108,-0.110,0.010
0.111,-0.125,0.060
0.114,-0.120,0.105
0.117,-0.120,0.115
0.119,-0.100,0.055
0.122,-0.030,-0.015
0.125,0.075,-0.140
0.128,0.200,-0.240
0.131,0.315,-0.325
0.133,0.405,-0.420
0.136,0.480,-0.555
0.139,0.570,-0.715
0.142,0.660,-0.860
0.144,0.815,-0.975
0.147,1.005,-1.055
0.150,1.240,-1.100
0.153,1.465,-1.150
0.156,1.700,-1.195
0.158,1.910,-1.230
0.161,2.055,-1.225
0.164,2.100,-1.210
0.167,2.045,-1.205
0.169,1.850,-1.235
0.172,1.470,-1.245
0.175,1.045,-1.235
0.178,0.745,-1.160
0.181,0.595,-1.085
0.183,0.500,-1.005
0.186,0.465,-0.925
0.189,0.435,-0.825
0.192,0.415,-0.720
0.194,0.395,-0.615
0.197,0.375,-0.515
0.200,0.350,-0.440
0.203,0.300,-0.385
0.206,0.245,-0.335
0.208,0.180,-0.285
0.211,0.135,-0.225
0.214,0.115,-0.165
0.217,0.115,-0.115
0.219,0.075,-0.060
0.222,0.025,-0.040
0.225,-0.020,-0.010
0.228,-0.070,0.055
0.231,-0.100,0.120
0.233,-0.130,0.165
0.236,-0.155,0.195
0.239,-0.200,0.215
0.242,-0.245,0.215
0.244,-0.275,0.240
0.247,-0.290,0.285
0.250,-0.285,0.290
0.253,-0.275,0.290
0.256,-0.290,0.295
0.258,-0.305,0.290
0.261,-0.325,0.315
0.264,-0.325,0.335
0.267,-0.320,0.350
0.269,-0.330,0.365
0.272,-0.340,0.355
0.275,-0.350,0.345
0.278,-0.350,0.375
0.281,-0.345,0.395
0.283,-0.340,0.435
0.286,-0.340,0.430
0.289,-0.350,0.440
0.292,-0.360,0.430
0.294,-0.365,0.435
0.297,-0.375,0.475
0.300,-0.375,0.505
0.303,-0.360,0.510
0.306,-0.365,0.515
0.308,-0.395,0.530
0.311,-0.390,0.560
0.314,-0.395,0.585
0.317,-0.385,0.605
0.319,-0.405,0.615
0.322,-0.420,0.635
0.325,-0.425,0.645
0.328,-0.440,0.670
0.331,-0.440,0.715
0.333,-0.440,0.745
0.336,-0.450,0.745
0.339,-0.465,0.725
0.342,-0.460,0.725
0.344,-0.490,0.765
0.347,-0.475,0.795
0.350,-0.465,0.825
0.353,-0.480,0.835
0.356,-0.510,0.835
0.358,-0.530,0.850
0.361,-0.555,0.845
0.364,-0.560,0.875
0.367,-0.525,0.905
0.369,-0.535,0.885
0.372,-0.560,0.875
0.375,-0.590,0.860
0.378,-0.620,0.875
0.381,-0.585,0.880
0.383,-0.570,0.875
0.386,-0.560,0.850
0.389,-0.575,0.830
0.392,-0.585,0.780
0.394,-0.595,0.765
0.397,-0.565,0.755
0.400,-0.540,0.745
0.403,-0.525,0.695
0.406,-0.510,0.660
0.408,-0.525,0.600
0.411,-0.515,0.585
0.414,-0.470,0.575
0.417,-0.445,0.545
0.419,-0.410,0.515
0.422,-0.400,0.455
0.425,-0.390,0.400
0.428,-0.370,0.355
0.431,-0.345,0.340
0.433,-0.300,0.320
0.436,-0.290,0.285
0.439,-0.250,0.245
0.442,-0.235,0.205
0.444,-0.230,0.175
0.447,-0.220,0.185
0.450,-0.190,0.165
0.453,-0.165,0.150
0.456,-0.160,0.120
0.458,-0.160,0.115
0.461,-0.165,0.105
0.464,-0.150,0.115
0.467,-0.150,0.110
0.469,-0.150,0.070
0.472,-0.155,0.065
0.475,-0.165,0.045
0.478,-0.160,0.045
0.481,-0.155,0.070
0.483,-0.150,0.080
0.486,-0.155,0.055
0.489,-0.155,0.040
0.492,-0.165,0.030
0.494,-0.160,0.035
0.497,-0.145,0.050
0.500,-0.165,0.065
0.503,-0.165,0.050
0.506,-0.170,0.040
0.508,-0.175,0.035
0.511,-0.175,0.050
0.514,-0.160,0.050
0.517,-0.155,0.055
0.519,-0.155,0.055
0.522,-0.170,0.030
0.525,-0.205,0.050
0.528,-0.195,0.045
0.531,-0.185,0.070
0.533,-0.165,0.075
0.536,-0.175,0.060
0.539,-0.190,0.050
0.542,-0.200,0.040
0.544,-0.205,0.050
0.547,-0.185,0.070
0.550,-0.165,0.075
0.553,-0.155,0.075
0.556,-0.170,0.055
0.558,-0.195,0.050
0.561,-0.215,0.035
0.564,-0.205,0.060
0.567,-0.195,0.085
0.569,-0.190,0.070
0.572,-0.190,0.065
0.575,-0.195,0.050
0.578,-0.205,0.045
0.581,-0.195,0.075
0.583,-0.185,0.075
0.586,-0.185,0.075
0.589,-0.195,0.060
0.592,-0.185,0.055
0.594,-0.205,0.050
0.597,-0.195,0.065
0.600,-0.200,0.085
0.603,-0.170,0.080
0.606,-0.175,0.055
0.608,-0.190,0.040
0.611,-0.195,0.045
0.614,-0.185,0.055
0.617,-0.170,0.075
0.619,-0.185,0.065
0.622,-0.180,0.040
0.625,-0.180,0.025
0.628,-0.175,0.040
0.631,-0.175,0.035
0.633,-0.165,0.055
0.636,-0.165,0.050
0.639,-0.180,0.045
0.642,-0.190,0.040
0.644,-0.200,0.045
0.647,-0.190,0.045
0.650,-0.160,0.070
0.653,-0.165,0.055
0.656,-0.200,0.025
0.658,-0.195,0.015
0.661,-0.195,0.015
0.664,-0.180,0.045
0.667,-0.180,0.050
0.669,-0.160,0.045
0.672,-0.185,0.020
0.675,-0.205,0.020
0.678,-0.205,0.015
0.681,-0.210,0.025
0.683,-0.185,0.030
0.686,-0.185,0.020
0.689,-0.190,0.005
0.692,-0.205,0.000
0.694,-0.220,0.005
0.697,-0.210,0.000
0.700,-0.190,0.015
0.703,-0.170,0.005
0.706,-0.180,-0.005
0.708,-0.195,0.000
0.711,-0.210,-0.010
0.714,-0.200,0.020
0.717,-0.185,0.015
0.719,-0.195,0.015
0.722,-0.185,-0.010
0.725,-0.190,-0.010
0.728,-0.190,-0.005
0.731,-0.175,0.010
0.733,-0.170,0.030
0.736,-0.160,0.025
0.739,-0.175,0.015
0.742,-0.180,-0.005
0.744,-0.175,0.035
0.747,-0.165,0.035
0.750,-0.145,0.075
0.753,-0.140,0.075
0.756,-0.150,0.055
0.758,-0.190,0.065
0.761,-0.185,0.080
0.764,-0.130,0.090
0.767,-0.090,0.110
0.769,-0.110,0.115
0.772,-0.105,0.090
0.775,-0.125,0.090
0.778,-0.140,0.110
0.781,-0.115,0.110
0.783,-0.100,0.135
0.786,-0.100,0.100
0.789,-0.105,0.075
0.792,-0.140,0.045
0.794,-0.160,0.040
0.797,-0.155,0.055
0.800,-0.145,0.060
0.803,-0.160,0.065
0.806,-0.160,0.030
0.808,-0.175,0.020
0.811,-0.170,0.000
0.814,-0.175,0.015
0.817,-0.150,0.025
0.819,-0.160,0.030
0.822,-0.175,0.025
0.825,-0.190,0.020
0.828,-0.205,0.025
0.831,-0.200,0.030
0.833,-0.190,0.035
0.836,-0.190,0.025
0.839,-0.205,0.015
0.842,-0.200,-0.010
0.844,-0.205,0.010
0.847,-0.190,0.030
0.850,-0.180,0.045
0.853,-0.210,0.045
0.856,-0.215,0.010
0.858,-0.215,-0.005
0.861,-0.230,0.005
0.864,-0.215,0.005
0.867,-0.195,0.005
0.869,-0.185,0.005
0.872,-0.195,-0.015
0.875,-0.205,-0.020
0.878,-0.210,-0.030
0.881,-0.180,-0.025
0.883,-0.155,-0.015
0.886,-0.140,-0.015
0.889,-0.150,-0.025
0.892,-0.170,-0.035
0.894,-0.175,-0.030
0.897,-0.165,-0.030
0.900,-0.145,0.015
0.903,-0.135,0.005
0.906,-0.135,0.020
0.908,-0.160,0.025
0.911,-0.170,0.015
0.914,-0.145,0.005
0.917,-0.075,-0.075
0.919,0.055,-0.215
0.922,0.180,-0.380
0.925,0.275,-0.550
0.928,0.360,-0.705
0.931,0.460,-0.815
0.933,0.565,-0.905
0.936,0.670,-1.000
0.939,0.795,-1.075
0.942,0.920,-1.170
0.944,1.060,-1.225
0.947,1.240,-1.265
0.950,1.420,-1.290
0.953,1.635,-1.300
0.956,1.805,-1.290
0.958,1.950,-1.275
0.961,2.050,-1.220
0.964,2.085,-1.190
0.967,2.025,-1.165
0.969,1.860,-1.150
0.972,1.545,-1.135
0.975,1.185,-1.100
0.978,0.870,-1.040
0.981,0.695,-0.975
0.983,0.600,-0.930
0.986,0.555,-0.895
0.989,0.495,-0.860
0.992,0.460,-0.785
0.994,0.435,-0.685
0.997,0.420,-0.580
1.000,0.415,-0.490
1.003,0.390,-0.460
1.006,0.330,-0.415
1.008,0.260,-0.370
1.011,0.220,-0.310
1.014,0.185,-0.240
1.017,0.160,-0.170
1.019,0.115,-0.130
1.022,0.060,-0.095
1.025,0.010,-0.065
1.028,-0.015,-0.020
1.031,-0.050,0.035
1.033,-0.075,0.090
1.036,-0.115,0.105
1.039,-0.160,0.140
1.042,-0.210,0.155
1.044,-0.240,0.180
1.047,-0.265,0.225
1.050,-0.250,0.260
1.053,-0.285,0.270
1.056,-0.315,0.265
1.058,-0.360,0.270
1.061,-0.380,0.290
1.064,-0.380,0.320
1.067,-0.360,0.335
1.069,-0.355,0.340
1.072,-0.365,0.335
1.075,-0.385,0.330
1.078,-0.415,0.355
1.081,-0.415,0.385
1.083,-0.410,0.395
1.086,-0.415,0.395
1.089,-0.420,0.370
1.092,-0.430,0.390
1.094,-0.430,0.415
1.097,-0.420,0.445
1.100,-0.410,0.455
1.103,-0.425,0.455
1.106,-0.435,0.450
1.108,-0.470,0.470
1.111,-0.465,0.490
1.114,-0.460,0.510
1.117,-0.445,0.545
1.119,-0.440,0.550
1.122,-0.460,0.540
1.125,-0.480,0.545
1.128,-0.485,0.580
1.131,-0.485,0.610
1.133,-0.490,0.655
1.136,-0.485,0.675
1.139,-0.510,0.665
1.142,-0.535,0.660
1.144,-0.555,0.685
1.147,-0.550,0.700
1.150,-0.530,0.730
1.153,-0.515,0.750
1.156,-0.535,0.740
1.158,-0.570,0.770
1.161,-0.565,0.795
1.164,-0.575,0.825
1.167,-0.585,0.845
1.169,-0.585,0.850
1.172,-0.590,0.845
1.175,-0.615,0.855
1.178,-0.630,0.880
1.181,-0.645,0.905
1.183,-0.635,0.940
1.186,-0.640,0.925
1.189,-0.670,0.925
1.192,-0.675,0.910
1.194,-0.685,0.915
1.197,-0.660,0.925
1.200,-0.645,0.935
1.203,-0.660,0.925
1.206,-0.695,0.905
1.208,-0.710,0.875
1.211,-0.710,0.885
1.214,-0.685,0.885
1.217,-0.675,0.875
1.219,-0.665,0.865
1.222,-0.670,0.800
1.225,-0.675,0.790
1.228,-0.685,0.750
1.231,-0.675,0.765
1.233,-0.655,0.740
1.236,-0.625,0.695
1.239,-0.600,0.655
1.242,-0.620,0.620
1.244,-0.600,0.585
1.247,-0.575,0.575
1.250,-0.540,0.550
1.253,-0.530,0.505
1.256,-0.505,0.465
1.258,-0.495,0.410
1.261,-0.465,0.395
1.264,-0.430,0.380
1.267,-0.390,0.355
1.269,-0.355,0.300
1.272,-0.335,0.250
1.275,-0.330,0.210
1.278,-0.310,0.210
1.281,-0.270,0.225
1.283,-0.265,0.225
1.286,-0.260,0.190
1.289,-0.270,0.150
1.292,-0.270,0.130
1.294,-0.265,0.110
1.297,-0.235,0.115
1.300,-0.195,0.125
1.303,-0.195,0.100
1.306,-0.210,0.095
1.308,-0.235,0.075
1.311,-0.230,0.080
1.314,-0.220,0.085
1.317,-0.195,0.095
1.319,-0.195,0.070
1.322,-0.210,0.050
1.325,-0.220,0.030
1.328,-0.220,0.040
1.331,-0.210,0.065
1.333,-0.200,0.075
1.336,-0.205,0.070
1.339,-0.210,0.040
1.342,-0.210,0.025
1.344,-0.210,0.025
1.347,-0.215,0.050
1.350,-0.195,0.070
1.353,-0.195,0.060
1.356,-0.205,0.045
1.358,-0.215,0.035
1.361,-0.215,0.055
1.364,-0.210,0.055
1.367,-0.190,0.065
1.369,-0.205,0.055
1.372,-0.210,0.055
1.375,-0.220,0.055
1.378,-0.230,0.070
1.381,-0.215,0.090
1.383,-0.195,0.100
1.386,-0.195,0.085
1.389,-0.210,0.075
1.392,-0.235,0.065
1.394,-0.240,0.060
1.397,-0.235,0.085
1.400,-0.230,0.085
1.403,-0.215,0.075
1.406,-0.215,0.075
1.408,-0.230,0.070
1.411,-0.245,0.070
1.414,-0.240,0.085
1.417,-0.230,0.095
1.419,-0.230,0.100
1.422,-0.235,0.090
1.425,-0.255,0.065
1.428,-0.235,0.085
1.431,-0.240,0.090
1.433,-0.220,0.115
1.436,-0.235,0.110
1.439,-0.240,0.085
1.442,-0.240,0.065
1.444,-0.245,0.075
1.447,-0.220,0.095
1.450,-0.225,0.110
1.453,-0.215,0.105
1.456,-0.225,0.095
1.458,-0.240,0.090
1.461,-0.250,0.085
1.464,-0.235,0.090
1.467,-0.205,0.105
1.469,-0.200,0.090
1.472,-0.220,0.080
1.475,-0.225,0.060
1.478,-0.230,0.070
1.481,-0.215,0.095
1.483,-0.200,0.105
1.486,-0.200,0.095
1.489,-0.210,0.065
1.492,-0.210,0.055
1.494,-0.215,0.065
1.497,-0.210,0.070
1.500,-0.205,0.090
1.503,-0.200,0.095
1.506,-0.200,0.075
1.508,-0.210,0.065
1.511,-0.215,0.070
1.514,-0.205,0.065
1.517,-0.185,0.070
1.519,-0.200,0.055
1.522,-0.215,0.045
1.525,-0.225,0.040
1.528,-0.205,0.060
1.531,-0.195,0.070
1.533,-0.190,0.095
1.536,-0.185,0.080
1.539,-0.185,0.065
1.542,-0.210,0.055
1.544,-0.225,0.055
1.547,-0.225,0.065
1.550,-0.185,0.070
1.553,-0.180,0.075
1.556,-0.180,0.055
1.558,-0.215,0.060
1.561,-0.245,0.070
1.564,-0.230,0.070
1.567,-0.205,0.080
1.569,-0.185,0.070
1.572,-0.190,0.045
1.575,-0.205,0.035
1.578,-0.210,0.055
1.581,-0.190,0.055
1.583,-0.190,0.065
1.586,-0.185,0.075
1.589,-0.205,0.050
1.592,-0.210,0.035
1.594,-0.220,0.050
1.597,-0.205,0.075
1.600,-0.190,0.090
1.603,-0.190,0.090
1.606,-0.185,0.080
1.608,-0.200,0.075
1.611,-0.205,0.090
1.614,-0.175,0.100
1.617,-0.155,0.100
1.619,-0.135,0.120
1.622,-0.170,0.105
1.625,-0.165,0.110
1.628,-0.165,0.125
1.631,-0.150,0.145
1.633,-0.125,0.160
1.636,-0.110,0.160
1.639,-0.125,0.145
1.642,-0.130,0.145
1.644,-0.130,0.140
1.647,-0.125,0.150
1.650,-0.130,0.160
1.653,-0.125,0.140
1.656,-0.125,0.110
1.658,-0.140,0.085
1.661,-0.145,0.080
1.664,-0.125,0.105
1.667,-0.130,0.075
1.669,-0.145,0.070
1.672,-0.160,0.060
1.675,-0.180,0.030
1.678,-0.180,0.045
1.681,-0.180,0.040
1.683,-0.160,0.060
1.686,-0.140,0.060
1.689,-0.155,0.045
1.692,-0.170,0.035
1.694,-0.200,0.025
1.697,-0.205,0.035
1.700,-0.175,0.050
1.703,-0.190,0.045
1.706,-0.195,0.040
1.708,-0.215,0.030
1.711,-0.215,0.045
1.714,-0.215,0.040
1.717,-0.215,0.045
1.719,-0.215,0.035
1.722,-0.215,0.005
1.725,-0.220,0.005
1.728,-0.210,0.020
1.731,-0.195,0.035
1.733,-0.185,0.050
1.736,-0.195,0.045
1.739,-0.205,0.025
1.742,-0.210,0.005
1.744,-0.190,0.010
1.747,-0.165,0.005
1.750,-0.155,0.030
1.753,-0.155,0.010
1.756,-0.165,0.005
1.758,-0.180,0.005
1.761,-0.175,0.000
1.764,-0.160,0.010
1.767,-0.135,0.020
1.769,-0.130,0.010
1.772,-0.140,0.015
1.775,-0.150,0.025
1.778,-0.145,0.060
1.781,-0.145,0.095
1.783,-0.125,0.130
1.786,-0.105,0.105
1.789,-0.075,0.060
1.792,-0.035,-0.015
1.794,0.065,-0.125
1.797,0.185,-0.220
1.800,0.310,-0.335
1.803,0.410,-0.480
1.806,0.515,-0.610
1.808,0.595,-0.740
1.811,0.705,-0.830
1.814,0.830,-0.905
1.817,0.975,-0.985
1.819,1.125,-1.095
1.822,1.265,-1.175
1.825,1.430,-1.235
1.828,1.630,-1.260
1.831,1.840,-1.275
1.833,2.000,-1.280
1.836,2.065,-1.280
1.839,2.050,-1.290
1.842,1.955,-1.295
1.844,1.775,-1.285
1.847,1.520,-1.265
1.850,1.205,-1.200
1.853,0.905,-1.145
1.856,0.670,-1.115
1.858,0.520,-1.080
1.861,0.445,-1.020
1.864,0.440,-0.940
1.867,0.455,-0.840
1.869,0.450,-0.745
1.872,0.410,-0.640
1.875,0.365,-0.555
1.878,0.315,-0.475
1.881,0.265,-0.400
1.883,0.225,-0.315
1.886,0.195,-0.265
1.889,0.145,-0.225
1.892,0.100,-0.170
1.894,0.065,-0.110
1.897,0.035,-0.045
1.900,-0.020,0.015
1.903,-0.060,0.050
1.906,-0.100,0.085
1.908,-0.150,0.110
1.911,-0.170,0.130
1.914,-0.205,0.195
1.917,-0.215,0.235
1.919,-0.230,0.250
1.922,-0.260,0.260
1.925,-0.310,0.255
1.928,-0.335,0.290
1.931,-0.315,0.315
1.933,-0.300,0.330
1.936,-0.315,0.320
1.939,-0.325,0.330
1.942,-0.340,0.325
1.944,-0.350,0.350
1.947,-0.330,0.380
1.950,-0.330,0.400
1.953,-0.345,0.400
1.956,-0.370,0.395
1.958,-0.385,0.385
1.961,-0.395,0.395
1.964,-0.360,0.440
1.967,-0.340,0.460
1.969,-0.345,0.465
1.972,-0.355,0.465
1.975,-0.385,0.450
1.978,-0.400,0.480
1.981,-0.405,0.490
1.983,-0.380,0.500
1.986,-0.390,0.525
1.989,-0.400,0.525
1.992,-0.410,0.550
1.994,-0.445,0.565
1.997,-0.430,0.585
2.000,-0.420,0.610
2.003,-0.420,0.625
2.006,-0.415,0.640
2.008,-0.435,0.615
2.011,-0.455,0.645
2.014,-0.450,0.675
2.017,-0.455,0.725
2.019,-0.450,0.720
2.022,-0.475,0.740
2.025,-0.495,0.740
2.028,-0.495,0.775
2.031,-0.505,0.805
2.033,-0.495,0.835
2.036,-0.510,0.845
2.039,-0.535,0.860
2.042,-0.550,0.845
2.044,-0.550,0.875
2.047,-0.550,0.890
2.050,-0.550,0.905
2.053,-0.560,0.910
2.056,-0.590,0.900
2.058,-0.620,0.895
2.061,-0.615,0.915
2.064,-0.620,0.940
2.067,-0.620,0.950
2.069,-0.615,0.920
2.072,-0.620,0.900
2.075,-0.635,0.875
2.078,-0.655,0.885
2.081,-0.650,0.865
2.083,-0.615,0.870
2.086,-0.600,0.850
2.089,-0.615,0.805
2.092,-0.620,0.775
2.094,-0.630,0.755
2.097,-0.615,0.745
2.100,-0.595,0.720
2.103,-0.565,0.685
2.106,-0.560,0.645
2.108,-0.540,0.595
2.111,-0.520,0.570
2.114,-0.495,0.540
2.117,-0.470,0.505
2.119,-0.435,0.460
2.122,-0.410,0.410
2.125,-0.390,0.380
2.128,-0.375,0.340
2.131,-0.350,0.330
2.133,-0.320,0.310
2.136,-0.280,0.290
2.139,-0.275,0.230
2.142,-0.270,0.195
2.144,-0.255,0.185
2.147,-0.225,0.190
2.150,-0.190,0.185
2.153,-0.185,0.170
2.156,-0.175,0.140
2.158,-0.195,0.115
2.161,-0.205,0.115
2.164,-0.180,0.115
2.167,-0.170,0.105
2.169,-0.150,0.095
2.172,-0.155,0.080
2.175,-0.160,0.055
2.178,-0.180,0.040
2.181,-0.180,0.065
2.183,-0.155,0.075
2.186,-0.150,0.075
2.189,-0.160,0.055
2.192,-0.160,0.045
2.194,-0.155,0.055
2.197,-0.170,0.060
2.200,-0.175,0.060
2.203,-0.140,0.040
2.206,-0.145,0.030
2.208,-0.155,0.035
2.211,-0.160,0.035
2.214,-0.160,0.065
2.217,-0.145,0.055
2.219,-0.145,0.055
2.222,-0.165,0.020
2.225,-0.170,0.010
2.228,-0.180,0.040
2.231,-0.175,0.045
2.233,-0.155,0.060
2.236,-0.145,0.050
2.239,-0.160,0.040
2.242,-0.180,0.015
2.244,-0.190,0.025
2.247,-0.180,0.060
2.250,-0.165,0.065
2.253,-0.155,0.045
2.256,-0.145,0.035
2.258,-0.170,0.025
2.261,-0.180,0.045
2.264,-0.175,0.065
2.267,-0.165,0.080
2.269,-0.160,0.070
2.272,-0.185,0.050
2.275,-0.195,0.035
2.278,-0.215,0.035
2.281,-0.180,0.065
2.283,-0.165,0.090
2.286,-0.170,0.065
2.289,-0.175,0.055
2.292,-0.180,0.050
2.294,-0.180,0.055
2.297,-0.180,0.060
2.300,-0.160,0.075
2.303,-0.150,0.050
2.306,-0.165,0.035
2.308,-0.190,0.050
2.311,-0.200,0.045
2.314,-0.185,0.075
2.317,-0.170,0.075
2.319,-0.160,0.070
2.322,-0.165,0.060
2.325,-0.190,0.040
2.328,-0.165,0.060
2.331,-0.170,0.070
2.333,-0.155,0.085
2.336,-0.150,0.075
2.339,-0.155,0.055
2.342,-0.165,0.040
2.344,-0.165,0.050
2.347,-0.165,0.060
2.350,-0.155,0.070
2.353,-0.150,0.035
2.356,-0.170,0.035
2.358,-0.190,0.030
2.361,-0.175,0.025
2.364,-0.165,0.055
2.367,-0.145,0.060
2.369,-0.145,0.060
2.372,-0.155,0.040
2.375,-0.175,0.030
2.378,-0.180,0.020
2.381,-0.175,0.040
2.383,-0.145,0.060
2.386,-0.150,0.060
2.389,-0.140,0.045
2.392,-0.180,0.030
2.394,-0.180,0.035
2.397,-0.180,0.040
2.400,-0.160,0.060
2.403,-0.150,0.045
2.406,-0.155,0.035
2.408,-0.165,0.015
2.411,-0.170,0.030
2.414,-0.165,0.045
2.417,-0.155,0.050
2.419,-0.145,0.065
2.422,-0.165,0.040
2.425,-0.180,0.020
2.428,-0.185,0.020
2.431,-0.175,0.050
2.433,-0.150,0.040
2.436,-0.150,0.040
2.439,-0.160,0.035
2.442,-0.175,0.025
2.444,-0.195,0.025
2.447,-0.155,0.040
2.450,-0.140,0.050
2.453,-0.125,0.040
2.456,-0.135,0.030
2.458,-0.180,0.010
2.461,-0.180,0.010
2.464,-0.165,0.050
2.467,-0.155,0.070
2.469,-0.160,0.065
2.472,-0.160,0.050
2.475,-0.155,0.030
2.478,-0.150,0.040
2.481,-0.145,0.055
2.483,-0.130,0.065
2.486,-0.130,0.080
2.489,-0.140,0.070
2.492,-0.145,0.060
2.494,-0.150,0.100
2.497,-0.120,0.125
2.500,-0.105,0.115
2.503,-0.085,0.135
2.506,-0.100,0.110
2.508,-0.100,0.105
2.511,-0.120,0.125
2.514,-0.105,0.145
2.517,-0.070,0.155
2.519,-0.075,0.145
2.522,-0.090,0.145
2.525,-0.100,0.115
2.528,-0.120,0.110
2.531,-0.115,0.095
2.533,-0.100,0.075
2.536,-0.115,0.065
2.539,-0.125,0.040
2.542,-0.130,0.035
2.544,-0.145,0.040
2.547,-0.155,0.050
2.550,-0.155,0.050
2.553,-0.145,0.030
2.556,-0.135,0.020
2.558,-0.155,0.015
2.561,-0.170,0.015
2.564,-0.170,0.025
2.567,-0.165,0.040
2.569,-0.165,0.040
2.572,-0.180,0.030
2.575,-0.190,0.010
2.578,-0.200,0.010
2.581,-0.185,0.025
2.583,-0.180,0.030
2.586,-0.175,0.025
2.589,-0.200,0.020
2.592,-0.205,0.000
2.594,-0.195,0.005
2.597,-0.195,0.015
2.600,-0.175,0.035
2.603,-0.165,0.020
2.606,-0.175,0.000
2.608,-0.190,-0.025
2.611,-0.195,0.000
2.614,-0.185,0.015
2.617,-0.170,0.020
2.619,-0.160,0.015
2.622,-0.170,-0.010
2.625,-0.170,-0.010
2.628,-0.165,-0.015
2.631,-0.150,-0.005
2.633,-0.140,0.005
2.636,-0.125,-0.010
2.639,-0.145,-0.020
2.642,-0.145,-0.015
2.644,-0.135,0.015
2.647,-0.135,0.030
2.650,-0.120,0.050
2.653,-0.125,0.075
2.656,-0.135,0.075
2.658,-0.150,0.055
2.661,-0.150,0.045
2.664,-0.070,0.005
2.667,0.020,-0.050
2.669,0.120,-0.165
2.672,0.225,-0.285
2.675,0.290,-0.420
2.678,0.365,-0.505
2.681,0.450,-0.585
2.683,0.530,-0.700
2.686,0.600,-0.820
2.689,0.685,-0.945
2.692,0.805,-1.060
2.694,0.965,-1.130
2.697,1.170,-1.180
2.700,1.390,-1.220
2.703,1.605,-1.245
2.706,1.800,-1.270
2.708,1.920,-1.255
2.711,1.955,-1.225
2.714,1.920,-1.200
2.717,1.760,-1.185
2.719,1.500,-1.160
2.722,1.150,-1.145
2.725,0.845,-1.110
2.728,0.645,-1.045
2.731,0.570,-1.005
2.733,0.535,-0.905
2.736,0.495,-0.845
2.739,0.485,-0.750
2.742,0.435,-0.650
2.744,0.395,-0.570
2.747,0.365,-0.485
2.750,0.350,-0.415
2.753,0.295,-0.360
2.756,0.235,-0.310
2.758,0.165,-0.260
2.761,0.140,-0.185
2.764,0.085,-0.110
2.767,0.080,-0.065
2.769,0.030,-0.035
2.772,-0.010,-0.010
2.775,-0.120,0.040
2.778,-0.135,0.120
2.781,-0.130,0.170
2.783,-0.155,0.205
2.786,-0.195,0.200
2.789,-0.235,0.220
2.792,-0.270,0.235
2.794,-0.280,0.270
2.797,-0.290,0.290
2.800,-0.300,0.300
2.803,-0.305,0.295
2.806,-0.325,0.300
2.808,-0.330,0.325
2.811,-0.330,0.345
2.814,-0.320,0.340
2.817,-0.330,0.335
2.819,-0.345,0.335
2.822,-0.350,0.330
2.825,-0.360,0.355
2.828,-0.355,0.390
2.831,-0.355,0.420
2.833,-0.345,0.415
2.836,-0.360,0.425
2.839,-0.380,0.415
2.842,-0.405,0.420
2.844,-0.400,0.460
2.847,-0.390,0.480
2.850,-0.380,0.485
2.853,-0.385,0.495
2.856,-0.410,0.500
2.858,-0.440,0.510
2.861,-0.410,0.540
2.864,-0.395,0.540
2.867,-0.395,0.560
2.869,-0.400,0.565
2.872,-0.420,0.580
2.875,-0.435,0.600
2.878,-0.450,0.635
2.881,-0.450,0.670
2.883,-0.450,0.685
2.886,-0.455,0.690
2.889,-0.470,0.710
2.892,-0.475,0.720
2.894,-0.505,0.770
2.897,-0.485,0.805
2.900,-0.500,0.800
2.903,-0.490,0.815
2.906,-0.510,0.815
2.908,-0.520,0.835
2.911,-0.520,0.860
2.914,-0.520,0.875
2.917,-0.520,0.885
2.919,-0.540,0.890
2.922,-0.560,0.880
2.925,-0.580,0.890
2.928,-0.575,0.930
2.931,-0.580,0.935
2.933,-0.580,0.920
2.936,-0.595,0.900
2.939,-0.615,0.880
2.942,-0.625,0.895
2.944,-0.605,0.890
2.947,-0.595,0.885
2.950,-0.585,0.880
2.953,-0.610,0.855
2.956,-0.630,0.820
2.958,-0.630,0.800
2.961,-0.605,0.775
2.964,-0.575,0.760
2.967,-0.560,0.720
2.969,-0.555,0.680
2.972,-0.555,0.650
2.975,-0.555,0.615
2.978,-0.520,0.585
2.981,-0.490,0.560
2.983,-0.470,0.525
2.986,-0.430,0.470
2.989,-0.440,0.430
2.992,-0.425,0.395
2.994,-0.400,0.400
2.997,-0.375,0.360
3.000,-0.345,0.340
3.003,-0.315,0.285
3.006,-0.300,0.265
3.008,-0.290,0.225
3.011,-0.255,0.210
3.014,-0.230,0.205
3.017,-0.230,0.190
3.019,-0.210,0.160
3.022,-0.205,0.140
3.025,-0.205,0.120
3.028,-0.180,0.110
3.031,-0.185,0.125
3.033,-0.165,0.105
3.036,-0.180,0.090
3.039,-0.185,0.065
3.042,-0.175,0.075
3.044,-0.165,0.085
3.047,-0.140,0.105
3.050,-0.155,0.085
3.053,-0.155,0.060
3.056,-0.190,0.040
3.058,-0.180,0.040
3.061,-0.180,0.055
3.064,-0.160,0.070
3.067,-0.155,0.075
3.069,-0.160,0.050
3.072,-0.185,0.050
3.075,-0.185,0.060
3.078,-0.175,0.070
3.081,-0.160,0.070
3.083,-0.155,0.065
3.086,-0.165,0.050
3.089,-0.170,0.040
3.092,-0.190,0.055
3.094,-0.180,0.060
3.097,-0.170,0.070
3.100,-0.170,0.070
3.103,-0.180,0.040
3.106,-0.180,0.030
3.108,-0.190,0.045
3.111,-0.180,0.060
3.114,-0.165,0.080
3.117,-0.160,0.075
3.119,-0.165,0.060
3.122,-0.200,0.050
3.125,-0.205,0.055
3.128,-0.200,0.065
3.131,-0.170,0.090
3.133,-0.185,0.085
3.136,-0.170,0.070
3.139,-0.205,0.070
3.142,-0.200,0.065
3.144,-0.185,0.090
3.147,-0.170,0.105
3.150,-0.170,0.100
3.153,-0.175,0.070
3.156,-0.190,0.070
3.158,-0.200,0.075
3.161,-0.180,0.090
3.164,-0.190,0.095
3.167,-0.190,0.105
3.169,-0.185,0.090
3.172,-0.195,0.095
3.175,-0.200,0.095
3.178,-0.190,0.115
3.181,-0.175,0.115
3.183,-0.170,0.110
3.186,-0.190,0.090
3.189,-0.195,0.085
3.192,-0.200,0.095
3.194,-0.195,0.100
3.197,-0.175,0.120
3.200,-0.170,0.100
3.203,-0.185,0.080
3.206,-0.205,0.085
3.208,-0.205,0.095
3.211,-0.190,0.110
3.214,-0.170,0.125
3.217,-0.170,0.095
3.219,-0.170,0.080
3.222,-0.175,0.060
3.225,-0.175,0.075
3.228,-0.180,0.085
3.231,-0.170,0.095
3.233,-0.160,0.090
3.236,-0.155,0.090
3.239,-0.170,0.075
3.242,-0.165,0.075
3.244,-0.160,0.085
3.247,-0.160,0.100
3.250,-0.165,0.095
3.253,-0.160,0.060
3.256,-0.175,0.065
3.258,-0.190,0.065
3.261,-0.160,0.085
3.264,-0.150,0.075
3.267,-0.135,0.080
3.269,-0.145,0.055
3.272,-0.165,0.055
3.275,-0.175,0.065
3.278,-0.175,0.075
3.281,-0.165,0.095
3.283,-0.160,0.080
3.286,-0.165,0.075
3.289,-0.175,0.045
3.292,-0.180,0.040
3.294,-0.170,0.055
3.297,-0.175,0.075
3.300,-0.170,0.075
3.303,-0.165,0.065
3.306,-0.180,0.055
3.308,-0.180,0.050
3.311,-0.175,0.070
3.314,-0.175,0.070
3.317,-0.170,0.065
3.319,-0.170,0.045
3.322,-0.200,0.050
3.325,-0.190,0.045
3.328,-0.185,0.055
3.331,-0.160,0.060
3.333,-0.155,0.075
3.336,-0.145,0.050
3.339,-0.170,0.040
3.342,-0.185,0.040
3.344,-0.195,0.065
3.347,-0.165,0.085
3.350,-0.165,0.085
3.353,-0.145,0.075
3.356,-0.165,0.055
3.358,-0.170,0.065
3.361,-0.160,0.080
3.364,-0.150,0.105
3.367,-0.135,0.110
3.369,-0.135,0.110
3.372,-0.135,0.100
3.375,-0.150,0.125
3.378,-0.130,0.135
3.381,-0.120,0.165
3.383,-0.105,0.160
3.386,-0.115,0.145
3.389,-0.115,0.145
3.392,-0.145,0.145
3.394,-0.130,0.175
3.397,-0.105,0.190
3.400,-0.080,0.170
3.403,-0.095,0.160
3.406,-0.100,0.140
3.408,-0.120,0.115
3.411,-0.115,0.115
3.414,-0.105,0.100
3.417,-0.100,0.105
3.419,-0.100,0.075
3.422,-0.135,0.070
3.425,-0.160,0.070
3.428,-0.150,0.080
3.431,-0.130,0.085
3.433,-0.135,0.080
3.436,-0.125,0.055
3.439,-0.125,0.040
3.442,-0.140,0.050
3.444,-0.140,0.065
3.447,-0.145,0.075
3.450,-0.145,0.075
3.453,-0.160,0.060
3.456,-0.180,0.060
3.458,-0.180,0.055
3.461,-0.180,0.060
3.464,-0.180,0.080
3.467,-0.180,0.080
3.469,-0.180,0.055
3.472,-0.185,0.055
3.475,-0.180,0.060
3.478,-0.175,0.070
3.481,-0.140,0.085
3.483,-0.150,0.075
3.486,-0.170,0.060
3.489,-0.195,0.050
3.492,-0.210,0.040
3.494,-0.190,0.055
3.497,-0.165,0.050
3.500,-0.145,0.060
3.503,-0.140,0.030
3.506,-0.165,0.030
3.508,-0.165,0.030
3.511,-0.165,0.040
3.514,-0.150,0.055
3.517,-0.140,0.040
3.519,-0.125,0.040
3.522,-0.130,0.040
3.525,-0.140,0.060
3.528,-0.145,0.095
3.531,-0.125,0.120
3.533,-0.115,0.155
3.536,-0.115,0.125
3.539,-0.125,0.100
3.542,-0.130,0.085
3.544,-0.060,0.025
3.547,0.055,-0.090
3.550,0.175,-0.225
3.553,0.305,-0.415
3.556,0.405,-0.605
3.558,0.525,-0.745
3.561,0.650,-0.870
3.564,0.790,-0.980
3.567,0.965,-1.085
3.569,1.170,-1.185
3.572,1.355,-1.270
3.575,1.555,-1.290
3.578,1.745,-1.305
3.581,1.905,-1.315
3.583,2.000,-1.305
3.586,2.030,-1.300
3.589,1.995,-1.285
3.592,1.940,-1.255
3.594,1.845,-1.225
3.597,1.650,-1.185
3.600,1.335,-1.135
3.603,1.000,-1.095
3.606,0.740,-1.025
3.608,0.585,-0.955
3.611,0.530,-0.860
3.614,0.505,-0.735
3.617,0.485,-0.635
3.619,0.465,-0.555
3.622,0.415,-0.495
3.625,0.355,-0.440
3.628,0.315,-0.370
3.631,0.285,-0.310
3.633,0.255,-0.280
3.636,0.230,-0.240
3.639,0.185,-0.210
3.642,0.150,-0.165
3.644,0.130,-0.070
3.647,0.090,-0.020
3.650,0.060,0.020
3.653,0.000,0.020
3.656,-0.055,0.075
3.658,-0.100,0.135
3.661,-0.135,0.205
3.664,-0.175,0.250
3.667,-0.195,0.265
3.669,-0.235,0.270
3.672,-0.265,0.275
3.675,-0.285,0.305
3.678,-0.290,0.325
3.681,-0.285,0.370
3.683,-0.280,0.370
3.686,-0.305,0.365
3.689,-0.330,0.360
3.692,-0.335,0.395
3.694,-0.345,0.410
3.697,-0.345,0.420
3.700,-0.320,0.425
3.703,-0.325,0.440
3.706,-0.350,0.440
3.708,-0.350,0.455
3.711,-0.375,0.475
3.714,-0.360,0.495
3.717,-0.355,0.500
3.719,-0.365,0.490
3.722,-0.370,0.495
3.725,-0.395,0.515
3.728,-0.390,0.525
3.731,-0.385,0.545
3.733,-0.400,0.560
3.736,-0.410,0.550
3.739,-0.410,0.550
3.742,-0.410,0.580
3.744,-0.395,0.600
3.747,-0.405,0.620
3.750,-0.400,0.625
3.753,-0.410,0.620
3.756,-0.445,0.640
3.758,-0.455,0.655
3.761,-0.450,0.700
3.764,-0.435,0.720
3.767,-0.440,0.735
3.769,-0.465,0.750
3.772,-0.470,0.760
3.775,-0.515,0.755
3.778,-0.510,0.790
3.781,-0.510,0.810
3.783,-0.500,0.830
3.786,-0.515,0.845
3.789,-0.520,0.840
3.792,-0.530,0.875
3.794,-0.520,0.895
3.797,-0.510,0.925
3.800,-0.515,0.910
3.803,-0.535,0.920
3.806,-0.555,0.925
3.808,-0.585,0.950
3.811,-0.575,0.970
3.814,-0.565,0.990
3.817,-0.575,0.995
3.819,-0.590,1.000
3.822,-0.625,0.990
3.825,-0.635,0.995
3.828,-0.630,1.015
3.831,-0.610,1.030
3.833,-0.615,1.005
3.836,-0.625,0.985
3.839,-0.660,0.985
3.842,-0.655,1.005
3.844,-0.650,0.990
3.847,-0.645,1.000
3.850,-0.640,0.985
3.853,-0.635,0.950
3.856,-0.635,0.905
3.858,-0.620,0.890
3.861,-0.620,0.875
3.864,-0.605,0.865
3.867,-0.595,0.820
3.869,-0.595,0.790
3.872,-0.590,0.755
3.875,-0.560,0.720
3.878,-0.535,0.695
3.881,-0.505,0.690
3.883,-0.485,0.640
3.886,-0.475,0.600
3.889,-0.465,0.555
3.892,-0.470,0.550
3.894,-0.420,0.525
3.897,-0.395,0.510
3.900,-0.365,0.485
3.903,-0.365,0.435
3.906,-0.340,0.385
3.908,-0.325,0.360
3.911,-0.305,0.340
3.914,-0.280,0.330
3.917,-0.260,0.310
3.919,-0.250,0.270
3.922,-0.225,0.250
3.925,-0.220,0.230
3.928,-0.200,0.220
3.931,-0.165,0.215
3.933,-0.150,0.205
3.936,-0.165,0.180
3.939,-0.160,0.160
3.942,-0.155,0.165
3.944,-0.145,0.165
3.947,-0.130,0.170
3.950,-0.120,0.185
3.953,-0.160,0.155
3.956,-0.160,0.145
3.958,-0.165,0.140
3.961,-0.160,0.150
3.964,-0.145,0.135
3.967,-0.125,0.140
3.969,-0.130,0.135
3.972,-0.145,0.135
3.975,-0.165,0.125
3.978,-0.155,0.135
3.981,-0.140,0.150
3.983,-0.130,0.145
3.986,-0.130,0.125
3.989,-0.150,0.115
3.992,-0.155,0.130
3.994,-0.150,0.145
3.997,-0.140,0.155
4.000,-0.145,0.145
4.003,-0.155,0.145
4.006,-0.165,0.135
4.008,-0.175,0.125
4.011,-0.150,0.135
4.014,-0.145,0.150
4.017,-0.135,0.155
4.019,-0.135,0.140
4.022,-0.160,0.110
4.025,-0.170,0.130
4.028,-0.165,0.160
4.031,-0.150,0.170
4.033,-0.135,0.150
4.036,-0.150,0.125
4.039,-0.155,0.125
4.042,-0.170,0.135
4.044,-0.165,0.155
4.047,-0.170,0.165
4.050,-0.135,0.165
4.053,-0.160,0.160
4.056,-0.160,0.140
4.058,-0.160,0.150
4.061,-0.150,0.165
4.064,-0.145,0.170
4.067,-0.145,0.175
4.069,-0.165,0.145
4.072,-0.170,0.150
4.075,-0.170,0.150
4.078,-0.160,0.160
4.081,-0.145,0.190
4.083,-0.130,0.175
4.086,-0.150,0.155
4.089,-0.175,0.145
4.092,-0.170,0.150
4.094,-0.170,0.165
4.097,-0.160,0.190
4.100,-0.150,0.180
4.103,-0.150,0.165
4.106,-0.160,0.145
4.108,-0.165,0.165
4.111,-0.160,0.160
4.114,-0.150,0.175
4.117,-0.145,0.165
4.119,-0.145,0.140
4.122,-0.180,0.135
4.125,-0.155,0.135
4.128,-0.150,0.145
4.131,-0.155,0.160
4.133,-0.130,0.165
4.136,-0.150,0.140
4.139,-0.170,0.130
4.142,-0.160,0.120
4.144,-0.140,0.145
4.147,-0.150,0.160
4.150,-0.135,0.140
4.153,-0.140,0.125
4.156,-0.145,0.105
4.158,-0.155,0.110
4.161,-0.150,0.125
4.164,-0.120,0.120
4.167,-0.100,0.135
4.169,-0.115,0.105
4.172,-0.135,0.090
4.175,-0.130,0.090
4.178,-0.130,0.110
4.181,-0.120,0.120
4.183,-0.130,0.120
4.186,-0.130,0.115
4.189,-0.130,0.105
4.192,-0.145,0.095
4.194,-0.135,0.110
4.197,-0.120,0.120
4.200,-0.125,0.115
4.203,-0.115,0.115
4.206,-0.140,0.095
4.208,-0.140,0.095
4.211,-0.135,0.110
4.214,-0.125,0.130
4.217,-0.125,0.110
4.219,-0.125,0.095
4.222,-0.140,0.075
4.225,-0.140,0.100
4.228,-0.130,0.125
4.231,-0.110,0.130
4.233,-0.080,0.130
4.236,-0.105,0.115
4.239,-0.105,0.105
4.242,-0.125,0.110
4.244,-0.130,0.130
4.247,-0.130,0.135
4.250,-0.090,0.135
4.253,-0.100,0.140
4.256,-0.105,0.140
4.258,-0.105,0.145
4.261,-0.090,0.180
4.264,-0.080,0.195
4.267,-0.070,0.180
4.269,-0.070,0.170
4.272,-0.080,0.170
4.275,-0.080,0.200
4.278,-0.090,0.210
4.281,-0.055,0.230
4.283,-0.045,0.230
4.286,-0.065,0.220
4.289,-0.070,0.210
4.292,-0.080,0.185
4.294,-0.065,0.200
4.297,-0.055,0.200
4.300,-0.045,0.170
4.303,-0.065,0.125
4.306,-0.095,0.095
4.308,-0.110,0.100
4.311,-0.100,0.095
4.314,-0.080,0.120
4.317,-0.075,0.115
4.319,-0.090,0.090
4.322,-0.115,0.085
4.325,-0.125,0.090
4.328,-0.125,0.110
4.331,-0.115,0.130
4.333,-0.110,0.115
4.336,-0.125,0.090
4.339,-0.140,0.075
4.342,-0.155,0.060
4.344,-0.145,0.085
4.347,-0.160,0.100
4.350,-0.160,0.100
4.353,-0.150,0.100
4.356,-0.160,0.070
4.358,-0.150,0.080
4.361,-0.155,0.080
4.364,-0.150,0.090
4.367,-0.145,0.085
4.369,-0.150,0.060
4.372,-0.160,0.055
4.375,-0.150,0.070
4.378,-0.160,0.075
4.381,-0.140,0.085
4.383,-0.130,0.075
4.386,-0.135,0.050
4.389,-0.135,0.040
4.392,-0.135,0.045
4.394,-0.125,0.060
4.397,-0.100,0.070
4.400,-0.095,0.080
4.403,-0.115,0.065
4.406,-0.120,0.055
4.408,-0.115,0.070
4.411,-0.100,0.105
4.414,-0.085,0.155
4.417,-0.080,0.185
4.419,-0.100,0.160
4.422,-0.110,0.155
4.425,-0.060,0.085
4.428,0.065,0.035
4.431,0.225,-0.035
4.433,0.320,-0.125
4.436,0.385,-0.265
4.439,0.435,-0.445
4.442,0.520,-0.615
4.444,0.660,-0.745
4.447,0.845,-0.860
4.450,1.055,-0.980
4.453,1.260,-1.070
4.456,1.460,-1.130
4.458,1.670,-1.180
4.461,1.880,-1.200
4.464,2.015,-1.210
4.467,2.045,-1.220
4.469,1.980,-1.250
4.472,1.785,-1.265
4.475,1.470,-1.270
4.478,1.125,-1.250
4.481,0.835,-1.215
4.483,0.665,-1.160
4.486,0.545,-1.105
4.489,0.460,-1.030
4.492,0.415,-0.930
4.494,0.395,-0.790
4.497,0.410,-0.660
4.500,0.405,-0.565
4.503,0.355,-0.485
4.506,0.300,-0.410
4.508,0.260,-0.350
4.511,0.215,-0.275
4.514,0.190,-0.195
4.517,0.160,-0.145
4.519,0.110,-0.090
4.522,0.075,-0.065
4.525,0.020,-0.005
4.528,0.010,0.045
4.531,-0.025,0.085
4.533,-0.050,0.130
4.536,-0.085,0.160
4.539,-0.135,0.200
4.542,-0.170,0.235
4.544,-0.190,0.280
4.547,-0.200,0.335
4.550,-0.220,0.330
4.553,-0.245,0.340
4.556,-0.275,0.330
4.558,-0.300,0.365
4.561,-0.295,0.385
4.564,-0.290,0.405
4.567,-0.270,0.410
4.569,-0.290,0.405
4.572,-0.310,0.405
4.575,-0.335,0.410
4.578,-0.315,0.430
4.581,-0.305,0.465
4.583,-0.290,0.455
4.586,-0.320,0.445
4.589,-0.340,0.440
4.592,-0.340,0.475
4.594,-0.355,0.510
4.597,-0.335,0.530
4.600,-0.320,0.540
4.603,-0.335,0.535
4.606,-0.355,0.535
4.608,-0.360,0.550
4.611,-0.365,0.560
4.614,-0.365,0.595
4.617,-0.380,0.605
4.619,-0.365,0.605
4.622,-0.380,0.600
4.625,-0.380,0.630
4.628,-0.390,0.655
4.631,-0.390,0.685
4.633,-0.385,0.680
4.636,-0.390,0.680
4.639,-0.420,0.695
4.642,-0.420,0.730
4.644,-0.410,0.760
4.647,-0.420,0.800
4.650,-0.430,0.815
4.653,-0.445,0.805
4.656,-0.470,0.840
4.658,-0.475,0.850
4.661,-0.470,0.880
4.664,-0.465,0.905
4.667,-0.470,0.935
4.669,-0.505,0.915
4.672,-0.530,0.905
4.675,-0.530,0.920
4.678,-0.530,0.935
4.681,-0.510,0.965
4.683,-0.510,0.960
4.686,-0.525,0.950
4.689,-0.545,0.950
4.692,-0.565,0.950
4.694,-0.580,0.955
4.697,-0.570,0.970
4.700,-0.555,0.940
4.703,-0.560,0.920
4.706,-0.590,0.890
4.708,-0.600,0.870
4.711,-0.585,0.870
4.714,-0.570,0.860
4.717,-0.550,0.815
4.719,-0.540,0.780
4.722,-0.550,0.745
4.725,-0.540,0.710
4.728,-0.520,0.685
4.731,-0.495,0.675
4.733,-0.465,0.630
4.736,-0.460,0.600
4.739,-0.455,0.550
4.742,-0.435,0.515
4.744,-0.395,0.495
4.747,-0.370,0.460
4.750,-0.335,0.420
4.753,-0.320,0.360
4.756,-0.300,0.320
4.758,-0.275,0.305
4.761,-0.250,0.290
4.764,-0.205,0.285
4.767,-0.190,0.265
4.769,-0.180,0.220
4.772,-0.200,0.195
4.775,-0.175,0.185
4.778,-0.165,0.190
4.781,-0.145,0.185
4.783,-0.130,0.170
4.786,-0.115,0.150
4.789,-0.135,0.130
4.792,-0.140,0.125
4.794,-0.135,0.125
4.797,-0.120,0.135
4.800,-0.110,0.130
4.803,-0.115,0.120
4.806,-0.115,0.105
4.808,-0.140,0.110
4.811,-0.140,0.110
4.814,-0.120,0.120
4.817,-0.120,0.115
4.819,-0.130,0.095
4.822,-0.145,0.080
4.825,-0.130,0.070
4.828,-0.135,0.090
4.831,-0.130,0.130
4.833,-0.125,0.115
4.836,-0.125,0.100
4.839,-0.140,0.080
4.842,-0.150,0.085
4.844,-0.135,0.090
4.847,-0.120,0.100
4.850,-0.115,0.095
4.853,-0.135,0.090
4.856,-0.150,0.085
4.858,-0.160,0.085
4.861,-0.145,0.115
4.864,-0.130,0.115
4.867,-0.120,0.105
4.869,-0.135,0.090
4.872,-0.140,0.090
4.875,-0.160,0.085
4.878,-0.165,0.095
4.881,-0.145,0.125
4.883,-0.135,0.110
4.886,-0.135,0.100
4.889,-0.135,0.090
4.892,-0.145,0.080
4.894,-0.150,0.120
4.897,-0.145,0.120
4.900,-0.125,0.115
4.903,-0.125,0.110
4.906,-0.145,0.095
4.908,-0.145,0.105
4.911,-0.140,0.120
4.914,-0.120,0.145
4.917,-0.130,0.120
4.919,-0.145,0.115
4.922,-0.165,0.105
4.925,-0.150,0.115
4.928,-0.140,0.135
4.931,-0.135,0.150
4.933,-0.135,0.140
4.936,-0.140,0.125
4.939,-0.145,0.115
4.942,-0.160,0.105
4.944,-0.140,0.110
4.947,-0.130,0.140
4.950,-0.110,0.125
4.953,-0.125,0.110
4.956,-0.130,0.105
4.958,-0.145,0.115
4.961,-0.140,0.105
4.964,-0.115,0.110
4.967,-0.105,0.110
4.969,-0.120,0.105
4.972,-0.120,0.090
4.975,-0.140,0.100
4.978,-0.130,0.100
4.981,-0.120,0.125
4.983,-0.110,0.115
4.986,-0.110,0.100
4.989,-0.120,0.085
4.992,-0.120,0.070
4.994,-0.110,0.075
4.997,-0.105,0.090
5.000,-0.115,0.065
5.003,-0.115,0.075
5.006,-0.135,0.050
5.008,-0.135,0.050
5.011,-0.130,0.070
5.014,-0.105,0.080
5.017,-0.115,0.070
5.019,-0.125,0.050
5.022,-0.150,0.045
5.025,-0.140,0.060
5.028,-0.140,0.060
5.031,-0.115,0.090
5.033,-0.120,0.080
5.036,-0.120,0.060
5.039,-0.150,0.045
5.042,-0.155,0.045
5.044,-0.145,0.055
5.047,-0.135,0.065
5.050,-0.125,0.060
5.053,-0.115,0.045
5.056,-0.130,0.040
5.058,-0.135,0.030
5.061,-0.130,0.050
5.064,-0.120,0.060
5.067,-0.110,0.060
5.069,-0.110,0.045
5.072,-0.130,0.035
5.075,-0.125,0.050
5.078,-0.130,0.070
5.081,-0.115,0.075
5.083,-0.090,0.055
5.086,-0.085,0.040
5.089,-0.100,0.030
5.092,-0.100,0.045
5.094,-0.075,0.060
5.097,-0.065,0.090
5.100,-0.060,0.080
5.103,-0.070,0.070
5.106,-0.070,0.070
5.108,-0.065,0.085
5.111,-0.055,0.100
5.114,-0.050,0.120
5.117,-0.025,0.125
5.119,-0.050,0.115
5.122,-0.050,0.100
5.125,-0.060,0.090
5.128,-0.040,0.095
5.131,-0.035,0.075
5.133,-0.030,0.075
5.136,-0.070,0.050
5.139,-0.085,0.015
5.142,-0.100,0.020
5.144,-0.100,0.020
5.147,-0.080,0.040
5.150,-0.070,0.030
5.153,-0.075,0.010
5.156,-0.085,0.000
5.158,-0.125,0.000
5.161,-0.130,0.010
5.164,-0.125,0.010
5.167,-0.105,0.010
5.169,-0.125,-0.005
5.172,-0.140,-0.030
5.175,-0.155,0.000
5.178,-0.155,-0.010
5.181,-0.165,-0.005
5.183,-0.135,0.000
5.186,-0.135,-0.015
5.189,-0.140,-0.025
5.192,-0.140,-0.015
5.194,-0.140,-0.005
5.197,-0.135,0.000
5.200,-0.135,0.000
5.203,-0.145,-0.025
5.206,-0.150,-0.035
5.208,-0.165,-0.025
5.211,-0.145,0.005
5.214,-0.135,0.005
5.217,-0.110,-0.010
5.219,-0.110,-0.020
5.222,-0.130,-0.040
5.225,-0.120,-0.045
5.228,-0.100,-0.030
5.231,-0.090,-0.005
5.233,-0.085,0.000
5.236,-0.085,0.010
5.239,-0.090,0.015
5.242,-0.100,0.030
5.244,-0.080,0.050
5.247,-0.060,0.025
5.250,-0.015,-0.045
5.253,0.045,-0.175
5.256,0.155,-0.315
5.258,0.280,-0.495
5.261,0.385,-0.650
5.264,0.500,-0.775
5.267,0.605,-0.925
5.269,0.715,-1.045
5.272,0.860,-1.160
5.275,1.040,-1.220
5.278,1.230,-1.260
5.281,1.385,-1.280
5.283,1.540,-1.320
5.286,1.670,-1.345
5.289,1.815,-1.330
5.292,1.960,-1.295
5.294,2.060,-1.250
5.297,2.075,-1.215
5.300,2.005,-1.185
5.303,1.795,-1.205
5.306,1.455,-1.165
5.308,1.100,-1.110
5.311,0.805,-1.030
5.314,0.655,-0.950
5.317,0.585,-0.900
5.319,0.535,-0.815
5.322,0.510,-0.725
5.325,0.470,-0.650
5.328,0.445,-0.560
5.331,0.420,-0.490
5.333,0.390,-0.460
5.336,0.340,-0.410
5.339,0.290,-0.390
5.342,0.250,-0.315
5.344,0.190,-0.235
5.347,0.165,-0.150
5.350,0.115,-0.095
5.353,0.070,-0.055
5.356,0.005,-0.025
5.358,-0.055,0.020
5.361,-0.065,0.075
5.364,-0.105,0.140
5.367,-0.130,0.175
5.369,-0.185,0.180
5.372,-0.230,0.205
5.375,-0.240,0.210
5.378,-0.265,0.235
5.381,-0.255,0.250
5.383,-0.270,0.245
5.386,-0.255,0.255
5.389,-0.285,0.255
5.392,-0.305,0.265
5.394,-0.310,0.310
5.397,-0.300,0.325
5.400,-0.295,0.340
5.403,-0.315,0.355
5.406,-0.330,0.320
5.408,-0.335,0.330
5.411,-0.335,0.350
5.414,-0.310,0.390
5.417,-0.305,0.400
5.419,-0.330,0.395
5.422,-0.350,0.380
5.425,-0.365,0.390
5.428,-0.350,0.420
5.431,-0.355,0.445
5.433,-0.360,0.450
5.436,-0.375,0.440
5.439,-0.380,0.440
5.442,-0.375,0.470
5.444,-0.375,0.515
5.447,-0.375,0.540
5.450,-0.365,0.550
5.453,-0.385,0.530
5.456,-0.410,0.560
5.458,-0.420,0.575
5.461,-0.410,0.620
5.464,-0.400,0.645
5.467,-0.400,0.655
5.469,-0.425,0.655
5.472,-0.460,0.635
5.475,-0.465,0.665
5.478,-0.450,0.690
5.481,-0.440,0.710
5.483,-0.430,0.745
5.486,-0.455,0.750
5.489,-0.475,0.750
5.492,-0.500,0.775
5.494,-0.495,0.795
5.497,-0.490,0.840
5.500,-0.490,0.820
5.503,-0.500,0.820
5.506,-0.520,0.820
5.508,-0.545,0.825
5.511,-0.545,0.845
5.514,-0.540,0.865
5.517,-0.535,0.865
5.519,-0.545,0.855
5.522,-0.565,0.825
5.525,-0.580,0.825
5.528,-0.585,0.810
5.531,-0.575,0.835
5.533,-0.565,0.805
5.536,-0.550,0.790
5.539,-0.570,0.755
5.542,-0.575,0.730
5.544,-0.570,0.710
5.547,-0.565,0.700
5.550,-0.550,0.665
5.553,-0.530,0.610
5.556,-0.525,0.580
5.558,-0.515,0.525
5.561,-0.480,0.490
5.564,-0.440,0.485
5.567,-0.430,0.435
5.569,-0.425,0.410
5.572,-0.400,0.375
5.575,-0.380,0.340
5.578,-0.345,0.325
5.581,-0.315,0.315
5.583,-0.290,0.270
5.586,-0.315,0.235
5.589,-0.280,0.190
5.592,-0.275,0.160
5.594,-0.240,0.150
5.597,-0.200,0.145
5.600,-0.180,0.120
5.603,-0.185,0.090
5.606,-0.200,0.055
5.608,-0.205,0.055
5.611,-0.175,0.055
5.614,-0.160,0.050
5.617,-0.125,0.040
5.619,-0.135,0.030
5.622,-0.155,0.005
5.625,-0.155,0.000
5.628,-0.160,0.015
5.631,-0.145,0.015
5.633,-0.140,0.005
5.636,-0.145,-0.010
5.639,-0.150,-0.020
5.642,-0.165,-0.020
5.644,-0.155,-0.010
5.647,-0.150,0.010
5.650,-0.145,0.010
5.653,-0.160,-0.015
5.656,-0.170,-0.015
5.658,-0.160,-0.020
5.661,-0.145,-0.015
5.664,-0.130,0.005
5.667,-0.135,-0.005
5.669,-0.155,-0.025
5.672,-0.160,-0.010
5.675,-0.150,-0.025
5.678,-0.140,-0.010
5.681,-0.130,0.005
5.683,-0.130,0.000
5.686,-0.160,-0.015
5.689,-0.160,-0.025
5.692,-0.175,-0.025
5.694,-0.160,-0.005
5.697,-0.150,0.025
5.700,-0.140,0.025
5.703,-0.140,0.010
5.706,-0.165,-0.025
5.708,-0.180,-0.020
5.711,-0.190,-0.010
5.714,-0.170,0.015
5.717,-0.155,0.020
5.719,-0.160,0.005
5.722,-0.175,0.015
5.725,-0.210,0.015
5.728,-0.190,0.035
5.731,-0.180,0.035
5.733,-0.160,0.025
5.736,-0.170,0.000
5.739,-0.185,0.000
5.742,-0.180,0.010
5.744,-0.165,0.020
5.747,-0.165,0.010
5.750,-0.155,0.030
5.753,-0.185,0.005
5.756,-0.190,-0.005
5.758,-0.190,0.000
5.761,-0.175,0.010
5.764,-0.165,0.045
5.767,-0.165,0.025
5.769,-0.185,0.015
5.772,-0.195,0.005
5.775,-0.195,-0.005
5.778,-0.165,-0.005
5.781,-0.145,0.030
5.783,-0.145,0.015
5.786,-0.150,0.000
5.789,-0.185,0.000
5.792,-0.195,0.000
5.794,-0.185,0.025
5.797,-0.180,0.020
5.800,-0.170,0.015
5.803,-0.155,0.005
5.806,-0.170,-0.010
5.808,-0.180,-0.005
5.811,-0.180,0.005
5.814,-0.160,0.015
5.817,-0.145,0.010
5.819,-0.160,0.005
5.822,-0.165,-0.020
5.825,-0.180,-0.020
5.828,-0.170,-0.010
5.831,-0.180,-0.010
5.833,-0.160,-0.020
5.836,-0.175,-0.010
5.839,-0.175,0.005
5.842,-0.165,-0.005
5.844,-0.155,0.010
5.847,-0.150,0.025
5.850,-0.130,0.025
5.853,-0.140,0.010
5.856,-0.150,0.000
5.858,-0.130,0.000
5.861,-0.110,0.035
5.864,-0.105,0.050
5.867,-0.090,0.050
5.869,-0.075,0.040
5.872,-0.060,0.035
5.875,-0.050,0.060
5.878,-0.025,0.075
5.881,0.010,0.100
5.883,0.055,0.115
5.886,0.085,0.120
5.889,0.100,0.130
5.892,0.150,0.160
5.894,0.225,0.205
5.897,0.335,0.225
5.900,0.425,0.240
5.903,0.535,0.245
5.906,0.580,0.260
5.908,0.610,0.315
5.911,0.665,0.375
5.914,0.740,0.435
5.917,0.785,0.485
5.919,0.850,0.555
5.922,0.890,0.605
5.925,0.930,0.675
5.928,0.975,0.790
5.931,0.990,0.925
5.933,1.005,1.100
5.936,0.975,1.310
5.939,0.930,1.540
5.942,0.845,1.725
5.944,0.670,1.845
5.947,0.325,1.935
5.950,-0.110,1.945
5.953,-0.610,1.980
5.956,-1.010,1.985
5.958,-1.295,2.025
5.961,-1.465,2.050
5.964,-1.600,2.100
5.967,-1.675,2.090
5.969,-1.720,2.065
5.972,-1.710,2.005
5.975,-1.660,1.935
5.978,-1.625,1.855
5.981,-1.575,1.790
5.983,-1.530,1.665
5.986,-1.450,1.520
5.989,-1.380,1.410
5.992,-1.335,1.305
5.994,-1.315,1.220
5.997,-1.280,1.130
6.000,-1.230,1.075
6.003,-1.185,1.045
6.006,-1.165,1.055
6.008,-1.135,1.080
6.011,-1.095,1.115
6.014,-1.050,1.160
6.017,-1.020,1.145
6.019,-1.030,1.125
6.022,-1.030,1.065
6.025,-1.035,0.995
6.028,-1.025,0.900
6.031,-0.980,0.780
6.033,-0.935,0.620
6.036,-0.870,0.465
6.039,-0.810,0.330
6.042,-0.735,0.180
6.044,-0.640,0.055
6.047,-0.535,-0.050
6.050,-0.460,-0.140
6.053,-0.360,-0.250
6.056,-0.305,-0.305
6.058,-0.265,-0.340
6.061,-0.230,-0.355
6.064,-0.195,-0.365
6.067,-0.155,-0.415
6.069,-0.140,-0.480
6.072,-0.115,-0.530
6.075,-0.105,-0.570
6.078,-0.090,-0.570
6.081,-0.060,-0.585
6.083,-0.050,-0.620
6.086,-0.050,-0.655
6.089,-0.025,-0.695
6.092,-0.020,-0.710
6.094,-0.005,-0.715
6.097,0.030,-0.735
6.100,0.055,-0.770
6.103,0.070,-0.805
6.106,0.075,-0.825
6.108,0.075,-0.830
6.111,0.085,-0.830
6.114,0.105,-0.870
6.117,0.110,-0.890
6.119,0.135,-0.930
6.122,0.165,-0.975
6.125,0.190,-1.005
6.128,0.220,-1.010
6.131,0.245,-1.020
6.133,0.270,-1.050
6.136,0.290,-1.100
6.139,0.310,-1.145
6.142,0.340,-1.185
6.144,0.380,-1.190
6.147,0.415,-1.205
6.150,0.440,-1.235
6.153,0.475,-1.265
6.156,0.480,-1.285
6.158,0.515,-1.300
6.161,0.535,-1.330
6.164,0.575,-1.335
6.167,0.600,-1.360
6.169,0.630,-1.395
6.172,0.650,-1.430
6.175,0.675,-1.445
6.178,0.695,-1.440
6.181,0.750,-1.440
6.183,0.785,-1.455
6.186,0.795,-1.470
6.189,0.805,-1.495
6.192,0.810,-1.480
6.194,0.840,-1.455
6.197,0.875,-1.450
6.200,0.890,-1.460
6.203,0.885,-1.450
6.206,0.870,-1.450
6.208,0.855,-1.410
6.211,0.855,-1.370
6.214,0.880,-1.325
6.217,0.890,-1.295
6.219,0.870,-1.265
6.222,0.835,-1.240
6.225,0.800,-1.200
6.228,0.795,-1.130
6.231,0.795,-1.075
6.233,0.765,-1.025
6.236,0.745,-0.975
6.239,0.700,-0.955
6.242,0.655,-0.925
6.244,0.630,-0.865
6.247,0.625,-0.815
6.250,0.605,-0.755
6.253,0.565,-0.715
6.256,0.515,-0.685
6.258,0.465,-0.610
6.261,0.430,-0.535
6.264,0.400,-0.475
6.267,0.365,-0.460
6.269,0.310,-0.420
6.272,0.265,-0.395
6.275,0.220,-0.345
6.278,0.180,-0.295
6.281,0.155,-0.245
6.283,0.130,-0.240
6.286,0.105,-0.220
6.289,0.075,-0.230
6.292,0.030,-0.205
6.294,-0.010,-0.180
6.297,0.010,-0.145
6.300,-0.010,-0.130
6.303,-0.020,-0.125
6.306,-0.040,-0.150
6.308,-0.060,-0.125
6.311,-0.065,-0.110
6.314,-0.065,-0.095
6.317,-0.075,-0.090
6.319,-0.085,-0.095
6.322,-0.105,-0.095
6.325,-0.125,-0.080
6.328,-0.105,-0.070
6.331,-0.095,-0.050
6.333,-0.095,-0.040
6.336,-0.120,-0.070
6.339,-0.130,-0.085
6.342,-0.130,-0.080
6.344,-0.135,-0.050
6.347,-0.105,-0.020
6.350,-0.105,-0.035
6.353,-0.130,-0.040
6.356,-0.145,-0.065
6.358,-0.165,-0.070
6.361,-0.165,-0.050
6.364,-0.135,-0.015
6.367,-0.140,-0.030
6.369,-0.140,-0.035
6.372,-0.160,-0.050
6.375,-0.170,-0.055
6.378,-0.175,-0.025
6.381,-0.160,-0.010
6.383,-0.140,0.000
6.386,-0.165,-0.005
6.389,-0.160,-0.010
6.392,-0.175,-0.015
6.394,-0.180,-0.015
6.397,-0.155,0.000
6.400,-0.145,-0.005
6.403,-0.140,0.000
6.406,-0.160,-0.030
6.408,-0.180,-0.030
6.411,-0.190,-0.015
6.414,-0.180,0.005
6.417,-0.180,0.000
6.419,-0.180,-0.005
6.422,-0.170,-0.030
6.425,-0.170,-0.020
6.428,-0.165,-0.005
6.431,-0.175,0.025
6.433,-0.185,0.025
6.436,-0.180,0.005
6.439,-0.190,-0.015
6.442,-0.185,-0.010
6.444,-0.170,-0.015
6.447,-0.160,0.015
6.450,-0.170,0.005
6.453,-0.180,-0.015
6.456,-0.205,-0.020
6.458,-0.190,-0.015
6.461,-0.170,0.035
6.464,-0.155,0.025
6.467,-0.155,0.035
6.469,-0.155,-0.015
6.472,-0.170,-0.025
6.475,-0.185,-0.025
6.478,-0.180,0.005
6.481,-0.175,0.015
6.483,-0.165,0.010
6.486,-0.175,0.010
6.489,-0.190,-0.005
6.492,-0.200,0.000
6.494,-0.205,0.010
6.497,-0.185,0.020
6.500,-0.175,0.005
6.503,-0.170,0.010
6.506,-0.175,0.005
6.508,-0.195,0.015
6.511,-0.195,0.020
6.514,-0.185,0.035
6.517,-0.170,0.025
6.519,-0.170,0.015
6.522,-0.180,0.005
6.525,-0.200,0.025
6.528,-0.200,0.020
6.531,-0.185,0.045
6.533,-0.170,0.045
6.536,-0.180,0.035
6.539,-0.180,0.010
6.542,-0.180,0.005
6.544,-0.180,0.020
6.547,-0.170,0.045
6.550,-0.170,0.020
6.553,-0.180,0.010
6.556,-0.195,-0.010
6.558,-0.215,0.000
6.561,-0.205,0.015
6.564,-0.190,0.010
6.567,-0.180,0.010
6.569,-0.180,0.010
6.572,-0.190,0.000
6.575,-0.200,-0.005
6.578,-0.185,0.020
6.581,-0.175,0.020
6.583,-0.175,0.020
6.586,-0.185,0.005
6.589,-0.220,-0.015
6.592,-0.215,0.000
6.594,-0.210,0.005
6.597,-0.175,0.035
6.600,-0.170,0.025
6.603,-0.180,-0.005
6.606,-0.190,0.005
6.608,-0.215,-0.005
6.611,-0.210,0.015
6.614,-0.185,0.020
6.617,-0.180,0.020
6.619,-0.180,0.020
6.622,-0.195,-0.020
6.625,-0.215,-0.010
6.628,-0.200,0.000
6.631,-0.185,0.015
6.633,-0.160,0.010
6.636,-0.160,0.000
6.639,-0.175,-0.025
6.642,-0.185,-0.005
6.644,-0.185,0.010
6.647,-0.175,0.030
6.650,-0.160,0.015
6.653,-0.165,0.000
6.656,-0.190,-0.010
6.658,-0.185,0.005
6.661,-0.185,0.020
6.664,-0.170,0.030
6.667,-0.170,0.040
6.669,-0.170,0.015
6.672,-0.170,0.000
6.675,-0.185,-0.005
6.678,-0.185,0.000
6.681,-0.170,0.030
6.683,-0.165,0.020
6.686,-0.160,0.020
6.689,-0.165,0.005
6.692,-0.160,0.015
6.694,-0.135,0.005
6.697,-0.115,0.030
6.700,-0.095,0.035
6.703,-0.115,0.030
6.706,-0.120,0.035
6.708,-0.130,0.030
6.711,-0.115,0.060
6.714,-0.100,0.070
6.717,-0.090,0.060
6.719,-0.100,0.060
6.722,-0.100,0.020
6.725,-0.105,0.025
6.728,-0.090,0.040
6.731,-0.080,0.035
6.733,-0.070,0.045
6.736,-0.090,0.025
6.739,-0.110,0.005
6.742,-0.110,-0.010
6.744,-0.100,0.005
6.747,-0.100,0.020
6.750,-0.075,0.005
6.753,-0.105,0.000
6.756,-0.140,-0.015
6.758,-0.170,-0.015
6.761,-0.160,-0.025
6.764,-0.140,-0.015
6.767,-0.140,-0.010
6.769,-0.165,-0.025
6.772,-0.175,-0.040
6.775,-0.190,-0.040
6.778,-0.185,-0.020
6.781,-0.180,-0.015
6.783,-0.180,-0.035
6.786,-0.165,-0.050
6.789,-0.165,-0.045
6.792,-0.180,-0.050
6.794,-0.190,-0.015
6.797,-0.170,0.005
6.800,-0.175,0.015
6.803,-0.175,-0.020
6.806,-0.175,-0.035
6.808,-0.185,-0.040
6.811,-0.175,-0.025
6.814,-0.165,-0.010
6.817,-0.150,-0.015
6.819,-0.165,-0.025
6.822,-0.170,-0.030
6.825,-0.170,-0.035
6.828,-0.155,-0.010
6.831,-0.135,0.010
6.833,-0.125,0.025
6.836,-0.130,0.045
6.839,-0.145,0.055
6.842,-0.155,0.045
6.844,-0.125,0.015
6.847,-0.060,-0.035
6.850,0.055,-0.150
6.853,0.175,-0.290
6.856,0.265,-0.450
6.858,0.380,-0.595
6.861,0.515,-0.705
6.864,0.655,-0.805
6.867,0.830,-0.935
6.869,1.025,-1.040
6.872,1.230,-1.125
6.875,1.440,-1.160
6.878,1.660,-1.165
6.881,1.870,-1.160
6.883,2.010,-1.200
6.886,2.070,-1.225
6.889,2.085,-1.230
6.892,2.045,-1.220
6.894,1.970,-1.195
6.897,1.750,-1.165
6.900,1.375,-1.145
6.903,0.950,-1.105
6.906,0.625,-1.060
6.908,0.470,-0.970
6.911,0.425,-0.855
6.914,0.400,-0.740
6.917,0.385,-0.635
6.919,0.345,-0.585
6.922,0.270,-0.550
6.925,0.225,-0.495
6.928,0.180,-0.435
6.931,0.160,-0.370
6.933,0.120,-0.310
6.936,0.085,-0.255
6.939,0.060,-0.210
6.942,0.030,-0.160
6.944,0.010,-0.095
6.947,-0.005,-0.040
6.950,-0.045,-0.010
6.953,-0.115,0.035
6.956,-0.155,0.070
6.958,-0.195,0.115
6.961,-0.215,0.170
6.964,-0.230,0.225
6.967,-0.255,0.225
6.969,-0.290,0.240
6.972,-0.335,0.245
6.975,-0.345,0.260
6.978,-0.330,0.280
6.981,-0.310,0.305
6.983,-0.305,0.300
6.986,-0.330,0.300
6.989,-0.355,0.300
6.992,-0.395,0.305
6.994,-0.405,0.335
6.997,-0.380,0.370
7.000,-0.365,0.365
7.003,-0.375,0.385
7.006,-0.385,0.370
7.008,-0.405,0.380
7.011,-0.400,0.400
7.014,-0.390,0.425
7.017,-0.380,0.425
7.019,-0.390,0.415
7.022,-0.415,0.420
7.025,-0.425,0.440
7.028,-0.420,0.470
7.031,-0.405,0.480
7.033,-0.390,0.505
7.036,-0.400,0.490
7.039,-0.425,0.505
7.042,-0.425,0.525
7.044,-0.445,0.550
7.047,-0.440,0.575
7.050,-0.440,0.590
7.053,-0.450,0.615
7.056,-0.475,0.600
7.058,-0.470,0.635
7.061,-0.465,0.655
7.064,-0.475,0.685
7.067,-0.485,0.700
7.069,-0.495,0.710
7.072,-0.505,0.705
7.075,-0.525,0.705
7.078,-0.505,0.750
7.081,-0.500,0.770
7.083,-0.515,0.780
7.086,-0.545,0.780
7.089,-0.570,0.785
7.092,-0.575,0.815
7.094,-0.565,0.810
7.097,-0.555,0.830
7.100,-0.580,0.840
7.103,-0.595,0.830
7.106,-0.610,0.810
7.108,-0.630,0.815
7.111,-0.620,0.840
7.114,-0.605,0.850
7.117,-0.605,0.820
7.119,-0.630,0.790
7.122,-0.650,0.770
7.125,-0.645,0.755
7.128,-0.650,0.750
7.131,-0.620,0.745
7.133,-0.600,0.720
7.136,-0.600,0.660
7.139,-0.610,0.625
7.142,-0.610,0.580
7.144,-0.580,0.570
7.147,-0.540,0.540
7.150,-0.500,0.520
7.153,-0.490,0.465
7.156,-0.480,0.425
7.158,-0.460,0.400
7.161,-0.450,0.380
7.164,-0.410,0.365
7.167,-0.375,0.330
7.169,-0.350,0.280
7.172,-0.335,0.230
7.175,-0.330,0.215
7.178,-0.300,0.215
7.181,-0.270,0.190
7.183,-0.230,0.170
7.186,-0.205,0.140
7.189,-0.200,0.100
7.192,-0.200,0.090
7.194,-0.180,0.085
7.197,-0.155,0.110
7.200,-0.160,0.085
7.203,-0.140,0.075
7.206,-0.145,0.035
7.208,-0.150,0.050
7.211,-0.160,0.055
7.214,-0.145,0.070
7.217,-0.140,0.060
7.219,-0.135,0.025
7.222,-0.160,0.020
7.225,-0.155,0.020
7.228,-0.155,0.030
7.231,-0.145,0.035
7.233,-0.130,0.035
7.236,-0.160,0.020
7.239,-0.170,0.010
7.242,-0.175,0.025
7.244,-0.160,0.045
7.247,-0.155,0.045
7.250,-0.150,0.040
7.253,-0.165,0.045
7.256,-0.185,0.030
7.258,-0.185,0.025
7.261,-0.180,0.050
7.264,-0.160,0.055
7.267,-0.155,0.055
7.269,-0.145,0.050
7.272,-0.180,0.045
7.275,-0.190,0.055
7.278,-0.170,0.065
7.281,-0.155,0.085
7.283,-0.135,0.075
7.286,-0.160,0.070
7.289,-0.180,0.070
7.292,-0.190,0.070
7.294,-0.165,0.090
7.297,-0.155,0.110
7.300,-0.140,0.100
7.303,-0.150,0.090
7.306,-0.160,0.070
7.308,-0.185,0.090
7.311,-0.165,0.090
7.314,-0.145,0.115
7.317,-0.140,0.115
7.319,-0.140,0.095
7.322,-0.155,0.085
7.325,-0.150,0.090
7.328,-0.170,0.105
7.331,-0.160,0.120
7.333,-0.150,0.115
7.336,-0.155,0.120
7.339,-0.145,0.095
7.342,-0.145,0.090
7.344,-0.150,0.095
7.347,-0.135,0.110
7.350,-0.130,0.105
7.353,-0.130,0.100
7.356,-0.135,0.085
7.358,-0.140,0.085
7.361,-0.140,0.080
7.364,-0.120,0.110
7.367,-0.120,0.090
7.369,-0.130,0.070
7.372,-0.150,0.060
7.375,-0.165,0.075
7.378,-0.155,0.085
7.381,-0.135,0.100
7.383,-0.140,0.085
7.386,-0.135,0.060
7.389,-0.170,0.040
7.392,-0.155,0.040
7.394,-0.150,0.075
7.397,-0.145,0.100
7.400,-0.125,0.080
7.403,-0.145,0.060
7.406,-0.155,0.030
7.408,-0.165,0.040
7.411,-0.165,0.060
7.414,-0.155,0.060
7.417,-0.135,0.060
7.419,-0.165,0.040
7.422,-0.175,0.035
7.425,-0.185,0.045
7.428,-0.170,0.050
7.431,-0.150,0.055
7.433,-0.145,0.035
7.436,-0.150,0.035
7.439,-0.175,0.025
7.442,-0.155,0.035
7.444,-0.155,0.025
7.447,-0.135,0.050
7.450,-0.115,0.030
7.453,-0.110,0.025
7.456,-0.115,0.000
7.458,-0.115,0.005
7.461,-0.090,0.025
7.464,-0.080,0.055
7.467,-0.065,0.055
7.469,-0.065,0.035
7.472,-0.080,0.025
7.475,-0.090,0.025
7.478,-0.080,0.040
7.481,-0.070,0.045
7.483,-0.055,0.040
7.486,-0.060,0.015
7.489,-0.075,0.000
7.492,-0.080,0.010
7.494,-0.060,0.030
7.497,-0.065,0.035
7.500,-0.065,0.030
7.503,-0.065,-0.005
7.506,-0.095,-0.005
7.508,-0.105,-0.005
7.511,-0.095,0.020
7.514,-0.080,0.035
7.517,-0.085,0.030
7.519,-0.100,-0.005
7.522,-0.125,-0.015
7.525,-0.150,-0.015
7.528,-0.140,0.010
7.531,-0.145,0.015
7.533,-0.140,0.025
7.536,-0.160,0.000
7.539,-0.180,0.000
7.542,-0.195,0.005
7.544,-0.180,0.000
7.547,-0.165,0.010
7.550,-0.155,-0.005
7.553,-0.150,-0.015
7.556,-0.165,-0.020
7.558,-0.185,-0.015
7.561,-0.180,0.025
7.564,-0.170,0.040
7.567,-0.170,0.015
7.569,-0.170,0.015
7.572,-0.170,0.005
7.575,-0.185,0.005
7.578,-0.185,0.010
7.581,-0.165,0.035
7.583,-0.165,0.035
7.586,-0.160,0.015
7.589,-0.160,-0.010
7.592,-0.155,0.010
7.594,-0.150,0.020
7.597,-0.135,0.040
7.600,-0.125,0.045
7.603,-0.130,0.050
7.606,-0.150,0.080
7.608,-0.150,0.090
7.611,-0.140,0.085
7.614,-0.090,0.030
7.617,-0.010,-0.070
7.619,0.075,-0.185
7.622,0.165,-0.350
7.625,0.265,-0.505
7.628,0.380,-0.635
7.631,0.500,-0.755
7.633,0.610,-0.880
7.636,0.735,-1.000
7.639,0.870,-1.105
7.642,1.060,-1.175
7.644,1.245,-1.205
7.647,1.445,-1.220
7.650,1.620,-1.245
7.653,1.750,-1.245
7.656,1.835,-1.240
7.658,1.890,-1.190
7.661,1.915,-1.150
7.664,1.935,-1.130
7.667,1.860,-1.115
7.669,1.650,-1.120
7.672,1.340,-1.085
7.675,1.025,-1.035
7.678,0.785,-0.960
7.681,0.640,-0.880
7.683,0.555,-0.830
7.686,0.480,-0.745
7.689,0.440,-0.665
7.692,0.415,-0.590
7.694,0.385,-0.515
7.697,0.370,-0.455
7.700,0.335,-0.405
7.703,0.285,-0.385
7.706,0.235,-0.355
7.708,0.180,-0.320
7.711,0.145,-0.245
7.714,0.135,-0.185
7.717,0.120,-0.120
7.719,0.080,-0.085
7.722,0.025,-0.030
7.725,-0.025,0.020
7.728,-0.075,0.070
7.731,-0.090,0.125
7.733,-0.120,0.175
7.736,-0.150,0.190
7.739,-0.205,0.195
7.742,-0.240,0.230
7.744,-0.260,0.265
7.747,-0.280,0.300
7.750,-0.300,0.320
7.753,-0.315,0.310
7.756,-0.340,0.305
7.758,-0.350,0.315
7.761,-0.345,0.340
7.764,-0.340,0.375
7.767,-0.345,0.370
7.769,-0.370,0.365
7.772,-0.375,0.370
7.775,-0.395,0.385
7.778,-0.380,0.390
7.781,-0.375,0.435
7.783,-0.360,0.430
7.786,-0.395,0.430
7.789,-0.410,0.420
7.792,-0.430,0.430
7.794,-0.425,0.460
7.797,-0.400,0.480
7.800,-0.395,0.490
7.803,-0.430,0.490
7.806,-0.435,0.490
7.808,-0.440,0.500
7.811,-0.430,0.515
7.814,-0.430,0.530
7.817,-0.415,0.540
7.819,-0.425,0.535
7.822,-0.440,0.540
7.825,-0.450,0.555
7.828,-0.450,0.605
7.831,-0.445,0.630
7.833,-0.450,0.630
7.836,-0.455,0.630
7.839,-0.465,0.630
7.842,-0.480,0.660
7.844,-0.480,0.685
7.847,-0.480,0.715
7.850,-0.475,0.720
7.853,-0.495,0.720
7.856,-0.525,0.740
7.858,-0.535,0.745
7.861,-0.530,0.765
7.864,-0.515,0.785
7.867,-0.500,0.810
7.869,-0.515,0.805
7.872,-0.540,0.810
7.875,-0.565,0.810
7.878,-0.565,0.855
7.881,-0.560,0.880
7.883,-0.565,0.885
7.886,-0.565,0.875
7.889,-0.585,0.875
7.892,-0.605,0.875
7.894,-0.600,0.895
7.897,-0.610,0.915
7.900,-0.610,0.915
7.903,-0.625,0.915
7.906,-0.630,0.890
7.908,-0.645,0.890
7.911,-0.640,0.870
7.914,-0.645,0.895
7.917,-0.625,0.880
7.919,-0.645,0.850
7.922,-0.655,0.820
7.925,-0.670,0.805
7.928,-0.635,0.800
7.931,-0.615,0.790
7.933,-0.590,0.770
7.936,-0.600,0.730
7.939,-0.605,0.685
7.942,-0.600,0.670
7.944,-0.585,0.645
7.947,-0.550,0.625
7.950,-0.520,0.595
7.953,-0.505,0.555
7.956,-0.495,0.515
7.958,-0.490,0.475
7.961,-0.470,0.470
7.964,-0.445,0.435
7.967,-0.405,0.425
7.969,-0.375,0.390
7.972,-0.375,0.355
7.975,-0.355,0.330
7.978,-0.335,0.315
7.981,-0.310,0.320
7.983,-0.290,0.275
7.986,-0.295,0.235
7.989,-0.280,0.210
7.992,-0.275,0.180
7.994,-0.240,0.185
7.997,-0.210,0.180
8.000,-0.205,0.160
8.003,-0.200,0.140
8.006,-0.215,0.140
8.008,-0.225,0.130
8.011,-0.210,0.125
8.014,-0.160,0.140
8.017,-0.150,0.115
8.019,-0.155,0.095
8.022,-0.190,0.085
8.025,-0.190,0.075
8.028,-0.185,0.090
8.031,-0.160,0.100
8.033,-0.155,0.105
8.036,-0.160,0.085
8.039,-0.160,0.070
8.042,-0.180,0.065
8.044,-0.175,0.080
8.047,-0.165,0.085
8.050,-0.180,0.085
8.053,-0.175,0.075
8.056,-0.175,0.060
8.058,-0.185,0.065
8.061,-0.165,0.095
8.064,-0.160,0.095
8.067,-0.160,0.090
8.069,-0.170,0.080
8.072,-0.185,0.080
8.075,-0.195,0.085
8.078,-0.185,0.110
8.081,-0.160,0.120
8.083,-0.145,0.130
8.086,-0.170,0.100
8.089,-0.170,0.080
8.092,-0.180,0.095
8.094,-0.185,0.105
8.097,-0.170,0.120
8.100,-0.165,0.120
8.103,-0.170,0.110
8.106,-0.180,0.110
8.108,-0.195,0.120
8.111,-0.185,0.125
8.114,-0.180,0.130
8.117,-0.155,0.130
8.119,-0.165,0.105
8.122,-0.200,0.100
8.125,-0.195,0.120
8.128,-0.200,0.120
8.131,-0.190,0.130
8.133,-0.180,0.125
8.136,-0.180,0.125
8.139,-0.215,0.110
8.142,-0.225,0.115
8.144,-0.200,0.115
8.147,-0.165,0.140
8.150,-0.160,0.145
8.153,-0.160,0.125
8.156,-0.195,0.095
8.158,-0.215,0.115
8.161,-0.200,0.135
8.164,-0.175,0.145
8.167,-0.170,0.135
8.169,-0.175,0.135
8.172,-0.160,0.100
8.175,-0.190,0.115
8.178,-0.175,0.130
8.181,-0.170,0.135
8.183,-0.170,0.130
8.186,-0.155,0.120
8.189,-0.170,0.120
8.192,-0.175,0.120
8.194,-0.195,0.115
8.197,-0.175,0.115
8.200,-0.170,0.110
8.203,-0.170,0.105
8.206,-0.185,0.095
8.208,-0.195,0.085
8.211,-0.175,0.100
8.214,-0.175,0.115
8.217,-0.155,0.115
8.219,-0.170,0.090
8.222,-0.180,0.080
8.225,-0.195,0.085
8.228,-0.185,0.105
8.231,-0.165,0.120
8.233,-0.155,0.115
8.236,-0.155,0.095
8.239,-0.160,0.070
8.242,-0.175,0.070
8.244,-0.185,0.075
8.247,-0.180,0.090
8.250,-0.155,0.075
8.253,-0.160,0.075
8.256,-0.170,0.075
8.258,-0.175,0.055
8.261,-0.160,0.085
8.264,-0.155,0.085
8.267,-0.140,0.085
8.269,-0.155,0.060
8.272,-0.170,0.055
8.275,-0.180,0.040
8.278,-0.160,0.050
8.281,-0.150,0.080
8.283,-0.135,0.065
8.286,-0.140,0.060
8.289,-0.145,0.050
8.292,-0.145,0.045
8.294,-0.140,0.060
8.297,-0.110,0.060
8.300,-0.080,0.060
8.303,-0.080,0.055
8.306,-0.095,0.040
8.308,-0.105,0.060
8.311,-0.120,0.085
8.314,-0.095,0.100
8.317,-0.095,0.070
8.319,-0.110,0.075
8.322,-0.105,0.070
8.325,-0.115,0.070
8.328,-0.095,0.085
8.331,-0.080,0.090
8.333,-0.055,0.085
8.336,-0.060,0.070
8.339,-0.080,0.045
8.342,-0.070,0.065
8.344,-0.075,0.060
8.347,-0.070,0.065
8.350,-0.055,0.050
8.353,-0.065,0.055
8.356,-0.090,0.035
8.358,-0.100,0.030
8.361,-0.085,0.045
8.364,-0.070,0.075
8.367,-0.055,0.065
8.369,-0.065,0.035
8.372,-0.075,0.040
8.375,-0.090,0.040
8.378,-0.095,0.045
8.381,-0.090,0.055
8.383,-0.090,0.030
8.386,-0.125,0.025
8.389,-0.135,0.020
8.392,-0.140,0.015
8.394,-0.140,0.015
8.397,-0.145,0.035
8.400,-0.145,0.030
8.403,-0.140,0.000
8.406,-0.165,-0.005
8.408,-0.155,-0.005
8.411,-0.140,0.000
8.414,-0.130,0.015
8.417,-0.105,0.030
8.419,-0.115,0.015
8.422,-0.140,0.025
8.425,-0.155,0.005
8.428,-0.155,0.030
8.431,-0.135,0.050
8.433,-0.140,0.045
8.436,-0.145,0.020
8.439,-0.140,0.025
8.442,-0.155,0.030
8.444,-0.155,0.035
8.447,-0.140,0.040
8.450,-0.130,0.055
8.453,-0.130,0.040
8.456,-0.145,0.025
8.458,-0.145,0.025
8.461,-0.135,0.035
8.464,-0.120,0.050
8.467,-0.100,0.045
8.469,-0.110,0.055
8.472,-0.125,0.055
8.475,-0.150,0.075
8.478,-0.145,0.100
8.481,-0.125,0.120
8.483,-0.110,0.120
8.486,-0.090,0.100
8.489,-0.060,0.035
8.492,-0.005,-0.045
8.494,0.095,-0.135
8.497,0.200,-0.240
8.500,0.300,-0.340
8.503,0.380,-0.485
8.506,0.450,-0.620
8.508,0.550,-0.740
8.511,0.655,-0.835
8.514,0.800,-0.930
8.517,0.935,-1.020
8.519,1.100,-1.105
8.522,1.245,-1.160
8.525,1.390,-1.195
8.528,1.560,-1.210
8.531,1.720,-1.235
8.533,1.830,-1.255
8.536,1.870,-1.265
8.539,1.875,-1.255
8.542,1.865,-1.230
8.544,1.825,-1.215
8.547,1.750,-1.170
8.550,1.630,-1.175
8.553,1.430,-1.150
8.556,1.170,-1.125
8.558,0.930,-1.090
8.561,0.720,-1.000
8.564,0.580,-0.925
8.567,0.500,-0.860
8.569,0.435,-0.790
8.572,0.395,-0.715
8.575,0.370,-0.625
8.578,0.345,-0.525
8.581,0.355,-0.450
8.583,0.325,-0.405
8.586,0.275,-0.375
8.589,0.220,-0.325
8.592,0.165,-0.280
8.594,0.125,-0.225
8.597,0.115,-0.180
8.600,0.105,-0.145
8.603,0.090,-0.120
8.606,0.060,-0.080
8.608,0.030,-0.030
8.611,0.005,0.010
8.614,-0.020,0.060
8.617,-0.070,0.095
8.619,-0.095,0.110
8.622,-0.130,0.145
8.625,-0.175,0.195
8.628,-0.205,0.235
8.631,-0.225,0.270
8.633,-0.235,0.305
8.636,-0.290,0.300
8.639,-0.305,0.305
8.642,-0.330,0.320
8.644,-0.340,0.345
8.647,-0.335,0.365
8.650,-0.320,0.350
8.653,-0.330,0.355
8.656,-0.350,0.350
8.658,-0.375,0.360
8.661,-0.370,0.375
8.664,-0.370,0.400
8.667,-0.360,0.410
8.669,-0.360,0.410
8.672,-0.365,0.405
8.675,-0.380,0.420
8.678,-0.390,0.440
8.681,-0.390,0.455
8.683,-0.380,0.470
8.686,-0.380,0.460
8.689,-0.405,0.455
8.692,-0.405,0.470
8.694,-0.410,0.495
8.697,-0.415,0.530
8.700,-0.405,0.510
8.703,-0.420,0.505
8.706,-0.435,0.515
8.708,-0.445,0.515
8.711,-0.455,0.555
8.714,-0.430,0.565
8.717,-0.410,0.575
8.719,-0.410,0.585
8.722,-0.435,0.590
8.725,-0.465,0.595
8.728,-0.465,0.620
8.731,-0.455,0.645
8.733,-0.445,0.665
8.736,-0.460,0.680
8.739,-0.480,0.680
8.742,-0.495,0.700
8.744,-0.510,0.720
8.747,-0.495,0.750
8.750,-0.500,0.765
8.753,-0.490,0.775
8.756,-0.520,0.775
8.758,-0.530,0.785
8.761,-0.520,0.800
8.764,-0.530,0.835
8.767,-0.530,0.835
8.769,-0.555,0.830
8.772,-0.565,0.840
8.775,-0.590,0.850
8.778,-0.585,0.870
8.781,-0.570,0.885
8.783,-0.570,0.890
8.786,-0.590,0.900
8.789,-0.620,0.880
8.792,-0.640,0.900
8.794,-0.645,0.905
8.797,-0.625,0.915
8.800,-0.615,0.915
8.803,-0.620,0.885
8.806,-0.650,0.860
8.808,-0.665,0.845
8.811,-0.660,0.830
8.814,-0.645,0.835
8.817,-0.640,0.830
8.819,-0.645,0.800
8.822,-0.635,0.765
8.825,-0.625,0.750
8.828,-0.605,0.740
8.831,-0.590,0.715
8.833,-0.580,0.680
8.836,-0.575,0.640
8.839,-0.575,0.595
8.842,-0.535,0.560
8.844,-0.515,0.550
8.847,-0.465,0.520
8.850,-0.440,0.475
8.853,-0.415,0.435
8.856,-0.405,0.385
8.858,-0.395,0.350
8.861,-0.375,0.340
8.864,-0.335,0.335
8.867,-0.290,0.305
8.869,-0.275,0.275
8.872,-0.285,0.240
8.875,-0.265,0.230
8.878,-0.250,0.230
8.881,-0.220,0.200
8.883,-0.205,0.190
8.886,-0.190,0.170
8.889,-0.190,0.145
8.892,-0.190,0.140
8.894,-0.175,0.135
8.897,-0.175,0.155
8.900,-0.150,0.145
8.903,-0.150,0.115
8.906,-0.140,0.090
8.908,-0.155,0.105
8.911,-0.135,0.090
8.914,-0.130,0.115
8.917,-0.120,0.115
8.919,-0.130,0.095
8.922,-0.145,0.095
8.925,-0.135,0.100
8.928,-0.130,0.115
8.931,-0.105,0.125
8.933,-0.085,0.135
8.936,-0.075,0.125
8.939,-0.075,0.130
8.942,-0.055,0.155
8.944,-0.020,0.190
8.947,0.050,0.245
8.950,0.140,0.270
8.953,0.220,0.295
8.956,0.310,0.325
8.958,0.395,0.365
8.961,0.500,0.425
8.964,0.630,0.495
8.967,0.745,0.565
8.969,0.865,0.620
8.972,0.955,0.645
8.975,1.040,0.710
8.978,1.115,0.775
8.981,1.200,0.830
8.983,1.250,0.860
8.986,1.295,0.890
8.989,1.295,0.900
8.992,1.245,0.950
8.994,1.140,1.005
8.997,0.930,1.070
9.000,0.620,1.125
9.003,0.240,1.140
9.006,-0.120,1.170
9.008,-0.435,1.165
9.011,-0.695,1.140
9.014,-0.890,1.130
9.017,-1.065,1.080
9.019,-1.180,1.040
9.022,-1.310,0.990
9.025,-1.400,0.965
9.028,-1.460,0.955
9.031,-1.530,0.940
9.033,-1.590,0.920
9.036,-1.675,0.880
9.039,-1.735,0.860
9.042,-1.795,0.860
9.044,-1.840,0.870
9.047,-1.855,0.905
9.050,-1.890,0.905
9.053,-1.905,0.890
9.056,-1.935,0.880
9.058,-1.960,0.865
9.061,-1.960,0.850
9.064,-1.920,0.830
9.067,-1.855,0.775
9.069,-1.785,0.730
9.072,-1.670,0.690
9.075,-1.510,0.685
9.078,-1.355,0.680
9.081,-1.210,0.710
9.083,-1.105,0.690
9.086,-1.035,0.680
9.089,-0.990,0.665
9.092,-0.930,0.670
9.094,-0.885,0.670
9.097,-0.840,0.685
9.100,-0.795,0.675
9.103,-0.765,0.645
9.106,-0.735,0.620
9.108,-0.750,0.575
9.111,-0.720,0.530
9.114,-0.685,0.465
9.117,-0.600,0.395
9.119,-0.545,0.300
9.122,-0.510,0.240
9.125,-0.470,0.165
9.128,-0.420,0.125
9.131,-0.350,0.100
9.133,-0.310,0.045
9.136,-0.270,-0.030
9.139,-0.230,-0.090
9.142,-0.200,-0.130
9.144,-0.165,-0.130
9.147,-0.105,-0.150
9.150,-0.060,-0.175
9.153,-0.045,-0.225
9.156,-0.055,-0.265
9.158,-0.050,-0.285
9.161,-0.005,-0.295
9.164,0.035,-0.325
9.167,0.075,-0.355
9.169,0.085,-0.400
9.172,0.085,-0.420
9.175,0.095,-0.420
9.178,0.115,-0.430
9.181,0.135,-0.445
9.183,0.185,-0.460
9.186,0.205,-0.495
9.189,0.220,-0.530
9.192,0.240,-0.555
9.194,0.250,-0.560
9.197,0.285,-0.550
9.200,0.335,-0.575
9.203,0.325,-0.605
9.206,0.350,-0.620
9.208,0.345,-0.635
9.211,0.390,-0.640
9.214,0.430,-0.650
9.217,0.490,-0.675
9.219,0.500,-0.710
9.222,0.510,-0.725
9.225,0.515,-0.745
9.228,0.555,-0.750
9.231,0.600,-0.740
9.233,0.640,-0.765
9.236,0.665,-0.790
9.239,0.680,-0.810
9.242,0.700,-0.835
9.244,0.720,-0.830
9.247,0.745,-0.825
9.250,0.780,-0.835
9.253,0.810,-0.865
9.256,0.830,-0.870
9.258,0.865,-0.885
9.261,0.895,-0.865
9.264,0.925,-0.850
9.267,0.935,-0.850
9.269,0.955,-0.870
9.272,0.950,-0.880
9.275,0.945,-0.880
9.278,0.990,-0.865
9.281,1.020,-0.840
9.283,1.050,-0.845
9.286,1.060,-0.855
9.289,1.075,-0.850
9.292,1.070,-0.845
9.294,1.085,-0.830
9.297,1.100,-0.805
9.300,1.135,-0.795
9.303,1.150,-0.770
9.306,1.140,-0.775
9.308,1.135,-0.740
9.311,1.135,-0.730
9.314,1.140,-0.705
9.317,1.150,-0.705
9.319,1.125,-0.705
9.322,1.130,-0.720
9.325,1.115,-0.690
9.328,1.120,-0.655
9.331,1.115,-0.615
9.333,1.115,-0.595
9.336,1.095,-0.590
9.339,1.060,-0.575
9.342,1.025,-0.540
9.344,1.000,-0.510
9.347,1.005,-0.470
9.350,0.980,-0.450
9.353,0.965,-0.440
9.356,0.910,-0.415
9.358,0.875,-0.400
9.361,0.845,-0.350
9.364,0.830,-0.310
9.367,0.805,-0.295
9.369,0.765,-0.275
9.372,0.725,-0.265
9.375,0.690,-0.250
9.378,0.660,-0.210
9.381,0.635,-0.180
9.383,0.595,-0.170
9.386,0.560,-0.165
9.389,0.535,-0.160
9.392,0.495,-0.145
9.394,0.475,-0.105
9.397,0.440,-0.070
9.400,0.425,-0.065
9.403,0.385,-0.065
9.406,0.335,-0.055
9.408,0.285,-0.040
9.411,0.250,-0.015
9.414,0.235,0.010
9.417,0.215,0.015
9.419,0.190,0.015
9.422,0.145,0.020
9.425,0.105,0.015
9.428,0.100,0.035
9.431,0.075,0.060
9.433,0.055,0.055
9.436,0.040,0.035
9.439,0.015,0.025
9.442,0.000,0.025
9.444,0.005,0.040
9.447,0.015,0.065
9.450,0.000,0.070
9.453,-0.020,0.050
9.456,-0.050,0.035
9.458,-0.070,0.030
9.461,-0.085,0.040
9.464,-0.060,0.065
9.467,-0.050,0.055
9.469,-0.050,0.060
9.472,-0.075,0.040
9.475,-0.110,0.055
9.478,-0.120,0.060
9.481,-0.100,0.075
9.483,-0.100,0.065
9.486,-0.110,0.050
9.489,-0.125,0.030
9.492,-0.145,0.040
9.494,-0.130,0.050
9.497,-0.125,0.060
9.500,-0.110,0.070
9.503,-0.135,0.060
9.506,-0.145,0.045
9.508,-0.145,0.045
9.511,-0.145,0.060
9.514,-0.140,0.060
9.517,-0.135,0.065
9.519,-0.145,0.055
9.522,-0.165,0.045
9.525,-0.160,0.035
9.528,-0.165,0.055
9.531,-0.170,0.075
9.533,-0.150,0.065
9.536,-0.155,0.055
9.539,-0.160,0.035
9.542,-0.185,0.060
9.544,-0.180,0.060
9.547,-0.165,0.065
9.550,-0.150,0.065
9.553,-0.170,0.055
9.556,-0.180,0.030
9.558,-0.210,0.045
9.561,-0.210,0.065
9.564,-0.190,0.070
9.567,-0.170,0.085
9.569,-0.175,0.050
9.572,-0.195,0.050
9.575,-0.205,0.050
9.578,-0.215,0.065
9.581,-0.195,0.080
9.583,-0.195,0.070
9.586,-0.215,0.045
9.589,-0.220,0.040
9.592,-0.215,0.055
9.594,-0.200,0.055
9.597,-0.200,0.075
9.600,-0.195,0.070
9.603,-0.210,0.045
9.606,-0.230,0.030
9.608,-0.240,0.035
9.611,-0.220,0.035
9.614,-0.200,0.055
9.617,-0.195,0.060
9.619,-0.200,0.030
9.622,-0.210,0.030
9.625,-0.230,0.040
9.628,-0.225,0.030
9.631,-0.230,0.065
9.633,-0.220,0.055
9.636,-0.220,0.050
9.639,-0.225,0.040
9.642,-0.245,0.030
9.644,-0.255,0.055
9.647,-0.230,0.050
9.650,-0.230,0.075
9.653,-0.240,0.040
9.656,-0.255,0.030
9.658,-0.250,0.020
9.661,-0.250,0.025
9.664,-0.225,0.045
9.667,-0.230,0.065
9.669,-0.225,0.045
9.672,-0.240,0.035
9.675,-0.260,0.050
9.678,-0.255,0.050
9.681,-0.250,0.065
9.683,-0.230,0.060
9.686,-0.240,0.045
9.689,-0.255,0.030
9.692,-0.265,0.040
9.694,-0.265,0.050
9.697,-0.260,0.055
9.700,-0.245,0.060
9.703,-0.250,0.055
9.706,-0.260,0.035
9.708,-0.275,0.045
9.711,-0.260,0.040
9.714,-0.250,0.055
9.717,-0.245,0.050
9.719,-0.255,0.055
9.722,-0.260,0.030
9.725,-0.280,0.035
9.728,-0.270,0.040
9.731,-0.230,0.075
9.733,-0.235,0.080
9.736,-0.240,0.055
9.739,-0.260,0.030
9.742,-0.265,0.045
9.744,-0.260,0.040
9.747,-0.270,0.065
9.750,-0.250,0.060
9.753,-0.250,0.065
9.756,-0.260,0.035
9.758,-0.270,0.035
9.761,-0.270,0.055
9.764,-0.255,0.070
9.767,-0.245,0.065
9.769,-0.235,0.050
9.772,-0.250,0.040
9.775,-0.265,0.040
9.778,-0.260,0.060
9.781,-0.255,0.075
9.783,-0.250,0.070
9.786,-0.270,0.055
9.789,-0.285,0.045
9.792,-0.275,0.030
9.794,-0.260,0.045
9.797,-0.245,0.055
9.800,-0.230,0.055
9.803,-0.240,0.055
9.806,-0.250,0.035
9.808,-0.270,0.040
9.811,-0.260,0.060
9.814,-0.245,0.070
9.817,-0.245,0.060
9.819,-0.235,0.040
9.822,-0.240,0.020
9.825,-0.255,0.040
9.828,-0.255,0.060
9.831,-0.245,0.060
9.833,-0.225,0.060
9.836,-0.235,0.055
9.839,-0.255,0.025
9.842,-0.260,0.035
9.844,-0.255,0.040
9.847,-0.240,0.065
9.850,-0.235,0.060
9.853,-0.245,0.050
9.856,-0.255,0.035
9.858,-0.250,0.040
9.861,-0.245,0.055
9.864,-0.230,0.055
9.867,-0.220,0.060
9.869,-0.230,0.060
9.872,-0.255,0.035
9.875,-0.255,0.035
9.878,-0.245,0.045
9.881,-0.230,0.070
9.883,-0.225,0.070
9.886,-0.225,0.065
9.889,-0.255,0.055
9.892,-0.250,0.035
9.894,-0.250,0.055
9.897,-0.230,0.085
9.900,-0.230,0.080
9.903,-0.225,0.050
9.906,-0.225,0.040
9.908,-0.240,0.035
9.911,-0.250,0.060
9.914,-0.240,0.065
9.917,-0.215,0.075
9.919,-0.215,0.065
9.922,-0.235,0.045
9.925,-0.235,0.050
9.928,-0.235,0.060
9.931,-0.230,0.085
9.933,-0.210,0.065
9.936,-0.215,0.055
9.939,-0.230,0.035
9.942,-0.230,0.045
9.944,-0.235,0.055
9.947,-0.215,0.065
9.950,-0.210,0.065
9.953,-0.225,0.055
9.956,-0.230,0.050
9.958,-0.235,0.050
9.961,-0.225,0.050
9.964,-0.205,0.055
9.967,-0.185,0.070
9.969,-0.200,0.060
9.972,-0.215,0.050
9.975,-0.230,0.050
9.978,-0.210,0.075
9.981,-0.200,0.075
9.983,-0.200,0.065
9.986,-0.210,0.070
9.989,-0.225,0.050
9.992,-0.245,0.055
9.994,-0.240,0.065
9.997,-0.210,0.085
10.000,-0.195,0.070
10.003,-0.195,0.065
10.006,-0.210,0.035
10.008,-0.215,0.035
10.011,-0.220,0.050
10.014,-0.190,0.060
10.017,-0.190,0.070
10.019,-0.200,0.055
10.022,-0.200,0.045
10.025,-0.210,0.050
10.028,-0.205,0.065
10.031,-0.210,0.065
10.033,-0.190,0.055
10.036,-0.180,0.045
10.039,-0.180,0.050
10.042,-0.200,0.045
10.044,-0.190,0.050
10.047,-0.150,0.070
10.050,-0.125,0.060
10.053,-0.140,0.050
10.056,-0.150,0.020
10.058,-0.155,0.040
10.061,-0.135,0.050
10.064,-0.120,0.075
10.067,-0.100,0.075
10.069,-0.110,0.065
10.072,-0.130,0.050
10.075,-0.125,0.040
10.078,-0.115,0.045
10.081,-0.095,0.045
10.083,-0.080,0.065
10.086,-0.090,0.035
10.089,-0.115,0.025
10.092,-0.145,0.020
10.094,-0.135,0.050
10.097,-0.125,0.070
10.100,-0.105,0.055
10.103,-0.100,0.030
10.106,-0.115,0.025
10.108,-0.115,0.025
10.111,-0.120,0.050
10.114,-0.135,0.070
10.117,-0.120,0.060
10.119,-0.130,0.040
10.122,-0.140,0.025
10.125,-0.155,0.025
10.128,-0.165,0.035
10.131,-0.165,0.040
10.133,-0.180,0.045
10.136,-0.180,0.040
10.139,-0.205,0.025
10.142,-0.210,0.025
10.144,-0.190,0.050
10.147,-0.170,0.050
10.150,-0.150,0.035
10.153,-0.165,0.045
10.156,-0.180,0.025
10.158,-0.210,0.030
10.161,-0.195,0.055
10.164,-0.185,0.085
10.167,-0.170,0.060
10.169,-0.165,0.065
10.172,-0.180,0.040
10.175,-0.200,0.040
10.178,-0.190,0.050
10.181,-0.185,0.060
10.183,-0.160,0.060
10.186,-0.185,0.045
10.189,-0.180,0.035
10.192,-0.170,0.045
10.194,-0.180,0.075
10.197,-0.180,0.095
10.200,-0.160,0.085
10.203,-0.175,0.100
10.206,-0.170,0.100
10.208,-0.175,0.090
10.211,-0.160,0.085
10.214,-0.120,0.020
10.217,-0.020,-0.065
10.219,0.060,-0.205
10.222,0.165,-0.355
10.225,0.255,-0.515
10.228,0.340,-0.655
10.231,0.470,-0.755
10.233,0.585,-0.865
10.236,0.710,-0.965
10.239,0.855,-1.065
10.242,1.040,-1.115
10.244,1.235,-1.150
10.247,1.415,-1.155
10.250,1.590,-1.170
10.253,1.730,-1.205
10.256,1.845,-1.205
10.258,1.925,-1.170
10.261,2.000,-1.140
10.264,2.030,-1.095
10.267,2.015,-1.075
10.269,1.920,-1.075
10.272,1.705,-1.065
10.275,1.380,-1.025
10.278,1.055,-0.965
10.281,0.805,-0.895
10.283,0.665,-0.850
10.286,0.565,-0.790
10.289,0.505,-0.710
10.292,0.450,-0.640
10.294,0.440,-0.550
10.297,0.420,-0.480
10.300,0.390,-0.435
10.303,0.340,-0.405
10.306,0.275,-0.375
10.308,0.220,-0.330
10.311,0.190,-0.290
10.314,0.180,-0.225
10.317,0.165,-0.170
10.319,0.140,-0.110
10.322,0.085,-0.070
10.325,0.030,-0.030
10.328,0.000,0.015
10.331,-0.030,0.060
10.333,-0.055,0.105
10.336,-0.100,0.140
10.339,-0.140,0.170
10.342,-0.165,0.220
10.344,-0.215,0.255
10.347,-0.220,0.295
10.350,-0.250,0.315
10.353,-0.275,0.310
10.356,-0.310,0.305
10.358,-0.335,0.330
10.361,-0.360,0.335
10.364,-0.345,0.365
10.367,-0.330,0.380
10.369,-0.345,0.380
10.372,-0.365,0.380
10.375,-0.385,0.380
10.378,-0.405,0.420
10.381,-0.380,0.415
10.383,-0.370,0.435
10.386,-0.375,0.410
10.389,-0.410,0.425
10.392,-0.420,0.430
10.394,-0.430,0.450
10.397,-0.415,0.480
10.400,-0.405,0.490
10.403,-0.410,0.485
10.406,-0.415,0.470
10.408,-0.425,0.475
10.411,-0.425,0.500
10.414,-0.425,0.535
10.417,-0.425,0.545
10.419,-0.445,0.535
10.422,-0.450,0.525
10.425,-0.475,0.545
10.428,-0.450,0.570
10.431,-0.440,0.590
10.433,-0.445,0.600
10.436,-0.465,0.605
10.439,-0.465,0.610
10.442,-0.480,0.620
10.444,-0.480,0.680
10.447,-0.475,0.695
10.450,-0.465,0.705
10.453,-0.495,0.705
10.456,-0.505,0.710
10.458,-0.525,0.715
10.461,-0.520,0.750
10.464,-0.520,0.785
10.467,-0.500,0.790
10.469,-0.525,0.790
10.472,-0.555,0.785
10.475,-0.565,0.805
10.478,-0.565,0.835
10.481,-0.570,0.850
10.483,-0.560,0.845
10.486,-0.570,0.835
10.489,-0.585,0.855
10.492,-0.600,0.850
10.494,-0.610,0.875
10.497,-0.620,0.890
10.500,-0.610,0.890
10.503,-0.635,0.865
10.506,-0.645,0.855
10.508,-0.645,0.860
10.511,-0.650,0.875
10.514,-0.660,0.880
10.517,-0.650,0.890
10.519,-0.665,0.865
10.522,-0.705,0.830
10.525,-0.675,0.815
10.528,-0.670,0.815
10.531,-0.650,0.810
10.533,-0.625,0.775
10.536,-0.620,0.740
10.539,-0.635,0.705
10.542,-0.630,0.685
10.544,-0.600,0.670
10.547,-0.570,0.650
10.550,-0.545,0.610
10.553,-0.525,0.585
10.556,-0.515,0.535
10.558,-0.500,0.505
10.561,-0.470,0.475
10.564,-0.420,0.470
10.567,-0.385,0.435
10.569,-0.355,0.385
10.572,-0.360,0.365
10.575,-0.335,0.340
10.578,-0.315,0.350
10.581,-0.275,0.325
10.583,-0.250,0.320
10.586,-0.230,0.295
10.589,-0.225,0.240
10.592,-0.215,0.220
10.594,-0.205,0.210
10.597,-0.170,0.230
10.600,-0.150,0.200
10.603,-0.140,0.195
10.606,-0.140,0.175
10.608,-0.150,0.155
10.611,-0.145,0.160
10.614,-0.135,0.175
10.617,-0.140,0.170
10.619,-0.125,0.150
10.622,-0.130,0.140
10.625,-0.110,0.125
10.628,-0.135,0.150
10.631,-0.115,0.175
10.633,-0.120,0.160
10.636,-0.135,0.150
10.639,-0.145,0.110
10.642,-0.160,0.145
10.644,-0.155,0.150
10.647,-0.135,0.175
10.650,-0.135,0.170
10.653,-0.130,0.170
10.656,-0.155,0.155
10.658,-0.165,0.155
10.661,-0.170,0.165
10.664,-0.150,0.165
10.667,-0.145,0.180
10.669,-0.160,0.175
10.672,-0.180,0.160
10.675,-0.185,0.165
10.678,-0.180,0.175
10.681,-0.165,0.185
10.683,-0.145,0.180
10.686,-0.170,0.170
10.689,-0.165,0.150
10.692,-0.195,0.155
10.694,-0.190,0.170
10.697,-0.175,0.195
10.700,-0.155,0.190
10.703,-0.160,0.175
10.706,-0.160,0.155
10.708,-0.170,0.160
10.711,-0.185,0.170
10.714,-0.180,0.185
10.717,-0.160,0.205
10.719,-0.160,0.180
10.722,-0.160,0.160
10.725,-0.155,0.165
10.728,-0.145,0.165
10.731,-0.160,0.185
10.733,-0.165,0.185
10.736,-0.170,0.175
10.739,-0.170,0.160
10.742,-0.180,0.155
10.744,-0.165,0.155
10.747,-0.170,0.185
10.750,-0.155,0.165
10.753,-0.160,0.145
10.756,-0.170,0.130
10.758,-0.190,0.135
10.761,-0.160,0.150
10.764,-0.150,0.155
10.767,-0.150,0.155
10.769,-0.170,0.140
10.772,-0.165,0.125
10.775,-0.180,0.130
10.778,-0.180,0.120
10.781,-0.175,0.155
10.783,-0.145,0.155
10.786,-0.160,0.135
10.789,-0.180,0.110
10.792,-0.190,0.105
10.794,-0.195,0.130
10.797,-0.175,0.125
10.800,-0.155,0.110
10.803,-0.145,0.105
10.806,-0.160,0.090
10.808,-0.170,0.095
10.811,-0.155,0.120
10.814,-0.150,0.130
10.817,-0.140,0.120
10.819,-0.140,0.115
10.822,-0.135,0.090
10.825,-0.130,0.080
10.828,-0.130,0.085
10.831,-0.120,0.105
10.833,-0.115,0.115
10.836,-0.110,0.090
10.839,-0.120,0.075
10.842,-0.120,0.095
10.844,-0.115,0.105
10.847,-0.105,0.120
10.850,-0.095,0.110
10.853,-0.095,0.095
10.856,-0.095,0.095
10.858,-0.080,0.095
10.861,-0.080,0.100
10.864,-0.070,0.120
10.867,-0.075,0.105
10.869,-0.090,0.085
10.872,-0.105,0.040
10.875,-0.130,0.045
10.878,-0.115,0.070
10.881,-0.095,0.090
10.883,-0.070,0.090
10.886,-0.085,0.060
10.889,-0.130,0.050
10.892,-0.155,0.030
10.894,-0.145,0.045
10.897,-0.130,0.060
10.900,-0.115,0.060
10.903,-0.120,0.040
10.906,-0.145,0.020
10.908,-0.190,0.025
10.911,-0.210,0.030
10.914,-0.205,0.035
10.917,-0.180,0.040
10.919,-0.165,0.020
10.922,-0.190,0.005
10.925,-0.200,0.025
10.928,-0.190,0.035
10.931,-0.180,0.060
10.933,-0.180,0.050
10.936,-0.185,0.035
10.939,-0.225,0.025
10.942,-0.220,0.030
10.944,-0.220,0.040
10.947,-0.210,0.050
10.950,-0.200,0.045
10.953,-0.200,0.035
10.956,-0.190,0.005
10.958,-0.200,0.020
10.961,-0.195,0.030
10.964,-0.205,0.045
10.967,-0.190,0.035
10.969,-0.180,0.030
10.972,-0.200,0.035
10.975,-0.195,0.050
10.978,-0.195,0.095
10.981,-0.185,0.135
10.983,-0.165,0.135
10.986,-0.180,0.125
10.989,-0.185,0.065
10.992,-0.165,0.010
10.994,-0.050,-0.055
10.997,0.085,-0.135
11.000,0.210,-0.235
11.003,0.300,-0.360
11.006,0.375,-0.485
11.008,0.455,-0.605
11.011,0.565,-0.705
11.014,0.680,-0.805
11.017,0.845,-0.935
11.019,1.020,-1.015
11.022,1.210,-1.080
11.025,1.420,-1.100
11.028,1.615,-1.125
11.031,1.780,-1.130
11.033,1.880,-1.150
11.036,1.870,-1.170
11.039,1.760,-1.185
11.042,1.565,-1.190
11.044,1.280,-1.175
11.047,0.970,-1.140
11.050,0.695,-1.100
11.053,0.495,-1.060
11.056,0.385,-1.005
11.058,0.305,-0.930
11.061,0.275,-0.840
11.064,0.275,-0.715
11.067,0.315,-0.600
11.069,0.295,-0.520
11.072,0.250,-0.475
11.075,0.205,-0.415
11.078,0.170,-0.345
11.081,0.130,-0.270
11.083,0.120,-0.225
11.086,0.075,-0.190
11.089,0.020,-0.155
11.092,-0.010,-0.110
11.094,-0.040,-0.060
11.097,-0.050,-0.015
11.100,-0.070,0.020
11.103,-0.110,0.045
11.106,-0.155,0.060
11.108,-0.200,0.090
11.111,-0.210,0.150
11.114,-0.235,0.190
11.117,-0.255,0.220
11.119,-0.285,0.240
11.122,-0.330,0.235
11.125,-0.365,0.270
11.128,-0.365,0.275
11.131,-0.375,0.300
11.133,-0.360,0.300
11.136,-0.370,0.295
11.139,-0.390,0.315
11.142,-0.405,0.330
11.144,-0.415,0.345
11.147,-0.410,0.380
11.150,-0.375,0.375
11.153,-0.395,0.365
11.156,-0.430,0.370
11.158,-0.440,0.365
11.161,-0.435,0.380
11.164,-0.425,0.400
11.167,-0.410,0.425
11.169,-0.420,0.415
11.172,-0.430,0.415
11.175,-0.450,0.410
11.178,-0.450,0.435
11.181,-0.430,0.475
11.183,-0.420,0.475
11.186,-0.420,0.470
11.189,-0.440,0.485
11.192,-0.455,0.515
11.194,-0.475,0.535
11.197,-0.455,0.550
11.200,-0.455,0.540
11.203,-0.460,0.545
11.206,-0.475,0.545
11.208,-0.495,0.550
11.211,-0.485,0.595
11.214,-0.485,0.615
11.217,-0.485,0.640
11.219,-0.495,0.650
11.222,-0.520,0.645
11.225,-0.515,0.670
11.228,-0.525,0.720
11.231,-0.530,0.735
11.233,-0.535,0.755
11.236,-0.545,0.755
11.239,-0.565,0.770
11.242,-0.575,0.790
11.244,-0.580,0.810
11.247,-0.580,0.820
11.250,-0.575,0.815
11.253,-0.590,0.805
11.256,-0.610,0.810
11.258,-0.640,0.825
11.261,-0.630,0.840
11.264,-0.610,0.880
11.267,-0.615,0.855
11.269,-0.620,0.850
11.272,-0.640,0.820
11.275,-0.670,0.820
11.278,-0.660,0.815
11.281,-0.640,0.835
11.283,-0.615,0.825
11.286,-0.630,0.795
11.289,-0.630,0.765
11.292,-0.650,0.745
11.294,-0.635,0.730
11.297,-0.625,0.705
11.300,-0.600,0.675
11.303,-0.585,0.640
11.306,-0.580,0.620
11.308,-0.565,0.590
11.311,-0.545,0.570
11.314,-0.535,0.545
11.317,-0.510,0.500
11.319,-0.500,0.435
11.322,-0.490,0.395
11.325,-0.475,0.360
11.328,-0.425,0.315
11.331,-0.400,0.320
11.333,-0.345,0.300
11.336,-0.320,0.265
11.339,-0.310,0.210
11.342,-0.315,0.190
11.344,-0.300,0.175
11.347,-0.280,0.170
11.350,-0.270,0.155
11.353,-0.255,0.135
11.356,-0.255,0.105
11.358,-0.250,0.085
11.361,-0.230,0.090
11.364,-0.225,0.095
11.367,-0.210,0.095
11.369,-0.215,0.085
11.372,-0.235,0.065
11.375,-0.260,0.060
11.378,-0.240,0.060
11.381,-0.210,0.080
11.383,-0.205,0.065
11.386,-0.200,0.040
11.389,-0.225,0.010
11.392,-0.240,0.030
11.394,-0.220,0.045
11.397,-0.210,0.065
11.400,-0.195,0.070
11.403,-0.210,0.055
11.406,-0.220,0.030
11.408,-0.240,0.035
11.411,-0.250,0.055
11.414,-0.225,0.065
11.417,-0.225,0.065
11.419,-0.225,0.050
11.422,-0.245,0.035
11.425,-0.255,0.035
11.428,-0.250,0.045
11.431,-0.225,0.075
11.433,-0.210,0.075
11.436,-0.210,0.065
11.439,-0.240,0.050
11.442,-0.260,0.070
11.444,-0.255,0.065
11.447,-0.230,0.070
11.450,-0.190,0.060
11.453,-0.200,0.050
11.456,-0.225,0.040
11.458,-0.235,0.040
11.461,-0.245,0.060
11.464,-0.215,0.075
11.467,-0.210,0.070
11.469,-0.200,0.045
11.472,-0.210,0.025
11.475,-0.225,0.040
11.478,-0.230,0.045
11.481,-0.215,0.055
11.483,-0.205,0.050
11.486,-0.210,0.035
11.489,-0.220,0.030
11.492,-0.245,0.020
11.494,-0.240,0.040
11.497,-0.235,0.055
11.500,-0.210,0.055
11.503,-0.205,0.035
11.506,-0.210,0.025
11.508,-0.215,0.015
11.511,-0.230,0.030
11.514,-0.225,0.030
11.517,-0.215,0.020
11.519,-0.200,0.010
11.522,-0.205,0.000
11.525,-0.225,-0.005
11.528,-0.225,0.020
11.531,-0.215,0.035
11.533,-0.215,0.025
11.536,-0.205,0.010
11.539,-0.210,0.000
11.542,-0.210,0.015
11.544,-0.200,0.025
11.547,-0.210,0.025
11.550,-0.200,0.015
11.553,-0.195,0.010
11.556,-0.190,-0.020
11.558,-0.170,-0.010
11.561,-0.160,0.010
11.564,-0.145,0.035
11.567,-0.145,0.025
11.569,-0.130,0.010
11.572,-0.155,-0.015
11.575,-0.155,0.000
11.578,-0.140,0.020
11.581,-0.130,0.035
11.583,-0.120,0.030
11.586,-0.130,0.015
11.589,-0.145,-0.010
11.592,-0.135,0.005
11.594,-0.135,-0.005
11.597,-0.100,-0.010
11.600,-0.095,-0.020
11.603,-0.115,-0.030
11.606,-0.120,-0.025
11.608,-0.135,-0.020
11.611,-0.125,-0.005
11.614,-0.115,0.000
11.617,-0.105,-0.010
11.619,-0.130,-0.030
11.622,-0.150,-0.045
11.625,-0.175,-0.050
11.628,-0.185,-0.030
11.631,-0.175,-0.020
11.633,-0.160,-0.015
11.636,-0.180,-0.025
11.639,-0.205,-0.055
11.642,-0.220,-0.050
11.644,-0.220,-0.070
11.647,-0.215,-0.055
11.650,-0.200,-0.050
11.653,-0.195,-0.050
11.656,-0.205,-0.055
11.658,-0.215,-0.060
11.661,-0.220,-0.060
11.664,-0.220,-0.025
11.667,-0.205,-0.035
11.669,-0.210,-0.040
11.672,-0.205,-0.055
11.675,-0.220,-0.035
11.678,-0.225,-0.040
11.681,-0.225,-0.035
11.683,-0.210,-0.040
11.686,-0.210,-0.040
11.689,-0.225,-0.065
11.692,-0.235,-0.070
11.694,-0.215,-0.025
11.697,-0.205,0.000
11.700,-0.190,0.020
11.703,-0.190,0.035
11.706,-0.205,0.030
11.708,-0.190,0.035
11.711,-0.175,-0.010
11.714,-0.085,-0.065
11.717,0.040,-0.150
11.719,0.150,-0.280
11.722,0.255,-0.390
11.725,0.345,-0.485
11.728,0.430,-0.580
11.731,0.530,-0.715
11.733,0.645,-0.840
11.736,0.760,-0.960
11.739,0.940,-1.065
11.742,1.145,-1.105
11.744,1.375,-1.135
11.747,1.620,-1.140
11.750,1.840,-1.180
11.753,1.950,-1.195
11.756,1.970,-1.215
11.758,1.925,-1.215
11.761,1.780,-1.215
11.764,1.530,-1.195
11.767,1.175,-1.175
11.769,0.810,-1.135
11.772,0.515,-1.115
11.775,0.345,-1.075
11.778,0.260,-1.010
11.781,0.240,-0.945
11.783,0.245,-0.860
11.786,0.250,-0.765
11.789,0.245,-0.670
11.792,0.205,-0.595
11.794,0.195,-0.520
11.797,0.170,-0.440
11.800,0.135,-0.400
11.803,0.085,-0.350
11.806,0.045,-0.315
11.808,0.015,-0.250
11.811,-0.015,-0.185
11.814,-0.020,-0.130
11.817,-0.055,-0.095
11.819,-0.105,-0.065
11.822,-0.155,-0.040
11.825,-0.200,0.005
11.828,-0.230,0.060
11.831,-0.230,0.110
11.833,-0.245,0.145
11.836,-0.275,0.165
11.839,-0.325,0.175
11.842,-0.360,0.180
11.844,-0.375,0.220
11.847,-0.380,0.235
11.850,-0.380,0.245
11.853,-0.385,0.245
11.856,-0.400,0.240
11.858,-0.425,0.270
11.861,-0.430,0.280
11.864,-0.425,0.305
11.867,-0.405,0.305
11.869,-0.410,0.305
11.872,-0.435,0.295
11.875,-0.455,0.305
11.878,-0.465,0.325
11.881,-0.450,0.345
11.883,-0.445,0.365
11.886,-0.455,0.360
11.889,-0.460,0.355
11.892,-0.455,0.380
11.894,-0.455,0.390
11.897,-0.460,0.405
11.900,-0.450,0.435
11.903,-0.470,0.440
11.906,-0.480,0.445
11.908,-0.480,0.460
11.911,-0.480,0.470
11.914,-0.480,0.505
11.917,-0.460,0.515
11.919,-0.490,0.510
11.922,-0.510,0.515
11.925,-0.525,0.530
11.928,-0.520,0.555
11.931,-0.510,0.605
11.933,-0.495,0.610
11.936,-0.515,0.635
11.939,-0.530,0.620
11.942,-0.560,0.635
11.944,-0.545,0.680
11.947,-0.545,0.700
11.950,-0.540,0.730
11.953,-0.560,0.730
11.956,-0.600,0.740
11.958,-0.625,0.740
11.961,-0.610,0.755
11.964,-0.605,0.775
11.967,-0.610,0.785
11.969,-0.620,0.790
11.972,-0.625,0.775
11.975,-0.650,0.780
11.978,-0.655,0.800
11.981,-0.660,0.825
11.983,-0.650,0.810
11.986,-0.655,0.790
11.989,-0.675,0.765
11.992,-0.695,0.755
11.994,-0.690,0.755
11.997,-0.685,0.760
12.000,-0.660,0.735
12.003,-0.660,0.710
12.006,-0.645,0.665
12.008,-0.655,0.655
12.011,-0.640,0.630
12.014,-0.635,0.630
12.017,-0.600,0.595
12.019,-0.595,0.555
12.022,-0.595,0.510
12.025,-0.580,0.480
12.028,-0.555,0.460
12.031,-0.525,0.450
12.033,-0.495,0.390
12.036,-0.465,0.355
12.039,-0.470,0.305
12.042,-0.440,0.280
12.044,-0.400,0.260
12.047,-0.360,0.250
12.050,-0.330,0.200
12.053,-0.335,0.180
12.056,-0.305,0.120
12.058,-0.305,0.100
12.061,-0.280,0.115
12.064,-0.245,0.120
12.067,-0.215,0.110
12.069,-0.230,0.095
12.072,-0.235,0.070
12.075,-0.250,0.045
12.078,-0.250,0.045
12.081,-0.225,0.055
12.083,-0.195,0.040
12.086,-0.190,0.045
12.089,-0.215,0.010
12.092,-0.235,0.010
12.094,-0.230,0.020
12.097,-0.210,0.020
12.100,-0.200,0.020
12.103,-0.195,0.005
12.106,-0.210,-0.005
12.108,-0.235,-0.015
12.111,-0.230,0.005
12.114,-0.215,0.015
12.117,-0.195,0.015
12.119,-0.200,0.010
12.122,-0.205,0.005
12.125,-0.220,0.000
12.128,-0.220,0.010
12.131,-0.220,0.025
12.133,-0.230,0.025
12.136,-0.225,0.025
12.139,-0.225,-0.010
12.142,-0.235,0.005
12.144,-0.240,0.015
12.147,-0.240,0.030
12.150,-0.235,0.035
12.153,-0.235,0.020
12.156,-0.230,0.010
12.158,-0.235,0.020
12.161,-0.255,0.065
12.164,-0.230,0.055
12.167,-0.230,0.065
12.169,-0.215,0.035
12.172,-0.235,0.025
12.175,-0.235,0.010
12.178,-0.230,0.020
12.181,-0.220,0.040
12.183,-0.210,0.045
12.186,-0.240,0.035
12.189,-0.250,0.005
12.192,-0.260,0.005
12.194,-0.250,0.015
12.197,-0.220,0.050
12.200,-0.205,0.045
12.203,-0.215,0.050
12.206,-0.240,0.035
12.208,-0.250,0.005
12.211,-0.235,0.025
12.214,-0.210,0.040
12.217,-0.200,0.035
12.219,-0.215,0.020
12.222,-0.220,0.005
12.225,-0.255,0.015
12.228,-0.250,0.030
12.231,-0.235,0.040
12.233,-0.225,0.035
12.236,-0.215,0.030
12.239,-0.235,0.000
12.242,-0.250,0.005
12.244,-0.240,0.030
12.247,-0.245,0.030
12.250,-0.210,0.040
12.253,-0.220,0.025
12.256,-0.230,0.000
12.258,-0.235,-0.005
12.261,-0.250,0.005
12.264,-0.240,0.025
12.267,-0.225,0.010
12.269,-0.215,-0.005
12.272,-0.225,-0.010
12.275,-0.240,-0.015
12.278,-0.230,-0.015
12.281,-0.205,0.005
12.283,-0.190,0.000
12.286,-0.175,-0.005
12.289,-0.180,-0.025
12.292,-0.170,-0.010
12.294,-0.155,0.005
12.297,-0.140,0.015
12.300,-0.135,0.015
12.303,-0.130,-0.010
12.306,-0.150,-0.025
12.308,-0.155,-0.020
12.311,-0.145,-0.005
12.314,-0.135,0.005
12.317,-0.110,0.010
12.319,-0.125,0.000
12.322,-0.135,-0.020
12.325,-0.165,-0.020
12.328,-0.145,-0.035
12.331,-0.130,-0.015
12.333,-0.125,-0.015
12.336,-0.140,-0.025
12.339,-0.150,-0.045
12.342,-0.175,-0.030
12.344,-0.180,0.000
12.347,-0.175,-0.005
12.350,-0.160,-0.005
12.353,-0.175,-0.025
12.356,-0.190,-0.040
12.358,-0.220,-0.040
12.361,-0.245,-0.030
12.364,-0.225,-0.010
12.367,-0.210,-0.010
12.369,-0.210,-0.020
12.372,-0.230,-0.060
12.375,-0.260,-0.055
12.378,-0.260,-0.040
12.381,-0.235,-0.020
12.383,-0.215,-0.025
12.386,-0.210,-0.015
12.389,-0.240,-0.050
12.392,-0.270,-0.045
12.394,-0.275,-0.030
12.397,-0.245,-0.015
12.400,-0.230,-0.015
12.403,-0.230,-0.035
12.406,-0.235,-0.035
12.408,-0.255,-0.040
12.411,-0.250,-0.025
12.414,-0.235,-0.025
12.417,-0.215,-0.035
12.419,-0.245,-0.035
12.422,-0.240,-0.045
12.425,-0.225,-0.030
12.428,-0.220,0.000
12.431,-0.210,0.035
12.433,-0.215,0.050
12.436,-0.225,0.045
12.439,-0.235,-0.005
12.442,-0.190,-0.085
12.444,-0.080,-0.180
12.447,0.040,-0.300
12.450,0.170,-0.450
12.453,0.270,-0.630
12.456,0.350,-0.770
12.458,0.440,-0.875
12.461,0.545,-0.955
12.464,0.655,-1.040
12.467,0.790,-1.125
12.469,0.935,-1.220
12.472,1.145,-1.290
12.475,1.350,-1.295
12.478,1.585,-1.270
12.481,1.790,-1.230
12.483,1.930,-1.185
12.486,1.960,-1.155
12.489,1.900,-1.165
12.492,1.730,-1.155
12.494,1.465,-1.105
12.497,1.125,-1.030
12.500,0.840,-0.970
12.503,0.630,-0.940
12.506,0.485,-0.910
12.508,0.405,-0.865
12.511,0.375,-0.775
12.514,0.370,-0.670
12.517,0.360,-0.560
12.519,0.315,-0.500
12.522,0.275,-0.455
12.525,0.225,-0.405
12.528,0.180,-0.345
12.531,0.145,-0.285
12.533,0.095,-0.225
12.536,0.060,-0.175
12.539,0.015,-0.140
12.542,-0.030,-0.095
12.544,-0.095,-0.025
12.547,-0.120,0.015
12.550,-0.150,0.055
12.553,-0.200,0.085
12.556,-0.250,0.105
12.558,-0.305,0.145
12.561,-0.310,0.190
12.564,-0.315,0.230
12.567,-0.325,0.255
12.569,-0.355,0.245
12.572,-0.390,0.245
12.575,-0.455,0.275
12.578,-0.435,0.285
12.581,-0.420,0.315
12.583,-0.425,0.320
12.586,-0.440,0.325
12.589,-0.460,0.320
12.592,-0.470,0.320
12.594,-0.485,0.340
12.597,-0.465,0.360
12.600,-0.450,0.365
12.603,-0.465,0.380
12.606,-0.490,0.380
12.608,-0.505,0.395
12.611,-0.505,0.400
12.614,-0.495,0.425
12.617,-0.485,0.430
12.619,-0.480,0.430
12.622,-0.500,0.440
12.625,-0.515,0.450
12.628,-0.505,0.480
12.631,-0.515,0.490
12.633,-0.510,0.520
12.636,-0.510,0.515
12.639,-0.525,0.510
12.642,-0.545,0.515
12.644,-0.545,0.545
12.647,-0.545,0.570
12.650,-0.535,0.585
12.653,-0.550,0.620
12.656,-0.565,0.615
12.658,-0.585,0.645
12.661,-0.610,0.665
12.664,-0.590,0.705
12.667,-0.580,0.720
12.669,-0.575,0.715
12.672,-0.605,0.715
12.675,-0.635,0.730
12.678,-0.635,0.765
12.681,-0.620,0.800
12.683,-0.620,0.810
12.686,-0.630,0.825
12.689,-0.660,0.810
12.692,-0.680,0.810
12.694,-0.705,0.835
12.697,-0.705,0.860
12.700,-0.690,0.875
12.703,-0.700,0.870
12.706,-0.725,0.860
12.708,-0.750,0.860
12.711,-0.755,0.860
12.714,-0.760,0.875
12.717,-0.740,0.865
12.719,-0.740,0.855
12.722,-0.740,0.830
12.725,-0.760,0.810
12.728,-0.765,0.800
12.731,-0.745,0.810
12.733,-0.745,0.775
12.736,-0.745,0.750
12.739,-0.755,0.725
12.742,-0.745,0.685
12.744,-0.720,0.695
12.747,-0.705,0.665
12.750,-0.690,0.640
12.753,-0.670,0.610
12.756,-0.665,0.570
12.758,-0.640,0.545
12.761,-0.615,0.525
12.764,-0.585,0.505
12.767,-0.570,0.485
12.769,-0.555,0.435
12.772,-0.555,0.395
12.775,-0.545,0.365
12.778,-0.515,0.350
12.781,-0.485,0.330
12.783,-0.445,0.305
12.786,-0.415,0.270
12.789,-0.420,0.230
12.792,-0.400,0.205
12.794,-0.375,0.200
12.797,-0.345,0.195
12.800,-0.320,0.165
12.803,-0.315,0.150
12.806,-0.310,0.105
12.808,-0.310,0.110
12.811,-0.290,0.105
12.814,-0.280,0.110
12.817,-0.270,0.105
12.819,-0.270,0.100
12.822,-0.285,0.075
12.825,-0.310,0.070
12.828,-0.300,0.065
12.831,-0.275,0.065
12.833,-0.240,0.070
12.836,-0.245,0.060
12.839,-0.260,0.050
12.842,-0.275,0.030
12.844,-0.270,0.050
12.847,-0.260,0.050
12.850,-0.245,0.065
12.853,-0.245,0.040
12.856,-0.250,0.035
12.858,-0.260,0.030
12.861,-0.285,0.040
12.864,-0.260,0.055
12.867,-0.260,0.055
12.869,-0.260,0.040
12.872,-0.265,0.030
12.875,-0.280,0.035
12.878,-0.280,0.060
12.881,-0.280,0.070
12.883,-0.250,0.070
12.886,-0.255,0.045
12.889,-0.280,0.035
12.892,-0.280,0.040
12.894,-0.270,0.055
12.897,-0.270,0.070
12.900,-0.265,0.070
12.903,-0.270,0.065
12.906,-0.295,0.055
12.908,-0.300,0.045
12.911,-0.290,0.050
12.914,-0.260,0.065
12.917,-0.255,0.065
12.919,-0.270,0.050
12.922,-0.280,0.035
12.925,-0.315,0.050
12.928,-0.310,0.075
12.931,-0.285,0.085
12.933,-0.260,0.095
12.936,-0.275,0.075
12.939,-0.295,0.055
12.942,-0.305,0.050
12.944,-0.320,0.055
12.947,-0.300,0.090
12.950,-0.280,0.095
12.953,-0.275,0.075
12.956,-0.285,0.075
12.958,-0.285,0.055
12.961,-0.290,0.055
12.964,-0.295,0.075
12.967,-0.290,0.085
12.969,-0.285,0.065
12.972,-0.290,0.065
12.975,-0.285,0.070
12.978,-0.285,0.075
12.981,-0.295,0.080
12.983,-0.275,0.075
12.986,-0.290,0.040
12.989,-0.290,0.035
12.992,-0.295,0.050
12.994,-0.290,0.060
12.997,-0.270,0.065
13.000,-0.275,0.065
13.003,-0.275,0.045
13.006,-0.275,0.050
13.008,-0.300,0.040
13.011,-0.285,0.035
13.014,-0.270,0.060
13.017,-0.265,0.065
13.019,-0.265,0.060
13.022,-0.270,0.040
13.025,-0.290,0.035
13.028,-0.280,0.050
13.031,-0.280,0.055
13.033,-0.245,0.045
13.036,-0.240,0.035
13.039,-0.225,0.025
13.042,-0.240,0.025
13.044,-0.240,0.030
13.047,-0.225,0.050
13.050,-0.220,0.055
13.053,-0.220,0.025
13.056,-0.235,0.015
13.058,-0.215,0.010
13.061,-0.215,0.030
13.064,-0.200,0.045
13.067,-0.195,0.060
13.069,-0.185,0.045
13.072,-0.185,0.035
13.075,-0.185,0.020
13.078,-0.175,0.015
13.081,-0.165,0.030
13.083,-0.165,0.025
13.086,-0.170,0.000
13.089,-0.185,0.000
13.092,-0.185,-0.020
13.094,-0.180,0.015
13.097,-0.165,0.030
13.100,-0.160,0.020
13.103,-0.175,0.020
13.106,-0.200,-0.015
13.108,-0.220,-0.005
13.111,-0.215,0.000
13.114,-0.190,0.015
13.117,-0.190,0.015
13.119,-0.215,0.010
13.122,-0.250,-0.010
13.125,-0.265,-0.025
13.128,-0.285,-0.020
13.131,-0.270,0.000
13.133,-0.255,-0.015
13.136,-0.250,-0.010
13.139,-0.245,-0.025
13.142,-0.250,-0.030
13.144,-0.235,0.000
13.147,-0.240,0.005
13.150,-0.240,0.015
13.153,-0.255,0.000
13.156,-0.270,-0.015
13.158,-0.280,-0.010
13.161,-0.270,0.000
13.164,-0.250,0.005
13.167,-0.240,0.005
13.169,-0.250,-0.005
13.172,-0.250,-0.005
13.175,-0.265,-0.010
13.178,-0.265,0.000
13.181,-0.265,0.020
13.183,-0.245,0.015
13.186,-0.235,0.005
13.189,-0.250,0.015
13.192,-0.245,0.060
13.194,-0.235,0.090
13.197,-0.235,0.090
13.200,-0.215,0.055
13.203,-0.160,-0.025
13.206,-0.065,-0.145
13.208,0.060,-0.280
13.211,0.210,-0.425
13.214,0.315,-0.565
13.217,0.445,-0.715
13.219,0.560,-0.840
13.222,0.695,-0.965
13.225,0.890,-1.035
13.228,1.100,-1.095
13.231,1.280,-1.125
13.233,1.440,-1.175
13.236,1.560,-1.220
13.239,1.690,-1.255
13.242,1.825,-1.270
13.244,1.925,-1.235
13.247,1.950,-1.185
13.250,1.875,-1.175
13.253,1.665,-1.185
13.256,1.335,-1.165
13.258,0.940,-1.115
13.261,0.590,-1.030
13.264,0.375,-0.950
13.267,0.315,-0.860
13.269,0.290,-0.750
13.272,0.270,-0.665
13.275,0.230,-0.575
13.278,0.185,-0.500
13.281,0.150,-0.415
13.283,0.125,-0.375
13.286,0.095,-0.330
13.289,0.060,-0.300
13.292,0.015,-0.245
13.294,-0.020,-0.180
13.297,-0.040,-0.120
13.300,-0.045,-0.060
13.303,-0.090,-0.040
13.306,-0.145,0.000
13.308,-0.185,0.025
13.311,-0.255,0.090
13.314,-0.270,0.155
13.317,-0.290,0.190
13.319,-0.335,0.215
13.322,-0.360,0.225
13.325,-0.400,0.220
13.328,-0.425,0.255
13.331,-0.430,0.270
13.333,-0.430,0.280
13.336,-0.445,0.295
13.339,-0.465,0.285
13.342,-0.455,0.290
13.344,-0.470,0.320
13.347,-0.440,0.350
13.350,-0.425,0.340
13.353,-0.445,0.335
13.356,-0.460,0.335
13.358,-0.485,0.345
13.361,-0.485,0.370
13.364,-0.475,0.385
13.367,-0.455,0.395
13.369,-0.455,0.395
13.372,-0.480,0.385
13.375,-0.505,0.395
13.378,-0.510,0.415
13.381,-0.510,0.435
13.383,-0.480,0.450
13.386,-0.485,0.440
13.389,-0.500,0.445
13.392,-0.510,0.460
13.394,-0.510,0.500
13.397,-0.500,0.520
13.400,-0.505,0.535
13.403,-0.520,0.535
13.406,-0.535,0.550
13.408,-0.550,0.580
13.411,-0.535,0.615
13.414,-0.550,0.640
13.417,-0.545,0.655
13.419,-0.555,0.655
13.422,-0.585,0.670
13.425,-0.610,0.685
13.428,-0.590,0.715
13.431,-0.585,0.750
13.433,-0.595,0.770
13.436,-0.600,0.760
13.439,-0.630,0.745
13.442,-0.660,0.765
13.444,-0.655,0.785
13.447,-0.635,0.820
13.450,-0.625,0.830
13.453,-0.630,0.825
13.456,-0.665,0.820
13.458,-0.690,0.835
13.461,-0.685,0.860
13.464,-0.690,0.880
13.467,-0.685,0.855
13.469,-0.675,0.855
13.472,-0.695,0.830
13.475,-0.720,0.825
13.478,-0.730,0.835
13.481,-0.715,0.820
13.483,-0.695,0.820
13.486,-0.705,0.810
13.489,-0.710,0.785
13.492,-0.720,0.765
13.494,-0.715,0.765
13.497,-0.705,0.745
13.500,-0.670,0.710
13.503,-0.660,0.670
13.506,-0.660,0.630
13.508,-0.655,0.600
13.511,-0.625,0.575
13.514,-0.605,0.550
13.517,-0.575,0.515
13.519,-0.555,0.455
13.522,-0.550,0.410
13.525,-0.520,0.375
13.528,-0.480,0.360
13.531,-0.440,0.335
13.533,-0.410,0.295
13.536,-0.400,0.260
13.539,-0.405,0.210
13.542,-0.380,0.195
13.544,-0.365,0.195
13.547,-0.315,0.185
13.550,-0.295,0.175
13.553,-0.290,0.140
13.556,-0.295,0.115
13.558,-0.300,0.090
13.561,-0.295,0.090
13.564,-0.275,0.090
13.567,-0.245,0.065
13.569,-0.245,0.060
13.572,-0.255,0.035
13.575,-0.270,0.035
13.578,-0.270,0.045
13.581,-0.250,0.060
13.583,-0.235,0.055
13.586,-0.235,0.035
13.589,-0.250,0.010
13.592,-0.255,0.010
13.594,-0.255,0.020
13.597,-0.270,0.030
13.600,-0.245,0.025
13.603,-0.240,0.030
13.606,-0.250,0.010
13.608,-0.260,0.010
13.611,-0.245,0.015
13.614,-0.245,0.040
13.617,-0.225,0.020
13.619,-0.240,0.010
13.622,-0.260,0.005
13.625,-0.270,0.005
13.628,-0.280,0.025
13.631,-0.240,0.030
13.633,-0.235,0.025
13.636,-0.245,0.030
13.639,-0.270,0.010
13.642,-0.280,0.010
13.644,-0.265,0.015
13.647,-0.265,0.030
13.650,-0.245,0.040
13.653,-0.245,0.020
13.656,-0.260,0.040
13.658,-0.270,0.030
13.661,-0.275,0.040
13.664,-0.270,0.055
13.667,-0.255,0.050
13.669,-0.260,0.030
13.672,-0.270,0.025
13.675,-0.280,0.030
13.678,-0.285,0.035
13.681,-0.270,0.065
13.683,-0.265,0.070
13.686,-0.280,0.045
13.689,-0.290,0.025
13.692,-0.280,0.030
13.694,-0.265,0.045
13.697,-0.275,0.050
13.700,-0.270,0.045
13.703,-0.275,0.065
13.706,-0.280,0.035
13.708,-0.275,0.035
13.711,-0.265,0.045
13.714,-0.255,0.055
13.717,-0.245,0.070
13.719,-0.245,0.035
13.722,-0.270,0.030
13.725,-0.275,0.030
13.728,-0.275,0.045
13.731,-0.265,0.075
13.733,-0.245,0.050
13.736,-0.235,0.035
13.739,-0.240,0.015
13.742,-0.265,0.015
13.744,-0.260,0.030
13.747,-0.250,0.045
13.750,-0.230,0.040
13.753,-0.230,0.030
13.756,-0.230,0.030
13.758,-0.250,0.025
13.761,-0.240,0.050
13.764,-0.230,0.050
13.767,-0.230,0.050
13.769,-0.235,0.040
13.772,-0.255,0.015
13.775,-0.255,0.020
13.778,-0.245,0.050
13.781,-0.230,0.065
13.783,-0.225,0.055
13.786,-0.225,0.030
13.789,-0.245,0.020
13.792,-0.240,0.005
13.794,-0.225,0.025
13.797,-0.190,0.040
13.800,-0.175,0.040
13.803,-0.185,0.045
13.806,-0.190,0.020
13.808,-0.205,0.015
13.811,-0.200,0.030
13.814,-0.190,0.030
13.817,-0.175,0.040
13.819,-0.165,0.040
13.822,-0.190,0.020
13.825,-0.195,0.035
13.828,-0.200,0.035
13.831,-0.180,0.050
13.833,-0.170,0.035
13.836,-0.170,0.020
13.839,-0.170,0.000
13.842,-0.185,-0.010
13.844,-0.185,-0.010
13.847,-0.175,0.020
13.850,-0.175,0.010
13.853,-0.190,0.005
13.856,-0.185,0.005
13.858,-0.200,0.015
13.861,-0.200,0.015
13.864,-0.195,0.025
13.867,-0.190,0.015
13.869,-0.190,0.015
13.872,-0.210,-0.005
13.875,-0.245,0.000
13.878,-0.250,0.025
13.881,-0.240,0.020
13.883,-0.240,0.015
13.886,-0.245,0.005
13.889,-0.265,-0.025
13.892,-0.295,-0.030
13.894,-0.290,-0.015
13.897,-0.270,0.000
13.900,-0.250,0.005
13.903,-0.240,-0.010
13.906,-0.265,-0.015
13.908,-0.290,-0.015
13.911,-0.295,-0.005
13.914,-0.285,0.010
13.917,-0.275,0.005
13.919,-0.275,0.000
13.922,-0.270,-0.010
13.925,-0.270,-0.010
13.928,-0.285,0.015
13.931,-0.270,0.015
13.933,-0.255,0.015
13.936,-0.265,0.000
13.939,-0.275,-0.005
13.942,-0.275,0.010
13.944,-0.275,0.025
13.947,-0.250,0.070
13.950,-0.245,0.095
13.953,-0.240,0.095
13.956,-0.265,0.075
13.958,-0.265,0.075
13.961,-0.230,0.050
13.964,-0.145,0.040
13.967,-0.035,-0.025
13.969,0.045,-0.125
13.972,0.120,-0.255
13.975,0.170,-0.395
13.978,0.235,-0.545
13.981,0.335,-0.690
13.983,0.475,-0.790
13.986,0.620,-0.905
13.989,0.775,-1.000
13.992,0.940,-1.060
13.994,1.170,-1.100
13.997,1.410,-1.115
14.000,1.645,-1.125
14.003,1.835,-1.125
14.006,1.930,-1.115
14.008,1.945,-1.105
14.011,1.880,-1.100
14.014,1.705,-1.100
14.017,1.395,-1.100
14.019,1.045,-1.085
14.022,0.725,-1.060
14.025,0.525,-1.000
14.028,0.415,-0.935
14.031,0.335,-0.850
14.033,0.295,-0.780
14.036,0.240,-0.690
14.039,0.205,-0.610
14.042,0.195,-0.515
14.044,0.165,-0.435
14.047,0.150,-0.375
14.050,0.105,-0.320
14.053,0.060,-0.275
14.056,0.005,-0.230
14.058,-0.040,-0.175
14.061,-0.075,-0.090
14.064,-0.090,-0.030
14.067,-0.120,0.005
14.069,-0.160,0.030
14.072,-0.215,0.025
14.075,-0.265,0.060
14.078,-0.290,0.135
14.081,-0.305,0.180
14.083,-0.300,0.225
14.086,-0.335,0.240
14.089,-0.375,0.245
14.092,-0.405,0.250
14.094,-0.440,0.280
14.097,-0.430,0.310
14.100,-0.430,0.330
14.103,-0.450,0.305
14.106,-0.465,0.320
14.108,-0.485,0.320
14.111,-0.485,0.330
14.114,-0.480,0.365
14.117,-0.455,0.370
14.119,-0.460,0.375
14.122,-0.490,0.355
14.125,-0.510,0.360
14.128,-0.500,0.380
14.131,-0.490,0.405
14.133,-0.490,0.400
14.136,-0.485,0.415
14.139,-0.500,0.405
14.142,-0.515,0.425
14.144,-0.515,0.440
14.147,-0.515,0.465
14.150,-0.510,0.490
14.153,-0.535,0.490
14.156,-0.540,0.485
14.158,-0.565,0.495
14.161,-0.545,0.530
14.164,-0.545,0.545
14.167,-0.535,0.580
14.169,-0.550,0.565
14.172,-0.560,0.545
14.175,-0.590,0.560
14.178,-0.580,0.605
14.181,-0.560,0.635
14.183,-0.555,0.670
14.186,-0.565,0.665
14.189,-0.590,0.680
14.192,-0.615,0.680
14.194,-0.620,0.730
14.197,-0.625,0.765
14.200,-0.615,0.775
14.203,-0.625,0.785
14.206,-0.635,0.790
14.208,-0.655,0.795
14.211,-0.670,0.810
14.214,-0.660,0.840
14.217,-0.640,0.855
14.219,-0.665,0.860
14.222,-0.680,0.845
14.225,-0.700,0.860
14.228,-0.710,0.870
14.231,-0.700,0.885
14.233,-0.685,0.875
14.236,-0.700,0.850
14.239,-0.705,0.840
14.242,-0.710,0.825
14.244,-0.705,0.840
14.247,-0.710,0.835
14.250,-0.680,0.815
14.253,-0.705,0.785
14.256,-0.710,0.750
14.258,-0.715,0.715
14.261,-0.690,0.710
14.264,-0.660,0.690
14.267,-0.635,0.650
14.269,-0.625,0.625
14.272,-0.630,0.590
14.275,-0.625,0.565
14.278,-0.605,0.540
14.281,-0.565,0.540
14.283,-0.535,0.505
14.286,-0.520,0.445
14.289,-0.515,0.395
14.292,-0.500,0.360
14.294,-0.460,0.340
14.297,-0.425,0.320
14.300,-0.385,0.290
14.303,-0.375,0.240
14.306,-0.360,0.205
14.308,-0.365,0.175
14.311,-0.355,0.180
14.314,-0.320,0.175
14.317,-0.285,0.155
14.319,-0.285,0.140
14.322,-0.290,0.135
14.325,-0.300,0.130
14.328,-0.290,0.115
14.331,-0.285,0.120
14.333,-0.270,0.095
14.336,-0.280,0.065
14.339,-0.280,0.045
14.342,-0.280,0.055
14.344,-0.285,0.070
14.347,-0.270,0.080
14.350,-0.260,0.065
14.353,-0.265,0.070
14.356,-0.265,0.035
14.358,-0.280,0.035
14.361,-0.275,0.045
14.364,-0.270,0.070
14.367,-0.265,0.075
14.369,-0.275,0.045
14.372,-0.280,0.035
14.375,-0.285,0.030
14.378,-0.275,0.040
14.381,-0.265,0.050
14.383,-0.255,0.055
14.386,-0.280,0.055
14.389,-0.300,0.045
14.392,-0.305,0.035
14.394,-0.310,0.040
14.397,-0.295,0.075
14.400,-0.275,0.080
14.403,-0.270,0.055
14.406,-0.295,0.045
14.408,-0.310,0.055
14.411,-0.325,0.070
14.414,-0.305,0.090
14.417,-0.290,0.095
14.419,-0.295,0.085
14.422,-0.315,0.055
14.425,-0.325,0.060
14.428,-0.325,0.075
14.431,-0.310,0.085
14.433,-0.305,0.105
14.436,-0.300,0.085
14.439,-0.305,0.075
14.442,-0.315,0.090
14.444,-0.300,0.090
14.447,-0.295,0.095
14.450,-0.290,0.090
14.453,-0.305,0.095
14.456,-0.335,0.075
14.458,-0.325,0.070
14.461,-0.315,0.090
14.464,-0.305,0.115
14.467,-0.290,0.110
14.469,-0.295,0.085
14.472,-0.310,0.075
14.475,-0.315,0.060
14.478,-0.310,0.060
14.481,-0.295,0.085
14.483,-0.265,0.115
14.486,-0.265,0.095
14.489,-0.275,0.075
14.492,-0.305,0.065
14.494,-0.315,0.075
14.497,-0.310,0.085
14.500,-0.285,0.080
14.503,-0.280,0.075
14.506,-0.280,0.065
14.508,-0.300,0.060
14.511,-0.300,0.065
14.514,-0.285,0.070
14.517,-0.275,0.085
14.519,-0.275,0.070
14.522,-0.285,0.070
14.525,-0.310,0.060
14.528,-0.300,0.060
14.531,-0.295,0.085
14.533,-0.280,0.075
14.536,-0.275,0.075
14.539,-0.280,0.060
14.542,-0.290,0.055
14.544,-0.280,0.060
14.547,-0.265,0.060
14.550,-0.250,0.060
14.553,-0.260,0.045
14.556,-0.280,0.035
14.558,-0.265,0.040
14.561,-0.255,0.050
14.564,-0.235,0.040
14.567,-0.220,0.045
14.569,-0.200,0.045
14.572,-0.210,0.030
14.575,-0.220,0.040
14.578,-0.215,0.045
14.581,-0.210,0.070
14.583,-0.205,0.080
14.586,-0.215,0.070
14.589,-0.215,0.055
14.592,-0.220,0.040
14.594,-0.215,0.045
14.597,-0.200,0.055
14.600,-0.195,0.050
14.603,-0.195,0.045
14.606,-0.205,0.035
14.608,-0.225,0.025
14.611,-0.230,0.050
14.614,-0.215,0.045
14.617,-0.210,0.050
14.619,-0.210,0.050
14.622,-0.220,0.035
14.625,-0.235,0.040
14.628,-0.240,0.055
14.631,-0.235,0.065
14.633,-0.240,0.055
14.636,-0.255,0.045
14.639,-0.270,0.030
14.642,-0.305,0.010
14.644,-0.295,0.040
14.647,-0.280,0.030
14.650,-0.265,0.045
14.653,-0.265,0.025
14.656,-0.295,0.010
14.658,-0.325,0.015
14.661,-0.325,0.040
14.664,-0.320,0.050
14.667,-0.295,0.050
14.669,-0.290,0.035
14.672,-0.285,0.020
14.675,-0.300,0.030
14.678,-0.310,0.045
14.681,-0.320,0.065
14.683,-0.310,0.070
14.686,-0.305,0.055
14.689,-0.320,0.035
14.692,-0.330,0.030
14.694,-0.320,0.060
14.697,-0.310,0.050
14.700,-0.300,0.045
14.703,-0.310,0.020
14.706,-0.315,0.020
14.708,-0.325,0.015
14.711,-0.300,0.045
14.714,-0.295,0.065
14.717,-0.275,0.075
14.719,-0.270,0.070
14.722,-0.280,0.080
14.725,-0.300,0.085
14.728,-0.295,0.115
14.731,-0.270,0.075
14.733,-0.225,0.015
14.736,-0.150,-0.105
14.739,-0.050,-0.275
14.742,0.050,-0.435
14.744,0.160,-0.570
14.747,0.270,-0.695
14.750,0.370,-0.780
14.753,0.485,-0.860
14.756,0.555,-0.925
14.758,0.635,-0.995
14.761,0.730,-1.070
14.764,0.860,-1.125
14.767,0.985,-1.200
14.769,1.130,-1.230
14.772,1.340,-1.260
14.775,1.530,-1.225
14.778,1.705,-1.160
14.781,1.840,-1.105
14.783,1.885,-1.080
14.786,1.850,-1.080
14.789,1.735,-1.080
14.792,1.525,-1.040
14.794,1.220,-0.980
14.797,0.945,-0.915
14.800,0.700,-0.865
14.803,0.525,-0.815
14.806,0.400,-0.775
14.808,0.315,-0.720
14.811,0.280,-0.610
14.814,0.250,-0.545
14.817,0.255,-0.480
14.819,0.225,-0.435
14.822,0.185,-0.405
14.825,0.155,-0.350
14.828,0.125,-0.295
14.831,0.085,-0.215
14.833,0.050,-0.165
14.836,0.005,-0.125
14.839,-0.045,-0.095
14.842,-0.085,-0.055
14.844,-0.100,0.010
14.847,-0.120,0.065
14.850,-0.135,0.080
14.853,-0.195,0.120
14.856,-0.255,0.155
14.858,-0.310,0.205
14.861,-0.335,0.275
14.864,-0.350,0.290
14.867,-0.360,0.320
14.869,-0.385,0.315
14.872,-0.420,0.330
14.875,-0.465,0.330
14.878,-0.465,0.355
14.881,-0.465,0.375
14.883,-0.460,0.410
14.886,-0.470,0.400
14.889,-0.505,0.415
14.892,-0.525,0.400
14.894,-0.525,0.435
14.897,-0.510,0.445
14.900,-0.495,0.455
14.903,-0.505,0.460
14.906,-0.520,0.460
14.908,-0.520,0.470
14.911,-0.540,0.495
14.914,-0.520,0.525
14.917,-0.515,0.520
14.919,-0.525,0.525
14.922,-0.560,0.495
14.925,-0.550,0.500
14.928,-0.550,0.525
14.931,-0.550,0.560
14.933,-0.530,0.575
14.936,-0.540,0.575
14.939,-0.565,0.565
14.942,-0.570,0.580
14.944,-0.595,0.610
14.947,-0.575,0.620
14.950,-0.555,0.645
14.953,-0.555,0.650
14.956,-0.570,0.650
14.958,-0.610,0.670
14.961,-0.615,0.700
14.964,-0.615,0.725
14.967,-0.615,0.740
14.969,-0.605,0.750
14.972,-0.615,0.760
14.975,-0.620,0.760
14.978,-0.630,0.770
14.981,-0.645,0.785
14.983,-0.650,0.800
14.986,-0.665,0.810
14.989,-0.685,0.810
14.992,-0.710,0.840
14.994,-0.690,0.885
14.997,-0.685,0.905
15.000,-0.680,0.905
15.003,-0.695,0.900
15.006,-0.715,0.900
15.008,-0.730,0.910
15.011,-0.750,0.940
15.014,-0.740,0.970
15.017,-0.720,0.980
15.019,-0.730,0.980
15.022,-0.760,0.965
15.025,-0.770,0.960
15.028,-0.785,0.955
15.031,-0.800,0.985
15.033,-0.795,0.985
15.036,-0.790,0.975
15.039,-0.780,0.940
15.042,-0.785,0.945
15.044,-0.780,0.945
15.047,-0.790,0.945
15.050,-0.790,0.940
15.053,-0.790,0.915
15.056,-0.795,0.880
15.058,-0.780,0.865
15.061,-0.785,0.840
15.064,-0.760,0.835
15.067,-0.735,0.820
15.069,-0.720,0.780
15.072,-0.710,0.735
15.075,-0.715,0.700
15.078,-0.695,0.680
15.081,-0.675,0.660
15.083,-0.635,0.615
15.086,-0.615,0.570
15.089,-0.585,0.515
15.092,-0.565,0.500
15.094,-0.545,0.480
15.097,-0.545,0.480
15.100,-0.490,0.460
15.103,-0.470,0.420
15.106,-0.475,0.385
15.108,-0.465,0.355
15.111,-0.435,0.340
15.114,-0.410,0.335
15.117,-0.380,0.310
15.119,-0.390,0.285
15.122,-0.390,0.250
15.125,-0.395,0.245
15.128,-0.370,0.240
15.131,-0.345,0.250
15.133,-0.320,0.245
15.136,-0.310,0.215
15.139,-0.305,0.195
15.142,-0.335,0.190
15.144,-0.340,0.190
15.147,-0.315,0.175
15.150,-0.295,0.180
15.153,-0.290,0.165
15.156,-0.285,0.145
15.158,-0.305,0.150
15.161,-0.315,0.165
15.164,-0.295,0.180
15.167,-0.285,0.160
15.169,-0.275,0.155
15.172,-0.300,0.140
15.175,-0.295,0.140
15.178,-0.300,0.160
15.181,-0.290,0.175
15.183,-0.280,0.170
15.186,-0.275,0.160
15.189,-0.300,0.130
15.192,-0.325,0.130
15.194,-0.320,0.140
15.197,-0.305,0.160
15.200,-0.290,0.170
15.203,-0.285,0.150
15.206,-0.290,0.140
15.208,-0.310,0.140
15.211,-0.320,0.160
15.214,-0.300,0.170
15.217,-0.300,0.165
15.219,-0.305,0.175
15.222,-0.305,0.150
15.225,-0.315,0.145
15.228,-0.315,0.170
15.231,-0.285,0.195
15.233,-0.275,0.190
15.236,-0.300,0.175
15.239,-0.325,0.155
15.242,-0.325,0.165
15.244,-0.325,0.170
15.247,-0.305,0.185
15.250,-0.300,0.190
15.253,-0.300,0.180
15.256,-0.310,0.170
15.258,-0.320,0.175
15.261,-0.350,0.175
15.264,-0.335,0.180
15.267,-0.320,0.175
15.269,-0.315,0.170
15.272,-0.320,0.155
15.275,-0.345,0.145
15.278,-0.340,0.170
15.281,-0.340,0.170
15.283,-0.330,0.190
15.286,-0.330,0.185
15.289,-0.345,0.160
15.292,-0.350,0.170
15.294,-0.325,0.175
15.297,-0.310,0.190
15.300,-0.305,0.190
15.303,-0.320,0.180
15.306,-0.330,0.170
15.308,-0.345,0.155
15.311,-0.335,0.175
15.314,-0.320,0.200
15.317,-0.290,0.190
15.319,-0.290,0.190
15.322,-0.305,0.155
15.325,-0.330,0.155
15.328,-0.360,0.155
15.331,-0.330,0.180
15.333,-0.315,0.205
15.336,-0.300,0.185
15.339,-0.305,0.190
15.342,-0.310,0.180
15.344,-0.310,0.185
15.347,-0.295,0.185
15.350,-0.275,0.185
15.353,-0.280,0.165
15.356,-0.310,0.145
15.358,-0.330,0.145
15.361,-0.325,0.155
15.364,-0.305,0.185
15.367,-0.280,0.175
15.369,-0.280,0.180
15.372,-0.290,0.155
15.375,-0.315,0.135
15.378,-0.310,0.145
15.381,-0.305,0.165
15.383,-0.295,0.175
15.386,-0.285,0.155
15.389,-0.300,0.145
15.392,-0.295,0.130
15.394,-0.285,0.150
15.397,-0.255,0.170
15.400,-0.235,0.145
15.403,-0.225,0.135
15.406,-0.225,0.115
15.408,-0.240,0.110
15.411,-0.230,0.130
15.414,-0.210,0.150
15.417,-0.215,0.165
15.419,-0.220,0.155
15.422,-0.255,0.135
15.425,-0.255,0.140
15.428,-0.250,0.160
15.431,-0.235,0.150
15.433,-0.220,0.160
15.436,-0.215,0.140
15.439,-0.205,0.130
15.442,-0.205,0.125
15.444,-0.220,0.140
15.447,-0.215,0.155
15.450,-0.200,0.135
15.453,-0.210,0.120
15.456,-0.215,0.095
15.458,-0.235,0.100
15.461,-0.220,0.115
15.464,-0.210,0.140
15.467,-0.195,0.130
15.469,-0.200,0.115
15.472,-0.210,0.095
15.475,-0.215,0.115
15.478,-0.245,0.125
15.481,-0.220,0.125
15.483,-0.225,0.145
15.486,-0.230,0.130
15.489,-0.250,0.105
15.492,-0.275,0.110
15.494,-0.260,0.110
15.497,-0.275,0.135
15.500,-0.270,0.125
15.503,-0.270,0.120
15.506,-0.275,0.105
15.508,-0.290,0.090
15.511,-0.320,0.095
15.514,-0.305,0.100
15.517,-0.290,0.100
15.519,-0.290,0.090
15.522,-0.275,0.080
15.525,-0.285,0.080
15.528,-0.275,0.100
15.531,-0.265,0.120
15.533,-0.270,0.135
15.536,-0.280,0.125
15.539,-0.290,0.115
15.542,-0.305,0.115
15.544,-0.300,0.125
15.547,-0.280,0.130
15.550,-0.270,0.135
15.553,-0.275,0.135
15.556,-0.275,0.120
15.558,-0.290,0.110
15.561,-0.285,0.130
15.564,-0.280,0.145
15.567,-0.275,0.135
15.569,-0.265,0.120
15.572,-0.265,0.125
15.575,-0.285,0.115
15.578,-0.270,0.135
15.581,-0.245,0.160
15.583,-0.245,0.155
15.586,-0.245,0.185
15.589,-0.260,0.195
15.592,-0.285,0.195
15.594,-0.295,0.215
15.597,-0.295,0.205
15.600,-0.280,0.185
15.603,-0.260,0.145
15.606,-0.215,0.065
15.608,-0.150,-0.015
15.611,-0.035,-0.090
15.614,0.065,-0.165
15.617,0.165,-0.285
15.619,0.250,-0.385
15.622,0.320,-0.505
15.625,0.400,-0.600
15.628,0.495,-0.670
15.631,0.625,-0.735
15.633,0.765,-0.815
15.636,0.900,-0.895
15.639,1.055,-0.960
15.642,1.210,-1.025
15.644,1.375,-1.040
15.647,1.550,-1.035
15.650,1.720,-1.055
15.653,1.845,-1.085
15.656,1.925,-1.095
15.658,1.980,-1.080
15.661,1.990,-1.065
15.664,2.005,-1.025
15.667,1.990,-1.010
15.669,1.935,-1.015
15.672,1.835,-1.015
15.675,1.640,-1.015
15.678,1.370,-0.975
15.681,1.055,-0.925
15.683,0.750,-0.875
15.686,0.545,-0.820
15.689,0.395,-0.790
15.692,0.290,-0.730
15.694,0.230,-0.640
15.697,0.210,-0.545
15.700,0.195,-0.465
15.703,0.155,-0.405
15.706,0.135,-0.360
15.708,0.095,-0.325
15.711,0.070,-0.260
15.714,0.055,-0.210
15.717,0.040,-0.165
15.719,0.000,-0.150
15.722,-0.040,-0.130
15.725,-0.080,-0.090
15.728,-0.110,-0.055
15.731,-0.100,-0.010
15.733,-0.100,0.015
15.736,-0.105,0.050
15.739,-0.125,0.055
15.742,-0.145,0.095
15.744,-0.180,0.135
15.747,-0.185,0.195
15.750,-0.205,0.225
15.753,-0.240,0.245
15.756,-0.290,0.270
15.758,-0.330,0.305
15.761,-0.355,0.330
15.764,-0.350,0.360
15.767,-0.370,0.380
15.769,-0.390,0.390
15.772,-0.415,0.380
15.775,-0.455,0.400
15.778,-0.475,0.420
15.781,-0.480,0.445
15.783,-0.455,0.445
15.786,-0.460,0.470
15.789,-0.475,0.460
15.792,-0.475,0.465
15.794,-0.480,0.480
15.797,-0.460,0.495
15.800,-0.440,0.505
15.803,-0.450,0.490
15.806,-0.480,0.475
15.808,-0.495,0.480
15.811,-0.500,0.515
15.814,-0.495,0.530
15.817,-0.495,0.545
15.819,-0.495,0.535
15.822,-0.510,0.525
15.825,-0.530,0.540
15.828,-0.510,0.560
15.831,-0.505,0.565
15.833,-0.485,0.580
15.836,-0.495,0.585
15.839,-0.515,0.575
15.842,-0.540,0.580
15.844,-0.535,0.595
15.847,-0.520,0.630
15.850,-0.505,0.655
15.853,-0.505,0.635
15.856,-0.530,0.615
15.858,-0.545,0.630
15.861,-0.545,0.650
15.864,-0.535,0.665
15.867,-0.525,0.675
15.869,-0.535,0.670
15.872,-0.545,0.670
15.875,-0.560,0.680
15.878,-0.570,0.705
15.881,-0.555,0.725
15.883,-0.535,0.755
15.886,-0.540,0.750
15.889,-0.555,0.745
15.892,-0.575,0.750
15.894,-0.590,0.775
15.897,-0.580,0.795
15.900,-0.570,0.815
15.903,-0.570,0.815
15.906,-0.575,0.810
15.908,-0.605,0.840
15.911,-0.605,0.870
15.914,-0.615,0.900
15.917,-0.600,0.910
15.919,-0.620,0.915
15.922,-0.630,0.905
15.925,-0.645,0.915
15.928,-0.660,0.940
15.931,-0.635,0.960
15.933,-0.635,0.955
15.936,-0.645,0.950
15.939,-0.645,0.955
15.942,-0.655,0.965
15.944,-0.660,0.975
15.947,-0.655,1.010
15.950,-0.655,1.010
15.953,-0.675,1.020
15.956,-0.710,0.995
15.958,-0.715,1.005
15.961,-0.700,1.025
15.964,-0.700,1.050
15.967,-0.695,1.035
15.969,-0.700,1.035
15.972,-0.715,1.030
15.975,-0.725,1.005
15.978,-0.730,1.020
15.981,-0.725,1.030
15.983,-0.705,1.020
15.986,-0.710,0.995
15.989,-0.715,0.975
15.992,-0.730,0.965
15.994,-0.730,0.965
15.997,-0.710,0.960
16.000,-0.700,0.950
16.003,-0.695,0.915
16.006,-0.705,0.885
16.008,-0.710,0.855
16.011,-0.690,0.845
16.014,-0.685,0.845
16.017,-0.645,0.810
16.019,-0.645,0.785
16.022,-0.645,0.730
16.025,-0.635,0.685
16.028,-0.610,0.685
16.031,-0.585,0.685
16.033,-0.555,0.655
16.036,-0.550,0.610
16.039,-0.530,0.570
16.042,-0.525,0.535
16.044,-0.515,0.515
16.047,-0.480,0.510
16.050,-0.460,0.485
16.053,-0.455,0.440
16.056,-0.430,0.410
16.058,-0.425,0.395
16.061,-0.390,0.380
16.064,-0.355,0.380
16.067,-0.335,0.365
16.069,-0.330,0.345
16.072,-0.335,0.330
16.075,-0.330,0.305
16.078,-0.340,0.300
16.081,-0.325,0.305
16.083,-0.305,0.300
16.086,-0.315,0.265
16.089,-0.295,0.245
16.092,-0.305,0.240
16.094,-0.295,0.240
16.097,-0.285,0.250
16.100,-0.255,0.255
16.103,-0.265,0.220
16.106,-0.280,0.210
16.108,-0.280,0.210
16.111,-0.285,0.210
16.114,-0.260,0.210
16.117,-0.255,0.210
16.119,-0.255,0.210
16.122,-0.285,0.190
16.125,-0.295,0.180
16.128,-0.285,0.195
16.131,-0.285,0.200
16.133,-0.260,0.195
16.136,-0.255,0.195
16.139,-0.270,0.170
16.142,-0.285,0.180
16.144,-0.300,0.190
16.147,-0.285,0.195
16.150,-0.270,0.205
16.153,-0.265,0.190
16.156,-0.285,0.195
16.158,-0.290,0.170
16.161,-0.295,0.200
16.164,-0.285,0.200
16.167,-0.285,0.215
16.169,-0.290,0.205
16.172,-0.295,0.195
16.175,-0.290,0.190
16.178,-0.280,0.205
16.181,-0.275,0.235
16.183,-0.270,0.245
16.186,-0.250,0.215
16.189,-0.285,0.210
16.192,-0.300,0.200
16.194,-0.320,0.205
16.197,-0.305,0.235
16.200,-0.270,0.250
16.203,-0.280,0.230
16.206,-0.280,0.215
16.208,-0.310,0.215
16.211,-0.320,0.235
16.214,-0.280,0.255
16.217,-0.265,0.235
16.219,-0.265,0.240
16.222,-0.280,0.215
16.225,-0.305,0.220
16.228,-0.305,0.235
16.231,-0.290,0.255
16.233,-0.270,0.240
16.236,-0.275,0.220
16.239,-0.280,0.220
16.242,-0.295,0.210
16.244,-0.290,0.235
16.247,-0.275,0.240
16.250,-0.265,0.250
16.253,-0.275,0.245
16.256,-0.295,0.215
16.258,-0.300,0.215
16.261,-0.285,0.220
16.264,-0.285,0.235
16.267,-0.260,0.250
16.269,-0.265,0.235
16.272,-0.290,0.220
16.275,-0.305,0.225
16.278,-0.315,0.230
16.281,-0.275,0.245
16.283,-0.245,0.245
16.286,-0.255,0.220
16.289,-0.260,0.210
16.292,-0.285,0.220
16.294,-0.285,0.220
16.297,-0.285,0.235
16.300,-0.270,0.235
16.303,-0.285,0.225
16.306,-0.290,0.205
16.308,-0.310,0.205
16.311,-0.285,0.205
16.314,-0.290,0.230
16.317,-0.275,0.225
16.319,-0.270,0.215
16.322,-0.275,0.200
16.325,-0.285,0.205
16.328,-0.275,0.195
16.331,-0.240,0.205
16.333,-0.235,0.205
16.336,-0.235,0.200
16.339,-0.225,0.185
16.342,-0.235,0.205
16.344,-0.235,0.210
16.347,-0.200,0.230
16.350,-0.210,0.220
16.353,-0.200,0.210
16.356,-0.205,0.205
16.358,-0.220,0.175
16.361,-0.230,0.205
16.364,-0.210,0.205
16.367,-0.190,0.215
16.369,-0.165,0.190
16.372,-0.185,0.170
16.375,-0.195,0.170
16.378,-0.215,0.175
16.381,-0.215,0.195
16.383,-0.195,0.190
16.386,-0.190,0.175
16.389,-0.205,0.190
16.392,-0.210,0.190
16.394,-0.210,0.195
16.397,-0.220,0.230
16.400,-0.210,0.230
16.403,-0.230,0.205
16.406,-0.245,0.185
16.408,-0.245,0.165
16.411,-0.245,0.195
16.414,-0.235,0.205
16.417,-0.225,0.210
16.419,-0.260,0.200
16.422,-0.285,0.155
16.425,-0.310,0.165
16.428,-0.325,0.175
16.431,-0.305,0.185
16.433,-0.270,0.175
16.436,-0.275,0.175
16.439,-0.285,0.145
16.442,-0.315,0.155
16.444,-0.315,0.170
16.447,-0.285,0.190
16.450,-0.285,0.200
16.453,-0.295,0.190
16.456,-0.300,0.190
16.458,-0.310,0.165
16.461,-0.310,0.175
16.464,-0.300,0.185
16.467,-0.295,0.205
16.469,-0.295,0.185
16.472,-0.305,0.165
16.475,-0.305,0.175
16.478,-0.310,0.185
16.481,-0.280,0.190
16.483,-0.280,0.205
16.486,-0.285,0.190
16.489,-0.290,0.185
16.492,-0.300,0.215
16.494,-0.300,0.235
16.497,-0.290,0.290
16.500,-0.275,0.310
16.503,-0.290,0.300
16.506,-0.305,0.275
16.508,-0.315,0.250
16.511,-0.270,0.210
16.514,-0.195,0.140
16.517,-0.070,0.025
16.519,0.045,-0.130
16.522,0.125,-0.290
16.525,0.200,-0.450
16.528,0.300,-0.575
16.531,0.415,-0.655
16.533,0.560,-0.740
16.536,0.735,-0.825
16.539,0.910,-0.885
16.542,1.100,-0.905
16.544,1.300,-0.920
16.547,1.545,-0.920
16.550,1.755,-0.905
16.553,1.910,-0.910
16.556,1.970,-0.910
16.558,2.000,-0.895
16.561,1.970,-0.890
16.564,1.890,-0.870
16.567,1.745,-0.845
16.569,1.435,-0.840
16.572,1.030,-0.805
16.575,0.655,-0.750
16.578,0.425,-0.695
16.581,0.325,-0.625
16.583,0.265,-0.535
16.586,0.240,-0.455
16.589,0.190,-0.395
16.592,0.150,-0.315
16.594,0.120,-0.260
16.597,0.095,-0.200
16.600,0.080,-0.160
16.603,0.035,-0.115
16.606,-0.015,-0.090
16.608,-0.065,-0.060
16.611,-0.085,-0.015
16.614,-0.110,0.025
16.617,-0.110,0.100
16.619,-0.140,0.135
16.622,-0.180,0.165
16.625,-0.220,0.210
16.628,-0.245,0.250
16.631,-0.265,0.300
16.633,-0.290,0.335
16.636,-0.325,0.340
16.639,-0.365,0.365
16.642,-0.400,0.380
16.644,-0.415,0.440
16.647,-0.415,0.460
16.650,-0.420,0.475
16.653,-0.435,0.460
16.656,-0.455,0.465
16.658,-0.495,0.470
16.661,-0.495,0.465
16.664,-0.480,0.480
16.667,-0.460,0.515
16.669,-0.465,0.505
16.672,-0.475,0.510
16.675,-0.480,0.505
16.678,-0.490,0.540
16.681,-0.485,0.560
16.683,-0.485,0.575
16.686,-0.480,0.575
16.689,-0.485,0.555
16.692,-0.505,0.575
16.694,-0.510,0.595
16.697,-0.500,0.635
16.700,-0.495,0.635
16.703,-0.515,0.630
16.706,-0.515,0.630
16.708,-0.530,0.635
16.711,-0.530,0.660
16.714,-0.515,0.685
16.717,-0.520,0.685
16.719,-0.550,0.690
16.722,-0.585,0.690
16.725,-0.590,0.715
16.728,-0.585,0.720
16.731,-0.570,0.760
16.733,-0.545,0.770
16.736,-0.545,0.770
16.739,-0.575,0.795
16.742,-0.605,0.795
16.744,-0.590,0.825
16.747,-0.595,0.880
16.750,-0.585,0.890
16.753,-0.585,0.885
16.756,-0.605,0.890
16.758,-0.605,0.890
16.761,-0.625,0.915
16.764,-0.635,0.950
16.767,-0.635,0.965
16.769,-0.660,0.975
16.772,-0.670,0.970
16.775,-0.665,0.975
16.778,-0.645,0.990
16.781,-0.635,1.025
16.783,-0.640,1.035
16.786,-0.675,1.040
16.789,-0.720,1.035
16.792,-0.715,1.050
16.794,-0.720,1.045
16.797,-0.725,1.065
16.800,-0.715,1.065
16.803,-0.725,1.020
16.806,-0.740,1.005
16.808,-0.740,1.000
16.811,-0.745,0.995
16.814,-0.745,1.000
16.817,-0.730,0.980
16.819,-0.710,0.960
16.822,-0.720,0.935
16.825,-0.730,0.900
16.828,-0.725,0.890
16.831,-0.705,0.880
16.833,-0.650,0.850
16.836,-0.630,0.810
16.839,-0.640,0.765
16.842,-0.625,0.735
16.844,-0.620,0.705
16.847,-0.595,0.695
16.850,-0.550,0.640
16.853,-0.530,0.600
16.856,-0.520,0.555
16.858,-0.500,0.525
16.861,-0.495,0.495
16.864,-0.455,0.490
16.867,-0.405,0.460
16.869,-0.390,0.435
16.872,-0.380,0.385
16.875,-0.385,0.365
16.878,-0.365,0.370
16.881,-0.355,0.355
16.883,-0.335,0.355
16.886,-0.325,0.325
16.889,-0.335,0.305
16.892,-0.335,0.285
16.894,-0.325,0.295
16.897,-0.310,0.305
16.900,-0.295,0.280
16.903,-0.315,0.265
16.906,-0.325,0.245
16.908,-0.345,0.230
16.911,-0.330,0.255
16.914,-0.300,0.270
16.917,-0.290,0.245
16.919,-0.295,0.255
16.922,-0.330,0.230
16.925,-0.325,0.215
16.928,-0.330,0.215
16.931,-0.320,0.245
16.933,-0.295,0.250
16.936,-0.305,0.240
16.939,-0.320,0.215
16.942,-0.335,0.220
16.944,-0.340,0.225
16.947,-0.315,0.235
16.950,-0.305,0.240
16.953,-0.315,0.230
16.956,-0.335,0.225
16.958,-0.345,0.230
16.961,-0.365,0.235
16.964,-0.345,0.250
16.967,-0.330,0.230
16.969,-0.320,0.250
16.972,-0.335,0.250
16.975,-0.345,0.225
16.978,-0.355,0.250
16.981,-0.350,0.265
16.983,-0.335,0.255
16.986,-0.350,0.250
16.989,-0.360,0.230
16.992,-0.370,0.235
16.994,-0.385,0.230
16.997,-0.370,0.275
17.000,-0.350,0.260
17.003,-0.330,0.260
17.006,-0.350,0.255
17.008,-0.350,0.240
17.011,-0.355,0.250
17.014,-0.350,0.255
17.017,-0.335,0.260
17.019,-0.350,0.260
17.022,-0.350,0.250
17.025,-0.340,0.245
17.028,-0.360,0.250
17.031,-0.345,0.275
17.033,-0.340,0.280
17.036,-0.345,0.270
17.039,-0.335,0.245
17.042,-0.345,0.240
17.044,-0.330,0.255
17.047,-0.330,0.260
17.050,-0.315,0.260
17.053,-0.325,0.245
17.056,-0.340,0.230
17.058,-0.345,0.210
17.061,-0.350,0.220
17.064,-0.330,0.235
17.067,-0.310,0.240
17.069,-0.320,0.235
17.072,-0.335,0.215
17.075,-0.345,0.205
17.078,-0.335,0.210
17.081,-0.315,0.230
17.083,-0.305,0.220
17.086,-0.300,0.210
17.089,-0.315,0.200
17.092,-0.335,0.190
17.094,-0.335,0.225
17.097,-0.335,0.225
17.100,-0.310,0.235
17.103,-0.305,0.195
17.106,-0.315,0.195
17.108,-0.320,0.185
17.111,-0.320,0.185
