'Elapsed time','MLII','V1'
'seconds','mV','mV'
0.000,0.045,-0.760
0.003,0.045,-0.760
0.006,0.045,-0.760
0.008,0.045,-0.760
0.011,0.045,-0.760
0.014,0.045,-0.760
0.017,0.045,-0.760
0.019,0.045,-0.770
0.022,0.045,-0.760
0.025,0.035,-0.740
0.028,0.030,-0.720
0.031,0.045,-0.685
0.033,0.050,-0.655
0.036,0.065,-0.640
0.039,0.035,-0.645
0.042,0.030,-0.610
0.044,0.015,-0.570
0.047,0.040,-0.530
0.050,0.045,-0.485
0.053,0.020,-0.470
0.056,0.010,-0.450
0.058,-0.020,-0.420
0.061,-0.010,-0.395
0.064,-0.010,-0.350
0.067,-0.015,-0.320
0.069,-0.035,-0.295
0.072,-0.055,-0.290
0.075,-0.070,-0.250
0.078,-0.085,-0.225
0.081,-0.075,-0.175
0.083,-0.075,-0.160
0.086,-0.100,-0.145
0.089,-0.120,-0.125
0.092,-0.135,-0.105
0.094,-0.150,-0.080
0.097,-0.130,-0.045
0.100,-0.130,-0.020
0.103,-0.135,-0.010
0.106,-0.155,-0.005
0.108,-0.170,0.000
0.111,-0.175,0.040
0.114,-0.165,0.050
0.117,-0.160,0.080
0.119,-0.175,0.075
0.122,-0.205,0.065
0.125,-0.200,0.075
0.128,-0.195,0.085
0.131,-0.205,0.100
0.133,-0.190,0.120
0.136,-0.195,0.110
0.139,-0.210,0.105
0.142,-0.210,0.105
0.144,-0.205,0.100
0.147,-0.190,0.115
0.150,-0.175,0.115
0.153,-0.190,0.100
0.156,-0.195,0.080
0.158,-0.205,0.070
0.161,-0.200,0.080
0.164,-0.185,0.110
0.167,-0.170,0.115
0.169,-0.155,0.125
0.172,-0.185,0.110
0.175,-0.195,0.120
0.178,-0.205,0.125
0.181,-0.185,0.145
0.183,-0.175,0.150
0.186,-0.180,0.140
0.189,-0.190,0.135
0.192,-0.220,0.135
0.194,-0.200,0.140
0.197,-0.180,0.155
0.200,-0.185,0.170
0.203,-0.180,0.150
0.206,-0.195,0.150
0.208,-0.220,0.155
0.211,-0.200,0.160
0.214,-0.175,0.175
0.217,-0.175,0.175
0.219,-0.185,0.170
0.222,-0.200,0.150
0.225,-0.215,0.150
0.228,-0.225,0.170
0.231,-0.210,0.185
0.233,-0.195,0.190
0.236,-0.200,0.170
0.239,-0.215,0.160
0.242,-0.235,0.160
0.244,-0.235,0.170
0.247,-0.220,0.175
0.250,-0.225,0.180
0.253,-0.215,0.165
0.256,-0.230,0.160
0.258,-0.240,0.145
0.261,-0.245,0.155
0.264,-0.230,0.165
0.267,-0.210,0.165
0.269,-0.215,0.150
0.272,-0.220,0.145
0.275,-0.235,0.130
0.278,-0.220,0.145
0.281,-0.205,0.165
0.283,-0.215,0.150
0.286,-0.205,0.145
0.289,-0.205,0.150
0.292,-0.215,0.155
0.294,-0.250,0.165
0.297,-0.215,0.175
0.300,-0.200,0.185
0.303,-0.215,0.165
0.306,-0.220,0.160
0.308,-0.240,0.160
0.311,-0.230,0.175
0.314,-0.215,0.180
0.317,-0.200,0.185
0.319,-0.200,0.185
0.322,-0.215,0.160
0.325,-0.210,0.160
0.328,-0.215,0.175
0.331,-0.200,0.185
0.333,-0.190,0.190
0.336,-0.190,0.170
0.339,-0.200,0.150
0.342,-0.195,0.165
0.344,-0.205,0.170
0.347,-0.215,0.180
0.350,-0.190,0.180
0.353,-0.195,0.180
0.356,-0.225,0.155
0.358,-0.220,0.160
0.361,-0.235,0.170
0.364,-0.230,0.180
0.367,-0.195,0.190
0.369,-0.210,0.165
0.372,-0.220,0.135
0.375,-0.225,0.145
0.378,-0.220,0.145
0.381,-0.195,0.155
0.383,-0.175,0.155
0.386,-0.175,0.155
0.389,-0.190,0.140
0.392,-0.200,0.140
0.394,-0.210,0.145
0.397,-0.195,0.135
0.400,-0.185,0.145
0.403,-0.165,0.135
0.406,-0.180,0.125
0.408,-0.195,0.115
0.411,-0.195,0.135
0.414,-0.185,0.145
0.417,-0.170,0.155
0.419,-0.185,0.160
0.422,-0.195,0.145
0.425,-0.200,0.145
0.428,-0.200,0.160
0.431,-0.180,0.165
0.433,-0.150,0.160
0.436,-0.175,0.160
0.439,-0.170,0.150
0.442,-0.190,0.135
0.444,-0.195,0.150
0.447,-0.165,0.155
0.450,-0.145,0.170
0.453,-0.145,0.140
0.456,-0.165,0.135
0.458,-0.170,0.140
0.461,-0.160,0.160
0.464,-0.150,0.170
0.467,-0.150,0.170
0.469,-0.145,0.155
0.472,-0.155,0.130
0.475,-0.170,0.135
0.478,-0.160,0.125
0.481,-0.165,0.145
0.483,-0.140,0.150
0.486,-0.150,0.125
0.489,-0.165,0.105
0.492,-0.205,0.100
0.494,-0.195,0.105
0.497,-0.190,0.125
0.500,-0.155,0.110
0.503,-0.165,0.095
0.506,-0.175,0.090
0.508,-0.165,0.080
0.511,-0.155,0.105
0.514,-0.145,0.105
0.517,-0.130,0.100
0.519,-0.125,0.075
0.522,-0.115,0.045
0.525,-0.105,0.050
0.528,-0.085,0.060
0.531,-0.030,0.080
0.533,0.045,0.075
0.536,0.170,0.065
0.539,0.455,0.065
0.542,0.905,0.065
0.544,1.415,0.070
0.547,1.650,0.065
0.550,1.520,0.020
0.553,1.225,-0.080
0.556,1.030,-0.250
0.558,0.940,-0.525
0.561,0.860,-0.860
0.564,0.795,-1.075
0.567,0.700,-1.075
0.569,0.590,-0.955
0.572,0.450,-0.860
0.575,0.350,-0.835
0.578,0.250,-0.800
0.581,0.145,-0.765
0.583,0.035,-0.750
0.586,-0.070,-0.755
0.589,-0.205,-0.765
0.592,-0.330,-0.760
0.594,-0.465,-0.755
0.597,-0.595,-0.765
0.600,-0.750,-0.775
0.603,-0.910,-0.790
0.606,-1.050,-0.805
0.608,-1.185,-0.805
0.611,-1.275,-0.805
0.614,-1.350,-0.810
0.617,-1.420,-0.820
0.619,-1.485,-0.835
0.622,-1.550,-0.855
0.625,-1.600,-0.865
0.628,-1.605,-0.890
0.631,-1.590,-0.890
0.633,-1.550,-0.910
0.636,-1.510,-0.940
0.639,-1.465,-0.985
0.642,-1.420,-1.025
0.644,-1.325,-1.060
0.647,-1.205,-1.085
0.650,-1.070,-1.095
0.653,-0.970,-1.110
0.656,-0.865,-1.110
0.658,-0.780,-1.080
0.661,-0.675,-1.035
0.664,-0.620,-0.955
0.667,-0.575,-0.910
0.669,-0.535,-0.885
0.672,-0.475,-0.870
0.675,-0.385,-0.825
0.678,-0.290,-0.770
0.681,-0.190,-0.690
0.683,-0.100,-0.600
0.686,-0.035,-0.520
0.689,-0.005,-0.430
0.692,0.015,-0.320
0.694,0.035,-0.190
0.697,0.060,-0.090
0.700,0.085,0.005
0.703,0.105,0.050
0.706,0.090,0.080
0.708,0.090,0.105
0.711,0.095,0.120
0.714,0.120,0.150
0.717,0.140,0.180
0.719,0.130,0.170
0.722,0.100,0.175
0.725,0.095,0.180
0.728,0.105,0.195
0.731,0.115,0.215
0.733,0.155,0.230
0.736,0.145,0.220
0.739,0.140,0.205
0.742,0.130,0.225
0.744,0.125,0.220
0.747,0.150,0.255
0.750,0.180,0.265
0.753,0.175,0.260
0.756,0.180,0.235
0.758,0.185,0.235
0.761,0.195,0.250
0.764,0.225,0.245
0.767,0.250,0.270
0.769,0.285,0.255
0.772,0.270,0.245
0.775,0.285,0.245
0.778,0.300,0.255
0.781,0.330,0.280
0.783,0.355,0.285
0.786,0.365,0.285
0.789,0.355,0.285
0.792,0.360,0.305
0.794,0.380,0.330
0.797,0.395,0.345
0.800,0.425,0.360
0.803,0.435,0.345
0.806,0.435,0.355
0.808,0.435,0.365
0.811,0.445,0.385
0.814,0.470,0.400
0.817,0.500,0.410
0.819,0.515,0.390
0.822,0.515,0.385
0.825,0.530,0.395
0.828,0.525,0.425
0.831,0.555,0.450
0.833,0.580,0.450
0.836,0.610,0.450
0.839,0.595,0.440
0.842,0.620,0.450
0.844,0.630,0.465
0.847,0.650,0.480
0.850,0.670,0.500
0.853,0.670,0.490
0.856,0.665,0.485
0.858,0.650,0.495
0.861,0.645,0.525
0.864,0.660,0.535
0.867,0.650,0.550
0.869,0.665,0.550
0.872,0.655,0.545
0.875,0.650,0.540
0.878,0.650,0.560
0.881,0.660,0.580
0.883,0.670,0.595
0.886,0.670,0.575
0.889,0.650,0.565
0.892,0.630,0.555
0.894,0.600,0.580
0.897,0.610,0.570
0.900,0.605,0.570
0.903,0.590,0.555
0.906,0.555,0.540
0.908,0.520,0.540
0.911,0.505,0.545
0.914,0.490,0.575
0.917,0.475,0.555
0.919,0.450,0.555
0.922,0.405,0.525
0.925,0.370,0.515
0.928,0.340,0.515
0.931,0.320,0.520
0.933,0.305,0.500
0.936,0.300,0.480
0.939,0.265,0.460
0.942,0.235,0.445
0.944,0.205,0.440
0.947,0.210,0.445
0.950,0.190,0.430
0.953,0.180,0.395
0.956,0.150,0.365
0.958,0.120,0.350
0.961,0.100,0.340
0.964,0.090,0.340
0.967,0.090,0.320
0.969,0.070,0.310
0.972,0.050,0.270
0.975,0.040,0.255
0.978,0.030,0.245
0.981,0.035,0.265
0.983,0.030,0.255
0.986,0.015,0.235
0.989,-0.005,0.215
0.992,-0.015,0.200
0.994,-0.030,0.215
0.997,-0.025,0.230
1.000,-0.015,0.220
1.003,-0.020,0.215
1.006,-0.030,0.200
1.008,-0.040,0.185
1.011,-0.050,0.190
1.014,-0.050,0.190
1.017,-0.030,0.190
1.019,-0.035,0.180
1.022,-0.045,0.170
1.025,-0.065,0.165
1.028,-0.065,0.165
1.031,-0.050,0.160
1.033,-0.040,0.160
1.036,-0.015,0.140
1.039,-0.015,0.110
1.042,-0.025,0.120
1.044,-0.035,0.125
1.047,-0.015,0.160
1.050,-0.010,0.155
1.053,-0.015,0.135
1.056,-0.025,0.120
1.058,-0.050,0.120
1.061,-0.050,0.135
1.064,-0.050,0.160
1.067,-0.035,0.165
1.069,-0.040,0.150
1.072,-0.065,0.140
1.075,-0.065,0.140
1.078,-0.070,0.160
1.081,-0.060,0.170
1.083,-0.050,0.170
1.086,-0.065,0.170
1.089,-0.080,0.160
1.092,-0.095,0.155
1.094,-0.105,0.160
1.097,-0.095,0.170
1.100,-0.075,0.170
1.103,-0.100,0.155
1.106,-0.100,0.140
1.108,-0.120,0.145
1.111,-0.120,0.155
1.114,-0.110,0.175
1.117,-0.115,0.175
1.119,-0.110,0.160
1.122,-0.120,0.155
1.125,-0.150,0.140
1.128,-0.135,0.160
1.131,-0.130,0.175
1.133,-0.140,0.180
1.136,-0.145,0.175
1.139,-0.150,0.165
1.142,-0.175,0.155
1.144,-0.185,0.170
1.147,-0.180,0.170
1.150,-0.170,0.170
1.153,-0.180,0.155
1.156,-0.185,0.145
1.158,-0.200,0.135
1.161,-0.190,0.150
1.164,-0.155,0.150
1.167,-0.145,0.160
1.169,-0.145,0.145
1.172,-0.155,0.120
1.175,-0.175,0.115
1.178,-0.160,0.120
1.181,-0.145,0.125
1.183,-0.140,0.120
1.186,-0.150,0.115
1.189,-0.155,0.085
1.192,-0.170,0.080
1.194,-0.160,0.100
1.197,-0.150,0.105
1.200,-0.150,0.100
1.203,-0.160,0.105
1.206,-0.150,0.090
1.208,-0.170,0.095
1.211,-0.170,0.110
1.214,-0.160,0.115
1.217,-0.150,0.125
1.219,-0.160,0.110
1.222,-0.150,0.105
1.225,-0.175,0.100
1.228,-0.170,0.105
1.231,-0.180,0.125
1.233,-0.160,0.130
1.236,-0.165,0.115
1.239,-0.180,0.100
1.242,-0.190,0.100
1.244,-0.185,0.100
1.247,-0.180,0.115
1.250,-0.170,0.115
1.253,-0.180,0.095
1.256,-0.205,0.105
1.258,-0.215,0.100
1.261,-0.200,0.110
1.264,-0.185,0.115
1.267,-0.175,0.115
1.269,-0.170,0.110
1.272,-0.190,0.105
1.275,-0.195,0.100
1.278,-0.200,0.120
1.281,-0.215,0.130
1.283,-0.200,0.125
1.286,-0.210,0.125
1.289,-0.205,0.110
1.292,-0.215,0.105
1.294,-0.220,0.115
1.297,-0.200,0.110
1.300,-0.190,0.120
1.303,-0.195,0.115
1.306,-0.215,0.090
1.308,-0.200,0.085
1.311,-0.215,0.090
1.314,-0.175,0.095
1.317,-0.160,0.085
1.319,-0.160,0.080
1.322,-0.150,0.055
1.325,-0.155,0.065
1.328,-0.160,0.070
1.331,-0.130,0.085
1.333,-0.115,0.075
1.336,-0.120,0.065
1.339,-0.115,0.035
1.342,-0.115,0.040
1.344,-0.080,0.055
1.347,-0.040,0.060
1.350,0.010,0.065
1.353,0.100,0.050
1.356,0.275,0.040
1.358,0.625,0.045
1.361,1.125,0.050
1.364,1.530,0.050
1.367,1.600,0.015
1.369,1.365,-0.065
1.372,1.085,-0.195
1.375,0.955,-0.430
1.378,0.885,-0.755
1.381,0.820,-1.070
1.383,0.735,-1.265
1.386,0.645,-1.250
1.389,0.555,-1.145
1.392,0.445,-1.040
1.394,0.350,-0.970
1.397,0.250,-0.930
1.400,0.165,-0.900
1.403,0.060,-0.885
1.406,-0.075,-0.875
1.408,-0.190,-0.865
1.411,-0.320,-0.850
1.414,-0.430,-0.835
1.417,-0.535,-0.845
1.419,-0.665,-0.855
1.422,-0.825,-0.875
1.425,-0.975,-0.895
1.428,-1.125,-0.885
1.431,-1.245,-0.880
1.433,-1.340,-0.875
1.436,-1.430,-0.890
1.439,-1.515,-0.895
1.442,-1.600,-0.890
1.444,-1.665,-0.900
1.447,-1.710,-0.895
1.450,-1.740,-0.895
1.453,-1.790,-0.910
1.456,-1.810,-0.930
1.458,-1.830,-0.945
1.461,-1.835,-0.940
1.464,-1.775,-0.935
1.467,-1.725,-0.955
1.469,-1.690,-0.995
1.472,-1.645,-1.025
1.475,-1.580,-1.045
1.478,-1.470,-1.040
1.481,-1.350,-1.055
1.483,-1.195,-1.070
1.486,-1.070,-1.090
1.489,-0.950,-1.075
1.492,-0.880,-1.040
1.494,-0.825,-0.980
1.497,-0.775,-0.920
1.500,-0.720,-0.880
1.503,-0.665,-0.850
1.506,-0.615,-0.810
1.508,-0.565,-0.770
1.511,-0.500,-0.705
1.514,-0.430,-0.650
1.517,-0.365,-0.580
1.519,-0.310,-0.550
1.522,-0.265,-0.495
1.525,-0.225,-0.435
1.528,-0.175,-0.360
1.531,-0.100,-0.280
1.533,-0.025,-0.215
1.536,0.020,-0.170
1.539,0.050,-0.130
1.542,0.065,-0.055
1.544,0.095,0.000
1.547,0.120,0.050
1.550,0.170,0.080
1.553,0.170,0.115
1.556,0.165,0.125
1.558,0.185,0.135
1.561,0.190,0.155
1.564,0.205,0.180
1.567,0.230,0.205
1.569,0.235,0.200
1.572,0.230,0.190
1.575,0.230,0.200
1.578,0.235,0.220
1.581,0.255,0.235
1.583,0.285,0.245
1.586,0.290,0.240
1.589,0.280,0.230
1.592,0.275,0.235
1.594,0.260,0.240
1.597,0.305,0.245
1.600,0.320,0.245
1.603,0.320,0.235
1.606,0.315,0.220
1.608,0.315,0.220
1.611,0.345,0.240
1.614,0.365,0.255
1.617,0.385,0.250
1.619,0.400,0.245
1.622,0.405,0.245
1.625,0.410,0.235
1.628,0.440,0.250
1.631,0.460,0.260
1.633,0.500,0.255
1.636,0.500,0.260
1.639,0.505,0.235
1.642,0.505,0.260
1.644,0.535,0.280
1.647,0.570,0.305
1.650,0.600,0.330
1.653,0.615,0.330
1.656,0.625,0.330
1.658,0.635,0.330
1.661,0.650,0.355
1.664,0.680,0.375
1.667,0.705,0.380
1.669,0.725,0.395
1.672,0.740,0.390
1.675,0.755,0.400
1.678,0.775,0.420
1.681,0.800,0.430
1.683,0.845,0.435
1.686,0.850,0.435
1.689,0.860,0.445
1.692,0.880,0.455
1.694,0.905,0.455
1.697,0.925,0.485
1.700,0.945,0.480
1.703,0.955,0.465
1.706,0.975,0.475
1.708,0.980,0.480
1.711,1.005,0.505
1.714,1.025,0.535
1.717,1.055,0.535
1.719,1.045,0.540
1.722,1.030,0.540
1.725,1.025,0.555
1.728,1.045,0.570
1.731,1.060,0.585
1.733,1.060,0.580
1.736,1.050,0.585
1.739,1.055,0.580
1.742,1.020,0.590
1.744,1.005,0.600
1.747,0.990,0.610
1.750,0.975,0.615
1.753,0.940,0.600
1.756,0.905,0.575
1.758,0.885,0.570
1.761,0.850,0.585
1.764,0.825,0.595
1.767,0.815,0.585
1.769,0.765,0.565
1.772,0.725,0.540
1.775,0.680,0.520
1.778,0.650,0.510
1.781,0.620,0.530
1.783,0.610,0.520
1.786,0.560,0.495
1.789,0.495,0.470
1.792,0.445,0.455
1.794,0.400,0.455
1.797,0.380,0.455
1.800,0.355,0.445
1.803,0.300,0.415
1.806,0.265,0.395
1.808,0.215,0.380
1.811,0.180,0.370
1.814,0.175,0.370
1.817,0.160,0.360
1.819,0.125,0.320
1.822,0.080,0.295
1.825,0.055,0.280
1.828,0.050,0.295
1.831,0.035,0.295
1.833,0.025,0.275
1.836,0.010,0.255
1.839,-0.020,0.240
1.842,-0.045,0.225
1.844,-0.045,0.240
1.847,-0.060,0.240
1.850,-0.055,0.225
1.853,-0.065,0.225
1.856,-0.095,0.195
1.858,-0.105,0.195
1.861,-0.110,0.190
1.864,-0.105,0.185
1.867,-0.095,0.205
1.869,-0.100,0.190
1.872,-0.115,0.175
1.875,-0.155,0.165
1.878,-0.160,0.170
1.881,-0.145,0.190
1.883,-0.130,0.185
1.886,-0.145,0.165
1.889,-0.150,0.155
1.892,-0.150,0.150
1.894,-0.155,0.145
1.897,-0.130,0.155
1.900,-0.130,0.145
1.903,-0.130,0.115
1.906,-0.150,0.100
1.908,-0.150,0.105
1.911,-0.140,0.105
1.914,-0.120,0.120
1.917,-0.100,0.115
1.919,-0.100,0.100
1.922,-0.115,0.090
1.925,-0.135,0.090
1.928,-0.130,0.100
1.931,-0.135,0.115
1.933,-0.120,0.125
1.936,-0.130,0.105
1.939,-0.140,0.105
1.942,-0.145,0.090
1.944,-0.165,0.100
1.947,-0.170,0.120
1.950,-0.145,0.115
1.953,-0.145,0.105
1.956,-0.165,0.090
1.958,-0.180,0.100
1.961,-0.185,0.105
1.964,-0.190,0.135
1.967,-0.175,0.120
1.969,-0.200,0.100
1.972,-0.205,0.110
1.975,-0.220,0.110
1.978,-0.210,0.130
1.981,-0.205,0.140
1.983,-0.205,0.120
1.986,-0.215,0.120
1.989,-0.225,0.115
1.992,-0.230,0.110
1.994,-0.235,0.120
1.997,-0.235,0.130
2.000,-0.220,0.145
2.003,-0.245,0.135
2.006,-0.255,0.120
2.008,-0.275,0.110
2.011,-0.275,0.130
2.014,-0.290,0.155
2.017,-0.280,0.155
2.019,-0.290,0.140
2.022,-0.295,0.135
2.025,-0.315,0.135
2.028,-0.275,0.150
2.031,-0.265,0.155
2.033,-0.245,0.155
2.036,-0.235,0.145
2.039,-0.255,0.135
2.042,-0.260,0.125
2.044,-0.240,0.115
2.047,-0.240,0.130
2.050,-0.220,0.110
2.053,-0.230,0.090
2.056,-0.250,0.090
2.058,-0.240,0.090
2.061,-0.240,0.095
2.064,-0.210,0.105
2.067,-0.200,0.110
2.069,-0.205,0.105
2.072,-0.225,0.085
2.075,-0.235,0.085
2.078,-0.215,0.090
2.081,-0.215,0.115
2.083,-0.195,0.100
2.086,-0.205,0.090
2.089,-0.215,0.070
2.092,-0.235,0.085
2.094,-0.255,0.095
2.097,-0.230,0.085
2.100,-0.215,0.095
2.103,-0.220,0.100
2.106,-0.225,0.070
2.108,-0.245,0.080
2.111,-0.255,0.090
2.114,-0.245,0.085
2.117,-0.245,0.095
2.119,-0.245,0.075
2.122,-0.265,0.055
2.125,-0.270,0.065
2.128,-0.265,0.085
2.131,-0.265,0.090
2.133,-0.240,0.090
2.136,-0.250,0.085
2.139,-0.245,0.075
2.142,-0.270,0.065
2.144,-0.270,0.095
2.147,-0.265,0.100
2.150,-0.255,0.100
2.153,-0.275,0.100
2.156,-0.285,0.080
2.158,-0.300,0.085
2.161,-0.305,0.090
2.164,-0.305,0.105
2.167,-0.290,0.105
2.169,-0.290,0.100
2.172,-0.300,0.090
2.175,-0.285,0.090
2.178,-0.245,0.085
2.181,-0.235,0.090
2.183,-0.210,0.105
2.186,-0.200,0.095
2.189,-0.195,0.075
2.192,-0.205,0.055
2.194,-0.195,0.040
2.197,-0.185,0.055
2.200,-0.165,0.040
2.203,-0.155,0.025
2.206,-0.160,0.015
2.208,-0.150,0.010
2.211,-0.125,0.020
2.214,-0.095,0.030
2.217,-0.040,0.030
2.219,0.025,0.010
2.222,0.170,-0.010
2.225,0.460,-0.010
2.228,0.890,-0.010
2.231,1.315,-0.020
2.233,1.470,-0.050
2.236,1.320,-0.135
2.239,1.095,-0.250
2.242,0.930,-0.445
2.244,0.865,-0.725
2.247,0.800,-1.025
2.250,0.740,-1.220
2.253,0.635,-1.210
2.256,0.535,-1.095
2.258,0.435,-1.010
2.261,0.350,-0.945
2.264,0.250,-0.910
2.267,0.160,-0.880
2.269,0.040,-0.870
2.272,-0.070,-0.865
2.275,-0.200,-0.845
2.278,-0.310,-0.840
2.281,-0.440,-0.820
2.283,-0.565,-0.825
2.286,-0.700,-0.845
2.289,-0.855,-0.860
2.292,-1.020,-0.885
2.294,-1.160,-0.865
2.297,-1.300,-0.855
2.300,-1.400,-0.870
2.303,-1.500,-0.870
2.306,-1.595,-0.875
2.308,-1.695,-0.875
2.311,-1.755,-0.885
2.314,-1.800,-0.885
2.317,-1.830,-0.890
2.319,-1.865,-0.890
2.322,-1.905,-0.925
2.325,-1.930,-0.935
2.328,-1.915,-0.935
2.331,-1.865,-0.935
2.333,-1.800,-0.960
2.336,-1.765,-0.990
2.339,-1.730,-1.050
2.342,-1.680,-1.060
2.344,-1.580,-1.090
2.347,-1.465,-1.075
2.350,-1.335,-1.075
2.353,-1.235,-1.085
2.356,-1.105,-1.090
2.358,-1.010,-1.050
2.361,-0.930,-1.000
2.364,-0.875,-0.960
2.367,-0.830,-0.900
2.369,-0.775,-0.875
2.372,-0.725,-0.855
2.375,-0.680,-0.805
2.378,-0.605,-0.750
2.381,-0.520,-0.680
2.383,-0.435,-0.635
2.386,-0.370,-0.575
2.389,-0.315,-0.525
2.392,-0.275,-0.475
2.394,-0.210,-0.390
2.397,-0.150,-0.320
2.400,-0.085,-0.270
2.403,-0.050,-0.210
2.406,-0.020,-0.170
2.408,-0.005,-0.125
2.411,0.015,-0.070
2.414,0.040,-0.015
2.417,0.055,0.015
2.419,0.070,0.025
2.422,0.075,0.045
2.425,0.075,0.065
2.428,0.085,0.100
2.431,0.115,0.135
2.433,0.125,0.150
2.436,0.125,0.140
2.439,0.130,0.145
2.442,0.110,0.150
2.444,0.110,0.175
2.447,0.135,0.205
2.450,0.140,0.215
2.453,0.155,0.205
2.456,0.160,0.195
2.458,0.160,0.205
2.461,0.180,0.215
2.464,0.220,0.235
2.467,0.235,0.235
2.469,0.255,0.235
2.472,0.255,0.235
2.475,0.265,0.240
2.478,0.285,0.250
2.481,0.315,0.260
2.483,0.345,0.260
2.486,0.350,0.245
2.489,0.365,0.235
2.492,0.350,0.235
2.494,0.350,0.250
2.497,0.385,0.265
2.500,0.420,0.270
2.503,0.425,0.270
2.506,0.430,0.260
2.508,0.420,0.260
2.511,0.440,0.280
2.514,0.480,0.295
2.517,0.500,0.300
2.519,0.515,0.295
2.522,0.515,0.295
2.525,0.515,0.315
2.528,0.530,0.320
2.531,0.565,0.345
2.533,0.600,0.345
2.536,0.620,0.340
2.539,0.635,0.335
2.542,0.645,0.350
2.544,0.655,0.370
2.547,0.675,0.395
2.550,0.710,0.395
2.553,0.725,0.385
2.556,0.715,0.390
2.558,0.720,0.400
2.561,0.745,0.425
2.564,0.770,0.440
2.567,0.800,0.445
2.569,0.830,0.445
2.572,0.840,0.440
2.575,0.845,0.445
2.578,0.870,0.470
2.581,0.890,0.495
2.583,0.915,0.515
2.586,0.920,0.505
2.589,0.895,0.505
2.592,0.905,0.520
2.594,0.905,0.530
2.597,0.930,0.540
2.600,0.935,0.560
2.603,0.905,0.560
2.606,0.900,0.545
2.608,0.860,0.545
2.611,0.855,0.560
2.614,0.850,0.575
2.617,0.845,0.575
2.619,0.825,0.570
2.622,0.800,0.560
2.625,0.775,0.570
2.628,0.770,0.575
2.631,0.755,0.575
2.633,0.750,0.575
2.636,0.720,0.560
2.639,0.655,0.545
2.642,0.615,0.560
2.644,0.565,0.540
2.647,0.555,0.545
2.650,0.530,0.525
2.653,0.480,0.500
2.656,0.430,0.475
2.658,0.375,0.455
2.661,0.345,0.450
2.664,0.310,0.460
2.667,0.260,0.435
2.669,0.235,0.410
2.672,0.185,0.365
2.675,0.155,0.370
2.678,0.135,0.360
2.681,0.120,0.350
2.683,0.115,0.335
2.686,0.075,0.305
2.689,0.045,0.270
2.692,0.020,0.250
2.694,0.005,0.250
2.697,0.005,0.255
2.700,0.000,0.250
2.703,-0.025,0.235
2.706,-0.050,0.205
2.708,-0.090,0.200
2.711,-0.085,0.200
2.714,-0.090,0.200
2.717,-0.085,0.195
2.719,-0.095,0.175
2.722,-0.110,0.150
2.725,-0.130,0.150
2.728,-0.130,0.150
2.731,-0.130,0.170
2.733,-0.115,0.165
2.736,-0.115,0.150
2.739,-0.125,0.125
2.742,-0.145,0.120
2.744,-0.160,0.140
2.747,-0.130,0.155
2.750,-0.125,0.145
2.753,-0.145,0.120
2.756,-0.165,0.105
2.758,-0.175,0.110
2.761,-0.180,0.105
2.764,-0.165,0.115
2.767,-0.145,0.110
2.769,-0.160,0.100
2.772,-0.200,0.095
2.775,-0.195,0.105
2.778,-0.190,0.120
2.781,-0.180,0.125
2.783,-0.175,0.120
2.786,-0.180,0.105
2.789,-0.190,0.105
2.792,-0.165,0.130
2.794,-0.170,0.140
2.797,-0.160,0.130
2.800,-0.140,0.135
2.803,-0.160,0.110
2.806,-0.175,0.105
2.808,-0.175,0.120
2.811,-0.195,0.140
2.814,-0.160,0.135
2.817,-0.165,0.125
2.819,-0.180,0.125
2.822,-0.175,0.115
2.825,-0.175,0.130
2.828,-0.170,0.140
2.831,-0.170,0.145
2.833,-0.175,0.125
2.836,-0.185,0.120
2.839,-0.210,0.115
2.842,-0.205,0.125
2.844,-0.185,0.135
2.847,-0.180,0.135
2.850,-0.190,0.140
2.853,-0.215,0.125
2.856,-0.210,0.120
2.858,-0.220,0.135
2.861,-0.200,0.145
2.864,-0.200,0.140
2.867,-0.220,0.115
2.869,-0.225,0.115
2.872,-0.215,0.110
2.875,-0.245,0.125
2.878,-0.225,0.140
2.881,-0.210,0.135
2.883,-0.235,0.125
2.886,-0.240,0.120
2.889,-0.245,0.110
2.892,-0.245,0.105
2.894,-0.225,0.120
2.897,-0.230,0.115
2.900,-0.230,0.105
2.903,-0.255,0.085
2.906,-0.250,0.085
2.908,-0.250,0.105
2.911,-0.235,0.110
2.914,-0.255,0.100
2.917,-0.250,0.080
2.919,-0.285,0.060
2.922,-0.295,0.050
2.925,-0.315,0.055
2.928,-0.315,0.060
2.931,-0.290,0.070
2.933,-0.290,0.055
2.936,-0.310,0.060
2.939,-0.305,0.045
2.942,-0.285,0.070
2.944,-0.250,0.080
2.947,-0.245,0.080
2.950,-0.245,0.070
2.953,-0.260,0.055
2.956,-0.270,0.055
2.958,-0.265,0.055
2.961,-0.240,0.090
2.964,-0.220,0.080
2.967,-0.245,0.075
2.969,-0.255,0.070
2.972,-0.260,0.065
2.975,-0.250,0.090
2.978,-0.235,0.095
2.981,-0.230,0.105
2.983,-0.215,0.085
2.986,-0.235,0.085
2.989,-0.245,0.075
2.992,-0.230,0.090
2.994,-0.235,0.095
2.997,-0.225,0.110
3.000,-0.230,0.100
3.003,-0.245,0.085
3.006,-0.250,0.090
3.008,-0.245,0.095
3.011,-0.240,0.110
3.014,-0.220,0.110
3.017,-0.230,0.100
3.019,-0.245,0.095
3.022,-0.260,0.090
3.025,-0.255,0.105
3.028,-0.245,0.110
3.031,-0.235,0.110
3.033,-0.255,0.095
3.036,-0.255,0.075
3.039,-0.270,0.070
3.042,-0.270,0.070
3.044,-0.250,0.095
3.047,-0.235,0.080
3.050,-0.245,0.070
3.053,-0.260,0.050
3.056,-0.275,0.050
3.058,-0.270,0.035
3.061,-0.250,0.050
3.064,-0.235,0.040
3.067,-0.235,0.030
3.069,-0.235,0.010
3.072,-0.255,0.010
3.075,-0.260,0.020
3.078,-0.245,0.030
3.081,-0.230,0.025
3.083,-0.230,0.005
3.086,-0.235,-0.015
3.089,-0.230,-0.005
3.092,-0.200,0.005
3.094,-0.160,0.000
3.097,-0.120,0.005
3.100,-0.090,-0.025
3.103,-0.070,-0.030
3.106,-0.010,-0.045
3.108,0.150,-0.035
3.111,0.480,-0.010
3.114,0.955,-0.030
3.117,1.355,-0.070
3.119,1.470,-0.120
3.122,1.285,-0.180
3.125,1.065,-0.275
3.128,0.940,-0.445
3.131,0.880,-0.740
3.133,0.810,-1.055
3.136,0.745,-1.205
3.139,0.640,-1.185
3.142,0.565,-1.065
3.144,0.500,-0.970
3.147,0.425,-0.940
3.150,0.335,-0.930
3.153,0.220,-0.915
3.156,0.110,-0.895
3.158,0.020,-0.845
3.161,-0.085,-0.820
3.164,-0.205,-0.830
3.167,-0.335,-0.820
3.169,-0.470,-0.840
3.172,-0.610,-0.840
3.175,-0.755,-0.840
3.178,-0.900,-0.825
3.181,-1.050,-0.835
3.183,-1.215,-0.860
3.186,-1.350,-0.865
3.189,-1.465,-0.875
3.192,-1.560,-0.855
3.194,-1.620,-0.875
3.197,-1.690,-0.875
3.200,-1.780,-0.910
3.203,-1.835,-0.955
3.206,-1.860,-0.960
3.208,-1.885,-0.970
3.211,-1.875,-0.955
3.214,-1.865,-0.960
3.217,-1.855,-0.985
3.219,-1.815,-1.050
3.222,-1.800,-1.080
3.225,-1.755,-1.105
3.228,-1.700,-1.100
3.231,-1.580,-1.110
3.233,-1.460,-1.140
3.236,-1.360,-1.145
3.239,-1.235,-1.125
3.242,-1.105,-1.090
3.244,-0.980,-1.045
3.247,-0.895,-1.000
3.250,-0.885,-0.990
3.253,-0.900,-0.990
3.256,-0.870,-0.970
3.258,-0.815,-0.920
3.261,-0.720,-0.860
3.264,-0.630,-0.815
3.267,-0.545,-0.785
3.269,-0.495,-0.725
3.272,-0.460,-0.675
3.275,-0.390,-0.620
3.278,-0.320,-0.540
3.281,-0.250,-0.475
3.283,-0.195,-0.420
3.286,-0.150,-0.380
3.289,-0.115,-0.320
3.292,-0.065,-0.235
3.294,-0.020,-0.175
3.297,0.025,-0.125
3.300,0.050,-0.090
3.303,0.050,-0.055
3.306,0.045,-0.010
3.308,0.070,0.040
3.311,0.100,0.075
3.314,0.120,0.095
3.317,0.125,0.115
3.319,0.135,0.125
3.322,0.130,0.130
3.325,0.140,0.145
3.328,0.155,0.165
3.331,0.175,0.175
3.333,0.175,0.170
3.336,0.170,0.175
3.339,0.170,0.190
3.342,0.180,0.195
3.344,0.200,0.220
3.347,0.215,0.220
3.350,0.220,0.210
3.353,0.215,0.215
3.356,0.200,0.200
3.358,0.215,0.225
3.361,0.245,0.240
3.364,0.255,0.245
3.367,0.255,0.225
3.369,0.275,0.220
3.372,0.275,0.230
3.375,0.285,0.265
3.378,0.305,0.280
3.381,0.335,0.280
3.383,0.345,0.280
3.386,0.350,0.280
3.389,0.360,0.290
3.392,0.380,0.285
3.394,0.410,0.315
3.397,0.440,0.320
3.400,0.450,0.310
3.403,0.455,0.315
3.406,0.475,0.335
3.408,0.505,0.355
3.411,0.540,0.365
3.414,0.570,0.380
3.417,0.565,0.380
3.419,0.575,0.355
3.422,0.590,0.375
3.425,0.610,0.395
3.428,0.655,0.405
3.431,0.675,0.415
3.433,0.700,0.425
3.436,0.700,0.410
3.439,0.705,0.420
3.442,0.715,0.450
3.444,0.760,0.470
3.447,0.785,0.475
3.450,0.810,0.480
3.453,0.805,0.475
3.456,0.810,0.480
3.458,0.815,0.500
3.461,0.845,0.520
3.464,0.885,0.515
3.467,0.885,0.515
3.469,0.890,0.510
3.472,0.900,0.520
3.475,0.890,0.530
3.478,0.910,0.550
3.481,0.920,0.550
3.483,0.915,0.545
3.486,0.905,0.550
3.489,0.890,0.550
3.492,0.885,0.575
3.494,0.885,0.595
3.497,0.880,0.605
3.500,0.865,0.600
3.503,0.835,0.595
3.506,0.815,0.595
3.508,0.810,0.605
3.511,0.790,0.610
3.514,0.775,0.615
3.517,0.740,0.595
3.519,0.680,0.580
3.522,0.650,0.570
3.525,0.620,0.590
3.528,0.600,0.605
3.531,0.575,0.590
3.533,0.515,0.565
3.536,0.475,0.535
3.539,0.430,0.510
3.542,0.395,0.505
3.544,0.380,0.505
3.547,0.340,0.485
3.550,0.300,0.455
3.553,0.265,0.430
3.556,0.220,0.410
3.558,0.195,0.410
3.561,0.170,0.410
3.564,0.165,0.385
3.567,0.135,0.360
3.569,0.080,0.330
3.572,0.035,0.305
3.575,0.015,0.300
3.578,0.015,0.300
3.581,0.020,0.280
3.583,-0.010,0.260
3.586,-0.020,0.225
3.589,-0.040,0.215
3.592,-0.040,0.215
3.594,-0.050,0.215
3.597,-0.050,0.195
3.600,-0.080,0.175
3.603,-0.100,0.155
3.606,-0.120,0.160
3.608,-0.120,0.160
3.611,-0.105,0.175
3.614,-0.105,0.165
3.617,-0.125,0.140
3.619,-0.150,0.140
3.622,-0.150,0.135
3.625,-0.140,0.145
3.628,-0.125,0.155
3.631,-0.105,0.150
3.633,-0.110,0.135
3.636,-0.130,0.110
3.639,-0.140,0.120
3.642,-0.150,0.130
3.644,-0.160,0.155
3.647,-0.140,0.155
3.650,-0.135,0.125
3.653,-0.145,0.130
3.656,-0.150,0.130
3.658,-0.140,0.130
3.661,-0.135,0.160
3.664,-0.110,0.155
3.667,-0.105,0.145
3.669,-0.135,0.130
3.672,-0.140,0.135
3.675,-0.140,0.140
3.678,-0.130,0.160
3.681,-0.100,0.150
3.683,-0.110,0.135
3.686,-0.130,0.130
3.689,-0.140,0.135
3.692,-0.145,0.150
3.694,-0.130,0.165
3.697,-0.120,0.165
3.700,-0.135,0.140
3.703,-0.150,0.135
3.706,-0.165,0.130
3.708,-0.160,0.150
3.711,-0.160,0.160
3.714,-0.140,0.155
3.717,-0.155,0.140
3.719,-0.150,0.120
3.722,-0.175,0.120
3.725,-0.160,0.115
3.728,-0.155,0.145
3.731,-0.145,0.140
3.733,-0.170,0.130
3.736,-0.170,0.120
3.739,-0.170,0.110
3.742,-0.180,0.120
3.744,-0.170,0.130
3.747,-0.145,0.120
3.750,-0.165,0.105
3.753,-0.170,0.095
3.756,-0.195,0.095
3.758,-0.200,0.095
3.761,-0.200,0.110
3.764,-0.195,0.115
3.767,-0.205,0.095
3.769,-0.235,0.085
3.772,-0.250,0.090
3.775,-0.240,0.095
3.778,-0.220,0.110
3.781,-0.205,0.105
3.783,-0.200,0.105
3.786,-0.210,0.080
3.789,-0.230,0.075
3.792,-0.205,0.090
3.794,-0.180,0.105
3.797,-0.155,0.090
3.800,-0.170,0.090
3.803,-0.185,0.075
3.806,-0.200,0.090
3.808,-0.210,0.105
3.811,-0.205,0.110
3.814,-0.200,0.125
3.817,-0.190,0.125
3.819,-0.195,0.105
3.822,-0.205,0.100
3.825,-0.200,0.110
3.828,-0.180,0.120
3.831,-0.170,0.110
3.833,-0.160,0.100
3.836,-0.175,0.075
3.839,-0.185,0.070
3.842,-0.185,0.085
3.844,-0.185,0.090
3.847,-0.165,0.080
3.850,-0.185,0.065
3.853,-0.205,0.050
3.856,-0.215,0.045
3.858,-0.205,0.055
3.861,-0.185,0.065
3.864,-0.180,0.080
3.867,-0.170,0.065
3.869,-0.200,0.060
3.872,-0.215,0.075
3.875,-0.210,0.075
3.878,-0.205,0.100
3.881,-0.190,0.105
3.883,-0.200,0.095
3.886,-0.215,0.070
3.889,-0.215,0.065
3.892,-0.220,0.080
3.894,-0.220,0.080
3.897,-0.215,0.070
3.900,-0.225,0.055
3.903,-0.235,0.030
3.906,-0.240,0.030
3.908,-0.240,0.045
3.911,-0.225,0.060
3.914,-0.205,0.045
3.917,-0.195,0.045
3.919,-0.215,0.015
3.922,-0.210,0.015
3.925,-0.205,0.025
3.928,-0.185,0.045
3.931,-0.175,0.035
3.933,-0.175,0.010
3.936,-0.175,0.005
3.939,-0.170,0.005
3.942,-0.170,-0.005
3.944,-0.145,0.020
3.947,-0.125,0.020
3.950,-0.100,0.000
3.953,-0.105,-0.010
3.956,-0.080,-0.015
3.958,-0.035,-0.015
3.961,0.050,-0.010
3.964,0.220,-0.015
3.967,0.555,-0.030
3.969,0.985,-0.050
3.972,1.340,-0.065
3.975,1.415,-0.095
3.978,1.260,-0.160
3.981,1.050,-0.260
3.983,0.915,-0.455
3.986,0.830,-0.750
3.989,0.755,-1.025
3.992,0.690,-1.130
3.994,0.600,-1.080
3.997,0.535,-0.975
4.000,0.440,-0.920
4.003,0.315,-0.905
4.006,0.195,-0.895
4.008,0.080,-0.865
4.011,-0.020,-0.840
4.014,-0.150,-0.835
4.017,-0.295,-0.850
4.019,-0.470,-0.860
4.022,-0.610,-0.865
4.025,-0.755,-0.870
4.028,-0.905,-0.865
4.031,-1.065,-0.880
4.033,-1.190,-0.895
4.036,-1.330,-0.905
4.039,-1.440,-0.915
4.042,-1.520,-0.900
4.044,-1.575,-0.880
4.047,-1.640,-0.885
4.050,-1.700,-0.900
4.053,-1.750,-0.930
4.056,-1.785,-0.920
4.058,-1.760,-0.905
4.061,-1.700,-0.890
4.064,-1.640,-0.895
4.067,-1.580,-0.915
4.069,-1.515,-0.940
4.072,-1.445,-0.945
4.075,-1.370,-0.950
4.078,-1.285,-0.955
4.081,-1.210,-0.960
4.083,-1.155,-0.980
4.086,-1.050,-1.000
4.089,-0.970,-0.975
4.092,-0.855,-0.935
4.094,-0.735,-0.890
4.097,-0.615,-0.865
4.100,-0.515,-0.850
4.103,-0.440,-0.835
4.106,-0.360,-0.800
4.108,-0.250,-0.755
4.111,-0.140,-0.680
4.114,-0.065,-0.630
4.117,-0.045,-0.545
4.119,-0.025,-0.470
4.122,-0.025,-0.375
4.125,-0.005,-0.280
4.128,0.010,-0.185
4.131,0.035,-0.140
4.133,0.035,-0.090
4.136,0.025,-0.090
4.139,0.020,-0.065
4.142,0.025,-0.030
4.144,0.035,-0.005
4.147,0.040,0.005
4.150,0.035,0.020
4.153,0.045,0.025
4.156,0.025,0.040
4.158,0.030,0.070
4.161,0.040,0.085
4.164,0.060,0.095
4.167,0.060,0.085
4.169,0.045,0.090
4.172,0.035,0.100
4.175,0.065,0.125
4.178,0.075,0.140
4.181,0.095,0.155
4.183,0.105,0.150
4.186,0.085,0.165
4.189,0.095,0.170
4.192,0.100,0.175
4.194,0.125,0.195
4.197,0.130,0.200
4.200,0.150,0.190
4.203,0.140,0.195
4.206,0.140,0.210
4.208,0.130,0.215
4.211,0.160,0.230
4.214,0.175,0.225
4.217,0.175,0.205
4.219,0.185,0.190
4.222,0.180,0.205
4.225,0.195,0.220
4.228,0.205,0.225
4.231,0.230,0.215
4.233,0.230,0.200
4.236,0.210,0.200
4.239,0.210,0.210
4.242,0.240,0.220
4.244,0.260,0.240
4.247,0.290,0.240
4.250,0.275,0.235
4.253,0.300,0.220
4.256,0.295,0.225
4.258,0.320,0.250
4.261,0.345,0.250
4.264,0.380,0.255
4.267,0.390,0.255
4.269,0.370,0.250
4.272,0.385,0.270
4.275,0.410,0.280
4.278,0.430,0.300
4.281,0.475,0.300
4.283,0.485,0.290
4.286,0.500,0.285
4.289,0.495,0.270
4.292,0.500,0.295
4.294,0.525,0.320
4.297,0.535,0.320
4.300,0.550,0.335
4.303,0.545,0.325
4.306,0.535,0.345
4.308,0.560,0.355
4.311,0.590,0.380
4.314,0.600,0.395
4.317,0.590,0.400
4.319,0.585,0.400
4.322,0.575,0.410
4.325,0.570,0.435
4.328,0.570,0.450
4.331,0.585,0.445
4.333,0.560,0.440
4.336,0.520,0.430
4.339,0.500,0.430
4.342,0.485,0.440
4.344,0.465,0.450
4.347,0.455,0.445
4.350,0.430,0.450
4.353,0.395,0.425
4.356,0.350,0.425
4.358,0.330,0.425
4.361,0.310,0.430
4.364,0.300,0.415
4.367,0.260,0.400
4.369,0.210,0.375
4.372,0.175,0.370
4.375,0.150,0.365
4.378,0.115,0.370
4.381,0.115,0.355
4.383,0.090,0.335
4.386,0.050,0.315
4.389,0.015,0.290
4.392,0.000,0.295
4.394,-0.005,0.280
4.397,-0.005,0.280
4.400,-0.015,0.260
4.403,-0.040,0.245
4.406,-0.075,0.230
4.408,-0.075,0.230
4.411,-0.090,0.220
4.414,-0.100,0.205
4.417,-0.125,0.190
4.419,-0.145,0.165
4.422,-0.170,0.155
4.425,-0.165,0.170
4.428,-0.155,0.170
4.431,-0.145,0.160
4.433,-0.145,0.160
4.436,-0.160,0.150
4.439,-0.180,0.175
4.442,-0.175,0.175
4.444,-0.175,0.200
4.447,-0.155,0.200
4.450,-0.175,0.180
4.453,-0.200,0.180
4.456,-0.195,0.180
4.458,-0.200,0.195
4.461,-0.170,0.205
4.464,-0.165,0.200
4.467,-0.180,0.190
4.469,-0.200,0.190
4.472,-0.220,0.185
4.475,-0.215,0.200
4.478,-0.210,0.205
4.481,-0.200,0.195
4.483,-0.195,0.180
4.486,-0.195,0.165
4.489,-0.210,0.145
4.492,-0.205,0.155
4.494,-0.195,0.155
4.497,-0.210,0.145
4.500,-0.205,0.140
4.503,-0.210,0.120
4.506,-0.215,0.115
4.508,-0.220,0.130
4.511,-0.205,0.130
4.514,-0.185,0.125
4.517,-0.185,0.110
4.519,-0.190,0.095
4.522,-0.195,0.105
4.525,-0.200,0.125
4.528,-0.190,0.135
4.531,-0.200,0.135
4.533,-0.215,0.140
4.536,-0.210,0.105
4.539,-0.230,0.110
4.542,-0.250,0.115
4.544,-0.235,0.120
4.547,-0.235,0.120
4.550,-0.230,0.115
4.553,-0.235,0.115
4.556,-0.255,0.115
4.558,-0.250,0.145
4.561,-0.230,0.150
4.564,-0.225,0.140
4.567,-0.230,0.140
4.569,-0.230,0.125
4.572,-0.245,0.140
4.575,-0.245,0.155
4.578,-0.250,0.165
4.581,-0.235,0.165
4.583,-0.235,0.150
4.586,-0.255,0.125
4.589,-0.260,0.135
4.592,-0.270,0.145
4.594,-0.255,0.160
4.597,-0.235,0.160
4.600,-0.255,0.155
4.603,-0.260,0.135
4.606,-0.270,0.145
4.608,-0.250,0.145
4.611,-0.235,0.150
4.614,-0.230,0.145
4.617,-0.245,0.130
4.619,-0.265,0.125
4.622,-0.290,0.115
4.625,-0.290,0.125
4.628,-0.265,0.135
4.631,-0.270,0.115
4.633,-0.270,0.105
4.636,-0.260,0.100
4.639,-0.260,0.090
4.642,-0.260,0.100
4.644,-0.250,0.110
4.647,-0.225,0.115
4.650,-0.245,0.105
4.653,-0.265,0.095
4.656,-0.285,0.080
4.658,-0.275,0.085
4.661,-0.270,0.090
4.664,-0.250,0.085
4.667,-0.275,0.080
4.669,-0.285,0.065
4.672,-0.295,0.075
4.675,-0.300,0.090
4.678,-0.280,0.100
4.681,-0.280,0.100
4.683,-0.285,0.090
4.686,-0.295,0.075
4.689,-0.300,0.090
4.692,-0.305,0.095
4.694,-0.305,0.100
4.697,-0.300,0.100
4.700,-0.305,0.095
4.703,-0.310,0.085
4.706,-0.320,0.075
4.708,-0.325,0.085
4.711,-0.310,0.105
4.714,-0.290,0.115
4.717,-0.300,0.100
4.719,-0.300,0.080
4.722,-0.290,0.095
4.725,-0.290,0.105
4.728,-0.285,0.125
4.731,-0.265,0.115
4.733,-0.280,0.110
4.736,-0.285,0.100
4.739,-0.290,0.090
4.742,-0.300,0.085
4.744,-0.295,0.110
4.747,-0.300,0.095
4.750,-0.310,0.100
4.753,-0.335,0.075
4.756,-0.330,0.080
4.758,-0.320,0.085
4.761,-0.305,0.115
4.764,-0.275,0.090
4.767,-0.270,0.075
4.769,-0.285,0.050
4.772,-0.280,0.050
4.775,-0.285,0.070
4.778,-0.285,0.050
4.781,-0.275,0.055
4.783,-0.260,0.030
4.786,-0.260,0.015
4.789,-0.245,0.005
4.792,-0.235,0.020
4.794,-0.210,0.025
4.797,-0.175,0.040
4.800,-0.125,0.025
4.803,-0.055,0.000
4.806,0.120,0.005
4.808,0.485,0.010
4.811,0.985,0.010
4.814,1.350,-0.025
4.817,1.375,-0.085
4.819,1.180,-0.175
4.822,0.955,-0.315
4.825,0.835,-0.555
4.828,0.790,-0.885
4.831,0.740,-1.155
4.833,0.655,-1.235
4.836,0.545,-1.165
4.839,0.465,-1.040
4.842,0.390,-0.970
4.844,0.300,-0.930
4.847,0.240,-0.915
4.850,0.140,-0.895
4.853,0.040,-0.885
4.856,-0.070,-0.860
4.858,-0.180,-0.860
4.861,-0.280,-0.830
4.864,-0.360,-0.825
4.867,-0.470,-0.840
4.869,-0.615,-0.860
4.872,-0.730,-0.870
4.875,-0.830,-0.855
4.878,-0.890,-0.830
4.881,-0.880,-0.830
4.883,-0.840,-0.840
4.886,-0.800,-0.860
4.889,-0.775,-0.855
4.892,-0.760,-0.845
4.894,-0.765,-0.840
4.897,-0.775,-0.865
4.900,-0.780,-0.895
4.903,-0.775,-0.925
4.906,-0.740,-0.935
4.908,-0.715,-0.940
4.911,-0.685,-0.905
4.914,-0.690,-0.885
4.917,-0.740,-0.880
4.919,-0.765,-0.875
4.922,-0.735,-0.855
4.925,-0.635,-0.825
4.928,-0.510,-0.770
4.931,-0.400,-0.740
4.933,-0.330,-0.685
4.936,-0.295,-0.605
4.939,-0.295,-0.500
4.942,-0.270,-0.410
4.944,-0.250,-0.325
4.947,-0.220,-0.255
4.950,-0.220,-0.180
4.953,-0.235,-0.145
4.956,-0.240,-0.100
4.958,-0.250,-0.050
4.961,-0.245,-0.020
4.964,-0.230,-0.005
4.967,-0.230,-0.005
4.969,-0.240,-0.010
4.972,-0.260,0.000
4.975,-0.255,0.030
4.978,-0.235,0.055
4.981,-0.220,0.065
4.983,-0.225,0.060
4.986,-0.240,0.045
4.989,-0.260,0.045
4.992,-0.260,0.065
4.994,-0.260,0.095
4.997,-0.250,0.080
5.000,-0.270,0.095
5.003,-0.270,0.085
5.006,-0.280,0.080
5.008,-0.270,0.105
5.011,-0.260,0.125
5.014,-0.245,0.120
5.017,-0.255,0.125
5.019,-0.265,0.105
5.022,-0.285,0.115
5.025,-0.280,0.125
5.028,-0.285,0.140
5.031,-0.270,0.135
5.033,-0.270,0.135
5.036,-0.315,0.125
5.039,-0.325,0.150
5.042,-0.325,0.170
5.044,-0.295,0.180
5.047,-0.280,0.185
5.050,-0.285,0.165
5.053,-0.275,0.165
5.056,-0.270,0.160
5.058,-0.270,0.185
5.061,-0.270,0.200
5.064,-0.255,0.200
5.067,-0.255,0.190
5.069,-0.265,0.170
5.072,-0.275,0.185
5.075,-0.265,0.205
5.078,-0.240,0.225
5.081,-0.225,0.220
5.083,-0.235,0.215
5.086,-0.245,0.195
5.089,-0.245,0.200
5.092,-0.235,0.220
5.094,-0.225,0.225
5.097,-0.210,0.225
5.100,-0.210,0.230
5.103,-0.220,0.215
5.106,-0.225,0.215
5.108,-0.205,0.225
5.111,-0.180,0.245
5.114,-0.170,0.245
5.117,-0.180,0.245
5.119,-0.195,0.220
5.122,-0.220,0.225
5.125,-0.205,0.230
5.128,-0.205,0.225
5.131,-0.195,0.240
5.133,-0.205,0.235
5.136,-0.225,0.230
5.139,-0.245,0.240
5.142,-0.255,0.260
5.144,-0.265,0.275
5.147,-0.270,0.260
5.150,-0.285,0.250
5.153,-0.315,0.240
5.156,-0.320,0.255
5.158,-0.330,0.265
5.161,-0.340,0.280
5.164,-0.345,0.285
5.167,-0.355,0.285
5.169,-0.395,0.285
5.172,-0.420,0.280
5.175,-0.435,0.290
5.178,-0.440,0.310
5.181,-0.445,0.305
5.183,-0.455,0.305
5.186,-0.490,0.280
5.189,-0.480,0.270
5.192,-0.470,0.285
5.194,-0.470,0.275
5.197,-0.445,0.285
5.200,-0.445,0.270
5.203,-0.445,0.245
5.206,-0.445,0.250
5.208,-0.435,0.255
5.211,-0.410,0.270
5.214,-0.380,0.265
5.217,-0.390,0.250
5.219,-0.400,0.235
5.222,-0.405,0.220
5.225,-0.400,0.220
5.228,-0.380,0.230
5.231,-0.340,0.200
5.233,-0.350,0.185
5.236,-0.355,0.185
5.239,-0.360,0.210
5.242,-0.360,0.225
5.244,-0.370,0.235
5.247,-0.355,0.230
5.250,-0.370,0.210
5.253,-0.380,0.205
5.256,-0.390,0.205
5.258,-0.395,0.215
5.261,-0.380,0.225
5.264,-0.380,0.205
5.267,-0.395,0.160
5.269,-0.415,0.150
5.272,-0.425,0.155
5.275,-0.425,0.170
5.278,-0.430,0.155
5.281,-0.405,0.160
5.283,-0.415,0.150
5.286,-0.420,0.160
5.289,-0.435,0.160
5.292,-0.435,0.180
5.294,-0.405,0.180
5.297,-0.410,0.190
5.300,-0.435,0.165
5.303,-0.450,0.175
5.306,-0.465,0.170
5.308,-0.460,0.190
5.311,-0.450,0.195
5.314,-0.455,0.205
5.317,-0.450,0.185
5.319,-0.455,0.175
5.322,-0.460,0.185
5.325,-0.445,0.190
5.328,-0.420,0.195
5.331,-0.405,0.190
5.333,-0.390,0.200
5.336,-0.390,0.170
5.339,-0.390,0.180
5.342,-0.390,0.205
5.344,-0.375,0.210
5.347,-0.350,0.210
5.350,-0.360,0.190
5.353,-0.370,0.170
5.356,-0.370,0.175
5.358,-0.375,0.190
5.361,-0.355,0.210
5.364,-0.365,0.185
5.367,-0.365,0.170
5.369,-0.375,0.145
5.372,-0.380,0.155
5.375,-0.370,0.165
5.378,-0.360,0.175
5.381,-0.360,0.180
5.383,-0.390,0.165
5.386,-0.415,0.150
5.389,-0.405,0.165
5.392,-0.405,0.180
5.394,-0.380,0.195
5.397,-0.355,0.185
5.400,-0.360,0.170
5.403,-0.370,0.150
5.406,-0.380,0.160
5.408,-0.385,0.175
5.411,-0.385,0.200
5.414,-0.380,0.200
5.417,-0.395,0.180
5.419,-0.420,0.165
5.422,-0.440,0.185
5.425,-0.430,0.195
5.428,-0.420,0.205
5.431,-0.435,0.205
5.433,-0.430,0.190
5.436,-0.455,0.180
5.439,-0.475,0.180
5.442,-0.475,0.190
5.444,-0.450,0.195
5.447,-0.430,0.195
5.450,-0.430,0.195
5.453,-0.435,0.190
5.456,-0.455,0.185
5.458,-0.430,0.195
5.461,-0.420,0.220
5.464,-0.390,0.195
5.467,-0.380,0.200
5.469,-0.390,0.165
5.472,-0.400,0.160
5.475,-0.400,0.160
5.478,-0.395,0.165
5.481,-0.405,0.170
5.483,-0.410,0.170
5.486,-0.430,0.170
5.489,-0.435,0.170
5.492,-0.425,0.175
5.494,-0.390,0.195
5.497,-0.380,0.170
5.500,-0.395,0.160
5.503,-0.400,0.150
5.506,-0.420,0.165
5.508,-0.420,0.160
5.511,-0.405,0.175
5.514,-0.405,0.155
5.517,-0.430,0.140
5.519,-0.455,0.135
5.522,-0.445,0.140
5.525,-0.440,0.150
5.528,-0.410,0.180
5.531,-0.405,0.155
5.533,-0.395,0.155
5.536,-0.410,0.135
5.539,-0.425,0.140
5.542,-0.415,0.140
5.544,-0.415,0.180
5.547,-0.425,0.170
5.550,-0.425,0.150
5.553,-0.450,0.125
5.556,-0.475,0.145
5.558,-0.475,0.150
5.561,-0.455,0.175
5.564,-0.445,0.160
5.567,-0.445,0.140
5.569,-0.460,0.125
5.572,-0.455,0.115
5.575,-0.450,0.120
5.578,-0.440,0.130
5.581,-0.430,0.140
5.583,-0.430,0.145
5.586,-0.440,0.130
5.589,-0.455,0.125
5.592,-0.465,0.125
5.594,-0.430,0.145
5.597,-0.410,0.140
5.600,-0.400,0.130
5.603,-0.390,0.105
5.606,-0.370,0.110
5.608,-0.340,0.125
5.611,-0.285,0.140
5.614,-0.205,0.140
5.617,-0.060,0.135
5.619,0.250,0.120
5.622,0.745,0.125
5.625,1.190,0.125
5.628,1.305,0.110
5.631,1.100,0.035
5.633,0.835,-0.150
5.636,0.680,-0.410
5.639,0.585,-0.800
5.642,0.520,-1.155
5.644,0.415,-1.265
5.647,0.315,-1.130
5.650,0.225,-0.950
5.653,0.120,-0.870
5.656,0.000,-0.845
5.658,-0.115,-0.805
5.661,-0.235,-0.765
5.664,-0.380,-0.755
5.667,-0.520,-0.765
5.669,-0.660,-0.760
5.672,-0.805,-0.760
5.675,-0.935,-0.760
5.678,-1.090,-0.750
5.681,-1.260,-0.755
5.683,-1.420,-0.770
5.686,-1.585,-0.790
5.689,-1.685,-0.790
5.692,-1.760,-0.765
5.694,-1.820,-0.760
5.697,-1.885,-0.780
5.700,-1.975,-0.805
5.703,-2.020,-0.845
5.706,-2.060,-0.855
5.708,-2.060,-0.840
5.711,-2.060,-0.825
5.714,-2.045,-0.840
5.717,-2.025,-0.885
5.719,-1.995,-0.915
5.722,-1.995,-0.960
5.725,-1.920,-0.985
5.728,-1.825,-0.995
5.731,-1.695,-1.010
5.733,-1.560,-1.035
5.736,-1.435,-1.025
5.739,-1.350,-1.010
5.742,-1.250,-0.950
5.744,-1.200,-0.910
5.747,-1.165,-0.860
5.750,-1.155,-0.840
5.753,-1.125,-0.820
5.756,-1.090,-0.770
5.758,-1.030,-0.710
5.761,-0.950,-0.640
5.764,-0.870,-0.585
5.767,-0.815,-0.520
5.769,-0.740,-0.475
5.772,-0.690,-0.410
5.775,-0.615,-0.340
5.778,-0.530,-0.250
5.781,-0.445,-0.185
5.783,-0.395,-0.115
5.786,-0.365,-0.080
5.789,-0.355,-0.005
5.792,-0.320,0.060
5.794,-0.290,0.130
5.797,-0.270,0.170
5.800,-0.260,0.175
5.803,-0.250,0.195
5.806,-0.240,0.240
5.808,-0.235,0.285
5.811,-0.220,0.320
5.814,-0.210,0.335
5.817,-0.205,0.350
5.819,-0.210,0.350
5.822,-0.185,0.360
5.825,-0.170,0.385
5.828,-0.145,0.405
5.831,-0.125,0.385
5.833,-0.090,0.395
5.836,-0.080,0.375
5.839,-0.065,0.390
5.842,-0.055,0.400
5.844,-0.035,0.430
5.847,-0.010,0.420
5.850,0.000,0.400
5.853,0.005,0.395
5.856,-0.005,0.410
5.858,0.015,0.425
5.861,0.030,0.430
5.864,0.045,0.430
5.867,0.060,0.425
5.869,0.065,0.425
5.872,0.080,0.425
5.875,0.085,0.445
5.878,0.085,0.465
5.881,0.100,0.475
5.883,0.110,0.465
5.886,0.110,0.450
5.889,0.105,0.455
5.892,0.135,0.465
5.894,0.165,0.495
5.897,0.200,0.505
5.900,0.235,0.490
5.903,0.260,0.490
5.906,0.265,0.505
5.908,0.295,0.515
5.911,0.330,0.540
5.914,0.355,0.545
5.917,0.355,0.540
5.919,0.360,0.540
5.922,0.380,0.545
5.925,0.400,0.570
5.928,0.425,0.585
5.931,0.430,0.600
5.933,0.460,0.595
5.936,0.470,0.590
5.939,0.495,0.605
5.942,0.525,0.635
5.944,0.555,0.660
5.947,0.600,0.645
5.950,0.610,0.645
5.953,0.620,0.645
5.956,0.650,0.675
5.958,0.670,0.710
5.961,0.710,0.725
5.964,0.725,0.735
5.967,0.720,0.735
5.969,0.710,0.715
5.972,0.690,0.735
5.975,0.700,0.735
5.978,0.700,0.750
5.981,0.720,0.730
5.983,0.695,0.720
5.986,0.680,0.705
5.989,0.650,0.705
5.992,0.640,0.730
5.994,0.620,0.740
5.997,0.595,0.750
6.000,0.545,0.715
6.003,0.490,0.685
6.006,0.435,0.685
6.008,0.405,0.685
6.011,0.390,0.690
6.014,0.365,0.680
6.017,0.320,0.635
6.019,0.265,0.620
6.022,0.200,0.605
6.025,0.150,0.595
6.028,0.120,0.595
6.031,0.090,0.570
6.033,0.055,0.540
6.036,0.000,0.505
6.039,-0.030,0.505
6.042,-0.075,0.505
6.044,-0.105,0.505
6.047,-0.145,0.465
6.050,-0.190,0.435
6.053,-0.225,0.395
6.056,-0.265,0.385
6.058,-0.265,0.385
6.061,-0.295,0.400
6.064,-0.300,0.385
6.067,-0.325,0.360
6.069,-0.325,0.345
6.072,-0.355,0.355
6.075,-0.355,0.340
6.078,-0.345,0.365
6.081,-0.330,0.345
6.083,-0.330,0.335
6.086,-0.330,0.310
6.089,-0.350,0.320
6.092,-0.355,0.320
6.094,-0.345,0.345
6.097,-0.350,0.330
6.100,-0.350,0.295
6.103,-0.345,0.280
6.106,-0.355,0.270
6.108,-0.380,0.280
6.111,-0.360,0.280
6.114,-0.345,0.295
6.117,-0.335,0.285
6.119,-0.345,0.265
6.122,-0.350,0.250
6.125,-0.360,0.265
6.128,-0.345,0.275
6.131,-0.335,0.265
6.133,-0.330,0.255
6.136,-0.345,0.235
6.139,-0.355,0.230
6.142,-0.360,0.240
6.144,-0.345,0.260
6.147,-0.340,0.250
6.150,-0.345,0.245
6.153,-0.350,0.240
6.156,-0.370,0.245
6.158,-0.375,0.260
6.161,-0.360,0.280
6.164,-0.355,0.265
6.167,-0.350,0.255
6.169,-0.360,0.255
6.172,-0.380,0.250
6.175,-0.385,0.265
6.178,-0.375,0.265
6.181,-0.380,0.255
6.183,-0.390,0.250
6.186,-0.400,0.235
6.189,-0.420,0.245
6.192,-0.430,0.250
6.194,-0.420,0.265
6.197,-0.420,0.255
6.200,-0.430,0.240
6.203,-0.450,0.250
6.206,-0.450,0.245
6.208,-0.440,0.265
6.211,-0.415,0.275
6.214,-0.375,0.280
6.217,-0.370,0.270
6.219,-0.365,0.265
6.222,-0.395,0.245
6.225,-0.410,0.260
6.228,-0.405,0.260
6.231,-0.410,0.235
6.233,-0.420,0.215
6.236,-0.435,0.200
6.239,-0.425,0.185
6.242,-0.400,0.195
6.244,-0.390,0.230
6.247,-0.370,0.215
6.250,-0.370,0.210
6.253,-0.390,0.215
6.256,-0.420,0.210
6.258,-0.435,0.210
6.261,-0.425,0.215
6.264,-0.415,0.195
6.267,-0.420,0.180
6.269,-0.430,0.160
6.272,-0.445,0.165
6.275,-0.425,0.180
6.278,-0.415,0.195
6.281,-0.405,0.190
6.283,-0.420,0.180
6.286,-0.415,0.165
6.289,-0.415,0.155
6.292,-0.425,0.180
6.294,-0.415,0.180
6.297,-0.395,0.190
6.300,-0.405,0.175
6.303,-0.425,0.160
6.306,-0.435,0.165
6.308,-0.445,0.190
6.311,-0.455,0.190
6.314,-0.450,0.195
6.317,-0.440,0.175
6.319,-0.445,0.180
6.322,-0.465,0.175
6.325,-0.460,0.195
6.328,-0.450,0.200
6.331,-0.425,0.205
6.333,-0.420,0.180
6.336,-0.430,0.165
6.339,-0.440,0.180
6.342,-0.425,0.190
6.344,-0.415,0.205
6.347,-0.395,0.210
6.350,-0.390,0.195
6.353,-0.400,0.185
6.356,-0.400,0.170
6.358,-0.415,0.165
6.361,-0.415,0.170
6.364,-0.395,0.155
6.367,-0.410,0.155
6.369,-0.405,0.130
6.372,-0.405,0.135
6.375,-0.395,0.145
6.378,-0.390,0.150
6.381,-0.375,0.135
6.383,-0.380,0.120
6.386,-0.405,0.100
6.389,-0.405,0.110
6.392,-0.390,0.120
6.394,-0.390,0.115
6.397,-0.380,0.105
6.400,-0.400,0.100
6.403,-0.385,0.095
6.406,-0.395,0.095
6.408,-0.370,0.105
6.411,-0.360,0.125
6.414,-0.335,0.115
6.417,-0.340,0.095
6.419,-0.315,0.075
6.422,-0.295,0.070
6.425,-0.200,0.075
6.428,-0.005,0.080
6.431,0.375,0.075
6.433,0.895,0.060
6.436,1.310,0.015
6.439,1.350,-0.050
6.442,1.100,-0.110
6.444,0.850,-0.305
6.447,0.720,-0.620
6.450,0.645,-1.025
6.453,0.550,-1.260
6.456,0.430,-1.220
6.458,0.310,-1.050
6.461,0.200,-0.910
6.464,0.085,-0.885
6.467,-0.065,-0.875
6.469,-0.190,-0.850
6.472,-0.310,-0.820
6.475,-0.410,-0.780
6.478,-0.535,-0.765
6.481,-0.660,-0.775
6.483,-0.810,-0.795
6.486,-0.990,-0.820
6.489,-1.165,-0.850
6.492,-1.315,-0.845
6.494,-1.450,-0.845
6.497,-1.545,-0.850
6.500,-1.640,-0.875
6.503,-1.750,-0.890
6.506,-1.845,-0.925
6.508,-1.920,-0.910
6.511,-1.975,-0.910
6.514,-2.000,-0.935
6.517,-2.035,-0.950
6.519,-2.060,-0.980
6.522,-2.070,-0.980
6.525,-2.035,-0.995
6.528,-1.990,-1.000
6.531,-1.940,-1.030
6.533,-1.900,-1.070
6.536,-1.845,-1.115
6.539,-1.760,-1.135
6.542,-1.615,-1.130
6.544,-1.470,-1.110
6.547,-1.340,-1.105
6.550,-1.225,-1.090
6.553,-1.140,-1.065
6.556,-1.110,-1.015
6.558,-1.075,-0.965
6.561,-1.010,-0.915
6.564,-0.955,-0.900
6.567,-0.920,-0.860
6.569,-0.860,-0.825
6.572,-0.810,-0.775
6.575,-0.735,-0.695
6.578,-0.640,-0.640
6.581,-0.570,-0.580
6.583,-0.505,-0.515
6.586,-0.435,-0.455
6.589,-0.370,-0.395
6.592,-0.325,-0.305
6.594,-0.260,-0.235
6.597,-0.235,-0.175
6.600,-0.205,-0.120
6.603,-0.195,-0.070
6.606,-0.165,-0.020
6.608,-0.115,0.040
6.611,-0.090,0.090
6.614,-0.080,0.115
6.617,-0.080,0.130
6.619,-0.075,0.125
6.622,-0.060,0.130
6.625,-0.020,0.160
6.628,0.010,0.175
6.631,0.035,0.175
6.633,0.050,0.165
6.636,0.050,0.155
6.639,0.055,0.165
6.642,0.065,0.195
6.644,0.095,0.220
6.647,0.115,0.225
6.650,0.110,0.230
6.653,0.105,0.220
6.656,0.115,0.225
6.658,0.120,0.250
6.661,0.140,0.260
6.664,0.165,0.255
6.667,0.170,0.250
6.669,0.180,0.240
6.672,0.170,0.245
6.675,0.190,0.250
6.678,0.205,0.270
6.681,0.215,0.285
6.683,0.220,0.285
6.686,0.215,0.290
6.689,0.225,0.280
6.692,0.255,0.310
6.694,0.290,0.320
6.697,0.320,0.330
6.700,0.340,0.325
6.703,0.330,0.300
6.706,0.330,0.315
6.708,0.345,0.335
6.711,0.395,0.350
6.714,0.425,0.360
6.717,0.435,0.345
6.719,0.455,0.335
6.722,0.470,0.360
6.725,0.490,0.375
6.728,0.520,0.400
6.731,0.545,0.400
6.733,0.555,0.395
6.736,0.565,0.390
6.739,0.580,0.400
6.742,0.615,0.430
6.744,0.650,0.440
6.747,0.685,0.455
6.750,0.700,0.445
6.753,0.725,0.435
6.756,0.740,0.445
6.758,0.760,0.455
6.761,0.790,0.475
6.764,0.815,0.480
6.767,0.825,0.465
6.769,0.815,0.450
6.772,0.835,0.460
6.775,0.855,0.485
6.778,0.885,0.505
6.781,0.900,0.520
6.783,0.880,0.515
6.786,0.875,0.505
6.789,0.865,0.515
6.792,0.865,0.555
6.794,0.875,0.575
6.797,0.865,0.575
6.800,0.830,0.570
6.803,0.795,0.555
6.806,0.765,0.565
6.808,0.740,0.575
6.811,0.740,0.575
6.814,0.705,0.575
6.817,0.665,0.555
6.819,0.615,0.555
6.822,0.560,0.540
6.825,0.555,0.550
6.828,0.505,0.560
6.831,0.470,0.540
6.833,0.410,0.515
6.836,0.340,0.485
6.839,0.280,0.485
6.842,0.245,0.470
6.844,0.210,0.470
6.847,0.185,0.440
6.850,0.140,0.415
6.853,0.080,0.365
6.856,0.040,0.365
6.858,0.005,0.355
6.861,-0.025,0.370
6.864,-0.045,0.340
6.867,-0.070,0.320
6.869,-0.090,0.285
6.872,-0.130,0.280
6.875,-0.150,0.275
6.878,-0.170,0.270
6.881,-0.210,0.260
6.883,-0.220,0.235
6.886,-0.250,0.210
6.889,-0.280,0.205
6.892,-0.270,0.190
6.894,-0.260,0.205
6.897,-0.260,0.195
6.900,-0.255,0.175
6.903,-0.275,0.150
6.906,-0.295,0.125
6.908,-0.290,0.140
6.911,-0.290,0.125
6.914,-0.300,0.115
6.917,-0.295,0.110
6.919,-0.305,0.085
6.922,-0.305,0.080
6.925,-0.300,0.085
6.928,-0.300,0.105
6.931,-0.305,0.095
6.933,-0.300,0.095
6.936,-0.310,0.070
6.939,-0.310,0.060
6.942,-0.295,0.075
6.944,-0.280,0.090
6.947,-0.270,0.085
6.950,-0.275,0.075
6.953,-0.290,0.070
6.956,-0.320,0.090
6.958,-0.305,0.105
6.961,-0.300,0.110
6.964,-0.285,0.110
6.967,-0.300,0.100
6.969,-0.305,0.075
6.972,-0.310,0.085
6.975,-0.300,0.110
6.978,-0.280,0.130
6.981,-0.280,0.120
6.983,-0.275,0.115
6.986,-0.305,0.105
6.989,-0.315,0.095
6.992,-0.305,0.110
6.994,-0.295,0.110
6.997,-0.290,0.115
7.000,-0.320,0.110
7.003,-0.325,0.095
7.006,-0.340,0.090
7.008,-0.330,0.115
7.011,-0.310,0.120
7.014,-0.320,0.115
7.017,-0.320,0.115
7.019,-0.350,0.105
7.022,-0.340,0.110
7.025,-0.345,0.120
7.028,-0.330,0.130
7.031,-0.315,0.130
7.033,-0.335,0.110
7.036,-0.355,0.105
7.039,-0.370,0.095
7.042,-0.350,0.080
7.044,-0.355,0.090
7.047,-0.365,0.090
7.050,-0.380,0.065
7.053,-0.370,0.050
7.056,-0.380,0.070
7.058,-0.375,0.070
7.061,-0.355,0.095
7.064,-0.325,0.090
7.067,-0.345,0.085
7.069,-0.370,0.080
7.072,-0.385,0.060
7.075,-0.380,0.080
7.078,-0.365,0.085
7.081,-0.355,0.080
7.083,-0.360,0.060
7.086,-0.375,0.035
7.089,-0.375,0.040
7.092,-0.375,0.060
7.094,-0.355,0.075
7.097,-0.355,0.065
7.100,-0.345,0.065
7.103,-0.360,0.050
7.106,-0.375,0.055
7.108,-0.365,0.060
7.111,-0.360,0.060
7.114,-0.365,0.065
7.117,-0.385,0.055
7.119,-0.380,0.040
7.122,-0.390,0.055
7.125,-0.375,0.065
7.128,-0.370,0.085
7.131,-0.355,0.080
7.133,-0.365,0.060
7.136,-0.370,0.060
7.139,-0.385,0.060
7.142,-0.375,0.070
7.144,-0.375,0.070
7.147,-0.360,0.070
7.150,-0.370,0.065
7.153,-0.390,0.050
7.156,-0.400,0.045
7.158,-0.405,0.060
7.161,-0.395,0.065
7.164,-0.380,0.080
7.167,-0.400,0.075
7.169,-0.405,0.070
7.172,-0.395,0.065
7.175,-0.390,0.070
7.178,-0.385,0.080
7.181,-0.370,0.065
7.183,-0.370,0.050
7.186,-0.380,0.030
7.189,-0.380,0.015
7.192,-0.385,0.030
7.194,-0.365,0.030
7.197,-0.360,0.035
7.200,-0.365,0.020
7.203,-0.375,0.010
7.206,-0.360,0.020
7.208,-0.370,0.035
7.211,-0.350,0.045
7.214,-0.335,0.040
7.217,-0.340,0.030
7.219,-0.345,0.010
7.222,-0.355,0.000
7.225,-0.350,0.005
7.228,-0.340,0.025
7.231,-0.325,0.015
7.233,-0.325,0.000
7.236,-0.340,-0.010
7.239,-0.330,-0.005
7.242,-0.325,0.010
7.244,-0.315,0.015
7.247,-0.295,0.005
7.250,-0.305,-0.015
7.253,-0.305,-0.025
7.256,-0.305,-0.020
7.258,-0.280,-0.030
7.261,-0.255,-0.020
7.264,-0.180,-0.030
7.267,-0.095,-0.065
7.269,0.125,-0.060
7.272,0.530,-0.055
7.275,1.065,-0.050
7.278,1.445,-0.070
7.281,1.455,-0.130
7.283,1.210,-0.210
7.286,0.950,-0.350
7.289,0.820,-0.575
7.292,0.730,-0.885
7.294,0.655,-1.160
7.297,0.545,-1.295
7.300,0.425,-1.225
7.303,0.305,-1.100
7.306,0.185,-1.010
7.308,0.080,-0.965
7.311,-0.040,-0.935
7.314,-0.165,-0.915
7.317,-0.305,-0.900
7.319,-0.445,-0.895
7.322,-0.575,-0.885
7.325,-0.715,-0.890
7.328,-0.830,-0.890
7.331,-0.970,-0.905
7.333,-1.120,-0.945
7.336,-1.265,-0.965
7.339,-1.410,-0.975
7.342,-1.510,-0.960
7.344,-1.585,-0.945
7.347,-1.645,-0.965
7.350,-1.730,-0.980
7.353,-1.830,-1.000
7.356,-1.895,-1.015
7.358,-1.945,-1.010
7.361,-1.970,-0.995
7.364,-1.985,-1.030
7.367,-2.010,-1.050
7.369,-2.030,-1.065
7.372,-2.040,-1.065
7.375,-2.005,-1.070
7.378,-1.945,-1.095
7.381,-1.890,-1.125
7.383,-1.860,-1.155
7.386,-1.790,-1.200
7.389,-1.700,-1.210
7.392,-1.580,-1.200
7.394,-1.430,-1.175
7.397,-1.270,-1.165
7.400,-1.150,-1.155
7.403,-1.080,-1.130
7.406,-1.045,-1.080
7.408,-1.025,-1.035
7.411,-0.985,-1.000
7.414,-0.950,-0.975
7.417,-0.900,-0.950
7.419,-0.845,-0.910
7.422,-0.785,-0.860
7.425,-0.710,-0.785
7.428,-0.635,-0.710
7.431,-0.555,-0.670
7.433,-0.475,-0.610
7.436,-0.435,-0.545
7.439,-0.370,-0.460
7.442,-0.305,-0.370
7.444,-0.240,-0.280
7.447,-0.170,-0.200
7.450,-0.130,-0.155
7.453,-0.120,-0.105
7.456,-0.120,-0.045
7.458,-0.110,0.005
7.461,-0.070,0.045
7.464,-0.040,0.070
7.467,-0.015,0.075
7.469,-0.015,0.080
7.472,-0.010,0.090
7.475,0.015,0.115
7.478,0.015,0.140
7.481,0.045,0.120
7.483,0.035,0.115
7.486,0.025,0.100
7.489,0.035,0.115
7.492,0.040,0.125
7.494,0.060,0.135
7.497,0.075,0.135
7.500,0.085,0.135
7.503,0.095,0.140
7.506,0.115,0.135
7.508,0.135,0.165
7.511,0.165,0.190
7.514,0.195,0.190
7.517,0.190,0.185
7.519,0.180,0.175
7.522,0.175,0.180
7.525,0.190,0.205
7.528,0.225,0.240
7.531,0.250,0.245
7.533,0.255,0.245
7.536,0.255,0.240
7.539,0.255,0.255
7.542,0.270,0.265
7.544,0.300,0.290
7.547,0.330,0.310
7.550,0.335,0.300
7.553,0.355,0.295
7.556,0.360,0.315
7.558,0.390,0.335
7.561,0.430,0.350
7.564,0.460,0.350
7.567,0.480,0.345
7.569,0.475,0.330
7.572,0.495,0.355
7.575,0.525,0.370
7.578,0.560,0.395
7.581,0.580,0.400
7.583,0.625,0.390
7.586,0.640,0.390
7.589,0.670,0.395
7.592,0.710,0.425
7.594,0.740,0.450
7.597,0.765,0.450
7.600,0.785,0.450
7.603,0.795,0.450
7.606,0.800,0.465
7.608,0.830,0.500
7.611,0.865,0.505
7.614,0.860,0.515
7.617,0.890,0.515
7.619,0.875,0.515
7.622,0.870,0.515
7.625,0.865,0.540
7.628,0.870,0.565
7.631,0.875,0.560
7.633,0.880,0.550
7.636,0.850,0.545
7.639,0.825,0.550
7.642,0.825,0.560
7.644,0.820,0.550
7.647,0.795,0.535
7.650,0.765,0.500
7.653,0.715,0.490
7.656,0.670,0.480
7.658,0.630,0.475
7.661,0.595,0.465
7.664,0.540,0.455
7.667,0.480,0.420
7.669,0.415,0.410
7.672,0.360,0.405
7.675,0.320,0.410
7.678,0.285,0.410
7.681,0.250,0.395
7.683,0.190,0.360
7.686,0.145,0.335
7.689,0.085,0.320
7.692,0.065,0.315
7.694,0.025,0.315
7.697,-0.025,0.290
7.700,-0.045,0.270
7.703,-0.065,0.230
7.706,-0.105,0.220
7.708,-0.120,0.215
7.711,-0.125,0.225
7.714,-0.145,0.215
7.717,-0.155,0.195
7.719,-0.185,0.165
7.722,-0.195,0.160
7.725,-0.200,0.170
7.728,-0.205,0.170
7.731,-0.200,0.155
7.733,-0.225,0.145
7.736,-0.245,0.125
7.739,-0.240,0.130
7.742,-0.240,0.130
7.744,-0.225,0.155
7.747,-0.230,0.145
7.750,-0.230,0.135
7.753,-0.240,0.120
7.756,-0.255,0.115
7.758,-0.240,0.125
7.761,-0.225,0.130
7.764,-0.235,0.140
7.767,-0.245,0.120
7.769,-0.260,0.110
7.772,-0.265,0.120
7.775,-0.260,0.125
7.778,-0.270,0.140
7.781,-0.265,0.130
7.783,-0.285,0.120
7.786,-0.295,0.120
7.789,-0.315,0.120
7.792,-0.300,0.135
7.794,-0.295,0.145
7.797,-0.265,0.135
7.800,-0.280,0.130
7.803,-0.295,0.115
7.806,-0.280,0.100
7.808,-0.280,0.110
7.811,-0.270,0.105
7.814,-0.255,0.100
7.817,-0.270,0.080
7.819,-0.285,0.075
7.822,-0.275,0.085
7.825,-0.275,0.100
7.828,-0.265,0.115
7.831,-0.255,0.105
7.833,-0.265,0.090
7.836,-0.275,0.085
7.839,-0.275,0.075
7.842,-0.270,0.100
7.844,-0.270,0.110
7.847,-0.270,0.110
7.850,-0.275,0.100
7.853,-0.305,0.080
7.856,-0.320,0.080
7.858,-0.325,0.095
7.861,-0.295,0.115
7.864,-0.300,0.100
7.867,-0.310,0.070
7.869,-0.305,0.060
7.872,-0.310,0.055
7.875,-0.320,0.080
7.878,-0.305,0.100
7.881,-0.280,0.100
7.883,-0.305,0.085
7.886,-0.325,0.065
7.889,-0.325,0.065
7.892,-0.320,0.080
7.894,-0.300,0.085
7.897,-0.300,0.085
7.900,-0.315,0.070
7.903,-0.330,0.060
7.906,-0.340,0.070
7.908,-0.335,0.075
7.911,-0.335,0.100
7.914,-0.320,0.095
7.917,-0.325,0.070
7.919,-0.340,0.070
7.922,-0.360,0.075
7.925,-0.350,0.085
7.928,-0.335,0.095
7.931,-0.335,0.105
7.933,-0.345,0.095
7.936,-0.360,0.070
7.939,-0.380,0.085
7.942,-0.370,0.095
7.944,-0.355,0.105
7.947,-0.360,0.105
7.950,-0.360,0.095
7.953,-0.380,0.090
7.956,-0.365,0.105
7.958,-0.370,0.110
7.961,-0.330,0.125
7.964,-0.310,0.110
7.967,-0.310,0.090
7.969,-0.320,0.075
7.972,-0.315,0.065
7.975,-0.320,0.070
7.978,-0.310,0.075
7.981,-0.305,0.085
7.983,-0.320,0.075
7.986,-0.335,0.075
7.989,-0.330,0.085
7.992,-0.335,0.105
7.994,-0.305,0.135
7.997,-0.310,0.130
8.000,-0.310,0.140
8.003,-0.315,0.130
8.006,-0.305,0.125
8.008,-0.305,0.110
8.011,-0.290,0.110
8.014,-0.285,0.080
8.017,-0.280,0.090
8.019,-0.290,0.070
8.022,-0.315,0.050
8.025,-0.300,0.045
8.028,-0.295,0.025
8.031,-0.305,0.005
8.033,-0.305,0.000
8.036,-0.310,-0.025
8.039,-0.315,-0.015
8.042,-0.305,-0.015
8.044,-0.290,-0.005
8.047,-0.275,0.000
8.050,-0.290,-0.010
8.053,-0.325,-0.020
8.056,-0.315,-0.015
8.058,-0.305,-0.005
8.061,-0.275,0.020
8.064,-0.265,0.015
8.067,-0.280,0.005
8.069,-0.290,0.005
8.072,-0.295,-0.005
8.075,-0.265,0.005
8.078,-0.250,0.020
8.081,-0.240,0.010
8.083,-0.235,-0.005
8.086,-0.240,-0.015
8.089,-0.235,-0.015
8.092,-0.195,-0.015
8.094,-0.105,0.005
8.097,0.040,-0.010
8.100,0.330,-0.025
8.103,0.780,-0.055
8.106,1.230,-0.055
8.108,1.475,-0.080
8.111,1.405,-0.125
8.114,1.165,-0.230
8.117,0.965,-0.410
8.119,0.860,-0.695
8.122,0.805,-1.035
8.125,0.735,-1.265
8.128,0.670,-1.280
8.131,0.585,-1.145
8.133,0.470,-1.065
8.136,0.360,-1.025
8.139,0.245,-0.990
8.142,0.135,-0.965
8.144,0.025,-0.935
8.147,-0.080,-0.925
8.150,-0.215,-0.935
8.153,-0.365,-0.930
8.156,-0.485,-0.915
8.158,-0.605,-0.915
8.161,-0.730,-0.910
8.164,-0.860,-0.930
8.167,-1.030,-0.955
8.169,-1.200,-0.965
8.172,-1.340,-0.965
8.175,-1.450,-0.955
8.178,-1.510,-0.940
8.181,-1.595,-0.950
8.183,-1.670,-0.970
8.186,-1.785,-0.990
8.189,-1.855,-0.990
8.192,-1.905,-0.990
8.194,-1.925,-0.980
8.197,-1.940,-0.990
8.200,-1.950,-1.035
8.203,-1.945,-1.040
8.206,-1.925,-1.045
8.208,-1.880,-1.055
8.211,-1.810,-1.065
8.214,-1.770,-1.080
8.217,-1.685,-1.105
8.219,-1.610,-1.125
8.222,-1.505,-1.135
8.225,-1.385,-1.120
8.228,-1.250,-1.100
8.231,-1.125,-1.065
8.233,-1.045,-1.035
8.236,-0.985,-1.025
8.239,-0.945,-0.990
8.242,-0.910,-0.950
8.244,-0.870,-0.905
8.247,-0.810,-0.860
8.250,-0.755,-0.830
8.253,-0.720,-0.800
8.256,-0.655,-0.735
8.258,-0.570,-0.660
8.261,-0.490,-0.585
8.264,-0.395,-0.540
8.267,-0.325,-0.465
8.269,-0.275,-0.400
8.272,-0.215,-0.355
8.275,-0.150,-0.275
8.278,-0.080,-0.200
8.281,-0.030,-0.150
8.283,0.000,-0.125
8.286,0.025,-0.100
8.289,0.050,-0.055
8.292,0.075,-0.005
8.294,0.100,0.035
8.297,0.130,0.045
8.300,0.145,0.070
8.303,0.135,0.080
8.306,0.150,0.105
8.308,0.150,0.125
8.311,0.165,0.135
8.314,0.165,0.155
8.317,0.165,0.160
8.319,0.150,0.155
8.322,0.155,0.170
8.325,0.170,0.185
8.328,0.195,0.220
8.331,0.220,0.205
8.333,0.215,0.220
8.336,0.195,0.205
8.339,0.205,0.215
8.342,0.225,0.240
8.344,0.240,0.265
8.347,0.270,0.265
8.350,0.270,0.260
8.353,0.255,0.255
8.356,0.275,0.270
8.358,0.285,0.285
8.361,0.305,0.295
8.364,0.325,0.305
8.367,0.340,0.290
8.369,0.325,0.295
8.372,0.345,0.295
8.375,0.360,0.305
8.378,0.385,0.320
8.381,0.395,0.310
8.383,0.415,0.315
8.386,0.405,0.310
8.389,0.420,0.325
8.392,0.445,0.350
8.394,0.455,0.360
8.397,0.480,0.360
8.400,0.490,0.345
8.403,0.490,0.335
8.406,0.505,0.345
8.408,0.540,0.370
8.411,0.560,0.380
8.414,0.595,0.385
8.417,0.590,0.375
8.419,0.600,0.355
8.422,0.620,0.380
8.425,0.640,0.400
8.428,0.680,0.405
8.431,0.700,0.410
8.433,0.730,0.385
8.436,0.750,0.400
8.439,0.760,0.410
8.442,0.790,0.425
8.444,0.820,0.445
8.447,0.845,0.450
8.450,0.865,0.455
8.453,0.890,0.460
8.456,0.900,0.490
8.458,0.920,0.505
8.461,0.935,0.545
8.464,0.950,0.545
8.467,0.940,0.535
8.469,0.920,0.555
8.472,0.925,0.565
8.475,0.905,0.585
8.478,0.920,0.605
8.481,0.905,0.595
8.483,0.880,0.600
8.486,0.850,0.595
8.489,0.805,0.605
8.492,0.795,0.620
8.494,0.770,0.610
8.497,0.760,0.610
8.500,0.710,0.595
8.503,0.675,0.590
8.506,0.625,0.580
8.508,0.595,0.580
8.511,0.570,0.590
8.514,0.515,0.550
8.517,0.460,0.540
8.519,0.410,0.515
8.522,0.350,0.505
8.525,0.315,0.490
8.528,0.290,0.485
8.531,0.250,0.460
8.533,0.200,0.440
8.536,0.145,0.400
8.539,0.105,0.385
8.542,0.070,0.365
8.544,0.040,0.360
8.547,0.025,0.325
8.550,-0.005,0.310
8.553,-0.055,0.280
8.556,-0.090,0.270
8.558,-0.115,0.265
8.561,-0.115,0.260
8.564,-0.110,0.240
8.567,-0.130,0.215
8.569,-0.180,0.195
8.572,-0.180,0.180
8.575,-0.185,0.190
8.578,-0.170,0.190
8.581,-0.180,0.165
8.583,-0.185,0.155
8.586,-0.210,0.130
8.589,-0.220,0.135
8.592,-0.210,0.155
8.594,-0.200,0.170
8.597,-0.195,0.170
8.600,-0.215,0.160
8.603,-0.230,0.155
8.606,-0.235,0.160
8.608,-0.230,0.185
8.611,-0.200,0.195
8.614,-0.195,0.190
8.617,-0.220,0.170
8.619,-0.235,0.140
8.622,-0.240,0.145
8.625,-0.230,0.175
8.628,-0.215,0.175
8.631,-0.210,0.170
8.633,-0.220,0.150
8.636,-0.220,0.155
8.639,-0.215,0.160
8.642,-0.215,0.160
8.644,-0.210,0.185
8.647,-0.195,0.165
8.650,-0.205,0.155
8.653,-0.215,0.150
8.656,-0.215,0.145
8.658,-0.205,0.155
8.661,-0.215,0.165
8.664,-0.200,0.155
8.667,-0.220,0.145
8.669,-0.220,0.145
8.672,-0.230,0.145
8.675,-0.215,0.150
8.678,-0.220,0.155
8.681,-0.215,0.145
8.683,-0.215,0.125
8.686,-0.230,0.110
8.689,-0.250,0.110
8.692,-0.255,0.120
8.694,-0.245,0.135
8.697,-0.230,0.125
8.700,-0.230,0.110
8.703,-0.255,0.100
8.706,-0.255,0.095
8.708,-0.255,0.090
8.711,-0.260,0.100
8.714,-0.275,0.100
8.717,-0.285,0.100
8.719,-0.280,0.080
8.722,-0.295,0.075
8.725,-0.300,0.085
8.728,-0.290,0.110
8.731,-0.300,0.100
8.733,-0.310,0.105
8.736,-0.325,0.095
8.739,-0.325,0.095
8.742,-0.315,0.115
8.744,-0.295,0.115
8.747,-0.270,0.115
8.750,-0.265,0.115
8.753,-0.270,0.100
8.756,-0.290,0.120
8.758,-0.270,0.130
8.761,-0.260,0.155
8.764,-0.265,0.125
8.767,-0.270,0.115
8.769,-0.290,0.105
8.772,-0.300,0.100
8.775,-0.290,0.120
8.778,-0.285,0.125
8.781,-0.280,0.120
8.783,-0.295,0.095
8.786,-0.310,0.095
8.789,-0.315,0.115
8.792,-0.290,0.115
8.794,-0.285,0.140
8.797,-0.270,0.130
8.800,-0.290,0.120
8.803,-0.325,0.110
8.806,-0.320,0.110
8.808,-0.305,0.105
8.811,-0.280,0.110
8.814,-0.280,0.105
8.817,-0.295,0.085
8.819,-0.300,0.065
8.822,-0.305,0.075
8.825,-0.320,0.085
8.828,-0.305,0.085
8.831,-0.285,0.080
8.833,-0.300,0.055
8.836,-0.305,0.065
8.839,-0.310,0.070
8.842,-0.340,0.055
8.844,-0.330,0.070
8.847,-0.320,0.060
8.850,-0.340,0.045
8.853,-0.355,0.035
8.856,-0.360,0.040
8.858,-0.355,0.065
8.861,-0.330,0.080
8.864,-0.335,0.075
8.867,-0.320,0.055
8.869,-0.335,0.050
8.872,-0.330,0.040
8.875,-0.315,0.045
8.878,-0.300,0.070
8.881,-0.280,0.065
8.883,-0.275,0.050
8.886,-0.290,0.035
8.889,-0.275,0.040
8.892,-0.265,0.055
8.894,-0.260,0.070
8.897,-0.240,0.065
8.900,-0.260,0.050
8.903,-0.280,0.045
8.906,-0.295,0.050
8.908,-0.275,0.055
8.911,-0.250,0.070
8.914,-0.245,0.060
8.917,-0.255,0.040
8.919,-0.275,0.025
8.922,-0.280,0.035
8.925,-0.255,0.040
8.928,-0.235,0.055
8.931,-0.220,0.040
8.933,-0.220,0.020
8.936,-0.235,0.005
8.939,-0.235,0.010
8.942,-0.200,0.005
8.944,-0.165,0.020
8.947,-0.135,0.005
8.950,-0.095,-0.015
8.953,0.000,-0.030
8.956,0.200,-0.025
8.958,0.605,-0.020
8.961,1.080,-0.040
8.964,1.440,-0.080
8.967,1.470,-0.150
8.969,1.255,-0.230
8.972,1.030,-0.355
8.975,0.895,-0.550
8.978,0.835,-0.835
8.981,0.805,-1.115
8.983,0.710,-1.245
8.986,0.605,-1.210
8.989,0.495,-1.100
8.992,0.410,-1.025
8.994,0.310,-0.990
8.997,0.180,-0.975
9.000,0.030,-0.955
9.003,-0.105,-0.940
9.006,-0.250,-0.920
9.008,-0.355,-0.905
9.011,-0.475,-0.875
9.014,-0.605,-0.895
9.017,-0.770,-0.915
9.019,-0.910,-0.940
9.022,-1.055,-0.940
9.025,-1.175,-0.935
9.028,-1.295,-0.915
9.031,-1.380,-0.925
9.033,-1.485,-0.935
9.036,-1.585,-0.945
9.039,-1.685,-0.940
9.042,-1.770,-0.945
9.044,-1.840,-0.925
9.047,-1.885,-0.935
9.050,-1.925,-0.960
9.053,-1.955,-0.970
9.056,-1.975,-0.975
9.058,-1.960,-0.975
9.061,-1.930,-0.955
9.064,-1.875,-0.985
9.067,-1.865,-1.010
9.069,-1.845,-1.040
9.072,-1.800,-1.070
9.075,-1.715,-1.080
9.078,-1.590,-1.080
9.081,-1.455,-1.085
9.083,-1.330,-1.085
9.086,-1.200,-1.080
9.089,-1.100,-1.040
9.092,-1.010,-0.985
9.094,-0.950,-0.930
9.097,-0.935,-0.905
9.100,-0.915,-0.890
9.103,-0.885,-0.865
9.106,-0.830,-0.820
9.108,-0.760,-0.765
9.111,-0.685,-0.705
9.114,-0.600,-0.655
9.117,-0.545,-0.620
9.119,-0.480,-0.585
9.122,-0.420,-0.515
9.125,-0.325,-0.435
9.128,-0.240,-0.355
9.131,-0.170,-0.300
9.133,-0.125,-0.265
9.136,-0.100,-0.225
9.139,-0.075,-0.185
9.142,-0.040,-0.125
9.144,-0.005,-0.080
9.147,0.025,-0.050
9.150,0.050,-0.035
9.153,0.060,-0.005
9.156,0.055,0.020
9.158,0.090,0.045
9.161,0.105,0.075
9.164,0.125,0.095
9.167,0.130,0.085
9.169,0.145,0.110
9.172,0.140,0.135
9.175,0.160,0.140
9.178,0.185,0.165
9.181,0.200,0.175
9.183,0.195,0.170
9.186,0.195,0.175
9.189,0.200,0.185
9.192,0.220,0.205
9.194,0.255,0.230
9.197,0.265,0.245
9.200,0.260,0.240
9.203,0.260,0.245
9.206,0.260,0.260
9.208,0.290,0.295
9.211,0.335,0.320
9.214,0.355,0.330
9.217,0.345,0.340
9.219,0.330,0.315
9.222,0.325,0.310
9.225,0.345,0.290
9.228,0.380,0.270
9.231,0.395,0.230
9.233,0.415,0.230
9.236,0.390,0.215
9.239,0.405,0.240
9.242,0.435,0.275
9.244,0.450,0.295
9.247,0.485,0.295
9.250,0.500,0.290
9.253,0.490,0.285
9.256,0.505,0.295
9.258,0.515,0.315
9.261,0.550,0.330
9.264,0.585,0.325
9.267,0.595,0.315
9.269,0.590,0.315
9.272,0.605,0.320
9.275,0.645,0.330
9.278,0.675,0.350
9.281,0.710,0.355
9.283,0.725,0.330
9.286,0.740,0.325
9.289,0.740,0.325
9.292,0.770,0.335
9.294,0.815,0.355
9.297,0.835,0.345
9.300,0.860,0.345
9.303,0.880,0.340
9.306,0.885,0.340
9.308,0.920,0.355
9.311,0.955,0.380
9.314,0.960,0.390
9.317,0.950,0.395
9.319,0.940,0.395
9.322,0.945,0.415
9.325,0.955,0.440
9.328,0.985,0.470
9.331,0.985,0.470
9.333,0.970,0.470
9.336,0.975,0.460
9.339,0.960,0.500
9.342,0.965,0.495
9.344,0.950,0.530
9.347,0.955,0.520
9.350,0.925,0.515
9.353,0.875,0.525
9.356,0.845,0.535
9.358,0.820,0.560
9.361,0.805,0.570
9.364,0.790,0.555
9.367,0.740,0.525
9.369,0.695,0.525
9.372,0.645,0.525
9.375,0.590,0.525
9.378,0.555,0.515
9.381,0.520,0.495
9.383,0.475,0.480
9.386,0.410,0.445
9.389,0.355,0.430
9.392,0.325,0.420
9.394,0.310,0.415
9.397,0.275,0.390
9.400,0.240,0.360
9.403,0.185,0.330
9.406,0.140,0.315
9.408,0.110,0.305
9.411,0.090,0.300
9.414,0.060,0.270
9.417,0.030,0.245
9.419,-0.020,0.205
9.422,-0.045,0.210
9.425,-0.045,0.200
9.428,-0.065,0.195
9.431,-0.055,0.175
9.433,-0.065,0.140
9.436,-0.090,0.130
9.439,-0.115,0.105
9.442,-0.110,0.105
9.444,-0.105,0.100
9.447,-0.105,0.080
9.450,-0.125,0.060
9.453,-0.130,0.045
9.456,-0.145,0.035
9.458,-0.140,0.045
9.461,-0.135,0.065
9.464,-0.135,0.050
9.467,-0.140,0.055
9.469,-0.170,0.055
9.472,-0.165,0.060
9.475,-0.150,0.085
9.478,-0.135,0.090
9.481,-0.120,0.090
9.483,-0.125,0.070
9.486,-0.135,0.075
9.489,-0.150,0.085
9.492,-0.160,0.095
9.494,-0.160,0.110
9.497,-0.145,0.100
9.500,-0.155,0.100
9.503,-0.160,0.095
9.506,-0.140,0.100
9.508,-0.150,0.120
9.511,-0.135,0.130
9.514,-0.135,0.130
9.517,-0.145,0.125
9.519,-0.165,0.115
9.522,-0.170,0.110
9.525,-0.155,0.115
9.528,-0.155,0.140
9.531,-0.140,0.120
9.533,-0.160,0.110
9.536,-0.185,0.105
9.539,-0.195,0.095
9.542,-0.195,0.110
9.544,-0.180,0.105
9.547,-0.185,0.110
9.550,-0.190,0.105
9.553,-0.205,0.085
9.556,-0.210,0.085
9.558,-0.200,0.085
9.561,-0.190,0.105
9.564,-0.185,0.110
9.567,-0.195,0.090
9.569,-0.230,0.075
9.572,-0.225,0.060
9.575,-0.215,0.055
9.578,-0.220,0.055
9.581,-0.215,0.050
9.583,-0.220,0.035
9.586,-0.245,0.025
9.589,-0.245,0.020
9.592,-0.235,0.025
9.594,-0.230,0.030
9.597,-0.240,0.025
9.600,-0.260,0.025
9.603,-0.285,0.010
9.606,-0.285,0.025
9.608,-0.275,0.030
9.611,-0.250,0.045
9.614,-0.250,0.035
9.617,-0.250,0.020
9.619,-0.245,0.015
9.622,-0.245,0.005
9.625,-0.225,0.030
9.628,-0.225,0.050
9.631,-0.225,0.050
9.633,-0.220,0.045
9.636,-0.245,0.060
9.639,-0.240,0.050
9.642,-0.225,0.070
9.644,-0.225,0.080
9.647,-0.215,0.065
9.650,-0.240,0.055
9.653,-0.235,0.055
9.656,-0.250,0.055
9.658,-0.225,0.075
9.661,-0.205,0.080
9.664,-0.220,0.075
9.667,-0.210,0.070
9.669,-0.230,0.050
9.672,-0.245,0.065
9.675,-0.265,0.075
9.678,-0.220,0.065
9.681,-0.220,0.050
9.683,-0.225,0.045
9.686,-0.240,0.040
9.689,-0.235,0.050
9.692,-0.235,0.060
9.694,-0.215,0.060
9.697,-0.215,0.050
9.700,-0.225,0.035
9.703,-0.245,0.025
9.706,-0.245,0.020
9.708,-0.235,0.040
9.711,-0.220,0.035
9.714,-0.205,0.025
9.717,-0.225,0.015
9.719,-0.225,-0.005
9.722,-0.220,0.005
9.725,-0.225,0.005
9.728,-0.210,0.015
9.731,-0.200,0.005
9.733,-0.215,-0.015
9.736,-0.240,-0.020
9.739,-0.245,-0.020
9.742,-0.240,-0.015
9.744,-0.230,0.015
9.747,-0.220,-0.005
9.750,-0.240,-0.010
9.753,-0.255,-0.020
9.756,-0.270,0.000
9.758,-0.260,0.005
9.761,-0.235,0.020
9.764,-0.225,0.015
9.767,-0.225,0.005
9.769,-0.225,0.000
9.772,-0.220,0.000
9.775,-0.205,0.015
9.778,-0.185,0.035
9.781,-0.190,0.010
9.783,-0.180,0.015
9.786,-0.180,-0.005
9.789,-0.175,0.005
9.792,-0.175,0.015
9.794,-0.155,0.015
9.797,-0.130,0.015
9.800,-0.140,-0.005
9.803,-0.110,-0.010
9.806,-0.070,0.000
9.808,-0.005,-0.005
9.811,0.140,0.000
9.814,0.380,-0.015
9.817,0.795,-0.035
9.819,1.215,-0.055
9.822,1.475,-0.075
9.825,1.440,-0.110
9.828,1.245,-0.185
9.831,1.070,-0.340
9.833,0.955,-0.630
9.836,0.870,-0.970
9.839,0.800,-1.280
9.842,0.745,-1.385
9.844,0.665,-1.325
9.847,0.590,-1.180
9.850,0.495,-1.105
9.853,0.360,-1.065
9.856,0.255,-1.035
9.858,0.135,-1.005
9.861,0.020,-0.975
9.864,-0.110,-0.965
9.867,-0.255,-0.985
9.869,-0.395,-0.995
9.872,-0.540,-0.970
9.875,-0.675,-0.975
9.878,-0.820,-0.970
9.881,-0.960,-0.995
9.883,-1.130,-1.005
9.886,-1.280,-1.020
9.889,-1.445,-1.015
9.892,-1.555,-1.000
9.894,-1.615,-0.995
9.897,-1.715,-1.015
9.900,-1.820,-1.030
9.903,-1.895,-1.065
9.906,-1.960,-1.045
9.908,-1.970,-1.035
9.911,-1.965,-1.035
9.914,-1.980,-1.020
9.917,-1.950,-1.035
9.919,-1.940,-1.050
9.922,-1.910,-1.055
9.925,-1.860,-1.060
9.928,-1.780,-1.065
9.931,-1.720,-1.090
9.933,-1.625,-1.115
9.936,-1.530,-1.150
9.939,-1.405,-1.155
9.942,-1.265,-1.135
9.944,-1.120,-1.105
9.947,-0.995,-1.075
9.950,-0.930,-1.050
9.953,-0.895,-1.005
9.956,-0.855,-0.975
9.958,-0.785,-0.920
9.961,-0.720,-0.885
9.964,-0.650,-0.845
9.967,-0.590,-0.810
9.969,-0.540,-0.775
9.972,-0.475,-0.710
9.975,-0.395,-0.635
9.978,-0.310,-0.565
9.981,-0.235,-0.515
9.983,-0.185,-0.480
9.986,-0.135,-0.430
9.989,-0.090,-0.365
9.992,-0.025,-0.275
9.994,0.035,-0.200
9.997,0.095,-0.145
10.000,0.115,-0.130
10.003,0.105,-0.090
10.006,0.125,-0.040
10.008,0.150,0.000
10.011,0.170,0.035
10.014,0.195,0.050
10.017,0.200,0.065
10.019,0.190,0.060
10.022,0.200,0.080
10.025,0.205,0.100
10.028,0.235,0.120
10.031,0.245,0.125
10.033,0.230,0.130
10.036,0.215,0.140
10.039,0.225,0.150
10.042,0.240,0.170
10.044,0.250,0.185
10.047,0.245,0.190
10.050,0.240,0.165
10.053,0.255,0.160
10.056,0.255,0.170
10.058,0.290,0.215
10.061,0.320,0.230
10.064,0.345,0.220
10.067,0.350,0.210
10.069,0.355,0.200
10.072,0.355,0.225
10.075,0.380,0.250
10.078,0.405,0.270
10.081,0.420,0.265
10.083,0.420,0.265
10.086,0.425,0.260
10.089,0.440,0.265
10.092,0.465,0.280
10.094,0.500,0.290
10.097,0.530,0.295
10.100,0.530,0.295
10.103,0.525,0.285
10.106,0.545,0.305
10.108,0.550,0.320
10.111,0.585,0.325
10.114,0.600,0.335
10.117,0.615,0.345
10.119,0.620,0.335
10.122,0.635,0.335
10.125,0.670,0.360
10.128,0.695,0.375
10.131,0.710,0.365
10.133,0.725,0.340
10.136,0.745,0.325
10.139,0.750,0.360
10.142,0.775,0.375
10.144,0.790,0.385
10.147,0.830,0.390
10.150,0.855,0.370
10.153,0.860,0.365
10.156,0.875,0.385
10.158,0.890,0.400
10.161,0.920,0.415
10.164,0.935,0.415
10.167,0.935,0.405
10.169,0.940,0.415
10.172,0.945,0.415
10.175,0.960,0.455
10.178,0.990,0.480
10.181,0.990,0.475
10.183,0.990,0.480
10.186,0.975,0.475
10.189,0.975,0.495
10.192,0.975,0.525
10.194,0.980,0.535
10.197,0.975,0.525
10.200,0.960,0.510
10.203,0.950,0.520
10.206,0.925,0.540
10.208,0.920,0.555
10.211,0.905,0.575
10.214,0.895,0.570
10.217,0.865,0.565
10.219,0.820,0.545
10.222,0.765,0.555
10.225,0.755,0.570
10.228,0.725,0.565
10.231,0.705,0.555
10.233,0.670,0.530
10.236,0.620,0.515
10.239,0.575,0.510
10.242,0.545,0.515
10.244,0.520,0.525
10.247,0.485,0.500
10.250,0.440,0.465
10.253,0.385,0.440
10.256,0.330,0.435
10.258,0.300,0.430
10.261,0.270,0.420
10.264,0.230,0.400
10.267,0.190,0.365
10.269,0.130,0.325
10.272,0.105,0.305
10.275,0.075,0.300
10.278,0.065,0.300
10.281,0.035,0.310
10.283,0.005,0.275
10.286,-0.005,0.260
10.289,-0.025,0.220
10.292,-0.045,0.200
10.294,-0.040,0.185
10.297,-0.050,0.160
10.300,-0.075,0.155
10.303,-0.080,0.115
10.306,-0.105,0.105
10.308,-0.110,0.105
10.311,-0.110,0.120
10.314,-0.115,0.115
10.317,-0.135,0.085
10.319,-0.160,0.070
10.322,-0.150,0.065
10.325,-0.150,0.075
10.328,-0.135,0.095
10.331,-0.120,0.090
10.333,-0.145,0.085
10.336,-0.155,0.070
10.339,-0.150,0.070
10.342,-0.135,0.080
10.344,-0.130,0.090
10.347,-0.120,0.085
10.350,-0.130,0.090
10.353,-0.145,0.090
10.356,-0.155,0.095
10.358,-0.135,0.115
10.361,-0.110,0.135
10.364,-0.105,0.115
10.367,-0.125,0.110
10.369,-0.130,0.095
10.372,-0.130,0.095
10.375,-0.130,0.120
10.378,-0.120,0.140
10.381,-0.125,0.130
10.383,-0.135,0.145
10.386,-0.140,0.140
10.389,-0.155,0.130
10.392,-0.125,0.150
10.394,-0.120,0.155
10.397,-0.125,0.155
10.400,-0.145,0.155
10.403,-0.165,0.135
10.406,-0.175,0.150
10.408,-0.160,0.155
10.411,-0.135,0.175
10.414,-0.150,0.180
10.417,-0.155,0.150
10.419,-0.180,0.130
10.422,-0.195,0.120
10.425,-0.195,0.110
10.428,-0.175,0.120
10.431,-0.170,0.105
10.433,-0.180,0.090
10.436,-0.200,0.075
10.439,-0.205,0.090
10.442,-0.210,0.085
10.444,-0.215,0.090
10.447,-0.225,0.080
10.450,-0.240,0.070
10.453,-0.260,0.055
10.456,-0.250,0.050
10.458,-0.250,0.055
10.461,-0.230,0.060
10.464,-0.230,0.050
10.467,-0.245,0.030
10.469,-0.260,0.025
10.472,-0.255,0.055
10.475,-0.250,0.075
10.478,-0.235,0.090
10.481,-0.230,0.090
10.483,-0.255,0.075
10.486,-0.265,0.060
10.489,-0.275,0.060
10.492,-0.290,0.085
10.494,-0.265,0.105
10.497,-0.255,0.095
10.500,-0.245,0.095
10.503,-0.250,0.095
10.506,-0.240,0.115
10.508,-0.245,0.150
10.511,-0.200,0.160
10.514,-0.185,0.145
10.517,-0.220,0.115
10.519,-0.215,0.080
10.522,-0.235,0.070
10.525,-0.220,0.070
10.528,-0.200,0.090
10.531,-0.190,0.085
10.533,-0.190,0.075
10.536,-0.195,0.060
10.539,-0.215,0.055
10.542,-0.205,0.075
10.544,-0.195,0.095
10.547,-0.200,0.090
10.550,-0.205,0.095
10.553,-0.210,0.095
10.556,-0.220,0.090
10.558,-0.200,0.090
10.561,-0.195,0.095
10.564,-0.185,0.105
10.567,-0.180,0.080
10.569,-0.190,0.075
10.572,-0.210,0.070
10.575,-0.205,0.080
10.578,-0.195,0.085
10.581,-0.185,0.050
10.583,-0.195,0.045
10.586,-0.230,0.035
10.589,-0.210,0.045
10.592,-0.210,0.045
10.594,-0.200,0.065
10.597,-0.210,0.050
10.600,-0.245,0.040
10.603,-0.260,0.030
10.606,-0.255,0.030
10.608,-0.235,0.045
10.611,-0.210,0.050
10.614,-0.220,0.035
10.617,-0.220,0.020
10.619,-0.230,0.010
10.622,-0.225,0.010
10.625,-0.215,0.005
10.628,-0.200,0.020
10.631,-0.205,0.005
10.633,-0.215,-0.015
10.636,-0.240,-0.015
10.639,-0.250,-0.010
10.642,-0.235,0.005
10.644,-0.220,0.010
10.647,-0.205,0.010
10.650,-0.220,0.005
10.653,-0.225,-0.010
10.656,-0.225,0.005
10.658,-0.190,0.025
10.661,-0.155,0.040
10.664,-0.140,0.035
10.667,-0.130,0.010
10.669,-0.145,0.000
10.672,-0.125,0.010
10.675,-0.075,0.020
10.678,0.020,0.030
10.681,0.185,0.030
10.683,0.490,0.010
10.686,0.910,-0.015
10.689,1.310,-0.020
10.692,1.455,-0.025
10.694,1.350,-0.075
10.697,1.145,-0.170
10.700,0.995,-0.395
10.703,0.905,-0.735
10.706,0.830,-1.090
10.708,0.745,-1.245
10.711,0.645,-1.130
10.714,0.540,-0.995
10.717,0.425,-0.930
10.719,0.295,-0.915
10.722,0.200,-0.895
10.725,0.090,-0.860
10.728,-0.030,-0.850
10.731,-0.150,-0.830
10.733,-0.300,-0.835
10.736,-0.465,-0.855
10.739,-0.590,-0.860
10.742,-0.735,-0.875
10.744,-0.875,-0.875
10.747,-1.025,-0.890
10.750,-1.185,-0.910
10.753,-1.315,-0.925
10.756,-1.415,-0.935
10.758,-1.495,-0.920
10.761,-1.575,-0.930
10.764,-1.660,-0.950
10.767,-1.745,-0.965
10.769,-1.815,-0.985
10.772,-1.850,-0.995
10.775,-1.850,-0.980
10.778,-1.865,-0.980
10.781,-1.855,-1.000
10.783,-1.835,-1.030
10.786,-1.810,-1.060
10.789,-1.785,-1.060
10.792,-1.715,-1.080
10.794,-1.610,-1.075
10.797,-1.490,-1.095
10.800,-1.375,-1.125
10.803,-1.255,-1.120
10.806,-1.130,-1.100
10.808,-1.020,-1.060
10.811,-0.920,-1.020
10.814,-0.860,-0.985
10.817,-0.840,-0.955
10.819,-0.845,-0.930
10.822,-0.800,-0.880
10.825,-0.735,-0.815
10.828,-0.650,-0.750
10.831,-0.555,-0.710
10.833,-0.495,-0.675
10.836,-0.420,-0.615
10.839,-0.360,-0.560
10.842,-0.290,-0.480
10.844,-0.195,-0.400
10.847,-0.145,-0.345
10.850,-0.095,-0.290
10.853,-0.065,-0.235
10.856,-0.020,-0.170
10.858,0.015,-0.095
10.861,0.075,-0.040
10.864,0.100,0.005
10.867,0.105,0.030
10.869,0.100,0.055
10.872,0.100,0.090
10.875,0.125,0.115
10.878,0.175,0.145
10.881,0.190,0.155
10.883,0.190,0.150
10.886,0.175,0.145
10.889,0.175,0.155
10.892,0.185,0.170
10.894,0.200,0.180
10.897,0.205,0.180
10.900,0.205,0.165
10.903,0.195,0.165
10.906,0.205,0.180
10.908,0.220,0.195
10.911,0.270,0.215
10.914,0.265,0.190
10.917,0.270,0.195
10.919,0.270,0.190
10.922,0.280,0.205
10.925,0.290,0.220
10.928,0.315,0.245
10.931,0.330,0.255
10.933,0.335,0.265
10.936,0.335,0.265
10.939,0.340,0.275
10.942,0.360,0.285
10.944,0.390,0.275
10.947,0.420,0.260
10.950,0.425,0.270
10.953,0.435,0.280
10.956,0.450,0.300
10.958,0.480,0.320
10.961,0.490,0.335
10.964,0.515,0.345
10.967,0.515,0.330
10.969,0.505,0.325
10.972,0.535,0.360
10.975,0.570,0.375
10.978,0.605,0.395
10.981,0.625,0.395
10.983,0.635,0.405
10.986,0.635,0.410
10.989,0.645,0.425
10.992,0.675,0.450
10.994,0.715,0.475
10.997,0.740,0.470
11.000,0.750,0.450
11.003,0.745,0.455
11.006,0.770,0.475
11.008,0.805,0.490
11.011,0.835,0.520
11.014,0.855,0.510
11.017,0.855,0.505
11.019,0.865,0.490
11.022,0.875,0.510
11.025,0.860,0.525
11.028,0.890,0.545
11.031,0.895,0.545
11.033,0.895,0.545
11.036,0.880,0.535
11.039,0.880,0.555
11.042,0.900,0.575
11.044,0.905,0.590
11.047,0.915,0.585
11.050,0.890,0.570
11.053,0.865,0.575
11.056,0.850,0.570
11.058,0.840,0.590
11.061,0.850,0.600
11.064,0.825,0.600
11.067,0.785,0.570
11.069,0.750,0.560
11.072,0.715,0.570
11.075,0.695,0.565
11.078,0.675,0.570
11.081,0.640,0.565
11.083,0.595,0.555
11.086,0.560,0.525
11.089,0.525,0.510
11.092,0.490,0.515
11.094,0.475,0.525
11.097,0.435,0.490
11.100,0.405,0.460
11.103,0.350,0.435
11.106,0.295,0.425
11.108,0.270,0.415
11.111,0.240,0.415
11.114,0.225,0.385
11.117,0.180,0.355
11.119,0.125,0.320
11.122,0.100,0.320
11.125,0.095,0.325
11.128,0.080,0.310
11.131,0.070,0.295
11.133,0.030,0.255
11.136,0.020,0.235
11.139,0.000,0.230
11.142,0.005,0.230
11.144,0.000,0.235
11.147,0.000,0.225
11.150,-0.005,0.195
11.153,-0.040,0.175
11.156,-0.060,0.175
11.158,-0.065,0.170
11.161,-0.045,0.175
11.164,-0.045,0.170
11.167,-0.050,0.145
11.169,-0.060,0.130
11.172,-0.070,0.140
11.175,-0.065,0.140
11.178,-0.055,0.150
11.181,-0.040,0.145
11.183,-0.040,0.120
11.186,-0.055,0.110
11.189,-0.070,0.115
11.192,-0.050,0.125
11.194,-0.050,0.130
11.197,-0.055,0.120
11.200,-0.060,0.120
11.203,-0.085,0.110
11.206,-0.080,0.110
11.208,-0.065,0.125
11.211,-0.050,0.140
11.214,-0.040,0.130
11.217,-0.050,0.120
11.219,-0.060,0.120
11.222,-0.085,0.145
11.225,-0.075,0.155
11.228,-0.065,0.170
11.231,-0.050,0.150
11.233,-0.070,0.145
11.236,-0.065,0.140
11.239,-0.080,0.150
11.242,-0.060,0.170
11.244,-0.040,0.190
11.247,-0.040,0.175
11.250,-0.045,0.160
11.253,-0.060,0.150
11.256,-0.065,0.150
11.258,-0.055,0.165
11.261,-0.055,0.175
11.264,-0.050,0.170
11.267,-0.060,0.140
11.269,-0.075,0.130
11.272,-0.070,0.140
11.275,-0.070,0.155
11.278,-0.060,0.155
11.281,-0.070,0.140
11.283,-0.075,0.115
11.286,-0.080,0.105
11.289,-0.075,0.115
11.292,-0.070,0.115
11.294,-0.060,0.120
11.297,-0.070,0.105
11.300,-0.095,0.090
11.303,-0.120,0.075
11.306,-0.125,0.075
11.308,-0.115,0.090
11.311,-0.095,0.080
11.314,-0.095,0.075
11.317,-0.105,0.070
11.319,-0.125,0.055
11.322,-0.130,0.075
11.325,-0.135,0.080
11.328,-0.125,0.095
11.331,-0.125,0.095
11.333,-0.135,0.085
11.336,-0.150,0.075
11.339,-0.160,0.060
11.342,-0.150,0.075
11.344,-0.130,0.090
11.347,-0.125,0.080
11.350,-0.130,0.070
11.353,-0.140,0.060
11.356,-0.125,0.070
11.358,-0.120,0.090
11.361,-0.125,0.110
11.364,-0.125,0.105
11.367,-0.140,0.095
11.369,-0.135,0.085
11.372,-0.150,0.100
11.375,-0.140,0.120
11.378,-0.110,0.120
11.381,-0.130,0.115
11.383,-0.150,0.095
11.386,-0.155,0.080
11.389,-0.150,0.095
11.392,-0.145,0.110
11.394,-0.140,0.115
11.397,-0.125,0.120
11.400,-0.140,0.085
11.403,-0.160,0.080
11.406,-0.155,0.095
11.408,-0.150,0.100
11.411,-0.120,0.110
11.414,-0.125,0.095
11.417,-0.135,0.070
11.419,-0.150,0.060
11.422,-0.140,0.055
11.425,-0.145,0.070
11.428,-0.130,0.075
11.431,-0.115,0.065
11.433,-0.120,0.045
11.436,-0.140,0.025
11.439,-0.145,0.030
11.442,-0.140,0.040
11.444,-0.120,0.040
11.447,-0.130,0.035
11.450,-0.120,0.015
11.453,-0.135,0.000
11.456,-0.135,0.000
11.458,-0.130,0.015
11.461,-0.115,0.020
11.464,-0.125,0.015
11.467,-0.135,0.015
11.469,-0.155,0.005
11.472,-0.140,0.010
11.475,-0.125,0.030
11.478,-0.105,0.030
11.481,-0.105,0.010
11.483,-0.105,-0.005
11.486,-0.105,-0.010
11.489,-0.105,-0.010
11.492,-0.065,-0.005
11.494,-0.030,-0.005
11.497,-0.005,-0.020
11.500,0.025,-0.030
11.503,0.110,-0.030
11.506,0.285,-0.015
11.508,0.670,-0.010
11.511,1.130,-0.005
11.514,1.475,-0.040
11.517,1.505,-0.090
11.519,1.295,-0.175
11.522,1.080,-0.295
11.525,0.960,-0.535
11.528,0.925,-0.840
11.531,0.855,-1.140
11.533,0.765,-1.240
11.536,0.645,-1.145
11.539,0.550,-1.020
11.542,0.450,-0.955
11.544,0.360,-0.925
11.547,0.245,-0.900
11.550,0.100,-0.890
11.553,-0.045,-0.890
11.556,-0.195,-0.875
11.558,-0.335,-0.860
11.561,-0.465,-0.850
11.564,-0.600,-0.880
11.567,-0.765,-0.910
11.569,-0.955,-0.935
11.572,-1.130,-0.930
11.575,-1.270,-0.920
11.578,-1.395,-0.910
11.581,-1.495,-0.950
11.583,-1.610,-0.970
11.586,-1.695,-1.005
11.589,-1.785,-1.000
11.592,-1.830,-0.985
11.594,-1.855,-0.975
11.597,-1.915,-0.990
11.600,-1.930,-1.015
11.603,-1.945,-1.020
11.606,-1.925,-1.035
11.608,-1.855,-1.010
11.611,-1.800,-1.025
11.614,-1.735,-1.040
11.617,-1.675,-1.080
11.619,-1.580,-1.090
11.622,-1.455,-1.100
11.625,-1.295,-1.105
11.628,-1.125,-1.090
11.631,-0.960,-1.085
11.633,-0.860,-1.055
11.636,-0.810,-1.025
11.639,-0.755,-0.980
11.642,-0.700,-0.935
11.644,-0.625,-0.895
11.647,-0.540,-0.870
11.650,-0.490,-0.840
11.653,-0.435,-0.795
11.656,-0.385,-0.725
11.658,-0.295,-0.665
11.661,-0.210,-0.580
11.664,-0.145,-0.530
11.667,-0.060,-0.470
11.669,-0.005,-0.395
11.672,0.050,-0.325
11.675,0.115,-0.270
11.678,0.190,-0.200
11.681,0.220,-0.145
11.683,0.225,-0.115
11.686,0.235,-0.065
11.689,0.245,-0.010
11.692,0.280,0.035
11.694,0.315,0.080
11.697,0.330,0.075
11.700,0.325,0.095
11.703,0.320,0.095
11.706,0.350,0.110
11.708,0.365,0.135
11.711,0.390,0.150
11.714,0.400,0.135
11.717,0.405,0.130
11.719,0.405,0.120
11.722,0.395,0.155
11.725,0.410,0.170
11.728,0.415,0.185
11.731,0.445,0.180
11.733,0.430,0.170
11.736,0.430,0.165
11.739,0.425,0.190
11.742,0.455,0.205
11.744,0.475,0.230
11.747,0.505,0.230
11.750,0.490,0.220
11.753,0.490,0.220
11.756,0.495,0.225
11.758,0.525,0.250
11.761,0.560,0.260
11.764,0.565,0.255
11.767,0.585,0.260
11.769,0.585,0.265
11.772,0.585,0.285
11.775,0.635,0.310
11.778,0.665,0.340
11.781,0.700,0.330
11.783,0.705,0.330
11.786,0.735,0.325
11.789,0.755,0.340
11.792,0.765,0.365
11.794,0.815,0.390
11.797,0.855,0.380
11.800,0.870,0.370
11.803,0.880,0.365
11.806,0.900,0.385
11.808,0.915,0.400
11.811,0.950,0.405
11.814,0.975,0.395
11.817,0.975,0.395
11.819,1.005,0.395
11.822,1.040,0.415
11.825,1.065,0.440
11.828,1.105,0.445
11.831,1.135,0.460
11.833,1.135,0.435
11.836,1.145,0.445
11.839,1.150,0.475
11.842,1.185,0.480
11.844,1.200,0.500
11.847,1.220,0.485
11.850,1.210,0.505
11.853,1.185,0.505
11.856,1.165,0.515
11.858,1.150,0.535
11.861,1.130,0.520
11.864,1.110,0.505
11.867,1.070,0.495
11.869,1.045,0.505
11.872,1.025,0.535
11.875,1.000,0.560
11.878,0.985,0.570
11.881,0.955,0.550
11.883,0.920,0.555
11.886,0.865,0.520
11.889,0.825,0.520
11.892,0.790,0.540
11.894,0.760,0.530
11.897,0.725,0.515
11.900,0.680,0.500
11.903,0.620,0.470
11.906,0.580,0.475
11.908,0.540,0.470
11.911,0.495,0.465
11.914,0.455,0.435
11.917,0.405,0.395
11.919,0.340,0.365
11.922,0.300,0.350
11.925,0.280,0.350
11.928,0.265,0.335
11.931,0.235,0.300
11.933,0.200,0.260
11.936,0.155,0.240
11.939,0.140,0.230
11.942,0.150,0.230
11.944,0.145,0.220
11.947,0.125,0.205
11.950,0.095,0.175
11.953,0.075,0.145
11.956,0.050,0.155
11.958,0.070,0.160
11.961,0.080,0.155
11.964,0.080,0.130
11.967,0.075,0.110
11.969,0.055,0.090
11.972,0.060,0.095
11.975,0.035,0.100
11.978,0.055,0.105
11.981,0.060,0.100
11.983,0.050,0.085
11.986,0.025,0.075
11.989,0.005,0.080
11.992,0.000,0.090
11.994,0.000,0.105
11.997,0.000,0.085
12.000,-0.005,0.080
12.003,-0.025,0.075
12.006,-0.030,0.095
12.008,-0.015,0.110
12.011,-0.015,0.125
12.014,-0.030,0.130
12.017,-0.040,0.110
12.019,-0.070,0.100
12.022,-0.070,0.120
12.025,-0.075,0.135
12.028,-0.045,0.160
12.031,-0.045,0.160
12.033,-0.045,0.160
12.036,-0.055,0.150
12.039,-0.045,0.155
12.042,-0.035,0.160
12.044,-0.025,0.155
12.047,-0.015,0.160
12.050,-0.030,0.120
12.053,-0.045,0.125
12.056,-0.050,0.120
12.058,-0.065,0.125
12.061,-0.060,0.135
12.064,-0.075,0.135
12.067,-0.090,0.105
12.069,-0.120,0.105
12.072,-0.105,0.115
12.075,-0.100,0.135
12.078,-0.090,0.125
12.081,-0.095,0.125
12.083,-0.125,0.105
12.086,-0.130,0.095
12.089,-0.125,0.095
12.092,-0.110,0.100
12.094,-0.105,0.105
12.097,-0.095,0.095
12.100,-0.115,0.075
12.103,-0.125,0.065
12.106,-0.150,0.085
12.108,-0.145,0.090
12.111,-0.135,0.100
12.114,-0.150,0.085
12.117,-0.135,0.075
12.119,-0.135,0.065
12.122,-0.135,0.085
12.125,-0.130,0.085
12.128,-0.125,0.110
12.131,-0.120,0.095
12.133,-0.130,0.095
12.136,-0.130,0.085
12.139,-0.130,0.095
12.142,-0.130,0.120
12.144,-0.115,0.125
12.147,-0.120,0.125
12.150,-0.150,0.110
12.153,-0.145,0.100
12.156,-0.150,0.115
12.158,-0.130,0.125
12.161,-0.130,0.135
12.164,-0.125,0.110
12.167,-0.135,0.095
12.169,-0.150,0.085
12.172,-0.130,0.100
12.175,-0.130,0.120
12.178,-0.105,0.135
12.181,-0.125,0.115
12.183,-0.135,0.090
12.186,-0.140,0.090
12.189,-0.160,0.085
12.192,-0.140,0.090
12.194,-0.130,0.100
12.197,-0.135,0.095
12.200,-0.130,0.075
12.203,-0.145,0.065
12.206,-0.145,0.075
12.208,-0.140,0.070
12.211,-0.130,0.080
12.214,-0.115,0.075
12.217,-0.135,0.070
12.219,-0.170,0.050
12.222,-0.165,0.055
12.225,-0.145,0.070
12.228,-0.130,0.085
12.231,-0.130,0.075
12.233,-0.135,0.055
12.236,-0.140,0.040
12.239,-0.140,0.045
12.242,-0.135,0.065
12.244,-0.120,0.075
12.247,-0.110,0.060
12.250,-0.100,0.055
12.253,-0.120,0.035
12.256,-0.110,0.045
12.258,-0.095,0.055
12.261,-0.080,0.075
12.264,-0.075,0.075
12.267,-0.100,0.060
12.269,-0.095,0.045
12.272,-0.095,0.050
12.275,-0.070,0.060
12.278,-0.050,0.070
12.281,-0.025,0.050
12.283,-0.010,0.025
12.286,0.020,0.005
12.289,0.150,0.020
12.292,0.420,0.015
12.294,0.865,0.020
12.297,1.290,-0.025
12.300,1.455,-0.070
12.303,1.295,-0.150
12.306,1.055,-0.300
12.308,0.910,-0.540
12.311,0.880,-0.855
12.314,0.825,-1.125
12.317,0.740,-1.185
12.319,0.610,-1.095
12.322,0.495,-1.000
12.325,0.390,-0.930
12.328,0.280,-0.895
12.331,0.160,-0.890
12.333,0.015,-0.890
12.336,-0.135,-0.880
12.339,-0.295,-0.875
12.342,-0.470,-0.875
12.344,-0.625,-0.880
12.347,-0.820,-0.895
12.350,-1.005,-0.915
12.353,-1.200,-0.930
12.356,-1.345,-0.925
12.358,-1.455,-0.915
12.361,-1.535,-0.905
12.364,-1.635,-0.915
12.367,-1.740,-0.930
12.369,-1.845,-0.955
12.372,-1.915,-0.955
12.375,-1.960,-0.945
12.378,-1.975,-0.945
12.381,-1.980,-0.950
12.383,-1.995,-0.960
12.386,-2.010,-0.970
12.389,-1.970,-0.965
12.392,-1.915,-0.960
12.394,-1.840,-0.980
12.397,-1.760,-0.990
12.400,-1.665,-1.020
12.403,-1.555,-1.030
12.406,-1.445,-1.040
12.408,-1.270,-1.025
12.411,-1.095,-1.000
12.414,-0.950,-0.985
12.417,-0.875,-0.955
12.419,-0.820,-0.920
12.422,-0.765,-0.875
12.425,-0.690,-0.825
12.428,-0.600,-0.790
12.431,-0.530,-0.750
12.433,-0.460,-0.720
12.436,-0.420,-0.680
12.439,-0.350,-0.620
12.442,-0.285,-0.545
12.444,-0.210,-0.475
12.447,-0.140,-0.410
12.450,-0.065,-0.365
12.453,-0.030,-0.305
12.456,0.020,-0.245
12.458,0.065,-0.180
12.461,0.130,-0.115
12.464,0.160,-0.075
12.467,0.190,-0.045
12.469,0.200,-0.010
12.472,0.200,0.015
12.475,0.210,0.075
12.478,0.250,0.080
12.481,0.230,0.100
12.483,0.225,0.105
12.486,0.220,0.105
12.489,0.240,0.120
12.492,0.265,0.160
12.494,0.300,0.180
12.497,0.305,0.185
12.500,0.295,0.175
12.503,0.285,0.170
12.506,0.280,0.190
12.508,0.320,0.210
12.511,0.335,0.230
12.514,0.350,0.220
12.517,0.355,0.235
12.519,0.355,0.235
12.522,0.355,0.250
12.525,0.375,0.275
12.528,0.400,0.290
12.531,0.415,0.290
12.533,0.420,0.280
12.536,0.405,0.280
12.539,0.425,0.285
12.542,0.460,0.300
12.544,0.475,0.330
12.547,0.500,0.310
12.550,0.495,0.305
12.553,0.515,0.310
12.556,0.505,0.330
12.558,0.530,0.340
12.561,0.560,0.345
12.564,0.575,0.320
12.567,0.590,0.325
12.569,0.595,0.330
12.572,0.610,0.340
12.575,0.645,0.345
12.578,0.685,0.350
12.581,0.725,0.340
12.583,0.725,0.340
12.586,0.740,0.335
12.589,0.780,0.350
12.592,0.800,0.365
12.594,0.840,0.385
12.597,0.875,0.390
12.600,0.880,0.380
12.603,0.895,0.380
12.606,0.915,0.400
12.608,0.945,0.430
12.611,0.970,0.445
12.614,0.985,0.460
12.617,0.970,0.470
12.619,0.970,0.475
12.622,0.980,0.505
12.625,1.000,0.520
12.628,1.035,0.530
12.631,1.040,0.535
12.633,1.030,0.535
12.636,1.025,0.540
12.639,1.025,0.560
12.642,1.030,0.600
12.644,1.025,0.620
12.647,1.020,0.610
12.650,0.980,0.600
12.653,0.955,0.605
12.656,0.925,0.610
12.658,0.910,0.640
12.661,0.910,0.650
12.664,0.870,0.625
12.667,0.825,0.600
12.669,0.750,0.600
12.672,0.720,0.585
12.675,0.680,0.590
12.678,0.640,0.585
12.681,0.595,0.560
12.683,0.530,0.530
12.686,0.460,0.505
12.689,0.440,0.490
12.692,0.405,0.485
12.694,0.375,0.475
12.697,0.335,0.435
12.700,0.285,0.390
12.703,0.225,0.355
12.706,0.200,0.340
12.708,0.170,0.335
12.711,0.155,0.330
12.714,0.135,0.300
12.717,0.090,0.265
12.719,0.055,0.245
12.722,0.035,0.235
12.725,0.025,0.235
12.728,0.030,0.230
12.731,0.005,0.200
12.733,-0.010,0.165
12.736,-0.035,0.150
12.739,-0.055,0.165
12.742,-0.060,0.160
12.744,-0.040,0.175
12.747,-0.055,0.170
12.750,-0.075,0.135
12.753,-0.090,0.115
12.756,-0.100,0.125
12.758,-0.085,0.130
12.761,-0.070,0.135
12.764,-0.065,0.140
12.767,-0.080,0.125
12.769,-0.080,0.125
12.772,-0.080,0.150
12.775,-0.065,0.160
12.778,-0.065,0.165
12.781,-0.075,0.165
12.783,-0.085,0.155
12.786,-0.100,0.140
12.789,-0.105,0.155
12.792,-0.095,0.160
12.794,-0.085,0.170
12.797,-0.085,0.160
12.800,-0.110,0.145
12.803,-0.115,0.155
12.806,-0.115,0.155
12.808,-0.100,0.170
12.811,-0.080,0.175
12.814,-0.090,0.165
12.817,-0.110,0.145
12.819,-0.110,0.140
12.822,-0.125,0.150
12.825,-0.120,0.150
12.828,-0.110,0.160
12.831,-0.095,0.150
12.833,-0.115,0.125
12.836,-0.125,0.115
12.839,-0.135,0.115
12.842,-0.140,0.120
12.844,-0.120,0.130
12.847,-0.125,0.105
12.850,-0.135,0.095
12.853,-0.160,0.090
12.856,-0.150,0.085
12.858,-0.140,0.095
12.861,-0.125,0.095
12.864,-0.150,0.090
12.867,-0.145,0.085
12.869,-0.160,0.090
12.872,-0.165,0.090
12.875,-0.165,0.085
12.878,-0.150,0.105
12.881,-0.155,0.105
12.883,-0.175,0.085
12.886,-0.205,0.080
12.889,-0.195,0.100
12.892,-0.185,0.105
12.894,-0.170,0.115
12.897,-0.155,0.120
12.900,-0.190,0.100
12.903,-0.205,0.080
12.906,-0.210,0.115
12.908,-0.205,0.125
12.911,-0.195,0.140
12.914,-0.180,0.130
12.917,-0.195,0.105
12.919,-0.215,0.115
12.922,-0.210,0.115
12.925,-0.200,0.120
12.928,-0.195,0.120
12.931,-0.190,0.115
12.933,-0.185,0.120
12.936,-0.210,0.105
12.939,-0.210,0.110
12.942,-0.175,0.125
12.944,-0.175,0.125
12.947,-0.165,0.115
12.950,-0.180,0.090
12.953,-0.200,0.090
12.956,-0.210,0.080
12.958,-0.200,0.095
12.961,-0.200,0.105
12.964,-0.190,0.095
12.967,-0.195,0.080
12.969,-0.225,0.070
12.972,-0.220,0.070
12.975,-0.195,0.070
12.978,-0.185,0.085
12.981,-0.195,0.075
12.983,-0.200,0.060
12.986,-0.205,0.060
12.989,-0.210,0.065
12.992,-0.195,0.075
12.994,-0.190,0.080
12.997,-0.200,0.065
13.000,-0.210,0.050
13.003,-0.235,0.040
13.006,-0.250,0.055
13.008,-0.220,0.075
13.011,-0.205,0.075
13.014,-0.210,0.065
13.017,-0.210,0.060
13.019,-0.215,0.060
13.022,-0.210,0.065
13.025,-0.190,0.085
13.028,-0.180,0.080
13.031,-0.185,0.070
13.033,-0.175,0.060
13.036,-0.190,0.050
13.039,-0.190,0.065
13.042,-0.190,0.085
13.044,-0.170,0.095
13.047,-0.195,0.090
13.050,-0.200,0.085
13.053,-0.205,0.075
13.056,-0.200,0.085
13.058,-0.190,0.090
13.061,-0.155,0.095
13.064,-0.140,0.085
13.067,-0.135,0.075
13.069,-0.130,0.075
13.072,-0.100,0.060
13.075,-0.045,0.080
13.078,0.045,0.070
13.081,0.230,0.060
13.083,0.580,0.045
13.086,1.020,0.025
13.089,1.310,0.020
13.092,1.300,-0.025
13.094,1.095,-0.085
13.097,0.910,-0.230
13.100,0.795,-0.465
13.103,0.725,-0.780
13.106,0.680,-1.055
13.108,0.590,-1.180
13.111,0.520,-1.135
13.114,0.430,-1.025
13.117,0.300,-0.945
13.119,0.185,-0.920
13.122,0.055,-0.890
13.125,-0.040,-0.865
13.128,-0.150,-0.840
13.131,-0.270,-0.840
13.133,-0.435,-0.845
13.136,-0.575,-0.860
13.139,-0.725,-0.865
13.142,-0.880,-0.870
13.144,-1.045,-0.870
13.147,-1.220,-0.905
13.150,-1.385,-0.915
13.153,-1.515,-0.935
13.156,-1.620,-0.910
13.158,-1.690,-0.915
13.161,-1.745,-0.925
13.164,-1.820,-0.940
13.167,-1.885,-0.965
13.169,-1.935,-0.975
13.172,-1.955,-0.985
13.175,-1.970,-0.980
13.178,-1.950,-0.960
13.181,-1.950,-0.980
13.183,-1.900,-1.025
13.186,-1.870,-1.040
13.189,-1.835,-1.080
13.192,-1.750,-1.105
13.194,-1.635,-1.120
13.197,-1.515,-1.135
13.200,-1.365,-1.175
13.203,-1.235,-1.175
13.206,-1.095,-1.150
13.208,-0.980,-1.110
13.211,-0.900,-1.055
13.214,-0.875,-1.030
13.217,-0.865,-0.990
13.219,-0.835,-0.985
13.222,-0.780,-0.940
13.225,-0.710,-0.865
13.228,-0.645,-0.815
13.231,-0.570,-0.770
13.233,-0.515,-0.715
13.236,-0.465,-0.660
13.239,-0.405,-0.595
13.242,-0.310,-0.525
13.244,-0.225,-0.445
13.247,-0.175,-0.385
13.250,-0.120,-0.320
13.253,-0.085,-0.275
13.256,-0.050,-0.210
13.258,-0.015,-0.135
13.261,0.020,-0.095
13.264,0.045,-0.035
13.267,0.055,-0.005
13.269,0.050,0.035
13.272,0.060,0.075
13.275,0.105,0.120
13.278,0.120,0.150
13.281,0.125,0.145
13.283,0.135,0.155
13.286,0.125,0.155
13.289,0.135,0.185
13.292,0.135,0.205
13.294,0.170,0.220
13.297,0.170,0.220
13.300,0.165,0.205
13.303,0.155,0.225
13.306,0.155,0.235
13.308,0.165,0.255
13.311,0.185,0.270
13.314,0.190,0.280
13.317,0.190,0.275
13.319,0.195,0.285
13.322,0.230,0.300
13.325,0.245,0.325
13.328,0.285,0.335
13.331,0.300,0.335
13.333,0.290,0.335
13.336,0.295,0.335
13.339,0.290,0.355
13.342,0.330,0.375
13.344,0.350,0.405
13.347,0.360,0.405
13.350,0.355,0.395
13.353,0.355,0.400
13.356,0.355,0.420
13.358,0.380,0.440
13.361,0.420,0.450
13.364,0.430,0.465
13.367,0.410,0.455
13.369,0.425,0.445
13.372,0.440,0.465
13.375,0.465,0.470
13.378,0.485,0.490
13.381,0.495,0.490
13.383,0.505,0.465
13.386,0.505,0.470
13.389,0.530,0.485
13.392,0.560,0.505
13.394,0.590,0.520
13.397,0.610,0.520
13.400,0.620,0.510
13.403,0.610,0.520
13.406,0.615,0.530
13.408,0.645,0.555
13.411,0.685,0.575
13.414,0.695,0.570
13.417,0.715,0.575
13.419,0.715,0.580
13.422,0.725,0.595
13.425,0.760,0.630
13.428,0.780,0.640
13.431,0.790,0.640
13.433,0.785,0.630
13.436,0.775,0.635
13.439,0.780,0.635
13.442,0.810,0.645
13.444,0.815,0.650
13.447,0.810,0.650
13.450,0.800,0.655
13.453,0.805,0.650
13.456,0.805,0.670
13.458,0.825,0.685
13.461,0.840,0.695
13.464,0.830,0.685
13.467,0.785,0.670
13.469,0.765,0.655
13.472,0.750,0.650
13.475,0.730,0.660
13.478,0.725,0.665
13.481,0.690,0.655
13.483,0.655,0.630
13.486,0.605,0.620
13.489,0.570,0.635
13.492,0.560,0.640
13.494,0.535,0.635
13.497,0.490,0.625
13.500,0.440,0.605
13.503,0.400,0.600
13.506,0.355,0.595
13.508,0.320,0.585
13.511,0.305,0.570
13.514,0.265,0.540
13.517,0.215,0.525
13.519,0.180,0.485
13.522,0.135,0.485
13.525,0.110,0.465
13.528,0.085,0.450
13.531,0.070,0.430
13.533,0.030,0.395
13.536,0.000,0.370
13.539,-0.030,0.370
13.542,-0.030,0.355
13.544,-0.045,0.340
13.547,-0.065,0.335
13.550,-0.080,0.315
13.553,-0.115,0.290
13.556,-0.120,0.290
13.558,-0.145,0.300
13.561,-0.155,0.295
13.564,-0.165,0.290
13.567,-0.155,0.275
13.569,-0.170,0.260
13.572,-0.170,0.240
13.575,-0.150,0.255
13.578,-0.125,0.265
13.581,-0.120,0.260
13.583,-0.120,0.250
13.586,-0.150,0.230
13.589,-0.150,0.230
13.592,-0.135,0.240
13.594,-0.110,0.245
13.597,-0.085,0.230
13.600,-0.085,0.230
13.603,-0.090,0.225
13.606,-0.100,0.230
13.608,-0.095,0.230
13.611,-0.075,0.235
13.614,-0.080,0.215
13.617,-0.105,0.190
13.619,-0.130,0.195
13.622,-0.145,0.190
13.625,-0.145,0.190
13.628,-0.125,0.200
13.631,-0.125,0.195
13.633,-0.135,0.185
13.636,-0.160,0.190
13.639,-0.155,0.195
13.642,-0.140,0.205
13.644,-0.140,0.205
13.647,-0.150,0.195
13.650,-0.180,0.195
13.653,-0.215,0.185
13.656,-0.205,0.200
13.658,-0.185,0.200
13.661,-0.180,0.225
13.664,-0.185,0.210
13.667,-0.200,0.190
13.669,-0.215,0.190
13.672,-0.235,0.200
13.675,-0.235,0.215
13.678,-0.225,0.230
13.681,-0.225,0.220
13.683,-0.245,0.200
13.686,-0.245,0.200
13.689,-0.245,0.215
13.692,-0.240,0.220
13.694,-0.225,0.235
13.697,-0.230,0.230
13.700,-0.235,0.210
13.703,-0.250,0.205
13.706,-0.250,0.215
13.708,-0.250,0.220
13.711,-0.250,0.230
13.714,-0.230,0.220
13.717,-0.250,0.220
13.719,-0.250,0.200
13.722,-0.265,0.220
13.725,-0.235,0.230
13.728,-0.230,0.240
13.731,-0.245,0.240
13.733,-0.245,0.230
13.736,-0.265,0.220
13.739,-0.250,0.225
13.742,-0.235,0.230
13.744,-0.215,0.230
13.747,-0.220,0.205
13.750,-0.225,0.200
13.753,-0.230,0.220
13.756,-0.225,0.215
13.758,-0.205,0.210
13.761,-0.195,0.205
13.764,-0.205,0.185
13.767,-0.240,0.160
13.769,-0.255,0.145
13.772,-0.260,0.135
13.775,-0.255,0.155
13.778,-0.230,0.170
13.781,-0.235,0.150
13.783,-0.250,0.140
13.786,-0.260,0.135
13.789,-0.270,0.150
13.792,-0.255,0.160
13.794,-0.250,0.165
13.797,-0.260,0.155
13.800,-0.270,0.145
13.803,-0.280,0.140
13.806,-0.280,0.170
13.808,-0.265,0.175
13.811,-0.260,0.185
13.814,-0.255,0.165
13.817,-0.265,0.150
13.819,-0.265,0.160
13.822,-0.270,0.165
13.825,-0.250,0.180
13.828,-0.240,0.180
13.831,-0.245,0.180
13.833,-0.245,0.155
13.836,-0.265,0.145
13.839,-0.285,0.150
13.842,-0.265,0.165
13.844,-0.245,0.180
13.847,-0.225,0.175
13.850,-0.235,0.160
13.853,-0.245,0.145
13.856,-0.245,0.155
13.858,-0.245,0.170
13.861,-0.220,0.170
13.864,-0.220,0.160
13.867,-0.220,0.150
13.869,-0.235,0.130
13.872,-0.250,0.130
13.875,-0.215,0.140
13.878,-0.220,0.130
13.881,-0.195,0.130
13.883,-0.205,0.110
13.886,-0.220,0.100
13.889,-0.210,0.090
13.892,-0.205,0.105
13.894,-0.185,0.115
13.897,-0.170,0.105
13.900,-0.185,0.080
13.903,-0.205,0.060
13.906,-0.190,0.080
13.908,-0.180,0.085
13.911,-0.140,0.090
13.914,-0.135,0.080
13.917,-0.085,0.050
13.919,-0.005,0.040
13.922,0.210,0.035
13.925,0.610,0.050
13.928,1.040,0.035
13.931,1.285,-0.005
13.933,1.215,-0.080
13.936,1.000,-0.195
13.939,0.825,-0.365
13.942,0.755,-0.625
13.944,0.720,-0.920
13.947,0.670,-1.065
13.950,0.555,-1.030
13.953,0.455,-0.935
13.956,0.355,-0.845
13.958,0.230,-0.810
13.961,0.120,-0.785
13.964,0.010,-0.770
13.967,-0.120,-0.760
13.969,-0.255,-0.765
13.972,-0.395,-0.750
13.975,-0.525,-0.730
13.978,-0.670,-0.740
13.981,-0.815,-0.745
13.983,-0.990,-0.775
13.986,-1.150,-0.795
13.989,-1.290,-0.800
13.992,-1.405,-0.785
13.994,-1.510,-0.795
13.997,-1.615,-0.800
14.000,-1.710,-0.810
14.003,-1.775,-0.835
14.006,-1.855,-0.830
14.008,-1.900,-0.840
14.011,-1.910,-0.830
14.014,-1.940,-0.855
14.017,-1.965,-0.865
14.019,-1.945,-0.895
14.022,-1.920,-0.925
14.025,-1.890,-0.920
14.028,-1.815,-0.940
14.031,-1.740,-0.980
14.033,-1.670,-1.015
14.036,-1.585,-1.035
14.039,-1.450,-1.040
14.042,-1.305,-1.040
14.044,-1.170,-1.035
14.047,-1.050,-1.035
14.050,-0.975,-1.010
14.053,-0.940,-0.985
14.056,-0.890,-0.925
14.058,-0.850,-0.905
14.061,-0.800,-0.860
14.064,-0.740,-0.825
14.067,-0.705,-0.810
14.069,-0.660,-0.755
14.072,-0.590,-0.690
14.075,-0.515,-0.610
14.078,-0.445,-0.545
14.081,-0.370,-0.485
14.083,-0.330,-0.435
14.086,-0.265,-0.385
14.089,-0.205,-0.305
14.092,-0.135,-0.225
14.094,-0.075,-0.170
14.097,0.005,-0.100
14.100,0.020,-0.055
14.103,0.040,-0.010
14.106,0.070,0.060
14.108,0.110,0.115
14.111,0.145,0.165
14.114,0.155,0.185
14.117,0.155,0.200
14.119,0.140,0.230
14.122,0.150,0.250
14.125,0.180,0.280
14.128,0.200,0.315
14.131,0.210,0.300
14.133,0.210,0.310
14.136,0.210,0.320
14.139,0.210,0.340
14.142,0.220,0.370
14.144,0.245,0.370
14.147,0.245,0.355
14.150,0.240,0.350
14.153,0.245,0.350
14.156,0.225,0.365
14.158,0.240,0.380
14.161,0.270,0.390
14.164,0.280,0.380
14.167,0.290,0.365
14.169,0.285,0.360
14.172,0.300,0.375
14.175,0.325,0.385
14.178,0.350,0.400
14.181,0.355,0.390
14.183,0.355,0.375
14.186,0.365,0.375
14.189,0.370,0.390
14.192,0.400,0.405
14.194,0.430,0.400
14.197,0.435,0.405
14.200,0.450,0.395
14.203,0.445,0.395
14.206,0.465,0.395
14.208,0.500,0.405
14.211,0.540,0.420
14.214,0.555,0.420
14.217,0.550,0.415
14.219,0.560,0.420
14.222,0.580,0.430
14.225,0.600,0.450
14.228,0.640,0.460
14.231,0.650,0.465
14.233,0.665,0.465
14.236,0.660,0.470
14.239,0.670,0.490
14.242,0.700,0.520
14.244,0.760,0.540
14.247,0.785,0.530
14.250,0.785,0.535
14.253,0.800,0.545
14.256,0.815,0.570
14.258,0.840,0.610
14.261,0.885,0.650
14.264,0.900,0.645
14.267,0.885,0.650
14.269,0.885,0.640
14.272,0.895,0.660
14.275,0.920,0.680
14.278,0.955,0.690
14.281,0.955,0.700
14.283,0.955,0.685
14.286,0.935,0.700
14.289,0.935,0.730
14.292,0.935,0.735
14.294,0.925,0.735
14.297,0.935,0.730
14.300,0.915,0.730
14.303,0.895,0.720
14.306,0.875,0.740
14.308,0.865,0.750
14.311,0.865,0.755
14.314,0.840,0.735
14.317,0.795,0.725
14.319,0.755,0.710
14.322,0.735,0.720
14.325,0.725,0.720
14.328,0.700,0.720
14.331,0.655,0.685
14.333,0.605,0.665
14.336,0.555,0.640
14.339,0.510,0.630
14.342,0.475,0.630
14.344,0.450,0.615
14.347,0.390,0.585
14.350,0.360,0.550
14.353,0.315,0.530
14.356,0.275,0.520
14.358,0.245,0.495
14.361,0.225,0.495
14.364,0.200,0.465
14.367,0.160,0.430
14.369,0.125,0.400
14.372,0.090,0.395
14.375,0.080,0.400
14.378,0.065,0.395
14.381,0.040,0.380
14.383,0.015,0.345
14.386,-0.020,0.340
14.389,-0.035,0.325
14.392,-0.030,0.340
14.394,-0.035,0.335
14.397,-0.050,0.320
14.400,-0.070,0.305
14.403,-0.085,0.290
14.406,-0.100,0.305
14.408,-0.085,0.315
14.411,-0.090,0.325
14.414,-0.090,0.300
14.417,-0.110,0.290
14.419,-0.120,0.280
14.422,-0.120,0.305
14.425,-0.095,0.315
14.428,-0.085,0.315
14.431,-0.085,0.315
14.433,-0.105,0.305
14.436,-0.120,0.290
14.439,-0.115,0.300
14.442,-0.115,0.305
14.444,-0.090,0.325
14.447,-0.110,0.305
14.450,-0.120,0.290
14.453,-0.135,0.280
14.456,-0.115,0.300
14.458,-0.115,0.310
14.461,-0.100,0.315
14.464,-0.095,0.305
14.467,-0.095,0.270
14.469,-0.115,0.290
14.472,-0.135,0.280
14.475,-0.120,0.300
14.478,-0.105,0.290
14.481,-0.100,0.280
14.483,-0.115,0.275
14.486,-0.130,0.255
14.489,-0.135,0.275
14.492,-0.145,0.265
14.494,-0.130,0.270
14.497,-0.130,0.270
14.500,-0.145,0.250
14.503,-0.160,0.250
14.506,-0.155,0.265
14.508,-0.155,0.265
14.511,-0.130,0.265
14.514,-0.140,0.260
14.517,-0.155,0.240
14.519,-0.175,0.230
14.522,-0.170,0.240
14.525,-0.160,0.250
14.528,-0.155,0.250
14.531,-0.180,0.240
14.533,-0.195,0.255
14.536,-0.230,0.245
14.539,-0.235,0.235
14.542,-0.230,0.260
14.544,-0.200,0.260
14.547,-0.200,0.250
14.550,-0.215,0.250
14.553,-0.215,0.250
14.556,-0.205,0.255
14.558,-0.205,0.280
14.561,-0.185,0.275
14.564,-0.180,0.275
14.567,-0.200,0.260
14.569,-0.210,0.265
14.572,-0.205,0.285
14.575,-0.185,0.300
14.578,-0.185,0.310
14.581,-0.190,0.315
14.583,-0.215,0.300
14.586,-0.230,0.295
14.589,-0.225,0.290
14.592,-0.210,0.300
14.594,-0.180,0.300
14.597,-0.185,0.295
14.600,-0.185,0.265
14.603,-0.195,0.265
14.606,-0.195,0.265
14.608,-0.185,0.285
14.611,-0.170,0.280
14.614,-0.160,0.280
14.617,-0.190,0.255
14.619,-0.205,0.245
14.622,-0.210,0.260
14.625,-0.200,0.260
14.628,-0.190,0.265
14.631,-0.180,0.255
14.633,-0.185,0.235
14.636,-0.195,0.225
14.639,-0.215,0.230
14.642,-0.205,0.255
14.644,-0.185,0.240
14.647,-0.185,0.225
14.650,-0.210,0.210
14.653,-0.215,0.200
14.656,-0.210,0.205
14.658,-0.195,0.215
14.661,-0.180,0.210
14.664,-0.185,0.210
14.667,-0.205,0.180
14.669,-0.215,0.170
14.672,-0.225,0.185
14.675,-0.210,0.195
14.678,-0.230,0.190
14.681,-0.230,0.190
14.683,-0.230,0.175
14.686,-0.255,0.185
14.689,-0.250,0.190
14.692,-0.240,0.195
14.694,-0.220,0.190
14.697,-0.225,0.195
14.700,-0.235,0.195
14.703,-0.245,0.170
14.706,-0.235,0.195
14.708,-0.215,0.215
14.711,-0.190,0.220
14.714,-0.175,0.225
14.717,-0.195,0.210
14.719,-0.210,0.195
14.722,-0.190,0.220
14.725,-0.190,0.235
14.728,-0.175,0.240
14.731,-0.170,0.230
14.733,-0.180,0.225
14.736,-0.190,0.210
14.739,-0.195,0.220
14.742,-0.180,0.225
14.744,-0.145,0.240
14.747,-0.165,0.220
14.750,-0.165,0.210
14.753,-0.175,0.215
14.756,-0.155,0.215
14.758,-0.145,0.215
14.761,-0.125,0.215
14.764,-0.125,0.215
14.767,-0.140,0.200
14.769,-0.140,0.185
14.772,-0.135,0.195
14.775,-0.105,0.205
14.778,-0.105,0.200
14.781,-0.085,0.175
14.783,-0.065,0.165
14.786,-0.055,0.150
14.789,0.030,0.150
14.792,0.225,0.150
14.794,0.575,0.140
14.797,1.000,0.125
14.800,1.290,0.085
14.803,1.315,0.060
14.806,1.145,0.010
14.808,0.970,-0.060
14.811,0.880,-0.210
14.814,0.810,-0.465
14.817,0.760,-0.755
14.819,0.660,-0.940
14.822,0.570,-0.920
14.825,0.485,-0.835
14.828,0.400,-0.775
14.831,0.330,-0.750
14.833,0.225,-0.740
14.836,0.105,-0.740
14.839,0.000,-0.710
14.842,-0.090,-0.680
14.844,-0.180,-0.680
14.847,-0.300,-0.680
14.850,-0.440,-0.690
14.853,-0.590,-0.695
14.856,-0.740,-0.685
14.858,-0.900,-0.675
14.861,-1.040,-0.675
14.864,-1.195,-0.685
14.867,-1.345,-0.720
14.869,-1.490,-0.740
14.872,-1.570,-0.740
14.875,-1.645,-0.720
14.878,-1.690,-0.730
14.881,-1.775,-0.730
14.883,-1.835,-0.740
14.886,-1.885,-0.755
14.889,-1.925,-0.755
14.892,-1.910,-0.730
14.894,-1.900,-0.740
14.897,-1.890,-0.725
14.900,-1.880,-0.750
14.903,-1.850,-0.765
14.906,-1.820,-0.790
14.908,-1.765,-0.795
14.911,-1.685,-0.815
14.914,-1.585,-0.850
14.917,-1.495,-0.860
14.919,-1.410,-0.885
14.922,-1.280,-0.875
14.925,-1.145,-0.850
14.928,-1.010,-0.830
14.931,-0.910,-0.805
14.933,-0.850,-0.790
14.936,-0.815,-0.775
14.939,-0.775,-0.740
14.942,-0.720,-0.695
14.944,-0.650,-0.650
14.947,-0.590,-0.630
14.950,-0.545,-0.605
14.953,-0.490,-0.550
14.956,-0.425,-0.490
14.958,-0.345,-0.415
14.961,-0.275,-0.355
14.964,-0.205,-0.305
14.967,-0.160,-0.265
14.969,-0.120,-0.195
14.972,-0.065,-0.135
14.975,0.000,-0.070
14.978,0.030,-0.005
14.981,0.055,0.035
14.983,0.060,0.070
14.986,0.070,0.100
14.989,0.095,0.155
14.992,0.140,0.185
14.994,0.175,0.215
14.997,0.180,0.235
15.000,0.180,0.230
15.003,0.190,0.245
15.006,0.190,0.260
15.008,0.210,0.290
15.011,0.220,0.320
15.014,0.210,0.315
15.017,0.230,0.325
15.019,0.215,0.335
15.022,0.215,0.350
15.025,0.255,0.390
15.028,0.285,0.400
15.031,0.280,0.385
15.033,0.295,0.395
15.036,0.300,0.390
15.039,0.290,0.395
15.042,0.320,0.435
15.044,0.345,0.440
15.047,0.340,0.430
15.050,0.340,0.425
15.053,0.340,0.425
15.056,0.345,0.440
15.058,0.365,0.455
15.061,0.405,0.455
15.064,0.405,0.445
15.067,0.410,0.440
15.069,0.400,0.445
15.072,0.420,0.465
15.075,0.430,0.470
15.078,0.465,0.480
15.081,0.470,0.465
15.083,0.465,0.445
15.086,0.470,0.450
15.089,0.475,0.470
15.092,0.485,0.475
15.094,0.520,0.485
15.097,0.545,0.470
15.100,0.535,0.475
15.103,0.535,0.455
15.106,0.555,0.475
15.108,0.595,0.505
15.111,0.630,0.500
15.114,0.640,0.490
15.117,0.640,0.490
15.119,0.635,0.475
15.122,0.650,0.500
15.125,0.670,0.515
15.128,0.720,0.540
15.131,0.735,0.545
15.133,0.755,0.545
15.136,0.760,0.560
15.139,0.775,0.580
15.142,0.800,0.600
15.144,0.825,0.610
15.147,0.860,0.605
15.150,0.845,0.610
15.153,0.865,0.615
15.156,0.880,0.620
15.158,0.905,0.660
15.161,0.935,0.670
15.164,0.945,0.690
15.167,0.930,0.685
15.169,0.935,0.690
15.172,0.930,0.705
15.175,0.955,0.715
15.178,0.975,0.735
15.181,0.965,0.740
15.183,0.935,0.725
15.186,0.930,0.720
15.189,0.895,0.735
15.192,0.905,0.750
15.194,0.905,0.745
15.197,0.890,0.745
15.200,0.860,0.735
15.203,0.835,0.730
15.206,0.815,0.740
15.208,0.785,0.745
15.211,0.790,0.760
15.214,0.740,0.740
15.217,0.705,0.720
15.219,0.680,0.715
15.222,0.645,0.720
15.225,0.610,0.720
15.228,0.590,0.725
15.231,0.565,0.680
15.233,0.510,0.655
15.236,0.465,0.645
15.239,0.440,0.640
15.242,0.415,0.630
15.244,0.395,0.620
15.247,0.350,0.600
15.250,0.300,0.560
15.253,0.260,0.545
15.256,0.230,0.555
15.258,0.215,0.545
15.261,0.205,0.535
15.264,0.170,0.505
15.267,0.150,0.485
15.269,0.115,0.460
15.272,0.105,0.440
15.275,0.085,0.435
15.278,0.080,0.440
15.281,0.060,0.430
15.283,0.040,0.395
15.286,0.010,0.390
15.289,0.000,0.370
15.292,0.005,0.375
15.294,-0.005,0.375
15.297,-0.015,0.370
15.300,-0.030,0.345
15.303,-0.045,0.335
15.306,-0.060,0.345
15.308,-0.040,0.325
15.311,-0.030,0.350
15.314,-0.040,0.325
15.317,-0.045,0.315
15.319,-0.055,0.310
15.322,-0.070,0.330
15.325,-0.070,0.345
15.328,-0.050,0.350
15.331,-0.045,0.345
15.333,-0.070,0.335
15.336,-0.065,0.335
15.339,-0.070,0.345
15.342,-0.055,0.365
15.344,-0.045,0.355
15.347,-0.055,0.350
15.350,-0.075,0.340
15.353,-0.075,0.325
15.356,-0.075,0.335
15.358,-0.060,0.345
15.361,-0.060,0.340
15.364,-0.060,0.340
15.367,-0.070,0.330
15.369,-0.070,0.330
15.372,-0.070,0.325
15.375,-0.055,0.335
15.378,-0.050,0.335
15.381,-0.055,0.335
15.383,-0.075,0.310
15.386,-0.080,0.310
15.389,-0.095,0.315
15.392,-0.070,0.325
15.394,-0.065,0.315
15.397,-0.080,0.305
15.400,-0.090,0.290
15.403,-0.115,0.275
15.406,-0.125,0.285
15.408,-0.130,0.305
15.411,-0.090,0.290
15.414,-0.105,0.290
15.417,-0.110,0.280
15.419,-0.120,0.280
15.422,-0.110,0.280
15.425,-0.100,0.300
15.428,-0.085,0.300
15.431,-0.085,0.285
15.433,-0.100,0.265
15.436,-0.120,0.270
15.439,-0.125,0.280
15.442,-0.120,0.295
15.444,-0.115,0.305
15.447,-0.125,0.295
15.450,-0.135,0.285
15.453,-0.160,0.280
15.456,-0.160,0.295
15.458,-0.150,0.320
15.461,-0.150,0.320
15.464,-0.155,0.305
15.467,-0.155,0.300
15.469,-0.170,0.300
15.472,-0.155,0.295
15.475,-0.140,0.305
15.478,-0.135,0.315
15.481,-0.150,0.290
15.483,-0.165,0.280
15.486,-0.180,0.280
15.489,-0.170,0.295
15.492,-0.155,0.300
15.494,-0.135,0.300
15.497,-0.140,0.280
15.500,-0.150,0.280
15.503,-0.160,0.280
15.506,-0.170,0.295
15.508,-0.155,0.310
15.511,-0.145,0.315
15.514,-0.160,0.315
15.517,-0.155,0.285
15.519,-0.160,0.285
15.522,-0.160,0.295
15.525,-0.160,0.295
15.528,-0.155,0.300
15.531,-0.145,0.300
15.533,-0.165,0.275
15.536,-0.175,0.280
15.539,-0.185,0.280
15.542,-0.165,0.295
15.544,-0.140,0.295
15.547,-0.155,0.290
15.550,-0.165,0.265
15.553,-0.170,0.260
15.556,-0.175,0.260
15.558,-0.155,0.270
15.561,-0.155,0.280
15.564,-0.145,0.260
15.567,-0.150,0.245
15.569,-0.175,0.240
15.572,-0.155,0.250
15.575,-0.140,0.260
15.578,-0.130,0.265
15.581,-0.125,0.260
15.583,-0.135,0.245
15.586,-0.150,0.240
15.589,-0.155,0.245
15.592,-0.145,0.255
15.594,-0.140,0.265
15.597,-0.150,0.255
15.600,-0.165,0.250
15.603,-0.175,0.255
15.606,-0.190,0.265
15.608,-0.170,0.275
15.611,-0.170,0.290
15.614,-0.160,0.270
15.617,-0.165,0.265
15.619,-0.175,0.260
15.622,-0.175,0.275
15.625,-0.165,0.295
15.628,-0.135,0.300
15.631,-0.125,0.290
15.633,-0.150,0.275
15.636,-0.155,0.270
15.639,-0.155,0.285
15.642,-0.145,0.285
15.644,-0.130,0.300
15.647,-0.135,0.285
15.650,-0.140,0.265
15.653,-0.155,0.275
15.656,-0.150,0.280
15.658,-0.135,0.290
15.661,-0.135,0.300
15.664,-0.120,0.285
15.667,-0.125,0.260
15.669,-0.155,0.255
15.672,-0.145,0.255
15.675,-0.130,0.270
15.678,-0.130,0.265
15.681,-0.110,0.250
15.683,-0.120,0.235
15.686,-0.120,0.240
15.689,-0.090,0.225
15.692,-0.060,0.240
15.694,-0.035,0.240
15.697,0.025,0.220
15.700,0.105,0.200
15.703,0.315,0.195
15.706,0.685,0.195
15.708,1.125,0.185
15.711,1.415,0.170
15.714,1.385,0.105
15.717,1.190,0.025
15.719,0.990,-0.110
15.722,0.895,-0.340
15.725,0.850,-0.640
15.728,0.815,-0.950
15.731,0.740,-1.115
15.733,0.645,-1.090
15.736,0.560,-0.980
15.739,0.465,-0.875
15.742,0.390,-0.815
15.744,0.315,-0.765
15.747,0.195,-0.755
15.750,0.080,-0.730
15.753,-0.040,-0.720
15.756,-0.150,-0.695
15.758,-0.255,-0.670
15.761,-0.365,-0.665
15.764,-0.515,-0.680
15.767,-0.685,-0.690
15.769,-0.845,-0.710
15.772,-0.995,-0.700
15.775,-1.130,-0.700
15.778,-1.245,-0.700
15.781,-1.365,-0.695
15.783,-1.480,-0.715
15.786,-1.575,-0.710
15.789,-1.660,-0.705
15.792,-1.715,-0.700
15.794,-1.760,-0.705
15.797,-1.795,-0.715
15.800,-1.835,-0.725
15.803,-1.830,-0.735
15.806,-1.825,-0.740
15.808,-1.770,-0.750
15.811,-1.720,-0.780
15.814,-1.690,-0.810
15.817,-1.645,-0.845
15.819,-1.585,-0.890
15.822,-1.480,-0.910
15.825,-1.340,-0.920
15.828,-1.195,-0.930
15.831,-1.060,-0.940
15.833,-0.945,-0.945
15.836,-0.855,-0.905
15.839,-0.795,-0.880
15.842,-0.775,-0.825
15.844,-0.750,-0.800
15.847,-0.715,-0.775
15.850,-0.685,-0.750
15.853,-0.630,-0.715
15.856,-0.555,-0.650
15.858,-0.475,-0.590
15.861,-0.395,-0.535
15.864,-0.335,-0.475
15.867,-0.275,-0.425
15.869,-0.225,-0.380
15.872,-0.175,-0.295
15.875,-0.100,-0.230
15.878,-0.030,-0.155
15.881,0.010,-0.100
15.883,0.035,-0.065
15.886,0.040,0.000
15.889,0.065,0.070
15.892,0.100,0.130
15.894,0.135,0.180
15.897,0.145,0.210
15.900,0.155,0.240
15.903,0.160,0.260
15.906,0.165,0.305
15.908,0.200,0.335
15.911,0.230,0.360
15.914,0.235,0.365
15.917,0.215,0.370
15.919,0.215,0.375
15.922,0.225,0.405
15.925,0.245,0.435
15.928,0.260,0.450
15.931,0.250,0.465
15.933,0.245,0.465
15.936,0.255,0.465
15.939,0.260,0.480
15.942,0.290,0.495
15.944,0.325,0.510
15.947,0.315,0.505
15.950,0.305,0.495
15.953,0.330,0.505
15.956,0.320,0.510
15.958,0.350,0.540
15.961,0.370,0.535
15.964,0.375,0.530
15.967,0.375,0.530
15.969,0.375,0.530
15.972,0.400,0.540
15.975,0.415,0.555
15.978,0.440,0.555
15.981,0.460,0.540
15.983,0.455,0.525
15.986,0.455,0.530
15.989,0.455,0.550
15.992,0.505,0.560
15.994,0.520,0.575
15.997,0.520,0.560
16.000,0.535,0.540
16.003,0.545,0.555
16.006,0.555,0.565
16.008,0.590,0.575
16.011,0.625,0.590
16.014,0.645,0.585
16.017,0.645,0.590
16.019,0.650,0.580
16.022,0.670,0.605
16.025,0.700,0.620
16.028,0.730,0.620
16.031,0.740,0.625
16.033,0.755,0.620
16.036,0.765,0.635
16.039,0.780,0.655
16.042,0.815,0.670
16.044,0.830,0.680
16.047,0.850,0.685
16.050,0.840,0.675
16.053,0.845,0.695
16.056,0.855,0.710
16.058,0.870,0.735
16.061,0.900,0.755
16.064,0.900,0.760
16.067,0.905,0.765
16.069,0.890,0.775
16.072,0.890,0.800
16.075,0.910,0.820
16.078,0.910,0.840
16.081,0.900,0.840
16.083,0.885,0.835
16.086,0.855,0.830
16.089,0.835,0.855
16.092,0.845,0.865
16.094,0.845,0.875
16.097,0.815,0.875
16.100,0.765,0.860
16.103,0.730,0.855
16.106,0.705,0.865
16.108,0.705,0.870
16.111,0.695,0.860
16.114,0.655,0.845
16.117,0.605,0.820
16.119,0.575,0.805
16.122,0.525,0.805
16.125,0.505,0.800
16.128,0.475,0.775
16.131,0.425,0.750
16.133,0.385,0.725
16.136,0.345,0.690
16.139,0.315,0.670
16.142,0.300,0.650
16.144,0.280,0.630
16.147,0.250,0.610
16.150,0.205,0.580
16.153,0.180,0.535
16.156,0.135,0.535
16.158,0.135,0.525
16.161,0.110,0.500
16.164,0.080,0.480
16.167,0.045,0.450
16.169,0.025,0.440
16.172,0.020,0.415
16.175,0.020,0.425
16.178,0.035,0.415
16.181,0.020,0.390
16.183,0.015,0.355
16.186,-0.010,0.360
16.189,-0.015,0.355
16.192,-0.020,0.365
16.194,-0.030,0.350
16.197,-0.025,0.345
16.200,-0.035,0.340
16.203,-0.045,0.325
16.206,-0.055,0.340
16.208,-0.050,0.350
16.211,-0.035,0.355
16.214,-0.030,0.350
16.217,-0.050,0.345
16.219,-0.070,0.335
16.222,-0.075,0.345
16.225,-0.075,0.355
16.228,-0.045,0.360
16.231,-0.055,0.360
16.233,-0.065,0.340
16.236,-0.070,0.340
16.239,-0.085,0.360
16.242,-0.080,0.365
16.244,-0.060,0.385
16.247,-0.050,0.360
16.250,-0.065,0.360
16.253,-0.070,0.355
16.256,-0.070,0.365
16.258,-0.050,0.380
16.261,-0.060,0.380
16.264,-0.055,0.380
16.267,-0.075,0.365
16.269,-0.085,0.360
16.272,-0.085,0.375
16.275,-0.080,0.385
16.278,-0.090,0.390
16.281,-0.105,0.375
16.283,-0.125,0.365
16.286,-0.135,0.350
16.289,-0.120,0.360
16.292,-0.115,0.370
16.294,-0.095,0.375
16.297,-0.080,0.360
16.300,-0.100,0.340
16.303,-0.095,0.350
16.306,-0.095,0.355
16.308,-0.065,0.365
16.311,-0.050,0.365
16.314,-0.050,0.345
16.317,-0.065,0.325
16.319,-0.090,0.305
16.322,-0.105,0.305
16.325,-0.100,0.305
16.328,-0.120,0.310
16.331,-0.125,0.260
16.333,-0.130,0.265
16.336,-0.145,0.270
16.339,-0.140,0.295
16.342,-0.145,0.310
16.344,-0.130,0.320
16.347,-0.135,0.305
16.350,-0.150,0.290
16.353,-0.150,0.285
16.356,-0.160,0.290
16.358,-0.145,0.310
16.361,-0.120,0.305
16.364,-0.115,0.300
16.367,-0.150,0.290
16.369,-0.135,0.290
16.372,-0.155,0.295
16.375,-0.135,0.305
16.378,-0.130,0.295
16.381,-0.130,0.290
16.383,-0.140,0.290
16.386,-0.155,0.285
16.389,-0.160,0.300
16.392,-0.150,0.325
16.394,-0.150,0.315
16.397,-0.150,0.315
16.400,-0.170,0.290
16.403,-0.180,0.295
16.406,-0.190,0.300
16.408,-0.165,0.320
16.411,-0.165,0.315
16.414,-0.160,0.310
16.417,-0.170,0.300
16.419,-0.180,0.290
16.422,-0.180,0.310
16.425,-0.160,0.315
16.428,-0.140,0.325
16.431,-0.145,0.315
16.433,-0.150,0.280
16.436,-0.155,0.290
16.439,-0.170,0.295
16.442,-0.160,0.310
16.444,-0.130,0.320
16.447,-0.155,0.305
16.450,-0.155,0.290
16.453,-0.140,0.285
16.456,-0.155,0.290
16.458,-0.125,0.300
16.461,-0.085,0.310
16.464,-0.080,0.305
16.467,-0.100,0.280
16.469,-0.130,0.260
16.472,-0.155,0.270
16.475,-0.155,0.275
16.478,-0.155,0.275
16.481,-0.145,0.255
16.483,-0.145,0.240
16.486,-0.150,0.240
16.489,-0.150,0.255
16.492,-0.140,0.265
16.494,-0.115,0.260
16.497,-0.130,0.260
16.500,-0.145,0.245
16.503,-0.150,0.235
16.506,-0.160,0.250
16.508,-0.135,0.260
16.511,-0.120,0.260
16.514,-0.130,0.255
16.517,-0.130,0.245
16.519,-0.145,0.230
16.522,-0.125,0.245
16.525,-0.115,0.250
16.528,-0.095,0.235
16.531,-0.095,0.220
16.533,-0.100,0.220
16.536,-0.085,0.205
16.539,-0.035,0.210
16.542,0.060,0.235
16.544,0.265,0.225
16.547,0.575,0.205
16.550,0.980,0.195
16.553,1.280,0.180
16.556,1.340,0.155
16.558,1.190,0.125
16.561,1.005,0.050
16.564,0.880,-0.110
16.567,0.800,-0.370
16.569,0.730,-0.705
16.572,0.655,-0.925
16.575,0.575,-0.940
16.578,0.490,-0.820
16.581,0.395,-0.730
16.583,0.265,-0.715
16.586,0.135,-0.700
16.589,0.025,-0.665
16.592,-0.085,-0.630
16.594,-0.195,-0.630
16.597,-0.335,-0.640
16.600,-0.495,-0.660
16.603,-0.655,-0.670
16.606,-0.800,-0.655
16.608,-0.950,-0.660
16.611,-1.090,-0.655
16.614,-1.245,-0.685
16.617,-1.370,-0.680
16.619,-1.490,-0.685
16.622,-1.595,-0.680
16.625,-1.640,-0.670
16.628,-1.700,-0.680
16.631,-1.775,-0.700
16.633,-1.840,-0.720
16.636,-1.885,-0.735
16.639,-1.915,-0.725
16.642,-1.905,-0.715
16.644,-1.875,-0.715
16.647,-1.845,-0.735
16.650,-1.820,-0.760
16.653,-1.770,-0.800
16.656,-1.710,-0.805
16.658,-1.625,-0.815
16.661,-1.505,-0.845
16.664,-1.380,-0.865
16.667,-1.245,-0.895
16.669,-1.130,-0.880
16.672,-0.995,-0.855
16.675,-0.885,-0.815
16.678,-0.810,-0.780
16.681,-0.785,-0.740
16.683,-0.745,-0.730
16.686,-0.705,-0.695
16.689,-0.635,-0.645
16.692,-0.570,-0.595
16.694,-0.490,-0.550
16.697,-0.420,-0.510
16.700,-0.385,-0.460
16.703,-0.315,-0.395
16.706,-0.250,-0.340
16.708,-0.190,-0.240
16.711,-0.095,-0.190
16.714,-0.030,-0.135
16.717,0.000,-0.095
16.719,0.035,-0.035
16.722,0.080,0.035
16.725,0.120,0.100
16.728,0.145,0.150
16.731,0.160,0.185
16.733,0.150,0.210
16.736,0.155,0.240
16.739,0.185,0.270
16.742,0.210,0.310
16.744,0.225,0.330
16.747,0.225,0.320
16.750,0.220,0.315
16.753,0.215,0.325
16.756,0.200,0.345
16.758,0.230,0.370
16.761,0.240,0.365
16.764,0.245,0.370
16.767,0.230,0.350
16.769,0.235,0.365
16.772,0.245,0.390
16.775,0.280,0.400
16.778,0.330,0.405
16.781,0.325,0.410
16.783,0.325,0.395
16.786,0.325,0.415
16.789,0.330,0.430
16.792,0.365,0.460
16.794,0.375,0.460
16.797,0.395,0.465
16.800,0.405,0.455
16.803,0.410,0.455
16.806,0.415,0.475
16.808,0.445,0.490
16.811,0.475,0.495
16.814,0.475,0.500
16.817,0.480,0.485
16.819,0.485,0.505
16.822,0.505,0.505
16.825,0.530,0.535
16.828,0.570,0.535
16.831,0.565,0.540
16.833,0.570,0.530
16.836,0.580,0.530
16.839,0.595,0.550
16.842,0.635,0.565
16.844,0.670,0.560
16.847,0.685,0.565
16.850,0.700,0.565
16.853,0.695,0.570
16.856,0.715,0.585
16.858,0.740,0.600
16.861,0.785,0.605
16.864,0.795,0.605
16.867,0.820,0.590
16.869,0.825,0.605
16.872,0.840,0.620
16.875,0.870,0.645
16.878,0.895,0.660
16.881,0.895,0.655
16.883,0.915,0.660
16.886,0.905,0.650
16.889,0.925,0.655
16.892,0.935,0.665
16.894,0.945,0.680
16.897,0.955,0.670
16.900,0.940,0.665
16.903,0.935,0.670
16.906,0.940,0.685
16.908,0.940,0.705
16.911,0.970,0.710
16.914,0.965,0.710
16.917,0.950,0.700
16.919,0.930,0.705
16.922,0.910,0.730
16.925,0.910,0.745
16.928,0.905,0.745
16.931,0.890,0.730
16.933,0.865,0.725
16.936,0.820,0.725
16.939,0.780,0.735
16.942,0.775,0.740
16.944,0.745,0.730
16.947,0.705,0.710
16.950,0.655,0.700
16.953,0.595,0.680
16.956,0.560,0.670
16.958,0.530,0.665
16.961,0.495,0.655
16.964,0.455,0.610
16.967,0.410,0.605
16.969,0.355,0.585
16.972,0.315,0.570
16.975,0.295,0.570
16.978,0.275,0.545
16.981,0.230,0.530
16.983,0.175,0.490
16.986,0.140,0.470
16.989,0.120,0.480
16.992,0.105,0.450
16.994,0.085,0.430
16.997,0.060,0.425
17.000,0.025,0.390
17.003,0.000,0.375
17.006,-0.025,0.375
17.008,-0.025,0.370
17.011,-0.020,0.345
17.014,-0.045,0.335
17.017,-0.065,0.315
17.019,-0.100,0.310
17.022,-0.095,0.310
17.025,-0.085,0.315
17.028,-0.075,0.300
17.031,-0.085,0.290
17.033,-0.100,0.280
17.036,-0.120,0.255
17.039,-0.140,0.255
17.042,-0.120,0.275
17.044,-0.115,0.260
17.047,-0.130,0.260
17.050,-0.135,0.245
17.053,-0.160,0.255
17.056,-0.140,0.265
17.058,-0.125,0.265
17.061,-0.130,0.265
17.064,-0.125,0.260
17.067,-0.130,0.255
17.069,-0.145,0.245
17.072,-0.145,0.260
17.075,-0.125,0.295
17.078,-0.120,0.290
17.081,-0.120,0.285
17.083,-0.120,0.280
17.086,-0.135,0.275
17.089,-0.140,0.265
17.092,-0.130,0.295
17.094,-0.120,0.300
17.097,-0.140,0.295
17.100,-0.160,0.280
17.103,-0.160,0.285
17.106,-0.155,0.295
17.108,-0.145,0.300
17.111,-0.140,0.310
17.114,-0.150,0.300
17.117,-0.160,0.285
17.119,-0.190,0.280
17.122,-0.200,0.290
17.125,-0.180,0.300
17.128,-0.190,0.295
17.131,-0.185,0.295
17.133,-0.185,0.270
17.136,-0.220,0.260
17.139,-0.215,0.270
17.142,-0.205,0.280
17.144,-0.190,0.275
17.147,-0.195,0.265
17.150,-0.215,0.250
17.153,-0.235,0.235
17.156,-0.250,0.260
17.158,-0.235,0.260
17.161,-0.235,0.250
17.164,-0.225,0.235
17.167,-0.230,0.225
17.169,-0.230,0.215
17.172,-0.240,0.240
17.175,-0.250,0.255
17.178,-0.250,0.265
17.181,-0.245,0.270
17.183,-0.250,0.260
17.186,-0.260,0.250
17.189,-0.265,0.260
17.192,-0.255,0.250
17.194,-0.245,0.260
17.197,-0.240,0.255
17.200,-0.230,0.255
17.203,-0.240,0.245
17.206,-0.225,0.255
17.208,-0.230,0.235
17.211,-0.200,0.265
17.214,-0.225,0.270
17.217,-0.225,0.265
17.219,-0.225,0.245
17.222,-0.220,0.220
17.225,-0.210,0.210
17.228,-0.205,0.185
17.231,-0.205,0.185
17.233,-0.210,0.170
17.236,-0.220,0.180
17.239,-0.210,0.205
17.242,-0.210,0.240
17.244,-0.200,0.245
17.247,-0.200,0.220
17.250,-0.220,0.205
17.253,-0.230,0.210
17.256,-0.225,0.215
17.258,-0.225,0.240
17.261,-0.230,0.250
17.264,-0.220,0.230
17.267,-0.230,0.200
17.269,-0.260,0.180
17.272,-0.265,0.175
17.275,-0.260,0.175
17.278,-0.245,0.185
17.281,-0.250,0.175
