'Elapsed time','MLII','V1'
'seconds','mV','mV'
0.000,-0.285,0.050
0.003,-0.285,0.050
0.006,-0.285,0.050
0.008,-0.285,0.050
0.011,-0.285,0.050
0.014,-0.285,0.050
0.017,-0.285,0.050
0.019,-0.285,0.050
0.022,-0.290,0.050
0.025,-0.280,0.050
0.028,-0.300,0.055
0.031,-0.305,0.035
0.033,-0.320,0.015
0.036,-0.325,0.035
0.039,-0.315,0.055
0.042,-0.285,0.075
0.044,-0.285,0.065
0.047,-0.310,0.050
0.050,-0.320,0.035
0.053,-0.340,0.050
0.056,-0.325,0.075
0.058,-0.310,0.080
0.061,-0.315,0.080
0.064,-0.325,0.070
0.067,-0.335,0.065
0.069,-0.335,0.065
0.072,-0.305,0.085
0.075,-0.305,0.095
0.078,-0.305,0.085
0.081,-0.310,0.080
0.083,-0.325,0.070
0.086,-0.325,0.075
0.089,-0.320,0.085
0.092,-0.310,0.090
0.094,-0.295,0.085
0.097,-0.305,0.080
0.100,-0.315,0.060
0.103,-0.330,0.070
0.106,-0.335,0.080
0.108,-0.295,0.100
0.111,-0.300,0.085
0.114,-0.320,0.065
0.117,-0.330,0.055
0.119,-0.345,0.060
0.122,-0.340,0.080
0.125,-0.335,0.090
0.128,-0.325,0.070
0.131,-0.335,0.055
0.133,-0.340,0.040
0.136,-0.355,0.045
0.139,-0.330,0.050
0.142,-0.315,0.050
0.144,-0.305,0.050
0.147,-0.305,0.040
0.150,-0.330,0.025
0.153,-0.325,0.020
0.156,-0.310,0.030
0.158,-0.300,0.045
0.161,-0.290,0.035
0.164,-0.310,0.025
0.167,-0.320,-0.005
0.169,-0.325,0.010
0.172,-0.320,0.020
0.175,-0.290,0.030
0.178,-0.290,0.020
0.181,-0.295,0.005
0.183,-0.330,-0.010
0.186,-0.315,-0.010
0.189,-0.290,0.000
0.192,-0.270,0.005
0.194,-0.270,-0.020
0.197,-0.280,-0.030
0.200,-0.290,-0.050
0.203,-0.295,-0.055
0.206,-0.275,-0.060
0.208,-0.265,-0.045
0.211,-0.255,-0.050
0.214,-0.260,-0.065
0.217,-0.270,-0.085
0.219,-0.275,-0.100
0.222,-0.275,-0.100
0.225,-0.235,-0.075
0.228,-0.235,-0.085
0.231,-0.235,-0.095
0.233,-0.250,-0.105
0.236,-0.240,-0.105
0.239,-0.225,-0.105
0.242,-0.210,-0.115
0.244,-0.200,-0.110
0.247,-0.200,-0.125
0.250,-0.195,-0.135
0.253,-0.200,-0.145
0.256,-0.175,-0.145
0.258,-0.160,-0.125
0.261,-0.155,-0.125
0.264,-0.175,-0.135
0.267,-0.150,-0.130
0.269,-0.160,-0.130
0.272,-0.140,-0.110
0.275,-0.120,-0.105
0.278,-0.110,-0.115
0.281,-0.120,-0.115
0.283,-0.140,-0.110
0.286,-0.140,-0.100
0.289,-0.125,-0.055
0.292,-0.110,-0.035
0.294,-0.120,-0.020
0.297,-0.140,-0.025
0.300,-0.150,-0.005
0.303,-0.155,0.010
0.306,-0.145,0.040
0.308,-0.140,0.070
0.311,-0.140,0.080
0.314,-0.185,0.080
0.317,-0.185,0.080
0.319,-0.200,0.095
0.322,-0.185,0.095
0.325,-0.170,0.110
0.328,-0.175,0.100
0.331,-0.210,0.080
0.333,-0.220,0.065
0.336,-0.230,0.075
0.339,-0.215,0.085
0.342,-0.200,0.100
0.344,-0.210,0.085
0.347,-0.225,0.070
0.350,-0.245,0.065
0.353,-0.225,0.070
0.356,-0.230,0.090
0.358,-0.220,0.110
0.361,-0.215,0.095
0.364,-0.225,0.080
0.367,-0.245,0.065
0.369,-0.245,0.080
0.372,-0.215,0.075
0.375,-0.210,0.095
0.378,-0.210,0.085
0.381,-0.210,0.090
0.383,-0.225,0.085
0.386,-0.220,0.090
0.389,-0.215,0.105
0.392,-0.210,0.110
0.394,-0.210,0.085
0.397,-0.215,0.090
0.400,-0.230,0.075
0.403,-0.225,0.080
0.406,-0.220,0.090
0.408,-0.205,0.100
0.411,-0.200,0.100
0.414,-0.210,0.085
0.417,-0.210,0.075
0.419,-0.215,0.080
0.422,-0.210,0.090
0.425,-0.175,0.105
0.428,-0.170,0.080
0.431,-0.175,0.060
0.433,-0.205,0.075
0.436,-0.215,0.075
0.439,-0.210,0.075
0.442,-0.180,0.070
0.444,-0.175,0.055
0.447,-0.180,0.050
0.450,-0.195,0.045
0.453,-0.190,0.055
0.456,-0.205,0.055
0.458,-0.190,0.050
0.461,-0.205,0.030
0.464,-0.195,0.015
0.467,-0.195,0.005
0.469,-0.200,0.005
0.472,-0.195,0.010
0.475,-0.185,0.030
0.478,-0.185,0.025
0.481,-0.190,0.030
0.483,-0.205,0.015
0.486,-0.205,0.030
0.489,-0.205,0.040
0.492,-0.190,0.050
0.494,-0.200,0.045
0.497,-0.215,0.035
0.500,-0.225,0.020
0.503,-0.235,0.045
0.506,-0.225,0.065
0.508,-0.215,0.080
0.511,-0.205,0.070
0.514,-0.200,0.045
0.517,-0.210,0.035
0.519,-0.210,0.045
0.522,-0.205,0.070
0.525,-0.210,0.090
0.528,-0.200,0.085
0.531,-0.215,0.080
0.533,-0.220,0.060
0.536,-0.225,0.065
0.539,-0.215,0.070
0.542,-0.225,0.090
0.544,-0.205,0.085
0.547,-0.220,0.070
0.550,-0.220,0.070
0.553,-0.230,0.080
0.556,-0.220,0.110
0.558,-0.210,0.120
0.561,-0.200,0.120
0.564,-0.215,0.110
0.567,-0.215,0.105
0.569,-0.210,0.120
0.572,-0.190,0.125
0.575,-0.185,0.135
0.578,-0.170,0.115
0.581,-0.150,0.090
0.583,-0.110,0.055
0.586,-0.045,0.030
0.589,0.035,0.020
0.592,0.150,0.030
0.594,0.295,0.025
0.597,0.445,-0.005
0.600,0.640,-0.055
0.603,0.855,-0.085
0.606,1.080,-0.105
0.608,1.280,-0.095
0.611,1.415,-0.050
0.614,1.445,0.025
0.617,1.355,0.085
0.619,1.130,0.090
0.622,0.815,0.110
0.625,0.480,0.150
0.628,0.130,0.210
0.631,-0.190,0.260
0.633,-0.395,0.260
0.636,-0.415,0.245
0.639,-0.360,0.215
0.642,-0.285,0.175
0.644,-0.255,0.115
0.647,-0.265,0.075
0.650,-0.285,0.045
0.653,-0.290,0.060
0.656,-0.265,0.070
0.658,-0.250,0.090
0.661,-0.290,0.095
0.664,-0.285,0.085
0.667,-0.310,0.085
0.669,-0.315,0.100
0.672,-0.305,0.115
0.675,-0.295,0.110
0.678,-0.325,0.080
0.681,-0.320,0.085
0.683,-0.335,0.075
0.686,-0.335,0.085
0.689,-0.325,0.095
0.692,-0.315,0.105
0.694,-0.325,0.090
0.697,-0.335,0.095
0.700,-0.360,0.090
0.703,-0.375,0.110
0.706,-0.370,0.110
0.708,-0.325,0.130
0.711,-0.315,0.120
0.714,-0.320,0.095
0.717,-0.320,0.075
0.719,-0.335,0.075
0.722,-0.345,0.085
0.725,-0.310,0.100
0.728,-0.315,0.095
0.731,-0.320,0.080
0.733,-0.320,0.065
0.736,-0.345,0.075
0.739,-0.330,0.100
0.742,-0.320,0.105
0.744,-0.310,0.100
0.747,-0.320,0.070
0.750,-0.335,0.070
0.753,-0.325,0.065
0.756,-0.315,0.065
0.758,-0.295,0.085
0.761,-0.300,0.075
0.764,-0.300,0.070
0.767,-0.305,0.045
0.769,-0.280,0.040
0.772,-0.270,0.060
0.775,-0.265,0.075
0.778,-0.270,0.060
0.781,-0.270,0.050
0.783,-0.280,0.020
0.786,-0.275,0.025
0.789,-0.250,0.030
0.792,-0.240,0.035
0.794,-0.225,0.020
0.797,-0.240,0.005
0.800,-0.240,0.000
0.803,-0.245,-0.005
0.806,-0.240,0.010
0.808,-0.220,0.010
0.811,-0.215,-0.005
0.814,-0.230,-0.010
0.817,-0.235,-0.045
0.819,-0.240,-0.030
0.822,-0.215,-0.040
0.825,-0.210,-0.030
0.828,-0.190,-0.035
0.831,-0.190,-0.060
0.833,-0.200,-0.085
0.836,-0.185,-0.075
0.839,-0.185,-0.070
0.842,-0.160,-0.060
0.844,-0.160,-0.065
0.847,-0.150,-0.090
0.850,-0.175,-0.095
0.853,-0.155,-0.095
0.856,-0.140,-0.090
0.858,-0.115,-0.075
0.861,-0.110,-0.075
0.864,-0.120,-0.095
0.867,-0.115,-0.100
0.869,-0.105,-0.105
0.872,-0.090,-0.085
0.875,-0.075,-0.080
0.878,-0.075,-0.075
0.881,-0.095,-0.100
0.883,-0.120,-0.090
0.886,-0.120,-0.085
0.889,-0.105,-0.045
0.892,-0.105,-0.050
0.894,-0.115,-0.045
0.897,-0.120,-0.060
0.900,-0.145,-0.060
0.903,-0.145,-0.025
0.906,-0.145,0.000
0.908,-0.145,0.025
0.911,-0.170,0.030
0.914,-0.185,0.015
0.917,-0.215,0.030
0.919,-0.215,0.040
0.922,-0.215,0.075
0.925,-0.195,0.085
0.928,-0.190,0.095
0.931,-0.230,0.100
0.933,-0.240,0.095
0.936,-0.220,0.110
0.939,-0.225,0.130
0.942,-0.230,0.130
0.944,-0.215,0.125
0.947,-0.230,0.110
0.950,-0.245,0.110
0.953,-0.255,0.120
0.956,-0.260,0.140
0.958,-0.245,0.150
0.961,-0.225,0.145
0.964,-0.240,0.135
0.967,-0.250,0.120
0.969,-0.260,0.125
0.972,-0.245,0.135
0.975,-0.215,0.135
0.978,-0.215,0.125
0.981,-0.210,0.110
0.983,-0.225,0.100
0.986,-0.225,0.120
0.989,-0.215,0.140
0.992,-0.205,0.150
0.994,-0.200,0.120
0.997,-0.220,0.110
1.000,-0.225,0.095
1.003,-0.220,0.110
1.006,-0.225,0.125
1.008,-0.220,0.135
1.011,-0.200,0.115
1.014,-0.205,0.100
1.017,-0.215,0.100
1.019,-0.225,0.105
1.022,-0.215,0.105
1.025,-0.200,0.120
1.028,-0.215,0.110
1.031,-0.230,0.080
1.033,-0.260,0.065
1.036,-0.260,0.075
1.039,-0.225,0.085
1.042,-0.225,0.095
1.044,-0.220,0.085
1.047,-0.230,0.075
1.050,-0.230,0.060
1.053,-0.230,0.075
1.056,-0.220,0.090
1.058,-0.210,0.100
1.061,-0.210,0.100
1.064,-0.230,0.080
1.067,-0.230,0.065
1.069,-0.235,0.075
1.072,-0.220,0.085
1.075,-0.195,0.105
1.078,-0.185,0.095
1.081,-0.200,0.095
1.083,-0.225,0.100
1.086,-0.210,0.090
1.089,-0.215,0.090
1.092,-0.185,0.090
1.094,-0.160,0.095
1.097,-0.175,0.080
1.100,-0.200,0.090
1.103,-0.195,0.110
1.106,-0.185,0.110
1.108,-0.165,0.115
1.111,-0.180,0.105
1.114,-0.175,0.085
1.117,-0.175,0.080
1.119,-0.185,0.105
1.122,-0.175,0.115
1.125,-0.175,0.115
1.128,-0.175,0.105
1.131,-0.185,0.090
1.133,-0.205,0.075
1.136,-0.200,0.085
1.139,-0.200,0.105
1.142,-0.200,0.120
1.144,-0.185,0.105
1.147,-0.190,0.090
1.150,-0.210,0.075
1.153,-0.210,0.090
1.156,-0.195,0.100
1.158,-0.185,0.115
1.161,-0.175,0.095
1.164,-0.195,0.080
1.167,-0.220,0.085
1.169,-0.200,0.080
1.172,-0.215,0.100
1.175,-0.180,0.095
1.178,-0.180,0.085
1.181,-0.205,0.090
1.183,-0.205,0.085
1.186,-0.210,0.080
1.189,-0.185,0.095
1.192,-0.165,0.110
1.194,-0.145,0.090
1.197,-0.125,0.060
1.200,-0.100,0.045
1.203,-0.040,0.050
1.206,0.050,0.050
1.208,0.165,0.060
1.211,0.290,0.045
1.214,0.440,0.020
1.217,0.610,-0.020
1.219,0.810,-0.070
1.222,1.030,-0.100
1.225,1.235,-0.080
1.228,1.375,-0.070
1.231,1.435,0.005
1.233,1.380,0.070
1.236,1.185,0.110
1.239,0.915,0.130
1.242,0.615,0.165
1.244,0.300,0.205
1.247,-0.015,0.225
1.250,-0.235,0.240
1.253,-0.325,0.240
1.256,-0.305,0.245
1.258,-0.235,0.205
1.261,-0.200,0.150
1.264,-0.190,0.110
1.267,-0.185,0.095
1.269,-0.190,0.100
1.272,-0.190,0.105
1.275,-0.200,0.105
1.278,-0.205,0.110
1.281,-0.225,0.110
1.283,-0.280,0.090
1.286,-0.250,0.085
1.289,-0.255,0.100
1.292,-0.245,0.105
1.294,-0.260,0.115
1.297,-0.280,0.090
1.300,-0.295,0.070
1.303,-0.295,0.080
1.306,-0.285,0.100
1.308,-0.280,0.100
1.311,-0.260,0.105
1.314,-0.285,0.075
1.317,-0.300,0.080
1.319,-0.305,0.095
1.322,-0.290,0.105
1.325,-0.270,0.095
1.328,-0.270,0.085
1.331,-0.280,0.080
1.333,-0.300,0.075
1.336,-0.310,0.075
1.339,-0.300,0.070
1.342,-0.270,0.080
1.344,-0.270,0.075
1.347,-0.285,0.070
1.350,-0.295,0.070
1.353,-0.295,0.070
1.356,-0.280,0.080
1.358,-0.260,0.080
1.361,-0.260,0.075
1.364,-0.260,0.065
1.367,-0.270,0.060
1.369,-0.275,0.075
1.372,-0.265,0.085
1.375,-0.245,0.095
1.378,-0.235,0.080
1.381,-0.255,0.080
1.383,-0.255,0.070
1.386,-0.255,0.090
1.389,-0.225,0.085
1.392,-0.200,0.105
1.394,-0.200,0.100
1.397,-0.205,0.085
1.400,-0.220,0.085
1.403,-0.220,0.080
1.406,-0.210,0.095
1.408,-0.215,0.090
1.411,-0.210,0.095
1.414,-0.180,0.075
1.417,-0.200,0.055
1.419,-0.205,0.045
1.422,-0.195,0.055
1.425,-0.175,0.070
1.428,-0.165,0.050
1.431,-0.180,0.035
1.433,-0.165,0.025
1.436,-0.160,0.020
1.439,-0.145,0.030
1.442,-0.155,0.025
1.444,-0.145,0.010
1.447,-0.145,-0.020
1.450,-0.160,-0.030
1.453,-0.150,-0.035
1.456,-0.150,-0.040
1.458,-0.140,-0.040
1.461,-0.130,-0.040
1.464,-0.155,-0.055
1.467,-0.155,-0.070
1.469,-0.130,-0.075
1.472,-0.120,-0.070
1.475,-0.095,-0.060
1.478,-0.100,-0.060
1.481,-0.105,-0.100
1.483,-0.110,-0.110
1.486,-0.120,-0.105
1.489,-0.100,-0.110
1.492,-0.060,-0.090
1.494,-0.055,-0.105
1.497,-0.055,-0.100
1.500,-0.060,-0.105
1.503,-0.055,-0.095
1.506,-0.040,-0.065
1.508,-0.020,-0.050
1.511,-0.015,-0.055
1.514,-0.025,-0.050
1.517,-0.040,-0.040
1.519,-0.055,-0.035
1.522,-0.040,0.000
1.525,-0.020,0.005
1.528,-0.040,0.010
1.531,-0.040,0.000
1.533,-0.050,0.010
1.536,-0.070,0.045
1.539,-0.060,0.070
1.542,-0.065,0.075
1.544,-0.070,0.075
1.547,-0.085,0.065
1.550,-0.105,0.065
1.553,-0.120,0.085
1.556,-0.125,0.120
1.558,-0.115,0.140
1.561,-0.135,0.145
1.564,-0.165,0.135
1.567,-0.190,0.130
1.569,-0.190,0.135
1.572,-0.170,0.140
1.575,-0.165,0.140
1.578,-0.180,0.140
1.581,-0.200,0.110
1.583,-0.210,0.115
1.586,-0.225,0.110
1.589,-0.210,0.120
1.592,-0.175,0.145
1.594,-0.180,0.135
1.597,-0.200,0.115
1.600,-0.205,0.115
1.603,-0.180,0.135
1.606,-0.130,0.140
1.608,-0.105,0.140
1.611,-0.080,0.145
1.614,-0.065,0.140
1.617,-0.060,0.140
1.619,-0.030,0.170
1.622,0.005,0.185
1.625,0.045,0.190
1.628,0.085,0.190
1.631,0.140,0.165
1.633,0.205,0.135
1.636,0.270,0.075
1.639,0.340,-0.005
1.642,0.415,-0.060
1.644,0.500,-0.125
1.647,0.575,-0.210
1.650,0.640,-0.285
1.653,0.710,-0.375
1.656,0.790,-0.450
1.658,0.885,-0.550
1.661,0.975,-0.675
1.664,1.060,-0.790
1.667,1.130,-0.875
1.669,1.180,-0.940
1.672,1.220,-0.980
1.675,1.215,-0.995
1.678,1.195,-1.015
1.681,1.150,-1.040
1.683,1.105,-1.070
1.686,1.030,-1.085
1.689,0.970,-1.075
1.692,0.880,-1.065
1.694,0.755,-1.060
1.697,0.610,-1.050
1.700,0.470,-0.995
1.703,0.370,-0.930
1.706,0.275,-0.850
1.708,0.220,-0.760
1.711,0.170,-0.700
1.714,0.135,-0.620
1.717,0.120,-0.565
1.719,0.105,-0.480
1.722,0.090,-0.415
1.725,0.115,-0.350
1.728,0.145,-0.285
1.731,0.190,-0.235
1.733,0.250,-0.195
1.736,0.340,-0.145
1.739,0.370,-0.105
1.742,0.335,-0.065
1.744,0.185,-0.035
1.747,-0.020,0.015
1.750,-0.220,0.050
1.753,-0.320,0.145
1.756,-0.370,0.225
1.758,-0.390,0.285
1.761,-0.425,0.325
1.764,-0.445,0.335
1.767,-0.500,0.335
1.769,-0.515,0.355
1.772,-0.505,0.375
1.775,-0.505,0.400
1.778,-0.535,0.400
1.781,-0.575,0.400
1.783,-0.605,0.400
1.786,-0.605,0.435
1.789,-0.590,0.450
1.792,-0.585,0.470
1.794,-0.615,0.445
1.797,-0.630,0.430
1.800,-0.655,0.450
1.803,-0.665,0.455
1.806,-0.650,0.480
1.808,-0.630,0.485
1.811,-0.645,0.480
1.814,-0.665,0.470
1.817,-0.670,0.470
1.819,-0.700,0.495
1.822,-0.670,0.525
1.825,-0.675,0.540
1.828,-0.680,0.550
1.831,-0.685,0.540
1.833,-0.700,0.540
1.836,-0.690,0.565
1.839,-0.710,0.585
1.842,-0.705,0.625
1.844,-0.705,0.625
1.847,-0.715,0.630
1.850,-0.715,0.625
1.853,-0.720,0.650
1.856,-0.715,0.660
1.858,-0.705,0.685
1.861,-0.690,0.690
1.864,-0.710,0.695
1.867,-0.725,0.700
1.869,-0.725,0.735
1.872,-0.715,0.770
1.875,-0.700,0.795
1.878,-0.695,0.790
1.881,-0.730,0.795
1.883,-0.740,0.795
1.886,-0.715,0.810
1.889,-0.685,0.830
1.892,-0.660,0.840
1.894,-0.650,0.830
1.897,-0.650,0.815
1.900,-0.670,0.810
1.903,-0.645,0.835
1.906,-0.630,0.845
1.908,-0.605,0.845
1.911,-0.595,0.835
1.914,-0.600,0.815
1.917,-0.630,0.780
1.919,-0.605,0.790
1.922,-0.570,0.790
1.925,-0.535,0.785
1.928,-0.520,0.750
1.931,-0.515,0.710
1.933,-0.525,0.680
1.936,-0.505,0.680
1.939,-0.475,0.665
1.942,-0.440,0.650
1.944,-0.430,0.620
1.947,-0.420,0.585
1.950,-0.430,0.555
1.953,-0.410,0.535
1.956,-0.385,0.535
1.958,-0.355,0.510
1.961,-0.340,0.465
1.964,-0.340,0.425
1.967,-0.355,0.415
1.969,-0.340,0.390
1.972,-0.320,0.385
1.975,-0.310,0.370
1.978,-0.295,0.340
1.981,-0.285,0.310
1.983,-0.315,0.295
1.986,-0.305,0.290
1.989,-0.305,0.295
1.992,-0.275,0.290
1.994,-0.285,0.275
1.997,-0.280,0.235
2.000,-0.290,0.205
2.003,-0.285,0.170
2.006,-0.275,0.170
2.008,-0.235,0.160
2.011,-0.245,0.155
2.014,-0.255,0.155
2.017,-0.280,0.140
2.019,-0.280,0.135
2.022,-0.285,0.155
2.025,-0.260,0.155
2.028,-0.260,0.130
2.031,-0.260,0.125
2.033,-0.255,0.130
2.036,-0.250,0.125
2.039,-0.235,0.135
2.042,-0.225,0.145
2.044,-0.220,0.135
2.047,-0.225,0.130
2.050,-0.235,0.120
2.053,-0.235,0.125
2.056,-0.210,0.135
2.058,-0.200,0.145
2.061,-0.215,0.140
2.064,-0.215,0.130
2.067,-0.250,0.130
2.069,-0.240,0.125
2.072,-0.230,0.130
2.075,-0.225,0.140
2.078,-0.225,0.135
2.081,-0.235,0.130
2.083,-0.265,0.125
2.086,-0.260,0.135
2.089,-0.230,0.150
2.092,-0.225,0.165
2.094,-0.220,0.140
2.097,-0.220,0.140
2.100,-0.240,0.130
2.103,-0.225,0.140
2.106,-0.225,0.165
2.108,-0.195,0.160
2.111,-0.200,0.145
2.114,-0.215,0.125
2.117,-0.235,0.120
2.119,-0.240,0.130
2.122,-0.235,0.130
2.125,-0.205,0.160
2.128,-0.195,0.145
2.131,-0.200,0.120
2.133,-0.210,0.110
2.136,-0.210,0.120
2.139,-0.215,0.135
2.142,-0.220,0.155
2.144,-0.205,0.150
2.147,-0.205,0.120
2.150,-0.215,0.120
2.153,-0.215,0.135
2.156,-0.210,0.130
2.158,-0.210,0.145
2.161,-0.215,0.135
2.164,-0.210,0.130
2.167,-0.215,0.125
2.169,-0.210,0.135
2.172,-0.205,0.145
2.175,-0.185,0.145
2.178,-0.185,0.130
2.181,-0.200,0.120
2.183,-0.225,0.120
2.186,-0.230,0.130
2.189,-0.205,0.130
2.192,-0.185,0.135
2.194,-0.180,0.130
2.197,-0.185,0.125
2.200,-0.205,0.120
2.203,-0.205,0.120
2.206,-0.210,0.135
2.208,-0.195,0.140
2.211,-0.205,0.135
2.214,-0.195,0.120
2.217,-0.220,0.120
2.219,-0.230,0.130
2.222,-0.225,0.145
2.225,-0.215,0.140
2.228,-0.210,0.135
2.231,-0.210,0.130
2.233,-0.215,0.140
2.236,-0.225,0.145
2.239,-0.210,0.150
2.242,-0.200,0.145
2.244,-0.195,0.140
2.247,-0.210,0.110
2.250,-0.230,0.085
2.253,-0.220,0.105
2.256,-0.205,0.110
2.258,-0.190,0.145
2.261,-0.195,0.135
2.264,-0.200,0.125
2.267,-0.225,0.115
2.269,-0.215,0.120
2.272,-0.210,0.120
2.275,-0.185,0.135
2.278,-0.190,0.125
2.281,-0.200,0.120
2.283,-0.205,0.125
2.286,-0.205,0.120
2.289,-0.205,0.140
2.292,-0.195,0.145
2.294,-0.200,0.145
2.297,-0.215,0.130
2.300,-0.205,0.135
2.303,-0.215,0.135
2.306,-0.200,0.145
2.308,-0.185,0.155
2.311,-0.175,0.145
2.314,-0.195,0.135
2.317,-0.210,0.130
2.319,-0.230,0.140
2.322,-0.200,0.140
2.325,-0.195,0.145
2.328,-0.185,0.130
2.331,-0.190,0.120
2.333,-0.215,0.120
2.336,-0.215,0.125
2.339,-0.205,0.145
2.342,-0.195,0.145
2.344,-0.205,0.145
2.347,-0.235,0.130
2.350,-0.235,0.120
2.353,-0.240,0.130
2.356,-0.220,0.140
2.358,-0.200,0.145
2.361,-0.210,0.145
2.364,-0.230,0.140
2.367,-0.240,0.125
2.369,-0.235,0.125
2.372,-0.230,0.120
2.375,-0.200,0.130
2.378,-0.195,0.115
2.381,-0.215,0.115
2.383,-0.220,0.095
2.386,-0.230,0.110
2.389,-0.210,0.120
2.392,-0.190,0.135
2.394,-0.195,0.125
2.397,-0.215,0.115
2.400,-0.225,0.115
2.403,-0.225,0.120
2.406,-0.185,0.135
2.408,-0.190,0.140
2.411,-0.180,0.135
2.414,-0.185,0.120
2.417,-0.210,0.115
2.419,-0.200,0.125
2.422,-0.190,0.135
2.425,-0.165,0.155
2.428,-0.180,0.135
2.431,-0.190,0.120
2.433,-0.205,0.110
2.436,-0.210,0.130
2.439,-0.180,0.130
2.442,-0.170,0.145
2.444,-0.180,0.140
2.447,-0.185,0.135
2.450,-0.195,0.130
2.453,-0.205,0.135
2.456,-0.210,0.150
2.458,-0.185,0.155
2.461,-0.180,0.140
2.464,-0.200,0.135
2.467,-0.215,0.130
2.469,-0.215,0.135
2.472,-0.185,0.155
2.475,-0.160,0.155
2.478,-0.165,0.140
2.481,-0.170,0.135
2.483,-0.165,0.135
2.486,-0.180,0.135
2.489,-0.160,0.155
2.492,-0.145,0.155
2.494,-0.135,0.160
2.497,-0.145,0.120
2.500,-0.155,0.130
2.503,-0.160,0.135
2.506,-0.145,0.135
2.508,-0.120,0.150
2.511,-0.125,0.150
2.514,-0.130,0.130
2.517,-0.130,0.105
2.519,-0.135,0.125
2.522,-0.130,0.135
2.525,-0.115,0.135
2.528,-0.095,0.135
2.531,-0.090,0.105
2.533,-0.070,0.085
2.536,-0.020,0.090
2.539,0.045,0.095
2.542,0.135,0.090
2.544,0.220,0.070
2.547,0.335,0.050
2.550,0.460,0.015
2.553,0.615,0.000
2.556,0.780,-0.035
2.558,0.970,-0.065
2.561,1.145,-0.090
2.564,1.275,-0.080
2.567,1.375,-0.025
2.569,1.395,0.075
2.572,1.300,0.155
2.575,1.130,0.165
2.578,0.855,0.160
2.581,0.565,0.155
2.583,0.260,0.200
2.586,-0.005,0.260
2.589,-0.195,0.305
2.592,-0.280,0.340
2.594,-0.280,0.320
2.597,-0.240,0.275
2.600,-0.215,0.225
2.603,-0.210,0.205
2.606,-0.170,0.185
2.608,-0.170,0.175
2.611,-0.175,0.165
2.614,-0.205,0.145
2.617,-0.215,0.145
2.619,-0.205,0.150
2.622,-0.215,0.160
2.625,-0.205,0.150
2.628,-0.225,0.120
2.631,-0.240,0.095
2.633,-0.255,0.085
2.636,-0.270,0.080
2.639,-0.270,0.100
2.642,-0.245,0.110
2.644,-0.250,0.095
2.647,-0.260,0.075
2.650,-0.280,0.090
2.653,-0.280,0.105
2.656,-0.270,0.110
2.658,-0.270,0.115
2.661,-0.265,0.110
2.664,-0.290,0.085
2.667,-0.305,0.085
2.669,-0.295,0.090
2.672,-0.280,0.085
2.675,-0.255,0.090
2.678,-0.265,0.085
2.681,-0.275,0.080
2.683,-0.295,0.085
2.686,-0.290,0.105
2.689,-0.285,0.110
2.692,-0.270,0.110
2.694,-0.265,0.105
2.697,-0.270,0.095
2.700,-0.280,0.075
2.703,-0.280,0.095
2.706,-0.270,0.105
2.708,-0.255,0.135
2.711,-0.255,0.120
2.714,-0.265,0.105
2.717,-0.285,0.115
2.719,-0.270,0.115
2.722,-0.250,0.125
2.725,-0.235,0.125
2.728,-0.235,0.125
2.731,-0.235,0.115
2.733,-0.250,0.100
2.736,-0.245,0.125
2.739,-0.220,0.135
2.742,-0.205,0.150
2.744,-0.205,0.110
2.747,-0.205,0.115
2.750,-0.200,0.105
2.753,-0.215,0.120
2.756,-0.205,0.145
2.758,-0.190,0.145
2.761,-0.185,0.140
2.764,-0.200,0.120
2.767,-0.200,0.110
2.769,-0.220,0.115
2.772,-0.180,0.125
2.775,-0.165,0.100
2.778,-0.175,0.075
2.781,-0.175,0.055
2.783,-0.180,0.060
2.786,-0.170,0.055
2.789,-0.145,0.055
2.792,-0.160,0.030
2.794,-0.150,0.005
2.797,-0.175,-0.010
2.800,-0.160,-0.005
2.803,-0.145,0.010
2.806,-0.130,0.000
2.808,-0.135,-0.010
2.811,-0.150,-0.030
2.814,-0.160,-0.035
2.817,-0.165,-0.030
2.819,-0.150,-0.030
2.822,-0.140,-0.020
2.825,-0.125,-0.025
2.828,-0.130,-0.050
2.831,-0.140,-0.045
2.833,-0.115,-0.020
2.836,-0.095,-0.020
2.839,-0.080,-0.020
2.842,-0.055,-0.030
2.844,-0.050,-0.055
2.847,-0.060,-0.065
2.850,-0.030,-0.050
2.853,-0.005,-0.040
2.856,0.010,-0.045
2.858,0.020,-0.060
2.861,0.025,-0.085
2.864,0.015,-0.080
2.867,0.025,-0.065
2.869,0.035,-0.035
2.872,0.060,0.000
2.875,0.070,-0.015
2.878,0.055,-0.020
2.881,0.035,-0.020
2.883,0.025,-0.020
2.886,0.040,-0.005
2.889,0.055,0.010
2.892,0.025,0.020
2.894,0.005,0.015
2.897,-0.005,0.010
2.900,-0.005,0.035
2.903,0.000,0.050
2.906,0.005,0.065
2.908,0.000,0.070
2.911,-0.020,0.055
2.914,-0.050,0.055
2.917,-0.065,0.070
2.919,-0.055,0.080
2.922,-0.065,0.105
2.925,-0.080,0.095
2.928,-0.095,0.090
2.931,-0.110,0.090
2.933,-0.110,0.105
2.936,-0.105,0.110
2.939,-0.095,0.125
2.942,-0.105,0.120
2.944,-0.120,0.105
2.947,-0.125,0.100
2.950,-0.135,0.100
2.953,-0.125,0.125
2.956,-0.115,0.125
2.958,-0.125,0.125
2.961,-0.145,0.110
2.964,-0.145,0.120
2.967,-0.150,0.135
2.969,-0.150,0.145
2.972,-0.130,0.155
2.975,-0.135,0.140
2.978,-0.145,0.135
2.981,-0.145,0.130
2.983,-0.145,0.140
2.986,-0.125,0.160
2.989,-0.105,0.165
2.992,-0.115,0.150
2.994,-0.120,0.145
2.997,-0.125,0.135
3.000,-0.135,0.150
3.003,-0.110,0.160
3.006,-0.090,0.165
3.008,-0.090,0.150
3.011,-0.105,0.125
3.014,-0.130,0.125
3.017,-0.130,0.135
3.019,-0.095,0.150
3.022,-0.085,0.145
3.025,-0.095,0.130
3.028,-0.115,0.120
3.031,-0.110,0.125
3.033,-0.110,0.120
3.036,-0.100,0.130
3.039,-0.095,0.135
3.042,-0.115,0.125
3.044,-0.105,0.100
3.047,-0.120,0.095
3.050,-0.125,0.110
3.053,-0.110,0.140
3.056,-0.105,0.125
3.058,-0.115,0.115
3.061,-0.120,0.080
3.064,-0.130,0.070
3.067,-0.120,0.080
3.069,-0.135,0.095
3.072,-0.100,0.090
3.075,-0.125,0.085
3.078,-0.140,0.075
3.081,-0.140,0.080
3.083,-0.145,0.095
3.086,-0.115,0.100
3.089,-0.115,0.105
3.092,-0.120,0.080
3.094,-0.140,0.065
3.097,-0.175,0.060
3.100,-0.180,0.090
3.103,-0.175,0.095
3.106,-0.150,0.105
3.108,-0.150,0.105
3.111,-0.145,0.100
3.114,-0.145,0.115
3.117,-0.150,0.120
3.119,-0.145,0.115
3.122,-0.140,0.110
3.125,-0.140,0.100
3.128,-0.160,0.090
3.131,-0.185,0.095
3.133,-0.175,0.105
3.136,-0.150,0.125
3.139,-0.135,0.130
3.142,-0.140,0.110
3.144,-0.170,0.105
3.147,-0.170,0.105
3.150,-0.165,0.125
3.153,-0.155,0.135
3.156,-0.145,0.140
3.158,-0.145,0.120
3.161,-0.160,0.130
3.164,-0.165,0.120
3.167,-0.160,0.125
3.169,-0.150,0.145
3.172,-0.125,0.150
3.175,-0.130,0.125
3.178,-0.160,0.125
3.181,-0.150,0.120
3.183,-0.155,0.135
3.186,-0.155,0.145
3.189,-0.155,0.145
3.192,-0.160,0.135
3.194,-0.150,0.130
3.197,-0.155,0.125
3.200,-0.150,0.150
3.203,-0.150,0.165
3.206,-0.135,0.170
3.208,-0.145,0.150
3.211,-0.165,0.130
3.214,-0.180,0.115
3.217,-0.190,0.135
3.219,-0.185,0.145
3.222,-0.155,0.140
3.225,-0.165,0.135
3.228,-0.165,0.115
3.231,-0.200,0.115
3.233,-0.205,0.120
3.236,-0.175,0.125
3.239,-0.165,0.125
3.242,-0.155,0.100
3.244,-0.170,0.095
3.247,-0.175,0.095
3.250,-0.195,0.105
3.253,-0.165,0.110
3.256,-0.165,0.120
3.258,-0.155,0.115
3.261,-0.165,0.105
3.264,-0.210,0.090
3.267,-0.195,0.095
3.269,-0.160,0.105
3.272,-0.150,0.130
3.275,-0.165,0.120
3.278,-0.165,0.115
3.281,-0.175,0.100
3.283,-0.165,0.125
3.286,-0.145,0.120
3.289,-0.125,0.130
3.292,-0.125,0.120
3.294,-0.150,0.110
3.297,-0.160,0.100
3.300,-0.175,0.125
3.303,-0.145,0.135
3.306,-0.135,0.140
3.308,-0.130,0.140
3.311,-0.140,0.125
3.314,-0.165,0.110
3.317,-0.170,0.115
3.319,-0.170,0.125
3.322,-0.155,0.150
3.325,-0.145,0.145
3.328,-0.150,0.120
3.331,-0.160,0.105
3.333,-0.155,0.135
3.336,-0.125,0.135
3.339,-0.115,0.155
3.342,-0.125,0.150
3.344,-0.135,0.140
3.347,-0.155,0.140
3.350,-0.155,0.160
3.353,-0.135,0.170
3.356,-0.130,0.170
3.358,-0.135,0.150
3.361,-0.155,0.135
3.364,-0.155,0.135
3.367,-0.160,0.145
3.369,-0.140,0.155
3.372,-0.135,0.160
3.375,-0.130,0.155
3.378,-0.135,0.135
3.381,-0.130,0.120
3.383,-0.135,0.130
3.386,-0.145,0.140
3.389,-0.110,0.145
3.392,-0.125,0.130
3.394,-0.130,0.120
3.397,-0.145,0.105
3.400,-0.130,0.130
3.403,-0.090,0.135
3.406,-0.050,0.120
3.408,-0.065,0.105
3.411,-0.065,0.075
3.414,-0.050,0.060
3.417,-0.005,0.075
3.419,0.070,0.080
3.422,0.165,0.070
3.425,0.255,0.050
3.428,0.360,0.020
3.431,0.485,0.000
3.433,0.630,-0.025
3.436,0.790,-0.045
3.439,0.965,-0.055
3.442,1.135,-0.060
3.444,1.275,-0.040
3.447,1.385,0.010
3.450,1.425,0.100
3.453,1.385,0.170
3.456,1.260,0.205
3.458,1.025,0.200
3.461,0.745,0.180
3.464,0.495,0.215
3.467,0.245,0.275
3.469,0.005,0.315
3.472,-0.170,0.350
3.475,-0.265,0.355
3.478,-0.275,0.335
3.481,-0.250,0.290
3.483,-0.200,0.250
3.486,-0.170,0.245
3.489,-0.150,0.220
3.492,-0.150,0.195
3.494,-0.155,0.150
3.497,-0.165,0.120
3.500,-0.160,0.115
3.503,-0.180,0.115
3.506,-0.170,0.095
3.508,-0.190,0.080
3.511,-0.215,0.070
3.514,-0.225,0.060
3.517,-0.225,0.095
3.519,-0.215,0.105
3.522,-0.195,0.110
3.525,-0.200,0.100
3.528,-0.215,0.085
3.531,-0.205,0.095
3.533,-0.205,0.095
3.536,-0.200,0.115
3.539,-0.185,0.105
3.542,-0.185,0.115
3.544,-0.205,0.100
3.547,-0.210,0.110
3.550,-0.220,0.130
3.553,-0.210,0.140
3.556,-0.210,0.135
3.558,-0.210,0.110
3.561,-0.235,0.090
3.564,-0.245,0.100
3.567,-0.235,0.115
3.569,-0.220,0.125
3.572,-0.190,0.130
3.575,-0.190,0.120
3.578,-0.195,0.120
3.581,-0.215,0.110
3.583,-0.230,0.120
3.586,-0.215,0.130
3.589,-0.210,0.140
3.592,-0.210,0.135
3.594,-0.220,0.095
3.597,-0.230,0.105
3.600,-0.230,0.105
3.603,-0.215,0.125
3.606,-0.195,0.140
3.608,-0.200,0.130
3.611,-0.200,0.130
3.614,-0.215,0.125
3.617,-0.200,0.125
3.619,-0.185,0.120
3.622,-0.190,0.115
3.625,-0.200,0.115
3.628,-0.205,0.105
3.631,-0.225,0.105
3.633,-0.220,0.115
3.636,-0.205,0.115
3.639,-0.200,0.125
3.642,-0.200,0.110
3.644,-0.220,0.095
3.647,-0.220,0.060
3.650,-0.200,0.060
3.653,-0.170,0.065
3.656,-0.150,0.070
3.658,-0.145,0.060
3.661,-0.155,0.040
3.664,-0.170,0.045
3.667,-0.160,0.045
3.669,-0.135,0.065
3.672,-0.125,0.060
3.675,-0.115,0.040
3.678,-0.125,0.040
3.681,-0.145,0.035
3.683,-0.130,0.030
3.686,-0.130,0.040
3.689,-0.115,0.045
3.692,-0.105,0.025
3.694,-0.100,0.015
3.697,-0.115,0.010
3.700,-0.110,0.020
3.703,-0.100,0.015
3.706,-0.090,0.005
3.708,-0.080,-0.015
3.711,-0.090,-0.015
3.714,-0.080,-0.010
3.717,-0.080,0.005
3.719,-0.065,0.010
3.722,-0.060,0.010
3.725,-0.065,-0.010
3.728,-0.075,-0.015
3.731,-0.080,-0.045
3.733,-0.065,-0.025
3.736,-0.065,-0.005
3.739,-0.045,0.000
3.742,-0.040,-0.020
3.744,-0.045,-0.035
3.747,-0.055,-0.055
3.750,-0.055,-0.040
3.753,-0.040,-0.025
3.756,-0.035,-0.035
3.758,-0.040,-0.040
3.761,-0.050,-0.035
3.764,-0.040,-0.040
3.767,-0.035,-0.035
3.769,-0.015,-0.035
3.772,0.000,-0.015
3.775,-0.005,-0.035
3.778,-0.035,-0.045
3.781,-0.050,-0.040
3.783,-0.045,-0.040
3.786,-0.030,-0.020
3.789,-0.025,-0.015
3.792,-0.035,-0.030
3.794,-0.035,-0.035
3.797,-0.065,-0.025
3.800,-0.065,0.010
3.803,-0.065,0.025
3.806,-0.055,0.035
3.808,-0.080,0.055
3.811,-0.095,0.035
3.814,-0.115,0.045
3.817,-0.100,0.055
3.819,-0.090,0.095
3.822,-0.085,0.110
3.825,-0.085,0.110
3.828,-0.110,0.125
3.831,-0.130,0.125
3.833,-0.140,0.140
3.836,-0.125,0.165
3.839,-0.110,0.185
3.842,-0.115,0.160
3.844,-0.125,0.135
3.847,-0.145,0.145
3.850,-0.150,0.175
3.853,-0.140,0.195
3.856,-0.125,0.195
3.858,-0.120,0.200
3.861,-0.140,0.190
3.864,-0.150,0.200
3.867,-0.165,0.215
3.869,-0.140,0.215
3.872,-0.125,0.220
3.875,-0.130,0.210
3.878,-0.130,0.210
3.881,-0.125,0.200
3.883,-0.105,0.220
3.886,-0.075,0.210
3.889,-0.060,0.210
3.892,-0.080,0.205
3.894,-0.080,0.205
3.897,-0.080,0.195
3.900,-0.055,0.195
3.903,-0.020,0.215
3.906,0.015,0.225
3.908,0.035,0.200
3.911,0.055,0.205
3.914,0.040,0.210
3.917,0.040,0.230
3.919,0.080,0.230
3.922,0.135,0.230
3.925,0.175,0.210
3.928,0.225,0.170
3.931,0.265,0.110
3.933,0.335,0.020
3.936,0.420,-0.045
3.939,0.495,-0.110
3.942,0.560,-0.190
3.944,0.620,-0.270
3.947,0.670,-0.350
3.950,0.735,-0.410
3.953,0.825,-0.490
3.956,0.910,-0.590
3.958,0.980,-0.690
3.961,1.030,-0.780
3.964,1.065,-0.855
3.967,1.120,-0.890
3.969,1.125,-0.915
3.972,1.115,-0.915
3.975,1.100,-0.915
3.978,1.085,-0.910
3.981,1.065,-0.905
3.983,1.015,-0.905
3.986,0.970,-0.890
3.989,0.910,-0.875
3.992,0.810,-0.870
3.994,0.690,-0.850
3.997,0.560,-0.805
4.000,0.445,-0.740
4.003,0.345,-0.665
4.006,0.280,-0.615
4.008,0.225,-0.555
4.011,0.175,-0.505
4.014,0.135,-0.455
4.017,0.135,-0.405
4.019,0.130,-0.355
4.022,0.145,-0.290
4.025,0.150,-0.240
4.028,0.145,-0.210
4.031,0.180,-0.170
4.033,0.235,-0.115
4.036,0.305,-0.085
4.039,0.365,-0.065
4.042,0.315,-0.060
4.044,0.200,-0.060
4.047,0.040,-0.030
4.050,-0.120,0.025
4.053,-0.250,0.090
4.056,-0.305,0.145
4.058,-0.360,0.200
4.061,-0.385,0.240
4.064,-0.415,0.285
4.067,-0.445,0.300
4.069,-0.470,0.320
4.072,-0.465,0.345
4.075,-0.485,0.355
4.078,-0.510,0.360
4.081,-0.540,0.370
4.083,-0.570,0.380
4.086,-0.560,0.410
4.089,-0.560,0.420
4.092,-0.575,0.410
4.094,-0.585,0.405
4.097,-0.595,0.395
4.100,-0.615,0.420
4.103,-0.605,0.460
4.106,-0.600,0.480
4.108,-0.605,0.480
4.111,-0.615,0.470
4.114,-0.620,0.470
4.117,-0.620,0.495
4.119,-0.640,0.520
4.122,-0.640,0.545
4.125,-0.635,0.555
4.128,-0.645,0.530
4.131,-0.675,0.540
4.133,-0.660,0.550
4.136,-0.645,0.570
4.139,-0.625,0.575
4.142,-0.635,0.575
4.144,-0.655,0.580
4.147,-0.660,0.585
4.150,-0.685,0.625
4.153,-0.675,0.635
4.156,-0.665,0.635
4.158,-0.675,0.635
4.161,-0.695,0.635
4.164,-0.705,0.645
4.167,-0.720,0.675
4.169,-0.720,0.690
4.172,-0.710,0.710
4.175,-0.705,0.695
4.178,-0.740,0.705
4.181,-0.750,0.700
4.183,-0.745,0.720
4.186,-0.745,0.745
4.189,-0.725,0.745
4.192,-0.725,0.755
4.194,-0.730,0.755
4.197,-0.730,0.765
4.200,-0.735,0.790
4.203,-0.715,0.800
4.206,-0.705,0.790
4.208,-0.730,0.800
4.211,-0.735,0.795
4.214,-0.725,0.795
4.217,-0.730,0.810
4.219,-0.715,0.810
4.222,-0.670,0.815
4.225,-0.675,0.815
4.228,-0.670,0.800
4.231,-0.665,0.790
4.233,-0.650,0.800
4.236,-0.625,0.770
4.239,-0.615,0.780
4.242,-0.610,0.760
4.244,-0.610,0.730
4.247,-0.595,0.710
4.250,-0.570,0.700
4.253,-0.540,0.690
4.256,-0.520,0.660
4.258,-0.510,0.645
4.261,-0.495,0.595
4.264,-0.480,0.580
4.267,-0.480,0.560
4.269,-0.445,0.555
4.272,-0.405,0.530
4.275,-0.400,0.490
4.278,-0.415,0.430
4.281,-0.405,0.430
4.283,-0.365,0.415
4.286,-0.350,0.395
4.289,-0.325,0.385
4.292,-0.310,0.360
4.294,-0.315,0.335
4.297,-0.335,0.305
4.300,-0.330,0.300
4.303,-0.310,0.305
4.306,-0.270,0.295
4.308,-0.255,0.260
4.311,-0.265,0.240
4.314,-0.290,0.225
4.317,-0.285,0.230
4.319,-0.255,0.230
4.322,-0.240,0.225
4.325,-0.250,0.220
4.328,-0.250,0.195
4.331,-0.255,0.170
4.333,-0.255,0.180
4.336,-0.255,0.190
4.339,-0.250,0.200
4.342,-0.235,0.185
4.344,-0.250,0.155
4.347,-0.255,0.155
4.350,-0.250,0.165
4.353,-0.240,0.180
4.356,-0.225,0.185
4.358,-0.230,0.175
4.361,-0.260,0.165
4.364,-0.250,0.165
4.367,-0.245,0.175
4.369,-0.245,0.190
4.372,-0.220,0.190
4.375,-0.220,0.170
4.378,-0.240,0.165
4.381,-0.255,0.155
4.383,-0.230,0.160
4.386,-0.215,0.180
4.389,-0.195,0.165
4.392,-0.210,0.140
4.394,-0.205,0.125
4.397,-0.205,0.110
4.400,-0.210,0.125
4.403,-0.205,0.155
4.406,-0.195,0.160
4.408,-0.200,0.155
4.411,-0.215,0.130
4.414,-0.235,0.125
4.417,-0.235,0.130
4.419,-0.225,0.140
4.422,-0.210,0.160
4.425,-0.205,0.150
4.428,-0.200,0.140
4.431,-0.225,0.130
4.433,-0.240,0.155
4.436,-0.220,0.165
4.439,-0.205,0.175
4.442,-0.200,0.160
4.444,-0.210,0.135
4.447,-0.230,0.140
4.450,-0.215,0.145
4.453,-0.210,0.160
4.456,-0.180,0.175
4.458,-0.195,0.170
4.461,-0.230,0.150
4.464,-0.240,0.160
4.467,-0.225,0.170
4.469,-0.210,0.180
4.472,-0.200,0.190
4.475,-0.220,0.180
4.478,-0.240,0.165
4.481,-0.235,0.165
4.483,-0.230,0.195
4.486,-0.225,0.185
4.489,-0.215,0.180
4.492,-0.230,0.180
4.494,-0.235,0.170
4.497,-0.240,0.160
4.500,-0.240,0.155
4.503,-0.235,0.150
4.506,-0.235,0.145
4.508,-0.250,0.120
4.511,-0.255,0.115
4.514,-0.260,0.095
4.517,-0.245,0.110
4.519,-0.225,0.135
4.522,-0.200,0.130
4.525,-0.215,0.115
4.528,-0.225,0.095
4.531,-0.235,0.085
4.533,-0.225,0.110
4.536,-0.210,0.120
4.539,-0.205,0.110
4.542,-0.215,0.110
4.544,-0.225,0.105
4.547,-0.235,0.100
4.550,-0.230,0.110
4.553,-0.240,0.120
4.556,-0.215,0.125
4.558,-0.220,0.100
4.561,-0.225,0.070
4.564,-0.230,0.095
4.567,-0.220,0.105
4.569,-0.215,0.125
4.572,-0.190,0.130
4.575,-0.195,0.130
4.578,-0.225,0.110
4.581,-0.245,0.115
4.583,-0.260,0.135
4.586,-0.245,0.155
4.589,-0.215,0.140
4.592,-0.215,0.135
4.594,-0.240,0.120
4.597,-0.280,0.135
4.600,-0.260,0.140
4.603,-0.250,0.160
4.606,-0.240,0.155
4.608,-0.240,0.145
4.611,-0.235,0.145
4.614,-0.240,0.145
4.617,-0.235,0.150
4.619,-0.230,0.155
4.622,-0.215,0.155
4.625,-0.215,0.160
4.628,-0.225,0.145
4.631,-0.235,0.140
4.633,-0.230,0.140
4.636,-0.220,0.150
4.639,-0.235,0.150
4.642,-0.240,0.140
4.644,-0.250,0.135
4.647,-0.245,0.135
4.650,-0.230,0.140
4.653,-0.225,0.160
4.656,-0.210,0.160
4.658,-0.220,0.165
4.661,-0.235,0.140
4.664,-0.245,0.135
4.667,-0.245,0.150
4.669,-0.230,0.150
4.672,-0.220,0.135
4.675,-0.230,0.135
4.678,-0.250,0.120
4.681,-0.240,0.120
4.683,-0.245,0.125
4.686,-0.225,0.125
4.689,-0.190,0.140
4.692,-0.195,0.135
4.694,-0.205,0.115
4.697,-0.230,0.115
4.700,-0.225,0.125
4.703,-0.225,0.135
4.706,-0.190,0.130
4.708,-0.200,0.140
4.711,-0.225,0.110
4.714,-0.235,0.120
4.717,-0.235,0.120
4.719,-0.220,0.125
4.722,-0.240,0.130
4.725,-0.250,0.130
4.728,-0.265,0.115
4.731,-0.265,0.140
4.733,-0.245,0.145
4.736,-0.230,0.155
4.739,-0.215,0.150
4.742,-0.225,0.125
4.744,-0.240,0.100
4.747,-0.240,0.110
4.750,-0.250,0.110
4.753,-0.230,0.125
4.756,-0.215,0.120
4.758,-0.215,0.125
4.761,-0.230,0.105
4.764,-0.240,0.120
4.767,-0.245,0.125
4.769,-0.230,0.125
4.772,-0.230,0.110
4.775,-0.210,0.120
4.778,-0.220,0.115
4.781,-0.235,0.120
4.783,-0.235,0.135
4.786,-0.220,0.165
4.789,-0.205,0.140
4.792,-0.225,0.135
4.794,-0.235,0.110
4.797,-0.250,0.115
4.800,-0.260,0.115
4.803,-0.225,0.135
4.806,-0.215,0.135
4.808,-0.235,0.120
4.811,-0.240,0.110
4.814,-0.255,0.105
4.817,-0.245,0.110
4.819,-0.225,0.115
4.822,-0.205,0.115
4.825,-0.210,0.105
4.828,-0.225,0.095
4.831,-0.240,0.105
4.833,-0.225,0.115
4.836,-0.205,0.125
4.839,-0.235,0.125
4.842,-0.255,0.125
4.844,-0.280,0.115
4.847,-0.275,0.110
4.850,-0.235,0.125
4.853,-0.210,0.140
4.856,-0.210,0.150
4.858,-0.215,0.135
4.861,-0.210,0.125
4.864,-0.210,0.125
4.867,-0.210,0.140
4.869,-0.200,0.145
4.872,-0.180,0.145
4.875,-0.190,0.115
4.878,-0.200,0.095
4.881,-0.220,0.090
4.883,-0.230,0.115
4.886,-0.205,0.125
4.889,-0.190,0.115
4.892,-0.210,0.115
4.894,-0.200,0.095
4.897,-0.225,0.110
4.900,-0.220,0.125
4.903,-0.200,0.145
4.906,-0.195,0.150
4.908,-0.195,0.145
4.911,-0.215,0.120
4.914,-0.215,0.125
4.917,-0.215,0.145
4.919,-0.200,0.155
4.922,-0.210,0.140
4.925,-0.205,0.130
4.928,-0.190,0.110
4.931,-0.210,0.125
4.933,-0.205,0.135
4.936,-0.205,0.155
4.939,-0.180,0.150
4.942,-0.190,0.135
4.944,-0.205,0.115
4.947,-0.200,0.130
4.950,-0.200,0.125
4.953,-0.185,0.145
4.956,-0.160,0.145
4.958,-0.165,0.125
4.961,-0.170,0.105
4.964,-0.190,0.095
4.967,-0.190,0.100
4.969,-0.170,0.105
4.972,-0.155,0.095
4.975,-0.150,0.085
4.978,-0.125,0.060
4.981,-0.095,0.045
4.983,-0.025,0.055
4.986,0.045,0.050
4.989,0.135,0.050
4.992,0.245,0.040
4.994,0.340,0.025
4.997,0.480,0.015
5.000,0.670,-0.030
5.003,0.855,-0.050
5.006,1.030,-0.065
5.008,1.190,-0.080
5.011,1.285,-0.065
5.014,1.335,-0.005
5.017,1.275,0.080
5.019,1.130,0.120
5.022,0.905,0.105
5.025,0.635,0.110
5.028,0.370,0.140
5.031,0.090,0.175
5.033,-0.135,0.215
5.036,-0.270,0.225
5.039,-0.290,0.235
5.042,-0.260,0.200
5.044,-0.230,0.155
5.047,-0.225,0.120
5.050,-0.195,0.110
5.053,-0.200,0.110
5.056,-0.210,0.115
5.058,-0.200,0.110
5.061,-0.225,0.095
5.064,-0.230,0.085
5.067,-0.220,0.095
5.069,-0.220,0.120
5.072,-0.230,0.130
5.075,-0.250,0.125
5.078,-0.285,0.120
5.081,-0.275,0.115
5.083,-0.275,0.115
5.086,-0.260,0.135
5.089,-0.260,0.130
5.092,-0.275,0.120
5.094,-0.290,0.095
5.097,-0.295,0.110
5.100,-0.290,0.120
5.103,-0.275,0.140
5.106,-0.265,0.140
5.108,-0.265,0.130
5.111,-0.285,0.115
5.114,-0.300,0.120
5.117,-0.290,0.155
5.119,-0.280,0.160
5.122,-0.270,0.155
5.125,-0.265,0.130
5.128,-0.275,0.115
5.131,-0.315,0.120
5.133,-0.330,0.135
5.136,-0.305,0.165
5.139,-0.290,0.165
5.142,-0.300,0.150
5.144,-0.310,0.150
5.147,-0.330,0.145
5.150,-0.335,0.155
5.153,-0.295,0.160
5.156,-0.280,0.155
5.158,-0.295,0.140
5.161,-0.300,0.115
5.164,-0.310,0.115
5.167,-0.300,0.120
5.169,-0.285,0.115
5.172,-0.260,0.105
5.175,-0.260,0.085
5.178,-0.285,0.090
5.181,-0.275,0.095
5.183,-0.270,0.120
5.186,-0.255,0.120
5.189,-0.245,0.125
5.192,-0.245,0.100
5.194,-0.260,0.095
5.197,-0.275,0.085
5.200,-0.270,0.080
5.203,-0.260,0.105
5.206,-0.245,0.110
5.208,-0.230,0.095
5.211,-0.235,0.070
5.214,-0.245,0.075
5.217,-0.230,0.090
5.219,-0.240,0.095
5.222,-0.195,0.090
5.225,-0.205,0.075
5.228,-0.205,0.070
5.231,-0.210,0.075
5.233,-0.195,0.070
5.236,-0.165,0.075
5.239,-0.140,0.080
5.242,-0.145,0.065
5.244,-0.150,0.055
5.247,-0.160,0.030
5.250,-0.165,0.040
5.253,-0.145,0.035
5.256,-0.130,0.045
5.258,-0.130,0.020
5.261,-0.145,0.005
5.264,-0.135,0.005
5.267,-0.120,0.010
5.269,-0.110,0.010
5.272,-0.090,0.000
5.275,-0.095,-0.020
5.278,-0.110,-0.040
5.281,-0.100,-0.040
5.283,-0.085,-0.040
5.286,-0.075,-0.040
5.289,-0.075,-0.040
5.292,-0.065,-0.050
5.294,-0.070,-0.060
5.297,-0.070,-0.055
5.300,-0.065,-0.060
5.303,-0.035,-0.055
5.306,-0.015,-0.050
5.308,-0.020,-0.080
5.311,-0.025,-0.085
5.314,-0.025,-0.090
5.317,-0.030,-0.060
5.319,-0.015,-0.040
5.322,0.015,-0.035
5.325,0.020,-0.050
5.328,-0.005,-0.050
5.331,-0.010,-0.020
5.333,-0.025,0.005
5.336,-0.025,0.030
5.339,-0.030,0.035
5.342,-0.040,0.030
5.344,-0.050,0.020
5.347,-0.070,0.050
5.350,-0.080,0.080
5.353,-0.075,0.095
5.356,-0.060,0.090
5.358,-0.075,0.090
5.361,-0.100,0.075
5.364,-0.120,0.100
5.367,-0.130,0.125
5.369,-0.125,0.145
5.372,-0.115,0.140
5.375,-0.135,0.135
5.378,-0.155,0.120
5.381,-0.175,0.125
5.383,-0.175,0.140
5.386,-0.155,0.160
5.389,-0.150,0.155
5.392,-0.155,0.150
5.394,-0.160,0.135
5.397,-0.170,0.130
5.400,-0.175,0.150
5.403,-0.170,0.170
5.406,-0.155,0.180
5.408,-0.175,0.165
5.411,-0.180,0.155
5.414,-0.190,0.130
5.417,-0.195,0.120
5.419,-0.185,0.120
5.422,-0.165,0.125
5.425,-0.165,0.110
5.428,-0.195,0.095
5.431,-0.195,0.100
5.433,-0.190,0.105
5.436,-0.170,0.115
5.439,-0.155,0.100
5.442,-0.175,0.095
5.444,-0.185,0.085
5.447,-0.175,0.075
5.450,-0.170,0.090
5.453,-0.155,0.095
5.456,-0.140,0.090
5.458,-0.135,0.085
5.461,-0.155,0.075
5.464,-0.160,0.085
5.467,-0.140,0.085
5.469,-0.140,0.090
5.472,-0.145,0.100
5.475,-0.145,0.095
5.478,-0.165,0.080
5.481,-0.165,0.090
5.483,-0.175,0.105
5.486,-0.160,0.110
5.489,-0.135,0.105
5.492,-0.120,0.090
5.494,-0.145,0.085
5.497,-0.150,0.095
5.500,-0.130,0.090
5.503,-0.130,0.115
5.506,-0.100,0.115
5.508,-0.110,0.115
5.511,-0.125,0.090
5.514,-0.140,0.095
5.517,-0.150,0.095
5.519,-0.130,0.115
5.522,-0.150,0.100
5.525,-0.160,0.100
5.528,-0.180,0.085
5.531,-0.180,0.090
5.533,-0.180,0.100
5.536,-0.160,0.110
5.539,-0.150,0.105
5.542,-0.160,0.095
5.544,-0.155,0.085
5.547,-0.165,0.095
5.550,-0.160,0.095
5.553,-0.165,0.110
5.556,-0.150,0.115
5.558,-0.160,0.120
5.561,-0.165,0.095
5.564,-0.185,0.085
5.567,-0.170,0.085
5.569,-0.160,0.115
5.572,-0.150,0.105
5.575,-0.160,0.110
5.578,-0.185,0.085
5.581,-0.190,0.095
5.583,-0.210,0.095
5.586,-0.190,0.105
5.589,-0.180,0.115
5.592,-0.170,0.105
5.594,-0.185,0.095
5.597,-0.200,0.100
5.600,-0.185,0.100
5.603,-0.170,0.115
5.606,-0.170,0.110
5.608,-0.175,0.090
5.611,-0.180,0.095
5.614,-0.200,0.100
5.617,-0.175,0.105
5.619,-0.165,0.125
5.622,-0.150,0.110
5.625,-0.155,0.090
5.628,-0.160,0.080
5.631,-0.185,0.095
5.633,-0.185,0.110
5.636,-0.165,0.130
5.639,-0.160,0.120
5.642,-0.155,0.105
5.644,-0.160,0.080
5.647,-0.180,0.090
5.650,-0.165,0.110
5.653,-0.170,0.115
5.656,-0.155,0.105
5.658,-0.170,0.105
5.661,-0.190,0.105
5.664,-0.195,0.115
5.667,-0.190,0.135
5.669,-0.170,0.125
5.672,-0.150,0.130
5.675,-0.140,0.110
5.678,-0.160,0.095
5.681,-0.190,0.100
5.683,-0.200,0.105
5.686,-0.185,0.120
5.689,-0.155,0.130
5.692,-0.150,0.110
5.694,-0.155,0.090
5.697,-0.175,0.085
5.700,-0.155,0.090
5.703,-0.105,0.095
5.706,-0.030,0.085
5.708,0.030,0.060
5.711,0.105,0.050
5.714,0.200,0.035
5.717,0.300,0.045
5.719,0.460,0.035
5.722,0.645,-0.005
5.725,0.835,-0.055
5.728,1.000,-0.100
5.731,1.165,-0.085
5.733,1.295,-0.050
5.736,1.335,0.045
5.739,1.250,0.140
5.742,1.010,0.175
5.744,0.700,0.145
5.747,0.355,0.170
5.750,0.055,0.245
5.753,-0.200,0.320
5.756,-0.340,0.365
5.758,-0.375,0.355
5.761,-0.325,0.320
5.764,-0.290,0.260
5.767,-0.250,0.205
5.769,-0.200,0.165
5.772,-0.170,0.140
5.775,-0.180,0.085
5.778,-0.205,0.080
5.781,-0.225,0.085
5.783,-0.220,0.080
5.786,-0.210,0.100
5.789,-0.220,0.100
5.792,-0.235,0.100
5.794,-0.250,0.090
5.797,-0.265,0.100
5.800,-0.265,0.120
5.803,-0.260,0.130
5.806,-0.245,0.130
5.808,-0.240,0.110
5.811,-0.250,0.100
5.814,-0.265,0.100
5.817,-0.265,0.110
5.819,-0.270,0.130
5.822,-0.260,0.115
5.825,-0.285,0.125
5.828,-0.290,0.115
5.831,-0.285,0.105
5.833,-0.280,0.110
5.836,-0.265,0.115
5.839,-0.260,0.100
5.842,-0.255,0.090
5.844,-0.285,0.080
5.847,-0.290,0.090
5.850,-0.305,0.110
5.853,-0.300,0.135
5.856,-0.280,0.120
5.858,-0.280,0.110
5.861,-0.295,0.100
5.864,-0.285,0.095
5.867,-0.270,0.120
5.869,-0.260,0.125
5.872,-0.250,0.110
5.875,-0.255,0.095
5.878,-0.260,0.090
5.881,-0.250,0.085
5.883,-0.245,0.065
5.886,-0.240,0.095
5.889,-0.215,0.085
5.892,-0.220,0.070
5.894,-0.250,0.055
5.897,-0.230,0.065
5.900,-0.230,0.070
5.903,-0.215,0.070
5.906,-0.205,0.075
5.908,-0.215,0.060
5.911,-0.220,0.050
5.914,-0.235,0.035
5.917,-0.235,0.030
5.919,-0.215,0.040
5.922,-0.190,0.025
5.925,-0.170,0.020
5.928,-0.170,0.005
5.931,-0.185,0.005
5.933,-0.205,0.015
5.936,-0.205,0.030
5.939,-0.175,0.040
5.942,-0.165,0.020
5.944,-0.160,-0.005
5.947,-0.160,-0.040
5.950,-0.160,-0.030
5.953,-0.135,-0.005
5.956,-0.125,-0.010
5.958,-0.125,-0.020
5.961,-0.120,-0.050
5.964,-0.110,-0.060
5.967,-0.115,-0.055
5.969,-0.095,-0.045
5.972,-0.075,-0.060
5.975,-0.075,-0.065
5.978,-0.110,-0.090
5.981,-0.120,-0.090
5.983,-0.105,-0.080
5.986,-0.065,-0.075
5.989,-0.060,-0.090
5.992,-0.070,-0.090
5.994,-0.065,-0.095
5.997,-0.090,-0.100
6.000,-0.085,-0.095
6.003,-0.060,-0.100
6.006,-0.040,-0.090
6.008,-0.040,-0.095
6.011,-0.065,-0.105
6.014,-0.070,-0.105
6.017,-0.055,-0.090
6.019,-0.065,-0.075
6.022,-0.050,-0.065
6.025,-0.045,-0.050
6.028,-0.060,-0.050
6.031,-0.090,-0.040
6.033,-0.095,-0.015
6.036,-0.095,0.020
6.039,-0.100,0.015
6.042,-0.115,0.035
6.044,-0.130,0.025
6.047,-0.155,0.030
6.050,-0.155,0.055
6.053,-0.140,0.080
6.056,-0.145,0.085
6.058,-0.140,0.075
6.061,-0.160,0.085
6.064,-0.180,0.100
6.067,-0.190,0.105
6.069,-0.185,0.125
6.072,-0.185,0.145
6.075,-0.190,0.140
6.078,-0.210,0.130
6.081,-0.215,0.140
6.083,-0.200,0.160
6.086,-0.200,0.195
6.089,-0.200,0.200
6.092,-0.205,0.205
6.094,-0.230,0.195
6.097,-0.230,0.190
6.100,-0.215,0.185
6.103,-0.210,0.190
6.106,-0.195,0.200
6.108,-0.185,0.195
6.111,-0.200,0.185
6.114,-0.205,0.185
6.117,-0.230,0.205
6.119,-0.215,0.215
6.122,-0.200,0.205
6.125,-0.190,0.190
6.128,-0.185,0.165
6.131,-0.190,0.170
6.133,-0.170,0.185
6.136,-0.170,0.185
6.139,-0.160,0.175
6.142,-0.175,0.165
6.144,-0.185,0.150
6.147,-0.185,0.160
6.150,-0.175,0.170
6.153,-0.175,0.175
6.156,-0.145,0.180
6.158,-0.175,0.140
6.161,-0.185,0.130
6.164,-0.200,0.130
6.167,-0.215,0.130
6.169,-0.175,0.160
6.172,-0.170,0.140
6.175,-0.175,0.125
6.178,-0.180,0.100
6.181,-0.190,0.085
6.183,-0.195,0.110
6.186,-0.190,0.115
6.189,-0.190,0.120
6.192,-0.200,0.110
6.194,-0.195,0.105
6.197,-0.205,0.115
6.200,-0.195,0.120
6.203,-0.175,0.120
6.206,-0.160,0.105
6.208,-0.170,0.100
6.211,-0.205,0.085
6.214,-0.195,0.100
6.217,-0.210,0.120
6.219,-0.185,0.140
6.222,-0.170,0.130
6.225,-0.185,0.125
6.228,-0.205,0.100
6.231,-0.215,0.105
6.233,-0.190,0.125
6.236,-0.175,0.150
6.239,-0.165,0.150
6.242,-0.175,0.155
6.244,-0.185,0.130
6.247,-0.185,0.150
6.250,-0.185,0.160
6.253,-0.190,0.175
6.256,-0.165,0.145
6.258,-0.180,0.120
6.261,-0.200,0.120
6.264,-0.225,0.125
6.267,-0.205,0.140
6.269,-0.190,0.165
6.272,-0.180,0.145
6.275,-0.180,0.155
6.278,-0.185,0.135
6.281,-0.190,0.140
6.283,-0.205,0.150
6.286,-0.180,0.145
6.289,-0.190,0.145
6.292,-0.190,0.125
6.294,-0.215,0.120
6.297,-0.235,0.135
6.300,-0.215,0.135
6.303,-0.195,0.145
6.306,-0.170,0.140
6.308,-0.180,0.130
6.311,-0.190,0.115
6.314,-0.205,0.120
6.317,-0.210,0.130
6.319,-0.190,0.150
6.322,-0.185,0.145
6.325,-0.210,0.130
6.328,-0.220,0.125
6.331,-0.230,0.130
6.333,-0.235,0.145
6.336,-0.215,0.160
6.339,-0.190,0.170
6.342,-0.215,0.150
6.344,-0.235,0.125
6.347,-0.220,0.120
6.350,-0.210,0.135
6.353,-0.205,0.155
6.356,-0.200,0.150
6.358,-0.185,0.120
6.361,-0.200,0.090
6.364,-0.210,0.105
6.367,-0.220,0.135
6.369,-0.210,0.155
6.372,-0.200,0.160
6.375,-0.200,0.155
6.378,-0.185,0.130
6.381,-0.210,0.140
6.383,-0.210,0.145
6.386,-0.205,0.155
6.389,-0.185,0.155
6.392,-0.195,0.155
6.394,-0.190,0.150
6.397,-0.200,0.150
6.400,-0.205,0.155
6.403,-0.205,0.150
6.406,-0.200,0.155
6.408,-0.190,0.140
6.411,-0.200,0.120
6.414,-0.195,0.120
6.417,-0.200,0.120
6.419,-0.195,0.145
6.422,-0.195,0.140
6.425,-0.200,0.150
6.428,-0.220,0.145
6.431,-0.200,0.135
6.433,-0.180,0.140
6.436,-0.175,0.160
6.439,-0.160,0.160
6.442,-0.180,0.155
6.444,-0.195,0.135
6.447,-0.205,0.145
6.450,-0.200,0.155
6.453,-0.175,0.165
6.456,-0.145,0.145
6.458,-0.160,0.140
6.461,-0.170,0.130
6.464,-0.190,0.130
6.467,-0.185,0.140
6.469,-0.160,0.140
6.472,-0.165,0.140
6.475,-0.170,0.120
6.478,-0.180,0.130
6.481,-0.185,0.135
6.483,-0.165,0.140
6.486,-0.145,0.160
6.489,-0.135,0.145
6.492,-0.145,0.115
6.494,-0.165,0.115
6.497,-0.150,0.115
6.500,-0.170,0.135
6.503,-0.155,0.140
6.506,-0.165,0.135
6.508,-0.145,0.105
6.511,-0.145,0.080
6.514,-0.115,0.075
6.517,-0.045,0.075
6.519,0.040,0.090
6.522,0.130,0.070
6.525,0.215,0.060
6.528,0.320,0.020
6.531,0.455,0.010
6.533,0.625,-0.010
6.536,0.820,-0.035
6.539,1.035,-0.055
6.542,1.215,-0.060
6.544,1.340,-0.035
6.547,1.400,0.050
6.550,1.350,0.150
6.553,1.195,0.195
6.556,0.935,0.185
6.558,0.640,0.170
6.561,0.325,0.195
6.564,0.010,0.260
6.567,-0.245,0.325
6.569,-0.355,0.365
6.572,-0.350,0.355
6.575,-0.275,0.310
6.578,-0.265,0.230
6.581,-0.245,0.195
6.583,-0.225,0.170
6.586,-0.200,0.165
6.589,-0.185,0.145
6.592,-0.220,0.130
6.594,-0.230,0.130
6.597,-0.240,0.130
6.600,-0.250,0.140
6.603,-0.230,0.145
6.606,-0.230,0.145
6.608,-0.260,0.115
6.611,-0.265,0.115
6.614,-0.295,0.130
6.617,-0.270,0.130
6.619,-0.260,0.150
6.622,-0.250,0.145
6.625,-0.265,0.125
6.628,-0.280,0.100
6.631,-0.280,0.105
6.633,-0.290,0.100
6.636,-0.260,0.105
6.639,-0.245,0.110
6.642,-0.270,0.110
6.644,-0.275,0.105
6.647,-0.290,0.100
6.650,-0.270,0.090
6.653,-0.260,0.110
6.656,-0.245,0.100
6.658,-0.250,0.100
6.661,-0.260,0.100
6.664,-0.265,0.110
6.667,-0.270,0.125
6.669,-0.255,0.135
6.672,-0.260,0.130
6.675,-0.265,0.130
6.678,-0.275,0.125
6.681,-0.285,0.110
6.683,-0.295,0.115
6.686,-0.280,0.130
6.689,-0.250,0.125
6.692,-0.240,0.110
6.694,-0.240,0.090
6.697,-0.265,0.080
6.700,-0.260,0.100
6.703,-0.245,0.125
6.706,-0.230,0.115
6.708,-0.235,0.115
6.711,-0.240,0.105
6.714,-0.235,0.105
6.717,-0.230,0.115
6.719,-0.235,0.120
6.722,-0.220,0.100
6.725,-0.200,0.095
6.728,-0.215,0.075
6.731,-0.235,0.095
6.733,-0.220,0.100
6.736,-0.215,0.105
6.739,-0.195,0.080
6.742,-0.200,0.060
6.744,-0.215,0.045
6.747,-0.225,0.050
6.750,-0.190,0.050
6.753,-0.150,0.045
6.756,-0.120,0.035
6.758,-0.125,0.000
6.761,-0.140,-0.025
6.764,-0.140,-0.025
6.767,-0.135,-0.015
6.769,-0.110,-0.010
6.772,-0.080,-0.020
6.775,-0.095,-0.040
6.778,-0.100,-0.070
6.781,-0.100,-0.070
6.783,-0.095,-0.070
6.786,-0.070,-0.060
6.789,-0.045,-0.070
6.792,-0.050,-0.085
6.794,-0.090,-0.100
6.797,-0.065,-0.085
6.800,-0.060,-0.080
6.803,-0.050,-0.075
6.806,-0.040,-0.095
6.808,-0.030,-0.095
6.811,-0.040,-0.085
6.814,-0.055,-0.100
6.817,-0.035,-0.075
6.819,-0.040,-0.060
6.822,-0.015,-0.075
6.825,-0.030,-0.075
6.828,-0.045,-0.090
6.831,-0.050,-0.070
6.833,-0.040,-0.045
6.836,-0.040,-0.025
6.839,-0.045,-0.025
6.842,-0.045,-0.020
6.844,-0.055,-0.025
6.847,-0.070,-0.020
6.850,-0.080,0.000
6.853,-0.080,0.020
6.856,-0.090,0.040
6.858,-0.100,0.035
6.861,-0.125,0.025
6.864,-0.135,0.035
6.867,-0.130,0.065
6.869,-0.105,0.090
6.872,-0.090,0.095
6.875,-0.130,0.080
6.878,-0.165,0.075
6.881,-0.185,0.095
6.883,-0.180,0.120
6.886,-0.170,0.150
6.889,-0.170,0.140
6.892,-0.170,0.130
6.894,-0.180,0.120
6.897,-0.190,0.130
6.900,-0.185,0.145
6.903,-0.195,0.145
6.906,-0.180,0.135
6.908,-0.185,0.125
6.911,-0.195,0.115
6.914,-0.190,0.135
6.917,-0.185,0.140
6.919,-0.165,0.165
6.922,-0.135,0.155
6.925,-0.145,0.155
6.928,-0.145,0.130
6.931,-0.145,0.130
6.933,-0.105,0.140
6.936,-0.055,0.155
6.939,-0.005,0.170
6.942,0.005,0.165
6.944,0.005,0.170
6.947,0.030,0.195
6.950,0.065,0.205
6.953,0.140,0.205
6.956,0.215,0.170
6.958,0.275,0.095
6.961,0.345,-0.005
6.964,0.395,-0.080
6.967,0.470,-0.135
6.969,0.570,-0.205
6.972,0.645,-0.265
6.975,0.705,-0.355
6.978,0.750,-0.430
6.981,0.820,-0.535
6.983,0.915,-0.625
6.986,1.035,-0.710
6.989,1.120,-0.815
6.992,1.160,-0.905
6.994,1.170,-0.965
6.997,1.145,-0.965
7.000,1.125,-0.940
7.003,1.120,-0.920
7.006,1.105,-0.950
7.008,1.055,-0.985
7.011,0.980,-1.010
7.014,0.890,-1.010
7.017,0.785,-0.990
7.019,0.670,-0.940
7.022,0.555,-0.920
7.025,0.425,-0.890
7.028,0.290,-0.855
7.031,0.170,-0.790
7.033,0.075,-0.720
7.036,0.015,-0.620
7.039,-0.010,-0.560
7.042,-0.025,-0.505
7.044,-0.055,-0.435
7.047,-0.075,-0.380
7.050,-0.085,-0.310
7.053,-0.045,-0.250
7.056,0.025,-0.200
7.058,0.100,-0.150
7.061,0.165,-0.120
7.064,0.215,-0.095
7.067,0.220,-0.065
7.069,0.150,-0.030
7.072,0.025,0.010
7.075,-0.140,0.045
7.078,-0.285,0.085
7.081,-0.350,0.150
7.083,-0.405,0.225
7.086,-0.410,0.285
7.089,-0.425,0.315
7.092,-0.430,0.345
7.094,-0.470,0.345
7.097,-0.505,0.370
7.100,-0.515,0.395
7.103,-0.510,0.415
7.106,-0.500,0.415
7.108,-0.520,0.400
7.111,-0.560,0.395
7.114,-0.580,0.400
7.117,-0.575,0.420
7.119,-0.560,0.440
7.122,-0.560,0.445
7.125,-0.585,0.440
7.128,-0.605,0.425
7.131,-0.615,0.440
7.133,-0.610,0.460
7.136,-0.610,0.490
7.139,-0.605,0.475
7.142,-0.625,0.480
7.144,-0.630,0.480
7.147,-0.660,0.480
7.150,-0.645,0.510
7.153,-0.650,0.520
7.156,-0.640,0.525
7.158,-0.670,0.505
7.161,-0.670,0.505
7.164,-0.695,0.525
7.167,-0.695,0.545
7.169,-0.680,0.560
7.172,-0.665,0.575
7.175,-0.670,0.555
7.178,-0.690,0.545
7.181,-0.710,0.575
7.183,-0.690,0.595
7.186,-0.695,0.630
7.189,-0.690,0.635
7.192,-0.700,0.635
7.194,-0.720,0.640
7.197,-0.725,0.650
7.200,-0.720,0.685
7.203,-0.700,0.710
7.206,-0.690,0.700
7.208,-0.685,0.705
7.211,-0.705,0.715
7.214,-0.705,0.725
7.217,-0.695,0.735
7.219,-0.675,0.770
7.222,-0.670,0.780
7.225,-0.660,0.775
7.228,-0.675,0.775
7.231,-0.650,0.785
7.233,-0.635,0.805
7.236,-0.605,0.825
7.239,-0.600,0.825
7.242,-0.610,0.800
7.244,-0.600,0.790
7.247,-0.600,0.785
7.250,-0.570,0.790
7.253,-0.555,0.800
7.256,-0.525,0.785
7.258,-0.515,0.755
7.261,-0.520,0.740
7.264,-0.515,0.730
7.267,-0.500,0.725
7.269,-0.470,0.715
7.272,-0.435,0.705
7.275,-0.430,0.655
7.278,-0.410,0.640
7.281,-0.400,0.620
7.283,-0.375,0.600
7.286,-0.360,0.590
7.289,-0.350,0.560
7.292,-0.325,0.535
7.294,-0.330,0.490
7.297,-0.335,0.480
7.300,-0.305,0.460
7.303,-0.290,0.450
7.306,-0.280,0.405
7.308,-0.305,0.385
7.311,-0.315,0.355
7.314,-0.315,0.345
7.317,-0.305,0.340
7.319,-0.305,0.335
7.322,-0.290,0.305
7.325,-0.290,0.290
7.328,-0.305,0.260
7.331,-0.315,0.255
7.333,-0.310,0.245
7.336,-0.305,0.255
7.339,-0.295,0.245
7.342,-0.295,0.230
7.344,-0.305,0.210
7.347,-0.335,0.200
7.350,-0.335,0.215
7.353,-0.310,0.210
7.356,-0.320,0.210
7.358,-0.330,0.180
7.361,-0.325,0.185
7.364,-0.320,0.185
7.367,-0.300,0.195
7.369,-0.280,0.205
7.372,-0.280,0.180
7.375,-0.270,0.165
7.378,-0.295,0.150
7.381,-0.290,0.165
7.383,-0.290,0.180
7.386,-0.265,0.210
7.389,-0.255,0.195
7.392,-0.245,0.170
7.394,-0.265,0.140
7.397,-0.270,0.140
7.400,-0.280,0.155
7.403,-0.275,0.165
7.406,-0.255,0.160
7.408,-0.260,0.150
7.411,-0.250,0.130
7.414,-0.260,0.140
7.417,-0.265,0.160
7.419,-0.240,0.165
7.422,-0.235,0.150
7.425,-0.235,0.140
7.428,-0.275,0.135
7.431,-0.285,0.135
7.433,-0.285,0.130
7.436,-0.255,0.155
7.439,-0.230,0.155
7.442,-0.230,0.155
7.444,-0.250,0.135
7.447,-0.265,0.145
7.450,-0.260,0.150
7.453,-0.260,0.155
7.456,-0.255,0.150
7.458,-0.260,0.155
7.461,-0.265,0.140
7.464,-0.265,0.155
7.467,-0.260,0.165
7.469,-0.255,0.190
7.472,-0.235,0.190
7.475,-0.240,0.175
7.478,-0.255,0.165
7.481,-0.260,0.170
7.483,-0.275,0.185
7.486,-0.250,0.190
7.489,-0.245,0.170
7.492,-0.245,0.130
7.494,-0.260,0.120
7.497,-0.265,0.115
7.500,-0.250,0.115
7.503,-0.240,0.125
7.506,-0.245,0.130
7.508,-0.245,0.125
7.511,-0.250,0.115
7.514,-0.275,0.120
7.517,-0.265,0.130
7.519,-0.260,0.155
7.522,-0.255,0.150
7.525,-0.255,0.140
7.528,-0.265,0.145
7.531,-0.275,0.135
7.533,-0.260,0.140
7.536,-0.255,0.155
7.539,-0.240,0.150
7.542,-0.255,0.145
7.544,-0.255,0.145
7.547,-0.255,0.155
7.550,-0.260,0.160
7.553,-0.245,0.170
7.556,-0.240,0.165
7.558,-0.255,0.145
7.561,-0.270,0.145
7.564,-0.280,0.130
7.567,-0.265,0.155
7.569,-0.250,0.170
7.572,-0.240,0.155
7.575,-0.245,0.145
7.578,-0.270,0.140
7.581,-0.265,0.140
7.583,-0.255,0.155
7.586,-0.245,0.155
7.589,-0.235,0.135
7.592,-0.245,0.120
7.594,-0.250,0.135
7.597,-0.270,0.150
7.600,-0.265,0.155
7.603,-0.240,0.180
7.606,-0.235,0.190
7.608,-0.245,0.175
7.611,-0.280,0.160
7.614,-0.265,0.160
7.617,-0.270,0.185
7.619,-0.260,0.200
7.622,-0.245,0.175
7.625,-0.240,0.155
7.628,-0.260,0.135
7.631,-0.265,0.140
7.633,-0.275,0.135
7.636,-0.250,0.135
7.639,-0.250,0.145
7.642,-0.245,0.145
7.644,-0.255,0.135
7.647,-0.255,0.120
7.650,-0.260,0.130
7.653,-0.255,0.150
7.656,-0.250,0.145
7.658,-0.265,0.125
7.661,-0.285,0.105
7.664,-0.300,0.125
7.667,-0.260,0.145
7.669,-0.250,0.165
7.672,-0.240,0.160
7.675,-0.235,0.145
7.678,-0.240,0.145
7.681,-0.250,0.140
7.683,-0.250,0.165
7.686,-0.255,0.175
7.689,-0.245,0.175
7.692,-0.245,0.160
7.694,-0.250,0.155
7.697,-0.255,0.165
7.700,-0.250,0.175
7.703,-0.240,0.185
7.706,-0.230,0.190
7.708,-0.240,0.175
7.711,-0.250,0.170
7.714,-0.255,0.175
7.717,-0.270,0.180
7.719,-0.260,0.190
7.722,-0.245,0.185
7.725,-0.250,0.175
7.728,-0.265,0.170
7.731,-0.275,0.155
7.733,-0.260,0.170
7.736,-0.240,0.190
7.739,-0.230,0.190
7.742,-0.240,0.160
7.744,-0.245,0.135
7.747,-0.265,0.120
7.750,-0.265,0.135
7.753,-0.240,0.145
7.756,-0.230,0.140
7.758,-0.215,0.130
7.761,-0.240,0.115
7.764,-0.245,0.110
7.767,-0.245,0.115
7.769,-0.235,0.140
7.772,-0.215,0.135
7.775,-0.225,0.125
7.778,-0.240,0.100
7.781,-0.255,0.110
7.783,-0.240,0.125
7.786,-0.240,0.145
7.789,-0.215,0.135
7.792,-0.210,0.130
7.794,-0.230,0.105
7.797,-0.235,0.130
7.800,-0.205,0.145
7.803,-0.180,0.140
7.806,-0.180,0.125
7.808,-0.190,0.115
7.811,-0.200,0.100
7.814,-0.190,0.095
7.817,-0.150,0.095
7.819,-0.110,0.105
7.822,-0.030,0.085
7.825,0.035,0.065
7.828,0.100,0.050
7.831,0.225,0.055
7.833,0.390,0.050
7.836,0.570,0.020
7.839,0.775,-0.025
7.842,0.970,-0.075
7.844,1.105,-0.100
7.847,1.235,-0.060
7.850,1.320,0.060
7.853,1.295,0.155
7.856,1.145,0.205
7.858,0.860,0.205
7.861,0.525,0.210
7.864,0.185,0.245
7.867,-0.105,0.290
7.869,-0.305,0.330
7.872,-0.385,0.320
7.875,-0.370,0.295
7.878,-0.330,0.250
7.881,-0.290,0.200
7.883,-0.260,0.155
7.886,-0.235,0.145
7.889,-0.230,0.120
7.892,-0.275,0.115
7.894,-0.290,0.115
7.897,-0.315,0.110
7.900,-0.285,0.130
7.903,-0.305,0.140
7.906,-0.275,0.135
7.908,-0.300,0.120
7.911,-0.305,0.115
7.914,-0.310,0.130
7.917,-0.315,0.130
7.919,-0.300,0.150
7.922,-0.305,0.145
7.925,-0.310,0.130
7.928,-0.320,0.120
7.931,-0.325,0.125
7.933,-0.305,0.135
7.936,-0.320,0.135
7.939,-0.305,0.145
7.942,-0.325,0.140
7.944,-0.320,0.145
7.947,-0.310,0.150
7.950,-0.300,0.160
7.953,-0.300,0.165
7.956,-0.295,0.160
7.958,-0.315,0.145
7.961,-0.315,0.120
7.964,-0.320,0.105
7.967,-0.320,0.110
7.969,-0.320,0.135
7.972,-0.300,0.130
7.975,-0.310,0.120
7.978,-0.325,0.115
7.981,-0.325,0.110
7.983,-0.320,0.130
7.986,-0.320,0.150
7.989,-0.320,0.140
7.992,-0.315,0.130
7.994,-0.330,0.120
7.997,-0.340,0.125
8.000,-0.320,0.135
8.003,-0.310,0.140
8.006,-0.300,0.150
8.008,-0.300,0.135
8.011,-0.325,0.120
8.014,-0.320,0.110
8.017,-0.300,0.120
8.019,-0.280,0.140
8.022,-0.265,0.130
8.025,-0.275,0.125
8.028,-0.280,0.110
8.031,-0.280,0.120
8.033,-0.275,0.120
8.036,-0.250,0.130
8.039,-0.235,0.105
8.042,-0.240,0.070
8.044,-0.255,0.070
8.047,-0.255,0.075
8.050,-0.260,0.075
8.053,-0.245,0.080
8.056,-0.225,0.065
8.058,-0.210,0.040
8.061,-0.210,0.030
8.064,-0.200,0.035
8.067,-0.175,0.035
8.069,-0.145,0.040
8.072,-0.150,0.020
8.075,-0.145,-0.010
8.078,-0.150,-0.035
8.081,-0.170,-0.025
8.083,-0.175,-0.015
8.086,-0.155,-0.005
8.089,-0.150,-0.015
8.092,-0.170,-0.035
8.094,-0.150,-0.060
8.097,-0.160,-0.045
8.100,-0.155,-0.045
8.103,-0.140,-0.045
8.106,-0.125,-0.050
8.108,-0.110,-0.060
8.111,-0.110,-0.080
8.114,-0.110,-0.075
8.117,-0.095,-0.075
8.119,-0.090,-0.070
8.122,-0.075,-0.080
8.125,-0.090,-0.075
8.128,-0.085,-0.085
8.131,-0.105,-0.065
8.133,-0.105,-0.060
8.136,-0.070,-0.055
8.139,-0.055,-0.080
8.142,-0.060,-0.070
8.144,-0.075,-0.080
8.147,-0.085,-0.055
8.150,-0.085,-0.035
8.153,-0.075,-0.005
8.156,-0.050,0.000
8.158,-0.055,-0.005
8.161,-0.080,0.005
8.164,-0.095,0.015
8.167,-0.105,0.035
8.169,-0.110,0.060
8.172,-0.090,0.065
8.175,-0.115,0.075
8.178,-0.125,0.090
8.181,-0.150,0.095
8.183,-0.145,0.125
8.186,-0.145,0.140
8.189,-0.155,0.140
8.192,-0.180,0.150
8.194,-0.200,0.150
8.197,-0.220,0.135
8.200,-0.215,0.150
8.203,-0.195,0.165
8.206,-0.195,0.165
8.208,-0.210,0.140
8.211,-0.245,0.125
8.214,-0.250,0.140
8.217,-0.245,0.145
8.219,-0.240,0.145
8.222,-0.240,0.135
8.225,-0.250,0.120
8.228,-0.250,0.125
8.231,-0.260,0.135
8.233,-0.250,0.140
8.236,-0.230,0.155
8.239,-0.235,0.160
8.242,-0.230,0.140
8.244,-0.255,0.125
8.247,-0.250,0.125
8.250,-0.250,0.155
8.253,-0.225,0.170
8.256,-0.230,0.170
8.258,-0.220,0.150
8.261,-0.245,0.125
8.264,-0.255,0.135
8.267,-0.250,0.135
8.269,-0.225,0.170
8.272,-0.205,0.155
8.275,-0.210,0.140
8.278,-0.225,0.120
8.281,-0.235,0.125
8.283,-0.220,0.145
8.286,-0.220,0.155
8.289,-0.200,0.150
8.292,-0.215,0.135
8.294,-0.200,0.125
8.297,-0.215,0.135
8.300,-0.200,0.145
8.303,-0.180,0.165
8.306,-0.170,0.175
8.308,-0.170,0.170
8.311,-0.195,0.155
8.314,-0.210,0.150
8.317,-0.215,0.160
8.319,-0.190,0.155
8.322,-0.195,0.130
8.325,-0.205,0.130
8.328,-0.215,0.125
8.331,-0.210,0.130
8.333,-0.195,0.155
8.336,-0.175,0.165
8.339,-0.155,0.150
8.342,-0.165,0.120
8.344,-0.205,0.105
8.347,-0.200,0.105
8.350,-0.195,0.105
8.353,-0.195,0.135
8.356,-0.200,0.120
8.358,-0.200,0.105
8.361,-0.210,0.090
8.364,-0.210,0.090
8.367,-0.210,0.105
8.369,-0.200,0.135
8.372,-0.200,0.125
8.375,-0.220,0.110
8.378,-0.225,0.095
8.381,-0.220,0.115
8.383,-0.215,0.115
8.386,-0.190,0.120
8.389,-0.205,0.120
8.392,-0.215,0.120
8.394,-0.245,0.115
8.397,-0.245,0.110
8.400,-0.230,0.130
8.403,-0.215,0.135
8.406,-0.190,0.130
8.408,-0.190,0.135
8.411,-0.210,0.115
8.414,-0.220,0.125
8.417,-0.230,0.130
8.419,-0.230,0.150
8.422,-0.200,0.155
8.425,-0.195,0.135
8.428,-0.210,0.125
8.431,-0.215,0.115
8.433,-0.205,0.130
8.436,-0.205,0.145
8.439,-0.205,0.140
8.442,-0.205,0.140
8.444,-0.225,0.115
8.447,-0.230,0.130
8.450,-0.225,0.120
8.453,-0.205,0.135
8.456,-0.185,0.135
8.458,-0.195,0.125
8.461,-0.195,0.115
8.464,-0.195,0.105
8.467,-0.185,0.120
8.469,-0.195,0.135
8.472,-0.180,0.105
8.475,-0.180,0.080
8.478,-0.155,0.060
8.481,-0.120,0.055
8.483,-0.040,0.080
8.486,0.035,0.080
8.489,0.130,0.060
8.492,0.235,0.030
8.494,0.390,0.020
8.497,0.545,0.010
8.500,0.760,-0.025
8.503,0.990,-0.035
8.506,1.165,-0.040
8.508,1.320,-0.030
8.511,1.390,0.010
8.514,1.365,0.115
8.517,1.255,0.180
8.519,1.065,0.210
8.522,0.805,0.190
8.525,0.500,0.175
8.528,0.195,0.205
8.531,-0.110,0.275
8.533,-0.340,0.330
8.536,-0.460,0.365
8.539,-0.465,0.385
8.542,-0.415,0.355
8.544,-0.365,0.310
8.547,-0.335,0.260
8.550,-0.305,0.225
8.553,-0.265,0.220
8.556,-0.265,0.170
8.558,-0.260,0.140
8.561,-0.290,0.120
8.564,-0.285,0.090
8.567,-0.290,0.105
8.569,-0.280,0.120
8.572,-0.280,0.125
8.575,-0.285,0.115
8.578,-0.305,0.115
8.581,-0.310,0.115
8.583,-0.310,0.130
8.586,-0.305,0.140
8.589,-0.295,0.125
8.592,-0.305,0.110
8.594,-0.330,0.120
8.597,-0.345,0.115
8.600,-0.315,0.130
8.603,-0.305,0.130
8.606,-0.310,0.135
8.608,-0.315,0.110
8.611,-0.330,0.095
8.614,-0.340,0.100
8.617,-0.325,0.120
8.619,-0.325,0.125
8.622,-0.300,0.120
8.625,-0.320,0.115
8.628,-0.330,0.100
8.631,-0.340,0.105
8.633,-0.325,0.135
8.636,-0.310,0.145
8.639,-0.315,0.140
8.642,-0.320,0.110
8.644,-0.315,0.090
8.647,-0.335,0.090
8.650,-0.335,0.110
8.653,-0.325,0.110
8.656,-0.310,0.110
8.658,-0.325,0.090
8.661,-0.335,0.080
8.664,-0.325,0.080
8.667,-0.300,0.105
8.669,-0.285,0.120
8.672,-0.295,0.110
8.675,-0.310,0.105
8.678,-0.330,0.085
8.681,-0.315,0.075
8.683,-0.325,0.075
8.686,-0.310,0.085
8.689,-0.285,0.085
8.692,-0.300,0.070
8.694,-0.325,0.060
8.697,-0.325,0.065
8.700,-0.320,0.075
8.703,-0.310,0.070
8.706,-0.295,0.080
8.708,-0.305,0.050
8.711,-0.315,0.040
8.714,-0.295,0.035
8.717,-0.280,0.040
8.719,-0.270,0.050
8.722,-0.245,0.045
8.725,-0.240,0.025
8.728,-0.245,-0.005
8.731,-0.245,0.010
8.733,-0.225,-0.025
8.736,-0.225,-0.030
8.739,-0.220,-0.045
8.742,-0.230,-0.055
8.744,-0.225,-0.065
8.747,-0.215,-0.070
8.750,-0.205,-0.065
8.753,-0.180,-0.040
8.756,-0.175,-0.060
8.758,-0.190,-0.080
8.761,-0.195,-0.100
8.764,-0.185,-0.095
8.767,-0.170,-0.080
8.769,-0.150,-0.090
8.772,-0.140,-0.100
8.775,-0.140,-0.120
8.778,-0.150,-0.115
8.781,-0.150,-0.110
8.783,-0.150,-0.125
8.786,-0.130,-0.105
8.789,-0.125,-0.115
8.792,-0.120,-0.120
8.794,-0.155,-0.125
8.797,-0.135,-0.105
8.800,-0.115,-0.095
8.803,-0.105,-0.055
8.806,-0.110,-0.065
8.808,-0.125,-0.065
8.811,-0.140,-0.075
8.814,-0.150,-0.055
8.817,-0.150,-0.025
8.819,-0.165,0.000
8.822,-0.160,0.005
8.825,-0.170,0.010
8.828,-0.190,0.010
8.831,-0.210,0.035
8.833,-0.200,0.060
8.836,-0.200,0.085
8.839,-0.210,0.090
8.842,-0.235,0.080
8.844,-0.265,0.070
8.847,-0.275,0.090
8.850,-0.245,0.120
8.853,-0.240,0.130
8.856,-0.260,0.135
8.858,-0.265,0.125
8.861,-0.285,0.140
8.864,-0.310,0.160
8.867,-0.305,0.195
8.869,-0.275,0.195
8.872,-0.260,0.195
8.875,-0.270,0.175
8.878,-0.285,0.165
8.881,-0.305,0.175
8.883,-0.310,0.185
8.886,-0.300,0.190
8.889,-0.290,0.190
8.892,-0.300,0.185
8.894,-0.300,0.165
8.897,-0.305,0.175
8.900,-0.295,0.175
8.903,-0.280,0.185
8.906,-0.265,0.180
8.908,-0.290,0.185
8.911,-0.290,0.155
8.914,-0.285,0.165
8.917,-0.280,0.165
8.919,-0.275,0.175
8.922,-0.260,0.170
8.925,-0.270,0.170
8.928,-0.295,0.145
8.931,-0.285,0.155
8.933,-0.275,0.175
8.936,-0.255,0.170
8.939,-0.250,0.175
8.942,-0.260,0.170
8.944,-0.275,0.155
8.947,-0.240,0.155
8.950,-0.245,0.165
8.953,-0.235,0.170
8.956,-0.235,0.160
8.958,-0.240,0.135
8.961,-0.255,0.130
8.964,-0.270,0.140
8.967,-0.255,0.150
8.969,-0.245,0.155
8.972,-0.235,0.150
8.975,-0.240,0.140
8.978,-0.265,0.115
8.981,-0.265,0.125
8.983,-0.255,0.135
8.986,-0.245,0.150
8.989,-0.230,0.145
8.992,-0.245,0.125
8.994,-0.265,0.120
8.997,-0.255,0.120
9.000,-0.245,0.135
9.003,-0.245,0.155
9.006,-0.235,0.155
9.008,-0.255,0.130
9.011,-0.275,0.110
9.014,-0.265,0.130
9.017,-0.265,0.140
9.019,-0.245,0.150
9.022,-0.240,0.135
9.025,-0.250,0.135
9.028,-0.265,0.130
9.031,-0.260,0.145
9.033,-0.265,0.150
9.036,-0.255,0.160
9.039,-0.240,0.150
9.042,-0.260,0.145
9.044,-0.285,0.140
9.047,-0.290,0.145
9.050,-0.285,0.155
9.053,-0.275,0.175
9.056,-0.280,0.165
9.058,-0.270,0.155
9.061,-0.285,0.145
9.064,-0.290,0.150
9.067,-0.265,0.170
9.069,-0.255,0.195
9.072,-0.255,0.180
9.075,-0.265,0.160
9.078,-0.280,0.140
9.081,-0.290,0.155
9.083,-0.295,0.165
9.086,-0.275,0.175
9.089,-0.275,0.175
9.092,-0.295,0.155
9.094,-0.300,0.150
9.097,-0.305,0.145
9.100,-0.290,0.150
9.103,-0.260,0.165
9.106,-0.260,0.140
9.108,-0.285,0.130
9.111,-0.305,0.115
9.114,-0.315,0.125
9.117,-0.295,0.140
9.119,-0.265,0.150
9.122,-0.255,0.140
9.125,-0.270,0.125
9.128,-0.285,0.120
9.131,-0.290,0.125
9.133,-0.295,0.130
9.136,-0.285,0.130
9.139,-0.280,0.125
9.142,-0.290,0.115
9.144,-0.300,0.120
9.147,-0.290,0.135
9.150,-0.285,0.150
9.153,-0.260,0.150
9.156,-0.255,0.140
9.158,-0.275,0.125
9.161,-0.280,0.120
9.164,-0.305,0.135
9.167,-0.280,0.150
9.169,-0.280,0.160
9.172,-0.250,0.160
9.175,-0.260,0.145
9.178,-0.280,0.150
9.181,-0.275,0.155
9.183,-0.290,0.150
9.186,-0.265,0.175
9.189,-0.260,0.170
9.192,-0.270,0.155
9.194,-0.290,0.130
9.197,-0.295,0.150
9.200,-0.275,0.170
9.203,-0.260,0.175
9.206,-0.255,0.180
9.208,-0.260,0.160
9.211,-0.280,0.150
9.214,-0.290,0.145
9.217,-0.280,0.165
9.219,-0.270,0.175
9.222,-0.255,0.180
9.225,-0.275,0.170
9.228,-0.305,0.160
9.231,-0.290,0.155
9.233,-0.280,0.170
9.236,-0.275,0.180
9.239,-0.260,0.170
9.242,-0.290,0.155
9.244,-0.305,0.140
9.247,-0.305,0.145
9.250,-0.285,0.170
9.253,-0.265,0.160
9.256,-0.260,0.165
9.258,-0.275,0.135
9.261,-0.290,0.130
9.264,-0.285,0.140
9.267,-0.290,0.155
9.269,-0.285,0.165
9.272,-0.280,0.150
9.275,-0.285,0.125
9.278,-0.300,0.120
9.281,-0.315,0.125
9.283,-0.290,0.140
9.286,-0.275,0.155
9.289,-0.265,0.140
9.292,-0.270,0.130
9.294,-0.275,0.125
9.297,-0.270,0.135
9.300,-0.270,0.145
9.303,-0.270,0.145
9.306,-0.270,0.145
9.308,-0.265,0.140
9.311,-0.265,0.130
9.314,-0.260,0.140
9.317,-0.265,0.155
9.319,-0.255,0.150
9.322,-0.255,0.165
9.325,-0.255,0.145
9.328,-0.270,0.155
9.331,-0.270,0.160
9.333,-0.260,0.170
9.336,-0.260,0.175
9.339,-0.255,0.160
9.342,-0.265,0.140
9.344,-0.270,0.135
9.347,-0.270,0.150
9.350,-0.255,0.185
9.353,-0.250,0.190
9.356,-0.250,0.165
9.358,-0.245,0.160
9.361,-0.260,0.140
9.364,-0.265,0.145
9.367,-0.265,0.150
9.369,-0.250,0.165
9.372,-0.250,0.165
9.375,-0.250,0.145
9.378,-0.260,0.145
9.381,-0.260,0.145
9.383,-0.250,0.155
9.386,-0.255,0.180
9.389,-0.245,0.170
9.392,-0.250,0.165
9.394,-0.260,0.145
9.397,-0.245,0.125
9.400,-0.240,0.140
9.403,-0.245,0.145
9.406,-0.250,0.150
9.408,-0.250,0.145
9.411,-0.260,0.140
9.414,-0.260,0.140
9.417,-0.245,0.155
9.419,-0.225,0.160
9.422,-0.220,0.155
9.425,-0.225,0.145
9.428,-0.245,0.130
9.431,-0.250,0.150
9.433,-0.240,0.160
9.436,-0.230,0.165
9.439,-0.230,0.165
9.442,-0.245,0.150
9.444,-0.250,0.145
9.447,-0.240,0.150
9.450,-0.225,0.160
9.453,-0.210,0.170
9.456,-0.200,0.150
9.458,-0.220,0.145
9.461,-0.235,0.130
9.464,-0.230,0.155
9.467,-0.235,0.175
9.469,-0.220,0.190
9.472,-0.230,0.175
9.475,-0.225,0.160
9.478,-0.230,0.155
9.481,-0.230,0.160
9.483,-0.235,0.170
9.486,-0.225,0.170
9.489,-0.220,0.160
9.492,-0.220,0.145
9.494,-0.235,0.125
9.497,-0.230,0.140
9.500,-0.195,0.155
9.503,-0.180,0.160
9.506,-0.195,0.150
9.508,-0.220,0.135
9.511,-0.235,0.130
9.514,-0.230,0.125
9.517,-0.215,0.135
9.519,-0.200,0.135
9.522,-0.195,0.135
9.525,-0.185,0.125
9.528,-0.190,0.110
9.531,-0.195,0.115
9.533,-0.200,0.140
9.536,-0.190,0.145
9.539,-0.195,0.125
9.542,-0.200,0.100
9.544,-0.210,0.100
9.547,-0.210,0.125
9.550,-0.205,0.140
9.553,-0.185,0.135
9.556,-0.190,0.130
9.558,-0.185,0.120
9.561,-0.195,0.115
9.564,-0.200,0.105
9.567,-0.195,0.120
9.569,-0.195,0.120
9.572,-0.180,0.125
9.575,-0.200,0.120
9.578,-0.200,0.100
9.581,-0.210,0.110
9.583,-0.200,0.120
9.586,-0.185,0.135
9.589,-0.175,0.135
9.592,-0.175,0.115
9.594,-0.190,0.110
9.597,-0.190,0.110
9.600,-0.180,0.125
9.603,-0.170,0.140
9.606,-0.180,0.140
9.608,-0.210,0.125
9.611,-0.210,0.115
9.614,-0.205,0.115
9.617,-0.195,0.130
9.619,-0.160,0.140
9.622,-0.150,0.135
9.625,-0.170,0.120
9.628,-0.175,0.105
9.631,-0.185,0.115
9.633,-0.185,0.125
9.636,-0.180,0.145
9.639,-0.180,0.140
9.642,-0.190,0.140
9.644,-0.190,0.125
9.647,-0.195,0.135
9.650,-0.180,0.145
9.653,-0.175,0.165
9.656,-0.175,0.145
9.658,-0.170,0.130
9.661,-0.185,0.120
9.664,-0.180,0.130
9.667,-0.180,0.150
9.669,-0.155,0.145
9.672,-0.165,0.135
9.675,-0.170,0.125
9.678,-0.185,0.100
9.681,-0.200,0.110
9.683,-0.175,0.135
9.686,-0.155,0.160
9.689,-0.150,0.165
9.692,-0.135,0.145
9.694,-0.165,0.120
9.697,-0.150,0.125
9.700,-0.155,0.125
9.703,-0.145,0.140
9.706,-0.135,0.135
9.708,-0.150,0.125
9.711,-0.160,0.125
9.714,-0.160,0.140
9.717,-0.155,0.155
9.719,-0.135,0.160
9.722,-0.140,0.150
9.725,-0.140,0.130
9.728,-0.155,0.120
9.731,-0.160,0.120
9.733,-0.135,0.110
9.736,-0.115,0.115
9.739,-0.105,0.120
9.742,-0.130,0.100
9.744,-0.130,0.095
9.747,-0.115,0.100
9.750,-0.110,0.105
9.753,-0.105,0.095
9.756,-0.105,0.085
9.758,-0.090,0.055
9.761,-0.070,0.040
9.764,-0.015,0.035
9.767,0.085,0.025
9.769,0.185,0.030
9.772,0.310,0.015
9.775,0.430,-0.005
9.778,0.555,-0.035
9.781,0.705,-0.070
9.783,0.885,-0.085
9.786,1.045,-0.100
9.789,1.185,-0.115
9.792,1.320,-0.115
9.794,1.370,-0.070
9.797,1.340,0.005
9.800,1.190,0.070
9.803,0.950,0.105
9.806,0.655,0.100
9.808,0.360,0.125
9.811,0.080,0.155
9.814,-0.135,0.200
9.817,-0.260,0.230
9.819,-0.260,0.210
9.822,-0.235,0.180
9.825,-0.180,0.145
9.828,-0.170,0.110
9.831,-0.160,0.110
9.833,-0.175,0.120
9.836,-0.190,0.125
9.839,-0.170,0.115
9.842,-0.175,0.100
9.844,-0.195,0.085
9.847,-0.205,0.090
9.850,-0.200,0.110
9.853,-0.195,0.125
9.856,-0.205,0.125
9.858,-0.220,0.110
9.861,-0.240,0.105
9.864,-0.240,0.125
9.867,-0.225,0.140
9.869,-0.210,0.145
9.872,-0.210,0.130
9.875,-0.240,0.100
9.878,-0.250,0.095
9.881,-0.245,0.115
9.883,-0.235,0.140
9.886,-0.210,0.155
9.889,-0.205,0.130
9.892,-0.235,0.115
9.894,-0.250,0.110
9.897,-0.255,0.110
9.900,-0.235,0.125
9.903,-0.225,0.125
9.906,-0.230,0.125
9.908,-0.240,0.115
9.911,-0.260,0.100
9.914,-0.250,0.110
9.917,-0.255,0.115
9.919,-0.235,0.140
9.922,-0.225,0.130
9.925,-0.240,0.090
9.928,-0.260,0.090
9.931,-0.260,0.115
9.933,-0.250,0.120
9.936,-0.250,0.155
9.939,-0.235,0.140
9.942,-0.265,0.120
9.944,-0.265,0.105
9.947,-0.245,0.125
9.950,-0.250,0.135
9.953,-0.215,0.140
9.956,-0.225,0.120
9.958,-0.245,0.105
9.961,-0.245,0.120
9.964,-0.235,0.135
9.967,-0.205,0.150
9.969,-0.185,0.145
9.972,-0.170,0.120
9.975,-0.200,0.095
9.978,-0.195,0.080
9.981,-0.200,0.070
9.983,-0.180,0.075
9.986,-0.165,0.090
9.989,-0.160,0.085
9.992,-0.155,0.060
9.994,-0.145,0.055
9.997,-0.145,0.055
10.000,-0.140,0.060
10.003,-0.125,0.060
10.006,-0.125,0.045
10.008,-0.120,0.045
10.011,-0.125,0.025
10.014,-0.115,0.025
10.017,-0.100,0.030
10.019,-0.085,0.050
10.022,-0.065,0.035
10.025,-0.080,0.000
10.028,-0.075,-0.005
10.031,-0.060,0.000
10.033,-0.040,0.005
10.036,-0.020,0.010
10.039,-0.020,0.000
10.042,-0.010,-0.005
10.044,-0.030,-0.025
10.047,-0.035,-0.015
10.050,-0.005,-0.010
10.053,0.010,-0.015
10.056,0.005,-0.025
10.058,-0.005,-0.040
10.061,-0.010,-0.040
10.064,0.000,-0.035
10.067,0.005,-0.025
10.069,0.030,-0.030
10.072,0.025,-0.040
10.075,0.020,-0.045
10.078,0.010,-0.050
10.081,0.000,-0.025
10.083,0.005,-0.030
10.086,0.025,-0.020
10.089,0.040,-0.035
10.092,0.025,-0.040
10.094,0.005,-0.045
10.097,0.000,-0.030
10.100,0.010,-0.015
10.103,0.015,0.000
10.106,0.025,-0.010
10.108,0.000,-0.020
10.111,-0.020,-0.020
10.114,-0.020,-0.025
10.117,-0.025,0.000
10.119,-0.005,0.015
10.122,-0.035,0.015
10.125,-0.050,0.010
10.128,-0.070,0.005
10.131,-0.070,0.040
10.133,-0.060,0.050
10.136,-0.065,0.065
10.139,-0.085,0.070
10.142,-0.090,0.045
10.144,-0.115,0.045
10.147,-0.125,0.055
10.150,-0.120,0.075
10.153,-0.110,0.090
10.156,-0.125,0.085
10.158,-0.135,0.080
10.161,-0.160,0.075
10.164,-0.155,0.085
10.167,-0.135,0.105
10.169,-0.135,0.120
10.172,-0.140,0.125
10.175,-0.150,0.115
10.178,-0.175,0.130
10.181,-0.180,0.130
10.183,-0.165,0.150
10.186,-0.160,0.150
10.189,-0.155,0.155
10.192,-0.160,0.135
10.194,-0.190,0.135
10.197,-0.170,0.145
10.200,-0.160,0.155
10.203,-0.150,0.170
10.206,-0.145,0.160
10.208,-0.165,0.140
10.211,-0.185,0.135
10.214,-0.195,0.145
10.217,-0.190,0.155
10.219,-0.155,0.165
10.222,-0.160,0.140
10.225,-0.190,0.120
10.228,-0.210,0.120
10.231,-0.205,0.140
10.233,-0.195,0.155
10.236,-0.180,0.155
10.239,-0.185,0.145
10.242,-0.180,0.130
10.244,-0.185,0.120
10.247,-0.190,0.115
10.250,-0.175,0.130
10.253,-0.170,0.135
10.256,-0.160,0.125
10.258,-0.160,0.110
10.261,-0.165,0.105
10.264,-0.165,0.110
10.267,-0.160,0.125
10.269,-0.140,0.130
10.272,-0.135,0.120
10.275,-0.140,0.100
10.278,-0.160,0.085
10.281,-0.165,0.110
10.283,-0.160,0.115
10.286,-0.145,0.120
10.289,-0.135,0.120
10.292,-0.140,0.110
10.294,-0.150,0.095
10.297,-0.145,0.100
10.300,-0.125,0.095
10.303,-0.115,0.110
10.306,-0.120,0.105
10.308,-0.135,0.080
10.311,-0.165,0.085
10.314,-0.150,0.100
10.317,-0.150,0.110
10.319,-0.140,0.120
10.322,-0.140,0.115
10.325,-0.150,0.100
10.328,-0.155,0.115
10.331,-0.160,0.120
10.333,-0.145,0.120
10.336,-0.155,0.135
10.339,-0.150,0.120
10.342,-0.160,0.125
10.344,-0.150,0.105
10.347,-0.155,0.105
10.350,-0.150,0.120
10.353,-0.150,0.120
10.356,-0.150,0.105
10.358,-0.155,0.085
10.361,-0.170,0.075
10.364,-0.175,0.080
10.367,-0.160,0.110
10.369,-0.150,0.115
10.372,-0.145,0.120
10.375,-0.155,0.105
10.378,-0.160,0.095
10.381,-0.170,0.090
10.383,-0.165,0.100
10.386,-0.140,0.105
10.389,-0.165,0.100
10.392,-0.175,0.075
10.394,-0.210,0.070
10.397,-0.185,0.070
10.400,-0.190,0.090
10.403,-0.180,0.105
10.406,-0.175,0.100
10.408,-0.180,0.100
10.411,-0.210,0.090
10.414,-0.205,0.090
10.417,-0.205,0.110
10.419,-0.190,0.105
10.422,-0.205,0.100
10.425,-0.215,0.090
10.428,-0.230,0.080
10.431,-0.215,0.095
10.433,-0.205,0.100
10.436,-0.190,0.110
10.439,-0.200,0.100
10.442,-0.205,0.090
10.444,-0.235,0.085
10.447,-0.235,0.080
10.450,-0.225,0.090
10.453,-0.200,0.095
10.456,-0.205,0.100
10.458,-0.200,0.080
10.461,-0.210,0.095
10.464,-0.205,0.095
10.467,-0.215,0.125
10.469,-0.195,0.135
10.472,-0.200,0.125
10.475,-0.185,0.110
10.478,-0.190,0.110
10.481,-0.210,0.110
10.483,-0.195,0.130
10.486,-0.185,0.150
10.489,-0.175,0.150
10.492,-0.180,0.130
10.494,-0.185,0.130
10.497,-0.165,0.135
10.500,-0.150,0.125
10.503,-0.130,0.155
10.506,-0.145,0.150
10.508,-0.145,0.130
10.511,-0.145,0.120
10.514,-0.135,0.115
10.517,-0.075,0.110
10.519,-0.040,0.095
10.522,0.015,0.075
10.525,0.080,0.060
10.528,0.140,0.060
10.531,0.260,0.065
10.533,0.425,0.060
10.536,0.590,0.020
10.539,0.755,-0.030
10.542,0.920,-0.080
10.544,1.065,-0.115
10.547,1.225,-0.095
10.550,1.345,-0.035
10.553,1.385,0.035
10.556,1.305,0.105
10.558,1.120,0.115
10.561,0.865,0.120
10.564,0.565,0.140
10.567,0.265,0.195
10.569,-0.030,0.255
10.572,-0.275,0.290
10.575,-0.425,0.290
10.578,-0.465,0.285
10.581,-0.395,0.270
10.583,-0.325,0.230
10.586,-0.275,0.200
10.589,-0.265,0.160
10.592,-0.260,0.115
10.594,-0.270,0.085
10.597,-0.290,0.085
10.600,-0.275,0.090
10.603,-0.260,0.115
10.606,-0.260,0.110
10.608,-0.275,0.095
10.611,-0.290,0.085
10.614,-0.285,0.100
10.617,-0.280,0.125
10.619,-0.275,0.125
10.622,-0.290,0.130
10.625,-0.290,0.130
10.628,-0.305,0.105
10.631,-0.305,0.125
10.633,-0.285,0.135
10.636,-0.270,0.150
10.639,-0.260,0.140
10.642,-0.270,0.125
10.644,-0.285,0.115
10.647,-0.280,0.115
10.650,-0.285,0.120
10.653,-0.275,0.125
10.656,-0.300,0.130
10.658,-0.315,0.110
10.661,-0.315,0.100
10.664,-0.315,0.120
10.667,-0.295,0.145
10.669,-0.270,0.145
10.672,-0.270,0.135
10.675,-0.280,0.120
10.678,-0.285,0.125
10.681,-0.285,0.135
10.683,-0.265,0.135
10.686,-0.245,0.135
10.689,-0.255,0.105
10.692,-0.275,0.080
10.694,-0.290,0.075
10.697,-0.285,0.090
10.700,-0.270,0.095
10.703,-0.250,0.110
10.706,-0.255,0.080
10.708,-0.280,0.065
10.711,-0.295,0.055
10.714,-0.295,0.075
10.717,-0.275,0.075
10.719,-0.265,0.085
10.722,-0.265,0.070
10.725,-0.285,0.050
10.728,-0.305,0.035
10.731,-0.295,0.065
10.733,-0.280,0.070
10.736,-0.265,0.070
10.739,-0.255,0.055
10.742,-0.255,0.045
10.744,-0.270,0.020
10.747,-0.260,0.040
10.750,-0.250,0.050
10.753,-0.230,0.060
10.756,-0.225,0.050
10.758,-0.235,0.030
10.761,-0.235,0.035
10.764,-0.220,0.030
10.767,-0.195,0.040
10.769,-0.180,0.035
10.772,-0.190,0.015
10.775,-0.200,0.000
10.778,-0.200,-0.010
10.781,-0.170,-0.005
10.783,-0.155,0.010
10.786,-0.130,0.010
10.789,-0.130,-0.005
10.792,-0.130,-0.025
10.794,-0.145,-0.030
10.797,-0.140,-0.035
10.800,-0.115,-0.035
10.803,-0.105,-0.035
10.806,-0.085,-0.060
10.808,-0.075,-0.075
10.811,-0.075,-0.110
10.814,-0.075,-0.100
10.817,-0.075,-0.090
10.819,-0.045,-0.085
10.822,-0.030,-0.095
10.825,-0.025,-0.110
10.828,-0.035,-0.125
10.831,-0.045,-0.130
10.833,-0.040,-0.125
10.836,-0.040,-0.130
10.839,-0.030,-0.145
10.842,-0.055,-0.145
10.844,-0.080,-0.145
10.847,-0.070,-0.125
10.850,-0.065,-0.110
10.853,-0.055,-0.085
10.856,-0.065,-0.090
10.858,-0.095,-0.085
10.861,-0.105,-0.075
10.864,-0.120,-0.055
10.867,-0.110,-0.035
10.869,-0.115,-0.020
10.872,-0.125,-0.030
10.875,-0.140,-0.020
10.878,-0.160,-0.005
10.881,-0.165,0.015
10.883,-0.150,0.040
10.886,-0.170,0.070
10.889,-0.165,0.065
10.892,-0.205,0.085
10.894,-0.230,0.080
10.897,-0.245,0.090
10.900,-0.240,0.110
10.903,-0.225,0.125
10.906,-0.225,0.120
10.908,-0.260,0.120
10.911,-0.280,0.115
10.914,-0.285,0.120
10.917,-0.280,0.130
10.919,-0.275,0.150
10.922,-0.260,0.160
10.925,-0.280,0.145
10.928,-0.305,0.145
10.931,-0.315,0.150
10.933,-0.305,0.165
10.936,-0.285,0.180
10.939,-0.290,0.175
10.942,-0.300,0.165
10.944,-0.315,0.165
10.947,-0.310,0.165
10.950,-0.290,0.170
10.953,-0.285,0.180
10.956,-0.305,0.180
10.958,-0.295,0.165
10.961,-0.295,0.150
10.964,-0.295,0.165
10.967,-0.290,0.185
10.969,-0.280,0.185
10.972,-0.280,0.185
10.975,-0.285,0.160
10.978,-0.295,0.165
10.981,-0.285,0.175
10.983,-0.265,0.175
10.986,-0.265,0.185
10.989,-0.270,0.165
10.992,-0.285,0.145
10.994,-0.290,0.130
10.997,-0.285,0.160
11.000,-0.265,0.155
11.003,-0.245,0.170
11.006,-0.245,0.160
11.008,-0.260,0.145
11.011,-0.265,0.135
11.014,-0.275,0.140
11.017,-0.245,0.155
11.019,-0.230,0.165
11.022,-0.245,0.150
11.025,-0.255,0.130
11.028,-0.270,0.110
11.031,-0.270,0.110
11.033,-0.255,0.120
11.036,-0.245,0.135
11.039,-0.240,0.125
11.042,-0.245,0.110
11.044,-0.250,0.095
11.047,-0.240,0.125
11.050,-0.235,0.120
11.053,-0.225,0.120
11.056,-0.245,0.110
11.058,-0.255,0.105
11.061,-0.270,0.095
11.064,-0.265,0.105
11.067,-0.240,0.120
11.069,-0.245,0.115
11.072,-0.255,0.110
11.075,-0.275,0.100
11.078,-0.280,0.105
11.081,-0.275,0.105
11.083,-0.245,0.135
11.086,-0.250,0.155
11.089,-0.240,0.135
11.092,-0.255,0.130
11.094,-0.270,0.130
11.097,-0.275,0.135
11.100,-0.265,0.160
11.103,-0.250,0.170
11.106,-0.240,0.175
11.108,-0.265,0.150
11.111,-0.270,0.150
11.114,-0.275,0.150
11.117,-0.275,0.170
11.119,-0.255,0.170
11.122,-0.255,0.165
11.125,-0.265,0.140
11.128,-0.275,0.135
11.131,-0.285,0.145
11.133,-0.290,0.165
11.136,-0.270,0.185
11.139,-0.275,0.150
11.142,-0.285,0.130
11.144,-0.295,0.110
11.147,-0.295,0.130
11.150,-0.295,0.125
11.153,-0.280,0.125
11.156,-0.280,0.115
11.158,-0.285,0.085
11.161,-0.305,0.085
11.164,-0.275,0.085
11.167,-0.275,0.095
11.169,-0.265,0.110
11.172,-0.280,0.105
11.175,-0.290,0.095
11.178,-0.285,0.085
11.181,-0.275,0.095
11.183,-0.265,0.115
11.186,-0.255,0.115
11.189,-0.265,0.110
11.192,-0.270,0.090
11.194,-0.290,0.090
11.197,-0.295,0.110
11.200,-0.280,0.115
11.203,-0.275,0.110
11.206,-0.295,0.100
11.208,-0.300,0.100
11.211,-0.300,0.100
11.214,-0.295,0.125
11.217,-0.295,0.135
11.219,-0.280,0.145
11.222,-0.275,0.125
11.225,-0.290,0.115
11.228,-0.285,0.120
11.231,-0.290,0.125
11.233,-0.290,0.150
11.236,-0.265,0.155
11.239,-0.270,0.160
11.242,-0.280,0.135
11.244,-0.270,0.130
11.247,-0.275,0.135
11.250,-0.270,0.160
11.253,-0.260,0.175
11.256,-0.255,0.160
11.258,-0.265,0.140
11.261,-0.285,0.125
11.264,-0.280,0.145
11.267,-0.270,0.155
11.269,-0.265,0.150
11.272,-0.265,0.140
11.275,-0.270,0.135
11.278,-0.285,0.120
11.281,-0.275,0.145
11.283,-0.265,0.150
11.286,-0.260,0.150
11.289,-0.275,0.135
11.292,-0.285,0.125
11.294,-0.290,0.115
11.297,-0.295,0.120
11.300,-0.285,0.150
11.303,-0.250,0.140
11.306,-0.255,0.120
11.308,-0.270,0.120
11.311,-0.280,0.110
11.314,-0.285,0.115
11.317,-0.275,0.125
11.319,-0.270,0.125
11.322,-0.275,0.110
11.325,-0.270,0.120
11.328,-0.270,0.115
11.331,-0.255,0.110
11.333,-0.250,0.130
11.336,-0.240,0.140
11.339,-0.250,0.135
11.342,-0.255,0.115
11.344,-0.280,0.140
11.347,-0.280,0.135
11.350,-0.275,0.150
11.353,-0.255,0.150
11.356,-0.240,0.130
11.358,-0.260,0.130
11.361,-0.260,0.125
11.364,-0.260,0.125
11.367,-0.255,0.145
11.369,-0.235,0.160
11.372,-0.235,0.125
11.375,-0.250,0.115
11.378,-0.270,0.110
11.381,-0.265,0.140
11.383,-0.250,0.155
11.386,-0.230,0.155
11.389,-0.225,0.155
11.392,-0.240,0.125
11.394,-0.245,0.120
11.397,-0.235,0.135
11.400,-0.215,0.150
11.403,-0.205,0.160
11.406,-0.190,0.150
11.408,-0.210,0.120
11.411,-0.225,0.100
11.414,-0.230,0.110
11.417,-0.220,0.125
11.419,-0.190,0.110
11.422,-0.180,0.100
11.425,-0.195,0.080
11.428,-0.210,0.075
11.431,-0.205,0.075
11.433,-0.170,0.065
11.436,-0.115,0.055
11.439,-0.030,0.040
11.442,0.010,0.030
11.444,0.105,0.015
11.447,0.225,0.025
11.450,0.360,0.020
11.453,0.530,-0.015
11.456,0.715,-0.040
11.458,0.885,-0.105
11.461,1.030,-0.135
11.464,1.210,-0.105
11.467,1.355,-0.065
11.469,1.425,0.030
11.472,1.360,0.075
11.475,1.185,0.110
11.478,0.905,0.115
11.481,0.615,0.130
11.483,0.350,0.170
11.486,0.090,0.220
11.489,-0.155,0.240
11.492,-0.315,0.235
11.494,-0.385,0.230
11.497,-0.350,0.225
11.500,-0.285,0.195
11.503,-0.215,0.155
11.506,-0.225,0.115
11.508,-0.240,0.100
11.511,-0.275,0.100
11.514,-0.270,0.100
11.517,-0.280,0.100
11.519,-0.260,0.115
11.522,-0.275,0.115
11.525,-0.295,0.100
11.528,-0.305,0.115
11.531,-0.305,0.130
11.533,-0.305,0.140
11.536,-0.305,0.140
11.539,-0.305,0.125
11.542,-0.315,0.115
11.544,-0.325,0.110
11.547,-0.340,0.125
11.550,-0.320,0.135
11.553,-0.325,0.135
11.556,-0.315,0.105
11.558,-0.330,0.100
11.561,-0.335,0.090
11.564,-0.340,0.120
11.567,-0.345,0.135
11.569,-0.320,0.140
11.572,-0.310,0.120
11.575,-0.325,0.105
11.578,-0.335,0.110
11.581,-0.350,0.105
11.583,-0.340,0.125
11.586,-0.325,0.125
11.589,-0.315,0.125
11.592,-0.315,0.110
11.594,-0.340,0.110
11.597,-0.345,0.130
11.600,-0.320,0.140
11.603,-0.310,0.140
11.606,-0.325,0.130
11.608,-0.340,0.105
11.611,-0.375,0.105
11.614,-0.350,0.130
11.617,-0.330,0.125
11.619,-0.295,0.135
11.622,-0.315,0.120
11.625,-0.335,0.100
11.628,-0.345,0.095
11.631,-0.345,0.105
11.633,-0.335,0.115
11.636,-0.305,0.115
11.639,-0.310,0.105
11.642,-0.310,0.090
11.644,-0.325,0.095
11.647,-0.315,0.120
11.650,-0.310,0.125
11.653,-0.285,0.130
11.656,-0.285,0.115
11.658,-0.275,0.090
11.661,-0.285,0.080
11.664,-0.285,0.085
11.667,-0.255,0.090
11.669,-0.235,0.095
11.672,-0.225,0.090
11.675,-0.215,0.070
11.678,-0.210,0.065
11.681,-0.210,0.065
11.683,-0.190,0.070
11.686,-0.165,0.055
11.689,-0.160,0.045
11.692,-0.185,0.015
11.694,-0.175,0.015
11.697,-0.180,0.020
11.700,-0.150,0.025
11.703,-0.120,0.020
11.706,-0.110,0.010
11.708,-0.120,-0.025
11.711,-0.135,-0.040
11.714,-0.135,-0.025
11.717,-0.115,-0.015
11.719,-0.095,-0.025
11.722,-0.105,-0.045
11.725,-0.115,-0.065
11.728,-0.110,-0.070
11.731,-0.135,-0.075
11.733,-0.095,-0.050
11.736,-0.090,-0.055
11.739,-0.085,-0.065
11.742,-0.105,-0.085
11.744,-0.100,-0.090
11.747,-0.115,-0.080
11.750,-0.105,-0.080
11.753,-0.090,-0.085
11.756,-0.090,-0.100
11.758,-0.100,-0.100
11.761,-0.110,-0.110
11.764,-0.110,-0.110
11.767,-0.100,-0.095
11.769,-0.105,-0.080
11.772,-0.120,-0.080
11.775,-0.130,-0.085
11.778,-0.155,-0.080
11.781,-0.160,-0.040
11.783,-0.155,-0.005
11.786,-0.130,0.005
11.789,-0.140,0.015
11.792,-0.160,0.020
11.794,-0.180,0.035
11.797,-0.200,0.050
11.800,-0.180,0.075
11.803,-0.165,0.095
11.806,-0.195,0.075
11.808,-0.200,0.080
11.811,-0.235,0.080
11.814,-0.240,0.100
11.817,-0.240,0.125
11.819,-0.225,0.125
11.822,-0.235,0.120
11.825,-0.255,0.095
11.828,-0.275,0.100
11.831,-0.275,0.130
11.833,-0.265,0.145
11.836,-0.260,0.135
11.839,-0.275,0.125
11.842,-0.285,0.105
11.844,-0.300,0.105
11.847,-0.305,0.125
11.850,-0.320,0.150
11.853,-0.295,0.150
11.856,-0.310,0.145
11.858,-0.325,0.130
11.861,-0.335,0.130
11.864,-0.355,0.130
11.867,-0.340,0.130
11.869,-0.330,0.155
11.872,-0.310,0.155
11.875,-0.310,0.145
11.878,-0.335,0.135
11.881,-0.360,0.130
11.883,-0.355,0.155
11.886,-0.330,0.155
11.889,-0.320,0.140
11.892,-0.320,0.135
11.894,-0.360,0.145
11.897,-0.360,0.140
11.900,-0.325,0.170
11.903,-0.305,0.170
11.906,-0.310,0.155
11.908,-0.320,0.140
11.911,-0.340,0.130
11.914,-0.325,0.150
11.917,-0.320,0.165
11.919,-0.310,0.175
11.922,-0.310,0.170
11.925,-0.325,0.155
11.928,-0.325,0.145
11.931,-0.310,0.160
11.933,-0.310,0.175
11.936,-0.275,0.185
11.939,-0.270,0.165
11.942,-0.270,0.150
11.944,-0.275,0.145
11.947,-0.265,0.160
11.950,-0.260,0.175
11.953,-0.250,0.185
11.956,-0.245,0.170
11.958,-0.265,0.145
11.961,-0.285,0.130
11.964,-0.265,0.150
11.967,-0.250,0.160
11.969,-0.245,0.165
11.972,-0.270,0.150
11.975,-0.305,0.135
11.978,-0.295,0.135
11.981,-0.280,0.145
11.983,-0.265,0.150
11.986,-0.250,0.140
11.989,-0.290,0.125
11.992,-0.305,0.120
11.994,-0.300,0.120
11.997,-0.285,0.135
12.000,-0.275,0.150
12.003,-0.265,0.145
12.006,-0.265,0.130
12.008,-0.280,0.110
12.011,-0.295,0.115
12.014,-0.295,0.120
12.017,-0.285,0.145
12.019,-0.300,0.135
12.022,-0.310,0.125
12.025,-0.320,0.130
12.028,-0.315,0.120
12.031,-0.310,0.130
12.033,-0.300,0.150
12.036,-0.275,0.155
12.039,-0.280,0.155
12.042,-0.290,0.130
12.044,-0.325,0.130
12.047,-0.330,0.135
12.050,-0.315,0.160
12.053,-0.300,0.160
12.056,-0.320,0.150
12.058,-0.330,0.140
12.061,-0.340,0.145
12.064,-0.330,0.150
12.067,-0.295,0.175
12.069,-0.280,0.170
12.072,-0.285,0.165
12.075,-0.285,0.135
12.078,-0.295,0.140
12.081,-0.300,0.150
12.083,-0.280,0.175
12.086,-0.275,0.165
12.089,-0.285,0.170
12.092,-0.295,0.150
12.094,-0.300,0.145
12.097,-0.300,0.170
12.100,-0.295,0.170
12.103,-0.290,0.150
12.106,-0.290,0.140
12.108,-0.315,0.125
12.111,-0.315,0.135
12.114,-0.310,0.150
12.117,-0.305,0.140
12.119,-0.295,0.135
12.122,-0.305,0.130
12.125,-0.320,0.120
12.128,-0.330,0.130
12.131,-0.320,0.140
12.133,-0.305,0.140
12.136,-0.295,0.135
12.139,-0.285,0.120
12.142,-0.310,0.135
12.144,-0.335,0.135
12.147,-0.340,0.135
12.150,-0.325,0.140
12.153,-0.320,0.150
12.156,-0.305,0.140
12.158,-0.310,0.150
12.161,-0.325,0.155
12.164,-0.340,0.155
12.167,-0.340,0.155
12.169,-0.320,0.145
12.172,-0.310,0.130
12.175,-0.320,0.130
12.178,-0.320,0.140
12.181,-0.320,0.140
12.183,-0.305,0.175
12.186,-0.290,0.170
12.189,-0.285,0.155
12.192,-0.295,0.160
12.194,-0.320,0.150
12.197,-0.325,0.160
12.200,-0.315,0.175
12.203,-0.300,0.180
12.206,-0.295,0.155
12.208,-0.295,0.155
12.211,-0.310,0.155
12.214,-0.310,0.155
12.217,-0.295,0.180
12.219,-0.270,0.185
12.222,-0.300,0.165
12.225,-0.300,0.145
12.228,-0.300,0.150
12.231,-0.300,0.145
12.233,-0.290,0.155
12.236,-0.260,0.165
12.239,-0.265,0.155
12.242,-0.285,0.155
12.244,-0.305,0.150
12.247,-0.305,0.165
12.250,-0.290,0.165
12.253,-0.285,0.160
12.256,-0.290,0.155
12.258,-0.310,0.145
12.261,-0.315,0.155
12.264,-0.305,0.160
12.267,-0.295,0.160
12.269,-0.275,0.170
12.272,-0.280,0.175
12.275,-0.300,0.160
12.278,-0.315,0.155
12.281,-0.320,0.160
12.283,-0.320,0.165
12.286,-0.305,0.170
12.289,-0.300,0.165
12.292,-0.325,0.140
12.294,-0.345,0.135
12.297,-0.330,0.155
12.300,-0.300,0.165
12.303,-0.280,0.160
12.306,-0.290,0.160
12.308,-0.310,0.145
12.311,-0.310,0.145
12.314,-0.325,0.155
12.317,-0.290,0.165
12.319,-0.280,0.165
12.322,-0.280,0.155
12.325,-0.300,0.150
12.328,-0.330,0.145
12.331,-0.340,0.160
12.333,-0.315,0.175
12.336,-0.280,0.180
12.339,-0.290,0.160
12.342,-0.305,0.140
12.344,-0.320,0.145
12.347,-0.305,0.170
12.350,-0.305,0.190
12.353,-0.275,0.175
12.356,-0.295,0.170
12.358,-0.300,0.145
12.361,-0.300,0.145
12.364,-0.295,0.150
12.367,-0.280,0.175
12.369,-0.270,0.155
12.372,-0.265,0.150
12.375,-0.275,0.135
12.378,-0.290,0.140
12.381,-0.270,0.145
12.383,-0.255,0.160
12.386,-0.230,0.145
12.389,-0.240,0.155
12.392,-0.255,0.135
12.394,-0.280,0.140
12.397,-0.285,0.145
12.400,-0.275,0.160
12.403,-0.245,0.155
12.406,-0.255,0.145
12.408,-0.280,0.130
12.411,-0.265,0.145
12.414,-0.250,0.145
12.417,-0.240,0.150
12.419,-0.225,0.155
12.422,-0.230,0.155
12.425,-0.225,0.135
12.428,-0.250,0.130
12.431,-0.245,0.135
12.433,-0.230,0.155
12.436,-0.200,0.135
12.439,-0.195,0.120
12.442,-0.155,0.085
12.444,-0.075,0.075
12.447,-0.005,0.080
12.450,0.150,0.095
12.453,0.300,0.085
12.456,0.485,0.030
12.458,0.680,-0.030
12.461,0.875,-0.090
12.464,1.065,-0.080
12.467,1.240,-0.055
12.469,1.355,0.005
12.472,1.350,0.070
12.475,1.210,0.145
12.478,0.940,0.160
12.481,0.620,0.170
12.483,0.330,0.220
12.486,0.025,0.275
12.489,-0.255,0.310
12.492,-0.440,0.305
12.494,-0.480,0.320
12.497,-0.405,0.325
12.500,-0.355,0.290
12.503,-0.280,0.265
12.506,-0.275,0.230
12.508,-0.300,0.205
12.511,-0.320,0.200
12.514,-0.320,0.225
12.517,-0.305,0.255
12.519,-0.275,0.270
12.522,-0.280,0.235
12.525,-0.290,0.180
12.528,-0.335,0.145
12.531,-0.320,0.105
12.533,-0.305,0.100
12.536,-0.295,0.100
12.539,-0.290,0.105
12.542,-0.330,0.095
12.544,-0.345,0.090
12.547,-0.345,0.115
12.550,-0.335,0.115
12.553,-0.320,0.110
12.556,-0.345,0.095
12.558,-0.360,0.090
12.561,-0.385,0.100
12.564,-0.365,0.105
12.567,-0.345,0.120
12.569,-0.340,0.120
12.572,-0.370,0.110
12.575,-0.380,0.100
12.578,-0.405,0.085
12.581,-0.380,0.105
12.583,-0.385,0.120
12.586,-0.350,0.130
12.589,-0.360,0.125
12.592,-0.365,0.105
12.594,-0.380,0.100
12.597,-0.380,0.115
12.600,-0.375,0.125
12.603,-0.360,0.130
12.606,-0.340,0.105
12.608,-0.365,0.110
12.611,-0.370,0.120
12.614,-0.355,0.135
12.617,-0.340,0.165
12.619,-0.310,0.165
12.622,-0.320,0.155
12.625,-0.330,0.140
12.628,-0.330,0.150
12.631,-0.315,0.160
12.633,-0.300,0.160
12.636,-0.290,0.170
12.639,-0.305,0.160
12.642,-0.335,0.135
12.644,-0.350,0.135
12.647,-0.310,0.135
12.650,-0.295,0.150
12.653,-0.255,0.150
12.656,-0.255,0.140
12.658,-0.255,0.120
12.661,-0.270,0.095
12.664,-0.260,0.095
12.667,-0.255,0.105
12.669,-0.215,0.095
12.672,-0.215,0.085
12.675,-0.225,0.065
12.678,-0.225,0.050
12.681,-0.210,0.065
12.683,-0.195,0.050
12.686,-0.200,0.035
12.689,-0.205,0.010
12.692,-0.205,0.000
12.694,-0.195,-0.030
12.697,-0.185,-0.020
12.700,-0.175,-0.010
12.703,-0.170,-0.030
12.706,-0.155,-0.045
12.708,-0.165,-0.065
12.711,-0.160,-0.080
12.714,-0.175,-0.090
12.717,-0.155,-0.090
12.719,-0.135,-0.095
12.722,-0.130,-0.105
12.725,-0.135,-0.135
12.728,-0.140,-0.130
12.731,-0.125,-0.120
12.733,-0.110,-0.100
12.736,-0.110,-0.110
12.739,-0.100,-0.105
12.742,-0.110,-0.120
12.744,-0.125,-0.115
12.747,-0.125,-0.100
12.750,-0.115,-0.095
12.753,-0.115,-0.080
12.756,-0.110,-0.075
12.758,-0.110,-0.085
12.761,-0.120,-0.075
12.764,-0.125,-0.055
12.767,-0.105,-0.030
12.769,-0.095,-0.010
12.772,-0.095,-0.010
12.775,-0.130,-0.010
12.778,-0.150,0.000
12.781,-0.170,0.020
12.783,-0.145,0.040
12.786,-0.140,0.045
12.789,-0.155,0.060
12.792,-0.190,0.060
12.794,-0.225,0.070
12.797,-0.220,0.095
12.800,-0.215,0.120
12.803,-0.210,0.110
12.806,-0.215,0.105
12.808,-0.245,0.100
12.811,-0.270,0.100
12.814,-0.275,0.130
12.817,-0.285,0.155
12.819,-0.275,0.160
12.822,-0.290,0.140
12.825,-0.310,0.125
12.828,-0.325,0.120
12.831,-0.305,0.130
12.833,-0.305,0.145
12.836,-0.285,0.150
12.839,-0.300,0.125
12.842,-0.320,0.110
12.844,-0.345,0.140
12.847,-0.335,0.135
12.850,-0.310,0.145
12.853,-0.295,0.145
12.856,-0.290,0.135
12.858,-0.305,0.135
12.861,-0.310,0.135
12.864,-0.305,0.160
12.867,-0.300,0.165
12.869,-0.295,0.160
12.872,-0.295,0.145
12.875,-0.290,0.140
12.878,-0.320,0.135
12.881,-0.320,0.160
12.883,-0.305,0.175
12.886,-0.275,0.185
12.889,-0.290,0.175
12.892,-0.305,0.170
12.894,-0.290,0.175
12.897,-0.290,0.180
12.900,-0.260,0.185
12.903,-0.260,0.190
12.906,-0.260,0.195
12.908,-0.270,0.175
12.911,-0.285,0.185
12.914,-0.265,0.190
12.917,-0.245,0.200
12.919,-0.230,0.200
12.922,-0.235,0.170
12.925,-0.260,0.155
12.928,-0.260,0.145
12.931,-0.265,0.160
12.933,-0.270,0.175
12.936,-0.240,0.180
12.939,-0.260,0.155
12.942,-0.260,0.150
12.944,-0.275,0.145
12.947,-0.270,0.140
12.950,-0.230,0.150
12.953,-0.220,0.125
12.956,-0.225,0.130
12.958,-0.235,0.105
12.961,-0.255,0.110
12.964,-0.255,0.125
12.967,-0.250,0.145
12.969,-0.230,0.155
12.972,-0.235,0.145
12.975,-0.245,0.140
12.978,-0.265,0.120
12.981,-0.265,0.145
12.983,-0.240,0.140
12.986,-0.220,0.160
12.989,-0.215,0.145
12.992,-0.230,0.120
12.994,-0.250,0.135
12.997,-0.255,0.150
13.000,-0.235,0.165
13.003,-0.220,0.160
13.006,-0.220,0.120
13.008,-0.245,0.110
13.011,-0.275,0.115
13.014,-0.265,0.120
13.017,-0.255,0.140
13.019,-0.240,0.150
13.022,-0.235,0.125
13.025,-0.245,0.110
13.028,-0.265,0.095
13.031,-0.255,0.115
13.033,-0.240,0.135
13.036,-0.230,0.135
13.039,-0.245,0.115
13.042,-0.270,0.095
13.044,-0.265,0.115
13.047,-0.270,0.135
13.050,-0.250,0.155
13.053,-0.235,0.150
13.056,-0.235,0.125
13.058,-0.260,0.110
13.061,-0.280,0.115
13.064,-0.270,0.130
13.067,-0.265,0.145
13.069,-0.265,0.145
13.072,-0.260,0.130
13.075,-0.265,0.125
13.078,-0.265,0.130
13.081,-0.260,0.145
13.083,-0.255,0.165
13.086,-0.230,0.165
13.089,-0.235,0.155
13.092,-0.250,0.145
13.094,-0.270,0.125
13.097,-0.265,0.155
13.100,-0.230,0.160
13.103,-0.240,0.155
13.106,-0.250,0.160
13.108,-0.260,0.150
13.111,-0.270,0.160
13.114,-0.260,0.165
13.117,-0.245,0.160
13.119,-0.215,0.160
13.122,-0.230,0.160
13.125,-0.245,0.135
13.128,-0.255,0.130
13.131,-0.250,0.160
13.133,-0.235,0.170
13.136,-0.225,0.165
13.139,-0.230,0.160
13.142,-0.235,0.150
13.144,-0.245,0.140
13.147,-0.235,0.145
13.150,-0.240,0.155
13.153,-0.255,0.145
13.156,-0.255,0.135
13.158,-0.265,0.105
13.161,-0.260,0.105
13.164,-0.250,0.115
13.167,-0.240,0.125
13.169,-0.230,0.135
13.172,-0.255,0.120
13.175,-0.250,0.110
13.178,-0.265,0.100
13.181,-0.245,0.110
13.183,-0.245,0.120
13.186,-0.245,0.110
13.189,-0.235,0.100
13.192,-0.260,0.080
13.194,-0.265,0.080
13.197,-0.265,0.100
13.200,-0.265,0.115
13.203,-0.260,0.120
13.206,-0.250,0.130
13.208,-0.260,0.120
13.211,-0.245,0.120
13.214,-0.255,0.140
13.217,-0.240,0.135
13.219,-0.230,0.135
13.222,-0.250,0.115
13.225,-0.265,0.105
13.228,-0.270,0.110
13.231,-0.275,0.140
13.233,-0.255,0.170
13.236,-0.225,0.175
13.239,-0.230,0.155
13.242,-0.260,0.135
13.244,-0.270,0.135
13.247,-0.260,0.150
13.250,-0.240,0.165
13.253,-0.220,0.155
13.256,-0.230,0.145
13.258,-0.235,0.130
13.261,-0.250,0.160
13.264,-0.235,0.170
13.267,-0.225,0.195
13.269,-0.210,0.185
13.272,-0.210,0.185
13.275,-0.235,0.150
13.278,-0.255,0.135
13.281,-0.250,0.125
13.283,-0.220,0.125
13.286,-0.185,0.115
13.289,-0.185,0.105
13.292,-0.200,0.105
13.294,-0.220,0.100
13.297,-0.215,0.115
13.300,-0.220,0.135
13.303,-0.200,0.130
13.306,-0.200,0.125
13.308,-0.230,0.095
13.311,-0.250,0.095
13.314,-0.240,0.105
13.317,-0.210,0.115
13.319,-0.195,0.105
13.322,-0.195,0.125
13.325,-0.210,0.120
13.328,-0.225,0.120
13.331,-0.230,0.135
13.333,-0.235,0.145
13.336,-0.225,0.155
13.339,-0.220,0.145
13.342,-0.225,0.120
13.344,-0.235,0.125
13.347,-0.230,0.135
13.350,-0.205,0.155
13.353,-0.195,0.165
13.356,-0.210,0.155
13.358,-0.220,0.125
13.361,-0.230,0.140
13.364,-0.230,0.145
13.367,-0.200,0.170
13.369,-0.190,0.155
13.372,-0.210,0.130
13.375,-0.225,0.115
13.378,-0.255,0.125
13.381,-0.230,0.130
13.383,-0.185,0.145
13.386,-0.170,0.155
13.389,-0.200,0.155
13.392,-0.205,0.145
13.394,-0.215,0.130
13.397,-0.210,0.135
13.400,-0.200,0.125
13.403,-0.180,0.115
13.406,-0.170,0.070
13.408,-0.160,0.025
13.411,-0.140,0.015
13.414,-0.060,0.000
13.417,0.040,0.010
13.419,0.130,-0.010
13.422,0.235,-0.025
13.425,0.395,-0.050
13.428,0.575,-0.065
13.431,0.785,-0.110
13.433,0.990,-0.110
13.436,1.165,-0.115
13.439,1.285,-0.090
13.442,1.330,-0.030
13.444,1.275,0.045
13.447,1.095,0.125
13.450,0.835,0.140
13.453,0.535,0.140
13.456,0.195,0.175
13.458,-0.150,0.215
13.461,-0.365,0.270
13.464,-0.410,0.310
13.467,-0.320,0.305
13.469,-0.245,0.245
13.472,-0.210,0.175
13.475,-0.205,0.140
13.478,-0.220,0.140
13.481,-0.240,0.140
13.483,-0.255,0.150
13.486,-0.250,0.150
13.489,-0.265,0.140
13.492,-0.265,0.120
13.494,-0.290,0.115
13.497,-0.280,0.125
13.500,-0.280,0.145
13.503,-0.290,0.130
13.506,-0.295,0.125
13.508,-0.310,0.100
13.511,-0.300,0.105
13.514,-0.300,0.135
13.517,-0.290,0.155
13.519,-0.280,0.140
13.522,-0.300,0.130
13.525,-0.300,0.115
13.528,-0.300,0.105
13.531,-0.310,0.105
13.533,-0.290,0.115
13.536,-0.270,0.105
13.539,-0.265,0.115
13.542,-0.280,0.110
13.544,-0.300,0.110
13.547,-0.285,0.110
13.550,-0.295,0.130
13.553,-0.285,0.140
13.556,-0.300,0.130
13.558,-0.310,0.105
13.561,-0.315,0.095
13.564,-0.310,0.100
13.567,-0.300,0.115
13.569,-0.270,0.135
13.572,-0.270,0.120
13.575,-0.270,0.110
13.578,-0.290,0.100
13.581,-0.290,0.120
13.583,-0.275,0.140
13.586,-0.265,0.150
13.589,-0.285,0.150
13.592,-0.305,0.130
13.594,-0.305,0.100
13.597,-0.305,0.095
13.600,-0.275,0.105
13.603,-0.260,0.095
13.606,-0.260,0.075
13.608,-0.270,0.060
13.611,-0.265,0.055
13.614,-0.265,0.055
13.617,-0.255,0.075
13.619,-0.240,0.070
13.622,-0.235,0.055
13.625,-0.240,0.035
13.628,-0.225,0.050
13.631,-0.215,0.050
13.633,-0.175,0.060
13.636,-0.185,0.035
13.639,-0.185,0.015
13.642,-0.175,0.000
13.644,-0.180,0.010
13.647,-0.180,0.025
13.650,-0.155,0.020
13.653,-0.125,0.010
13.656,-0.115,-0.015
13.658,-0.115,-0.035
13.661,-0.125,-0.035
13.664,-0.085,-0.035
13.667,-0.060,-0.015
13.669,-0.045,-0.035
13.672,-0.040,-0.050
13.675,-0.030,-0.070
13.678,-0.025,-0.070
13.681,-0.025,-0.070
13.683,-0.005,-0.080
13.686,0.020,-0.090
13.689,0.010,-0.105
13.692,-0.005,-0.120
13.694,-0.005,-0.110
13.697,-0.010,-0.095
13.700,0.010,-0.090
13.703,0.015,-0.090
13.706,0.005,-0.095
13.708,0.010,-0.100
13.711,-0.005,-0.100
13.714,-0.025,-0.070
13.717,-0.020,-0.045
13.719,-0.025,-0.040
13.722,-0.040,-0.035
13.725,-0.060,-0.055
13.728,-0.090,-0.055
13.731,-0.085,-0.025
13.733,-0.090,-0.010
13.736,-0.080,-0.005
13.739,-0.110,0.030
13.742,-0.120,0.030
13.744,-0.115,0.055
13.747,-0.135,0.045
13.750,-0.135,0.065
13.753,-0.150,0.070
13.756,-0.170,0.085
13.758,-0.205,0.100
13.761,-0.220,0.100
13.764,-0.235,0.125
13.767,-0.200,0.150
13.769,-0.200,0.145
13.772,-0.185,0.120
13.775,-0.200,0.110
13.778,-0.230,0.125
13.781,-0.230,0.145
13.783,-0.220,0.180
13.786,-0.210,0.165
13.789,-0.235,0.140
13.792,-0.240,0.120
13.794,-0.250,0.130
13.797,-0.245,0.135
13.800,-0.220,0.155
13.803,-0.225,0.165
13.806,-0.235,0.155
13.808,-0.255,0.140
13.811,-0.275,0.145
13.814,-0.280,0.165
13.817,-0.260,0.185
13.819,-0.240,0.175
13.822,-0.255,0.160
13.825,-0.260,0.140
13.828,-0.270,0.145
13.831,-0.275,0.150
13.833,-0.280,0.180
13.836,-0.275,0.185
13.839,-0.260,0.190
13.842,-0.260,0.185
13.844,-0.245,0.185
13.847,-0.240,0.185
13.850,-0.245,0.180
13.853,-0.245,0.175
13.856,-0.255,0.150
13.858,-0.255,0.135
13.861,-0.275,0.115
13.864,-0.285,0.150
13.867,-0.250,0.180
13.869,-0.210,0.190
13.872,-0.220,0.170
13.875,-0.240,0.150
13.878,-0.270,0.160
13.881,-0.270,0.165
13.883,-0.250,0.185
13.886,-0.240,0.170
13.889,-0.230,0.165
13.892,-0.255,0.150
13.894,-0.240,0.145
13.897,-0.230,0.165
13.900,-0.210,0.175
13.903,-0.200,0.170
13.906,-0.210,0.175
13.908,-0.215,0.175
13.911,-0.225,0.150
13.914,-0.225,0.140
13.917,-0.215,0.145
13.919,-0.195,0.155
13.922,-0.200,0.140
13.925,-0.210,0.130
13.928,-0.220,0.155
13.931,-0.200,0.155
13.933,-0.200,0.180
13.936,-0.180,0.170
13.939,-0.185,0.165
13.942,-0.200,0.155
13.944,-0.225,0.140
13.947,-0.210,0.150
13.950,-0.210,0.140
13.953,-0.195,0.155
13.956,-0.205,0.155
13.958,-0.220,0.135
13.961,-0.235,0.140
13.964,-0.245,0.140
13.967,-0.235,0.150
13.969,-0.205,0.130
13.972,-0.225,0.130
13.975,-0.220,0.105
13.978,-0.245,0.135
13.981,-0.230,0.145
13.983,-0.225,0.160
13.986,-0.210,0.165
13.989,-0.235,0.140
13.992,-0.240,0.120
13.994,-0.240,0.095
13.997,-0.250,0.085
14.000,-0.255,0.115
14.003,-0.260,0.125
14.006,-0.250,0.135
14.008,-0.255,0.115
14.011,-0.250,0.105
14.014,-0.255,0.115
14.017,-0.245,0.140
14.019,-0.245,0.135
14.022,-0.240,0.125
14.025,-0.235,0.110
14.028,-0.250,0.110
14.031,-0.245,0.125
14.033,-0.235,0.135
14.036,-0.225,0.145
14.039,-0.215,0.140
14.042,-0.225,0.135
14.044,-0.235,0.135
14.047,-0.230,0.165
14.050,-0.220,0.175
14.053,-0.210,0.155
14.056,-0.215,0.155
14.058,-0.220,0.145
14.061,-0.235,0.135
14.064,-0.225,0.165
14.067,-0.210,0.175
14.069,-0.195,0.165
14.072,-0.185,0.145
14.075,-0.220,0.125
14.078,-0.220,0.125
14.081,-0.205,0.155
14.083,-0.190,0.175
14.086,-0.185,0.165
14.089,-0.185,0.160
14.092,-0.215,0.150
14.094,-0.210,0.145
14.097,-0.210,0.155
14.100,-0.205,0.175
14.103,-0.210,0.150
14.106,-0.215,0.110
14.108,-0.225,0.095
14.111,-0.200,0.090
14.114,-0.130,0.100
14.117,-0.060,0.100
14.119,0.045,0.085
14.122,0.145,0.085
14.125,0.250,0.060
14.128,0.365,0.025
14.131,0.520,0.015
14.133,0.710,-0.005
14.136,0.910,-0.045
14.139,1.105,-0.060
14.142,1.235,-0.045
14.144,1.355,0.020
14.147,1.365,0.120
14.150,1.275,0.195
14.153,1.060,0.200
14.156,0.765,0.175
14.158,0.460,0.170
14.161,0.145,0.215
14.164,-0.180,0.320
14.167,-0.395,0.385
14.169,-0.495,0.405
14.172,-0.460,0.385
14.175,-0.400,0.335
14.178,-0.350,0.270
14.181,-0.315,0.200
14.183,-0.280,0.200
14.186,-0.235,0.150
14.189,-0.250,0.120
14.192,-0.280,0.105
14.194,-0.295,0.100
14.197,-0.285,0.100
14.200,-0.280,0.110
14.203,-0.280,0.110
14.206,-0.300,0.105
14.208,-0.325,0.115
14.211,-0.330,0.115
14.214,-0.325,0.130
14.217,-0.315,0.130
14.219,-0.305,0.135
14.222,-0.300,0.130
14.225,-0.325,0.110
14.228,-0.325,0.120
14.231,-0.315,0.125
14.233,-0.320,0.130
14.236,-0.300,0.145
14.239,-0.300,0.135
14.242,-0.315,0.145
14.244,-0.330,0.130
14.247,-0.325,0.125
14.250,-0.310,0.140
14.253,-0.295,0.125
14.256,-0.315,0.125
14.258,-0.330,0.125
14.261,-0.335,0.130
14.264,-0.320,0.135
14.267,-0.310,0.145
14.269,-0.310,0.130
14.272,-0.320,0.120
14.275,-0.345,0.110
14.278,-0.350,0.105
14.281,-0.340,0.125
14.283,-0.310,0.120
14.286,-0.300,0.090
14.289,-0.300,0.070
14.292,-0.320,0.040
14.294,-0.320,0.035
14.297,-0.325,0.045
14.300,-0.285,0.055
14.303,-0.270,0.070
14.306,-0.265,0.070
14.308,-0.290,0.055
14.311,-0.290,0.050
14.314,-0.295,0.065
14.317,-0.260,0.075
14.319,-0.250,0.075
14.322,-0.255,0.065
14.325,-0.255,0.050
14.328,-0.280,0.050
14.331,-0.280,0.065
14.333,-0.245,0.075
14.336,-0.230,0.060
14.339,-0.215,0.045
14.342,-0.215,0.030
14.344,-0.215,0.025
14.347,-0.205,0.035
14.350,-0.190,0.040
14.353,-0.175,0.030
14.356,-0.190,0.030
14.358,-0.205,0.015
14.361,-0.200,-0.015
14.364,-0.160,-0.020
14.367,-0.140,-0.010
14.369,-0.110,-0.015
14.372,-0.110,-0.045
14.375,-0.105,-0.065
14.378,-0.100,-0.080
14.381,-0.080,-0.075
14.383,-0.050,-0.075
14.386,-0.040,-0.090
14.389,-0.045,-0.110
14.392,-0.060,-0.120
14.394,-0.060,-0.120
14.397,-0.040,-0.115
14.400,-0.045,-0.115
14.403,-0.035,-0.150
14.406,-0.030,-0.160
14.408,-0.055,-0.190
14.411,-0.070,-0.175
14.414,-0.070,-0.175
14.417,-0.020,-0.150
14.419,-0.035,-0.140
14.422,-0.040,-0.135
14.425,-0.030,-0.145
14.428,-0.045,-0.145
14.431,-0.055,-0.125
14.433,-0.045,-0.110
14.436,-0.045,-0.105
14.439,-0.085,-0.090
14.442,-0.100,-0.095
14.444,-0.110,-0.065
14.447,-0.120,-0.045
14.450,-0.125,-0.010
14.453,-0.130,0.015
14.456,-0.165,0.020
14.458,-0.190,0.015
14.461,-0.205,0.030
14.464,-0.200,0.040
14.467,-0.210,0.065
14.469,-0.215,0.070
14.472,-0.245,0.080
14.475,-0.270,0.085
14.478,-0.265,0.105
14.481,-0.255,0.115
14.483,-0.250,0.130
14.486,-0.275,0.135
14.489,-0.295,0.135
14.492,-0.320,0.140
14.494,-0.305,0.135
14.497,-0.290,0.150
14.500,-0.280,0.155
14.503,-0.275,0.160
14.506,-0.270,0.155
14.508,-0.270,0.150
14.511,-0.275,0.165
14.514,-0.275,0.190
14.517,-0.270,0.210
14.519,-0.265,0.200
14.522,-0.270,0.170
14.525,-0.285,0.160
14.528,-0.310,0.145
14.531,-0.305,0.155
14.533,-0.295,0.180
14.536,-0.265,0.170
14.539,-0.270,0.140
14.542,-0.285,0.115
14.544,-0.285,0.110
14.547,-0.275,0.135
14.550,-0.270,0.145
14.553,-0.275,0.145
14.556,-0.275,0.120
14.558,-0.275,0.110
14.561,-0.275,0.110
14.564,-0.265,0.115
14.567,-0.250,0.145
14.569,-0.240,0.140
14.572,-0.255,0.120
14.575,-0.260,0.105
14.578,-0.275,0.120
14.581,-0.270,0.145
14.583,-0.260,0.160
14.586,-0.240,0.160
14.589,-0.240,0.135
14.592,-0.245,0.120
14.594,-0.260,0.135
14.597,-0.260,0.150
14.600,-0.260,0.170
14.603,-0.225,0.150
14.606,-0.235,0.140
14.608,-0.230,0.125
14.611,-0.240,0.115
14.614,-0.245,0.135
14.617,-0.245,0.140
14.619,-0.220,0.150
14.622,-0.240,0.140
14.625,-0.250,0.135
14.628,-0.255,0.150
14.631,-0.255,0.160
14.633,-0.235,0.155
14.636,-0.230,0.145
14.639,-0.230,0.115
14.642,-0.250,0.100
14.644,-0.265,0.100
14.647,-0.240,0.125
14.650,-0.240,0.150
14.653,-0.225,0.135
14.656,-0.225,0.120
14.658,-0.250,0.115
14.661,-0.260,0.115
14.664,-0.255,0.140
14.667,-0.260,0.145
14.669,-0.255,0.135
14.672,-0.255,0.140
14.675,-0.255,0.130
14.678,-0.280,0.155
14.681,-0.270,0.160
14.683,-0.245,0.140
14.686,-0.220,0.125
14.689,-0.220,0.070
14.692,-0.255,0.050
14.694,-0.270,0.060
14.697,-0.265,0.090
14.700,-0.245,0.125
14.703,-0.210,0.130
14.706,-0.230,0.105
14.708,-0.240,0.100
14.711,-0.250,0.105
14.714,-0.245,0.115
14.717,-0.230,0.135
14.719,-0.215,0.140
14.722,-0.220,0.130
14.725,-0.250,0.115
14.728,-0.265,0.125
14.731,-0.250,0.130
14.733,-0.245,0.150
14.736,-0.230,0.145
14.739,-0.225,0.150
14.742,-0.250,0.140
14.744,-0.245,0.150
14.747,-0.250,0.170
14.750,-0.240,0.185
14.753,-0.235,0.190
14.756,-0.245,0.190
14.758,-0.250,0.185
14.761,-0.255,0.180
14.764,-0.245,0.185
14.767,-0.245,0.165
14.769,-0.240,0.120
14.772,-0.235,0.085
14.775,-0.250,0.055
14.778,-0.275,0.065
14.781,-0.280,0.075
14.783,-0.265,0.100
14.786,-0.250,0.100
14.789,-0.255,0.100
14.792,-0.270,0.080
14.794,-0.290,0.080
14.797,-0.275,0.095
14.800,-0.265,0.110
14.803,-0.240,0.105
14.806,-0.230,0.100
14.808,-0.230,0.095
14.811,-0.250,0.095
14.814,-0.245,0.115
14.817,-0.235,0.130
14.819,-0.215,0.135
14.822,-0.225,0.115
14.825,-0.245,0.095
14.828,-0.265,0.075
14.831,-0.260,0.095
14.833,-0.235,0.115
14.836,-0.200,0.115
14.839,-0.185,0.085
14.842,-0.165,0.060
14.844,-0.125,0.045
14.847,-0.075,0.050
14.850,0.020,0.060
14.853,0.100,0.050
14.856,0.210,0.040
14.858,0.345,0.025
14.861,0.500,0.005
14.864,0.695,-0.025
14.867,0.915,-0.045
14.869,1.115,-0.050
14.872,1.290,-0.040
14.875,1.400,0.015
14.878,1.385,0.095
14.881,1.270,0.160
14.883,1.045,0.195
14.886,0.730,0.165
14.889,0.435,0.185
14.892,0.105,0.215
14.894,-0.180,0.255
14.897,-0.370,0.290
14.900,-0.405,0.305
14.903,-0.355,0.290
14.906,-0.305,0.225
14.908,-0.285,0.170
14.911,-0.275,0.145
14.914,-0.275,0.140
14.917,-0.275,0.140
14.919,-0.280,0.125
14.922,-0.300,0.135
14.925,-0.310,0.110
14.928,-0.320,0.095
14.931,-0.300,0.080
14.933,-0.295,0.100
14.936,-0.290,0.115
14.939,-0.330,0.095
14.942,-0.340,0.085
14.944,-0.330,0.085
14.947,-0.330,0.110
14.950,-0.305,0.125
14.953,-0.320,0.120
14.956,-0.315,0.120
14.958,-0.325,0.105
14.961,-0.330,0.115
14.964,-0.330,0.135
14.967,-0.325,0.140
14.969,-0.315,0.145
14.972,-0.325,0.140
14.975,-0.325,0.130
14.978,-0.340,0.125
14.981,-0.315,0.125
14.983,-0.325,0.135
14.986,-0.310,0.125
14.989,-0.345,0.120
14.992,-0.355,0.095
14.994,-0.365,0.105
14.997,-0.355,0.115
15.000,-0.330,0.135
15.003,-0.315,0.135
15.006,-0.320,0.110
15.008,-0.340,0.105
15.011,-0.335,0.105
15.014,-0.335,0.105
15.017,-0.330,0.100
15.019,-0.320,0.110
15.022,-0.320,0.105
15.025,-0.345,0.070
15.028,-0.325,0.060
15.031,-0.310,0.045
15.033,-0.305,0.075
15.036,-0.290,0.075
15.039,-0.310,0.080
15.042,-0.310,0.075
15.044,-0.325,0.080
15.047,-0.335,0.095
15.050,-0.320,0.115
15.053,-0.295,0.100
15.056,-0.310,0.065
15.058,-0.315,0.060
15.061,-0.310,0.050
15.064,-0.305,0.060
15.067,-0.255,0.060
15.069,-0.255,0.065
15.072,-0.260,0.050
15.075,-0.275,0.050
15.078,-0.260,0.060
15.081,-0.245,0.060
15.083,-0.225,0.075
15.086,-0.220,0.050
15.089,-0.205,0.050
15.092,-0.220,0.025
15.094,-0.225,0.025
15.097,-0.205,0.030
15.100,-0.180,0.045
15.103,-0.170,0.025
15.106,-0.155,0.010
15.108,-0.165,-0.005
15.111,-0.160,-0.010
15.114,-0.160,0.005
15.117,-0.130,0.010
15.119,-0.115,0.020
15.122,-0.105,-0.010
15.125,-0.095,-0.045
15.128,-0.120,-0.050
15.131,-0.110,-0.045
15.133,-0.095,-0.045
15.136,-0.075,-0.045
15.139,-0.090,-0.060
15.142,-0.080,-0.080
15.144,-0.080,-0.070
15.147,-0.055,-0.070
15.150,-0.050,-0.055
15.153,-0.030,-0.050
15.156,-0.035,-0.070
15.158,-0.035,-0.100
15.161,-0.045,-0.115
15.164,-0.050,-0.125
15.167,-0.035,-0.120
15.169,-0.050,-0.105
15.172,-0.065,-0.100
15.175,-0.080,-0.100
15.178,-0.105,-0.090
15.181,-0.095,-0.080
15.183,-0.085,-0.055
15.186,-0.080,-0.065
15.189,-0.090,-0.055
15.192,-0.115,-0.060
15.194,-0.155,-0.030
15.197,-0.170,-0.010
15.200,-0.165,0.020
15.203,-0.175,0.020
15.206,-0.185,0.015
15.208,-0.210,0.010
15.211,-0.225,0.035
15.214,-0.235,0.055
15.217,-0.210,0.075
15.219,-0.200,0.085
15.222,-0.205,0.070
15.225,-0.225,0.065
15.228,-0.255,0.085
15.231,-0.250,0.105
15.233,-0.235,0.120
15.236,-0.225,0.110
15.239,-0.245,0.115
15.242,-0.260,0.110
15.244,-0.270,0.115
15.247,-0.250,0.125
15.250,-0.250,0.145
15.253,-0.225,0.135
15.256,-0.255,0.120
15.258,-0.265,0.115
15.261,-0.285,0.145
15.264,-0.280,0.175
15.267,-0.245,0.190
15.269,-0.230,0.195
15.272,-0.235,0.165
15.275,-0.255,0.150
15.278,-0.270,0.150
15.281,-0.265,0.150
15.283,-0.250,0.165
15.286,-0.235,0.165
15.289,-0.250,0.155
15.292,-0.250,0.140
15.294,-0.245,0.135
15.297,-0.225,0.135
15.300,-0.205,0.135
15.303,-0.170,0.130
15.306,-0.170,0.130
15.308,-0.170,0.120
15.311,-0.175,0.135
15.314,-0.125,0.165
15.317,-0.120,0.180
15.319,-0.095,0.175
15.322,-0.095,0.170
15.325,-0.080,0.160
15.328,-0.055,0.155
15.331,0.005,0.155
15.333,0.090,0.140
15.336,0.155,0.075
15.339,0.210,0.020
15.342,0.250,-0.070
15.344,0.295,-0.120
15.347,0.350,-0.165
15.350,0.425,-0.210
15.353,0.490,-0.260
15.356,0.550,-0.325
15.358,0.600,-0.405
15.361,0.660,-0.480
15.364,0.755,-0.580
15.367,0.850,-0.655
15.369,0.940,-0.715
15.372,1.010,-0.780
15.375,1.045,-0.845
15.378,1.055,-0.895
15.381,1.025,-0.895
15.383,1.035,-0.885
15.386,1.020,-0.870
15.389,1.015,-0.875
15.392,0.985,-0.895
15.394,0.930,-0.875
15.397,0.855,-0.835
15.400,0.780,-0.800
15.403,0.675,-0.780
15.406,0.535,-0.740
15.408,0.415,-0.700
15.411,0.320,-0.645
15.414,0.235,-0.585
15.417,0.165,-0.530
15.419,0.115,-0.470
15.422,0.065,-0.415
15.425,0.005,-0.375
15.428,-0.005,-0.365
15.431,-0.005,-0.350
15.433,-0.020,-0.310
15.436,-0.015,-0.260
15.439,0.000,-0.225
15.442,0.035,-0.180
15.444,0.095,-0.145
15.447,0.175,-0.095
15.450,0.240,-0.070
15.453,0.230,-0.060
15.456,0.160,-0.060
15.458,0.010,-0.065
15.461,-0.160,-0.035
15.464,-0.295,0.020
15.467,-0.365,0.065
15.469,-0.415,0.100
15.472,-0.450,0.150
15.475,-0.495,0.190
15.478,-0.500,0.220
15.481,-0.525,0.240
15.483,-0.535,0.265
15.486,-0.535,0.265
15.489,-0.560,0.265
15.492,-0.595,0.270
15.494,-0.595,0.270
15.497,-0.605,0.295
15.500,-0.615,0.330
15.503,-0.635,0.340
15.506,-0.640,0.335
15.508,-0.665,0.340
15.511,-0.675,0.330
15.514,-0.665,0.375
15.517,-0.665,0.395
15.519,-0.665,0.405
15.522,-0.705,0.395
15.525,-0.720,0.385
15.528,-0.725,0.395
15.531,-0.715,0.405
15.533,-0.695,0.425
15.536,-0.675,0.420
15.539,-0.690,0.410
15.542,-0.710,0.410
15.544,-0.735,0.410
15.547,-0.735,0.440
15.550,-0.725,0.455
15.553,-0.735,0.455
15.556,-0.745,0.445
15.558,-0.770,0.430
15.561,-0.770,0.460
15.564,-0.765,0.470
15.567,-0.775,0.485
15.569,-0.775,0.485
15.572,-0.800,0.490
15.575,-0.805,0.480
15.578,-0.815,0.490
15.581,-0.780,0.510
15.583,-0.770,0.520
15.586,-0.770,0.520
15.589,-0.790,0.515
15.592,-0.790,0.520
15.594,-0.790,0.540
15.597,-0.780,0.560
15.600,-0.765,0.570
15.603,-0.780,0.575
15.606,-0.800,0.575
15.608,-0.795,0.570
15.611,-0.800,0.565
15.614,-0.775,0.590
15.617,-0.765,0.615
15.619,-0.755,0.605
15.622,-0.780,0.600
15.625,-0.800,0.600
15.628,-0.795,0.625
15.631,-0.795,0.650
15.633,-0.770,0.655
15.636,-0.765,0.635
15.639,-0.750,0.625
15.642,-0.775,0.610
15.644,-0.785,0.640
15.647,-0.755,0.660
15.650,-0.720,0.670
15.653,-0.725,0.655
15.656,-0.715,0.630
15.658,-0.740,0.605
15.661,-0.720,0.595
15.664,-0.670,0.605
15.667,-0.640,0.605
15.669,-0.610,0.585
15.672,-0.590,0.560
15.675,-0.595,0.540
15.678,-0.590,0.530
15.681,-0.575,0.545
15.683,-0.530,0.540
15.686,-0.505,0.525
15.689,-0.495,0.485
15.692,-0.500,0.470
15.694,-0.475,0.445
15.697,-0.450,0.445
15.700,-0.405,0.445
15.703,-0.390,0.420
15.706,-0.385,0.395
15.708,-0.395,0.360
15.711,-0.385,0.360
15.714,-0.350,0.360
15.717,-0.345,0.340
15.719,-0.330,0.305
15.722,-0.320,0.285
15.725,-0.345,0.250
15.728,-0.335,0.235
15.731,-0.330,0.230
15.733,-0.315,0.230
15.736,-0.335,0.220
15.739,-0.320,0.200
15.742,-0.315,0.170
15.744,-0.315,0.175
15.747,-0.310,0.185
15.750,-0.295,0.200
15.753,-0.290,0.180
15.756,-0.285,0.175
15.758,-0.300,0.155
15.761,-0.300,0.155
15.764,-0.305,0.160
15.767,-0.290,0.150
15.769,-0.300,0.120
15.772,-0.310,0.110
15.775,-0.300,0.095
15.778,-0.310,0.110
15.781,-0.310,0.130
15.783,-0.300,0.155
15.786,-0.300,0.160
15.789,-0.300,0.155
15.792,-0.305,0.130
15.794,-0.305,0.120
15.797,-0.300,0.125
15.800,-0.285,0.140
15.803,-0.280,0.125
15.806,-0.310,0.105
15.808,-0.325,0.095
15.811,-0.330,0.105
15.814,-0.300,0.130
15.817,-0.285,0.135
15.819,-0.270,0.125
15.822,-0.280,0.110
15.825,-0.295,0.090
15.828,-0.290,0.085
15.831,-0.285,0.095
15.833,-0.275,0.105
15.836,-0.275,0.100
15.839,-0.285,0.080
15.842,-0.285,0.085
15.844,-0.280,0.080
15.847,-0.260,0.085
15.850,-0.260,0.095
15.853,-0.235,0.090
15.856,-0.250,0.075
15.858,-0.255,0.070
15.861,-0.250,0.075
15.864,-0.250,0.085
15.867,-0.225,0.110
15.869,-0.225,0.100
15.872,-0.240,0.075
15.875,-0.275,0.075
15.878,-0.275,0.075
15.881,-0.255,0.075
15.883,-0.240,0.090
15.886,-0.235,0.100
15.889,-0.255,0.085
15.892,-0.290,0.100
15.894,-0.275,0.085
15.897,-0.240,0.110
15.900,-0.230,0.105
15.903,-0.225,0.080
15.906,-0.240,0.050
15.908,-0.280,0.035
15.911,-0.280,0.060
15.914,-0.240,0.075
15.917,-0.230,0.090
15.919,-0.230,0.090
15.922,-0.235,0.085
15.925,-0.260,0.090
15.928,-0.260,0.085
15.931,-0.240,0.075
15.933,-0.240,0.060
15.936,-0.240,0.045
15.939,-0.250,0.045
15.942,-0.255,0.030
15.944,-0.265,0.040
15.947,-0.250,0.065
15.950,-0.235,0.085
15.953,-0.240,0.085
15.956,-0.245,0.080
15.958,-0.260,0.085
15.961,-0.275,0.100
15.964,-0.275,0.105
15.967,-0.270,0.120
15.969,-0.265,0.105
15.972,-0.265,0.085
15.975,-0.280,0.050
15.978,-0.280,0.050
15.981,-0.285,0.070
15.983,-0.270,0.085
15.986,-0.255,0.090
15.989,-0.270,0.075
15.992,-0.285,0.070
15.994,-0.290,0.085
15.997,-0.280,0.115
16.000,-0.280,0.130
16.003,-0.270,0.095
16.006,-0.285,0.070
16.008,-0.300,0.045
16.011,-0.300,0.055
16.014,-0.285,0.075
16.017,-0.265,0.105
16.019,-0.255,0.105
16.022,-0.240,0.095
16.025,-0.250,0.090
16.028,-0.285,0.080
16.031,-0.275,0.080
16.033,-0.265,0.105
16.036,-0.245,0.120
16.039,-0.265,0.130
16.042,-0.280,0.130
16.044,-0.280,0.120
16.047,-0.260,0.120
16.050,-0.255,0.120
16.053,-0.250,0.105
16.056,-0.280,0.090
16.058,-0.295,0.080
16.061,-0.310,0.085
16.064,-0.285,0.100
16.067,-0.270,0.090
16.069,-0.260,0.085
16.072,-0.270,0.065
16.075,-0.275,0.055
16.078,-0.280,0.060
16.081,-0.255,0.070
16.083,-0.255,0.090
16.086,-0.275,0.070
16.089,-0.265,0.065
16.092,-0.285,0.055
16.094,-0.290,0.065
16.097,-0.295,0.075
16.100,-0.265,0.090
16.103,-0.250,0.075
16.106,-0.245,0.070
16.108,-0.260,0.060
16.111,-0.265,0.070
16.114,-0.260,0.075
16.117,-0.270,0.085
16.119,-0.265,0.085
16.122,-0.245,0.065
16.125,-0.270,0.060
16.128,-0.275,0.065
16.131,-0.265,0.085
16.133,-0.250,0.115
16.136,-0.245,0.110
16.139,-0.235,0.110
16.142,-0.250,0.095
16.144,-0.245,0.095
16.147,-0.255,0.115
16.150,-0.235,0.120
16.153,-0.225,0.110
16.156,-0.245,0.080
16.158,-0.250,0.070
16.161,-0.260,0.075
16.164,-0.255,0.090
16.167,-0.235,0.105
16.169,-0.225,0.095
16.172,-0.230,0.090
16.175,-0.250,0.080
16.178,-0.250,0.100
16.181,-0.225,0.110
16.183,-0.210,0.120
16.186,-0.195,0.125
16.189,-0.225,0.120
16.192,-0.235,0.135
16.194,-0.240,0.120
16.197,-0.225,0.120
16.200,-0.225,0.125
16.203,-0.190,0.105
16.206,-0.180,0.075
16.208,-0.170,0.055
16.211,-0.155,0.045
16.214,-0.115,0.025
16.217,-0.045,0.035
16.219,0.035,0.015
16.222,0.135,-0.015
16.225,0.240,-0.020
16.228,0.360,-0.050
16.231,0.515,-0.055
16.233,0.685,-0.075
16.236,0.865,-0.105
16.239,1.025,-0.120
16.242,1.165,-0.110
16.244,1.275,-0.050
16.247,1.355,0.010
16.250,1.340,0.070
16.253,1.210,0.100
16.256,0.990,0.085
16.258,0.715,0.055
16.261,0.455,0.070
16.264,0.175,0.115
16.267,-0.065,0.140
16.269,-0.280,0.160
16.272,-0.390,0.180
16.275,-0.440,0.185
16.278,-0.375,0.175
16.281,-0.320,0.170
16.283,-0.270,0.135
16.286,-0.255,0.100
16.289,-0.265,0.070
16.292,-0.290,0.050
16.294,-0.295,0.050
16.297,-0.305,0.070
16.300,-0.290,0.075
16.303,-0.290,0.050
16.306,-0.290,0.040
16.308,-0.315,0.035
16.311,-0.330,0.060
16.314,-0.315,0.075
16.317,-0.315,0.080
16.319,-0.310,0.085
16.322,-0.325,0.070
16.325,-0.315,0.050
16.328,-0.325,0.070
16.331,-0.305,0.080
16.333,-0.295,0.115
16.336,-0.290,0.125
16.339,-0.310,0.120
16.342,-0.305,0.085
16.344,-0.325,0.080
16.347,-0.300,0.075
16.350,-0.285,0.075
16.353,-0.285,0.090
16.356,-0.320,0.075
16.358,-0.330,0.070
16.361,-0.315,0.080
16.364,-0.305,0.105
16.367,-0.310,0.110
16.369,-0.295,0.100
16.372,-0.290,0.070
16.375,-0.330,0.050
16.378,-0.345,0.075
16.381,-0.330,0.095
16.383,-0.310,0.105
16.386,-0.290,0.085
16.389,-0.300,0.060
16.392,-0.320,0.045
16.394,-0.325,0.055
16.397,-0.325,0.070
16.400,-0.315,0.090
16.403,-0.310,0.090
16.406,-0.310,0.085
16.408,-0.310,0.060
16.411,-0.315,0.060
16.414,-0.320,0.080
16.417,-0.300,0.085
16.419,-0.295,0.075
16.422,-0.310,0.070
16.425,-0.320,0.055
16.428,-0.315,0.065
16.431,-0.305,0.080
16.433,-0.290,0.075
16.436,-0.280,0.050
16.439,-0.280,0.040
16.442,-0.300,0.025
16.444,-0.305,0.020
16.447,-0.280,0.035
16.450,-0.265,0.055
16.453,-0.265,0.065
16.456,-0.270,0.050
16.458,-0.280,0.050
16.461,-0.265,0.060
16.464,-0.260,0.065
16.467,-0.225,0.070
16.469,-0.220,0.040
16.472,-0.225,0.025
16.475,-0.225,0.010
16.478,-0.235,-0.005
16.481,-0.215,0.000
16.483,-0.190,-0.005
16.486,-0.175,-0.015
16.489,-0.180,-0.040
16.492,-0.175,-0.055
16.494,-0.175,-0.060
16.497,-0.150,-0.050
16.500,-0.125,-0.055
16.503,-0.100,-0.060
16.506,-0.125,-0.080
16.508,-0.145,-0.100
16.511,-0.130,-0.115
16.514,-0.125,-0.120
16.517,-0.105,-0.115
16.519,-0.075,-0.145
16.522,-0.085,-0.145
16.525,-0.090,-0.160
16.528,-0.100,-0.155
16.531,-0.090,-0.130
16.533,-0.075,-0.135
16.536,-0.065,-0.130
16.539,-0.065,-0.135
16.542,-0.065,-0.150
16.544,-0.060,-0.160
16.547,-0.055,-0.165
16.550,-0.050,-0.145
16.553,-0.055,-0.150
16.556,-0.065,-0.145
16.558,-0.065,-0.150
16.561,-0.060,-0.145
16.564,-0.065,-0.135
16.567,-0.050,-0.110
16.569,-0.050,-0.095
16.572,-0.075,-0.085
16.575,-0.105,-0.065
16.578,-0.115,-0.035
16.581,-0.130,-0.015
16.583,-0.115,0.015
16.586,-0.125,0.015
16.589,-0.150,-0.015
16.592,-0.160,-0.010
16.594,-0.175,0.010
16.597,-0.165,0.045
16.600,-0.180,0.080
16.603,-0.170,0.090
16.606,-0.205,0.075
16.608,-0.230,0.065
16.611,-0.255,0.065
16.614,-0.235,0.090
16.617,-0.230,0.100
16.619,-0.215,0.090
16.622,-0.255,0.090
16.625,-0.295,0.095
16.628,-0.280,0.115
16.631,-0.265,0.130
16.633,-0.255,0.140
16.636,-0.250,0.130
16.639,-0.255,0.115
16.642,-0.270,0.115
16.644,-0.285,0.120
16.647,-0.270,0.145
16.650,-0.245,0.150
16.653,-0.240,0.145
16.656,-0.250,0.125
16.658,-0.255,0.120
16.661,-0.265,0.125
16.664,-0.245,0.135
16.667,-0.230,0.160
16.669,-0.235,0.150
16.672,-0.230,0.145
16.675,-0.265,0.120
16.678,-0.250,0.105
16.681,-0.260,0.115
16.683,-0.240,0.120
16.686,-0.260,0.110
16.689,-0.250,0.135
16.692,-0.255,0.125
16.694,-0.255,0.130
16.697,-0.240,0.135
16.700,-0.245,0.130
16.703,-0.230,0.125
16.706,-0.235,0.100
16.708,-0.235,0.100
16.711,-0.235,0.130
16.714,-0.225,0.150
16.717,-0.215,0.145
16.719,-0.205,0.135
16.722,-0.205,0.120
16.725,-0.230,0.110
16.728,-0.230,0.105
16.731,-0.225,0.125
16.733,-0.205,0.135
16.736,-0.205,0.125
16.739,-0.225,0.120
16.742,-0.240,0.090
16.744,-0.245,0.085
16.747,-0.235,0.085
16.750,-0.215,0.090
16.753,-0.210,0.080
16.756,-0.220,0.055
16.758,-0.230,0.055
16.761,-0.230,0.050
16.764,-0.225,0.065
16.767,-0.210,0.085
16.769,-0.205,0.095
16.772,-0.220,0.080
16.775,-0.250,0.065
16.778,-0.250,0.055
16.781,-0.255,0.060
16.783,-0.225,0.070
16.786,-0.200,0.065
16.789,-0.210,0.065
16.792,-0.220,0.060
16.794,-0.235,0.065
16.797,-0.230,0.080
16.800,-0.215,0.100
16.803,-0.215,0.075
16.806,-0.210,0.070
16.808,-0.220,0.055
16.811,-0.235,0.065
16.814,-0.225,0.090
16.817,-0.220,0.115
16.819,-0.225,0.110
16.822,-0.235,0.110
16.825,-0.250,0.075
16.828,-0.245,0.075
16.831,-0.220,0.075
16.833,-0.210,0.085
16.836,-0.205,0.085
16.839,-0.215,0.085
16.842,-0.230,0.090
16.844,-0.235,0.130
16.847,-0.225,0.140
16.850,-0.225,0.140
16.853,-0.225,0.125
16.856,-0.215,0.105
16.858,-0.235,0.080
16.861,-0.235,0.075
16.864,-0.235,0.070
16.867,-0.225,0.075
16.869,-0.240,0.070
16.872,-0.250,0.065
16.875,-0.240,0.050
16.878,-0.245,0.065
16.881,-0.230,0.080
16.883,-0.235,0.080
16.886,-0.220,0.095
16.889,-0.210,0.085
16.892,-0.225,0.080
16.894,-0.240,0.095
16.897,-0.240,0.090
16.900,-0.240,0.090
16.903,-0.225,0.065
16.906,-0.220,0.045
16.908,-0.210,0.025
16.911,-0.165,0.020
16.914,-0.110,0.010
16.917,-0.010,0.030
16.919,0.080,0.000
16.922,0.170,0.015
16.925,0.305,0.005
16.928,0.485,0.000
16.931,0.710,-0.025
16.933,0.935,-0.035
16.936,1.170,-0.060
16.939,1.345,-0.045
16.942,1.420,-0.010
16.944,1.390,0.060
16.947,1.235,0.115
16.950,0.990,0.125
16.953,0.685,0.120
16.956,0.345,0.125
16.958,0.025,0.180
16.961,-0.255,0.240
16.964,-0.425,0.300
16.967,-0.445,0.300
16.969,-0.400,0.265
16.972,-0.355,0.195
16.975,-0.320,0.145
16.978,-0.300,0.095
16.981,-0.285,0.090
16.983,-0.270,0.090
16.986,-0.265,0.075
16.989,-0.265,0.050
16.992,-0.285,0.050
16.994,-0.285,0.050
16.997,-0.310,0.060
17.000,-0.305,0.090
17.003,-0.305,0.090
17.006,-0.315,0.080
17.008,-0.330,0.060
17.011,-0.340,0.040
17.014,-0.365,0.055
17.017,-0.340,0.075
17.019,-0.335,0.070
17.022,-0.340,0.060
17.025,-0.340,0.040
17.028,-0.335,0.045
17.031,-0.335,0.065
17.033,-0.325,0.085
17.036,-0.330,0.090
17.039,-0.345,0.085
17.042,-0.360,0.080
17.044,-0.370,0.070
17.047,-0.345,0.060
17.050,-0.350,0.055
17.053,-0.340,0.035
17.056,-0.355,0.035
17.058,-0.370,0.025
17.061,-0.365,0.045
17.064,-0.360,0.065
17.067,-0.345,0.075
17.069,-0.340,0.080
17.072,-0.360,0.060
17.075,-0.360,0.070
17.078,-0.380,0.080
17.081,-0.375,0.095
17.083,-0.365,0.100
17.086,-0.365,0.090
17.089,-0.370,0.060
17.092,-0.375,0.040
17.094,-0.380,0.055
17.097,-0.360,0.080
17.100,-0.360,0.105
17.103,-0.355,0.105
17.106,-0.365,0.080
17.108,-0.355,0.070
17.111,-0.370,0.060
17.114,-0.360,0.055
