'Elapsed time','MLII','V1'
'seconds','mV','mV'
0.000,-0.155,-0.095
0.003,-0.155,-0.095
0.006,-0.155,-0.095
0.008,-0.155,-0.095
0.011,-0.155,-0.095
0.014,-0.155,-0.095
0.017,-0.155,-0.095
0.019,-0.155,-0.095
0.022,-0.170,-0.105
0.025,-0.175,-0.130
0.028,-0.195,-0.140
0.031,-0.220,-0.125
0.033,-0.210,-0.085
0.036,-0.215,-0.055
0.039,-0.240,-0.030
0.042,-0.260,-0.030
0.044,-0.265,-0.035
0.047,-0.270,-0.055
0.050,-0.280,-0.065
0.053,-0.290,-0.070
0.056,-0.285,-0.060
0.058,-0.300,-0.045
0.061,-0.305,-0.050
0.064,-0.320,-0.060
0.067,-0.345,-0.015
0.069,-0.340,0.015
0.072,-0.325,0.060
0.075,-0.305,0.075
0.078,-0.305,0.050
0.081,-0.310,0.015
0.083,-0.320,0.000
0.086,-0.320,0.040
0.089,-0.310,0.080
0.092,-0.315,0.100
0.094,-0.340,0.095
0.097,-0.360,0.060
0.100,-0.375,0.070
0.103,-0.355,0.080
0.106,-0.350,0.100
0.108,-0.335,0.095
0.111,-0.345,0.060
0.114,-0.365,0.045
0.117,-0.400,0.050
0.119,-0.400,0.075
0.122,-0.365,0.070
0.125,-0.370,0.055
0.128,-0.340,0.045
0.131,-0.355,0.045
0.133,-0.350,0.045
0.136,-0.355,0.040
0.139,-0.370,0.035
0.142,-0.370,0.025
0.144,-0.355,0.020
0.147,-0.350,0.000
0.150,-0.355,0.000
0.153,-0.355,0.005
0.156,-0.375,0.005
0.158,-0.385,0.020
0.161,-0.405,0.015
0.164,-0.435,0.025
0.167,-0.415,0.005
0.169,-0.355,-0.005
0.172,-0.300,-0.010
0.175,-0.275,-0.005
0.178,-0.275,-0.005
0.181,-0.270,0.010
0.183,-0.270,0.035
0.186,-0.265,0.075
0.189,-0.265,0.085
0.192,-0.260,0.085
0.194,-0.250,0.065
0.197,-0.235,0.025
0.200,-0.210,0.015
0.203,-0.180,0.010
0.206,-0.165,0.030
0.208,-0.180,0.055
0.211,-0.190,0.070
0.214,-0.190,0.065
0.217,-0.175,0.055
0.219,-0.165,0.035
0.222,-0.160,-0.015
0.225,-0.180,-0.105
0.228,-0.230,-0.170
0.231,-0.280,-0.180
0.233,-0.310,-0.145
0.236,-0.330,-0.125
0.239,-0.325,-0.125
0.242,-0.330,-0.125
0.244,-0.335,-0.170
0.247,-0.340,-0.195
0.250,-0.345,-0.215
0.253,-0.330,-0.220
0.256,-0.350,-0.210
0.258,-0.355,-0.200
0.261,-0.385,-0.220
0.264,-0.405,-0.210
0.267,-0.430,-0.195
0.269,-0.430,-0.160
0.272,-0.400,-0.145
0.275,-0.400,-0.170
0.278,-0.390,-0.185
0.281,-0.380,-0.200
0.283,-0.370,-0.210
0.286,-0.355,-0.230
0.289,-0.365,-0.215
0.292,-0.345,-0.195
0.294,-0.345,-0.230
0.297,-0.390,-0.270
0.300,-0.410,-0.290
0.303,-0.415,-0.275
0.306,-0.425,-0.255
0.308,-0.390,-0.240
0.311,-0.385,-0.245
0.314,-0.395,-0.240
0.317,-0.410,-0.250
0.319,-0.405,-0.255
0.322,-0.435,-0.240
0.325,-0.435,-0.240
0.328,-0.410,-0.215
0.331,-0.380,-0.200
0.333,-0.370,-0.175
0.336,-0.360,-0.155
0.339,-0.360,-0.130
0.342,-0.390,-0.130
0.344,-0.390,-0.125
0.347,-0.375,-0.095
0.350,-0.345,-0.070
0.353,-0.325,-0.070
0.356,-0.330,-0.075
0.358,-0.335,-0.090
0.361,-0.335,-0.115
0.364,-0.360,-0.085
0.367,-0.370,-0.065
0.369,-0.350,-0.040
0.372,-0.290,-0.050
0.375,-0.230,-0.080
0.378,-0.185,-0.075
0.381,-0.205,-0.085
0.383,-0.265,-0.055
0.386,-0.285,-0.015
0.389,-0.270,-0.005
0.392,-0.280,-0.030
0.394,-0.315,-0.060
0.397,-0.365,-0.070
0.400,-0.405,-0.070
0.403,-0.430,-0.185
0.406,-0.445,-0.480
0.408,-0.450,-0.865
0.411,-0.415,-1.255
0.414,-0.375,-1.690
0.417,-0.290,-2.160
0.419,-0.225,-2.570
0.422,-0.165,-2.850
0.425,-0.140,-2.945
0.428,-0.130,-2.940
0.431,-0.115,-2.830
0.433,-0.040,-2.520
0.436,0.175,-1.925
0.439,0.425,-1.290
0.442,0.565,-0.655
0.444,0.550,-0.080
0.447,0.440,0.020
0.450,0.330,0.040
0.453,0.225,0.065
0.456,0.105,0.090
0.458,-0.005,0.120
0.461,-0.085,0.150
0.464,-0.175,0.170
0.467,-0.210,0.180
0.469,-0.225,0.195
0.472,-0.220,0.160
0.475,-0.235,0.130
0.478,-0.235,0.135
0.481,-0.235,0.165
0.483,-0.210,0.235
0.486,-0.180,0.275
0.489,-0.200,0.250
0.492,-0.185,0.220
0.494,-0.225,0.200
0.497,-0.245,0.185
0.500,-0.255,0.190
0.503,-0.260,0.210
0.506,-0.245,0.215
0.508,-0.235,0.220
0.511,-0.230,0.210
0.514,-0.225,0.190
0.517,-0.225,0.180
0.519,-0.240,0.190
0.522,-0.225,0.175
0.525,-0.210,0.175
0.528,-0.210,0.205
0.531,-0.200,0.225
0.533,-0.190,0.220
0.536,-0.165,0.215
0.539,-0.150,0.200
0.542,-0.170,0.185
0.544,-0.195,0.175
0.547,-0.200,0.155
0.550,-0.205,0.165
0.553,-0.175,0.190
0.556,-0.150,0.195
0.558,-0.130,0.200
0.561,-0.120,0.200
0.564,-0.120,0.205
0.567,-0.145,0.205
0.569,-0.140,0.210
0.572,-0.115,0.210
0.575,-0.115,0.200
0.578,-0.105,0.180
0.581,-0.110,0.160
0.583,-0.110,0.180
0.586,-0.100,0.175
0.589,-0.100,0.160
0.592,-0.115,0.150
0.594,-0.115,0.130
0.597,-0.105,0.135
0.600,-0.075,0.135
0.603,-0.045,0.140
0.606,-0.030,0.100
0.608,-0.020,0.080
0.611,-0.025,0.035
0.614,-0.060,-0.005
0.617,-0.075,-0.030
0.619,-0.065,-0.005
0.622,-0.060,-0.020
0.625,-0.055,-0.015
0.628,-0.010,-0.035
0.631,0.010,-0.030
0.633,0.005,-0.025
0.636,-0.010,-0.020
0.639,-0.005,-0.035
0.642,-0.015,-0.050
0.644,-0.010,-0.075
0.647,-0.020,-0.120
0.650,-0.005,-0.150
0.653,0.010,-0.150
0.656,-0.010,-0.145
0.658,-0.010,-0.160
0.661,0.000,-0.180
0.664,-0.025,-0.210
0.667,-0.045,-0.190
0.669,-0.055,-0.175
0.672,-0.025,-0.185
0.675,0.000,-0.205
0.678,0.010,-0.225
0.681,0.000,-0.235
0.683,-0.035,-0.240
0.686,-0.045,-0.235
0.689,-0.075,-0.200
0.692,-0.130,-0.195
0.694,-0.135,-0.195
0.697,-0.110,-0.215
0.700,-0.105,-0.205
0.703,-0.095,-0.190
0.706,-0.130,-0.165
0.708,-0.175,-0.170
0.711,-0.200,-0.185
0.714,-0.220,-0.220
0.717,-0.245,-0.205
0.719,-0.240,-0.170
0.722,-0.225,-0.145
0.725,-0.230,-0.135
0.728,-0.235,-0.135
0.731,-0.245,-0.145
0.733,-0.265,-0.135
0.736,-0.290,-0.130
0.739,-0.310,-0.105
0.742,-0.305,-0.105
0.744,-0.320,-0.110
0.747,-0.310,-0.095
0.750,-0.295,-0.075
0.753,-0.275,-0.045
0.756,-0.290,-0.025
0.758,-0.320,-0.030
0.761,-0.350,-0.060
0.764,-0.350,-0.075
0.767,-0.355,-0.060
0.769,-0.340,-0.035
0.772,-0.345,-0.005
0.775,-0.320,-0.005
0.778,-0.340,-0.010
0.781,-0.375,-0.015
0.783,-0.375,-0.005
0.786,-0.375,0.030
0.789,-0.345,0.040
0.792,-0.340,0.040
0.794,-0.340,0.035
0.797,-0.365,0.025
0.800,-0.380,0.030
0.803,-0.405,0.060
0.806,-0.415,0.075
0.808,-0.410,0.090
0.811,-0.410,0.065
0.814,-0.435,0.035
0.817,-0.435,0.040
0.819,-0.415,0.080
0.822,-0.400,0.105
0.825,-0.385,0.120
0.828,-0.400,0.105
0.831,-0.420,0.065
0.833,-0.450,0.030
0.836,-0.455,0.050
0.839,-0.465,0.075
0.842,-0.460,0.095
0.844,-0.450,0.070
0.847,-0.425,0.045
0.850,-0.415,0.055
0.853,-0.400,0.070
0.856,-0.395,0.080
0.858,-0.410,0.075
0.861,-0.425,0.040
0.864,-0.450,0.020
0.867,-0.455,0.025
0.869,-0.440,0.025
0.872,-0.425,0.020
0.875,-0.415,0.020
0.878,-0.400,0.010
0.881,-0.430,0.015
0.883,-0.430,0.025
0.886,-0.430,0.035
0.889,-0.420,0.040
0.892,-0.420,0.035
0.894,-0.420,0.000
0.897,-0.395,-0.025
0.900,-0.385,-0.005
0.903,-0.345,-0.005
0.906,-0.320,-0.015
0.908,-0.310,-0.030
0.911,-0.310,-0.020
0.914,-0.315,-0.035
0.917,-0.325,-0.005
0.919,-0.345,0.030
0.922,-0.340,0.070
0.925,-0.315,0.070
0.928,-0.280,0.075
0.931,-0.305,0.075
0.933,-0.330,0.080
0.936,-0.385,0.095
0.939,-0.395,0.115
0.942,-0.385,0.110
0.944,-0.360,0.060
0.947,-0.355,-0.015
0.950,-0.370,-0.045
0.953,-0.375,-0.065
0.956,-0.395,-0.090
0.958,-0.390,-0.115
0.961,-0.390,-0.155
0.964,-0.405,-0.185
0.967,-0.415,-0.175
0.969,-0.435,-0.155
0.972,-0.420,-0.150
0.975,-0.440,-0.155
0.978,-0.470,-0.180
0.981,-0.505,-0.195
0.983,-0.530,-0.195
0.986,-0.505,-0.175
0.989,-0.480,-0.170
0.992,-0.490,-0.175
0.994,-0.490,-0.190
0.997,-0.510,-0.220
1.000,-0.520,-0.225
1.003,-0.510,-0.230
1.006,-0.500,-0.200
1.008,-0.505,-0.190
1.011,-0.515,-0.190
1.014,-0.530,-0.215
1.017,-0.520,-0.225
1.019,-0.510,-0.225
1.022,-0.515,-0.215
1.025,-0.505,-0.220
1.028,-0.505,-0.240
1.031,-0.525,-0.280
1.033,-0.550,-0.290
1.036,-0.555,-0.290
1.039,-0.555,-0.280
1.042,-0.535,-0.285
1.044,-0.555,-0.300
1.047,-0.550,-0.280
1.050,-0.550,-0.275
1.053,-0.555,-0.260
1.056,-0.550,-0.245
1.058,-0.540,-0.250
1.061,-0.530,-0.255
1.064,-0.545,-0.270
1.067,-0.525,-0.265
1.069,-0.515,-0.245
1.072,-0.485,-0.240
1.075,-0.475,-0.205
1.078,-0.450,-0.180
1.081,-0.455,-0.155
1.083,-0.465,-0.140
1.086,-0.470,-0.130
1.089,-0.460,-0.130
1.092,-0.465,-0.115
1.094,-0.470,-0.090
1.097,-0.470,-0.085
1.100,-0.475,-0.075
1.103,-0.460,-0.055
1.106,-0.430,-0.040
1.108,-0.425,-0.040
1.111,-0.420,-0.055
1.114,-0.425,-0.075
1.117,-0.450,-0.085
1.119,-0.445,-0.070
1.122,-0.430,-0.070
1.125,-0.405,-0.065
1.128,-0.390,-0.065
1.131,-0.375,-0.060
1.133,-0.380,-0.065
1.136,-0.400,-0.025
1.139,-0.425,-0.020
1.142,-0.450,-0.050
1.144,-0.460,-0.085
1.147,-0.485,-0.100
1.150,-0.520,-0.050
1.153,-0.555,-0.065
1.156,-0.585,-0.235
1.158,-0.610,-0.590
1.161,-0.590,-1.030
1.164,-0.560,-1.470
1.167,-0.530,-1.925
1.169,-0.480,-2.345
1.172,-0.450,-2.675
1.175,-0.415,-2.895
1.178,-0.385,-3.000
1.181,-0.385,-3.025
1.183,-0.390,-2.985
1.186,-0.330,-2.820
1.189,-0.245,-2.495
1.192,-0.085,-1.930
1.194,0.125,-1.295
1.197,0.275,-0.660
1.200,0.330,-0.125
1.203,0.315,0.070
1.206,0.255,0.155
1.208,0.160,0.175
1.211,0.030,0.150
1.214,-0.090,0.130
1.217,-0.175,0.160
1.219,-0.225,0.200
1.222,-0.265,0.225
1.225,-0.290,0.235
1.228,-0.320,0.225
1.231,-0.330,0.215
1.233,-0.355,0.220
1.236,-0.355,0.240
1.239,-0.345,0.255
1.242,-0.325,0.240
1.244,-0.320,0.255
1.247,-0.335,0.260
1.250,-0.305,0.275
1.253,-0.250,0.290
1.256,-0.230,0.300
1.258,-0.250,0.300
1.261,-0.280,0.300
1.264,-0.295,0.275
1.267,-0.305,0.265
1.269,-0.300,0.265
1.272,-0.280,0.280
1.275,-0.280,0.290
1.278,-0.290,0.295
1.281,-0.275,0.320
1.283,-0.280,0.325
1.286,-0.270,0.330
1.289,-0.250,0.305
1.292,-0.245,0.290
1.294,-0.255,0.275
1.297,-0.260,0.280
1.300,-0.260,0.305
1.303,-0.245,0.315
1.306,-0.235,0.330
1.308,-0.215,0.325
1.311,-0.210,0.315
1.314,-0.195,0.305
1.317,-0.215,0.290
1.319,-0.230,0.285
1.322,-0.215,0.280
1.325,-0.200,0.290
1.328,-0.205,0.295
1.331,-0.185,0.290
1.333,-0.180,0.300
1.336,-0.170,0.320
1.339,-0.165,0.315
1.342,-0.160,0.325
1.344,-0.170,0.295
1.347,-0.170,0.275
1.350,-0.170,0.260
1.353,-0.135,0.280
1.356,-0.110,0.290
1.358,-0.120,0.275
1.361,-0.130,0.250
1.364,-0.135,0.220
1.367,-0.125,0.205
1.369,-0.105,0.220
1.372,-0.095,0.225
1.375,-0.080,0.210
1.378,-0.090,0.210
1.381,-0.090,0.205
1.383,-0.060,0.210
1.386,-0.040,0.215
1.389,-0.020,0.200
1.392,-0.035,0.160
1.394,-0.060,0.105
1.397,-0.060,0.075
1.400,-0.060,0.050
1.403,-0.050,0.045
1.406,-0.025,0.045
1.408,-0.015,0.050
1.411,-0.055,0.040
1.414,-0.050,0.040
1.417,-0.040,0.020
1.419,-0.005,0.020
1.422,0.040,0.010
1.425,0.055,-0.005
1.428,0.060,-0.040
1.431,0.055,-0.060
1.433,0.040,-0.060
1.436,0.020,-0.065
1.439,0.010,-0.060
1.442,0.010,-0.065
1.444,0.010,-0.110
1.447,-0.005,-0.135
1.450,-0.020,-0.140
1.453,-0.020,-0.140
1.456,-0.015,-0.140
1.458,-0.015,-0.150
1.461,-0.030,-0.165
1.464,-0.065,-0.160
1.467,-0.090,-0.170
1.469,-0.085,-0.145
1.472,-0.060,-0.145
1.475,-0.055,-0.140
1.478,-0.075,-0.145
1.481,-0.100,-0.145
1.483,-0.125,-0.135
1.486,-0.135,-0.130
1.489,-0.140,-0.110
1.492,-0.175,-0.100
1.494,-0.170,-0.110
1.497,-0.200,-0.110
1.500,-0.180,-0.110
1.503,-0.190,-0.090
1.506,-0.205,-0.100
1.508,-0.230,-0.100
1.511,-0.240,-0.110
1.514,-0.265,-0.105
1.517,-0.285,-0.070
1.519,-0.280,-0.055
1.522,-0.290,-0.060
1.525,-0.290,-0.075
1.528,-0.295,-0.085
1.531,-0.285,-0.045
1.533,-0.275,0.005
1.536,-0.265,0.030
1.539,-0.275,0.045
1.542,-0.250,0.030
1.544,-0.255,0.010
1.547,-0.275,0.010
1.550,-0.305,0.045
1.553,-0.305,0.070
1.556,-0.270,0.080
1.558,-0.255,0.070
1.561,-0.245,0.050
1.564,-0.260,0.055
1.567,-0.290,0.075
1.569,-0.305,0.090
1.572,-0.310,0.095
1.575,-0.315,0.105
1.578,-0.315,0.095
1.581,-0.315,0.080
1.583,-0.315,0.080
1.586,-0.335,0.110
1.589,-0.355,0.140
1.592,-0.345,0.155
1.594,-0.355,0.145
1.597,-0.360,0.125
1.600,-0.375,0.105
1.603,-0.380,0.115
1.606,-0.360,0.115
1.608,-0.350,0.115
1.611,-0.360,0.120
1.614,-0.375,0.115
1.617,-0.395,0.105
1.619,-0.385,0.100
1.622,-0.390,0.100
1.625,-0.380,0.095
1.628,-0.375,0.085
1.631,-0.375,0.065
1.633,-0.390,0.055
1.636,-0.390,0.070
1.639,-0.395,0.080
1.642,-0.385,0.070
1.644,-0.385,0.055
1.647,-0.385,0.025
1.650,-0.395,0.030
1.653,-0.400,0.035
1.656,-0.385,0.025
1.658,-0.385,0.025
1.661,-0.385,0.005
1.664,-0.410,0.010
1.667,-0.410,0.020
1.669,-0.380,0.040
1.672,-0.370,0.050
1.675,-0.360,0.055
1.678,-0.365,0.025
1.681,-0.380,0.010
1.683,-0.385,0.005
1.686,-0.375,0.025
1.689,-0.370,0.045
1.692,-0.345,0.045
1.694,-0.350,0.045
1.697,-0.355,0.035
1.700,-0.340,0.050
1.703,-0.315,0.060
1.706,-0.305,0.060
1.708,-0.295,0.065
1.711,-0.290,0.050
1.714,-0.290,0.040
1.717,-0.280,0.035
1.719,-0.255,0.045
1.722,-0.250,0.060
1.725,-0.240,0.065
1.728,-0.225,0.065
1.731,-0.230,0.065
1.733,-0.245,0.065
1.736,-0.235,0.060
1.739,-0.225,0.040
1.742,-0.230,-0.005
1.744,-0.245,-0.070
1.747,-0.275,-0.125
1.750,-0.295,-0.135
1.753,-0.275,-0.145
1.756,-0.265,-0.160
1.758,-0.270,-0.180
1.761,-0.300,-0.200
1.764,-0.345,-0.190
1.767,-0.365,-0.205
1.769,-0.375,-0.200
1.772,-0.390,-0.170
1.775,-0.395,-0.170
1.778,-0.410,-0.160
1.781,-0.395,-0.160
1.783,-0.390,-0.170
1.786,-0.375,-0.180
1.789,-0.380,-0.165
1.792,-0.375,-0.170
1.794,-0.395,-0.200
1.797,-0.420,-0.210
1.800,-0.435,-0.215
1.803,-0.415,-0.215
1.806,-0.400,-0.195
1.808,-0.400,-0.215
1.811,-0.410,-0.245
1.814,-0.430,-0.265
1.817,-0.445,-0.260
1.819,-0.425,-0.245
1.822,-0.450,-0.245
1.825,-0.450,-0.240
1.828,-0.435,-0.250
1.831,-0.425,-0.265
1.833,-0.445,-0.275
1.836,-0.445,-0.275
1.839,-0.430,-0.285
1.842,-0.440,-0.285
1.844,-0.455,-0.295
1.847,-0.475,-0.280
1.850,-0.495,-0.290
1.853,-0.490,-0.260
1.856,-0.495,-0.260
1.858,-0.490,-0.265
1.861,-0.470,-0.260
1.864,-0.450,-0.260
1.867,-0.460,-0.245
1.869,-0.430,-0.225
1.872,-0.395,-0.220
1.875,-0.370,-0.205
1.878,-0.365,-0.205
1.881,-0.370,-0.195
1.883,-0.380,-0.180
1.886,-0.370,-0.140
1.889,-0.360,-0.115
1.892,-0.350,-0.100
1.894,-0.350,-0.100
1.897,-0.355,-0.085
1.900,-0.350,-0.090
1.903,-0.340,-0.085
1.906,-0.340,-0.075
1.908,-0.345,-0.070
1.911,-0.360,-0.085
1.914,-0.360,-0.080
1.917,-0.335,-0.075
1.919,-0.320,-0.060
1.922,-0.305,-0.050
1.925,-0.295,-0.045
1.928,-0.295,-0.060
1.931,-0.310,-0.075
1.933,-0.320,-0.100
1.936,-0.330,-0.100
1.939,-0.320,-0.095
1.942,-0.320,-0.070
1.944,-0.335,-0.070
1.947,-0.340,-0.065
1.950,-0.350,-0.070
1.953,-0.355,-0.085
1.956,-0.375,-0.080
1.958,-0.405,-0.065
1.961,-0.455,-0.065
1.964,-0.520,-0.195
1.967,-0.550,-0.475
1.969,-0.525,-0.745
1.972,-0.485,-0.985
1.975,-0.450,-1.255
1.978,-0.415,-1.560
1.981,-0.360,-1.915
1.983,-0.305,-2.285
1.986,-0.270,-2.600
1.989,-0.215,-2.825
1.992,-0.205,-2.940
1.994,-0.195,-2.985
1.997,-0.195,-2.945
2.000,-0.145,-2.795
2.003,-0.050,-2.500
2.006,0.145,-1.985
2.008,0.335,-1.350
2.011,0.480,-0.715
2.014,0.545,-0.305
2.017,0.495,-0.085
2.019,0.445,0.025
2.022,0.375,0.105
2.025,0.275,0.120
2.028,0.135,0.105
2.031,0.000,0.085
2.033,-0.080,0.100
2.036,-0.145,0.140
2.039,-0.175,0.165
2.042,-0.185,0.190
2.044,-0.215,0.195
2.047,-0.225,0.190
2.050,-0.250,0.185
2.053,-0.260,0.185
2.056,-0.255,0.210
2.058,-0.250,0.230
2.061,-0.235,0.220
2.064,-0.235,0.200
2.067,-0.235,0.220
2.069,-0.235,0.250
2.072,-0.225,0.250
2.075,-0.215,0.240
2.078,-0.225,0.225
2.081,-0.240,0.210
2.083,-0.240,0.205
2.086,-0.235,0.240
2.089,-0.215,0.270
2.092,-0.210,0.300
2.094,-0.195,0.260
2.097,-0.190,0.230
2.100,-0.210,0.225
2.103,-0.195,0.215
2.106,-0.210,0.230
2.108,-0.205,0.245
2.111,-0.205,0.235
2.114,-0.210,0.230
2.117,-0.240,0.245
2.119,-0.230,0.255
2.122,-0.220,0.265
2.125,-0.210,0.245
2.128,-0.205,0.240
2.131,-0.200,0.215
2.133,-0.190,0.200
2.136,-0.175,0.220
2.139,-0.170,0.240
2.142,-0.175,0.220
2.144,-0.195,0.215
2.147,-0.205,0.225
2.150,-0.225,0.235
2.153,-0.210,0.250
2.156,-0.170,0.265
2.158,-0.140,0.265
2.161,-0.125,0.260
2.164,-0.135,0.245
2.167,-0.135,0.240
2.169,-0.145,0.255
2.172,-0.125,0.265
2.175,-0.130,0.265
2.178,-0.135,0.260
2.181,-0.125,0.230
2.183,-0.105,0.210
2.186,-0.115,0.225
2.189,-0.105,0.245
2.192,-0.100,0.260
2.194,-0.100,0.245
2.197,-0.110,0.230
2.200,-0.110,0.205
2.203,-0.095,0.220
2.206,-0.090,0.220
2.208,-0.055,0.215
2.211,-0.040,0.195
2.214,-0.045,0.185
2.217,-0.045,0.175
2.219,-0.055,0.165
2.222,-0.035,0.160
2.225,-0.020,0.140
2.228,-0.035,0.110
2.231,-0.045,0.100
2.233,-0.065,0.075
2.236,-0.050,0.105
2.239,-0.040,0.100
2.242,-0.050,0.075
2.244,-0.060,0.065
2.247,-0.055,0.035
2.250,-0.030,0.025
2.253,-0.005,0.015
2.256,0.015,0.015
2.258,0.005,0.000
2.261,0.020,-0.035
2.264,0.000,-0.060
2.267,0.005,-0.070
2.269,0.005,-0.065
2.272,0.025,-0.065
2.275,0.035,-0.065
2.278,0.040,-0.080
2.281,0.040,-0.100
2.283,0.030,-0.125
2.286,0.045,-0.130
2.289,0.045,-0.160
2.292,0.035,-0.190
2.294,0.030,-0.195
2.297,0.005,-0.185
2.300,-0.015,-0.180
2.303,0.000,-0.170
2.306,0.005,-0.150
2.308,0.015,-0.170
2.311,0.025,-0.190
2.314,0.010,-0.215
2.317,0.015,-0.225
2.319,0.020,-0.215
2.322,0.010,-0.210
2.325,-0.005,-0.215
2.328,-0.025,-0.225
2.331,-0.035,-0.230
2.333,-0.060,-0.230
2.336,-0.045,-0.230
2.339,-0.030,-0.210
2.342,-0.010,-0.210
2.344,-0.050,-0.210
2.347,-0.040,-0.220
2.350,-0.065,-0.225
2.353,-0.100,-0.220
2.356,-0.115,-0.205
2.358,-0.145,-0.225
2.361,-0.150,-0.210
2.364,-0.175,-0.200
2.367,-0.180,-0.185
2.369,-0.165,-0.165
2.372,-0.140,-0.120
2.375,-0.120,-0.125
2.378,-0.110,-0.120
2.381,-0.120,-0.140
2.383,-0.140,-0.145
2.386,-0.155,-0.135
2.389,-0.160,-0.115
2.392,-0.185,-0.125
2.394,-0.190,-0.125
2.397,-0.210,-0.135
2.400,-0.220,-0.130
2.403,-0.215,-0.120
2.406,-0.205,-0.095
2.408,-0.215,-0.100
2.411,-0.225,-0.090
2.414,-0.235,-0.085
2.417,-0.255,-0.090
2.419,-0.250,-0.085
2.422,-0.235,-0.070
2.425,-0.240,-0.070
2.428,-0.235,-0.070
2.431,-0.235,-0.075
2.433,-0.240,-0.070
2.436,-0.230,-0.030
2.439,-0.240,-0.030
2.442,-0.240,-0.030
2.444,-0.265,-0.030
2.447,-0.270,-0.035
2.450,-0.270,-0.020
2.453,-0.270,-0.005
2.456,-0.265,0.020
2.458,-0.265,0.000
2.461,-0.260,0.000
2.464,-0.275,0.010
2.467,-0.285,0.015
2.469,-0.285,0.025
2.472,-0.280,0.045
2.475,-0.295,0.030
2.478,-0.295,0.035
2.481,-0.320,0.040
2.483,-0.345,0.035
2.486,-0.330,0.055
2.489,-0.325,0.075
2.492,-0.305,0.065
2.494,-0.300,0.050
2.497,-0.315,0.030
2.500,-0.335,0.030
2.503,-0.330,0.050
2.506,-0.305,0.045
2.508,-0.310,0.070
2.511,-0.340,0.060
2.514,-0.355,0.070
2.517,-0.355,0.065
2.519,-0.330,0.075
2.522,-0.315,0.080
2.525,-0.325,0.075
2.528,-0.305,0.070
2.531,-0.305,0.055
2.533,-0.320,0.050
2.536,-0.325,0.050
2.539,-0.310,0.060
2.542,-0.310,0.050
2.544,-0.325,0.040
2.547,-0.350,0.020
2.550,-0.365,0.015
2.553,-0.360,0.025
2.556,-0.340,0.045
2.558,-0.305,0.050
2.561,-0.300,0.035
2.564,-0.295,0.035
2.567,-0.300,0.010
2.569,-0.305,0.015
2.572,-0.305,0.025
2.575,-0.310,0.020
2.578,-0.320,-0.005
2.581,-0.325,-0.015
2.583,-0.340,-0.020
2.586,-0.320,0.005
2.589,-0.290,0.005
2.592,-0.285,0.015
2.594,-0.295,-0.005
2.597,-0.290,-0.010
2.600,-0.305,-0.010
2.603,-0.305,-0.015
2.606,-0.290,-0.010
2.608,-0.300,-0.005
2.611,-0.300,-0.005
2.614,-0.290,0.000
2.617,-0.270,0.000
2.619,-0.245,0.020
2.622,-0.230,0.045
2.625,-0.200,0.040
2.628,-0.200,0.005
2.631,-0.205,-0.005
2.633,-0.220,-0.005
2.636,-0.195,0.015
2.639,-0.185,0.035
2.642,-0.160,0.065
2.644,-0.145,0.065
2.647,-0.140,0.090
2.650,-0.135,0.090
2.653,-0.135,0.095
2.656,-0.135,0.070
2.658,-0.140,0.030
2.661,-0.160,0.000
2.664,-0.190,-0.045
2.667,-0.200,-0.090
2.669,-0.200,-0.115
2.672,-0.200,-0.135
2.675,-0.200,-0.145
2.678,-0.195,-0.160
2.681,-0.215,-0.185
2.683,-0.240,-0.210
2.686,-0.240,-0.200
2.689,-0.230,-0.180
2.692,-0.245,-0.190
2.694,-0.265,-0.210
2.697,-0.300,-0.210
2.700,-0.320,-0.195
2.703,-0.315,-0.165
2.706,-0.295,-0.150
2.708,-0.270,-0.160
2.711,-0.265,-0.175
2.714,-0.265,-0.185
2.717,-0.275,-0.185
2.719,-0.270,-0.170
2.722,-0.275,-0.185
2.725,-0.295,-0.195
2.728,-0.305,-0.220
2.731,-0.335,-0.240
2.733,-0.345,-0.240
2.736,-0.325,-0.225
2.739,-0.310,-0.220
2.742,-0.295,-0.220
2.744,-0.300,-0.230
2.747,-0.335,-0.245
2.750,-0.335,-0.265
2.753,-0.350,-0.260
2.756,-0.350,-0.265
2.758,-0.370,-0.290
2.761,-0.375,-0.315
2.764,-0.370,-0.310
2.767,-0.375,-0.310
2.769,-0.355,-0.295
2.772,-0.340,-0.290
2.775,-0.380,-0.325
2.778,-0.405,-0.320
2.781,-0.405,-0.320
2.783,-0.415,-0.275
2.786,-0.380,-0.255
2.789,-0.355,-0.245
2.792,-0.345,-0.245
2.794,-0.330,-0.245
2.797,-0.300,-0.235
2.800,-0.290,-0.225
2.803,-0.285,-0.200
2.806,-0.290,-0.190
2.808,-0.295,-0.180
2.811,-0.295,-0.190
2.814,-0.305,-0.185
2.817,-0.275,-0.155
2.819,-0.245,-0.110
2.822,-0.225,-0.110
2.825,-0.205,-0.090
2.828,-0.225,-0.110
2.831,-0.230,-0.110
2.833,-0.230,-0.100
2.836,-0.240,-0.085
2.839,-0.245,-0.075
2.842,-0.240,-0.095
2.844,-0.255,-0.100
2.847,-0.260,-0.115
2.850,-0.250,-0.105
2.853,-0.235,-0.085
2.856,-0.215,-0.085
2.858,-0.210,-0.085
2.861,-0.225,-0.085
2.864,-0.240,-0.100
2.867,-0.245,-0.105
2.869,-0.240,-0.095
2.872,-0.225,-0.090
2.875,-0.230,-0.090
2.878,-0.275,-0.070
2.881,-0.280,-0.050
2.883,-0.275,-0.035
2.886,-0.265,-0.025
2.889,-0.300,-0.040
2.892,-0.350,-0.045
2.894,-0.405,-0.090
2.897,-0.455,-0.255
2.900,-0.450,-0.505
2.903,-0.415,-0.825
2.906,-0.350,-1.150
2.908,-0.305,-1.520
2.911,-0.270,-1.930
2.914,-0.240,-2.350
2.917,-0.195,-2.655
2.919,-0.170,-2.855
2.922,-0.155,-2.975
2.925,-0.150,-3.025
2.928,-0.130,-3.005
2.931,-0.100,-2.935
2.933,-0.010,-2.710
2.936,0.140,-2.285
2.939,0.335,-1.675
2.942,0.490,-1.040
2.944,0.565,-0.490
2.947,0.545,-0.180
2.950,0.485,-0.040
2.953,0.425,0.050
2.956,0.330,0.090
2.958,0.210,0.085
2.961,0.100,0.075
2.964,0.005,0.100
2.967,-0.045,0.145
2.969,-0.095,0.165
2.972,-0.145,0.175
2.975,-0.160,0.165
2.978,-0.190,0.155
2.981,-0.210,0.145
2.983,-0.225,0.165
2.986,-0.215,0.175
2.989,-0.175,0.185
2.992,-0.165,0.185
2.994,-0.160,0.195
2.997,-0.175,0.185
3.000,-0.160,0.190
3.003,-0.155,0.200
3.006,-0.155,0.200
3.008,-0.180,0.200
3.011,-0.190,0.180
3.014,-0.205,0.190
3.017,-0.185,0.205
3.019,-0.160,0.215
3.022,-0.145,0.245
3.025,-0.140,0.220
3.028,-0.155,0.215
3.031,-0.160,0.195
3.033,-0.165,0.205
3.036,-0.175,0.235
3.039,-0.170,0.235
3.042,-0.175,0.210
3.044,-0.160,0.195
3.047,-0.160,0.195
3.050,-0.140,0.220
3.053,-0.135,0.235
3.056,-0.125,0.240
3.058,-0.120,0.235
3.061,-0.140,0.225
3.064,-0.160,0.210
3.067,-0.160,0.215
3.069,-0.160,0.220
3.072,-0.135,0.210
3.075,-0.145,0.195
3.078,-0.155,0.205
3.081,-0.160,0.205
3.083,-0.150,0.230
3.086,-0.120,0.255
3.089,-0.100,0.275
3.092,-0.080,0.250
3.094,-0.090,0.220
3.097,-0.100,0.210
3.100,-0.095,0.230
3.103,-0.085,0.230
3.106,-0.080,0.225
3.108,-0.080,0.205
3.111,-0.085,0.215
3.114,-0.105,0.205
3.117,-0.095,0.225
3.119,-0.085,0.210
3.122,-0.075,0.195
3.125,-0.085,0.165
3.128,-0.100,0.150
3.131,-0.110,0.145
3.133,-0.095,0.150
3.136,-0.075,0.155
3.139,-0.060,0.130
3.142,-0.055,0.120
3.144,-0.070,0.095
3.147,-0.070,0.100
3.150,-0.065,0.120
3.153,-0.030,0.105
3.156,-0.025,0.090
3.158,-0.005,0.070
3.161,-0.005,0.065
3.164,-0.010,0.045
3.167,-0.030,0.050
3.169,-0.005,0.040
3.172,0.010,0.025
3.175,0.010,-0.010
3.178,0.005,-0.065
3.181,-0.005,-0.070
3.183,-0.005,-0.080
3.186,0.015,-0.095
3.189,0.030,-0.105
3.192,0.020,-0.130
3.194,0.000,-0.145
3.197,-0.005,-0.145
3.200,-0.020,-0.110
3.203,-0.010,-0.100
3.206,-0.015,-0.135
3.208,-0.020,-0.190
3.211,-0.020,-0.230
3.214,-0.015,-0.225
3.217,-0.015,-0.220
3.219,-0.010,-0.210
3.222,0.000,-0.220
3.225,-0.020,-0.235
3.228,-0.055,-0.245
3.231,-0.065,-0.255
3.233,-0.050,-0.245
3.236,-0.040,-0.245
3.239,-0.055,-0.245
3.242,-0.045,-0.215
3.244,-0.060,-0.220
3.247,-0.080,-0.200
3.250,-0.080,-0.195
3.253,-0.080,-0.185
3.256,-0.080,-0.180
3.258,-0.105,-0.175
3.261,-0.145,-0.185
3.264,-0.170,-0.200
3.267,-0.165,-0.190
3.269,-0.190,-0.185
3.272,-0.195,-0.170
3.275,-0.190,-0.190
3.278,-0.220,-0.185
3.281,-0.225,-0.175
3.283,-0.230,-0.145
3.286,-0.230,-0.130
3.289,-0.235,-0.140
3.292,-0.230,-0.145
3.294,-0.245,-0.145
3.297,-0.265,-0.150
3.300,-0.265,-0.120
3.303,-0.260,-0.080
3.306,-0.265,-0.065
3.308,-0.285,-0.075
3.311,-0.305,-0.100
3.314,-0.315,-0.110
3.317,-0.305,-0.105
3.319,-0.300,-0.100
3.322,-0.275,-0.095
3.325,-0.280,-0.075
3.328,-0.295,-0.080
3.331,-0.335,-0.080
3.333,-0.310,-0.050
3.336,-0.305,-0.025
3.339,-0.300,-0.005
3.342,-0.305,-0.020
3.344,-0.320,-0.025
3.347,-0.320,-0.050
3.350,-0.330,-0.045
3.353,-0.335,-0.020
3.356,-0.310,0.020
3.358,-0.315,0.035
3.361,-0.325,0.030
3.364,-0.350,0.040
3.367,-0.360,0.055
3.369,-0.350,0.045
3.372,-0.345,0.040
3.375,-0.350,0.025
3.378,-0.360,0.025
3.381,-0.360,0.020
3.383,-0.350,0.055
3.386,-0.360,0.095
3.389,-0.365,0.100
3.392,-0.390,0.075
3.394,-0.395,0.055
3.397,-0.400,0.035
3.400,-0.395,0.045
3.403,-0.395,0.040
3.406,-0.380,0.055
3.408,-0.400,0.055
3.411,-0.400,0.065
3.414,-0.415,0.060
3.417,-0.415,0.065
3.419,-0.405,0.085
3.422,-0.385,0.060
3.425,-0.400,0.020
3.428,-0.405,-0.005
3.431,-0.405,0.005
3.433,-0.395,0.035
3.436,-0.410,0.045
3.439,-0.395,0.025
3.442,-0.385,0.000
3.444,-0.390,-0.020
3.447,-0.405,-0.030
3.450,-0.400,-0.025
3.453,-0.405,-0.055
3.456,-0.405,-0.055
3.458,-0.415,-0.035
3.461,-0.420,-0.025
3.464,-0.420,-0.020
3.467,-0.410,0.005
3.469,-0.400,0.005
3.472,-0.385,0.010
3.475,-0.395,-0.015
3.478,-0.410,-0.040
3.481,-0.420,-0.035
3.483,-0.390,-0.005
3.486,-0.350,0.020
3.489,-0.330,0.035
3.492,-0.310,0.045
3.494,-0.305,0.045
3.497,-0.300,0.035
3.500,-0.290,0.035
3.503,-0.290,0.020
3.506,-0.265,0.020
3.508,-0.245,0.010
3.511,-0.245,0.015
3.514,-0.255,0.035
3.517,-0.250,0.070
3.519,-0.255,0.075
3.522,-0.245,0.020
3.525,-0.270,-0.060
3.528,-0.295,-0.135
3.531,-0.315,-0.195
3.533,-0.310,-0.205
3.536,-0.315,-0.180
3.539,-0.310,-0.180
3.542,-0.325,-0.215
3.544,-0.350,-0.225
3.547,-0.385,-0.210
3.550,-0.390,-0.180
3.553,-0.410,-0.155
3.556,-0.410,-0.165
3.558,-0.415,-0.190
3.561,-0.420,-0.200
3.564,-0.430,-0.195
3.567,-0.435,-0.200
3.569,-0.445,-0.205
3.572,-0.415,-0.215
3.575,-0.410,-0.225
3.578,-0.420,-0.250
3.581,-0.450,-0.250
3.583,-0.475,-0.255
3.586,-0.470,-0.240
3.589,-0.440,-0.250
3.592,-0.420,-0.255
3.594,-0.430,-0.255
3.597,-0.460,-0.255
3.600,-0.465,-0.255
3.603,-0.460,-0.260
3.606,-0.460,-0.300
3.608,-0.465,-0.320
3.611,-0.490,-0.330
3.614,-0.505,-0.325
3.617,-0.495,-0.310
3.619,-0.470,-0.305
3.622,-0.470,-0.285
3.625,-0.485,-0.285
3.628,-0.500,-0.290
3.631,-0.515,-0.290
3.633,-0.505,-0.290
3.636,-0.515,-0.285
3.639,-0.510,-0.305
3.642,-0.515,-0.310
3.644,-0.505,-0.340
3.647,-0.500,-0.320
3.650,-0.480,-0.270
3.653,-0.455,-0.230
3.656,-0.410,-0.200
3.658,-0.390,-0.185
3.661,-0.370,-0.175
3.664,-0.375,-0.190
3.667,-0.390,-0.160
3.669,-0.410,-0.125
3.672,-0.390,-0.105
3.675,-0.380,-0.100
3.678,-0.370,-0.100
3.681,-0.380,-0.105
3.683,-0.370,-0.110
3.686,-0.365,-0.105
3.689,-0.355,-0.085
3.692,-0.375,-0.095
3.694,-0.375,-0.110
3.697,-0.385,-0.110
3.700,-0.360,-0.110
3.703,-0.335,-0.105
3.706,-0.305,-0.095
3.708,-0.285,-0.105
3.711,-0.295,-0.105
3.714,-0.325,-0.110
3.717,-0.335,-0.110
3.719,-0.305,-0.090
3.722,-0.300,-0.085
3.725,-0.325,-0.085
3.728,-0.350,-0.080
3.731,-0.380,-0.060
3.733,-0.370,-0.050
3.736,-0.380,-0.055
3.739,-0.440,-0.045
3.742,-0.485,-0.035
3.744,-0.540,-0.080
3.747,-0.590,-0.265
3.750,-0.595,-0.585
3.753,-0.550,-0.930
3.756,-0.500,-1.335
3.758,-0.475,-1.790
3.761,-0.440,-2.240
3.764,-0.425,-2.655
3.767,-0.420,-2.920
3.769,-0.375,-3.070
3.772,-0.325,-3.120
3.775,-0.280,-3.135
3.778,-0.205,-3.060
3.781,-0.080,-2.835
3.783,0.100,-2.365
3.786,0.315,-1.730
3.789,0.465,-1.095
3.792,0.505,-0.460
3.794,0.445,-0.020
3.797,0.360,0.110
3.800,0.305,0.160
3.803,0.225,0.150
3.806,0.145,0.140
3.808,0.050,0.115
3.811,-0.055,0.150
3.814,-0.150,0.165
3.817,-0.195,0.180
3.819,-0.210,0.195
3.822,-0.225,0.225
3.825,-0.240,0.225
3.828,-0.245,0.220
3.831,-0.230,0.220
3.833,-0.205,0.235
3.836,-0.205,0.260
3.839,-0.205,0.245
3.842,-0.220,0.220
3.844,-0.210,0.195
3.847,-0.235,0.200
3.850,-0.245,0.235
3.853,-0.230,0.270
3.856,-0.200,0.250
3.858,-0.190,0.205
3.861,-0.175,0.190
3.864,-0.205,0.185
3.867,-0.215,0.225
3.869,-0.235,0.245
3.872,-0.235,0.270
3.875,-0.230,0.240
3.878,-0.205,0.195
3.881,-0.210,0.180
3.883,-0.195,0.165
3.886,-0.200,0.180
3.889,-0.180,0.180
3.892,-0.175,0.160
3.894,-0.170,0.155
3.897,-0.185,0.160
3.900,-0.160,0.185
3.903,-0.130,0.210
3.906,-0.115,0.235
3.908,-0.100,0.235
3.911,-0.110,0.200
3.914,-0.120,0.170
3.917,-0.150,0.180
3.919,-0.145,0.235
3.922,-0.130,0.260
3.925,-0.140,0.280
3.928,-0.140,0.255
3.931,-0.130,0.230
3.933,-0.120,0.250
3.936,-0.120,0.250
3.939,-0.110,0.270
3.942,-0.120,0.275
3.944,-0.135,0.255
3.947,-0.140,0.250
3.950,-0.125,0.250
3.953,-0.110,0.260
3.956,-0.095,0.270
3.958,-0.080,0.260
3.961,-0.080,0.235
3.964,-0.065,0.220
3.967,-0.040,0.220
3.969,-0.015,0.215
3.972,-0.005,0.205
3.975,-0.005,0.180
3.978,-0.025,0.155
3.981,-0.010,0.135
3.983,-0.005,0.120
3.986,-0.015,0.130
3.989,-0.015,0.130
3.992,-0.005,0.080
3.994,0.000,0.045
3.997,-0.010,0.010
4.000,-0.015,-0.010
4.003,0.015,-0.035
4.006,0.050,-0.035
4.008,0.035,-0.025
4.011,0.035,-0.050
4.014,0.020,-0.105
4.017,0.030,-0.125
4.019,0.030,-0.140
4.022,-0.005,-0.125
4.025,-0.030,-0.130
4.028,-0.050,-0.125
4.031,-0.030,-0.145
4.033,0.010,-0.150
4.036,0.055,-0.145
4.039,0.070,-0.140
4.042,0.075,-0.195
4.044,0.085,-0.275
4.047,0.080,-0.315
4.050,0.045,-0.280
4.053,-0.005,-0.210
4.056,-0.040,-0.185
4.058,-0.045,-0.200
4.061,-0.035,-0.230
4.064,-0.030,-0.225
4.067,-0.045,-0.240
4.069,-0.050,-0.255
4.072,-0.075,-0.270
4.075,-0.080,-0.265
4.078,-0.100,-0.235
4.081,-0.120,-0.220
4.083,-0.105,-0.170
4.086,-0.100,-0.120
4.089,-0.075,-0.140
4.092,-0.045,-0.195
4.094,-0.055,-0.250
4.097,-0.105,-0.240
4.100,-0.190,-0.180
4.103,-0.250,-0.140
4.106,-0.255,-0.175
4.108,-0.215,-0.200
4.111,-0.210,-0.200
4.114,-0.250,-0.185
4.117,-0.265,-0.145
4.119,-0.235,-0.135
4.122,-0.175,-0.135
4.125,-0.185,-0.150
4.128,-0.215,-0.170
4.131,-0.270,-0.150
4.133,-0.295,-0.100
4.136,-0.290,-0.080
4.139,-0.255,-0.060
4.142,-0.245,-0.050
4.144,-0.250,-0.110
4.147,-0.255,-0.145
4.150,-0.260,-0.135
4.153,-0.315,-0.075
4.156,-0.340,-0.020
4.158,-0.325,0.000
4.161,-0.310,0.005
4.164,-0.270,0.010
4.167,-0.265,-0.005
4.169,-0.225,-0.040
4.172,-0.215,-0.075
4.175,-0.250,-0.055
4.178,-0.290,-0.050
4.181,-0.310,-0.055
4.183,-0.310,-0.030
4.186,-0.345,-0.010
4.189,-0.355,-0.050
4.192,-0.360,-0.090
4.194,-0.345,-0.095
4.197,-0.385,-0.065
4.200,-0.370,-0.080
4.203,-0.335,-0.140
4.206,-0.295,-0.155
4.208,-0.280,-0.090
4.211,-0.325,0.020
4.214,-0.370,0.130
4.217,-0.365,0.185
4.219,-0.365,0.175
4.222,-0.360,0.140
4.225,-0.365,0.060
4.228,-0.395,-0.045
4.231,-0.450,-0.100
4.233,-0.455,-0.085
4.236,-0.455,-0.080
4.239,-0.395,-0.055
4.242,-0.365,-0.030
4.244,-0.360,-0.045
4.247,-0.390,-0.055
4.250,-0.410,-0.040
4.253,-0.440,-0.025
4.256,-0.435,-0.040
4.258,-0.435,-0.055
4.261,-0.405,-0.035
4.264,-0.400,-0.010
4.267,-0.360,0.020
4.269,-0.325,-0.010
4.272,-0.315,-0.090
4.275,-0.320,-0.155
4.278,-0.315,-0.195
4.281,-0.305,-0.185
4.283,-0.325,-0.110
4.286,-0.370,-0.115
4.289,-0.375,-0.195
4.292,-0.345,-0.265
4.294,-0.315,-0.210
4.297,-0.340,-0.080
4.300,-0.345,0.055
4.303,-0.340,0.085
4.306,-0.315,0.055
4.308,-0.285,-0.010
4.311,-0.295,-0.055
4.314,-0.340,-0.115
4.317,-0.325,-0.150
4.319,-0.315,-0.125
4.322,-0.340,-0.045
4.325,-0.355,0.015
4.328,-0.340,0.005
4.331,-0.295,-0.065
4.333,-0.230,-0.100
4.336,-0.220,-0.130
4.339,-0.240,-0.150
4.342,-0.265,-0.175
4.344,-0.285,-0.200
4.347,-0.310,-0.225
4.350,-0.295,-0.200
4.353,-0.295,-0.220
4.356,-0.275,-0.285
4.358,-0.270,-0.350
4.361,-0.285,-0.395
4.364,-0.300,-0.385
4.367,-0.315,-0.335
4.369,-0.355,-0.260
4.372,-0.385,-0.235
4.375,-0.405,-0.235
4.378,-0.445,-0.280
4.381,-0.465,-0.310
4.383,-0.440,-0.290
4.386,-0.395,-0.290
4.389,-0.365,-0.305
4.392,-0.370,-0.330
4.394,-0.390,-0.310
4.397,-0.440,-0.260
4.400,-0.445,-0.215
4.403,-0.445,-0.220
4.406,-0.410,-0.280
4.408,-0.375,-0.355
4.411,-0.355,-0.445
4.414,-0.370,-0.495
4.417,-0.405,-0.460
4.419,-0.455,-0.390
4.422,-0.485,-0.295
4.425,-0.490,-0.270
4.428,-0.470,-0.300
4.431,-0.440,-0.395
4.433,-0.420,-0.450
4.436,-0.460,-0.440
4.439,-0.500,-0.430
4.442,-0.535,-0.440
4.444,-0.500,-0.455
4.447,-0.465,-0.440
4.450,-0.455,-0.405
4.453,-0.425,-0.365
4.456,-0.405,-0.310
4.458,-0.395,-0.280
4.461,-0.415,-0.285
4.464,-0.410,-0.265
4.467,-0.465,-0.200
4.469,-0.475,-0.170
4.472,-0.455,-0.200
4.475,-0.415,-0.210
4.478,-0.430,-0.195
4.481,-0.460,-0.130
4.483,-0.410,-0.085
4.486,-0.350,-0.075
4.489,-0.290,-0.110
4.492,-0.240,-0.195
4.494,-0.235,-0.280
4.497,-0.285,-0.320
4.500,-0.370,-0.260
4.503,-0.425,-0.190
4.506,-0.410,-0.155
4.508,-0.370,-0.170
4.511,-0.365,-0.195
4.514,-0.375,-0.190
4.517,-0.395,-0.180
4.519,-0.380,-0.170
4.522,-0.365,-0.105
4.525,-0.350,-0.050
4.528,-0.360,-0.015
4.531,-0.355,-0.040
4.533,-0.355,-0.085
4.536,-0.395,-0.125
4.539,-0.480,-0.155
4.542,-0.565,-0.210
4.544,-0.595,-0.365
4.547,-0.605,-0.635
4.550,-0.590,-0.905
4.553,-0.560,-1.225
4.556,-0.500,-1.635
4.558,-0.425,-2.100
4.561,-0.365,-2.535
4.564,-0.325,-2.805
4.567,-0.300,-2.920
4.569,-0.255,-2.910
4.572,-0.185,-2.825
4.575,-0.060,-2.650
4.578,0.090,-2.280
4.581,0.265,-1.665
4.583,0.415,-1.030
4.586,0.475,-0.395
4.589,0.465,-0.040
4.592,0.405,0.000
4.594,0.285,-0.015
4.597,0.150,-0.020
4.600,0.025,0.000
4.603,-0.075,0.055
4.606,-0.150,0.080
4.608,-0.210,0.095
4.611,-0.240,0.090
4.614,-0.275,0.085
4.617,-0.280,0.085
4.619,-0.280,0.095
4.622,-0.290,0.120
4.625,-0.300,0.125
4.628,-0.265,0.145
4.631,-0.250,0.150
4.633,-0.210,0.140
4.636,-0.195,0.120
4.639,-0.205,0.115
4.642,-0.240,0.125
4.644,-0.285,0.120
4.647,-0.300,0.115
4.650,-0.275,0.105
4.653,-0.250,0.110
4.656,-0.235,0.130
4.658,-0.285,0.135
4.661,-0.330,0.150
4.664,-0.330,0.135
4.667,-0.285,0.140
4.669,-0.225,0.110
4.672,-0.180,0.120
4.675,-0.175,0.135
4.678,-0.225,0.155
4.681,-0.265,0.175
4.683,-0.285,0.195
4.686,-0.265,0.185
4.689,-0.225,0.170
4.692,-0.230,0.150
4.694,-0.225,0.110
4.697,-0.210,0.080
4.700,-0.190,0.090
4.703,-0.210,0.115
4.706,-0.220,0.105
4.708,-0.245,0.100
4.711,-0.265,0.110
4.714,-0.270,0.110
4.717,-0.235,0.140
4.719,-0.185,0.140
4.722,-0.155,0.105
4.725,-0.155,0.085
4.728,-0.200,0.085
4.731,-0.210,0.070
4.733,-0.220,0.095
4.736,-0.205,0.100
4.739,-0.165,0.095
4.742,-0.140,0.090
4.744,-0.110,0.050
4.747,-0.125,0.035
4.750,-0.160,0.060
4.753,-0.180,0.095
4.756,-0.180,0.110
4.758,-0.160,0.095
4.761,-0.125,0.070
4.764,-0.100,0.030
4.767,-0.075,-0.010
4.769,-0.075,-0.025
4.772,-0.085,-0.035
4.775,-0.105,-0.050
4.778,-0.125,-0.065
4.781,-0.140,-0.080
4.783,-0.115,-0.070
4.786,-0.105,-0.070
4.789,-0.075,-0.075
4.792,-0.045,-0.105
4.794,-0.020,-0.130
4.797,-0.045,-0.150
4.800,-0.060,-0.150
4.803,-0.085,-0.160
4.806,-0.075,-0.155
4.808,-0.065,-0.165
4.811,-0.050,-0.170
4.814,-0.045,-0.195
4.817,-0.025,-0.210
4.819,-0.020,-0.235
4.822,-0.015,-0.260
4.825,-0.030,-0.280
4.828,-0.085,-0.280
4.831,-0.140,-0.270
4.833,-0.145,-0.260
4.836,-0.120,-0.260
4.839,-0.105,-0.260
4.842,-0.095,-0.280
4.844,-0.100,-0.280
4.847,-0.125,-0.290
4.850,-0.125,-0.260
4.853,-0.140,-0.250
4.856,-0.150,-0.235
4.858,-0.185,-0.230
4.861,-0.185,-0.235
4.864,-0.190,-0.235
4.867,-0.195,-0.240
4.869,-0.190,-0.215
4.872,-0.205,-0.220
4.875,-0.220,-0.230
4.878,-0.255,-0.235
4.881,-0.260,-0.220
4.883,-0.235,-0.210
4.886,-0.235,-0.180
4.889,-0.245,-0.160
4.892,-0.265,-0.180
4.894,-0.290,-0.165
4.897,-0.295,-0.175
4.900,-0.310,-0.165
4.903,-0.305,-0.140
4.906,-0.300,-0.130
4.908,-0.310,-0.125
4.911,-0.345,-0.140
4.914,-0.360,-0.155
4.917,-0.355,-0.135
4.919,-0.350,-0.120
4.922,-0.360,-0.100
4.925,-0.355,-0.070
4.928,-0.350,-0.075
4.931,-0.365,-0.080
4.933,-0.370,-0.070
4.936,-0.390,-0.055
4.939,-0.400,-0.040
4.942,-0.400,-0.055
4.944,-0.390,-0.055
4.947,-0.385,-0.050
4.950,-0.355,-0.025
4.953,-0.355,-0.010
4.956,-0.355,-0.015
4.958,-0.370,-0.030
4.961,-0.405,-0.050
4.964,-0.455,-0.045
4.967,-0.475,-0.015
4.969,-0.480,0.005
4.972,-0.445,0.015
4.975,-0.415,0.020
4.978,-0.420,0.015
4.981,-0.435,0.010
4.983,-0.450,0.040
4.986,-0.455,0.055
4.989,-0.450,0.050
4.992,-0.460,0.040
4.994,-0.465,0.005
4.997,-0.470,0.005
5.000,-0.465,0.015
5.003,-0.480,0.035
5.006,-0.480,0.040
5.008,-0.470,0.020
5.011,-0.490,0.000
5.014,-0.500,0.000
5.017,-0.490,0.020
5.019,-0.465,0.035
5.022,-0.445,0.030
5.025,-0.445,0.010
5.028,-0.435,-0.025
5.031,-0.450,-0.050
5.033,-0.465,-0.030
5.036,-0.490,-0.005
5.039,-0.490,-0.020
5.042,-0.490,-0.045
5.044,-0.485,-0.065
5.047,-0.485,-0.070
5.050,-0.485,-0.045
5.053,-0.495,-0.025
5.056,-0.470,-0.025
5.058,-0.480,-0.030
5.061,-0.495,-0.015
5.064,-0.470,-0.025
5.067,-0.470,-0.015
5.069,-0.440,-0.020
5.072,-0.435,-0.025
5.075,-0.425,-0.045
5.078,-0.450,-0.040
5.081,-0.455,-0.030
5.083,-0.450,0.000
5.086,-0.450,0.005
5.089,-0.420,0.015
5.092,-0.425,0.005
5.094,-0.410,-0.005
5.097,-0.405,-0.010
5.100,-0.380,0.005
5.103,-0.360,0.015
5.106,-0.330,0.025
5.108,-0.325,0.035
5.111,-0.340,0.025
5.114,-0.370,0.020
5.117,-0.375,0.040
5.119,-0.360,0.040
5.122,-0.360,0.030
5.125,-0.355,-0.030
5.128,-0.365,-0.090
5.131,-0.380,-0.125
5.133,-0.385,-0.135
5.136,-0.410,-0.150
5.139,-0.410,-0.155
5.142,-0.425,-0.175
5.144,-0.455,-0.180
5.147,-0.475,-0.170
5.150,-0.470,-0.155
5.153,-0.450,-0.145
5.156,-0.445,-0.135
5.158,-0.450,-0.145
5.161,-0.470,-0.175
5.164,-0.490,-0.160
5.167,-0.480,-0.150
5.169,-0.480,-0.155
5.172,-0.485,-0.160
5.175,-0.495,-0.180
5.178,-0.510,-0.195
5.181,-0.530,-0.210
5.183,-0.540,-0.200
5.186,-0.525,-0.185
5.189,-0.520,-0.195
5.192,-0.525,-0.220
5.194,-0.525,-0.240
5.197,-0.535,-0.250
5.200,-0.540,-0.255
5.203,-0.525,-0.235
5.206,-0.525,-0.220
5.208,-0.535,-0.240
5.211,-0.540,-0.255
5.214,-0.560,-0.260
5.217,-0.575,-0.260
5.219,-0.550,-0.270
5.222,-0.540,-0.255
5.225,-0.545,-0.265
5.228,-0.550,-0.240
5.231,-0.550,-0.225
5.233,-0.535,-0.210
5.236,-0.515,-0.205
5.239,-0.510,-0.200
5.242,-0.485,-0.215
5.244,-0.480,-0.210
5.247,-0.470,-0.205
5.250,-0.435,-0.165
5.253,-0.425,-0.150
5.256,-0.410,-0.125
5.258,-0.405,-0.105
5.261,-0.415,-0.095
5.264,-0.420,-0.065
5.267,-0.410,-0.035
5.269,-0.395,-0.015
5.272,-0.385,-0.030
5.275,-0.375,-0.050
5.278,-0.380,-0.065
5.281,-0.385,-0.050
5.283,-0.385,-0.020
5.286,-0.370,-0.025
5.289,-0.335,-0.015
5.292,-0.335,-0.030
5.294,-0.335,-0.060
5.297,-0.340,-0.075
5.300,-0.345,-0.075
5.303,-0.340,-0.070
5.306,-0.330,-0.075
5.308,-0.325,-0.060
5.311,-0.325,-0.050
5.314,-0.355,-0.020
5.317,-0.375,0.020
5.319,-0.365,0.030
5.322,-0.375,0.005
5.325,-0.400,-0.030
5.328,-0.455,-0.045
5.331,-0.505,-0.135
5.333,-0.520,-0.385
5.336,-0.485,-0.700
5.339,-0.435,-1.040
5.342,-0.400,-1.420
5.344,-0.355,-1.870
5.347,-0.310,-2.275
5.350,-0.275,-2.575
5.353,-0.245,-2.730
5.356,-0.210,-2.780
5.358,-0.175,-2.770
5.361,-0.125,-2.675
5.364,-0.025,-2.480
5.367,0.125,-2.095
5.369,0.300,-1.515
5.372,0.435,-0.880
5.375,0.485,-0.400
5.378,0.425,-0.145
5.381,0.370,-0.035
5.383,0.275,0.025
5.386,0.170,0.075
5.389,0.070,0.075
5.392,-0.035,0.095
5.394,-0.135,0.105
5.397,-0.230,0.125
5.400,-0.260,0.145
5.403,-0.265,0.155
5.406,-0.255,0.160
5.408,-0.250,0.135
5.411,-0.260,0.150
5.414,-0.285,0.160
5.417,-0.280,0.180
5.419,-0.280,0.205
5.422,-0.280,0.195
5.425,-0.295,0.200
5.428,-0.275,0.195
5.431,-0.270,0.190
5.433,-0.255,0.205
5.436,-0.245,0.220
5.439,-0.230,0.240
5.442,-0.230,0.230
5.444,-0.245,0.205
5.447,-0.255,0.195
5.450,-0.265,0.200
5.453,-0.245,0.205
5.456,-0.225,0.205
5.458,-0.220,0.200
5.461,-0.235,0.190
5.464,-0.225,0.190
5.467,-0.210,0.205
5.469,-0.215,0.215
5.472,-0.190,0.215
5.475,-0.180,0.220
5.478,-0.180,0.195
5.481,-0.175,0.185
5.483,-0.180,0.195
5.486,-0.170,0.195
5.489,-0.160,0.205
5.492,-0.170,0.225
5.494,-0.170,0.220
5.497,-0.185,0.225
5.500,-0.175,0.240
5.503,-0.160,0.230
5.506,-0.150,0.235
5.508,-0.145,0.225
5.511,-0.140,0.210
5.514,-0.165,0.205
5.517,-0.155,0.215
5.519,-0.135,0.225
5.522,-0.105,0.225
5.525,-0.110,0.215
5.528,-0.115,0.205
5.531,-0.115,0.195
5.533,-0.100,0.200
5.536,-0.085,0.185
5.539,-0.065,0.185
5.542,-0.065,0.175
5.544,-0.075,0.160
5.547,-0.085,0.145
5.550,-0.075,0.160
5.553,-0.045,0.165
5.556,-0.010,0.150
5.558,-0.030,0.140
5.561,-0.015,0.110
5.564,-0.025,0.095
5.567,-0.020,0.105
5.569,-0.015,0.100
5.572,0.000,0.085
5.575,0.000,0.065
5.578,-0.005,0.020
5.581,-0.020,-0.010
5.583,-0.025,-0.010
5.586,-0.025,-0.005
5.589,0.000,-0.020
5.592,0.005,-0.025
5.594,-0.015,-0.040
5.597,-0.030,-0.050
5.600,0.005,-0.055
5.603,0.005,-0.050
5.606,0.030,-0.050
5.608,0.030,-0.085
5.611,0.030,-0.125
5.614,0.010,-0.130
5.617,0.015,-0.140
5.619,0.020,-0.125
5.622,0.010,-0.125
5.625,0.005,-0.155
5.628,0.000,-0.160
5.631,-0.020,-0.160
5.633,-0.020,-0.145
5.636,-0.010,-0.145
5.639,0.000,-0.170
5.642,-0.025,-0.165
5.644,-0.035,-0.190
5.647,-0.065,-0.185
5.650,-0.085,-0.160
5.653,-0.085,-0.150
5.656,-0.085,-0.150
5.658,-0.080,-0.155
5.661,-0.115,-0.175
5.664,-0.125,-0.185
5.667,-0.135,-0.140
5.669,-0.140,-0.110
5.672,-0.125,-0.095
5.675,-0.145,-0.085
5.678,-0.155,-0.090
5.681,-0.175,-0.080
5.683,-0.200,-0.075
5.686,-0.200,-0.090
5.689,-0.200,-0.085
5.692,-0.205,-0.090
5.694,-0.210,-0.095
5.697,-0.230,-0.085
5.700,-0.240,-0.090
5.703,-0.235,-0.080
5.706,-0.245,-0.080
5.708,-0.250,-0.065
5.711,-0.260,-0.055
5.714,-0.285,-0.065
5.717,-0.275,-0.045
5.719,-0.255,-0.030
5.722,-0.245,-0.055
5.725,-0.255,-0.040
5.728,-0.275,-0.040
5.731,-0.310,-0.025
5.733,-0.300,0.005
5.736,-0.290,0.020
5.739,-0.270,0.020
5.742,-0.280,0.015
5.744,-0.295,-0.005
5.747,-0.315,-0.015
5.750,-0.325,0.010
5.753,-0.330,0.020
5.756,-0.330,0.040
5.758,-0.335,0.045
5.761,-0.355,0.050
5.764,-0.365,0.035
5.767,-0.355,0.050
5.769,-0.345,0.065
5.772,-0.340,0.070
5.775,-0.350,0.070
5.778,-0.375,0.065
5.781,-0.400,0.065
5.783,-0.410,0.075
5.786,-0.400,0.080
5.789,-0.395,0.075
5.792,-0.390,0.065
5.794,-0.410,0.050
5.797,-0.420,0.065
5.800,-0.425,0.090
5.803,-0.405,0.100
5.806,-0.410,0.085
5.808,-0.410,0.095
5.811,-0.425,0.065
5.814,-0.440,0.085
5.817,-0.430,0.075
5.819,-0.415,0.080
5.822,-0.405,0.060
5.825,-0.430,0.050
5.828,-0.450,0.035
5.831,-0.470,0.030
5.833,-0.460,0.045
5.836,-0.430,0.040
5.839,-0.410,0.035
5.842,-0.410,0.025
5.844,-0.420,0.010
5.847,-0.445,0.000
5.850,-0.465,0.030
5.853,-0.450,0.035
5.856,-0.425,0.045
5.858,-0.430,0.030
5.861,-0.415,0.020
5.864,-0.430,0.005
5.867,-0.415,0.000
5.869,-0.400,0.005
5.872,-0.395,0.020
5.875,-0.410,0.030
5.878,-0.415,0.020
5.881,-0.420,0.010
5.883,-0.385,0.025
5.886,-0.350,0.045
5.889,-0.335,0.050
5.892,-0.335,0.050
5.894,-0.340,0.045
5.897,-0.350,0.035
5.900,-0.345,0.035
5.903,-0.325,0.035
5.906,-0.305,0.070
5.908,-0.295,0.080
5.911,-0.295,0.065
5.914,-0.295,0.055
5.917,-0.305,0.085
5.919,-0.280,0.100
5.922,-0.275,0.065
5.925,-0.300,0.015
5.928,-0.315,-0.070
5.931,-0.340,-0.115
5.933,-0.340,-0.135
5.936,-0.335,-0.120
5.939,-0.350,-0.125
5.942,-0.360,-0.125
5.944,-0.385,-0.165
5.947,-0.405,-0.175
5.950,-0.415,-0.160
5.953,-0.435,-0.150
5.956,-0.435,-0.135
5.958,-0.430,-0.140
5.961,-0.435,-0.155
5.964,-0.430,-0.150
5.967,-0.420,-0.165
5.969,-0.385,-0.165
5.972,-0.390,-0.175
5.975,-0.405,-0.175
5.978,-0.460,-0.205
5.981,-0.470,-0.210
5.983,-0.475,-0.190
5.986,-0.475,-0.175
5.989,-0.465,-0.170
5.992,-0.445,-0.190
5.994,-0.455,-0.220
5.997,-0.440,-0.235
6.000,-0.460,-0.230
6.003,-0.475,-0.245
6.006,-0.480,-0.255
6.008,-0.490,-0.265
6.011,-0.500,-0.280
6.014,-0.500,-0.300
6.017,-0.480,-0.300
6.019,-0.465,-0.265
6.022,-0.450,-0.260
6.025,-0.470,-0.270
6.028,-0.515,-0.300
6.031,-0.545,-0.285
6.033,-0.540,-0.245
6.036,-0.515,-0.225
6.039,-0.465,-0.205
6.042,-0.425,-0.195
6.044,-0.395,-0.195
6.047,-0.390,-0.200
6.050,-0.390,-0.180
6.053,-0.395,-0.155
6.056,-0.385,-0.120
6.058,-0.390,-0.110
6.061,-0.385,-0.100
6.064,-0.370,-0.095
6.067,-0.340,-0.070
6.069,-0.310,-0.055
6.072,-0.315,-0.055
6.075,-0.350,-0.065
6.078,-0.365,-0.075
6.081,-0.375,-0.070
6.083,-0.370,-0.055
6.086,-0.355,-0.050
6.089,-0.335,-0.055
6.092,-0.310,-0.065
6.094,-0.310,-0.065
6.097,-0.300,-0.065
6.100,-0.295,-0.055
6.103,-0.305,-0.045
6.106,-0.300,-0.040
6.108,-0.315,-0.045
6.111,-0.345,-0.030
6.114,-0.375,-0.025
6.117,-0.375,-0.015
6.119,-0.380,-0.015
6.122,-0.385,-0.020
6.125,-0.445,-0.035
6.128,-0.490,-0.080
6.131,-0.525,-0.285
6.133,-0.515,-0.570
6.136,-0.480,-0.875
6.139,-0.465,-1.170
6.142,-0.440,-1.550
6.144,-0.420,-1.975
6.147,-0.370,-2.410
6.150,-0.335,-2.725
6.153,-0.310,-2.910
6.156,-0.270,-2.945
6.158,-0.245,-2.890
6.161,-0.155,-2.675
6.164,0.000,-2.245
6.167,0.220,-1.610
6.169,0.375,-0.975
6.172,0.425,-0.340
6.175,0.385,0.040
6.178,0.325,0.125
6.181,0.210,0.155
6.183,0.090,0.170
6.186,-0.035,0.190
6.189,-0.095,0.190
6.192,-0.140,0.195
6.194,-0.185,0.200
6.197,-0.230,0.225
6.200,-0.235,0.230
6.203,-0.235,0.200
6.206,-0.230,0.180
6.208,-0.250,0.170
6.211,-0.240,0.185
6.214,-0.265,0.195
6.217,-0.250,0.215
6.219,-0.240,0.230
6.222,-0.210,0.240
6.225,-0.210,0.235
6.228,-0.230,0.220
6.231,-0.250,0.210
6.233,-0.245,0.210
6.236,-0.260,0.215
6.239,-0.230,0.235
6.242,-0.205,0.220
6.244,-0.210,0.195
6.247,-0.230,0.180
6.250,-0.220,0.205
6.253,-0.180,0.235
6.256,-0.150,0.245
6.258,-0.155,0.230
6.261,-0.165,0.225
6.264,-0.175,0.225
6.267,-0.165,0.215
6.269,-0.150,0.220
6.272,-0.140,0.205
6.275,-0.145,0.200
6.278,-0.150,0.170
6.281,-0.170,0.145
6.283,-0.175,0.160
6.286,-0.160,0.185
6.289,-0.145,0.225
6.292,-0.130,0.230
6.294,-0.115,0.230
6.297,-0.125,0.215
6.300,-0.130,0.225
6.303,-0.120,0.210
6.306,-0.110,0.200
6.308,-0.110,0.165
6.311,-0.115,0.160
6.314,-0.100,0.185
6.317,-0.090,0.200
6.319,-0.065,0.200
6.322,-0.065,0.185
6.325,-0.065,0.170
6.328,-0.055,0.175
6.331,-0.050,0.175
6.333,-0.065,0.200
6.336,-0.040,0.190
6.339,-0.015,0.160
6.342,0.020,0.120
6.344,0.005,0.085
6.347,0.010,0.075
6.350,0.015,0.085
6.353,0.010,0.065
6.356,0.000,0.050
6.358,0.030,0.025
6.361,0.055,0.000
6.364,0.070,-0.010
6.367,0.080,-0.010
6.369,0.090,-0.015
6.372,0.110,-0.030
6.375,0.095,-0.070
6.378,0.085,-0.110
6.381,0.065,-0.125
6.383,0.060,-0.115
6.386,0.065,-0.110
6.389,0.095,-0.105
6.392,0.105,-0.140
6.394,0.105,-0.190
6.397,0.080,-0.220
6.400,0.075,-0.210
6.403,0.075,-0.190
6.406,0.095,-0.160
6.408,0.105,-0.170
6.411,0.085,-0.195
6.414,0.075,-0.240
6.417,0.080,-0.250
6.419,0.085,-0.255
6.422,0.100,-0.235
6.425,0.075,-0.250
6.428,0.065,-0.280
6.431,0.045,-0.295
6.433,0.045,-0.270
6.436,0.030,-0.225
6.439,0.030,-0.225
6.442,0.000,-0.210
6.444,-0.030,-0.215
6.447,-0.050,-0.235
6.450,-0.075,-0.255
6.453,-0.080,-0.265
6.456,-0.080,-0.240
6.458,-0.105,-0.230
6.461,-0.125,-0.230
6.464,-0.145,-0.230
6.467,-0.130,-0.225
6.469,-0.140,-0.220
6.472,-0.140,-0.195
6.475,-0.140,-0.200
6.478,-0.145,-0.190
6.481,-0.155,-0.200
6.483,-0.180,-0.185
6.486,-0.205,-0.175
6.489,-0.190,-0.130
6.492,-0.190,-0.130
6.494,-0.190,-0.125
6.497,-0.205,-0.155
6.500,-0.200,-0.160
6.503,-0.190,-0.145
6.506,-0.175,-0.135
6.508,-0.180,-0.125
6.511,-0.200,-0.135
6.514,-0.240,-0.130
6.517,-0.250,-0.125
6.519,-0.255,-0.115
6.522,-0.245,-0.095
6.525,-0.230,-0.085
6.528,-0.225,-0.090
6.531,-0.230,-0.080
6.533,-0.235,-0.055
6.536,-0.235,-0.035
6.539,-0.235,-0.020
6.542,-0.245,-0.035
6.544,-0.265,-0.065
6.547,-0.280,-0.060
6.550,-0.275,-0.040
6.553,-0.280,0.000
6.556,-0.285,0.015
6.558,-0.295,0.020
6.561,-0.300,0.005
6.564,-0.280,0.000
6.567,-0.285,-0.025
6.569,-0.290,-0.030
6.572,-0.295,-0.025
6.575,-0.300,-0.015
6.578,-0.345,-0.015
6.581,-0.335,-0.045
6.583,-0.325,-0.040
6.586,-0.310,-0.045
6.589,-0.325,-0.035
6.592,-0.345,-0.015
6.594,-0.350,-0.035
6.597,-0.355,-0.060
6.600,-0.340,-0.075
6.603,-0.295,-0.065
6.606,-0.270,-0.055
6.608,-0.265,-0.055
6.611,-0.305,-0.060
6.614,-0.310,-0.055
6.617,-0.335,-0.075
6.619,-0.325,-0.105
6.622,-0.295,-0.110
6.625,-0.295,-0.115
6.628,-0.315,-0.115
6.631,-0.325,-0.140
6.633,-0.325,-0.135
6.636,-0.320,-0.125
6.639,-0.300,-0.130
6.642,-0.305,-0.135
6.644,-0.310,-0.125
6.647,-0.315,-0.110
6.650,-0.280,-0.070
6.653,-0.220,-0.050
6.656,-0.200,-0.060
6.658,-0.195,-0.040
6.661,-0.195,-0.040
6.664,-0.205,-0.070
6.667,-0.195,-0.100
6.669,-0.185,-0.125
6.672,-0.145,-0.140
6.675,-0.145,-0.110
6.678,-0.155,-0.065
6.681,-0.165,-0.030
6.683,-0.180,-0.015
6.686,-0.170,-0.020
6.689,-0.185,-0.065
6.692,-0.185,-0.145
6.694,-0.230,-0.230
6.697,-0.275,-0.290
6.700,-0.270,-0.295
6.703,-0.265,-0.270
6.706,-0.245,-0.260
6.708,-0.260,-0.265
6.711,-0.260,-0.300
6.714,-0.260,-0.320
6.717,-0.295,-0.315
6.719,-0.315,-0.265
6.722,-0.330,-0.210
6.725,-0.335,-0.200
6.728,-0.340,-0.240
6.731,-0.315,-0.290
6.733,-0.320,-0.285
6.736,-0.305,-0.255
6.739,-0.295,-0.260
6.742,-0.295,-0.300
6.744,-0.320,-0.365
6.747,-0.345,-0.400
6.750,-0.350,-0.385
6.753,-0.315,-0.340
6.756,-0.280,-0.285
6.758,-0.305,-0.280
6.761,-0.320,-0.330
6.764,-0.360,-0.390
6.767,-0.395,-0.400
6.769,-0.410,-0.375
6.772,-0.420,-0.345
6.775,-0.410,-0.335
6.778,-0.400,-0.355
6.781,-0.385,-0.395
6.783,-0.370,-0.400
6.786,-0.380,-0.370
6.789,-0.420,-0.310
6.792,-0.440,-0.325
6.794,-0.465,-0.375
6.797,-0.485,-0.390
6.800,-0.475,-0.395
6.803,-0.450,-0.390
6.806,-0.410,-0.385
6.808,-0.400,-0.355
6.811,-0.390,-0.340
6.814,-0.380,-0.330
6.817,-0.375,-0.320
6.819,-0.380,-0.295
6.822,-0.365,-0.270
6.825,-0.350,-0.260
6.828,-0.350,-0.235
6.831,-0.350,-0.205
6.833,-0.375,-0.185
6.836,-0.385,-0.170
6.839,-0.370,-0.145
6.842,-0.355,-0.155
6.844,-0.335,-0.160
6.847,-0.310,-0.150
6.850,-0.295,-0.135
6.853,-0.275,-0.125
6.856,-0.280,-0.150
6.858,-0.295,-0.180
6.861,-0.310,-0.180
6.864,-0.310,-0.190
6.867,-0.310,-0.190
6.869,-0.300,-0.170
6.872,-0.290,-0.165
6.875,-0.300,-0.185
6.878,-0.305,-0.180
6.881,-0.325,-0.150
6.883,-0.340,-0.130
6.886,-0.370,-0.165
6.889,-0.400,-0.215
6.892,-0.440,-0.225
6.894,-0.485,-0.280
6.897,-0.470,-0.490
6.900,-0.435,-0.780
6.903,-0.400,-1.065
6.906,-0.355,-1.370
6.908,-0.350,-1.755
6.911,-0.335,-2.185
6.914,-0.305,-2.565
6.917,-0.260,-2.830
6.919,-0.235,-2.965
6.922,-0.200,-2.995
6.925,-0.170,-2.975
6.928,-0.105,-2.885
6.931,0.015,-2.655
6.933,0.220,-2.185
6.936,0.415,-1.550
6.939,0.535,-0.915
6.942,0.535,-0.305
6.944,0.470,-0.095
6.947,0.390,-0.010
6.950,0.275,0.035
6.953,0.130,0.050
6.956,0.000,0.005
6.958,-0.110,0.000
6.961,-0.155,0.050
6.964,-0.185,0.085
6.967,-0.205,0.085
6.969,-0.220,0.085
6.972,-0.220,0.080
6.975,-0.240,0.055
6.978,-0.265,0.030
6.981,-0.265,0.020
6.983,-0.265,0.045
6.986,-0.230,0.085
6.989,-0.235,0.120
6.992,-0.240,0.125
6.994,-0.265,0.120
6.997,-0.260,0.120
7.000,-0.260,0.105
7.003,-0.215,0.100
7.006,-0.200,0.100
7.008,-0.195,0.100
7.011,-0.225,0.110
7.014,-0.215,0.065
7.017,-0.230,0.060
7.019,-0.245,0.080
7.022,-0.225,0.100
7.025,-0.240,0.095
7.028,-0.240,0.080
7.031,-0.255,0.080
7.033,-0.245,0.090
7.036,-0.230,0.090
7.039,-0.195,0.125
7.042,-0.190,0.140
7.044,-0.190,0.115
7.047,-0.200,0.115
7.050,-0.200,0.125
7.053,-0.190,0.110
7.056,-0.185,0.105
7.058,-0.195,0.100
7.061,-0.210,0.080
7.064,-0.205,0.100
7.067,-0.180,0.120
7.069,-0.175,0.140
7.072,-0.160,0.115
7.075,-0.160,0.100
7.078,-0.165,0.060
7.081,-0.145,0.045
7.083,-0.140,0.090
7.086,-0.105,0.120
7.089,-0.095,0.135
7.092,-0.095,0.115
7.094,-0.120,0.095
7.097,-0.120,0.080
7.100,-0.125,0.100
7.103,-0.125,0.100
7.106,-0.100,0.075
7.108,-0.120,0.040
7.111,-0.110,0.030
7.114,-0.090,0.030
7.117,-0.075,0.020
7.119,-0.045,0.035
7.122,-0.020,0.040
7.125,-0.015,0.035
7.128,-0.005,0.005
7.131,-0.010,-0.020
7.133,-0.020,-0.055
7.136,-0.010,-0.055
7.139,-0.010,-0.030
7.142,-0.010,-0.050
7.144,-0.025,-0.075
7.147,-0.015,-0.070
7.150,-0.015,-0.045
7.153,0.010,-0.060
7.156,0.025,-0.080
7.158,0.040,-0.110
7.161,0.035,-0.135
7.164,0.035,-0.150
7.167,0.030,-0.155
7.169,0.055,-0.160
7.172,0.065,-0.220
7.175,0.085,-0.235
7.178,0.065,-0.270
7.181,0.035,-0.270
7.183,0.020,-0.275
7.186,-0.010,-0.270
7.189,-0.025,-0.270
7.192,-0.045,-0.245
7.194,-0.045,-0.265
7.197,-0.050,-0.290
7.200,-0.060,-0.285
7.203,-0.055,-0.270
7.206,-0.050,-0.270
7.208,-0.070,-0.275
7.211,-0.080,-0.305
7.214,-0.105,-0.315
7.217,-0.110,-0.305
7.219,-0.070,-0.275
7.222,-0.045,-0.250
7.225,-0.075,-0.255
7.228,-0.095,-0.255
7.231,-0.115,-0.265
7.233,-0.120,-0.270
7.236,-0.130,-0.255
7.239,-0.135,-0.245
7.242,-0.160,-0.240
7.244,-0.175,-0.220
7.247,-0.180,-0.210
7.250,-0.190,-0.220
7.253,-0.210,-0.230
7.256,-0.220,-0.220
7.258,-0.240,-0.205
7.261,-0.245,-0.205
7.264,-0.255,-0.195
7.267,-0.240,-0.190
7.269,-0.225,-0.185
7.272,-0.230,-0.175
7.275,-0.245,-0.160
7.278,-0.285,-0.150
7.281,-0.295,-0.160
7.283,-0.305,-0.160
7.286,-0.280,-0.135
7.289,-0.270,-0.135
7.292,-0.260,-0.140
7.294,-0.250,-0.150
7.297,-0.265,-0.135
7.300,-0.280,-0.135
7.303,-0.290,-0.125
7.306,-0.275,-0.100
7.308,-0.285,-0.080
7.311,-0.290,-0.090
7.314,-0.300,-0.105
7.317,-0.315,-0.130
7.319,-0.345,-0.095
7.322,-0.310,-0.060
7.325,-0.325,-0.060
7.328,-0.345,-0.070
7.331,-0.345,-0.090
7.333,-0.360,-0.075
7.336,-0.370,-0.050
7.339,-0.350,0.000
7.342,-0.350,-0.005
7.344,-0.355,-0.025
7.347,-0.360,-0.055
7.350,-0.355,-0.060
7.353,-0.350,-0.025
7.356,-0.335,-0.005
7.358,-0.350,-0.030
7.361,-0.360,-0.035
7.364,-0.385,-0.025
7.367,-0.380,-0.010
7.369,-0.355,-0.005
7.372,-0.345,0.010
7.375,-0.360,0.005
7.378,-0.360,0.010
7.381,-0.370,-0.010
7.383,-0.385,-0.005
7.386,-0.375,0.010
7.389,-0.340,0.050
7.392,-0.360,0.065
7.394,-0.355,0.060
7.397,-0.355,0.055
7.400,-0.350,0.030
7.403,-0.325,0.005
7.406,-0.335,-0.035
7.408,-0.330,-0.060
7.411,-0.355,-0.065
7.414,-0.355,-0.035
7.417,-0.390,0.005
7.419,-0.400,0.035
7.422,-0.410,0.025
7.425,-0.400,0.015
7.428,-0.405,0.005
7.431,-0.390,0.000
7.433,-0.405,0.000
7.436,-0.410,0.005
7.439,-0.420,-0.005
7.442,-0.420,0.015
7.444,-0.405,-0.015
7.447,-0.390,-0.040
7.450,-0.390,-0.040
7.453,-0.375,-0.045
7.456,-0.370,-0.020
7.458,-0.355,-0.025
7.461,-0.350,-0.050
7.464,-0.350,-0.075
7.467,-0.350,-0.070
7.469,-0.340,-0.030
7.472,-0.340,-0.005
7.475,-0.330,-0.005
7.478,-0.295,0.010
7.481,-0.295,-0.010
7.483,-0.270,-0.030
7.486,-0.255,-0.015
7.489,-0.230,0.015
7.492,-0.250,0.030
7.494,-0.260,0.025
7.497,-0.260,0.015
7.500,-0.260,-0.005
7.503,-0.240,-0.065
7.506,-0.240,-0.135
7.508,-0.250,-0.160
7.511,-0.280,-0.175
7.514,-0.310,-0.195
7.517,-0.355,-0.210
7.519,-0.385,-0.200
7.522,-0.380,-0.195
7.525,-0.390,-0.195
7.528,-0.400,-0.225
7.531,-0.410,-0.245
7.533,-0.440,-0.250
7.536,-0.425,-0.235
7.539,-0.430,-0.225
7.542,-0.450,-0.200
7.544,-0.450,-0.180
7.547,-0.435,-0.170
7.550,-0.445,-0.190
7.553,-0.440,-0.185
7.556,-0.405,-0.200
7.558,-0.400,-0.225
7.561,-0.430,-0.250
7.564,-0.440,-0.245
7.567,-0.475,-0.275
7.569,-0.480,-0.280
7.572,-0.470,-0.275
7.575,-0.495,-0.265
7.578,-0.525,-0.265
7.581,-0.530,-0.265
7.583,-0.515,-0.275
7.586,-0.510,-0.285
7.589,-0.490,-0.305
7.592,-0.485,-0.310
7.594,-0.515,-0.325
7.597,-0.535,-0.305
7.600,-0.525,-0.295
7.603,-0.520,-0.295
7.606,-0.475,-0.290
7.608,-0.495,-0.280
7.611,-0.510,-0.295
7.614,-0.535,-0.300
7.617,-0.545,-0.285
7.619,-0.535,-0.260
7.622,-0.490,-0.220
7.625,-0.460,-0.215
7.628,-0.425,-0.210
7.631,-0.410,-0.220
7.633,-0.410,-0.195
7.636,-0.415,-0.170
7.639,-0.415,-0.140
7.642,-0.415,-0.125
7.644,-0.400,-0.115
7.647,-0.410,-0.085
7.650,-0.405,-0.080
7.653,-0.405,-0.070
7.656,-0.395,-0.050
7.658,-0.395,-0.060
7.661,-0.375,-0.085
7.664,-0.370,-0.105
7.667,-0.350,-0.095
7.669,-0.340,-0.095
7.672,-0.375,-0.080
7.675,-0.400,-0.065
7.678,-0.405,-0.080
7.681,-0.390,-0.080
7.683,-0.375,-0.110
7.686,-0.360,-0.105
7.689,-0.330,-0.080
7.692,-0.365,-0.040
7.694,-0.385,-0.040
7.697,-0.425,-0.080
7.700,-0.450,-0.090
7.703,-0.465,-0.100
7.706,-0.495,-0.070
7.708,-0.540,-0.060
7.711,-0.550,-0.230
7.714,-0.550,-0.560
7.717,-0.545,-0.885
7.719,-0.515,-1.205
7.722,-0.485,-1.560
7.725,-0.465,-1.910
7.728,-0.445,-2.260
7.731,-0.420,-2.585
7.733,-0.380,-2.840
7.736,-0.365,-2.975
7.739,-0.325,-3.020
7.742,-0.295,-2.965
7.744,-0.210,-2.800
7.747,-0.030,-2.395
7.750,0.175,-1.760
7.753,0.350,-1.125
7.756,0.420,-0.490
7.758,0.380,0.095
7.761,0.335,0.190
7.764,0.240,0.195
7.767,0.105,0.195
7.769,-0.030,0.195
7.772,-0.125,0.190
7.775,-0.210,0.215
7.778,-0.265,0.245
7.781,-0.305,0.245
7.783,-0.315,0.260
7.786,-0.290,0.270
7.789,-0.280,0.255
7.792,-0.275,0.220
7.794,-0.285,0.205
7.797,-0.310,0.195
7.800,-0.325,0.195
7.803,-0.310,0.210
7.806,-0.300,0.220
7.808,-0.310,0.235
7.811,-0.310,0.240
7.814,-0.310,0.235
7.817,-0.295,0.240
7.819,-0.295,0.240
7.822,-0.280,0.240
7.825,-0.280,0.225
7.828,-0.280,0.235
7.831,-0.290,0.250
7.833,-0.290,0.275
7.836,-0.270,0.300
7.839,-0.260,0.280
7.842,-0.270,0.255
7.844,-0.285,0.230
7.847,-0.305,0.235
7.850,-0.295,0.260
7.853,-0.280,0.260
7.856,-0.215,0.265
7.858,-0.205,0.245
7.861,-0.225,0.235
7.864,-0.240,0.235
7.867,-0.245,0.250
7.869,-0.230,0.255
7.872,-0.205,0.250
7.875,-0.215,0.270
7.878,-0.225,0.260
7.881,-0.220,0.255
7.883,-0.180,0.270
7.886,-0.155,0.265
7.889,-0.130,0.250
7.892,-0.130,0.240
7.894,-0.155,0.230
7.897,-0.160,0.230
7.900,-0.175,0.215
7.903,-0.155,0.195
7.906,-0.130,0.185
7.908,-0.115,0.195
7.911,-0.100,0.220
7.914,-0.095,0.225
7.917,-0.110,0.195
7.919,-0.110,0.185
7.922,-0.110,0.145
7.925,-0.110,0.140
7.928,-0.120,0.135
7.931,-0.110,0.120
7.933,-0.070,0.105
7.936,-0.070,0.105
7.939,-0.060,0.105
7.942,-0.065,0.115
7.944,-0.070,0.105
7.947,-0.065,0.115
7.950,-0.045,0.095
7.953,-0.010,0.085
7.956,0.025,0.050
7.958,0.025,0.030
7.961,0.015,0.005
7.964,0.010,-0.035
7.967,-0.015,-0.075
7.969,-0.005,-0.075
7.972,-0.005,-0.095
7.975,-0.010,-0.100
7.978,0.025,-0.130
7.981,0.025,-0.140
7.983,0.010,-0.140
7.986,0.010,-0.140
7.989,0.015,-0.135
7.992,0.005,-0.150
7.994,-0.015,-0.150
7.997,-0.015,-0.175
8.000,-0.025,-0.190
8.003,-0.030,-0.210
8.006,-0.025,-0.230
8.008,-0.030,-0.220
8.011,-0.035,-0.215
8.014,-0.045,-0.210
8.017,-0.055,-0.200
8.019,-0.045,-0.175
8.022,-0.045,-0.185
8.025,-0.080,-0.230
8.028,-0.120,-0.255
8.031,-0.145,-0.250
8.033,-0.155,-0.215
8.036,-0.155,-0.175
8.039,-0.150,-0.160
8.042,-0.160,-0.145
8.044,-0.145,-0.140
8.047,-0.140,-0.150
8.050,-0.165,-0.130
8.053,-0.165,-0.125
8.056,-0.165,-0.125
8.058,-0.175,-0.135
8.061,-0.180,-0.120
8.064,-0.235,-0.130
8.067,-0.245,-0.115
8.069,-0.255,-0.120
8.072,-0.260,-0.120
8.075,-0.255,-0.125
8.078,-0.275,-0.145
8.081,-0.280,-0.135
8.083,-0.285,-0.100
8.086,-0.300,-0.065
8.089,-0.280,-0.060
8.092,-0.295,-0.070
8.094,-0.305,-0.055
8.097,-0.325,-0.040
8.100,-0.325,-0.025
8.103,-0.320,-0.015
8.106,-0.320,-0.020
8.108,-0.315,-0.035
8.111,-0.320,-0.045
8.114,-0.300,-0.035
8.117,-0.285,-0.040
8.119,-0.315,-0.030
8.122,-0.325,-0.035
8.125,-0.330,-0.030
8.128,-0.340,-0.035
8.131,-0.370,-0.030
8.133,-0.385,-0.010
8.136,-0.360,-0.005
8.139,-0.365,0.000
8.142,-0.360,0.000
8.144,-0.345,0.010
8.147,-0.360,0.020
8.150,-0.365,0.040
8.153,-0.380,0.055
8.156,-0.395,0.055
8.158,-0.395,0.030
8.161,-0.395,0.035
8.164,-0.425,0.035
8.167,-0.435,0.050
8.169,-0.425,0.050
8.172,-0.405,0.060
8.175,-0.435,0.030
8.178,-0.470,0.005
8.181,-0.470,0.005
8.183,-0.460,0.010
8.186,-0.455,0.035
8.189,-0.430,0.050
8.192,-0.425,0.050
8.194,-0.430,0.040
8.197,-0.440,0.010
8.200,-0.455,0.005
8.203,-0.455,0.005
8.206,-0.460,0.025
8.208,-0.485,0.035
8.211,-0.505,0.030
8.214,-0.480,0.005
8.217,-0.480,-0.010
8.219,-0.445,-0.020
8.222,-0.455,-0.015
8.225,-0.445,-0.020
8.228,-0.455,-0.010
8.231,-0.460,-0.005
8.233,-0.475,-0.010
8.236,-0.465,-0.020
8.239,-0.455,-0.020
8.242,-0.445,-0.025
8.244,-0.435,-0.035
8.247,-0.430,-0.030
8.250,-0.415,-0.025
8.253,-0.425,-0.010
8.256,-0.425,-0.015
8.258,-0.435,0.010
8.261,-0.435,0.025
8.264,-0.430,-0.010
8.267,-0.410,-0.040
8.269,-0.365,-0.035
8.272,-0.335,0.000
8.275,-0.335,0.055
8.278,-0.360,0.070
8.281,-0.360,0.045
8.283,-0.360,0.035
8.286,-0.340,0.010
8.289,-0.335,0.020
8.292,-0.345,0.040
8.294,-0.350,0.040
8.297,-0.350,0.045
8.300,-0.345,0.050
8.303,-0.325,0.060
8.306,-0.315,0.070
8.308,-0.320,0.065
8.311,-0.325,0.025
8.314,-0.325,-0.045
8.317,-0.350,-0.100
8.319,-0.345,-0.135
8.322,-0.360,-0.160
8.325,-0.390,-0.175
8.328,-0.400,-0.195
8.331,-0.410,-0.200
8.333,-0.420,-0.175
8.336,-0.410,-0.150
8.339,-0.415,-0.155
8.342,-0.455,-0.150
8.344,-0.465,-0.155
8.347,-0.470,-0.160
8.350,-0.485,-0.155
8.353,-0.465,-0.165
8.356,-0.445,-0.190
8.358,-0.455,-0.225
8.361,-0.470,-0.235
8.364,-0.470,-0.230
8.367,-0.465,-0.215
8.369,-0.455,-0.205
8.372,-0.460,-0.195
8.375,-0.470,-0.200
8.378,-0.500,-0.220
8.381,-0.550,-0.235
8.383,-0.550,-0.245
8.386,-0.540,-0.250
8.389,-0.530,-0.260
8.392,-0.520,-0.260
8.394,-0.515,-0.255
8.397,-0.530,-0.265
8.400,-0.535,-0.255
8.403,-0.540,-0.250
8.406,-0.535,-0.270
8.408,-0.550,-0.300
8.411,-0.550,-0.290
8.414,-0.555,-0.285
8.417,-0.555,-0.290
8.419,-0.550,-0.285
8.422,-0.540,-0.280
8.425,-0.540,-0.270
8.428,-0.550,-0.275
8.431,-0.570,-0.270
8.433,-0.580,-0.275
8.436,-0.575,-0.285
8.439,-0.565,-0.285
8.442,-0.575,-0.280
8.444,-0.580,-0.295
8.447,-0.580,-0.290
8.450,-0.565,-0.240
8.453,-0.530,-0.195
8.456,-0.495,-0.170
8.458,-0.495,-0.135
8.461,-0.500,-0.115
8.464,-0.515,-0.165
8.467,-0.515,-0.175
8.469,-0.470,-0.150
8.472,-0.440,-0.105
8.475,-0.420,-0.065
8.478,-0.435,-0.055
8.481,-0.440,-0.065
8.483,-0.450,-0.090
8.486,-0.445,-0.080
8.489,-0.455,-0.065
8.492,-0.465,-0.075
8.494,-0.485,-0.100
8.497,-0.490,-0.115
8.500,-0.470,-0.105
8.503,-0.440,-0.095
8.506,-0.425,-0.065
8.508,-0.410,-0.060
8.511,-0.425,-0.050
8.514,-0.430,-0.060
8.517,-0.435,-0.045
8.519,-0.440,-0.060
8.522,-0.445,-0.045
8.525,-0.430,-0.040
8.528,-0.440,-0.040
8.531,-0.470,-0.060
8.533,-0.495,-0.075
8.536,-0.510,-0.085
8.539,-0.535,-0.100
8.542,-0.590,-0.085
8.544,-0.615,-0.170
8.547,-0.620,-0.375
8.550,-0.585,-0.640
8.553,-0.545,-0.880
8.556,-0.510,-1.170
8.558,-0.485,-1.510
8.561,-0.420,-1.905
8.564,-0.370,-2.305
8.567,-0.360,-2.610
8.569,-0.355,-2.805
8.572,-0.330,-2.900
8.575,-0.325,-2.920
8.578,-0.300,-2.895
8.581,-0.210,-2.800
8.583,-0.065,-2.560
8.586,0.120,-2.125
8.589,0.315,-1.490
8.592,0.410,-0.855
8.594,0.425,-0.285
8.597,0.375,-0.045
8.600,0.310,0.055
8.603,0.215,0.130
8.606,0.075,0.155
8.608,-0.065,0.140
8.611,-0.190,0.120
8.614,-0.270,0.130
8.617,-0.310,0.165
8.619,-0.320,0.190
8.622,-0.325,0.205
8.625,-0.335,0.190
8.628,-0.365,0.200
8.631,-0.380,0.165
8.633,-0.400,0.170
8.636,-0.375,0.190
8.639,-0.345,0.220
8.642,-0.335,0.215
8.644,-0.315,0.235
8.647,-0.335,0.240
8.650,-0.330,0.235
8.653,-0.320,0.240
8.656,-0.325,0.215
8.658,-0.340,0.185
8.661,-0.375,0.160
8.664,-0.375,0.170
8.667,-0.375,0.165
8.669,-0.345,0.185
8.672,-0.315,0.195
8.675,-0.310,0.225
8.678,-0.330,0.225
8.681,-0.350,0.215
8.683,-0.390,0.220
8.686,-0.395,0.225
8.689,-0.370,0.225
8.692,-0.325,0.200
8.694,-0.305,0.195
8.697,-0.290,0.180
8.700,-0.285,0.185
8.703,-0.295,0.210
8.706,-0.295,0.220
8.708,-0.285,0.205
8.711,-0.265,0.190
8.714,-0.270,0.185
8.717,-0.285,0.185
8.719,-0.270,0.205
8.722,-0.255,0.230
8.725,-0.255,0.255
8.728,-0.270,0.245
8.731,-0.275,0.235
8.733,-0.275,0.215
8.736,-0.255,0.205
8.739,-0.250,0.200
8.742,-0.255,0.190
8.744,-0.260,0.155
8.747,-0.250,0.120
8.750,-0.245,0.135
8.753,-0.235,0.160
8.756,-0.215,0.175
8.758,-0.215,0.200
8.761,-0.215,0.190
8.764,-0.215,0.175
8.767,-0.185,0.180
8.769,-0.160,0.195
8.772,-0.135,0.185
8.775,-0.120,0.160
8.778,-0.105,0.110
8.781,-0.145,0.075
8.783,-0.150,0.055
8.786,-0.145,0.065
8.789,-0.135,0.095
8.792,-0.115,0.100
8.794,-0.115,0.080
8.797,-0.120,0.020
8.800,-0.110,0.045
8.803,-0.095,0.045
8.806,-0.100,0.055
8.808,-0.095,0.030
8.811,-0.110,-0.010
8.814,-0.130,-0.025
8.817,-0.145,-0.035
8.819,-0.125,-0.065
8.822,-0.095,-0.065
8.825,-0.075,-0.090
8.828,-0.060,-0.120
8.831,-0.050,-0.140
8.833,-0.050,-0.140
8.836,-0.060,-0.115
8.839,-0.050,-0.120
8.842,-0.065,-0.120
8.844,-0.075,-0.155
8.847,-0.085,-0.190
8.850,-0.090,-0.220
8.853,-0.085,-0.230
8.856,-0.085,-0.205
8.858,-0.090,-0.185
8.861,-0.105,-0.175
8.864,-0.115,-0.170
8.867,-0.130,-0.155
8.869,-0.135,-0.145
8.872,-0.140,-0.155
8.875,-0.170,-0.175
8.878,-0.185,-0.210
8.881,-0.165,-0.220
8.883,-0.145,-0.215
8.886,-0.150,-0.200
8.889,-0.170,-0.170
8.892,-0.210,-0.170
8.894,-0.215,-0.180
8.897,-0.245,-0.155
8.900,-0.265,-0.130
8.903,-0.245,-0.135
8.906,-0.230,-0.145
8.908,-0.230,-0.150
8.911,-0.255,-0.190
8.914,-0.265,-0.205
8.917,-0.300,-0.190
8.919,-0.305,-0.155
8.922,-0.315,-0.130
8.925,-0.310,-0.090
8.928,-0.330,-0.085
8.931,-0.355,-0.080
8.933,-0.360,-0.060
8.936,-0.335,-0.055
8.939,-0.300,-0.060
8.942,-0.290,-0.075
8.944,-0.305,-0.085
8.947,-0.320,-0.085
8.950,-0.335,-0.065
8.953,-0.345,-0.050
8.956,-0.340,-0.030
8.958,-0.355,-0.030
8.961,-0.365,-0.050
8.964,-0.350,-0.055
8.967,-0.360,-0.060
8.969,-0.350,-0.070
8.972,-0.350,-0.065
8.975,-0.360,-0.035
8.978,-0.375,-0.030
8.981,-0.380,-0.025
8.983,-0.395,0.000
8.986,-0.370,0.025
8.989,-0.365,0.040
8.992,-0.325,0.030
8.994,-0.325,0.005
8.997,-0.335,-0.010
9.000,-0.330,0.000
9.003,-0.335,0.005
9.006,-0.345,0.035
9.008,-0.380,0.035
9.011,-0.375,0.030
9.014,-0.385,0.030
9.017,-0.395,0.045
9.019,-0.375,0.060
9.022,-0.370,0.075
9.025,-0.370,0.080
9.028,-0.375,0.085
9.031,-0.390,0.070
9.033,-0.420,0.055
9.036,-0.420,0.060
9.039,-0.425,0.060
9.042,-0.400,0.065
9.044,-0.410,0.035
9.047,-0.415,0.005
9.050,-0.425,0.015
9.053,-0.425,0.050
9.056,-0.415,0.070
9.058,-0.400,0.080
9.061,-0.410,0.060
9.064,-0.445,0.025
9.067,-0.465,0.015
9.069,-0.465,0.040
9.072,-0.455,0.055
9.075,-0.425,0.035
9.078,-0.415,0.025
9.081,-0.400,0.015
9.083,-0.415,0.050
9.086,-0.415,0.045
9.089,-0.420,0.055
9.092,-0.415,0.065
9.094,-0.420,0.050
9.097,-0.425,0.025
9.100,-0.415,0.005
9.103,-0.410,-0.005
9.106,-0.400,0.005
9.108,-0.405,0.020
9.111,-0.405,0.035
9.114,-0.425,0.025
9.117,-0.440,0.030
9.119,-0.425,0.035
9.122,-0.430,0.045
9.125,-0.395,0.035
9.128,-0.400,0.005
9.131,-0.410,-0.045
9.133,-0.385,-0.040
9.136,-0.370,-0.015
9.139,-0.360,0.015
9.142,-0.330,0.035
9.144,-0.330,0.040
9.147,-0.340,0.060
9.150,-0.335,0.075
9.153,-0.290,0.085
9.156,-0.250,0.090
9.158,-0.245,0.090
9.161,-0.255,0.060
9.164,-0.265,0.050
9.167,-0.275,0.045
9.169,-0.270,0.065
9.172,-0.280,0.080
9.175,-0.290,0.040
9.178,-0.290,-0.015
9.181,-0.295,-0.065
9.183,-0.315,-0.125
9.186,-0.305,-0.150
9.189,-0.295,-0.160
9.192,-0.315,-0.175
9.194,-0.335,-0.200
9.197,-0.370,-0.200
9.200,-0.410,-0.180
9.203,-0.425,-0.165
9.206,-0.420,-0.145
9.208,-0.415,-0.130
9.211,-0.410,-0.135
9.214,-0.415,-0.145
9.217,-0.410,-0.145
9.219,-0.395,-0.140
9.222,-0.390,-0.155
9.225,-0.410,-0.165
9.228,-0.430,-0.195
9.231,-0.445,-0.205
9.233,-0.460,-0.205
9.236,-0.450,-0.180
9.239,-0.435,-0.170
9.242,-0.425,-0.175
9.244,-0.425,-0.180
9.247,-0.450,-0.175
9.250,-0.460,-0.160
9.253,-0.450,-0.170
9.256,-0.455,-0.170
9.258,-0.460,-0.195
9.261,-0.485,-0.260
9.264,-0.500,-0.340
9.267,-0.495,-0.355
9.269,-0.470,-0.315
9.272,-0.480,-0.290
9.275,-0.475,-0.280
9.278,-0.495,-0.300
9.281,-0.495,-0.310
9.283,-0.495,-0.310
9.286,-0.490,-0.290
9.289,-0.495,-0.290
9.292,-0.515,-0.280
9.294,-0.535,-0.285
9.297,-0.530,-0.285
9.300,-0.525,-0.270
9.303,-0.500,-0.245
9.306,-0.470,-0.235
9.308,-0.440,-0.220
9.311,-0.410,-0.210
9.314,-0.390,-0.215
9.317,-0.370,-0.205
9.319,-0.355,-0.155
9.322,-0.375,-0.115
9.325,-0.370,-0.075
9.328,-0.375,-0.075
9.331,-0.360,-0.085
9.333,-0.350,-0.045
9.336,-0.340,-0.020
9.339,-0.330,0.005
9.342,-0.340,-0.010
9.344,-0.350,-0.025
9.347,-0.365,-0.045
9.350,-0.370,-0.040
9.353,-0.355,-0.060
9.356,-0.340,-0.060
9.358,-0.330,-0.055
9.361,-0.315,-0.070
9.364,-0.325,-0.095
9.367,-0.330,-0.075
9.369,-0.305,-0.035
9.372,-0.290,-0.020
9.375,-0.290,-0.025
9.378,-0.290,-0.045
9.381,-0.305,-0.075
9.383,-0.310,-0.055
9.386,-0.310,-0.020
9.389,-0.330,0.000
9.392,-0.365,-0.020
9.394,-0.420,-0.045
9.397,-0.460,-0.055
9.400,-0.500,-0.010
9.403,-0.520,0.000
9.406,-0.505,-0.130
9.408,-0.460,-0.405
9.411,-0.410,-0.710
9.414,-0.380,-1.025
9.417,-0.325,-1.370
9.419,-0.270,-1.750
9.422,-0.250,-2.165
9.425,-0.235,-2.505
9.428,-0.220,-2.745
9.431,-0.210,-2.845
9.433,-0.185,-2.845
9.436,-0.095,-2.755
9.439,0.045,-2.540
9.442,0.245,-2.175
9.444,0.440,-1.575
9.447,0.555,-0.940
9.450,0.570,-0.390
9.453,0.530,-0.060
9.456,0.460,0.080
9.458,0.365,0.145
9.461,0.250,0.170
9.464,0.090,0.135
9.467,-0.040,0.095
9.469,-0.125,0.110
9.472,-0.165,0.180
9.475,-0.195,0.230
9.478,-0.225,0.240
9.481,-0.230,0.205
9.483,-0.245,0.190
9.486,-0.240,0.180
9.489,-0.220,0.185
9.492,-0.195,0.190
9.494,-0.180,0.195
9.497,-0.205,0.180
9.500,-0.235,0.195
9.503,-0.240,0.220
9.506,-0.250,0.245
9.508,-0.260,0.255
9.511,-0.270,0.225
9.514,-0.265,0.220
9.517,-0.245,0.225
9.519,-0.215,0.235
9.522,-0.215,0.255
9.525,-0.185,0.240
9.528,-0.190,0.200
9.531,-0.195,0.185
9.533,-0.205,0.175
9.536,-0.205,0.200
9.539,-0.185,0.205
9.542,-0.180,0.210
9.544,-0.195,0.200
9.547,-0.190,0.200
9.550,-0.195,0.210
9.553,-0.205,0.235
9.556,-0.190,0.215
9.558,-0.195,0.220
9.561,-0.170,0.235
9.564,-0.170,0.225
9.567,-0.145,0.205
9.569,-0.140,0.210
9.572,-0.115,0.220
9.575,-0.115,0.240
9.578,-0.130,0.205
9.581,-0.150,0.180
9.583,-0.150,0.165
9.586,-0.165,0.165
9.589,-0.140,0.175
9.592,-0.140,0.180
9.594,-0.120,0.195
9.597,-0.110,0.190
9.600,-0.090,0.205
9.603,-0.085,0.210
9.606,-0.090,0.210
9.608,-0.105,0.200
9.611,-0.125,0.195
9.614,-0.135,0.180
9.617,-0.140,0.190
9.619,-0.140,0.195
9.622,-0.115,0.210
9.625,-0.105,0.215
9.628,-0.100,0.220
9.631,-0.090,0.220
9.633,-0.070,0.190
9.636,-0.050,0.170
9.639,-0.045,0.155
9.642,-0.010,0.155
9.644,-0.025,0.135
9.647,-0.025,0.125
9.650,-0.015,0.120
9.653,0.005,0.105
9.656,0.005,0.090
9.658,0.030,0.085
9.661,0.030,0.070
9.664,0.015,0.060
9.667,-0.005,0.055
9.669,-0.015,0.040
9.672,-0.005,0.035
9.675,0.010,0.025
9.678,0.035,0.000
9.681,0.065,-0.025
9.683,0.085,-0.035
9.686,0.080,-0.040
9.689,0.060,-0.040
9.692,0.045,-0.065
9.694,0.035,-0.110
9.697,0.035,-0.125
9.700,0.045,-0.110
9.703,0.065,-0.100
9.706,0.070,-0.110
9.708,0.080,-0.140
9.711,0.085,-0.145
9.714,0.055,-0.145
9.717,0.045,-0.135
9.719,0.045,-0.125
9.722,0.040,-0.115
9.725,0.035,-0.135
9.728,0.010,-0.155
9.731,0.010,-0.160
9.733,0.020,-0.175
9.736,0.030,-0.165
9.739,0.030,-0.145
9.742,0.020,-0.150
9.744,-0.020,-0.165
9.747,-0.055,-0.200
9.750,-0.085,-0.235
9.753,-0.075,-0.235
9.756,-0.080,-0.215
9.758,-0.075,-0.195
9.761,-0.080,-0.170
9.764,-0.080,-0.140
9.767,-0.105,-0.105
9.769,-0.120,-0.110
9.772,-0.125,-0.135
9.775,-0.140,-0.145
9.778,-0.165,-0.135
9.781,-0.185,-0.150
9.783,-0.205,-0.110
9.786,-0.195,-0.110
9.789,-0.190,-0.085
9.792,-0.205,-0.070
9.794,-0.200,-0.070
9.797,-0.200,-0.085
9.800,-0.215,-0.080
9.803,-0.230,-0.075
9.806,-0.215,-0.080
9.808,-0.225,-0.085
9.811,-0.235,-0.050
9.814,-0.245,-0.045
9.817,-0.270,-0.060
9.819,-0.260,-0.080
9.822,-0.265,-0.070
9.825,-0.260,-0.055
9.828,-0.270,-0.035
9.831,-0.275,-0.035
9.833,-0.285,-0.015
9.836,-0.270,0.000
9.839,-0.260,0.020
9.842,-0.250,0.035
9.844,-0.265,0.000
9.847,-0.280,-0.015
9.850,-0.285,0.020
9.853,-0.300,0.050
9.856,-0.315,0.045
9.858,-0.320,0.010
9.861,-0.320,0.005
9.864,-0.330,0.010
9.867,-0.315,0.055
9.869,-0.285,0.065
9.872,-0.280,0.080
9.875,-0.280,0.095
9.878,-0.315,0.090
9.881,-0.335,0.065
9.883,-0.345,0.075
9.886,-0.330,0.090
9.889,-0.340,0.080
9.892,-0.350,0.080
9.894,-0.355,0.055
9.897,-0.375,0.050
9.900,-0.390,0.040
9.903,-0.385,0.050
9.906,-0.390,0.060
9.908,-0.385,0.070
9.911,-0.380,0.065
9.914,-0.365,0.060
9.917,-0.390,0.070
9.919,-0.390,0.075
9.922,-0.385,0.085
9.925,-0.380,0.075
9.928,-0.380,0.050
9.931,-0.395,0.015
9.933,-0.390,0.005
9.936,-0.385,-0.005
9.939,-0.355,0.015
9.942,-0.355,0.015
9.944,-0.365,0.000
9.947,-0.390,0.000
9.950,-0.405,0.035
9.953,-0.400,0.055
9.956,-0.370,0.030
9.958,-0.345,0.015
9.961,-0.325,-0.010
9.964,-0.330,-0.020
9.967,-0.350,0.030
9.969,-0.350,0.045
9.972,-0.345,0.065
9.975,-0.330,0.045
9.978,-0.310,0.015
9.981,-0.310,0.015
9.983,-0.300,0.055
9.986,-0.275,0.070
9.989,-0.255,0.080
9.992,-0.230,0.095
9.994,-0.230,0.090
9.997,-0.230,0.070
10.000,-0.250,0.070
10.003,-0.260,0.055
10.006,-0.250,0.080
10.008,-0.235,0.080
10.011,-0.220,0.030
10.014,-0.235,-0.065
10.017,-0.250,-0.125
10.019,-0.285,-0.165
10.022,-0.305,-0.165
10.025,-0.330,-0.140
10.028,-0.340,-0.135
10.031,-0.350,-0.135
10.033,-0.375,-0.140
10.036,-0.380,-0.150
10.039,-0.370,-0.150
10.042,-0.380,-0.145
10.044,-0.395,-0.155
10.047,-0.420,-0.175
10.050,-0.435,-0.195
10.053,-0.435,-0.185
10.056,-0.425,-0.180
10.058,-0.420,-0.130
10.061,-0.415,-0.140
10.064,-0.425,-0.190
10.067,-0.410,-0.205
10.069,-0.420,-0.200
10.072,-0.430,-0.210
10.075,-0.445,-0.190
10.078,-0.465,-0.205
10.081,-0.470,-0.215
10.083,-0.470,-0.215
10.086,-0.460,-0.215
10.089,-0.450,-0.210
10.092,-0.460,-0.215
10.094,-0.480,-0.245
10.097,-0.475,-0.240
10.100,-0.495,-0.245
10.103,-0.495,-0.245
10.106,-0.510,-0.240
10.108,-0.495,-0.240
10.111,-0.500,-0.240
10.114,-0.505,-0.235
10.117,-0.505,-0.195
10.119,-0.505,-0.170
10.122,-0.475,-0.145
10.125,-0.460,-0.145
10.128,-0.465,-0.145
10.131,-0.455,-0.155
10.133,-0.445,-0.140
10.136,-0.430,-0.100
10.139,-0.410,-0.080
10.142,-0.410,-0.070
10.144,-0.410,-0.080
10.147,-0.430,-0.060
10.150,-0.420,-0.045
10.153,-0.405,-0.005
10.156,-0.390,0.015
10.158,-0.360,0.005
10.161,-0.350,-0.045
10.164,-0.365,-0.060
10.167,-0.370,-0.025
10.169,-0.360,0.000
10.172,-0.355,-0.005
10.175,-0.350,-0.015
10.178,-0.370,-0.035
10.181,-0.375,-0.050
10.183,-0.365,-0.035
10.186,-0.360,-0.005
10.189,-0.355,0.005
10.192,-0.355,0.010
10.194,-0.360,-0.010
10.197,-0.380,0.015
10.200,-0.390,0.030
10.203,-0.405,0.030
10.206,-0.415,0.005
10.208,-0.440,0.000
10.211,-0.495,0.010
10.214,-0.515,-0.030
10.217,-0.535,-0.205
10.219,-0.505,-0.485
10.222,-0.490,-0.760
10.225,-0.460,-1.055
10.228,-0.440,-1.405
10.231,-0.435,-1.805
10.233,-0.425,-2.165
10.236,-0.395,-2.460
10.239,-0.340,-2.690
10.242,-0.275,-2.840
10.244,-0.230,-2.890
10.247,-0.195,-2.840
10.250,-0.110,-2.565
10.253,0.065,-1.960
10.256,0.305,-1.325
10.258,0.420,-0.690
10.261,0.420,-0.055
10.264,0.350,0.210
10.267,0.230,0.230
10.269,0.110,0.220
10.272,-0.015,0.205
10.275,-0.100,0.210
10.278,-0.165,0.220
10.281,-0.210,0.230
10.283,-0.240,0.260
10.286,-0.245,0.295
10.289,-0.230,0.305
10.292,-0.235,0.310
10.294,-0.260,0.305
10.297,-0.275,0.275
10.300,-0.290,0.250
10.303,-0.285,0.265
10.306,-0.280,0.285
10.308,-0.270,0.290
10.311,-0.265,0.295
10.314,-0.265,0.280
10.317,-0.270,0.275
10.319,-0.265,0.265
10.322,-0.250,0.265
10.325,-0.260,0.245
10.328,-0.265,0.225
10.331,-0.265,0.195
10.333,-0.275,0.215
10.336,-0.260,0.255
10.339,-0.235,0.295
10.342,-0.220,0.330
10.344,-0.205,0.320
10.347,-0.215,0.280
10.350,-0.215,0.275
10.353,-0.230,0.315
10.356,-0.200,0.330
10.358,-0.200,0.315
10.361,-0.205,0.275
10.364,-0.195,0.260
10.367,-0.210,0.250
10.369,-0.190,0.270
10.372,-0.170,0.280
10.375,-0.170,0.295
10.378,-0.185,0.265
10.381,-0.195,0.255
10.383,-0.200,0.250
10.386,-0.180,0.265
10.389,-0.150,0.275
10.392,-0.125,0.270
10.394,-0.120,0.280
10.397,-0.120,0.285
10.400,-0.100,0.295
10.403,-0.090,0.315
10.406,-0.085,0.295
10.408,-0.090,0.300
10.411,-0.090,0.280
10.414,-0.090,0.275
10.417,-0.095,0.260
10.419,-0.075,0.285
10.422,-0.070,0.285
10.425,-0.065,0.255
10.428,-0.060,0.240
10.431,-0.060,0.230
10.433,-0.055,0.225
10.436,-0.045,0.240
10.439,-0.020,0.265
10.442,-0.010,0.240
10.444,0.005,0.210
10.447,-0.010,0.185
10.450,-0.010,0.180
10.453,0.000,0.190
10.456,0.030,0.220
10.458,0.045,0.190
10.461,0.040,0.150
10.464,0.020,0.120
10.467,0.025,0.110
10.469,0.035,0.100
10.472,0.040,0.080
10.475,0.075,0.020
10.478,0.060,-0.025
10.481,0.065,-0.045
10.483,0.045,-0.050
10.486,0.035,-0.045
10.489,0.040,-0.035
10.492,0.060,-0.030
10.494,0.050,-0.060
10.497,0.065,-0.070
10.500,0.050,-0.075
10.503,0.055,-0.080
10.506,0.060,-0.090
10.508,0.055,-0.115
10.511,0.060,-0.160
10.514,0.035,-0.180
10.517,0.015,-0.180
10.519,0.025,-0.175
10.522,0.045,-0.160
10.525,0.035,-0.165
10.528,0.035,-0.160
10.531,0.030,-0.145
10.533,0.010,-0.150
10.536,-0.005,-0.155
10.539,-0.020,-0.150
10.542,-0.025,-0.125
10.544,-0.040,-0.125
10.547,-0.040,-0.135
10.550,-0.060,-0.115
10.553,-0.060,-0.100
10.556,-0.070,-0.095
10.558,-0.095,-0.120
10.561,-0.100,-0.120
10.564,-0.120,-0.140
10.567,-0.155,-0.115
10.569,-0.145,-0.095
10.572,-0.135,-0.080
10.575,-0.125,-0.100
10.578,-0.140,-0.140
10.581,-0.150,-0.125
10.583,-0.160,-0.095
10.586,-0.190,-0.060
10.589,-0.175,-0.050
10.592,-0.175,-0.055
10.594,-0.180,-0.095
10.597,-0.185,-0.100
10.600,-0.200,-0.060
10.603,-0.205,-0.040
10.606,-0.225,-0.025
10.608,-0.215,-0.025
10.611,-0.220,-0.040
10.614,-0.240,-0.040
10.617,-0.260,-0.040
10.619,-0.270,-0.040
10.622,-0.245,-0.025
10.625,-0.235,-0.010
10.628,-0.240,0.000
10.631,-0.235,-0.010
10.633,-0.255,-0.015
10.636,-0.235,0.020
10.639,-0.240,0.055
10.642,-0.255,0.060
10.644,-0.265,0.045
10.647,-0.295,0.020
10.650,-0.305,0.030
10.653,-0.285,0.075
10.656,-0.255,0.085
10.658,-0.270,0.060
10.661,-0.275,0.065
10.664,-0.300,0.070
10.667,-0.315,0.075
10.669,-0.330,0.075
10.672,-0.345,0.075
10.675,-0.350,0.070
10.678,-0.340,0.040
10.681,-0.340,0.015
10.683,-0.335,0.030
10.686,-0.325,0.060
10.689,-0.315,0.070
10.692,-0.315,0.070
10.694,-0.335,0.090
10.697,-0.350,0.085
10.700,-0.355,0.070
10.703,-0.350,0.075
10.706,-0.340,0.085
10.708,-0.350,0.080
10.711,-0.350,0.070
10.714,-0.365,0.045
10.717,-0.375,0.030
10.719,-0.380,0.030
10.722,-0.360,0.040
10.725,-0.365,0.040
10.728,-0.365,0.015
10.731,-0.375,0.010
10.733,-0.385,0.010
10.736,-0.365,0.035
10.739,-0.345,0.050
10.742,-0.340,0.030
10.744,-0.360,0.005
10.747,-0.365,0.015
10.750,-0.380,0.035
10.753,-0.370,0.045
10.756,-0.380,0.030
10.758,-0.360,0.000
10.761,-0.350,-0.005
10.764,-0.365,-0.020
10.767,-0.385,-0.035
10.769,-0.390,-0.020
10.772,-0.390,0.040
10.775,-0.395,0.070
10.778,-0.380,0.060
10.781,-0.370,0.030
10.783,-0.365,0.000
10.786,-0.345,0.020
10.789,-0.310,0.070
10.792,-0.300,0.075
10.794,-0.290,0.070
10.797,-0.285,0.055
10.800,-0.285,0.040
10.803,-0.270,0.040
10.806,-0.250,0.050
10.808,-0.245,0.055
10.811,-0.235,0.045
10.814,-0.250,0.050
10.817,-0.260,0.085
10.819,-0.250,0.140
10.822,-0.240,0.140
10.825,-0.245,0.090
10.828,-0.245,0.005
10.831,-0.275,-0.075
10.833,-0.265,-0.135
10.836,-0.270,-0.155
10.839,-0.285,-0.160
10.842,-0.300,-0.175
10.844,-0.325,-0.180
10.847,-0.365,-0.160
10.850,-0.390,-0.125
10.853,-0.385,-0.085
10.856,-0.360,-0.060
10.858,-0.370,-0.075
10.861,-0.385,-0.135
10.864,-0.415,-0.190
10.867,-0.420,-0.225
10.869,-0.420,-0.200
10.872,-0.405,-0.140
10.875,-0.415,-0.125
10.878,-0.430,-0.140
10.881,-0.430,-0.160
10.883,-0.455,-0.175
10.886,-0.455,-0.180
10.889,-0.455,-0.185
10.892,-0.430,-0.210
10.894,-0.425,-0.240
10.897,-0.435,-0.235
10.900,-0.455,-0.210
10.903,-0.475,-0.175
10.906,-0.470,-0.145
10.908,-0.480,-0.175
10.911,-0.480,-0.220
10.914,-0.480,-0.240
10.917,-0.490,-0.255
10.919,-0.480,-0.250
10.922,-0.455,-0.240
10.925,-0.450,-0.230
10.928,-0.470,-0.225
10.931,-0.505,-0.210
10.933,-0.520,-0.235
10.936,-0.510,-0.220
10.939,-0.485,-0.195
10.942,-0.445,-0.195
10.944,-0.440,-0.190
10.947,-0.440,-0.180
10.950,-0.445,-0.170
10.953,-0.415,-0.125
10.956,-0.405,-0.095
10.958,-0.395,-0.090
10.961,-0.395,-0.095
10.964,-0.375,-0.120
10.967,-0.380,-0.100
10.969,-0.385,-0.065
10.972,-0.385,-0.030
10.975,-0.380,-0.020
10.978,-0.385,-0.030
10.981,-0.380,-0.020
10.983,-0.385,-0.020
10.986,-0.375,-0.015
10.989,-0.345,0.000
10.992,-0.320,0.005
10.994,-0.325,0.005
10.997,-0.350,-0.005
11.000,-0.365,-0.030
11.003,-0.360,-0.035
11.006,-0.360,-0.040
11.008,-0.340,-0.025
11.011,-0.360,-0.025
11.014,-0.360,-0.005
11.017,-0.395,-0.020
11.019,-0.410,-0.045
11.022,-0.435,-0.060
11.025,-0.460,-0.040
11.028,-0.515,-0.040
11.031,-0.545,-0.190
11.033,-0.505,-0.490
11.036,-0.465,-0.795
11.039,-0.405,-1.090
11.042,-0.390,-1.450
11.044,-0.350,-1.885
11.047,-0.305,-2.290
11.050,-0.265,-2.585
11.053,-0.240,-2.735
11.056,-0.220,-2.765
11.058,-0.180,-2.725
11.061,-0.115,-2.590
11.064,0.030,-2.245
11.067,0.210,-1.620
11.069,0.365,-0.985
11.072,0.430,-0.350
11.075,0.405,0.050
11.078,0.345,0.155
11.081,0.230,0.205
11.083,0.085,0.190
11.086,-0.020,0.165
11.089,-0.110,0.150
11.092,-0.165,0.200
11.094,-0.220,0.210
11.097,-0.270,0.210
11.100,-0.295,0.230
11.103,-0.320,0.250
11.106,-0.310,0.270
11.108,-0.295,0.270
11.111,-0.295,0.245
11.114,-0.285,0.225
11.117,-0.285,0.225
11.119,-0.275,0.255
11.122,-0.265,0.275
11.125,-0.255,0.260
11.128,-0.280,0.230
11.131,-0.285,0.225
11.133,-0.285,0.235
11.136,-0.245,0.270
11.139,-0.220,0.285
11.142,-0.235,0.275
11.144,-0.250,0.270
11.147,-0.255,0.260
11.150,-0.225,0.250
11.153,-0.205,0.240
11.156,-0.180,0.255
11.158,-0.160,0.285
11.161,-0.155,0.295
11.164,-0.180,0.260
11.167,-0.205,0.235
11.169,-0.215,0.260
11.172,-0.230,0.270
11.175,-0.235,0.270
11.178,-0.245,0.285
11.181,-0.240,0.285
11.183,-0.210,0.265
11.186,-0.195,0.290
11.189,-0.170,0.280
11.192,-0.165,0.255
11.194,-0.165,0.240
11.197,-0.155,0.230
11.200,-0.180,0.235
11.203,-0.175,0.285
11.206,-0.155,0.315
11.208,-0.145,0.315
11.211,-0.125,0.275
11.214,-0.125,0.240
11.217,-0.125,0.240
11.219,-0.115,0.260
11.222,-0.110,0.275
11.225,-0.125,0.280
11.228,-0.115,0.270
11.231,-0.115,0.255
11.233,-0.080,0.255
11.236,-0.050,0.255
11.239,-0.025,0.255
11.242,-0.005,0.235
11.244,-0.035,0.195
11.247,-0.040,0.170
11.250,-0.055,0.155
11.253,-0.060,0.175
11.256,-0.040,0.190
11.258,-0.025,0.155
11.261,-0.020,0.140
11.264,-0.010,0.115
11.267,-0.020,0.095
11.269,-0.020,0.100
11.272,-0.015,0.080
11.275,-0.005,0.060
11.278,-0.010,0.055
11.281,-0.010,0.050
11.283,-0.005,0.030
11.286,0.015,0.030
11.289,0.035,0.030
11.292,0.060,-0.020
11.294,0.050,-0.030
11.297,0.025,-0.030
11.300,0.025,-0.045
11.303,0.020,-0.055
11.306,0.025,-0.050
11.308,0.025,-0.040
11.311,0.035,-0.060
11.314,0.030,-0.080
11.317,0.020,-0.115
11.319,0.010,-0.100
11.322,0.010,-0.100
11.325,0.010,-0.115
11.328,0.000,-0.120
11.331,-0.015,-0.125
11.333,-0.040,-0.130
11.336,-0.040,-0.145
11.339,-0.010,-0.125
11.342,-0.015,-0.135
11.344,-0.015,-0.120
11.347,-0.030,-0.125
11.350,-0.060,-0.110
11.353,-0.080,-0.085
11.356,-0.095,-0.060
11.358,-0.095,-0.060
11.361,-0.095,-0.095
11.364,-0.110,-0.105
11.367,-0.120,-0.095
11.369,-0.115,-0.050
11.372,-0.125,-0.030
11.375,-0.135,-0.025
11.378,-0.170,-0.020
11.381,-0.200,-0.020
11.383,-0.225,-0.010
11.386,-0.245,-0.005
11.389,-0.235,-0.005
11.392,-0.230,0.000
11.394,-0.230,0.000
11.397,-0.250,0.010
11.400,-0.255,0.005
11.403,-0.265,-0.005
11.406,-0.255,0.005
11.408,-0.250,-0.005
11.411,-0.230,-0.010
11.414,-0.255,-0.020
11.417,-0.260,-0.015
11.419,-0.255,0.025
11.422,-0.255,0.055
11.425,-0.290,0.075
11.428,-0.295,0.070
11.431,-0.295,0.075
11.433,-0.310,0.050
11.436,-0.285,0.080
11.439,-0.255,0.070
11.442,-0.250,0.060
11.444,-0.255,0.050
11.447,-0.275,0.060
11.450,-0.280,0.100
11.453,-0.285,0.125
11.456,-0.285,0.125
11.458,-0.295,0.130
11.461,-0.305,0.125
11.464,-0.320,0.125
11.467,-0.315,0.130
11.469,-0.300,0.140
11.472,-0.280,0.140
11.475,-0.295,0.125
11.478,-0.305,0.120
11.481,-0.345,0.140
11.483,-0.355,0.145
11.486,-0.345,0.160
11.489,-0.335,0.175
11.492,-0.325,0.175
11.494,-0.330,0.165
11.497,-0.350,0.170
11.500,-0.360,0.150
11.503,-0.360,0.135
11.506,-0.370,0.140
11.508,-0.370,0.145
11.511,-0.380,0.125
11.514,-0.385,0.120
11.517,-0.405,0.095
11.519,-0.385,0.120
11.522,-0.375,0.125
11.525,-0.365,0.140
11.528,-0.380,0.135
11.531,-0.400,0.135
11.533,-0.400,0.140
11.536,-0.410,0.145
11.539,-0.405,0.140
11.542,-0.370,0.120
11.544,-0.355,0.090
11.547,-0.355,0.060
11.550,-0.355,0.065
11.553,-0.355,0.090
11.556,-0.375,0.110
11.558,-0.370,0.110
11.561,-0.380,0.080
11.564,-0.395,0.060
11.567,-0.400,0.035
11.569,-0.380,0.065
11.572,-0.365,0.090
11.575,-0.325,0.110
11.578,-0.335,0.105
11.581,-0.340,0.110
11.583,-0.345,0.080
11.586,-0.320,0.090
11.589,-0.305,0.120
11.592,-0.285,0.135
11.594,-0.260,0.145
11.597,-0.235,0.130
11.600,-0.225,0.125
11.603,-0.210,0.130
11.606,-0.200,0.115
11.608,-0.195,0.130
11.611,-0.220,0.135
11.614,-0.245,0.145
11.617,-0.265,0.155
11.619,-0.255,0.160
11.622,-0.225,0.120
11.625,-0.185,0.040
11.628,-0.190,-0.035
11.631,-0.205,-0.070
11.633,-0.240,-0.095
11.636,-0.285,-0.090
11.639,-0.320,-0.090
11.642,-0.355,-0.075
11.644,-0.355,-0.090
11.647,-0.345,-0.090
11.650,-0.345,-0.080
11.653,-0.335,-0.085
11.656,-0.360,-0.085
11.658,-0.365,-0.080
11.661,-0.395,-0.105
11.664,-0.425,-0.095
11.667,-0.415,-0.110
11.669,-0.400,-0.070
11.672,-0.370,-0.055
11.675,-0.350,-0.065
11.678,-0.350,-0.075
11.681,-0.365,-0.115
11.683,-0.390,-0.150
11.686,-0.410,-0.150
11.689,-0.425,-0.150
11.692,-0.420,-0.145
11.694,-0.435,-0.155
11.697,-0.460,-0.160
11.700,-0.450,-0.175
11.703,-0.460,-0.160
11.706,-0.455,-0.160
11.708,-0.445,-0.155
11.711,-0.465,-0.180
11.714,-0.475,-0.185
11.717,-0.485,-0.205
11.719,-0.460,-0.210
11.722,-0.430,-0.180
11.725,-0.435,-0.155
11.728,-0.475,-0.135
11.731,-0.490,-0.150
11.733,-0.515,-0.170
11.736,-0.500,-0.150
11.739,-0.465,-0.130
11.742,-0.430,-0.120
11.744,-0.410,-0.125
11.747,-0.405,-0.135
11.750,-0.380,-0.130
11.753,-0.370,-0.095
11.756,-0.355,-0.060
11.758,-0.365,-0.045
11.761,-0.390,-0.070
11.764,-0.415,-0.065
11.767,-0.410,-0.040
11.769,-0.400,0.010
11.772,-0.385,0.045
11.775,-0.360,0.035
11.778,-0.355,0.000
11.781,-0.335,-0.020
11.783,-0.335,-0.010
11.786,-0.300,0.005
11.789,-0.280,0.030
11.792,-0.275,0.035
11.794,-0.295,0.035
11.797,-0.320,0.010
11.800,-0.335,0.015
11.803,-0.330,0.040
11.806,-0.300,0.045
11.808,-0.285,0.050
11.811,-0.280,0.030
11.814,-0.305,0.040
11.817,-0.355,0.055
11.819,-0.345,0.110
11.822,-0.365,0.110
11.825,-0.395,0.100
11.828,-0.435,0.100
11.831,-0.460,0.085
11.833,-0.470,-0.065
11.836,-0.450,-0.325
11.839,-0.400,-0.625
11.842,-0.360,-0.980
11.844,-0.320,-1.420
11.847,-0.285,-1.905
11.850,-0.250,-2.345
11.853,-0.185,-2.620
11.856,-0.165,-2.745
11.858,-0.140,-2.755
11.861,-0.085,-2.675
11.864,0.040,-2.445
11.867,0.215,-1.975
11.869,0.420,-1.340
11.872,0.535,-0.705
11.875,0.545,-0.070
11.878,0.470,0.240
11.881,0.380,0.270
11.883,0.290,0.275
11.886,0.150,0.245
11.889,0.005,0.210
11.892,-0.090,0.210
11.894,-0.155,0.225
11.897,-0.210,0.250
11.900,-0.230,0.265
11.903,-0.230,0.285
11.906,-0.235,0.305
11.908,-0.215,0.300
11.911,-0.240,0.285
11.914,-0.250,0.265
11.917,-0.260,0.250
11.919,-0.255,0.290
11.922,-0.240,0.325
11.925,-0.215,0.355
11.928,-0.195,0.335
11.931,-0.190,0.295
11.933,-0.175,0.265
11.936,-0.195,0.260
11.939,-0.200,0.290
11.942,-0.200,0.310
11.944,-0.200,0.290
11.947,-0.195,0.270
11.950,-0.210,0.280
11.953,-0.215,0.290
11.956,-0.210,0.310
11.958,-0.205,0.325
11.961,-0.190,0.325
11.964,-0.200,0.300
11.967,-0.220,0.265
11.969,-0.200,0.275
11.972,-0.180,0.280
11.975,-0.160,0.285
11.978,-0.155,0.275
11.981,-0.165,0.290
11.983,-0.160,0.315
11.986,-0.165,0.325
11.989,-0.175,0.315
11.992,-0.170,0.295
11.994,-0.155,0.280
11.997,-0.160,0.270
12.000,-0.145,0.260
12.003,-0.140,0.265
12.006,-0.115,0.295
12.008,-0.115,0.315
12.011,-0.130,0.315
12.014,-0.140,0.315
12.017,-0.110,0.285
12.019,-0.100,0.260
12.022,-0.075,0.245
12.025,-0.045,0.255
12.028,-0.050,0.270
12.031,-0.045,0.260
12.033,-0.065,0.235
12.036,-0.075,0.215
12.039,-0.070,0.195
12.042,-0.065,0.175
12.044,-0.065,0.180
12.047,-0.060,0.190
12.050,-0.030,0.205
12.053,-0.015,0.225
12.056,0.005,0.230
12.058,0.015,0.200
12.061,0.010,0.150
12.064,-0.005,0.125
12.067,-0.030,0.110
12.069,-0.005,0.130
12.072,0.010,0.100
12.075,0.035,0.080
12.078,0.045,0.055
12.081,0.060,0.040
12.083,0.050,0.000
12.086,0.030,-0.020
12.089,0.015,-0.060
12.092,0.030,-0.060
12.094,0.035,-0.045
12.097,0.065,-0.035
12.100,0.080,-0.020
12.103,0.070,-0.020
12.106,0.065,-0.030
12.108,0.045,-0.030
12.111,0.040,-0.065
12.114,0.035,-0.100
12.117,0.035,-0.120
12.119,0.040,-0.080
12.122,0.060,-0.065
12.125,0.060,-0.075
12.128,0.040,-0.085
12.131,0.010,-0.100
12.133,-0.015,-0.115
12.136,-0.040,-0.120
12.139,-0.065,-0.110
12.142,-0.065,-0.100
12.144,-0.050,-0.105
12.147,-0.060,-0.120
12.150,-0.095,-0.105
12.153,-0.115,-0.075
12.156,-0.125,-0.050
12.158,-0.140,-0.060
12.161,-0.165,-0.085
12.164,-0.195,-0.085
12.167,-0.190,-0.050
12.169,-0.195,-0.010
12.172,-0.190,0.015
12.175,-0.210,0.015
12.178,-0.245,0.015
12.181,-0.255,-0.030
12.183,-0.245,-0.055
12.186,-0.235,-0.030
12.189,-0.225,0.020
12.192,-0.225,0.015
12.194,-0.245,-0.035
12.197,-0.250,-0.065
12.200,-0.240,-0.050
12.203,-0.235,-0.005
12.206,-0.245,0.040
12.208,-0.265,0.045
12.211,-0.270,0.015
12.214,-0.235,0.020
12.217,-0.225,0.045
12.219,-0.220,0.070
12.222,-0.235,0.090
12.225,-0.235,0.095
12.228,-0.260,0.080
12.231,-0.270,0.075
12.233,-0.290,0.080
12.236,-0.285,0.105
12.239,-0.255,0.125
12.242,-0.265,0.135
12.244,-0.260,0.135
12.247,-0.275,0.135
12.250,-0.305,0.150
12.253,-0.325,0.155
12.256,-0.320,0.170
12.258,-0.305,0.165
12.261,-0.285,0.170
12.264,-0.300,0.175
12.267,-0.310,0.165
12.269,-0.315,0.165
12.272,-0.310,0.180
12.275,-0.305,0.165
12.278,-0.325,0.135
12.281,-0.355,0.075
12.283,-0.355,0.075
12.286,-0.370,0.110
12.289,-0.350,0.175
12.292,-0.345,0.205
12.294,-0.370,0.175
12.297,-0.370,0.155
12.300,-0.375,0.150
12.303,-0.380,0.135
12.306,-0.375,0.110
12.308,-0.370,0.100
12.311,-0.355,0.085
12.314,-0.360,0.060
12.317,-0.370,0.060
12.319,-0.365,0.085
12.322,-0.385,0.095
12.325,-0.405,0.085
12.328,-0.415,0.055
12.331,-0.390,0.065
12.333,-0.365,0.085
12.336,-0.355,0.085
12.339,-0.370,0.095
12.342,-0.370,0.110
12.344,-0.360,0.115
12.347,-0.340,0.080
12.350,-0.290,0.085
12.353,-0.220,0.115
12.356,-0.195,0.165
12.358,-0.205,0.185
12.361,-0.220,0.170
12.364,-0.240,0.120
12.367,-0.215,0.100
12.369,-0.205,0.095
12.372,-0.190,0.120
12.375,-0.170,0.135
12.378,-0.170,0.150
12.381,-0.190,0.150
12.383,-0.235,0.175
12.386,-0.255,0.145
12.389,-0.260,0.090
12.392,-0.250,0.010
12.394,-0.245,-0.080
12.397,-0.245,-0.120
12.400,-0.260,-0.135
12.403,-0.290,-0.080
12.406,-0.325,-0.040
12.408,-0.345,-0.040
12.411,-0.335,-0.070
12.414,-0.345,-0.100
12.417,-0.360,-0.115
12.419,-0.355,-0.100
12.422,-0.345,-0.085
12.425,-0.335,-0.100
12.428,-0.355,-0.115
12.431,-0.390,-0.115
12.433,-0.405,-0.115
12.436,-0.405,-0.095
12.439,-0.390,-0.100
12.442,-0.375,-0.100
12.444,-0.360,-0.120
12.447,-0.380,-0.145
12.450,-0.395,-0.185
12.453,-0.405,-0.175
12.456,-0.395,-0.160
12.458,-0.400,-0.180
12.461,-0.425,-0.195
12.464,-0.455,-0.225
12.467,-0.475,-0.225
12.469,-0.460,-0.195
12.472,-0.450,-0.195
12.475,-0.445,-0.185
12.478,-0.445,-0.185
12.481,-0.465,-0.175
12.483,-0.475,-0.150
12.486,-0.465,-0.135
12.489,-0.430,-0.145
12.492,-0.390,-0.155
12.494,-0.370,-0.140
12.497,-0.370,-0.135
12.500,-0.365,-0.110
12.503,-0.370,-0.065
12.506,-0.375,-0.025
12.508,-0.345,-0.025
12.511,-0.350,-0.030
12.514,-0.360,-0.045
12.517,-0.375,-0.040
12.519,-0.375,-0.005
12.522,-0.335,0.065
12.525,-0.330,0.090
12.528,-0.345,0.075
12.531,-0.335,0.065
12.533,-0.360,0.050
12.536,-0.330,0.050
12.539,-0.285,0.055
12.542,-0.245,0.035
12.544,-0.230,0.020
12.547,-0.255,0.020
12.550,-0.290,-0.005
12.553,-0.295,0.020
12.556,-0.300,0.065
12.558,-0.310,0.075
12.561,-0.320,0.065
12.564,-0.330,0.035
12.567,-0.370,0.010
12.569,-0.410,0.030
12.572,-0.450,0.080
12.575,-0.475,0.065
12.578,-0.480,-0.140
12.581,-0.470,-0.490
12.583,-0.435,-0.795
12.586,-0.375,-1.075
12.589,-0.325,-1.395
12.592,-0.285,-1.825
12.594,-0.265,-2.275
12.597,-0.245,-2.620
12.600,-0.230,-2.750
12.603,-0.210,-2.730
12.606,-0.115,-2.570
12.608,0.070,-2.200
12.611,0.305,-1.565
12.614,0.500,-0.930
12.617,0.530,-0.295
12.619,0.440,0.200
12.622,0.350,0.285
12.625,0.265,0.290
12.628,0.115,0.285
12.631,-0.015,0.265
12.633,-0.110,0.290
12.636,-0.160,0.325
12.639,-0.205,0.350
12.642,-0.220,0.335
12.644,-0.210,0.280
12.647,-0.200,0.280
12.650,-0.190,0.295
12.653,-0.170,0.330
12.656,-0.165,0.325
12.658,-0.160,0.320
12.661,-0.145,0.325
12.664,-0.160,0.325
12.667,-0.185,0.310
12.669,-0.185,0.330
12.672,-0.190,0.330
12.675,-0.175,0.335
12.678,-0.170,0.335
12.681,-0.160,0.340
12.683,-0.170,0.335
12.686,-0.165,0.335
12.689,-0.175,0.325
12.692,-0.170,0.320
12.694,-0.175,0.315
12.697,-0.140,0.325
12.700,-0.120,0.300
12.703,-0.110,0.310
12.706,-0.090,0.310
12.708,-0.095,0.360
12.711,-0.115,0.370
12.714,-0.115,0.375
12.717,-0.115,0.345
12.719,-0.105,0.320
12.722,-0.095,0.300
12.725,-0.065,0.280
12.728,-0.065,0.280
12.731,-0.075,0.275
12.733,-0.090,0.305
12.736,-0.100,0.335
12.739,-0.105,0.325
12.742,-0.110,0.315
12.744,-0.110,0.310
12.747,-0.095,0.275
12.750,-0.080,0.270
12.753,-0.065,0.290
12.756,-0.030,0.315
12.758,0.010,0.325
12.761,-0.010,0.320
12.764,-0.045,0.320
12.767,-0.070,0.290
12.769,-0.050,0.280
12.772,-0.020,0.270
12.775,0.040,0.255
12.778,0.050,0.240
12.781,0.035,0.210
12.783,0.015,0.205
12.786,0.025,0.255
12.789,0.045,0.255
12.792,0.055,0.225
12.794,0.055,0.190
12.797,0.070,0.160
12.800,0.080,0.120
12.803,0.070,0.095
12.806,0.080,0.100
12.808,0.075,0.125
12.811,0.070,0.125
12.814,0.050,0.110
12.817,0.065,0.085
12.819,0.090,0.070
12.822,0.105,0.040
12.825,0.095,0.020
12.828,0.080,0.000
12.831,0.080,-0.040
12.833,0.090,-0.050
12.836,0.130,-0.050
12.839,0.155,-0.055
12.842,0.140,-0.085
12.844,0.115,-0.095
12.847,0.110,-0.115
12.850,0.085,-0.100
12.853,0.090,-0.095
12.856,0.120,-0.060
12.858,0.145,-0.045
12.861,0.140,-0.025
12.864,0.105,-0.020
12.867,0.085,-0.035
12.869,0.075,-0.045
12.872,0.085,-0.065
12.875,0.100,-0.110
12.878,0.095,-0.150
12.881,0.065,-0.165
12.883,0.005,-0.145
12.886,-0.005,-0.105
12.889,-0.020,-0.060
12.892,-0.030,-0.035
12.894,-0.040,-0.025
12.897,-0.070,-0.015
12.900,-0.080,-0.015
12.903,-0.065,-0.010
12.906,-0.065,0.010
12.908,-0.075,0.005
12.911,-0.090,-0.010
12.914,-0.105,-0.040
12.917,-0.130,-0.065
12.919,-0.115,-0.030
12.922,-0.105,0.005
12.925,-0.125,0.010
12.928,-0.125,-0.005
12.931,-0.135,-0.015
12.933,-0.160,-0.015
12.936,-0.180,0.000
12.939,-0.205,0.005
12.942,-0.230,0.005
12.944,-0.235,0.000
12.947,-0.215,0.000
12.950,-0.185,0.030
12.953,-0.185,0.065
12.956,-0.170,0.095
12.958,-0.195,0.075
12.961,-0.190,0.075
12.964,-0.215,0.060
12.967,-0.240,0.040
12.969,-0.235,0.065
12.972,-0.230,0.075
12.975,-0.225,0.085
12.978,-0.230,0.085
12.981,-0.255,0.085
12.983,-0.265,0.080
12.986,-0.250,0.125
12.989,-0.225,0.135
12.992,-0.215,0.150
12.994,-0.230,0.140
12.997,-0.270,0.140
13.000,-0.280,0.125
13.003,-0.270,0.110
13.006,-0.245,0.125
13.008,-0.245,0.130
13.011,-0.270,0.140
13.014,-0.275,0.135
13.017,-0.290,0.155
13.019,-0.315,0.165
13.022,-0.310,0.155
13.025,-0.315,0.160
13.028,-0.320,0.130
13.031,-0.320,0.110
13.033,-0.335,0.120
13.036,-0.325,0.125
13.039,-0.320,0.120
13.042,-0.305,0.130
13.044,-0.310,0.130
13.047,-0.335,0.135
13.050,-0.375,0.135
13.053,-0.340,0.120
13.056,-0.315,0.125
13.058,-0.310,0.095
13.061,-0.300,0.065
13.064,-0.305,0.060
13.067,-0.325,0.065
13.069,-0.315,0.080
13.072,-0.325,0.105
13.075,-0.330,0.095
13.078,-0.330,0.060
13.081,-0.345,0.055
13.083,-0.350,0.060
13.086,-0.340,0.060
13.089,-0.335,0.055
13.092,-0.340,0.035
13.094,-0.350,0.025
13.097,-0.335,0.015
13.100,-0.325,0.025
13.103,-0.315,0.050
13.106,-0.315,0.070
13.108,-0.290,0.090
13.111,-0.270,0.115
13.114,-0.255,0.120
13.117,-0.245,0.120
13.119,-0.235,0.110
13.122,-0.200,0.085
13.125,-0.175,0.080
13.128,-0.200,0.090
13.131,-0.220,0.125
13.133,-0.215,0.155
13.136,-0.200,0.195
13.139,-0.180,0.225
13.142,-0.180,0.210
13.144,-0.195,0.180
13.147,-0.200,0.105
13.150,-0.230,0.015
13.153,-0.250,-0.050
13.156,-0.260,-0.080
13.158,-0.250,-0.105
13.161,-0.265,-0.115
13.164,-0.285,-0.115
13.167,-0.310,-0.095
13.169,-0.305,-0.050
13.172,-0.300,-0.025
13.175,-0.285,-0.035
13.178,-0.285,-0.055
13.181,-0.280,-0.070
13.183,-0.295,-0.100
13.186,-0.300,-0.090
13.189,-0.285,-0.070
13.192,-0.305,-0.065
13.194,-0.340,-0.065
13.197,-0.370,-0.095
13.200,-0.365,-0.120
13.203,-0.355,-0.095
13.206,-0.360,-0.075
13.208,-0.380,-0.075
13.211,-0.400,-0.085
13.214,-0.395,-0.125
13.217,-0.405,-0.135
13.219,-0.395,-0.145
13.222,-0.395,-0.160
13.225,-0.385,-0.190
13.228,-0.395,-0.210
13.231,-0.410,-0.200
13.233,-0.450,-0.205
13.236,-0.440,-0.180
13.239,-0.420,-0.155
13.242,-0.415,-0.125
13.244,-0.420,-0.140
13.247,-0.430,-0.155
13.250,-0.440,-0.150
13.253,-0.445,-0.150
13.256,-0.430,-0.140
13.258,-0.415,-0.130
13.261,-0.395,-0.135
13.264,-0.375,-0.125
13.267,-0.365,-0.120
13.269,-0.350,-0.100
13.272,-0.340,-0.065
13.275,-0.325,-0.020
13.278,-0.320,-0.005
13.281,-0.325,0.000
13.283,-0.355,-0.015
13.286,-0.380,-0.020
13.289,-0.350,0.035
13.292,-0.310,0.075
13.294,-0.280,0.075
13.297,-0.270,0.070
13.300,-0.305,0.045
13.303,-0.310,0.045
13.306,-0.285,0.040
13.308,-0.270,0.030
13.311,-0.270,0.025
13.314,-0.290,0.010
13.317,-0.345,0.000
13.319,-0.345,0.025
13.322,-0.310,0.070
13.325,-0.290,0.100
13.328,-0.310,0.115
13.331,-0.335,0.090
13.333,-0.350,0.035
13.336,-0.380,0.000
13.339,-0.410,-0.015
13.342,-0.455,0.045
13.344,-0.490,0.055
13.347,-0.500,-0.110
13.350,-0.485,-0.440
13.353,-0.445,-0.785
13.356,-0.390,-1.120
13.358,-0.320,-1.500
13.361,-0.250,-1.920
13.364,-0.210,-2.315
13.367,-0.220,-2.550
13.369,-0.225,-2.650
13.372,-0.205,-2.625
13.375,-0.140,-2.520
13.378,-0.010,-2.280
13.381,0.190,-1.775
13.383,0.380,-1.140
13.386,0.485,-0.505
13.389,0.490,0.070
13.392,0.445,0.220
13.394,0.405,0.285
13.397,0.295,0.315
13.400,0.130,0.305
13.403,-0.010,0.260
13.406,-0.100,0.245
13.408,-0.175,0.260
13.411,-0.220,0.280
13.414,-0.250,0.305
13.417,-0.255,0.320
13.419,-0.250,0.320
13.422,-0.235,0.340
13.425,-0.205,0.320
13.428,-0.215,0.300
13.431,-0.220,0.275
13.433,-0.245,0.265
13.436,-0.255,0.300
13.439,-0.255,0.315
13.442,-0.235,0.335
13.444,-0.220,0.330
13.447,-0.220,0.335
13.450,-0.245,0.325
13.453,-0.230,0.320
13.456,-0.230,0.325
13.458,-0.225,0.320
13.461,-0.230,0.305
13.464,-0.230,0.295
13.467,-0.240,0.280
13.469,-0.225,0.300
13.472,-0.200,0.325
13.475,-0.190,0.320
13.478,-0.185,0.330
13.481,-0.200,0.345
13.483,-0.210,0.345
13.486,-0.210,0.320
13.489,-0.195,0.330
13.492,-0.160,0.350
13.494,-0.135,0.345
13.497,-0.150,0.350
13.500,-0.165,0.340
13.503,-0.185,0.335
13.506,-0.185,0.340
13.508,-0.165,0.345
13.511,-0.160,0.370
13.514,-0.160,0.365
13.517,-0.160,0.370
13.519,-0.135,0.355
13.522,-0.100,0.340
13.525,-0.085,0.335
13.528,-0.065,0.335
13.531,-0.075,0.335
13.533,-0.120,0.320
13.536,-0.125,0.320
13.539,-0.120,0.345
13.542,-0.100,0.340
13.544,-0.105,0.335
13.547,-0.090,0.315
13.550,-0.085,0.310
13.553,-0.070,0.320
13.556,-0.055,0.320
13.558,-0.045,0.310
13.561,-0.055,0.270
13.564,-0.060,0.240
13.567,-0.045,0.225
13.569,-0.035,0.270
13.572,-0.005,0.280
13.575,0.015,0.255
13.578,0.020,0.240
13.581,0.015,0.225
13.583,-0.015,0.195
13.586,-0.015,0.155
13.589,-0.020,0.125
13.592,0.000,0.130
13.594,0.035,0.145
13.597,0.020,0.145
13.600,0.010,0.140
13.603,0.025,0.125
13.606,0.020,0.100
13.608,0.015,0.070
13.611,0.010,0.040
13.614,0.000,-0.005
13.617,0.000,-0.030
13.619,0.005,0.000
13.622,0.025,0.035
13.625,0.055,0.045
13.628,0.045,0.025
13.631,0.035,0.000
13.633,-0.015,-0.030
13.636,-0.005,-0.040
13.639,0.005,-0.040
13.642,0.010,-0.035
13.644,-0.005,-0.055
13.647,-0.015,-0.055
13.650,-0.030,-0.055
13.653,-0.045,-0.035
13.656,-0.065,-0.050
13.658,-0.090,-0.035
13.661,-0.100,-0.035
13.664,-0.110,-0.040
13.667,-0.120,-0.035
13.669,-0.125,-0.005
13.672,-0.130,0.035
13.675,-0.135,0.065
13.678,-0.140,0.065
13.681,-0.155,0.030
13.683,-0.170,0.010
13.686,-0.205,0.015
13.689,-0.230,0.050
13.692,-0.210,0.065
13.694,-0.210,0.070
13.697,-0.195,0.080
13.700,-0.210,0.070
13.703,-0.220,0.050
13.706,-0.245,0.050
13.708,-0.260,0.075
13.711,-0.280,0.105
13.714,-0.285,0.115
13.717,-0.295,0.100
13.719,-0.260,0.095
13.722,-0.260,0.100
13.725,-0.255,0.100
13.728,-0.255,0.105
13.731,-0.265,0.100
13.733,-0.285,0.105
13.736,-0.290,0.105
13.739,-0.275,0.125
13.742,-0.260,0.140
13.744,-0.265,0.135
13.747,-0.285,0.120
13.750,-0.305,0.120
13.753,-0.305,0.120
13.756,-0.280,0.135
13.758,-0.265,0.145
13.761,-0.275,0.155
13.764,-0.300,0.160
13.767,-0.305,0.150
13.769,-0.290,0.170
13.772,-0.265,0.180
13.775,-0.270,0.170
13.778,-0.280,0.140
13.781,-0.290,0.150
13.783,-0.295,0.165
13.786,-0.280,0.185
13.789,-0.285,0.205
13.792,-0.275,0.245
13.794,-0.290,0.255
13.797,-0.310,0.235
13.800,-0.355,0.205
13.803,-0.385,0.220
13.806,-0.400,0.225
13.808,-0.395,0.250
13.811,-0.410,0.270
13.814,-0.395,0.275
13.817,-0.405,0.235
13.819,-0.395,0.215
13.822,-0.405,0.220
13.825,-0.410,0.250
13.828,-0.415,0.240
13.831,-0.415,0.210
13.833,-0.385,0.180
13.836,-0.315,0.165
13.839,-0.240,0.165
13.842,-0.165,0.140
13.844,-0.130,0.140
13.847,-0.175,0.150
13.850,-0.295,0.170
13.853,-0.410,0.205
13.856,-0.495,0.235
13.858,-0.505,0.245
13.861,-0.495,0.235
13.864,-0.450,0.180
13.867,-0.370,0.165
13.869,-0.270,0.180
13.872,-0.245,0.200
13.875,-0.275,0.195
13.878,-0.290,0.165
13.881,-0.330,0.145
13.883,-0.335,0.185
13.886,-0.355,0.235
13.889,-0.350,0.255
13.892,-0.325,0.280
13.894,-0.305,0.250
13.897,-0.280,0.215
13.900,-0.240,0.180
13.903,-0.190,0.180
13.906,-0.130,0.170
13.908,-0.105,0.165
13.911,-0.095,0.190
13.914,-0.105,0.245
13.917,-0.125,0.280
13.919,-0.140,0.315
13.922,-0.160,0.280
13.925,-0.190,0.180
13.928,-0.195,0.070
13.931,-0.185,0.005
13.933,-0.210,0.000
13.936,-0.255,0.030
13.939,-0.305,0.020
13.942,-0.305,-0.030
13.944,-0.295,-0.040
13.947,-0.310,-0.035
13.950,-0.345,-0.010
13.953,-0.395,0.005
13.956,-0.440,0.020
13.958,-0.490,0.025
13.961,-0.560,0.055
13.964,-0.585,0.055
13.967,-0.635,0.035
13.969,-0.610,0.030
13.972,-0.590,0.025
13.975,-0.545,0.015
13.978,-0.535,0.005
13.981,-0.535,-0.005
13.983,-0.520,-0.025
13.986,-0.510,-0.015
13.989,-0.485,-0.035
13.992,-0.460,-0.045
13.994,-0.440,-0.065
13.997,-0.450,-0.080
14.000,-0.450,-0.085
14.003,-0.435,-0.075
14.006,-0.405,-0.100
14.008,-0.385,-0.130
14.011,-0.390,-0.155
14.014,-0.370,-0.185
14.017,-0.365,-0.185
14.019,-0.355,-0.160
14.022,-0.355,-0.145
14.025,-0.385,-0.140
14.028,-0.450,-0.125
14.031,-0.515,-0.130
14.033,-0.560,-0.125
14.036,-0.565,-0.075
14.039,-0.550,-0.025
14.042,-0.520,0.000
14.044,-0.525,0.015
14.047,-0.555,0.040
14.050,-0.580,0.055
14.053,-0.560,0.060
14.056,-0.535,0.055
14.058,-0.495,0.055
14.061,-0.450,0.060
14.064,-0.410,0.055
14.067,-0.395,0.025
14.069,-0.355,0.010
14.072,-0.335,0.030
14.075,-0.315,0.055
14.078,-0.330,0.070
14.081,-0.355,0.065
14.083,-0.365,0.090
14.086,-0.360,0.120
14.089,-0.360,0.115
14.092,-0.345,0.100
14.094,-0.325,0.075
14.097,-0.285,0.065
14.100,-0.230,0.030
14.103,-0.160,0.010
14.106,-0.130,0.000
14.108,-0.120,0.020
14.111,-0.160,0.050
14.114,-0.240,0.080
14.117,-0.315,0.110
14.119,-0.400,0.140
14.122,-0.460,0.140
14.125,-0.530,0.150
14.128,-0.590,0.185
14.131,-0.630,0.185
14.133,-0.615,0.070
14.136,-0.550,-0.140
14.139,-0.460,-0.370
14.142,-0.435,-0.615
14.144,-0.440,-0.965
14.147,-0.460,-1.415
14.150,-0.490,-1.865
14.153,-0.485,-2.255
14.156,-0.475,-2.515
14.158,-0.455,-2.630
14.161,-0.460,-2.625
14.164,-0.365,-2.505
14.167,-0.195,-2.180
14.169,0.040,-1.590
14.172,0.265,-0.955
14.175,0.385,-0.320
14.178,0.385,0.205
14.181,0.345,0.350
14.183,0.300,0.380
14.186,0.235,0.390
14.189,0.160,0.360
14.192,0.130,0.330
14.194,0.110,0.305
14.197,0.080,0.295
14.200,0.025,0.315
14.203,-0.040,0.350
14.206,-0.070,0.380
14.208,-0.095,0.390
14.211,-0.090,0.370
14.214,-0.120,0.330
14.217,-0.130,0.305
14.219,-0.125,0.310
14.222,-0.120,0.295
14.225,-0.125,0.275
14.228,-0.120,0.305
14.231,-0.160,0.350
14.233,-0.225,0.405
14.236,-0.275,0.435
14.239,-0.330,0.450
14.242,-0.390,0.450
14.244,-0.390,0.445
14.247,-0.395,0.440
14.250,-0.390,0.440
14.253,-0.370,0.435
14.256,-0.320,0.420
14.258,-0.305,0.410
14.261,-0.240,0.410
14.264,-0.240,0.400
14.267,-0.250,0.410
14.269,-0.255,0.410
14.272,-0.240,0.420
14.275,-0.230,0.420
14.278,-0.230,0.415
14.281,-0.210,0.410
14.283,-0.185,0.390
14.286,-0.150,0.395
14.289,-0.135,0.390
14.292,-0.110,0.395
14.294,-0.115,0.390
14.297,-0.140,0.380
14.300,-0.175,0.370
14.303,-0.185,0.380
14.306,-0.175,0.380
14.308,-0.155,0.370
14.311,-0.140,0.355
14.314,-0.140,0.345
14.317,-0.135,0.360
14.319,-0.125,0.395
14.322,-0.095,0.390
14.325,-0.085,0.380
14.328,-0.090,0.385
14.331,-0.095,0.360
14.333,-0.105,0.365
14.336,-0.090,0.350
14.339,-0.070,0.340
14.342,-0.045,0.375
14.344,-0.035,0.380
14.347,-0.025,0.360
14.350,-0.045,0.355
14.353,-0.055,0.370
14.356,-0.050,0.365
14.358,-0.015,0.370
14.361,0.020,0.335
14.364,0.035,0.290
14.367,0.045,0.265
14.369,0.035,0.255
14.372,0.030,0.255
14.375,0.025,0.240
14.378,0.025,0.255
14.381,0.025,0.265
14.383,0.030,0.260
14.386,0.020,0.245
14.389,0.030,0.220
14.392,0.035,0.225
14.394,0.040,0.210
14.397,0.015,0.185
14.400,0.020,0.170
14.403,0.025,0.175
14.406,0.060,0.170
14.408,0.080,0.160
14.411,0.085,0.145
14.414,0.110,0.085
14.417,0.110,0.060
14.419,0.110,0.070
14.422,0.115,0.065
14.425,0.115,0.030
14.428,0.110,0.015
14.431,0.120,0.020
14.433,0.120,0.030
14.436,0.100,0.050
14.439,0.085,0.065
14.442,0.095,0.050
14.444,0.090,0.035
14.447,0.095,0.005
14.450,0.095,-0.025
14.453,0.105,-0.025
14.456,0.115,-0.015
14.458,0.125,0.005
14.461,0.105,0.005
14.464,0.110,-0.020
14.467,0.105,-0.020
14.469,0.125,-0.050
14.472,0.125,-0.060
14.475,0.115,-0.055
14.478,0.080,-0.070
14.481,0.065,-0.055
14.483,0.035,-0.050
14.486,0.030,-0.030
14.489,0.035,0.010
14.492,0.035,0.040
14.494,0.030,0.035
14.497,0.025,0.020
14.500,0.020,0.025
14.503,0.020,0.040
14.506,0.010,0.065
14.508,0.020,0.055
14.511,-0.015,0.035
14.514,-0.020,-0.010
14.517,-0.055,-0.025
14.519,-0.085,0.000
14.522,-0.090,0.035
14.525,-0.090,0.075
14.528,-0.095,0.105
14.531,-0.090,0.115
14.533,-0.075,0.110
14.536,-0.050,0.120
14.539,-0.030,0.120
14.542,-0.030,0.125
14.544,-0.065,0.120
14.547,-0.090,0.125
14.550,-0.100,0.120
14.553,-0.100,0.125
14.556,-0.085,0.135
14.558,-0.075,0.155
14.561,-0.080,0.145
14.564,-0.090,0.115
14.567,-0.105,0.100
14.569,-0.120,0.125
14.572,-0.100,0.155
14.575,-0.095,0.175
14.578,-0.095,0.160
14.581,-0.110,0.160
14.583,-0.135,0.170
14.586,-0.135,0.220
14.589,-0.115,0.240
14.592,-0.115,0.240
14.594,-0.120,0.215
14.597,-0.130,0.210
14.600,-0.155,0.225
14.603,-0.140,0.240
14.606,-0.140,0.270
14.608,-0.115,0.280
14.611,-0.135,0.290
14.614,-0.150,0.280
14.617,-0.130,0.290
14.619,-0.115,0.305
14.622,-0.095,0.305
14.625,-0.090,0.270
14.628,-0.100,0.240
14.631,-0.105,0.200
14.633,-0.105,0.200
14.636,-0.125,0.220
14.639,-0.120,0.260
14.642,-0.130,0.285
14.644,-0.160,0.275
14.647,-0.155,0.260
14.650,-0.160,0.255
14.653,-0.185,0.275
14.656,-0.160,0.280
14.658,-0.145,0.290
14.661,-0.140,0.280
14.664,-0.155,0.265
14.667,-0.160,0.245
14.669,-0.175,0.260
14.672,-0.175,0.265
14.675,-0.150,0.275
14.678,-0.165,0.275
14.681,-0.165,0.270
14.683,-0.165,0.260
14.686,-0.170,0.255
14.689,-0.165,0.240
14.692,-0.150,0.225
14.694,-0.140,0.220
14.697,-0.140,0.215
14.700,-0.150,0.215
14.703,-0.155,0.240
14.706,-0.145,0.250
14.708,-0.150,0.255
14.711,-0.170,0.250
14.714,-0.180,0.250
14.717,-0.150,0.235
14.719,-0.135,0.215
14.722,-0.115,0.215
14.725,-0.100,0.205
14.728,-0.110,0.200
14.731,-0.135,0.205
14.733,-0.140,0.185
14.736,-0.150,0.195
14.739,-0.150,0.220
14.742,-0.140,0.220
14.744,-0.165,0.230
14.747,-0.185,0.215
14.750,-0.160,0.185
14.753,-0.145,0.185
14.756,-0.105,0.195
14.758,-0.095,0.210
14.761,-0.100,0.200
14.764,-0.105,0.205
14.767,-0.095,0.215
14.769,-0.105,0.225
14.772,-0.090,0.245
14.775,-0.050,0.275
14.778,-0.050,0.260
14.781,-0.045,0.245
14.783,-0.040,0.245
14.786,-0.040,0.235
14.789,-0.015,0.245
14.792,0.015,0.230
14.794,0.010,0.250
14.797,0.010,0.270
14.800,-0.005,0.280
14.803,-0.020,0.310
14.806,-0.005,0.320
14.808,0.010,0.265
14.811,0.015,0.220
14.814,0.005,0.170
14.817,-0.020,0.140
14.819,-0.040,0.105
14.822,-0.040,0.075
14.825,-0.020,0.070
14.828,-0.030,0.075
14.831,-0.065,0.060
14.833,-0.090,0.025
14.836,-0.115,0.030
14.839,-0.110,0.035
14.842,-0.100,0.035
14.844,-0.105,0.050
14.847,-0.125,0.030
14.850,-0.135,0.030
14.853,-0.150,0.040
14.856,-0.140,0.050
14.858,-0.125,0.035
14.861,-0.125,0.035
14.864,-0.150,0.025
14.867,-0.150,0.025
14.869,-0.170,0.030
14.872,-0.170,0.020
14.875,-0.145,0.010
14.878,-0.160,0.005
14.881,-0.170,-0.015
14.883,-0.175,-0.045
14.886,-0.195,-0.035
14.889,-0.205,-0.005
14.892,-0.205,0.015
14.894,-0.215,0.000
14.897,-0.225,-0.005
14.900,-0.240,-0.010
14.903,-0.230,-0.030
14.906,-0.200,-0.015
14.908,-0.195,-0.030
14.911,-0.190,-0.030
14.914,-0.200,-0.040
14.917,-0.215,-0.050
14.919,-0.235,-0.050
14.922,-0.230,-0.070
14.925,-0.210,-0.055
14.928,-0.220,-0.040
14.931,-0.225,-0.060
14.933,-0.240,-0.070
14.936,-0.255,-0.075
14.939,-0.245,-0.050
14.942,-0.230,-0.030
14.944,-0.220,-0.035
14.947,-0.215,-0.050
14.950,-0.220,-0.055
14.953,-0.210,-0.030
14.956,-0.190,-0.005
14.958,-0.145,0.030
14.961,-0.125,0.010
14.964,-0.125,0.000
14.967,-0.135,0.005
14.969,-0.150,0.020
14.972,-0.125,0.050
14.975,-0.105,0.075
14.978,-0.105,0.105
14.981,-0.095,0.130
14.983,-0.105,0.145
14.986,-0.105,0.170
14.989,-0.090,0.185
14.992,-0.070,0.170
14.994,-0.070,0.170
14.997,-0.070,0.170
15.000,-0.065,0.165
15.003,-0.085,0.170
15.006,-0.065,0.160
15.008,-0.055,0.170
15.011,-0.055,0.165
15.014,-0.050,0.140
15.017,-0.045,0.135
15.019,-0.040,0.135
15.022,-0.025,0.160
15.025,-0.020,0.170
15.028,-0.040,0.165
15.031,-0.040,0.145
15.033,-0.060,0.130
15.036,-0.055,0.125
15.039,-0.070,0.145
15.042,-0.065,0.160
15.044,-0.085,0.130
15.047,-0.110,0.130
15.050,-0.140,0.120
15.053,-0.180,0.140
15.056,-0.210,0.140
15.058,-0.210,0.170
15.061,-0.235,0.135
15.064,-0.230,-0.025
15.067,-0.215,-0.260
15.069,-0.190,-0.480
15.072,-0.150,-0.725
15.075,-0.115,-1.010
15.078,-0.075,-1.360
15.081,-0.055,-1.740
15.083,-0.030,-2.095
15.086,-0.020,-2.370
15.089,-0.015,-2.550
15.092,-0.005,-2.625
15.094,0.015,-2.640
15.097,0.045,-2.590
15.100,0.115,-2.465
15.103,0.245,-2.160
15.106,0.425,-1.700
15.108,0.580,-1.110
15.111,0.660,-0.560
15.114,0.665,-0.170
15.117,0.640,0.045
15.119,0.595,0.180
15.122,0.550,0.275
15.125,0.465,0.340
15.128,0.355,0.355
15.131,0.230,0.325
15.133,0.135,0.305
15.136,0.085,0.335
15.139,0.035,0.365
15.142,-0.010,0.370
15.144,-0.055,0.370
15.147,-0.075,0.365
15.150,-0.070,0.340
15.153,-0.080,0.350
15.156,-0.065,0.355
15.158,-0.060,0.365
15.161,-0.075,0.360
15.164,-0.090,0.355
15.167,-0.085,0.335
15.169,-0.110,0.330
15.172,-0.095,0.325
15.175,-0.090,0.335
15.178,-0.095,0.345
15.181,-0.100,0.340
15.183,-0.100,0.335
15.186,-0.110,0.345
15.189,-0.090,0.345
15.192,-0.105,0.335
15.194,-0.085,0.330
15.197,-0.090,0.305
15.200,-0.100,0.295
15.203,-0.110,0.290
15.206,-0.115,0.310
15.208,-0.080,0.335
15.211,-0.080,0.340
15.214,-0.095,0.340
15.217,-0.095,0.315
15.219,-0.095,0.325
15.222,-0.095,0.345
15.225,-0.080,0.345
15.228,-0.095,0.335
15.231,-0.125,0.335
15.233,-0.110,0.340
15.236,-0.115,0.350
15.239,-0.095,0.350
15.242,-0.080,0.345
15.244,-0.075,0.350
15.247,-0.075,0.335
15.250,-0.095,0.350
15.253,-0.110,0.365
15.256,-0.095,0.355
15.258,-0.065,0.355
15.261,-0.065,0.345
15.264,-0.055,0.320
15.267,-0.055,0.300
15.269,-0.055,0.295
15.272,-0.055,0.315
15.275,-0.030,0.340
15.278,-0.035,0.350
15.281,-0.050,0.325
15.283,-0.040,0.295
15.286,-0.070,0.270
15.289,-0.065,0.265
15.292,-0.060,0.280
15.294,-0.060,0.300
15.297,-0.065,0.305
15.300,-0.050,0.315
15.303,-0.050,0.335
15.306,-0.010,0.335
15.308,0.015,0.325
15.311,0.000,0.300
15.314,-0.005,0.305
15.317,-0.015,0.315
15.319,-0.005,0.320
15.322,0.005,0.335
15.325,0.040,0.325
15.328,0.055,0.330
15.331,0.030,0.305
15.333,0.035,0.265
15.336,0.030,0.265
15.339,0.055,0.290
15.342,0.085,0.305
15.344,0.085,0.275
15.347,0.085,0.230
15.350,0.070,0.190
15.353,0.040,0.175
15.356,0.055,0.175
15.358,0.065,0.190
15.361,0.065,0.190
15.364,0.070,0.165
15.367,0.075,0.150
15.369,0.095,0.155
15.372,0.105,0.160
15.375,0.135,0.150
15.378,0.130,0.145
15.381,0.140,0.110
15.383,0.115,0.080
15.386,0.105,0.070
15.389,0.090,0.075
15.392,0.110,0.080
15.394,0.105,0.070
15.397,0.100,0.055
15.400,0.100,0.035
15.403,0.115,0.030
15.406,0.140,0.035
15.408,0.150,0.030
15.411,0.140,0.025
15.414,0.105,0.010
15.417,0.100,-0.015
15.419,0.115,-0.010
15.422,0.120,0.010
15.425,0.125,0.000
15.428,0.135,-0.005
15.431,0.140,-0.020
15.433,0.110,-0.035
15.436,0.100,-0.060
15.439,0.095,-0.035
15.442,0.090,-0.035
15.444,0.055,-0.020
15.447,0.040,-0.010
15.450,0.020,0.000
15.453,0.020,0.030
15.456,0.035,0.035
15.458,0.045,0.035
15.461,0.030,0.025
15.464,0.010,0.020
15.467,-0.020,0.015
15.469,-0.030,0.025
15.472,-0.050,0.055
15.475,-0.045,0.080
15.478,-0.040,0.075
15.481,-0.050,0.055
15.483,-0.055,0.040
15.486,-0.075,0.050
15.489,-0.070,0.055
15.492,-0.040,0.060
15.494,-0.050,0.070
15.497,-0.070,0.045
15.500,-0.080,0.050
15.503,-0.085,0.065
15.506,-0.095,0.085
15.508,-0.095,0.100
15.511,-0.105,0.105
15.514,-0.110,0.105
15.517,-0.125,0.120
15.519,-0.115,0.135
15.522,-0.100,0.150
15.525,-0.080,0.145
15.528,-0.105,0.120
15.531,-0.140,0.080
15.533,-0.160,0.060
15.536,-0.155,0.060
15.539,-0.125,0.080
15.542,-0.070,0.115
15.544,-0.040,0.125
15.547,-0.055,0.110
15.550,-0.050,0.105
15.553,-0.060,0.120
15.556,-0.055,0.140
15.558,0.000,0.125
15.561,0.075,0.065
15.564,0.185,0.005
15.567,0.300,-0.030
15.569,0.385,-0.020
15.572,0.435,0.010
15.575,0.405,0.030
15.578,0.295,0.060
15.581,0.135,0.085
15.583,-0.025,0.125
15.586,-0.175,0.160
15.589,-0.225,0.205
15.592,-0.240,0.240
15.594,-0.240,0.250
15.597,-0.265,0.240
15.600,-0.320,0.240
15.603,-0.345,0.270
15.606,-0.415,0.295
15.608,-0.445,0.290
15.611,-0.480,0.285
15.614,-0.520,0.265
15.617,-0.550,0.250
15.619,-0.560,0.265
15.622,-0.560,0.270
15.625,-0.525,0.285
15.628,-0.490,0.280
15.631,-0.475,0.265
15.633,-0.455,0.250
15.636,-0.435,0.245
15.639,-0.380,0.255
15.642,-0.345,0.270
15.644,-0.320,0.275
15.647,-0.300,0.260
15.650,-0.305,0.230
15.653,-0.310,0.230
15.656,-0.300,0.200
15.658,-0.285,0.185
15.661,-0.280,0.160
15.664,-0.280,0.160
15.667,-0.270,0.180
15.669,-0.230,0.205
15.672,-0.210,0.210
15.675,-0.185,0.200
15.678,-0.185,0.160
15.681,-0.180,0.130
15.683,-0.190,0.130
15.686,-0.195,0.135
15.689,-0.200,0.145
15.692,-0.195,0.135
15.694,-0.195,0.155
15.697,-0.200,0.155
15.700,-0.235,0.150
15.703,-0.265,0.150
15.706,-0.300,0.155
15.708,-0.315,0.165
15.711,-0.345,0.165
15.714,-0.390,0.150
15.717,-0.430,0.130
15.719,-0.430,0.135
15.722,-0.420,0.130
15.725,-0.380,0.140
15.728,-0.350,0.140
15.731,-0.335,0.155
15.733,-0.315,0.180
15.736,-0.295,0.205
15.739,-0.285,0.240
15.742,-0.235,0.220
15.744,-0.235,0.210
15.747,-0.215,0.185
15.750,-0.235,0.125
15.753,-0.235,0.110
15.756,-0.230,0.135
15.758,-0.220,0.175
15.761,-0.215,0.210
15.764,-0.200,0.215
15.767,-0.185,0.230
15.769,-0.160,0.220
15.772,-0.145,0.225
15.775,-0.145,0.205
15.778,-0.165,0.160
15.781,-0.190,0.055
15.783,-0.225,-0.025
15.786,-0.245,-0.070
15.789,-0.230,-0.060
15.792,-0.225,-0.030
15.794,-0.230,0.000
15.797,-0.245,-0.005
15.800,-0.245,-0.010
15.803,-0.255,-0.005
15.806,-0.265,0.000
15.808,-0.285,-0.025
15.811,-0.285,-0.070
15.814,-0.310,-0.065
15.817,-0.325,-0.065
15.819,-0.330,-0.065
15.822,-0.305,-0.050
15.825,-0.305,-0.065
15.828,-0.310,-0.055
15.831,-0.330,-0.065
15.833,-0.360,-0.065
15.836,-0.390,-0.095
15.839,-0.385,-0.100
15.842,-0.375,-0.070
15.844,-0.350,-0.045
15.847,-0.335,-0.060
15.850,-0.345,-0.070
15.853,-0.360,-0.090
15.856,-0.365,-0.100
15.858,-0.375,-0.105
15.861,-0.385,-0.100
15.864,-0.395,-0.125
15.867,-0.390,-0.135
15.869,-0.385,-0.135
15.872,-0.360,-0.115
15.875,-0.345,-0.125
15.878,-0.345,-0.145
15.881,-0.360,-0.150
15.883,-0.365,-0.150
15.886,-0.365,-0.145
15.889,-0.370,-0.125
15.892,-0.390,-0.115
15.894,-0.400,-0.115
15.897,-0.410,-0.125
15.900,-0.415,-0.130
15.903,-0.405,-0.120
15.906,-0.375,-0.110
15.908,-0.345,-0.085
15.911,-0.335,-0.040
15.914,-0.320,-0.025
15.917,-0.315,-0.050
15.919,-0.315,-0.025
15.922,-0.315,0.000
15.925,-0.295,0.015
15.928,-0.275,0.010
15.931,-0.270,0.000
15.933,-0.295,-0.005
15.936,-0.290,0.005
15.939,-0.265,0.045
15.942,-0.245,0.080
15.944,-0.225,0.095
15.947,-0.240,0.080
15.950,-0.265,0.060
15.953,-0.260,0.090
15.956,-0.260,0.090
15.958,-0.235,0.105
15.961,-0.220,0.095
15.964,-0.230,0.095
15.967,-0.230,0.070
15.969,-0.225,0.065
15.972,-0.235,0.060
15.975,-0.230,0.080
15.978,-0.260,0.085
15.981,-0.270,0.075
15.983,-0.265,0.090
15.986,-0.275,0.135
15.989,-0.240,0.165
15.992,-0.230,0.150
15.994,-0.225,0.115
15.997,-0.265,0.075
16.000,-0.295,0.050
16.003,-0.325,0.020
16.006,-0.345,0.050
16.008,-0.365,0.085
16.011,-0.395,-0.005
16.014,-0.400,-0.240
16.017,-0.395,-0.505
16.019,-0.385,-0.740
16.022,-0.345,-1.020
16.025,-0.305,-1.385
16.028,-0.260,-1.805
16.031,-0.250,-2.190
16.033,-0.250,-2.490
16.036,-0.265,-2.655
16.039,-0.255,-2.715
16.042,-0.205,-2.700
16.044,-0.135,-2.630
16.047,-0.015,-2.445
16.050,0.140,-2.100
16.053,0.315,-1.520
16.056,0.440,-0.885
16.058,0.520,-0.300
16.061,0.495,0.065
16.064,0.460,0.270
16.067,0.415,0.395
16.069,0.410,0.455
16.072,0.355,0.445
16.075,0.250,0.405
16.078,0.145,0.370
16.081,0.065,0.340
16.083,0.000,0.340
16.086,-0.040,0.380
16.089,-0.065,0.400
16.092,-0.090,0.390
16.094,-0.100,0.365
16.097,-0.115,0.325
16.100,-0.140,0.320
16.103,-0.140,0.340
16.106,-0.115,0.350
16.108,-0.085,0.355
16.111,-0.090,0.350
16.114,-0.105,0.350
16.117,-0.145,0.365
16.119,-0.160,0.375
16.122,-0.120,0.410
16.125,-0.090,0.410
16.128,-0.090,0.410
16.131,-0.085,0.380
16.133,-0.100,0.360
16.136,-0.100,0.360
16.139,-0.080,0.385
16.142,-0.060,0.410
16.144,-0.065,0.420
16.147,-0.075,0.400
16.150,-0.090,0.405
16.153,-0.090,0.400
16.156,-0.060,0.415
16.158,-0.050,0.435
16.161,-0.040,0.435
16.164,-0.040,0.415
16.167,-0.040,0.410
16.169,-0.035,0.430
16.172,-0.030,0.445
16.175,-0.025,0.440
16.178,-0.005,0.415
16.181,0.000,0.370
16.183,0.005,0.355
16.186,0.010,0.360
16.189,0.015,0.375
16.192,0.030,0.385
16.194,0.030,0.395
16.197,0.030,0.390
16.200,0.020,0.375
16.203,0.025,0.380
16.206,0.030,0.385
16.208,0.025,0.380
16.211,0.050,0.370
16.214,0.040,0.355
16.217,0.035,0.340
16.219,0.040,0.345
16.222,0.060,0.350
16.225,0.075,0.340
16.228,0.060,0.355
16.231,0.065,0.345
16.233,0.080,0.345
16.236,0.090,0.340
16.239,0.105,0.350
16.242,0.130,0.345
16.244,0.125,0.325
16.247,0.135,0.310
16.250,0.115,0.295
16.253,0.120,0.280
16.256,0.140,0.280
16.258,0.160,0.275
16.261,0.175,0.280
16.264,0.165,0.245
16.267,0.165,0.210
16.269,0.165,0.215
16.272,0.175,0.220
16.275,0.190,0.225
16.278,0.185,0.210
16.281,0.175,0.160
16.283,0.175,0.130
16.286,0.175,0.115
16.289,0.190,0.105
16.292,0.210,0.085
16.294,0.230,0.090
16.297,0.240,0.080
16.300,0.200,0.090
16.303,0.190,0.085
16.306,0.185,0.080
16.308,0.215,0.040
16.311,0.240,-0.005
16.314,0.235,-0.030
16.317,0.220,-0.030
16.319,0.205,-0.005
16.322,0.215,0.010
16.325,0.240,0.025
16.328,0.215,0.000
16.331,0.160,-0.030
16.333,0.140,-0.030
16.336,0.110,-0.055
16.339,0.115,-0.060
16.342,0.145,-0.060
16.344,0.160,-0.055
16.347,0.180,-0.075
16.350,0.180,-0.100
16.353,0.150,-0.065
16.356,0.140,-0.005
16.358,0.125,0.025
16.361,0.095,0.025
16.364,0.075,0.010
16.367,0.090,0.020
16.369,0.100,0.035
16.372,0.105,0.025
16.375,0.095,0.025
16.378,0.085,0.040
16.381,0.080,0.055
16.383,0.075,0.045
16.386,0.050,0.035
16.389,0.020,0.030
16.392,0.005,0.030
16.394,-0.020,0.045
16.397,-0.035,0.045
16.400,-0.035,0.030
16.403,-0.030,0.030
16.406,-0.005,0.055
16.408,0.010,0.045
16.411,0.015,0.040
16.414,-0.010,0.050
16.417,-0.030,0.075
16.419,-0.050,0.110
16.422,-0.050,0.140
16.425,-0.085,0.120
16.428,-0.090,0.110
16.431,-0.085,0.100
16.433,-0.080,0.080
16.436,-0.055,0.100
16.439,-0.025,0.105
16.442,-0.035,0.120
16.444,-0.080,0.115
16.447,-0.085,0.115
16.450,-0.090,0.125
16.453,-0.095,0.135
16.456,-0.090,0.140
16.458,-0.085,0.155
16.461,-0.060,0.175
16.464,-0.060,0.155
16.467,-0.075,0.125
16.469,-0.090,0.135
16.472,-0.110,0.140
16.475,-0.120,0.150
16.478,-0.115,0.160
16.481,-0.110,0.145
16.483,-0.105,0.145
16.486,-0.105,0.170
16.489,-0.105,0.230
16.492,-0.125,0.250
16.494,-0.130,0.250
16.497,-0.160,0.230
16.500,-0.145,0.240
16.503,-0.130,0.240
16.506,-0.120,0.240
16.508,-0.115,0.225
16.511,-0.105,0.205
16.514,-0.110,0.210
16.517,-0.135,0.200
16.519,-0.160,0.195
16.522,-0.140,0.185
16.525,-0.160,0.175
16.528,-0.165,0.170
16.531,-0.195,0.165
16.533,-0.200,0.160
16.536,-0.215,0.155
16.539,-0.190,0.180
16.542,-0.170,0.190
16.544,-0.185,0.200
16.547,-0.205,0.185
16.550,-0.200,0.185
16.553,-0.185,0.200
16.556,-0.180,0.170
16.558,-0.170,0.150
16.561,-0.150,0.115
16.564,-0.130,0.115
16.567,-0.120,0.130
16.569,-0.130,0.105
16.572,-0.140,0.115
16.575,-0.120,0.130
16.578,-0.130,0.120
16.581,-0.165,0.110
16.583,-0.190,0.090
16.586,-0.210,0.120
16.589,-0.200,0.130
16.592,-0.170,0.160
16.594,-0.145,0.165
16.597,-0.130,0.160
16.600,-0.130,0.150
16.603,-0.125,0.150
16.606,-0.105,0.160
16.608,-0.070,0.140
16.611,-0.075,0.135
16.614,-0.075,0.135
16.617,-0.080,0.140
16.619,-0.065,0.120
16.622,-0.030,0.150
16.625,0.015,0.195
16.628,0.000,0.235
16.631,-0.005,0.255
16.633,-0.030,0.265
16.636,-0.030,0.275
16.639,-0.015,0.275
16.642,0.000,0.245
16.644,0.005,0.190
16.647,-0.015,0.130
16.650,-0.035,0.070
16.653,-0.040,0.045
16.656,-0.055,0.030
16.658,-0.080,0.010
16.661,-0.090,-0.010
16.664,-0.115,-0.055
16.667,-0.145,-0.065
16.669,-0.180,-0.050
16.672,-0.195,-0.025
16.675,-0.200,-0.005
16.678,-0.195,0.000
16.681,-0.195,-0.005
16.683,-0.210,-0.005
16.686,-0.210,0.000
16.689,-0.185,0.015
16.692,-0.190,-0.005
16.694,-0.205,-0.020
16.697,-0.220,-0.050
16.700,-0.205,-0.065
16.703,-0.205,-0.050
16.706,-0.200,-0.025
16.708,-0.210,-0.015
16.711,-0.245,-0.010
16.714,-0.240,-0.055
16.717,-0.260,-0.085
16.719,-0.270,-0.105
16.722,-0.260,-0.090
16.725,-0.265,-0.090
16.728,-0.265,-0.090
16.731,-0.260,-0.090
16.733,-0.275,-0.100
16.736,-0.265,-0.100
16.739,-0.255,-0.115
16.742,-0.245,-0.130
16.744,-0.260,-0.145
16.747,-0.270,-0.125
16.750,-0.270,-0.115
16.753,-0.285,-0.095
16.756,-0.270,-0.090
16.758,-0.240,-0.095
16.761,-0.225,-0.100
16.764,-0.225,-0.110
16.767,-0.235,-0.105
16.769,-0.210,-0.085
16.772,-0.175,-0.080
16.775,-0.125,-0.075
16.778,-0.060,-0.065
16.781,-0.005,-0.050
16.783,0.030,-0.040
16.786,0.000,0.015
16.789,-0.025,0.050
16.792,-0.040,0.070
16.794,-0.040,0.055
16.797,0.005,0.045
16.800,0.050,0.000
16.803,0.130,0.020
16.806,0.205,0.045
16.808,0.210,0.080
16.811,0.135,0.100
16.814,0.035,0.110
16.817,-0.085,0.115
16.819,-0.165,0.140
16.822,-0.180,0.155
16.825,-0.160,0.120
16.828,-0.105,0.080
16.831,-0.080,0.070
16.833,-0.080,0.065
16.836,-0.095,0.090
16.839,-0.105,0.110
16.842,-0.145,0.150
16.844,-0.205,0.210
16.847,-0.285,0.240
16.850,-0.335,0.210
