'Elapsed time','MLII','V1'
'seconds','mV','mV'
0.000,-0.380,-0.285
0.003,-0.380,-0.285
0.006,-0.380,-0.285
0.008,-0.380,-0.285
0.011,-0.380,-0.285
0.014,-0.380,-0.285
0.017,-0.380,-0.285
0.019,-0.380,-0.285
0.022,-0.365,-0.290
0.025,-0.365,-0.295
0.028,-0.350,-0.290
0.031,-0.365,-0.295
0.033,-0.365,-0.280
0.036,-0.360,-0.270
0.039,-0.335,-0.250
0.042,-0.325,-0.220
0.044,-0.315,-0.195
0.047,-0.310,-0.210
0.050,-0.305,-0.210
0.053,-0.310,-0.200
0.056,-0.330,-0.225
0.058,-0.345,-0.235
0.061,-0.340,-0.255
0.064,-0.350,-0.260
0.067,-0.365,-0.265
0.069,-0.360,-0.280
0.072,-0.380,-0.275
0.075,-0.395,-0.290
0.078,-0.390,-0.285
0.081,-0.385,-0.295
0.083,-0.395,-0.300
0.086,-0.405,-0.305
0.089,-0.420,-0.300
0.092,-0.425,-0.315
0.094,-0.440,-0.335
0.097,-0.440,-0.350
0.100,-0.455,-0.350
0.103,-0.455,-0.355
0.106,-0.455,-0.350
0.108,-0.445,-0.335
0.111,-0.425,-0.335
0.114,-0.425,-0.345
0.117,-0.420,-0.345
0.119,-0.410,-0.345
0.122,-0.405,-0.360
0.125,-0.410,-0.365
0.128,-0.420,-0.370
0.131,-0.410,-0.375
0.133,-0.405,-0.375
0.136,-0.400,-0.360
0.139,-0.405,-0.350
0.142,-0.410,-0.345
0.144,-0.400,-0.340
0.147,-0.405,-0.345
0.150,-0.385,-0.365
0.153,-0.385,-0.360
0.156,-0.385,-0.375
0.158,-0.385,-0.380
0.161,-0.385,-0.380
0.164,-0.395,-0.390
0.167,-0.400,-0.385
0.169,-0.390,-0.380
0.172,-0.385,-0.365
0.175,-0.380,-0.355
0.178,-0.370,-0.325
0.181,-0.350,-0.320
0.183,-0.320,-0.300
0.186,-0.280,-0.270
0.189,-0.195,-0.230
0.192,-0.090,-0.175
0.194,0.055,-0.115
0.197,0.235,-0.015
0.200,0.440,0.090
0.203,0.645,0.200
0.206,0.840,0.300
0.208,1.005,0.375
0.211,1.075,0.380
0.214,1.055,0.290
0.217,0.885,0.130
0.219,0.605,-0.105
0.222,0.205,-0.325
0.225,-0.255,-0.535
0.228,-0.735,-0.700
0.231,-1.145,-0.825
0.233,-1.425,-0.920
0.236,-1.520,-0.985
0.239,-1.435,-1.025
0.242,-1.265,-1.050
0.244,-1.050,-1.025
0.247,-0.830,-0.985
0.250,-0.670,-0.915
0.253,-0.555,-0.805
0.256,-0.470,-0.690
0.258,-0.430,-0.570
0.261,-0.415,-0.460
0.264,-0.410,-0.360
0.267,-0.420,-0.290
0.269,-0.420,-0.245
0.272,-0.430,-0.210
0.275,-0.415,-0.185
0.278,-0.400,-0.185
0.281,-0.375,-0.170
0.283,-0.370,-0.185
0.286,-0.360,-0.180
0.289,-0.360,-0.175
0.292,-0.355,-0.175
0.294,-0.360,-0.165
0.297,-0.365,-0.160
0.300,-0.365,-0.155
0.303,-0.355,-0.150
0.306,-0.350,-0.145
0.308,-0.330,-0.125
0.311,-0.305,-0.105
0.314,-0.285,-0.100
0.317,-0.280,-0.105
0.319,-0.260,-0.100
0.322,-0.275,-0.090
0.325,-0.270,-0.090
0.328,-0.280,-0.090
0.331,-0.280,-0.090
0.333,-0.285,-0.070
0.336,-0.280,-0.065
0.339,-0.280,-0.050
0.342,-0.280,-0.035
0.344,-0.270,-0.015
0.347,-0.270,0.005
0.350,-0.275,0.000
0.353,-0.280,0.010
0.356,-0.285,0.005
0.358,-0.285,0.010
0.361,-0.290,0.030
0.364,-0.290,0.035
0.367,-0.300,0.060
0.369,-0.290,0.065
0.372,-0.295,0.090
0.375,-0.280,0.110
0.378,-0.275,0.140
0.381,-0.270,0.135
0.383,-0.270,0.155
0.386,-0.270,0.175
0.389,-0.250,0.180
0.392,-0.250,0.195
0.394,-0.245,0.200
0.397,-0.225,0.220
0.400,-0.220,0.250
0.403,-0.210,0.270
0.406,-0.180,0.290
0.408,-0.160,0.330
0.411,-0.140,0.355
0.414,-0.120,0.385
0.417,-0.095,0.390
0.419,-0.070,0.400
0.422,-0.060,0.400
0.425,-0.060,0.400
0.428,-0.040,0.415
0.431,-0.025,0.415
0.433,-0.020,0.435
0.436,-0.005,0.435
0.439,0.005,0.460
0.442,0.015,0.465
0.444,0.030,0.475
0.447,0.050,0.475
0.450,0.055,0.470
0.453,0.060,0.465
0.456,0.050,0.460
0.458,0.040,0.450
0.461,0.020,0.440
0.464,0.025,0.415
0.467,0.015,0.410
0.469,0.025,0.400
0.472,0.010,0.390
0.475,-0.005,0.375
0.478,-0.010,0.360
0.481,-0.025,0.320
0.483,-0.045,0.290
0.486,-0.075,0.255
0.489,-0.100,0.215
0.492,-0.125,0.180
0.494,-0.145,0.140
0.497,-0.185,0.095
0.500,-0.200,0.085
0.503,-0.225,0.065
0.506,-0.240,0.025
0.508,-0.255,0.000
0.511,-0.265,-0.015
0.514,-0.280,-0.035
0.517,-0.290,-0.065
0.519,-0.305,-0.085
0.522,-0.325,-0.115
0.525,-0.330,-0.140
0.528,-0.350,-0.160
0.531,-0.370,-0.165
0.533,-0.385,-0.180
0.536,-0.390,-0.200
0.539,-0.385,-0.200
0.542,-0.395,-0.200
0.544,-0.395,-0.205
0.547,-0.390,-0.200
0.550,-0.390,-0.195
0.553,-0.390,-0.225
0.556,-0.395,-0.230
0.558,-0.400,-0.225
0.561,-0.400,-0.230
0.564,-0.410,-0.240
0.567,-0.415,-0.235
0.569,-0.425,-0.230
0.572,-0.415,-0.230
0.575,-0.410,-0.220
0.578,-0.400,-0.225
0.581,-0.390,-0.205
0.583,-0.380,-0.215
0.586,-0.380,-0.220
0.589,-0.375,-0.225
0.592,-0.390,-0.235
0.594,-0.385,-0.240
0.597,-0.395,-0.245
0.600,-0.390,-0.240
0.603,-0.390,-0.240
0.606,-0.380,-0.235
0.608,-0.365,-0.225
0.611,-0.380,-0.220
0.614,-0.370,-0.220
0.617,-0.360,-0.235
0.619,-0.365,-0.240
0.622,-0.350,-0.240
0.625,-0.365,-0.260
0.628,-0.375,-0.260
0.631,-0.375,-0.275
0.633,-0.370,-0.265
0.636,-0.375,-0.260
0.639,-0.365,-0.255
0.642,-0.365,-0.255
0.644,-0.360,-0.240
0.647,-0.365,-0.245
0.650,-0.370,-0.255
0.653,-0.370,-0.260
0.656,-0.375,-0.270
0.658,-0.375,-0.285
0.661,-0.375,-0.285
0.664,-0.390,-0.300
0.667,-0.390,-0.295
0.669,-0.395,-0.290
0.672,-0.395,-0.290
0.675,-0.395,-0.285
0.678,-0.395,-0.275
0.681,-0.395,-0.290
0.683,-0.395,-0.300
0.686,-0.390,-0.305
0.689,-0.405,-0.310
0.692,-0.415,-0.305
0.694,-0.430,-0.340
0.697,-0.430,-0.325
0.700,-0.450,-0.335
0.703,-0.455,-0.335
0.706,-0.435,-0.325
0.708,-0.430,-0.325
0.711,-0.430,-0.310
0.714,-0.420,-0.315
0.717,-0.415,-0.320
0.719,-0.415,-0.330
0.722,-0.425,-0.325
0.725,-0.435,-0.340
0.728,-0.450,-0.345
0.731,-0.455,-0.350
0.733,-0.460,-0.340
0.736,-0.455,-0.340
0.739,-0.460,-0.330
0.742,-0.450,-0.330
0.744,-0.445,-0.325
0.747,-0.455,-0.335
0.750,-0.445,-0.335
0.753,-0.450,-0.330
0.756,-0.455,-0.330
0.758,-0.465,-0.335
0.761,-0.450,-0.350
0.764,-0.450,-0.345
0.767,-0.445,-0.335
0.769,-0.450,-0.320
0.772,-0.430,-0.295
0.775,-0.415,-0.285
0.778,-0.405,-0.270
0.781,-0.390,-0.255
0.783,-0.385,-0.250
0.786,-0.370,-0.245
0.789,-0.370,-0.250
0.792,-0.355,-0.245
0.794,-0.350,-0.240
0.797,-0.345,-0.235
0.800,-0.360,-0.230
0.803,-0.360,-0.210
0.806,-0.370,-0.200
0.808,-0.375,-0.195
0.811,-0.395,-0.200
0.814,-0.395,-0.200
0.817,-0.390,-0.225
0.819,-0.400,-0.230
0.822,-0.400,-0.245
0.825,-0.420,-0.270
0.828,-0.430,-0.285
0.831,-0.445,-0.285
0.833,-0.465,-0.285
0.836,-0.480,-0.305
0.839,-0.485,-0.295
0.842,-0.490,-0.300
0.844,-0.490,-0.295
0.847,-0.490,-0.300
0.850,-0.495,-0.305
0.853,-0.510,-0.315
0.856,-0.535,-0.320
0.858,-0.535,-0.330
0.861,-0.550,-0.355
0.864,-0.550,-0.365
0.867,-0.545,-0.365
0.869,-0.555,-0.355
0.872,-0.525,-0.360
0.875,-0.515,-0.355
0.878,-0.505,-0.350
0.881,-0.490,-0.335
0.883,-0.495,-0.345
0.886,-0.495,-0.350
0.889,-0.510,-0.360
0.892,-0.520,-0.365
0.894,-0.530,-0.360
0.897,-0.535,-0.375
0.900,-0.540,-0.365
0.903,-0.535,-0.360
0.906,-0.530,-0.340
0.908,-0.520,-0.355
0.911,-0.515,-0.345
0.914,-0.500,-0.325
0.917,-0.500,-0.335
0.919,-0.495,-0.335
0.922,-0.505,-0.330
0.925,-0.505,-0.340
0.928,-0.510,-0.340
0.931,-0.510,-0.340
0.933,-0.515,-0.325
0.936,-0.515,-0.310
0.939,-0.500,-0.305
0.942,-0.480,-0.280
0.944,-0.450,-0.255
0.947,-0.385,-0.215
0.950,-0.295,-0.185
0.953,-0.160,-0.130
0.956,-0.020,-0.075
0.958,0.195,-0.005
0.961,0.405,0.095
0.964,0.625,0.190
0.967,0.835,0.300
0.969,1.005,0.375
0.972,1.115,0.410
0.975,1.120,0.375
0.978,1.000,0.270
0.981,0.740,0.095
0.983,0.355,-0.100
0.986,-0.125,-0.285
0.989,-0.640,-0.455
0.992,-1.140,-0.615
0.994,-1.505,-0.730
0.997,-1.700,-0.850
1.000,-1.685,-0.945
1.003,-1.520,-1.000
1.006,-1.280,-1.040
1.008,-1.020,-1.035
1.011,-0.800,-0.985
1.014,-0.600,-0.885
1.017,-0.500,-0.795
1.019,-0.415,-0.660
1.022,-0.400,-0.540
1.025,-0.395,-0.430
1.028,-0.400,-0.355
1.031,-0.415,-0.295
1.033,-0.425,-0.260
1.036,-0.440,-0.250
1.039,-0.415,-0.230
1.042,-0.390,-0.225
1.044,-0.380,-0.205
1.047,-0.355,-0.195
1.050,-0.350,-0.190
1.053,-0.335,-0.190
1.056,-0.330,-0.190
1.058,-0.325,-0.185
1.061,-0.315,-0.190
1.064,-0.290,-0.195
1.067,-0.290,-0.180
1.069,-0.270,-0.165
1.072,-0.240,-0.155
1.075,-0.230,-0.145
1.078,-0.205,-0.135
1.081,-0.185,-0.120
1.083,-0.175,-0.135
1.086,-0.155,-0.130
1.089,-0.140,-0.125
1.092,-0.140,-0.130
1.094,-0.135,-0.125
1.097,-0.140,-0.130
1.100,-0.135,-0.120
1.103,-0.140,-0.120
1.106,-0.135,-0.105
1.108,-0.130,-0.090
1.111,-0.125,-0.070
1.114,-0.115,-0.060
1.117,-0.110,-0.050
1.119,-0.110,-0.050
1.122,-0.110,-0.040
1.125,-0.110,-0.050
1.128,-0.120,-0.040
1.131,-0.120,-0.030
1.133,-0.110,-0.020
1.136,-0.100,0.000
1.139,-0.075,0.020
1.142,-0.065,0.040
1.144,-0.040,0.065
1.147,-0.025,0.080
1.150,-0.010,0.100
1.153,0.010,0.100
1.156,0.015,0.125
1.158,0.025,0.125
1.161,0.030,0.150
1.164,0.045,0.155
1.167,0.055,0.180
1.169,0.080,0.195
1.172,0.105,0.220
1.175,0.120,0.250
1.178,0.135,0.265
1.181,0.150,0.280
1.183,0.165,0.295
1.186,0.160,0.315
1.189,0.155,0.320
1.192,0.160,0.320
1.194,0.170,0.320
1.197,0.170,0.330
1.200,0.160,0.340
1.203,0.175,0.350
1.206,0.180,0.360
1.208,0.170,0.380
1.211,0.170,0.380
1.214,0.185,0.395
1.217,0.185,0.375
1.219,0.180,0.375
1.222,0.180,0.375
1.225,0.160,0.355
1.228,0.155,0.330
1.231,0.140,0.315
1.233,0.130,0.310
1.236,0.120,0.295
1.239,0.110,0.280
1.242,0.085,0.255
1.244,0.080,0.235
1.247,0.045,0.205
1.250,0.040,0.170
1.253,0.030,0.145
1.256,-0.010,0.105
1.258,-0.050,0.070
1.261,-0.075,0.040
1.264,-0.115,-0.005
1.267,-0.145,-0.025
1.269,-0.175,-0.050
1.272,-0.200,-0.075
1.275,-0.205,-0.090
1.278,-0.220,-0.105
1.281,-0.225,-0.125
1.283,-0.240,-0.150
1.286,-0.260,-0.160
1.289,-0.285,-0.180
1.292,-0.310,-0.210
1.294,-0.335,-0.225
1.297,-0.355,-0.235
1.300,-0.365,-0.255
1.303,-0.375,-0.245
1.306,-0.380,-0.250
1.308,-0.375,-0.250
1.311,-0.380,-0.245
1.314,-0.385,-0.245
1.317,-0.385,-0.260
1.319,-0.390,-0.255
1.322,-0.385,-0.255
1.325,-0.405,-0.275
1.328,-0.415,-0.265
1.331,-0.410,-0.280
1.333,-0.420,-0.275
1.336,-0.415,-0.275
1.339,-0.410,-0.270
1.342,-0.420,-0.265
1.344,-0.415,-0.250
1.347,-0.400,-0.250
1.350,-0.390,-0.255
1.353,-0.400,-0.255
1.356,-0.400,-0.265
1.358,-0.415,-0.270
1.361,-0.410,-0.265
1.364,-0.415,-0.275
1.367,-0.415,-0.270
1.369,-0.410,-0.270
1.372,-0.405,-0.280
1.375,-0.405,-0.260
1.378,-0.390,-0.255
1.381,-0.385,-0.245
1.383,-0.375,-0.270
1.386,-0.360,-0.275
1.389,-0.360,-0.265
1.392,-0.370,-0.275
1.394,-0.375,-0.295
1.397,-0.375,-0.290
1.400,-0.380,-0.300
1.403,-0.385,-0.295
1.406,-0.380,-0.290
1.408,-0.370,-0.285
1.411,-0.365,-0.275
1.414,-0.355,-0.275
1.417,-0.360,-0.285
1.419,-0.360,-0.290
1.422,-0.375,-0.305
1.425,-0.380,-0.315
1.428,-0.390,-0.320
1.431,-0.405,-0.330
1.433,-0.415,-0.320
1.436,-0.425,-0.330
1.439,-0.420,-0.320
1.442,-0.425,-0.325
1.444,-0.415,-0.325
1.447,-0.415,-0.315
1.450,-0.425,-0.320
1.453,-0.435,-0.315
1.456,-0.440,-0.335
1.458,-0.465,-0.345
1.461,-0.465,-0.355
1.464,-0.480,-0.360
1.467,-0.465,-0.355
1.469,-0.465,-0.345
1.472,-0.460,-0.350
1.475,-0.475,-0.330
1.478,-0.465,-0.330
1.481,-0.465,-0.325
1.483,-0.460,-0.315
1.486,-0.465,-0.335
1.489,-0.465,-0.330
1.492,-0.470,-0.350
1.494,-0.455,-0.355
1.497,-0.465,-0.360
1.500,-0.455,-0.355
1.503,-0.450,-0.340
1.506,-0.445,-0.335
1.508,-0.425,-0.330
1.511,-0.390,-0.305
1.514,-0.375,-0.290
1.517,-0.345,-0.300
1.519,-0.335,-0.285
1.522,-0.330,-0.290
1.525,-0.315,-0.275
1.528,-0.310,-0.290
1.531,-0.310,-0.285
1.533,-0.310,-0.265
1.536,-0.280,-0.265
1.539,-0.265,-0.250
1.542,-0.250,-0.235
1.544,-0.230,-0.220
1.547,-0.220,-0.220
1.550,-0.215,-0.230
1.553,-0.225,-0.235
1.556,-0.235,-0.255
1.558,-0.265,-0.265
1.561,-0.275,-0.295
1.564,-0.300,-0.310
1.567,-0.300,-0.325
1.569,-0.315,-0.320
1.572,-0.335,-0.330
1.575,-0.345,-0.310
1.578,-0.355,-0.320
1.581,-0.380,-0.320
1.583,-0.405,-0.325
1.586,-0.410,-0.345
1.589,-0.415,-0.350
1.592,-0.435,-0.355
1.594,-0.440,-0.365
1.597,-0.450,-0.375
1.600,-0.485,-0.365
1.603,-0.505,-0.395
1.606,-0.520,-0.385
1.608,-0.520,-0.385
1.611,-0.510,-0.375
1.614,-0.495,-0.380
1.617,-0.500,-0.380
1.619,-0.505,-0.380
1.622,-0.500,-0.385
1.625,-0.515,-0.395
1.628,-0.520,-0.400
1.631,-0.530,-0.405
1.633,-0.550,-0.395
1.636,-0.550,-0.395
1.639,-0.550,-0.385
1.642,-0.545,-0.380
1.644,-0.540,-0.375
1.647,-0.535,-0.360
1.650,-0.550,-0.370
1.653,-0.540,-0.365
1.656,-0.545,-0.370
1.658,-0.560,-0.380
1.661,-0.570,-0.395
1.664,-0.575,-0.395
1.667,-0.590,-0.390
1.669,-0.580,-0.375
1.672,-0.545,-0.370
1.675,-0.525,-0.365
1.678,-0.510,-0.345
1.681,-0.485,-0.335
1.683,-0.465,-0.330
1.686,-0.435,-0.310
1.689,-0.385,-0.275
1.692,-0.295,-0.240
1.694,-0.170,-0.180
1.697,0.005,-0.120
1.700,0.195,-0.020
1.703,0.410,0.080
1.706,0.645,0.195
1.708,0.860,0.280
1.711,1.050,0.345
1.714,1.140,0.335
1.717,1.125,0.225
1.719,0.985,0.065
1.722,0.690,-0.145
1.725,0.280,-0.370
1.728,-0.215,-0.560
1.731,-0.745,-0.710
1.733,-1.245,-0.815
1.736,-1.595,-0.925
1.739,-1.760,-1.015
1.742,-1.710,-1.090
1.744,-1.535,-1.080
1.747,-1.280,-1.075
1.750,-1.050,-1.055
1.753,-0.850,-0.975
1.756,-0.720,-0.880
1.758,-0.635,-0.770
1.761,-0.590,-0.660
1.764,-0.590,-0.555
1.767,-0.605,-0.445
1.769,-0.625,-0.365
1.772,-0.625,-0.315
1.775,-0.615,-0.280
1.778,-0.605,-0.265
1.781,-0.580,-0.250
1.783,-0.565,-0.250
1.786,-0.555,-0.230
1.789,-0.565,-0.240
1.792,-0.555,-0.245
1.794,-0.550,-0.235
1.797,-0.550,-0.230
1.800,-0.540,-0.220
1.803,-0.535,-0.205
1.806,-0.510,-0.185
1.808,-0.495,-0.180
1.811,-0.475,-0.175
1.814,-0.455,-0.165
1.817,-0.445,-0.165
1.819,-0.445,-0.155
1.822,-0.425,-0.150
1.825,-0.425,-0.155
1.828,-0.420,-0.155
1.831,-0.405,-0.145
1.833,-0.395,-0.125
1.836,-0.375,-0.110
1.839,-0.360,-0.100
1.842,-0.355,-0.090
1.844,-0.335,-0.070
1.847,-0.325,-0.055
1.850,-0.305,-0.050
1.853,-0.295,-0.025
1.856,-0.285,-0.035
1.858,-0.285,-0.020
1.861,-0.275,-0.005
1.864,-0.265,0.005
1.867,-0.245,0.015
1.869,-0.240,0.030
1.872,-0.230,0.045
1.875,-0.220,0.060
1.878,-0.190,0.090
1.881,-0.175,0.115
1.883,-0.160,0.135
1.886,-0.145,0.145
1.889,-0.130,0.155
1.892,-0.125,0.180
1.894,-0.125,0.185
1.897,-0.105,0.210
1.900,-0.095,0.215
1.903,-0.085,0.245
1.906,-0.060,0.275
1.908,-0.030,0.315
1.911,-0.005,0.330
1.914,0.015,0.355
1.917,0.030,0.360
1.919,0.025,0.375
1.922,0.025,0.370
1.925,0.035,0.385
1.928,0.025,0.410
1.931,0.010,0.395
1.933,0.025,0.410
1.936,0.030,0.415
1.939,0.035,0.435
1.942,0.040,0.435
1.944,0.050,0.440
1.947,0.035,0.445
1.950,0.035,0.440
1.953,0.025,0.430
1.956,0.015,0.415
1.958,0.015,0.390
1.961,0.010,0.370
1.964,0.000,0.340
1.967,-0.010,0.340
1.969,-0.025,0.320
1.972,-0.045,0.310
1.975,-0.060,0.270
1.978,-0.075,0.255
1.981,-0.085,0.230
1.983,-0.105,0.185
1.986,-0.135,0.155
1.989,-0.155,0.125
1.992,-0.185,0.065
1.994,-0.220,0.015
1.997,-0.255,-0.015
2.000,-0.285,-0.040
2.003,-0.310,-0.060
2.006,-0.345,-0.080
2.008,-0.360,-0.100
2.011,-0.375,-0.115
2.014,-0.385,-0.135
2.017,-0.385,-0.155
2.019,-0.400,-0.175
2.022,-0.425,-0.205
2.025,-0.435,-0.225
2.028,-0.455,-0.235
2.031,-0.470,-0.250
2.033,-0.485,-0.250
2.036,-0.480,-0.260
2.039,-0.480,-0.255
2.042,-0.475,-0.245
2.044,-0.470,-0.240
2.047,-0.470,-0.250
2.050,-0.485,-0.255
2.053,-0.480,-0.260
2.056,-0.475,-0.260
2.058,-0.495,-0.270
2.061,-0.495,-0.280
2.064,-0.485,-0.270
2.067,-0.495,-0.285
2.069,-0.485,-0.285
2.072,-0.485,-0.265
2.075,-0.485,-0.260
2.078,-0.480,-0.245
2.081,-0.465,-0.240
2.083,-0.470,-0.240
2.086,-0.460,-0.235
2.089,-0.470,-0.245
2.092,-0.470,-0.245
2.094,-0.465,-0.260
2.097,-0.470,-0.265
2.100,-0.470,-0.265
2.103,-0.465,-0.260
2.106,-0.475,-0.260
2.108,-0.465,-0.240
2.111,-0.460,-0.235
2.114,-0.445,-0.225
2.117,-0.430,-0.230
2.119,-0.435,-0.235
2.122,-0.425,-0.250
2.125,-0.430,-0.240
2.128,-0.435,-0.265
2.131,-0.450,-0.260
2.133,-0.460,-0.250
2.136,-0.460,-0.250
2.139,-0.460,-0.245
2.142,-0.455,-0.255
2.144,-0.450,-0.240
2.147,-0.445,-0.250
2.150,-0.435,-0.230
2.153,-0.440,-0.245
2.156,-0.455,-0.250
2.158,-0.460,-0.260
2.161,-0.480,-0.275
2.164,-0.480,-0.275
2.167,-0.495,-0.270
2.169,-0.510,-0.280
2.172,-0.490,-0.270
2.175,-0.490,-0.270
2.178,-0.490,-0.255
2.181,-0.485,-0.270
2.183,-0.495,-0.270
2.186,-0.500,-0.280
2.189,-0.500,-0.280
2.192,-0.515,-0.290
2.194,-0.530,-0.300
2.197,-0.535,-0.305
2.200,-0.530,-0.305
2.203,-0.530,-0.315
2.206,-0.520,-0.310
2.208,-0.500,-0.300
2.211,-0.505,-0.285
2.214,-0.495,-0.285
2.217,-0.485,-0.295
2.219,-0.490,-0.290
2.222,-0.485,-0.295
2.225,-0.485,-0.300
2.228,-0.475,-0.295
2.231,-0.475,-0.305
2.233,-0.480,-0.310
2.236,-0.480,-0.295
2.239,-0.485,-0.295
2.242,-0.465,-0.275
2.244,-0.460,-0.260
2.247,-0.440,-0.260
2.250,-0.420,-0.250
2.253,-0.405,-0.245
2.256,-0.390,-0.230
2.258,-0.395,-0.250
2.261,-0.400,-0.240
2.264,-0.405,-0.240
2.267,-0.400,-0.240
2.269,-0.390,-0.220
2.272,-0.375,-0.205
2.275,-0.365,-0.205
2.278,-0.360,-0.185
2.281,-0.350,-0.175
2.283,-0.365,-0.180
2.286,-0.355,-0.175
2.289,-0.370,-0.195
2.292,-0.370,-0.215
2.294,-0.385,-0.230
2.297,-0.390,-0.260
2.300,-0.400,-0.270
2.303,-0.405,-0.270
2.306,-0.410,-0.275
2.308,-0.415,-0.280
2.311,-0.440,-0.285
2.314,-0.450,-0.295
2.317,-0.445,-0.305
2.319,-0.465,-0.315
2.322,-0.465,-0.325
2.325,-0.475,-0.340
2.328,-0.485,-0.335
2.331,-0.505,-0.350
2.333,-0.510,-0.345
2.336,-0.540,-0.360
2.339,-0.540,-0.360
2.342,-0.540,-0.360
2.344,-0.535,-0.350
2.347,-0.540,-0.345
2.350,-0.540,-0.360
2.353,-0.525,-0.365
2.356,-0.530,-0.360
2.358,-0.530,-0.370
2.361,-0.535,-0.370
2.364,-0.550,-0.365
2.367,-0.555,-0.375
2.369,-0.555,-0.370
2.372,-0.540,-0.355
2.375,-0.525,-0.350
2.378,-0.515,-0.345
2.381,-0.510,-0.335
2.383,-0.490,-0.345
2.386,-0.485,-0.345
2.389,-0.480,-0.335
2.392,-0.475,-0.355
2.394,-0.465,-0.360
2.397,-0.470,-0.370
2.400,-0.465,-0.350
2.403,-0.450,-0.355
2.406,-0.435,-0.345
2.408,-0.410,-0.320
2.411,-0.395,-0.325
2.414,-0.365,-0.305
2.417,-0.355,-0.280
2.419,-0.320,-0.255
2.422,-0.235,-0.220
2.425,-0.125,-0.175
2.428,0.010,-0.125
2.431,0.175,-0.070
2.433,0.380,0.025
2.436,0.600,0.130
2.439,0.820,0.230
2.442,1.040,0.305
2.444,1.200,0.335
2.447,1.265,0.280
2.450,1.210,0.140
2.453,1.005,-0.045
2.456,0.685,-0.255
2.458,0.245,-0.470
2.461,-0.285,-0.630
2.464,-0.825,-0.790
2.467,-1.310,-0.900
2.469,-1.635,-1.010
2.472,-1.755,-1.080
2.475,-1.655,-1.130
2.478,-1.420,-1.120
2.481,-1.135,-1.085
2.483,-0.880,-1.025
2.486,-0.665,-0.945
2.489,-0.520,-0.830
2.492,-0.435,-0.705
2.494,-0.375,-0.575
2.497,-0.375,-0.455
2.500,-0.380,-0.355
2.503,-0.410,-0.285
2.506,-0.415,-0.250
2.508,-0.410,-0.230
2.511,-0.405,-0.215
2.514,-0.400,-0.205
2.517,-0.390,-0.205
2.519,-0.375,-0.190
2.522,-0.380,-0.180
2.525,-0.395,-0.180
2.528,-0.395,-0.180
2.531,-0.410,-0.160
2.533,-0.390,-0.165
2.536,-0.395,-0.140
2.539,-0.385,-0.125
2.542,-0.365,-0.115
2.544,-0.360,-0.095
2.547,-0.350,-0.085
2.550,-0.335,-0.085
2.553,-0.335,-0.075
2.556,-0.330,-0.070
2.558,-0.335,-0.080
2.561,-0.330,-0.065
2.564,-0.320,-0.065
2.567,-0.325,-0.055
2.569,-0.305,-0.040
2.572,-0.295,-0.030
2.575,-0.285,-0.030
2.578,-0.260,-0.005
2.581,-0.255,0.005
2.583,-0.240,0.030
2.586,-0.230,0.030
2.589,-0.225,0.025
2.592,-0.215,0.030
2.594,-0.215,0.035
2.597,-0.205,0.055
2.600,-0.190,0.070
2.603,-0.185,0.090
2.606,-0.170,0.105
2.608,-0.160,0.125
2.611,-0.150,0.155
2.614,-0.135,0.165
2.617,-0.125,0.190
2.619,-0.100,0.210
2.622,-0.095,0.220
2.625,-0.095,0.225
2.628,-0.080,0.255
2.631,-0.075,0.265
2.633,-0.065,0.275
2.636,-0.055,0.315
2.639,-0.045,0.335
2.642,-0.030,0.370
2.644,-0.020,0.380
2.647,0.010,0.415
2.650,0.020,0.420
2.653,0.015,0.440
2.656,0.020,0.440
2.658,0.010,0.450
2.661,0.015,0.460
2.664,0.015,0.465
2.667,0.020,0.480
2.669,0.025,0.495
2.672,0.040,0.510
2.675,0.035,0.500
2.678,0.045,0.510
2.681,0.050,0.515
2.683,0.055,0.500
2.686,0.055,0.505
2.689,0.060,0.475
2.692,0.055,0.465
2.694,0.040,0.440
2.697,0.040,0.415
2.700,0.025,0.380
2.703,0.015,0.370
2.706,-0.010,0.340
2.708,-0.020,0.330
2.711,-0.045,0.300
2.714,-0.070,0.265
2.717,-0.085,0.235
2.719,-0.105,0.190
2.722,-0.130,0.155
2.725,-0.165,0.115
2.728,-0.210,0.065
2.731,-0.240,0.025
2.733,-0.270,-0.005
2.736,-0.310,-0.030
2.739,-0.340,-0.055
2.742,-0.330,-0.075
2.744,-0.345,-0.100
2.747,-0.360,-0.120
2.750,-0.365,-0.150
2.753,-0.380,-0.165
2.756,-0.395,-0.185
2.758,-0.415,-0.190
2.761,-0.425,-0.210
2.764,-0.430,-0.235
2.767,-0.440,-0.235
2.769,-0.445,-0.235
2.772,-0.435,-0.245
2.775,-0.420,-0.230
2.778,-0.425,-0.230
2.781,-0.430,-0.250
2.783,-0.430,-0.240
2.786,-0.425,-0.250
2.789,-0.405,-0.255
2.792,-0.405,-0.255
2.794,-0.390,-0.250
2.797,-0.395,-0.260
2.800,-0.380,-0.255
2.803,-0.375,-0.235
2.806,-0.365,-0.240
2.808,-0.350,-0.235
2.811,-0.365,-0.225
2.814,-0.350,-0.230
2.817,-0.330,-0.230
2.819,-0.325,-0.235
2.822,-0.345,-0.230
2.825,-0.345,-0.245
2.828,-0.345,-0.260
2.831,-0.350,-0.255
2.833,-0.345,-0.245
2.836,-0.335,-0.245
2.839,-0.340,-0.230
2.842,-0.310,-0.220
2.844,-0.305,-0.215
2.847,-0.285,-0.230
2.850,-0.270,-0.220
2.853,-0.265,-0.240
2.856,-0.285,-0.260
2.858,-0.295,-0.255
2.861,-0.310,-0.265
2.864,-0.325,-0.265
2.867,-0.330,-0.265
2.869,-0.335,-0.260
2.872,-0.335,-0.255
2.875,-0.355,-0.255
2.878,-0.355,-0.260
2.881,-0.365,-0.245
2.883,-0.365,-0.260
2.886,-0.370,-0.250
2.889,-0.385,-0.265
2.892,-0.395,-0.270
2.894,-0.415,-0.285
2.897,-0.410,-0.275
2.900,-0.435,-0.275
2.903,-0.450,-0.280
2.906,-0.465,-0.270
2.908,-0.475,-0.295
2.911,-0.485,-0.280
2.914,-0.495,-0.300
2.917,-0.485,-0.305
2.919,-0.500,-0.315
2.922,-0.505,-0.320
2.925,-0.510,-0.330
2.928,-0.515,-0.340
2.931,-0.510,-0.340
2.933,-0.505,-0.335
2.936,-0.500,-0.335
2.939,-0.505,-0.335
2.942,-0.515,-0.320
2.944,-0.515,-0.310
2.947,-0.510,-0.320
2.950,-0.505,-0.320
2.953,-0.505,-0.325
2.956,-0.515,-0.330
2.958,-0.520,-0.345
2.961,-0.535,-0.340
2.964,-0.525,-0.335
2.967,-0.520,-0.320
2.969,-0.520,-0.305
2.972,-0.505,-0.290
2.975,-0.480,-0.280
2.978,-0.475,-0.285
2.981,-0.465,-0.250
2.983,-0.455,-0.260
2.986,-0.475,-0.260
2.989,-0.475,-0.255
2.992,-0.470,-0.250
2.994,-0.470,-0.260
2.997,-0.480,-0.250
3.000,-0.490,-0.235
3.003,-0.480,-0.235
3.006,-0.490,-0.225
3.008,-0.495,-0.220
3.011,-0.510,-0.235
3.014,-0.525,-0.235
3.017,-0.525,-0.265
3.019,-0.540,-0.280
3.022,-0.550,-0.305
3.025,-0.555,-0.300
3.028,-0.580,-0.315
3.031,-0.590,-0.320
3.033,-0.600,-0.325
3.036,-0.610,-0.330
3.039,-0.615,-0.335
3.042,-0.605,-0.330
3.044,-0.605,-0.325
3.047,-0.600,-0.335
3.050,-0.595,-0.345
3.053,-0.590,-0.350
3.056,-0.605,-0.380
3.058,-0.600,-0.375
3.061,-0.595,-0.380
3.064,-0.595,-0.395
3.067,-0.585,-0.385
3.069,-0.570,-0.380
3.072,-0.555,-0.370
3.075,-0.560,-0.355
3.078,-0.540,-0.360
3.081,-0.530,-0.360
3.083,-0.530,-0.350
3.086,-0.530,-0.360
3.089,-0.535,-0.365
3.092,-0.530,-0.380
3.094,-0.535,-0.375
3.097,-0.540,-0.370
3.100,-0.545,-0.365
3.103,-0.545,-0.360
3.106,-0.520,-0.355
3.108,-0.535,-0.340
3.111,-0.520,-0.340
3.114,-0.510,-0.340
3.117,-0.500,-0.335
3.119,-0.500,-0.335
3.122,-0.515,-0.330
3.125,-0.490,-0.330
3.128,-0.485,-0.330
3.131,-0.475,-0.320
3.133,-0.470,-0.300
3.136,-0.445,-0.280
3.139,-0.395,-0.230
3.142,-0.320,-0.190
3.144,-0.190,-0.125
3.147,-0.030,-0.050
3.150,0.160,0.020
3.153,0.385,0.130
3.156,0.600,0.220
3.158,0.820,0.310
3.161,0.995,0.360
3.164,1.095,0.350
3.167,1.090,0.260
3.169,0.930,0.130
3.172,0.635,-0.055
3.175,0.200,-0.250
3.178,-0.310,-0.430
3.181,-0.850,-0.570
3.183,-1.335,-0.710
3.186,-1.655,-0.805
3.189,-1.780,-0.935
3.192,-1.705,-1.000
3.194,-1.465,-1.020
3.197,-1.190,-1.020
3.200,-0.925,-0.965
3.203,-0.705,-0.890
3.206,-0.570,-0.765
3.208,-0.455,-0.635
3.211,-0.410,-0.495
3.214,-0.400,-0.380
3.217,-0.400,-0.310
3.219,-0.410,-0.260
3.222,-0.435,-0.245
3.225,-0.425,-0.240
3.228,-0.415,-0.235
3.231,-0.410,-0.225
3.233,-0.395,-0.210
3.236,-0.375,-0.205
3.239,-0.370,-0.185
3.242,-0.360,-0.180
3.244,-0.355,-0.160
3.247,-0.345,-0.145
3.250,-0.335,-0.135
3.253,-0.320,-0.140
3.256,-0.320,-0.140
3.258,-0.310,-0.150
3.261,-0.330,-0.135
3.264,-0.325,-0.150
3.267,-0.315,-0.125
3.269,-0.320,-0.125
3.272,-0.315,-0.105
3.275,-0.300,-0.095
3.278,-0.270,-0.085
3.281,-0.260,-0.065
3.283,-0.250,-0.080
3.286,-0.240,-0.070
3.289,-0.240,-0.060
3.292,-0.245,-0.065
3.294,-0.240,-0.050
3.297,-0.255,-0.045
3.300,-0.235,-0.045
3.303,-0.235,-0.025
3.306,-0.220,-0.005
3.308,-0.210,0.005
3.311,-0.190,0.040
3.314,-0.170,0.045
3.317,-0.160,0.050
3.319,-0.150,0.055
3.322,-0.140,0.070
3.325,-0.130,0.070
3.328,-0.110,0.095
3.331,-0.080,0.105
3.333,-0.080,0.110
3.336,-0.075,0.130
3.339,-0.050,0.165
3.342,-0.030,0.190
3.344,-0.005,0.220
3.347,0.005,0.240
3.350,0.030,0.245
3.353,0.050,0.260
3.356,0.065,0.260
3.358,0.060,0.275
3.361,0.075,0.285
3.364,0.090,0.295
3.367,0.105,0.310
3.369,0.115,0.335
3.372,0.115,0.345
3.375,0.125,0.375
3.378,0.130,0.375
3.381,0.145,0.380
3.383,0.165,0.380
3.386,0.170,0.375
3.389,0.170,0.380
3.392,0.170,0.365
3.394,0.155,0.365
3.397,0.160,0.375
3.400,0.145,0.360
3.403,0.140,0.365
3.406,0.145,0.360
3.408,0.150,0.355
3.411,0.145,0.355
3.414,0.155,0.335
3.417,0.155,0.315
3.419,0.135,0.295
3.422,0.120,0.275
3.425,0.085,0.235
3.428,0.050,0.215
3.431,0.015,0.180
3.433,-0.005,0.160
3.436,-0.030,0.135
3.439,-0.050,0.130
3.442,-0.060,0.095
3.444,-0.070,0.065
3.447,-0.080,0.050
3.450,-0.120,0.005
3.453,-0.130,-0.010
3.456,-0.160,-0.050
3.458,-0.185,-0.075
3.461,-0.215,-0.100
3.464,-0.240,-0.115
3.467,-0.255,-0.125
3.469,-0.275,-0.140
3.472,-0.285,-0.140
3.475,-0.300,-0.160
3.478,-0.300,-0.175
3.481,-0.305,-0.165
3.483,-0.325,-0.175
3.486,-0.325,-0.180
3.489,-0.330,-0.200
3.492,-0.345,-0.210
3.494,-0.350,-0.215
3.497,-0.350,-0.205
3.500,-0.360,-0.205
3.503,-0.370,-0.215
3.506,-0.380,-0.190
3.508,-0.380,-0.195
3.511,-0.370,-0.190
3.514,-0.360,-0.190
3.517,-0.345,-0.195
3.519,-0.355,-0.205
3.522,-0.335,-0.205
3.525,-0.340,-0.205
3.528,-0.335,-0.200
3.531,-0.340,-0.215
3.533,-0.340,-0.205
3.536,-0.345,-0.210
3.539,-0.345,-0.205
3.542,-0.325,-0.180
3.544,-0.335,-0.200
3.547,-0.325,-0.185
3.550,-0.330,-0.190
3.553,-0.335,-0.200
3.556,-0.330,-0.210
3.558,-0.345,-0.225
3.561,-0.350,-0.230
3.564,-0.365,-0.230
3.567,-0.360,-0.225
3.569,-0.350,-0.220
3.572,-0.355,-0.220
3.575,-0.350,-0.215
3.578,-0.335,-0.210
3.581,-0.330,-0.210
3.583,-0.330,-0.220
3.586,-0.330,-0.215
3.589,-0.340,-0.215
3.592,-0.345,-0.215
3.594,-0.370,-0.235
3.597,-0.375,-0.235
3.600,-0.370,-0.245
3.603,-0.345,-0.240
3.606,-0.340,-0.225
3.608,-0.335,-0.230
3.611,-0.330,-0.225
3.614,-0.315,-0.230
3.617,-0.325,-0.230
3.619,-0.320,-0.225
3.622,-0.325,-0.245
3.625,-0.325,-0.255
3.628,-0.335,-0.270
3.631,-0.340,-0.265
3.633,-0.340,-0.260
3.636,-0.325,-0.275
3.639,-0.325,-0.260
3.642,-0.325,-0.265
3.644,-0.320,-0.270
3.647,-0.310,-0.265
3.650,-0.305,-0.280
3.653,-0.300,-0.280
3.656,-0.315,-0.290
3.658,-0.315,-0.305
3.661,-0.330,-0.295
3.664,-0.335,-0.305
3.667,-0.355,-0.310
3.669,-0.355,-0.300
3.672,-0.345,-0.300
3.675,-0.345,-0.290
3.678,-0.335,-0.275
3.681,-0.330,-0.280
3.683,-0.305,-0.275
3.686,-0.305,-0.290
3.689,-0.290,-0.270
3.692,-0.290,-0.285
3.694,-0.280,-0.285
3.697,-0.285,-0.270
3.700,-0.260,-0.260
3.703,-0.255,-0.235
3.706,-0.235,-0.230
3.708,-0.220,-0.220
3.711,-0.210,-0.220
3.714,-0.200,-0.210
3.717,-0.180,-0.210
3.719,-0.175,-0.210
3.722,-0.180,-0.210
3.725,-0.190,-0.215
3.728,-0.210,-0.220
3.731,-0.230,-0.225
3.733,-0.235,-0.230
3.736,-0.255,-0.250
3.739,-0.245,-0.250
3.742,-0.255,-0.255
3.744,-0.250,-0.255
3.747,-0.245,-0.250
3.750,-0.255,-0.265
3.753,-0.260,-0.270
3.756,-0.280,-0.275
3.758,-0.300,-0.285
3.761,-0.330,-0.300
3.764,-0.345,-0.310
3.767,-0.360,-0.305
3.769,-0.360,-0.295
3.772,-0.365,-0.285
3.775,-0.375,-0.300
3.778,-0.380,-0.295
3.781,-0.390,-0.300
3.783,-0.405,-0.305
3.786,-0.405,-0.315
3.789,-0.405,-0.320
3.792,-0.420,-0.320
3.794,-0.420,-0.340
3.797,-0.425,-0.355
3.800,-0.435,-0.345
3.803,-0.420,-0.335
3.806,-0.420,-0.325
3.808,-0.410,-0.315
3.811,-0.415,-0.310
3.814,-0.395,-0.315
3.817,-0.405,-0.305
3.819,-0.410,-0.315
3.822,-0.415,-0.330
3.825,-0.420,-0.325
3.828,-0.430,-0.340
3.831,-0.430,-0.320
3.833,-0.425,-0.315
3.836,-0.420,-0.320
3.839,-0.415,-0.310
3.842,-0.420,-0.295
3.844,-0.410,-0.285
3.847,-0.410,-0.280
3.850,-0.395,-0.270
3.853,-0.400,-0.275
3.856,-0.395,-0.275
3.858,-0.390,-0.275
3.861,-0.390,-0.275
3.864,-0.370,-0.255
3.867,-0.330,-0.215
3.869,-0.265,-0.155
3.872,-0.170,-0.105
3.875,-0.005,-0.020
3.878,0.165,0.065
3.881,0.385,0.175
3.883,0.585,0.265
3.886,0.795,0.370
3.889,0.960,0.420
3.892,1.065,0.400
3.894,1.065,0.325
3.897,0.950,0.165
3.900,0.705,-0.020
3.903,0.335,-0.225
3.906,-0.095,-0.390
3.908,-0.575,-0.540
3.911,-1.020,-0.655
3.914,-1.365,-0.770
3.917,-1.530,-0.875
3.919,-1.525,-0.940
3.922,-1.380,-0.995
3.925,-1.145,-0.995
3.928,-0.915,-0.965
3.931,-0.710,-0.900
3.933,-0.565,-0.785
3.936,-0.440,-0.660
3.939,-0.380,-0.520
3.942,-0.350,-0.405
3.944,-0.340,-0.305
3.947,-0.355,-0.230
3.950,-0.355,-0.205
3.953,-0.360,-0.180
3.956,-0.365,-0.185
3.958,-0.360,-0.180
3.961,-0.350,-0.180
3.964,-0.345,-0.175
3.967,-0.350,-0.160
3.969,-0.340,-0.140
3.972,-0.325,-0.125
3.975,-0.320,-0.115
3.978,-0.315,-0.100
3.981,-0.305,-0.095
3.983,-0.285,-0.090
3.986,-0.275,-0.080
3.989,-0.265,-0.080
3.992,-0.290,-0.090
3.994,-0.275,-0.085
3.997,-0.280,-0.075
4.000,-0.270,-0.065
4.003,-0.270,-0.050
4.006,-0.255,-0.050
4.008,-0.235,-0.020
4.011,-0.220,-0.005
4.014,-0.190,0.005
4.017,-0.180,0.005
4.019,-0.155,0.025
4.022,-0.150,0.015
4.025,-0.150,0.030
4.028,-0.160,0.030
4.031,-0.145,0.040
4.033,-0.140,0.055
4.036,-0.120,0.055
4.039,-0.080,0.075
4.042,-0.060,0.110
4.044,-0.035,0.125
4.047,-0.010,0.145
4.050,0.010,0.155
4.053,0.025,0.160
4.056,0.035,0.170
4.058,0.040,0.185
4.061,0.055,0.190
4.064,0.080,0.205
4.067,0.090,0.230
4.069,0.110,0.255
4.072,0.130,0.270
4.075,0.155,0.290
4.078,0.175,0.320
4.081,0.195,0.340
4.083,0.205,0.335
4.086,0.215,0.355
4.089,0.235,0.365
4.092,0.230,0.370
4.094,0.240,0.375
4.097,0.240,0.385
4.100,0.245,0.395
4.103,0.250,0.405
4.106,0.250,0.425
4.108,0.265,0.430
4.111,0.270,0.445
4.114,0.275,0.445
4.117,0.245,0.450
4.119,0.235,0.435
4.122,0.205,0.425
4.125,0.190,0.425
4.128,0.165,0.405
4.131,0.135,0.405
4.133,0.125,0.405
4.136,0.130,0.385
4.139,0.130,0.380
4.142,0.110,0.375
4.144,0.095,0.360
4.147,0.105,0.335
4.150,0.090,0.315
4.153,0.065,0.285
4.156,0.035,0.245
4.158,0.010,0.205
4.161,-0.015,0.170
4.164,-0.045,0.145
4.167,-0.070,0.115
4.169,-0.100,0.100
4.172,-0.135,0.070
4.175,-0.145,0.030
4.178,-0.170,0.015
4.181,-0.190,-0.005
4.183,-0.215,-0.030
4.186,-0.240,-0.065
4.189,-0.255,-0.095
4.192,-0.285,-0.120
4.194,-0.300,-0.145
4.197,-0.315,-0.155
4.200,-0.325,-0.170
4.203,-0.345,-0.185
4.206,-0.350,-0.180
4.208,-0.355,-0.195
4.211,-0.350,-0.195
4.214,-0.365,-0.185
4.217,-0.370,-0.205
4.219,-0.370,-0.210
4.222,-0.385,-0.230
4.225,-0.390,-0.225
4.228,-0.390,-0.235
4.231,-0.400,-0.240
4.233,-0.405,-0.260
4.236,-0.420,-0.245
4.239,-0.415,-0.250
4.242,-0.425,-0.235
4.244,-0.420,-0.225
4.247,-0.410,-0.230
4.250,-0.415,-0.235
4.253,-0.415,-0.220
4.256,-0.425,-0.230
4.258,-0.425,-0.235
4.261,-0.435,-0.245
4.264,-0.435,-0.240
4.267,-0.440,-0.235
4.269,-0.435,-0.225
4.272,-0.450,-0.220
4.275,-0.435,-0.205
4.278,-0.430,-0.210
4.281,-0.445,-0.210
4.283,-0.430,-0.205
4.286,-0.425,-0.205
4.289,-0.430,-0.215
4.292,-0.435,-0.230
4.294,-0.430,-0.225
4.297,-0.425,-0.230
4.300,-0.415,-0.230
4.303,-0.425,-0.220
4.306,-0.405,-0.220
4.308,-0.400,-0.225
4.311,-0.385,-0.205
4.314,-0.375,-0.195
4.317,-0.395,-0.210
4.319,-0.390,-0.210
4.322,-0.390,-0.225
4.325,-0.385,-0.230
4.328,-0.385,-0.245
4.331,-0.385,-0.245
4.333,-0.390,-0.235
4.336,-0.385,-0.235
4.339,-0.360,-0.230
4.342,-0.345,-0.220
4.344,-0.340,-0.220
4.347,-0.335,-0.220
4.350,-0.330,-0.215
4.353,-0.330,-0.215
4.356,-0.315,-0.220
4.358,-0.335,-0.235
4.361,-0.320,-0.245
4.364,-0.335,-0.235
4.367,-0.345,-0.245
4.369,-0.350,-0.240
4.372,-0.345,-0.230
4.375,-0.345,-0.225
4.378,-0.350,-0.205
4.381,-0.335,-0.205
4.383,-0.340,-0.225
4.386,-0.340,-0.215
4.389,-0.345,-0.225
4.392,-0.365,-0.230
4.394,-0.370,-0.230
4.397,-0.380,-0.235
4.400,-0.380,-0.230
4.403,-0.380,-0.220
4.406,-0.375,-0.205
4.408,-0.360,-0.220
4.411,-0.345,-0.205
4.414,-0.335,-0.195
4.417,-0.315,-0.185
4.419,-0.305,-0.180
4.422,-0.290,-0.175
4.425,-0.295,-0.170
4.428,-0.300,-0.165
4.431,-0.295,-0.165
4.433,-0.295,-0.160
4.436,-0.295,-0.150
4.439,-0.280,-0.150
4.442,-0.270,-0.145
4.444,-0.255,-0.120
4.447,-0.255,-0.120
4.450,-0.250,-0.110
4.453,-0.255,-0.125
4.456,-0.265,-0.125
4.458,-0.280,-0.135
4.461,-0.290,-0.155
4.464,-0.305,-0.170
4.467,-0.310,-0.190
4.469,-0.315,-0.195
4.472,-0.315,-0.205
4.475,-0.310,-0.195
4.478,-0.305,-0.195
4.481,-0.310,-0.190
4.483,-0.335,-0.190
4.486,-0.335,-0.205
4.489,-0.350,-0.220
4.492,-0.350,-0.245
4.494,-0.380,-0.255
4.497,-0.390,-0.255
4.500,-0.385,-0.260
4.503,-0.385,-0.255
4.506,-0.405,-0.260
4.508,-0.425,-0.255
4.511,-0.420,-0.255
4.514,-0.415,-0.270
4.517,-0.410,-0.275
4.519,-0.415,-0.285
4.522,-0.400,-0.290
4.525,-0.405,-0.290
4.528,-0.405,-0.295
4.531,-0.395,-0.295
4.533,-0.395,-0.285
4.536,-0.405,-0.280
4.539,-0.395,-0.255
4.542,-0.380,-0.250
4.544,-0.370,-0.220
4.547,-0.345,-0.205
4.550,-0.320,-0.210
4.553,-0.310,-0.195
4.556,-0.315,-0.195
4.558,-0.300,-0.180
4.561,-0.290,-0.175
4.564,-0.305,-0.160
4.567,-0.285,-0.145
4.569,-0.265,-0.120
4.572,-0.210,-0.100
4.575,-0.180,-0.070
4.578,-0.155,-0.035
4.581,-0.120,-0.030
4.583,-0.105,-0.015
4.586,-0.065,-0.005
4.589,-0.025,0.010
4.592,0.000,0.015
4.594,0.025,0.035
4.597,0.060,0.035
4.600,0.110,0.065
4.603,0.165,0.120
4.606,0.255,0.180
4.608,0.380,0.260
4.611,0.525,0.345
4.614,0.695,0.440
4.617,0.865,0.540
4.619,1.065,0.655
4.622,1.255,0.770
4.625,1.425,0.850
4.628,1.545,0.875
4.631,1.595,0.850
4.633,1.530,0.750
4.636,1.350,0.595
4.639,1.065,0.420
4.642,0.680,0.270
4.644,0.250,0.150
4.647,-0.190,0.040
4.650,-0.615,-0.070
4.653,-0.925,-0.185
4.656,-1.090,-0.315
4.658,-1.140,-0.430
4.661,-1.065,-0.500
4.664,-0.945,-0.555
4.667,-0.810,-0.555
4.669,-0.690,-0.515
4.672,-0.605,-0.445
4.675,-0.530,-0.390
4.678,-0.510,-0.315
4.681,-0.490,-0.265
4.683,-0.505,-0.240
4.686,-0.520,-0.230
4.689,-0.530,-0.225
4.692,-0.540,-0.230
4.694,-0.535,-0.250
4.697,-0.550,-0.255
4.700,-0.545,-0.245
4.703,-0.530,-0.240
4.706,-0.520,-0.225
4.708,-0.510,-0.220
4.711,-0.505,-0.200
4.714,-0.490,-0.195
4.717,-0.480,-0.190
4.719,-0.465,-0.200
4.722,-0.475,-0.225
4.725,-0.475,-0.210
4.728,-0.485,-0.215
4.731,-0.470,-0.215
4.733,-0.485,-0.205
4.736,-0.480,-0.205
4.739,-0.475,-0.185
4.742,-0.480,-0.185
4.744,-0.485,-0.180
4.747,-0.480,-0.165
4.750,-0.480,-0.170
4.753,-0.475,-0.190
4.756,-0.475,-0.195
4.758,-0.475,-0.205
4.761,-0.465,-0.195
4.764,-0.480,-0.200
4.767,-0.475,-0.165
4.769,-0.480,-0.180
4.772,-0.470,-0.175
4.775,-0.460,-0.165
4.778,-0.460,-0.160
4.781,-0.445,-0.140
4.783,-0.435,-0.145
4.786,-0.425,-0.150
4.789,-0.420,-0.160
4.792,-0.420,-0.170
4.794,-0.420,-0.155
4.797,-0.425,-0.155
4.800,-0.420,-0.155
4.803,-0.420,-0.140
4.806,-0.405,-0.130
4.808,-0.400,-0.120
4.811,-0.380,-0.100
4.814,-0.370,-0.085
4.817,-0.355,-0.095
4.819,-0.335,-0.080
4.822,-0.330,-0.075
4.825,-0.335,-0.085
4.828,-0.340,-0.065
4.831,-0.325,-0.070
4.833,-0.320,-0.055
4.836,-0.305,-0.035
4.839,-0.290,-0.025
4.842,-0.275,0.000
4.844,-0.260,0.000
4.847,-0.250,0.025
4.850,-0.255,0.015
4.853,-0.235,0.035
4.856,-0.240,0.035
4.858,-0.240,0.035
4.861,-0.240,0.035
4.864,-0.240,0.045
4.867,-0.230,0.050
4.869,-0.205,0.070
4.872,-0.195,0.085
4.875,-0.175,0.095
4.878,-0.175,0.090
4.881,-0.150,0.095
4.883,-0.150,0.090
4.886,-0.140,0.060
4.889,-0.145,0.055
4.892,-0.145,0.040
4.894,-0.165,0.030
4.897,-0.170,0.005
4.900,-0.180,-0.010
4.903,-0.205,-0.025
4.906,-0.210,-0.035
4.908,-0.220,-0.040
4.911,-0.225,-0.050
4.914,-0.225,-0.070
4.917,-0.240,-0.090
4.919,-0.250,-0.095
4.922,-0.270,-0.110
4.925,-0.270,-0.135
4.928,-0.295,-0.160
4.931,-0.305,-0.165
4.933,-0.295,-0.170
4.936,-0.300,-0.170
4.939,-0.300,-0.180
4.942,-0.305,-0.190
4.944,-0.290,-0.170
4.947,-0.285,-0.175
4.950,-0.290,-0.180
4.953,-0.285,-0.190
4.956,-0.290,-0.200
4.958,-0.290,-0.215
4.961,-0.300,-0.220
4.964,-0.300,-0.225
4.967,-0.300,-0.225
4.969,-0.305,-0.225
4.972,-0.280,-0.210
4.975,-0.270,-0.220
4.978,-0.255,-0.200
4.981,-0.265,-0.200
4.983,-0.255,-0.215
4.986,-0.245,-0.210
4.989,-0.245,-0.210
4.992,-0.240,-0.210
4.994,-0.235,-0.235
4.997,-0.245,-0.230
5.000,-0.240,-0.225
5.003,-0.245,-0.230
5.006,-0.250,-0.215
5.008,-0.235,-0.215
5.011,-0.245,-0.205
5.014,-0.230,-0.205
5.017,-0.235,-0.200
5.019,-0.230,-0.205
5.022,-0.240,-0.200
5.025,-0.255,-0.210
5.028,-0.285,-0.220
5.031,-0.295,-0.225
5.033,-0.305,-0.225
5.036,-0.305,-0.210
5.039,-0.315,-0.205
5.042,-0.315,-0.215
5.044,-0.325,-0.215
5.047,-0.335,-0.195
5.050,-0.335,-0.195
5.053,-0.345,-0.210
5.056,-0.355,-0.215
5.058,-0.360,-0.230
5.061,-0.380,-0.225
5.064,-0.375,-0.235
5.067,-0.385,-0.230
5.069,-0.390,-0.240
5.072,-0.385,-0.235
5.075,-0.395,-0.225
5.078,-0.400,-0.225
5.081,-0.400,-0.215
5.083,-0.400,-0.220
5.086,-0.405,-0.215
5.089,-0.415,-0.230
5.092,-0.400,-0.240
5.094,-0.430,-0.250
5.097,-0.435,-0.260
5.100,-0.440,-0.255
5.103,-0.445,-0.255
5.106,-0.440,-0.255
5.108,-0.445,-0.245
5.111,-0.440,-0.235
5.114,-0.440,-0.240
5.117,-0.430,-0.235
5.119,-0.435,-0.240
5.122,-0.440,-0.260
5.125,-0.440,-0.255
5.128,-0.445,-0.270
5.131,-0.455,-0.275
5.133,-0.455,-0.270
5.136,-0.445,-0.265
5.139,-0.450,-0.260
5.142,-0.430,-0.255
5.144,-0.410,-0.240
5.147,-0.410,-0.230
5.150,-0.395,-0.220
5.153,-0.375,-0.215
5.156,-0.375,-0.230
5.158,-0.380,-0.220
5.161,-0.375,-0.220
5.164,-0.380,-0.195
5.167,-0.365,-0.190
5.169,-0.350,-0.180
5.172,-0.340,-0.185
5.175,-0.340,-0.165
5.178,-0.320,-0.150
5.181,-0.310,-0.155
5.183,-0.300,-0.135
5.186,-0.320,-0.130
5.189,-0.320,-0.135
5.192,-0.335,-0.150
5.194,-0.345,-0.150
5.197,-0.360,-0.175
5.200,-0.365,-0.175
5.203,-0.380,-0.195
5.206,-0.380,-0.200
5.208,-0.390,-0.195
5.211,-0.400,-0.200
5.214,-0.395,-0.180
5.217,-0.410,-0.195
5.219,-0.410,-0.195
5.222,-0.415,-0.215
5.225,-0.420,-0.220
5.228,-0.435,-0.245
5.231,-0.440,-0.235
5.233,-0.440,-0.230
5.236,-0.450,-0.240
5.239,-0.470,-0.240
5.242,-0.465,-0.240
5.244,-0.460,-0.240
5.247,-0.460,-0.250
5.250,-0.455,-0.260
5.253,-0.440,-0.260
5.256,-0.430,-0.270
5.258,-0.415,-0.260
5.261,-0.410,-0.270
5.264,-0.410,-0.270
5.267,-0.385,-0.265
5.269,-0.365,-0.250
5.272,-0.330,-0.215
5.275,-0.290,-0.210
5.278,-0.265,-0.200
5.281,-0.225,-0.180
5.283,-0.240,-0.165
5.286,-0.220,-0.140
5.289,-0.175,-0.140
5.292,-0.180,-0.125
5.294,-0.145,-0.115
5.297,-0.130,-0.110
5.300,-0.105,-0.080
5.303,-0.065,-0.050
5.306,-0.025,-0.020
5.308,0.005,0.000
5.311,0.030,0.030
5.314,0.080,0.035
5.317,0.125,0.065
5.319,0.170,0.075
5.322,0.210,0.080
5.325,0.245,0.110
5.328,0.280,0.150
5.331,0.355,0.205
5.333,0.440,0.285
5.336,0.540,0.370
5.339,0.685,0.490
5.342,0.835,0.615
5.344,1.025,0.740
5.347,1.205,0.860
5.350,1.355,0.930
5.353,1.450,0.920
5.356,1.465,0.805
5.358,1.370,0.640
5.361,1.170,0.415
5.364,0.880,0.220
5.367,0.475,0.045
5.369,0.015,-0.110
5.372,-0.435,-0.205
5.375,-0.825,-0.315
5.378,-1.050,-0.410
5.381,-1.100,-0.490
5.383,-1.045,-0.545
5.386,-0.885,-0.550
5.389,-0.730,-0.545
5.392,-0.595,-0.500
5.394,-0.500,-0.445
5.397,-0.455,-0.380
5.400,-0.445,-0.305
5.403,-0.470,-0.260
5.406,-0.480,-0.235
5.408,-0.490,-0.215
5.411,-0.500,-0.215
5.414,-0.500,-0.220
5.417,-0.495,-0.225
5.419,-0.485,-0.230
5.422,-0.485,-0.230
5.425,-0.475,-0.230
5.428,-0.485,-0.225
5.431,-0.490,-0.230
5.433,-0.495,-0.220
5.436,-0.515,-0.225
5.439,-0.515,-0.220
5.442,-0.510,-0.225
5.444,-0.510,-0.205
5.447,-0.505,-0.205
5.450,-0.510,-0.205
5.453,-0.515,-0.195
5.456,-0.525,-0.200
5.458,-0.540,-0.215
5.461,-0.550,-0.205
5.464,-0.550,-0.210
5.467,-0.570,-0.205
5.469,-0.580,-0.205
5.472,-0.585,-0.190
5.475,-0.600,-0.175
5.478,-0.595,-0.155
5.481,-0.575,-0.150
5.483,-0.585,-0.140
5.486,-0.585,-0.160
5.489,-0.600,-0.160
5.492,-0.605,-0.165
5.494,-0.620,-0.175
5.497,-0.630,-0.170
5.500,-0.645,-0.160
5.503,-0.645,-0.150
5.506,-0.635,-0.145
5.508,-0.635,-0.130
5.511,-0.630,-0.125
5.514,-0.615,-0.120
5.517,-0.615,-0.115
5.519,-0.625,-0.105
5.522,-0.610,-0.120
5.525,-0.610,-0.115
5.528,-0.615,-0.110
5.531,-0.620,-0.105
5.533,-0.615,-0.090
5.536,-0.610,-0.090
5.539,-0.585,-0.070
5.542,-0.555,-0.055
5.544,-0.550,-0.035
5.547,-0.525,-0.025
5.550,-0.515,-0.020
5.553,-0.500,-0.010
5.556,-0.490,0.005
5.558,-0.475,0.015
5.561,-0.460,0.015
5.564,-0.455,0.020
5.567,-0.425,0.035
5.569,-0.415,0.055
5.572,-0.380,0.060
5.575,-0.355,0.085
5.578,-0.345,0.100
5.581,-0.325,0.130
5.583,-0.320,0.120
5.586,-0.295,0.135
5.589,-0.290,0.130
5.592,-0.285,0.130
5.594,-0.270,0.125
5.597,-0.270,0.130
5.600,-0.260,0.145
5.603,-0.260,0.145
5.606,-0.255,0.165
5.608,-0.245,0.165
5.611,-0.240,0.165
5.614,-0.235,0.160
5.617,-0.230,0.155
5.619,-0.225,0.145
5.622,-0.230,0.125
5.625,-0.245,0.100
5.628,-0.270,0.080
5.631,-0.295,0.060
5.633,-0.305,0.050
5.636,-0.315,0.035
5.639,-0.325,0.030
5.642,-0.340,0.015
5.644,-0.340,0.005
5.647,-0.340,0.005
5.650,-0.345,-0.015
5.653,-0.365,-0.030
5.656,-0.375,-0.060
5.658,-0.395,-0.070
5.661,-0.410,-0.075
5.664,-0.410,-0.105
5.667,-0.430,-0.095
5.669,-0.425,-0.095
5.672,-0.425,-0.110
5.675,-0.410,-0.105
5.678,-0.405,-0.115
5.681,-0.400,-0.095
5.683,-0.400,-0.100
5.686,-0.395,-0.115
5.689,-0.400,-0.125
5.692,-0.400,-0.130
5.694,-0.390,-0.140
5.697,-0.405,-0.140
5.700,-0.395,-0.155
5.703,-0.375,-0.145
5.706,-0.375,-0.140
5.708,-0.360,-0.135
5.711,-0.350,-0.135
5.714,-0.350,-0.130
5.717,-0.345,-0.120
5.719,-0.340,-0.140
5.722,-0.335,-0.145
5.725,-0.340,-0.145
5.728,-0.330,-0.160
5.731,-0.335,-0.160
5.733,-0.345,-0.165
5.736,-0.335,-0.165
5.739,-0.330,-0.155
5.742,-0.320,-0.150
5.744,-0.330,-0.145
5.747,-0.320,-0.135
5.750,-0.315,-0.150
5.753,-0.300,-0.145
5.756,-0.310,-0.170
5.758,-0.295,-0.165
5.761,-0.315,-0.180
5.764,-0.325,-0.180
5.767,-0.330,-0.175
5.769,-0.340,-0.180
5.772,-0.340,-0.175
5.775,-0.340,-0.175
5.778,-0.330,-0.170
5.781,-0.325,-0.165
5.783,-0.325,-0.170
5.786,-0.315,-0.170
5.789,-0.330,-0.175
5.792,-0.335,-0.180
5.794,-0.335,-0.190
5.797,-0.355,-0.195
5.800,-0.360,-0.215
5.803,-0.365,-0.200
5.806,-0.365,-0.195
5.808,-0.355,-0.190
5.811,-0.360,-0.190
5.814,-0.355,-0.180
5.817,-0.350,-0.175
5.819,-0.345,-0.190
5.822,-0.360,-0.200
5.825,-0.360,-0.215
5.828,-0.375,-0.210
5.831,-0.380,-0.225
5.833,-0.370,-0.220
5.836,-0.370,-0.220
5.839,-0.380,-0.210
5.842,-0.370,-0.200
5.844,-0.375,-0.205
5.847,-0.380,-0.190
5.850,-0.375,-0.195
5.853,-0.385,-0.200
5.856,-0.375,-0.215
5.858,-0.385,-0.200
5.861,-0.405,-0.210
5.864,-0.405,-0.215
5.867,-0.425,-0.220
5.869,-0.435,-0.210
5.872,-0.435,-0.210
5.875,-0.435,-0.200
5.878,-0.430,-0.190
5.881,-0.420,-0.190
5.883,-0.435,-0.190
5.886,-0.430,-0.180
5.889,-0.430,-0.185
5.892,-0.435,-0.190
5.894,-0.440,-0.210
5.897,-0.450,-0.215
5.900,-0.445,-0.205
5.903,-0.450,-0.205
5.906,-0.435,-0.190
5.908,-0.435,-0.190
5.911,-0.410,-0.180
5.914,-0.390,-0.165
5.917,-0.370,-0.170
5.919,-0.345,-0.150
5.922,-0.330,-0.145
5.925,-0.325,-0.145
5.928,-0.310,-0.145
5.931,-0.305,-0.135
5.933,-0.285,-0.110
5.936,-0.265,-0.105
5.939,-0.245,-0.095
5.942,-0.230,-0.065
5.944,-0.230,-0.060
5.947,-0.210,-0.050
5.950,-0.210,-0.055
5.953,-0.220,-0.040
5.956,-0.220,-0.065
5.958,-0.225,-0.090
5.961,-0.245,-0.110
5.964,-0.245,-0.145
5.967,-0.250,-0.160
5.969,-0.260,-0.165
5.972,-0.260,-0.160
5.975,-0.275,-0.155
5.978,-0.285,-0.160
5.981,-0.285,-0.150
5.983,-0.295,-0.160
5.986,-0.295,-0.165
5.989,-0.290,-0.175
5.992,-0.305,-0.190
5.994,-0.330,-0.200
5.997,-0.350,-0.215
6.000,-0.365,-0.225
6.003,-0.380,-0.235
6.006,-0.385,-0.225
6.008,-0.370,-0.230
6.011,-0.360,-0.230
6.014,-0.345,-0.220
6.017,-0.325,-0.225
6.019,-0.305,-0.225
6.022,-0.285,-0.210
6.025,-0.270,-0.220
6.028,-0.275,-0.215
6.031,-0.280,-0.215
6.033,-0.280,-0.205
6.036,-0.280,-0.190
6.039,-0.255,-0.170
6.042,-0.225,-0.145
6.044,-0.200,-0.120
6.047,-0.190,-0.105
6.050,-0.150,-0.095
6.053,-0.135,-0.070
6.056,-0.115,-0.050
6.058,-0.085,-0.040
6.061,-0.070,-0.010
6.064,-0.040,-0.010
6.067,-0.005,0.025
6.069,0.035,0.040
6.072,0.070,0.065
6.075,0.120,0.090
6.078,0.160,0.110
6.081,0.200,0.145
6.083,0.245,0.170
6.086,0.310,0.225
6.089,0.390,0.280
6.092,0.490,0.345
6.094,0.630,0.435
6.097,0.775,0.545
6.100,0.960,0.655
6.103,1.140,0.770
6.106,1.325,0.860
6.108,1.475,0.890
6.111,1.560,0.835
6.114,1.560,0.695
6.117,1.435,0.505
6.119,1.225,0.290
6.122,0.885,0.105
6.125,0.460,-0.045
6.128,0.010,-0.150
6.131,-0.425,-0.235
6.133,-0.750,-0.340
6.136,-0.930,-0.430
6.139,-0.965,-0.495
6.142,-0.870,-0.550
6.144,-0.725,-0.565
6.147,-0.565,-0.535
6.150,-0.425,-0.515
6.153,-0.340,-0.435
6.156,-0.285,-0.370
6.158,-0.280,-0.300
6.161,-0.285,-0.255
6.164,-0.300,-0.230
6.167,-0.335,-0.220
6.169,-0.345,-0.210
6.172,-0.350,-0.210
6.175,-0.340,-0.205
6.178,-0.320,-0.210
6.181,-0.305,-0.205
6.183,-0.310,-0.205
6.186,-0.315,-0.205
6.189,-0.320,-0.205
6.192,-0.320,-0.215
6.194,-0.330,-0.210
6.197,-0.330,-0.215
6.200,-0.330,-0.220
6.203,-0.325,-0.230
6.206,-0.330,-0.210
6.208,-0.330,-0.190
6.211,-0.325,-0.190
6.214,-0.310,-0.185
6.217,-0.320,-0.195
6.219,-0.325,-0.190
6.222,-0.325,-0.180
6.225,-0.335,-0.195
6.228,-0.340,-0.205
6.231,-0.340,-0.200
6.233,-0.355,-0.205
6.236,-0.360,-0.195
6.239,-0.355,-0.180
6.242,-0.355,-0.175
6.244,-0.360,-0.160
6.247,-0.365,-0.165
6.250,-0.345,-0.160
6.253,-0.355,-0.165
6.256,-0.355,-0.160
6.258,-0.355,-0.155
6.261,-0.355,-0.155
6.264,-0.370,-0.150
6.267,-0.375,-0.140
6.269,-0.385,-0.120
6.272,-0.380,-0.115
6.275,-0.370,-0.095
6.278,-0.370,-0.085
6.281,-0.350,-0.080
6.283,-0.340,-0.075
6.286,-0.340,-0.070
6.289,-0.340,-0.060
6.292,-0.355,-0.060
6.294,-0.355,-0.060
6.297,-0.370,-0.055
6.300,-0.360,-0.040
6.303,-0.360,-0.035
6.306,-0.350,-0.020
6.308,-0.340,0.000
6.311,-0.325,0.025
6.314,-0.315,0.030
6.317,-0.320,0.035
6.319,-0.310,0.035
6.322,-0.305,0.045
6.325,-0.310,0.040
6.328,-0.315,0.045
6.331,-0.310,0.050
6.333,-0.310,0.055
6.336,-0.305,0.060
6.339,-0.305,0.070
6.342,-0.290,0.080
6.344,-0.285,0.095
6.347,-0.285,0.115
6.350,-0.280,0.105
6.353,-0.260,0.105
6.356,-0.270,0.100
6.358,-0.255,0.110
6.361,-0.245,0.100
6.364,-0.265,0.095
6.367,-0.270,0.095
6.369,-0.270,0.090
6.372,-0.275,0.085
6.375,-0.280,0.080
6.378,-0.285,0.075
6.381,-0.285,0.065
6.383,-0.275,0.045
6.386,-0.275,0.015
6.389,-0.280,0.010
6.392,-0.300,-0.020
6.394,-0.315,-0.040
6.397,-0.325,-0.060
6.400,-0.325,-0.085
6.403,-0.330,-0.090
6.406,-0.340,-0.100
6.408,-0.340,-0.110
6.411,-0.340,-0.105
6.414,-0.345,-0.120
6.417,-0.340,-0.130
6.419,-0.360,-0.140
6.422,-0.360,-0.145
6.425,-0.370,-0.160
6.428,-0.375,-0.165
6.431,-0.370,-0.165
6.433,-0.375,-0.190
6.436,-0.385,-0.195
6.439,-0.385,-0.190
6.442,-0.380,-0.180
6.444,-0.380,-0.180
6.447,-0.365,-0.170
6.450,-0.375,-0.185
6.453,-0.365,-0.185
6.456,-0.370,-0.175
6.458,-0.385,-0.185
6.461,-0.390,-0.195
6.464,-0.370,-0.195
6.467,-0.380,-0.200
6.469,-0.375,-0.200
6.472,-0.375,-0.190
6.475,-0.365,-0.175
6.478,-0.360,-0.170
6.481,-0.355,-0.170
6.483,-0.345,-0.175
6.486,-0.335,-0.185
6.489,-0.340,-0.180
6.492,-0.320,-0.175
6.494,-0.330,-0.175
6.497,-0.335,-0.180
6.500,-0.325,-0.180
6.503,-0.320,-0.175
6.506,-0.315,-0.180
6.508,-0.310,-0.180
6.511,-0.305,-0.175
6.514,-0.285,-0.170
6.517,-0.270,-0.175
6.519,-0.260,-0.180
6.522,-0.260,-0.185
6.525,-0.250,-0.190
6.528,-0.265,-0.200
6.531,-0.265,-0.215
6.533,-0.280,-0.220
6.536,-0.290,-0.225
6.539,-0.280,-0.220
6.542,-0.270,-0.210
6.544,-0.240,-0.210
6.547,-0.230,-0.200
6.550,-0.220,-0.210
6.553,-0.230,-0.230
6.556,-0.225,-0.220
6.558,-0.230,-0.230
6.561,-0.230,-0.245
6.564,-0.250,-0.240
6.567,-0.260,-0.245
6.569,-0.260,-0.240
6.572,-0.265,-0.230
6.575,-0.270,-0.230
6.578,-0.285,-0.225
6.581,-0.295,-0.240
6.583,-0.290,-0.225
6.586,-0.305,-0.240
6.589,-0.320,-0.260
6.592,-0.335,-0.260
6.594,-0.340,-0.265
6.597,-0.345,-0.270
6.600,-0.350,-0.275
6.603,-0.365,-0.270
6.606,-0.365,-0.265
6.608,-0.370,-0.255
6.611,-0.370,-0.235
6.614,-0.380,-0.250
6.617,-0.390,-0.240
6.619,-0.385,-0.255
6.622,-0.390,-0.265
6.625,-0.395,-0.265
6.628,-0.405,-0.275
6.631,-0.410,-0.280
6.633,-0.420,-0.295
6.636,-0.425,-0.270
6.639,-0.420,-0.265
6.642,-0.420,-0.265
6.644,-0.405,-0.250
6.647,-0.380,-0.250
6.650,-0.375,-0.240
6.653,-0.350,-0.240
6.656,-0.330,-0.225
6.658,-0.325,-0.215
6.661,-0.330,-0.225
6.664,-0.325,-0.225
6.667,-0.325,-0.220
6.669,-0.325,-0.205
6.672,-0.320,-0.200
6.675,-0.310,-0.200
6.678,-0.300,-0.165
6.681,-0.300,-0.165
6.683,-0.295,-0.170
6.686,-0.295,-0.175
6.689,-0.310,-0.195
6.692,-0.325,-0.205
6.694,-0.355,-0.215
6.697,-0.385,-0.225
6.700,-0.390,-0.240
6.703,-0.405,-0.240
6.706,-0.420,-0.255
6.708,-0.425,-0.245
6.711,-0.425,-0.255
6.714,-0.445,-0.255
6.717,-0.445,-0.260
6.719,-0.465,-0.270
6.722,-0.490,-0.270
6.725,-0.505,-0.290
6.728,-0.520,-0.300
6.731,-0.535,-0.300
6.733,-0.555,-0.315
6.736,-0.560,-0.325
6.739,-0.565,-0.325
6.742,-0.560,-0.325
6.744,-0.560,-0.330
6.747,-0.555,-0.320
6.750,-0.540,-0.320
6.753,-0.510,-0.310
6.756,-0.515,-0.320
6.758,-0.495,-0.315
6.761,-0.480,-0.315
6.764,-0.480,-0.315
6.767,-0.455,-0.315
6.769,-0.450,-0.295
6.772,-0.425,-0.280
6.775,-0.405,-0.255
6.778,-0.375,-0.230
6.781,-0.350,-0.210
6.783,-0.325,-0.190
6.786,-0.295,-0.175
6.789,-0.265,-0.165
6.792,-0.245,-0.155
6.794,-0.220,-0.140
6.797,-0.210,-0.130
6.800,-0.175,-0.110
6.803,-0.160,-0.085
6.806,-0.130,-0.065
6.808,-0.080,-0.045
6.811,-0.040,-0.015
6.814,0.015,0.010
6.817,0.060,0.025
6.819,0.100,0.040
6.822,0.125,0.060
6.825,0.165,0.095
6.828,0.225,0.140
6.831,0.300,0.195
6.833,0.425,0.265
6.836,0.570,0.360
6.839,0.760,0.485
6.842,0.970,0.610
6.844,1.200,0.745
6.847,1.405,0.890
6.850,1.560,0.945
6.853,1.675,0.905
6.856,1.700,0.815
6.858,1.610,0.650
6.861,1.385,0.455
6.864,1.030,0.270
6.867,0.580,0.125
6.869,0.080,-0.015
6.872,-0.420,-0.105
6.875,-0.825,-0.225
6.878,-1.100,-0.330
6.881,-1.175,-0.435
6.883,-1.125,-0.520
6.886,-0.985,-0.580
6.889,-0.810,-0.585
6.892,-0.660,-0.570
6.894,-0.545,-0.520
6.897,-0.470,-0.445
6.900,-0.425,-0.370
6.903,-0.425,-0.300
6.906,-0.435,-0.260
6.908,-0.455,-0.235
6.911,-0.470,-0.220
6.914,-0.485,-0.215
6.917,-0.470,-0.225
6.919,-0.455,-0.235
6.922,-0.440,-0.235
6.925,-0.430,-0.235
6.928,-0.435,-0.240
6.931,-0.445,-0.240
6.933,-0.450,-0.240
6.936,-0.445,-0.240
6.939,-0.450,-0.230
6.942,-0.430,-0.230
6.944,-0.415,-0.225
6.947,-0.410,-0.220
6.950,-0.405,-0.225
6.953,-0.390,-0.225
6.956,-0.400,-0.220
6.958,-0.410,-0.230
6.961,-0.420,-0.240
6.964,-0.405,-0.255
6.967,-0.410,-0.250
6.969,-0.410,-0.245
6.972,-0.405,-0.245
6.975,-0.400,-0.235
6.978,-0.395,-0.230
6.981,-0.390,-0.220
6.983,-0.385,-0.230
6.986,-0.390,-0.225
6.989,-0.395,-0.215
6.992,-0.400,-0.235
6.994,-0.410,-0.240
6.997,-0.435,-0.235
7.000,-0.420,-0.235
7.003,-0.415,-0.225
7.006,-0.420,-0.230
7.008,-0.415,-0.215
7.011,-0.420,-0.195
7.014,-0.405,-0.190
7.017,-0.400,-0.190
7.019,-0.405,-0.195
7.022,-0.405,-0.185
7.025,-0.410,-0.190
7.028,-0.420,-0.195
7.031,-0.405,-0.195
7.033,-0.410,-0.180
7.036,-0.410,-0.180
7.039,-0.395,-0.160
7.042,-0.395,-0.145
7.044,-0.390,-0.120
7.047,-0.370,-0.110
7.050,-0.355,-0.105
7.053,-0.345,-0.100
7.056,-0.325,-0.080
7.058,-0.330,-0.085
7.061,-0.330,-0.080
7.064,-0.320,-0.080
7.067,-0.330,-0.060
7.069,-0.325,-0.040
7.072,-0.320,-0.040
7.075,-0.300,-0.020
7.078,-0.290,-0.015
7.081,-0.275,-0.005
7.083,-0.260,0.005
7.086,-0.260,0.015
7.089,-0.255,0.020
7.092,-0.260,0.005
7.094,-0.270,0.020
7.097,-0.265,0.020
7.100,-0.270,0.020
7.103,-0.270,0.030
7.106,-0.265,0.035
7.108,-0.260,0.035
7.111,-0.250,0.040
7.114,-0.260,0.045
7.117,-0.255,0.045
7.119,-0.255,0.025
7.122,-0.265,0.015
7.125,-0.280,-0.010
7.128,-0.295,-0.035
7.131,-0.305,-0.045
7.133,-0.310,-0.055
7.136,-0.315,-0.065
7.139,-0.330,-0.070
7.142,-0.330,-0.080
7.144,-0.345,-0.090
7.147,-0.340,-0.090
7.150,-0.340,-0.105
7.153,-0.340,-0.110
7.156,-0.340,-0.120
7.158,-0.335,-0.145
7.161,-0.350,-0.155
7.164,-0.360,-0.170
7.167,-0.385,-0.175
7.169,-0.395,-0.175
7.172,-0.395,-0.175
7.175,-0.380,-0.180
7.178,-0.360,-0.175
7.181,-0.350,-0.175
7.183,-0.350,-0.175
7.186,-0.325,-0.175
7.189,-0.330,-0.190
7.192,-0.330,-0.190
7.194,-0.370,-0.205
7.197,-0.370,-0.205
7.200,-0.395,-0.215
7.203,-0.380,-0.205
7.206,-0.375,-0.215
7.208,-0.375,-0.200
7.211,-0.385,-0.195
7.214,-0.355,-0.190
7.217,-0.340,-0.205
7.219,-0.320,-0.205
7.222,-0.315,-0.210
7.225,-0.320,-0.215
7.228,-0.300,-0.215
7.231,-0.310,-0.215
7.233,-0.300,-0.230
7.236,-0.285,-0.215
7.239,-0.275,-0.220
7.242,-0.275,-0.220
7.244,-0.275,-0.215
7.247,-0.285,-0.220
7.250,-0.295,-0.215
7.253,-0.285,-0.220
7.256,-0.285,-0.235
7.258,-0.300,-0.235
7.261,-0.275,-0.245
7.264,-0.290,-0.255
7.267,-0.285,-0.260
7.269,-0.285,-0.240
7.272,-0.290,-0.245
7.275,-0.270,-0.235
7.278,-0.255,-0.225
7.281,-0.270,-0.230
7.283,-0.270,-0.220
7.286,-0.265,-0.240
7.289,-0.260,-0.240
7.292,-0.265,-0.250
7.294,-0.280,-0.265
7.297,-0.295,-0.270
7.300,-0.295,-0.265
7.303,-0.295,-0.250
7.306,-0.300,-0.270
7.308,-0.290,-0.250
7.311,-0.280,-0.250
7.314,-0.265,-0.245
7.317,-0.255,-0.245
7.319,-0.270,-0.255
7.322,-0.260,-0.265
7.325,-0.260,-0.275
7.328,-0.275,-0.290
7.331,-0.280,-0.285
7.333,-0.275,-0.290
7.336,-0.270,-0.285
7.339,-0.265,-0.295
7.342,-0.270,-0.275
7.344,-0.265,-0.285
7.347,-0.265,-0.270
7.350,-0.255,-0.265
7.353,-0.255,-0.265
7.356,-0.255,-0.275
7.358,-0.255,-0.280
7.361,-0.260,-0.275
7.364,-0.250,-0.260
7.367,-0.250,-0.265
7.369,-0.235,-0.250
7.372,-0.220,-0.235
7.375,-0.195,-0.220
7.378,-0.185,-0.205
7.381,-0.180,-0.195
7.383,-0.170,-0.185
7.386,-0.180,-0.195
7.389,-0.155,-0.185
7.392,-0.135,-0.190
7.394,-0.130,-0.190
7.397,-0.115,-0.185
7.400,-0.120,-0.190
7.403,-0.125,-0.180
7.406,-0.130,-0.170
7.408,-0.135,-0.175
7.411,-0.150,-0.180
7.414,-0.155,-0.195
7.417,-0.165,-0.200
7.419,-0.165,-0.225
7.422,-0.170,-0.230
7.425,-0.185,-0.235
7.428,-0.190,-0.245
7.431,-0.220,-0.245
7.433,-0.225,-0.245
7.436,-0.250,-0.250
7.439,-0.275,-0.255
7.442,-0.295,-0.255
7.444,-0.295,-0.250
7.447,-0.290,-0.245
7.450,-0.295,-0.260
7.453,-0.275,-0.245
7.456,-0.280,-0.255
7.458,-0.315,-0.270
7.461,-0.320,-0.280
7.464,-0.335,-0.300
7.467,-0.350,-0.310
7.469,-0.355,-0.310
7.472,-0.335,-0.285
7.475,-0.330,-0.280
7.478,-0.310,-0.260
7.481,-0.295,-0.245
7.483,-0.290,-0.245
7.486,-0.290,-0.235
7.489,-0.280,-0.225
7.492,-0.270,-0.225
7.494,-0.280,-0.220
7.497,-0.265,-0.225
7.500,-0.255,-0.200
7.503,-0.260,-0.180
7.506,-0.255,-0.170
7.508,-0.245,-0.145
7.511,-0.235,-0.120
7.514,-0.220,-0.100
7.517,-0.195,-0.065
7.519,-0.180,-0.060
7.522,-0.155,-0.040
7.525,-0.135,-0.035
7.528,-0.120,-0.020
7.531,-0.090,-0.005
7.533,-0.060,0.005
7.536,-0.035,0.020
7.539,0.005,0.035
7.542,0.035,0.080
7.544,0.080,0.100
7.547,0.150,0.155
7.550,0.220,0.235
7.553,0.350,0.300
7.556,0.510,0.390
7.558,0.690,0.505
7.561,0.905,0.615
7.564,1.115,0.735
7.567,1.355,0.850
7.569,1.545,0.905
7.572,1.700,0.900
7.575,1.755,0.800
7.578,1.695,0.620
7.581,1.520,0.430
7.583,1.195,0.225
7.586,0.755,0.055
7.589,0.215,-0.090
7.592,-0.370,-0.210
7.594,-0.895,-0.325
7.597,-1.270,-0.425
7.600,-1.420,-0.525
7.603,-1.380,-0.560
7.606,-1.195,-0.580
7.608,-0.945,-0.560
7.611,-0.720,-0.520
7.614,-0.545,-0.455
7.617,-0.455,-0.400
7.619,-0.415,-0.335
7.622,-0.410,-0.290
7.625,-0.450,-0.255
7.628,-0.475,-0.250
7.631,-0.495,-0.250
7.633,-0.505,-0.250
7.636,-0.505,-0.255
7.639,-0.495,-0.245
7.642,-0.480,-0.240
7.644,-0.475,-0.225
7.647,-0.470,-0.230
7.650,-0.465,-0.220
7.653,-0.460,-0.225
7.656,-0.445,-0.220
7.658,-0.455,-0.225
7.661,-0.445,-0.230
7.664,-0.455,-0.230
7.667,-0.450,-0.235
7.669,-0.445,-0.230
7.672,-0.450,-0.215
7.675,-0.435,-0.200
7.678,-0.440,-0.200
7.681,-0.430,-0.195
7.683,-0.420,-0.190
7.686,-0.415,-0.200
7.689,-0.415,-0.195
7.692,-0.425,-0.205
7.694,-0.415,-0.200
7.697,-0.425,-0.215
7.700,-0.430,-0.200
7.703,-0.420,-0.200
7.706,-0.415,-0.195
7.708,-0.405,-0.180
7.711,-0.395,-0.180
7.714,-0.380,-0.170
7.717,-0.380,-0.170
7.719,-0.370,-0.175
7.722,-0.370,-0.170
7.725,-0.370,-0.165
7.728,-0.360,-0.170
7.731,-0.365,-0.170
7.733,-0.355,-0.155
7.736,-0.340,-0.145
7.739,-0.330,-0.125
7.742,-0.315,-0.110
7.744,-0.300,-0.095
7.747,-0.295,-0.090
7.750,-0.280,-0.060
7.753,-0.270,-0.055
7.756,-0.255,-0.070
7.758,-0.255,-0.050
7.761,-0.245,-0.040
7.764,-0.245,-0.040
7.767,-0.225,-0.045
7.769,-0.210,-0.030
7.772,-0.200,-0.015
7.775,-0.200,0.015
7.778,-0.195,0.010
7.781,-0.180,0.035
7.783,-0.160,0.035
7.786,-0.150,0.040
7.789,-0.155,0.035
7.792,-0.160,0.040
7.794,-0.160,0.055
7.797,-0.145,0.050
7.800,-0.150,0.055
7.803,-0.165,0.080
7.806,-0.175,0.090
7.808,-0.185,0.100
7.811,-0.180,0.110
7.814,-0.190,0.105
7.817,-0.190,0.120
7.819,-0.205,0.120
7.822,-0.210,0.115
7.825,-0.220,0.095
7.828,-0.240,0.090
7.831,-0.245,0.075
7.833,-0.250,0.065
7.836,-0.250,0.060
7.839,-0.250,0.040
7.842,-0.265,0.035
7.844,-0.260,0.025
7.847,-0.280,0.010
7.850,-0.285,0.005
7.853,-0.295,-0.020
7.856,-0.320,-0.050
7.858,-0.320,-0.055
7.861,-0.335,-0.090
7.864,-0.345,-0.095
7.867,-0.350,-0.125
7.869,-0.360,-0.140
7.872,-0.370,-0.140
7.875,-0.375,-0.145
7.878,-0.380,-0.155
7.881,-0.380,-0.155
7.883,-0.385,-0.160
7.886,-0.395,-0.170
7.889,-0.400,-0.185
7.892,-0.410,-0.205
7.894,-0.410,-0.205
7.897,-0.425,-0.225
7.900,-0.430,-0.220
7.903,-0.435,-0.205
7.906,-0.430,-0.215
7.908,-0.430,-0.215
7.911,-0.430,-0.205
7.914,-0.425,-0.205
7.917,-0.410,-0.205
7.919,-0.385,-0.200
7.922,-0.385,-0.210
7.925,-0.380,-0.215
7.928,-0.390,-0.210
7.931,-0.395,-0.220
7.933,-0.405,-0.230
7.936,-0.425,-0.210
7.939,-0.430,-0.215
7.942,-0.425,-0.210
7.944,-0.420,-0.195
7.947,-0.410,-0.200
7.950,-0.405,-0.190
7.953,-0.415,-0.210
7.956,-0.410,-0.200
7.958,-0.425,-0.215
7.961,-0.445,-0.215
7.964,-0.450,-0.230
7.967,-0.475,-0.235
7.969,-0.490,-0.230
7.972,-0.500,-0.235
7.975,-0.475,-0.225
7.978,-0.485,-0.225
7.981,-0.475,-0.210
7.983,-0.460,-0.215
7.986,-0.470,-0.230
7.989,-0.470,-0.230
7.992,-0.470,-0.250
7.994,-0.465,-0.250
7.997,-0.475,-0.270
8.000,-0.450,-0.265
8.003,-0.450,-0.265
8.006,-0.445,-0.270
8.008,-0.450,-0.255
8.011,-0.450,-0.260
8.014,-0.430,-0.250
8.017,-0.430,-0.255
8.019,-0.415,-0.265
8.022,-0.420,-0.260
8.025,-0.400,-0.260
8.028,-0.395,-0.270
8.031,-0.405,-0.275
8.033,-0.400,-0.280
8.036,-0.390,-0.280
8.039,-0.400,-0.270
8.042,-0.380,-0.280
8.044,-0.375,-0.275
8.047,-0.375,-0.265
8.050,-0.365,-0.270
8.053,-0.355,-0.270
8.056,-0.360,-0.270
8.058,-0.365,-0.280
8.061,-0.365,-0.280
8.064,-0.380,-0.290
8.067,-0.390,-0.290
8.069,-0.390,-0.270
8.072,-0.400,-0.270
8.075,-0.375,-0.255
8.078,-0.355,-0.245
8.081,-0.370,-0.230
8.083,-0.330,-0.230
8.086,-0.330,-0.225
8.089,-0.315,-0.220
8.092,-0.330,-0.215
8.094,-0.325,-0.210
8.097,-0.330,-0.200
8.100,-0.320,-0.200
8.103,-0.325,-0.195
8.106,-0.310,-0.175
8.108,-0.290,-0.170
8.111,-0.280,-0.165
8.114,-0.260,-0.140
8.117,-0.255,-0.145
8.119,-0.255,-0.130
8.122,-0.255,-0.135
8.125,-0.265,-0.135
8.128,-0.270,-0.150
8.131,-0.280,-0.165
8.133,-0.290,-0.180
8.136,-0.300,-0.200
8.139,-0.300,-0.195
8.142,-0.305,-0.195
8.144,-0.305,-0.185
8.147,-0.305,-0.180
8.150,-0.310,-0.185
8.153,-0.340,-0.210
8.156,-0.355,-0.205
8.158,-0.345,-0.215
8.161,-0.365,-0.240
8.164,-0.370,-0.250
8.167,-0.385,-0.240
8.169,-0.405,-0.245
8.172,-0.410,-0.240
8.175,-0.430,-0.250
8.178,-0.445,-0.255
8.181,-0.450,-0.260
8.183,-0.440,-0.280
8.186,-0.450,-0.275
8.189,-0.445,-0.275
8.192,-0.430,-0.290
8.194,-0.430,-0.290
8.197,-0.430,-0.295
8.200,-0.425,-0.295
8.203,-0.425,-0.285
8.206,-0.400,-0.280
8.208,-0.385,-0.255
8.211,-0.355,-0.240
8.214,-0.335,-0.225
8.217,-0.310,-0.205
8.219,-0.290,-0.205
8.222,-0.265,-0.185
8.225,-0.260,-0.170
8.228,-0.245,-0.170
8.231,-0.230,-0.155
8.233,-0.210,-0.130
8.236,-0.190,-0.120
8.239,-0.170,-0.080
8.242,-0.125,-0.060
8.244,-0.090,-0.035
8.247,-0.065,-0.020
8.250,-0.020,0.010
8.253,0.025,0.015
8.256,0.060,0.035
8.258,0.080,0.050
8.261,0.105,0.060
8.264,0.145,0.100
8.267,0.210,0.140
8.269,0.280,0.210
8.272,0.400,0.290
8.275,0.545,0.390
8.278,0.730,0.510
8.281,0.935,0.630
8.283,1.155,0.760
8.286,1.375,0.855
8.289,1.570,0.910
8.292,1.710,0.875
8.294,1.770,0.775
8.297,1.720,0.580
8.300,1.545,0.365
8.303,1.215,0.170
8.306,0.755,0.015
8.308,0.225,-0.100
8.311,-0.335,-0.195
8.314,-0.840,-0.295
8.317,-1.185,-0.385
8.319,-1.305,-0.485
8.322,-1.255,-0.550
8.325,-1.100,-0.590
8.328,-0.895,-0.590
8.331,-0.710,-0.550
8.333,-0.570,-0.470
8.336,-0.475,-0.405
8.339,-0.460,-0.330
8.342,-0.440,-0.270
8.344,-0.460,-0.235
8.347,-0.475,-0.210
8.350,-0.505,-0.200
8.353,-0.505,-0.210
8.356,-0.520,-0.205
8.358,-0.515,-0.215
8.361,-0.510,-0.220
8.364,-0.505,-0.225
8.367,-0.500,-0.220
8.369,-0.485,-0.215
8.372,-0.490,-0.205
8.375,-0.490,-0.195
8.378,-0.480,-0.200
8.381,-0.470,-0.185
8.383,-0.475,-0.165
8.386,-0.465,-0.180
8.389,-0.475,-0.180
8.392,-0.470,-0.180
8.394,-0.475,-0.190
8.397,-0.465,-0.195
8.400,-0.465,-0.195
8.403,-0.460,-0.175
8.406,-0.470,-0.185
8.408,-0.460,-0.170
8.411,-0.445,-0.155
8.414,-0.440,-0.160
8.417,-0.425,-0.160
8.419,-0.410,-0.150
8.422,-0.415,-0.145
8.425,-0.395,-0.140
8.428,-0.410,-0.145
8.431,-0.420,-0.140
8.433,-0.425,-0.145
8.436,-0.435,-0.140
8.439,-0.440,-0.135
8.442,-0.425,-0.140
8.444,-0.415,-0.110
8.447,-0.400,-0.100
8.450,-0.380,-0.090
8.453,-0.370,-0.095
8.456,-0.370,-0.085
8.458,-0.385,-0.090
8.461,-0.385,-0.075
8.464,-0.390,-0.070
8.467,-0.395,-0.075
8.469,-0.395,-0.075
8.472,-0.395,-0.065
8.475,-0.390,-0.055
8.478,-0.380,-0.025
8.481,-0.365,-0.015
8.483,-0.355,0.000
8.486,-0.350,0.000
8.489,-0.330,0.025
8.492,-0.320,0.025
8.494,-0.305,0.035
8.497,-0.290,0.040
8.500,-0.290,0.035
8.503,-0.275,0.050
8.506,-0.285,0.065
8.508,-0.270,0.085
8.511,-0.265,0.100
8.514,-0.260,0.100
8.517,-0.260,0.120
8.519,-0.265,0.110
8.522,-0.260,0.120
8.525,-0.255,0.110
8.528,-0.260,0.110
8.531,-0.235,0.120
8.533,-0.240,0.115
8.536,-0.240,0.120
8.539,-0.245,0.105
8.542,-0.230,0.125
8.544,-0.220,0.125
8.547,-0.210,0.130
8.550,-0.195,0.120
8.553,-0.195,0.110
8.556,-0.200,0.100
8.558,-0.215,0.085
8.561,-0.225,0.060
8.564,-0.240,0.035
8.567,-0.255,0.020
8.569,-0.290,0.010
8.572,-0.295,-0.015
8.575,-0.295,-0.030
8.578,-0.285,-0.045
8.581,-0.295,-0.045
8.583,-0.265,-0.060
8.586,-0.280,-0.085
8.589,-0.295,-0.095
8.592,-0.315,-0.125
8.594,-0.335,-0.125
8.597,-0.340,-0.145
8.600,-0.340,-0.160
8.603,-0.330,-0.155
8.606,-0.325,-0.170
8.608,-0.310,-0.165
8.611,-0.310,-0.150
8.614,-0.290,-0.155
8.617,-0.290,-0.160
8.619,-0.305,-0.170
8.622,-0.295,-0.170
8.625,-0.300,-0.170
8.628,-0.300,-0.180
8.631,-0.290,-0.180
8.633,-0.285,-0.195
8.636,-0.300,-0.180
8.639,-0.300,-0.185
8.642,-0.280,-0.180
8.644,-0.280,-0.170
8.647,-0.275,-0.175
8.650,-0.265,-0.165
8.653,-0.255,-0.165
8.656,-0.250,-0.170
8.658,-0.225,-0.185
8.661,-0.230,-0.175
8.664,-0.235,-0.195
8.667,-0.245,-0.205
8.669,-0.235,-0.195
8.672,-0.230,-0.185
8.675,-0.220,-0.175
8.678,-0.225,-0.185
8.681,-0.220,-0.170
8.683,-0.200,-0.160
8.686,-0.195,-0.175
8.689,-0.195,-0.175
8.692,-0.205,-0.205
8.694,-0.220,-0.210
8.697,-0.230,-0.215
8.700,-0.250,-0.215
8.703,-0.265,-0.220
8.706,-0.270,-0.220
8.708,-0.260,-0.205
8.711,-0.260,-0.205
8.714,-0.270,-0.200
8.717,-0.255,-0.195
8.719,-0.270,-0.195
8.722,-0.260,-0.210
8.725,-0.280,-0.215
8.728,-0.290,-0.220
8.731,-0.310,-0.225
8.733,-0.310,-0.230
8.736,-0.320,-0.230
8.739,-0.320,-0.230
8.742,-0.315,-0.225
8.744,-0.320,-0.215
8.747,-0.305,-0.200
8.750,-0.310,-0.205
8.753,-0.305,-0.215
8.756,-0.315,-0.210
8.758,-0.330,-0.230
8.761,-0.330,-0.220
8.764,-0.335,-0.235
8.767,-0.350,-0.235
8.769,-0.350,-0.235
8.772,-0.355,-0.220
8.775,-0.345,-0.205
8.778,-0.350,-0.215
8.781,-0.350,-0.205
8.783,-0.340,-0.200
8.786,-0.345,-0.215
8.789,-0.335,-0.210
8.792,-0.355,-0.215
8.794,-0.355,-0.215
8.797,-0.350,-0.210
8.800,-0.350,-0.205
8.803,-0.365,-0.200
8.806,-0.360,-0.185
8.808,-0.350,-0.180
8.811,-0.340,-0.150
8.814,-0.325,-0.125
8.817,-0.320,-0.120
8.819,-0.310,-0.120
8.822,-0.305,-0.115
8.825,-0.310,-0.115
8.828,-0.310,-0.130
8.831,-0.305,-0.130
8.833,-0.310,-0.120
8.836,-0.305,-0.120
8.839,-0.300,-0.100
8.842,-0.290,-0.100
8.844,-0.295,-0.095
8.847,-0.295,-0.110
8.850,-0.300,-0.110
8.853,-0.315,-0.130
8.856,-0.335,-0.155
8.858,-0.340,-0.165
8.861,-0.360,-0.190
8.864,-0.365,-0.190
8.867,-0.375,-0.200
8.869,-0.380,-0.210
8.872,-0.390,-0.210
8.875,-0.410,-0.215
8.878,-0.415,-0.225
8.881,-0.415,-0.215
8.883,-0.415,-0.215
8.886,-0.420,-0.210
8.889,-0.410,-0.230
8.892,-0.440,-0.225
8.894,-0.440,-0.245
8.897,-0.470,-0.265
8.900,-0.480,-0.280
8.903,-0.480,-0.285
8.906,-0.485,-0.275
8.908,-0.485,-0.275
8.911,-0.480,-0.280
8.914,-0.475,-0.260
8.917,-0.460,-0.245
8.919,-0.440,-0.250
8.922,-0.435,-0.245
8.925,-0.425,-0.250
8.928,-0.420,-0.250
8.931,-0.415,-0.230
8.933,-0.410,-0.220
8.936,-0.395,-0.205
8.939,-0.395,-0.185
8.942,-0.375,-0.165
8.944,-0.350,-0.135
8.947,-0.330,-0.115
8.950,-0.305,-0.095
8.953,-0.270,-0.080
8.956,-0.250,-0.055
8.958,-0.235,-0.040
8.961,-0.210,-0.025
8.964,-0.180,0.000
8.967,-0.145,0.015
8.969,-0.115,0.035
8.972,-0.070,0.065
8.975,-0.015,0.090
8.978,0.035,0.125
8.981,0.075,0.160
8.983,0.120,0.225
8.986,0.195,0.270
8.989,0.300,0.350
8.992,0.440,0.440
8.994,0.605,0.535
8.997,0.810,0.660
9.000,1.040,0.800
9.003,1.280,0.920
9.006,1.480,0.995
9.008,1.640,0.975
9.011,1.700,0.850
9.014,1.665,0.655
9.017,1.485,0.430
9.019,1.160,0.190
9.022,0.705,0.010
9.025,0.155,-0.145
9.028,-0.415,-0.255
9.031,-0.915,-0.370
9.033,-1.250,-0.455
9.036,-1.350,-0.530
9.039,-1.270,-0.565
9.042,-1.050,-0.580
9.044,-0.815,-0.555
9.047,-0.585,-0.500
9.050,-0.390,-0.430
9.053,-0.295,-0.350
9.056,-0.235,-0.290
9.058,-0.245,-0.225
9.061,-0.280,-0.220
9.064,-0.310,-0.220
9.067,-0.355,-0.210
9.069,-0.370,-0.215
9.072,-0.380,-0.225
9.075,-0.355,-0.215
9.078,-0.345,-0.210
9.081,-0.340,-0.185
9.083,-0.330,-0.185
9.086,-0.340,-0.185
9.089,-0.340,-0.190
9.092,-0.355,-0.200
9.094,-0.370,-0.210
9.097,-0.380,-0.230
9.100,-0.400,-0.225
9.103,-0.410,-0.205
9.106,-0.395,-0.220
9.108,-0.405,-0.195
9.111,-0.405,-0.200
9.114,-0.410,-0.185
9.117,-0.420,-0.175
9.119,-0.430,-0.185
9.122,-0.445,-0.185
9.125,-0.455,-0.180
9.128,-0.470,-0.185
9.131,-0.485,-0.190
9.133,-0.490,-0.195
9.136,-0.485,-0.185
9.139,-0.475,-0.185
9.142,-0.480,-0.190
9.144,-0.480,-0.170
9.147,-0.480,-0.165
9.150,-0.470,-0.165
9.153,-0.475,-0.160
9.156,-0.475,-0.165
9.158,-0.475,-0.165
9.161,-0.495,-0.175
9.164,-0.500,-0.170
9.167,-0.505,-0.175
9.169,-0.505,-0.175
9.172,-0.510,-0.160
9.175,-0.500,-0.150
9.178,-0.480,-0.135
9.181,-0.460,-0.115
9.183,-0.445,-0.100
9.186,-0.435,-0.105
9.189,-0.425,-0.095
9.192,-0.425,-0.090
9.194,-0.435,-0.090
9.197,-0.445,-0.095
9.200,-0.450,-0.090
9.203,-0.445,-0.080
9.206,-0.455,-0.070
9.208,-0.445,-0.050
9.211,-0.435,-0.040
9.214,-0.425,-0.025
9.217,-0.420,-0.010
9.219,-0.405,0.000
9.222,-0.405,0.000
9.225,-0.395,0.015
9.228,-0.415,0.010
9.231,-0.415,0.015
9.233,-0.415,0.020
9.236,-0.425,0.035
9.239,-0.425,0.035
9.242,-0.415,0.045
9.244,-0.415,0.050
9.247,-0.400,0.065
9.250,-0.400,0.065
9.253,-0.395,0.070
9.256,-0.390,0.080
9.258,-0.395,0.055
9.261,-0.390,0.050
9.264,-0.390,0.040
9.267,-0.400,0.045
9.269,-0.385,0.040
9.272,-0.390,0.035
9.275,-0.385,0.035
9.278,-0.385,0.025
9.281,-0.385,0.005
9.283,-0.375,0.000
9.286,-0.385,-0.015
9.289,-0.390,-0.030
9.292,-0.375,-0.055
9.294,-0.385,-0.085
9.297,-0.395,-0.110
9.300,-0.385,-0.120
9.303,-0.400,-0.135
9.306,-0.400,-0.145
9.308,-0.380,-0.150
9.311,-0.380,-0.140
9.314,-0.385,-0.155
9.317,-0.365,-0.155
9.319,-0.365,-0.155
9.322,-0.370,-0.165
9.325,-0.360,-0.180
9.328,-0.365,-0.190
9.331,-0.365,-0.200
9.333,-0.370,-0.200
9.336,-0.380,-0.190
9.339,-0.385,-0.200
9.342,-0.395,-0.175
9.344,-0.385,-0.190
9.347,-0.385,-0.170
9.350,-0.365,-0.175
9.353,-0.355,-0.175
9.356,-0.365,-0.175
9.358,-0.375,-0.185
9.361,-0.360,-0.190
9.364,-0.360,-0.200
9.367,-0.375,-0.200
9.369,-0.370,-0.205
9.372,-0.365,-0.195
9.375,-0.365,-0.195
9.378,-0.350,-0.180
9.381,-0.350,-0.175
9.383,-0.355,-0.180
9.386,-0.345,-0.180
9.389,-0.340,-0.185
9.392,-0.340,-0.185
9.394,-0.335,-0.195
9.397,-0.345,-0.200
9.400,-0.345,-0.210
9.403,-0.360,-0.205
9.406,-0.365,-0.210
9.408,-0.360,-0.200
9.411,-0.370,-0.210
9.414,-0.370,-0.185
9.417,-0.370,-0.185
9.419,-0.360,-0.195
9.422,-0.355,-0.195
9.425,-0.370,-0.210
9.428,-0.370,-0.215
9.431,-0.385,-0.210
9.433,-0.395,-0.240
9.436,-0.385,-0.235
9.439,-0.405,-0.240
9.442,-0.400,-0.220
9.444,-0.390,-0.225
9.447,-0.390,-0.225
9.450,-0.380,-0.225
9.453,-0.380,-0.230
9.456,-0.385,-0.235
9.458,-0.385,-0.255
9.461,-0.395,-0.250
9.464,-0.405,-0.265
9.467,-0.410,-0.270
9.469,-0.425,-0.270
9.472,-0.435,-0.275
9.475,-0.435,-0.260
9.478,-0.420,-0.260
9.481,-0.410,-0.255
9.483,-0.395,-0.260
9.486,-0.390,-0.250
9.489,-0.380,-0.260
9.492,-0.400,-0.275
9.494,-0.410,-0.275
9.497,-0.400,-0.280
9.500,-0.415,-0.290
9.503,-0.400,-0.285
9.506,-0.420,-0.275
9.508,-0.400,-0.270
9.511,-0.390,-0.265
9.514,-0.370,-0.250
9.517,-0.360,-0.235
9.519,-0.360,-0.225
9.522,-0.350,-0.230
9.525,-0.335,-0.225
9.528,-0.335,-0.215
9.531,-0.325,-0.220
9.533,-0.335,-0.210
9.536,-0.315,-0.210
9.539,-0.315,-0.200
9.542,-0.295,-0.190
9.544,-0.275,-0.175
9.547,-0.275,-0.170
9.550,-0.250,-0.160
9.553,-0.245,-0.160
9.556,-0.245,-0.150
9.558,-0.245,-0.175
9.561,-0.275,-0.200
9.564,-0.295,-0.215
9.567,-0.310,-0.230
9.569,-0.320,-0.245
9.572,-0.330,-0.245
9.575,-0.330,-0.235
9.578,-0.325,-0.240
9.581,-0.345,-0.215
9.583,-0.345,-0.220
9.586,-0.355,-0.245
9.589,-0.370,-0.240
9.592,-0.385,-0.260
9.594,-0.395,-0.280
9.597,-0.410,-0.275
9.600,-0.415,-0.280
9.603,-0.435,-0.275
9.606,-0.440,-0.285
9.608,-0.450,-0.285
9.611,-0.480,-0.285
9.614,-0.485,-0.290
9.617,-0.495,-0.295
9.619,-0.495,-0.300
9.622,-0.500,-0.310
9.625,-0.505,-0.300
9.628,-0.495,-0.305
9.631,-0.495,-0.305
9.633,-0.485,-0.300
9.636,-0.490,-0.285
9.639,-0.495,-0.280
9.642,-0.475,-0.245
9.644,-0.460,-0.250
9.647,-0.440,-0.225
9.650,-0.435,-0.205
9.653,-0.425,-0.190
9.656,-0.400,-0.175
9.658,-0.400,-0.180
9.661,-0.380,-0.160
9.664,-0.365,-0.155
9.667,-0.350,-0.140
9.669,-0.325,-0.115
9.672,-0.295,-0.090
9.675,-0.260,-0.060
9.678,-0.230,-0.040
9.681,-0.175,-0.015
9.683,-0.135,0.000
9.686,-0.085,0.005
9.689,-0.045,0.005
9.692,-0.005,0.025
9.694,0.040,0.035
9.697,0.080,0.055
9.700,0.120,0.095
9.703,0.185,0.130
9.706,0.260,0.190
9.708,0.395,0.260
9.711,0.550,0.375
9.714,0.760,0.480
9.717,0.980,0.620
9.719,1.225,0.750
9.722,1.465,0.875
9.725,1.680,0.975
9.728,1.840,0.995
9.731,1.920,0.940
9.733,1.910,0.820
9.736,1.765,0.655
9.739,1.460,0.470
9.742,1.040,0.300
9.744,0.535,0.170
9.747,-0.030,0.045
9.750,-0.565,-0.070
9.753,-0.985,-0.195
9.756,-1.235,-0.330
9.758,-1.305,-0.460
9.761,-1.220,-0.550
9.764,-1.045,-0.590
9.767,-0.870,-0.590
9.769,-0.685,-0.545
9.772,-0.555,-0.490
9.775,-0.480,-0.395
9.778,-0.430,-0.330
9.781,-0.425,-0.265
9.783,-0.435,-0.225
9.786,-0.450,-0.220
9.789,-0.465,-0.225
9.792,-0.475,-0.230
9.794,-0.480,-0.250
9.797,-0.485,-0.265
9.800,-0.490,-0.260
9.803,-0.490,-0.270
9.806,-0.495,-0.265
9.808,-0.505,-0.255
9.811,-0.510,-0.260
9.814,-0.490,-0.245
9.817,-0.490,-0.245
9.819,-0.480,-0.240
9.822,-0.480,-0.250
9.825,-0.475,-0.230
9.828,-0.480,-0.240
9.831,-0.480,-0.260
9.833,-0.495,-0.250
9.836,-0.495,-0.255
9.839,-0.490,-0.240
9.842,-0.495,-0.250
9.844,-0.485,-0.230
9.847,-0.475,-0.225
9.850,-0.475,-0.220
9.853,-0.465,-0.215
9.856,-0.460,-0.230
9.858,-0.460,-0.240
9.861,-0.465,-0.240
9.864,-0.465,-0.255
9.867,-0.475,-0.260
9.869,-0.480,-0.265
9.872,-0.485,-0.250
9.875,-0.475,-0.250
9.878,-0.475,-0.245
9.881,-0.470,-0.230
9.883,-0.445,-0.235
9.886,-0.450,-0.230
9.889,-0.425,-0.235
9.892,-0.430,-0.235
9.894,-0.440,-0.255
9.897,-0.430,-0.265
9.900,-0.420,-0.255
9.903,-0.420,-0.250
9.906,-0.420,-0.240
9.908,-0.410,-0.230
9.911,-0.395,-0.225
9.914,-0.380,-0.210
9.917,-0.365,-0.190
9.919,-0.350,-0.195
9.922,-0.345,-0.190
9.925,-0.335,-0.190
9.928,-0.340,-0.200
9.931,-0.350,-0.185
9.933,-0.335,-0.185
9.936,-0.325,-0.175
9.939,-0.320,-0.160
9.942,-0.320,-0.145
9.944,-0.310,-0.135
9.947,-0.305,-0.115
9.950,-0.300,-0.110
9.953,-0.285,-0.105
9.956,-0.280,-0.100
9.958,-0.270,-0.100
9.961,-0.275,-0.100
9.964,-0.280,-0.110
9.967,-0.270,-0.100
9.969,-0.260,-0.090
9.972,-0.260,-0.075
9.975,-0.250,-0.070
9.978,-0.240,-0.055
9.981,-0.225,-0.050
9.983,-0.215,-0.030
9.986,-0.215,-0.030
9.989,-0.205,-0.035
9.992,-0.200,-0.035
9.994,-0.200,-0.040
9.997,-0.210,-0.060
10.000,-0.215,-0.060
10.003,-0.230,-0.075
10.006,-0.250,-0.080
10.008,-0.250,-0.075
10.011,-0.255,-0.095
10.014,-0.260,-0.085
10.017,-0.270,-0.080
10.019,-0.270,-0.105
10.022,-0.270,-0.125
10.025,-0.290,-0.135
10.028,-0.310,-0.155
10.031,-0.320,-0.170
10.033,-0.335,-0.190
10.036,-0.350,-0.180
10.039,-0.360,-0.180
10.042,-0.360,-0.200
10.044,-0.355,-0.195
10.047,-0.355,-0.195
10.050,-0.350,-0.195
10.053,-0.350,-0.195
10.056,-0.355,-0.210
10.058,-0.355,-0.200
10.061,-0.360,-0.220
10.064,-0.370,-0.220
10.067,-0.385,-0.235
10.069,-0.400,-0.240
10.072,-0.405,-0.230
10.075,-0.395,-0.215
10.078,-0.390,-0.225
10.081,-0.390,-0.205
10.083,-0.380,-0.210
10.086,-0.380,-0.205
10.089,-0.380,-0.215
10.092,-0.380,-0.215
10.094,-0.385,-0.215
10.097,-0.400,-0.220
10.100,-0.410,-0.235
10.103,-0.410,-0.230
10.106,-0.405,-0.225
10.108,-0.410,-0.225
10.111,-0.405,-0.215
10.114,-0.400,-0.210
10.117,-0.390,-0.205
10.119,-0.375,-0.210
10.122,-0.380,-0.215
10.125,-0.385,-0.215
10.128,-0.385,-0.225
10.131,-0.390,-0.235
10.133,-0.395,-0.240
10.136,-0.395,-0.240
10.139,-0.410,-0.240
10.142,-0.400,-0.225
10.144,-0.415,-0.230
10.147,-0.390,-0.225
10.150,-0.385,-0.225
10.153,-0.375,-0.235
10.156,-0.370,-0.235
10.158,-0.365,-0.245
10.161,-0.375,-0.255
10.164,-0.390,-0.270
10.167,-0.385,-0.285
10.169,-0.395,-0.270
10.172,-0.400,-0.270
10.175,-0.400,-0.270
10.178,-0.395,-0.275
10.181,-0.385,-0.265
10.183,-0.380,-0.265
10.186,-0.385,-0.270
10.189,-0.380,-0.280
10.192,-0.390,-0.280
10.194,-0.390,-0.280
10.197,-0.400,-0.290
10.200,-0.415,-0.305
10.203,-0.415,-0.285
10.206,-0.410,-0.295
10.208,-0.415,-0.290
10.211,-0.405,-0.280
10.214,-0.405,-0.275
10.217,-0.395,-0.275
10.219,-0.405,-0.275
10.222,-0.405,-0.280
10.225,-0.405,-0.280
10.228,-0.415,-0.290
10.231,-0.415,-0.280
10.233,-0.420,-0.280
10.236,-0.410,-0.290
10.239,-0.405,-0.270
10.242,-0.395,-0.260
10.244,-0.380,-0.250
10.247,-0.365,-0.230
10.250,-0.340,-0.210
10.253,-0.325,-0.220
10.256,-0.320,-0.205
10.258,-0.300,-0.205
10.261,-0.295,-0.205
10.264,-0.290,-0.210
10.267,-0.295,-0.210
10.269,-0.270,-0.210
10.272,-0.260,-0.210
10.275,-0.235,-0.195
10.278,-0.215,-0.180
10.281,-0.200,-0.170
10.283,-0.190,-0.170
10.286,-0.180,-0.175
10.289,-0.190,-0.185
10.292,-0.185,-0.210
10.294,-0.200,-0.240
10.297,-0.210,-0.250
10.300,-0.220,-0.255
10.303,-0.230,-0.265
10.306,-0.240,-0.260
10.308,-0.225,-0.250
10.311,-0.235,-0.260
10.314,-0.240,-0.260
10.317,-0.250,-0.255
10.319,-0.260,-0.270
10.322,-0.265,-0.270
10.325,-0.280,-0.280
10.328,-0.280,-0.290
10.331,-0.305,-0.315
10.333,-0.310,-0.310
10.336,-0.325,-0.320
10.339,-0.345,-0.325
10.342,-0.340,-0.325
10.344,-0.340,-0.335
10.347,-0.340,-0.320
10.350,-0.340,-0.325
10.353,-0.340,-0.320
10.356,-0.340,-0.300
10.358,-0.350,-0.325
10.361,-0.355,-0.305
10.364,-0.350,-0.300
10.367,-0.350,-0.305
10.369,-0.345,-0.285
10.372,-0.340,-0.270
10.375,-0.325,-0.250
10.378,-0.325,-0.235
10.381,-0.305,-0.225
10.383,-0.295,-0.205
10.386,-0.285,-0.195
10.389,-0.280,-0.170
10.392,-0.270,-0.155
10.394,-0.255,-0.130
10.397,-0.240,-0.120
10.400,-0.235,-0.100
10.403,-0.210,-0.080
10.406,-0.175,-0.070
10.408,-0.145,-0.050
10.411,-0.100,-0.025
10.414,-0.050,0.005
10.417,-0.005,0.025
10.419,0.040,0.040
10.422,0.070,0.060
10.425,0.105,0.090
10.428,0.160,0.150
10.431,0.220,0.195
10.433,0.325,0.280
10.436,0.475,0.385
10.439,0.645,0.515
10.442,0.850,0.645
10.444,1.075,0.785
10.447,1.270,0.895
10.450,1.460,0.945
10.453,1.595,0.905
10.456,1.655,0.805
10.458,1.605,0.635
10.461,1.430,0.430
10.464,1.120,0.230
10.467,0.725,0.055
10.469,0.265,-0.080
10.472,-0.240,-0.185
10.475,-0.705,-0.280
10.478,-1.045,-0.385
10.481,-1.215,-0.480
10.483,-1.230,-0.545
10.486,-1.130,-0.595
10.489,-0.960,-0.595
10.492,-0.810,-0.570
10.494,-0.670,-0.535
10.497,-0.580,-0.480
10.500,-0.530,-0.415
10.503,-0.520,-0.370
10.506,-0.535,-0.330
10.508,-0.550,-0.305
10.511,-0.575,-0.285
10.514,-0.585,-0.280
10.517,-0.580,-0.270
10.519,-0.580,-0.275
10.522,-0.570,-0.270
10.525,-0.580,-0.270
10.528,-0.575,-0.275
10.531,-0.590,-0.275
10.533,-0.590,-0.290
10.536,-0.590,-0.285
10.539,-0.595,-0.270
10.542,-0.590,-0.265
10.544,-0.575,-0.275
10.547,-0.570,-0.265
10.550,-0.545,-0.250
10.553,-0.550,-0.245
10.556,-0.525,-0.260
10.558,-0.525,-0.270
10.561,-0.515,-0.280
10.564,-0.525,-0.285
10.567,-0.535,-0.295
10.569,-0.520,-0.290
10.572,-0.520,-0.285
10.575,-0.510,-0.275
10.578,-0.505,-0.250
10.581,-0.490,-0.240
10.583,-0.470,-0.245
10.586,-0.455,-0.235
10.589,-0.440,-0.240
10.592,-0.430,-0.240
10.594,-0.445,-0.235
10.597,-0.435,-0.250
10.600,-0.435,-0.245
10.603,-0.435,-0.250
10.606,-0.440,-0.235
10.608,-0.435,-0.220
10.611,-0.420,-0.205
10.614,-0.410,-0.195
10.617,-0.405,-0.180
10.619,-0.405,-0.160
10.622,-0.400,-0.175
10.625,-0.390,-0.155
10.628,-0.390,-0.165
10.631,-0.395,-0.165
10.633,-0.395,-0.150
10.636,-0.405,-0.155
10.639,-0.405,-0.135
10.642,-0.405,-0.120
10.644,-0.385,-0.115
10.647,-0.375,-0.090
10.650,-0.360,-0.075
10.653,-0.355,-0.070
10.656,-0.345,-0.070
10.658,-0.335,-0.060
10.661,-0.340,-0.065
10.664,-0.335,-0.055
10.667,-0.355,-0.050
10.669,-0.350,-0.035
10.672,-0.345,-0.025
10.675,-0.335,0.000
10.678,-0.325,0.000
10.681,-0.300,0.020
10.683,-0.270,0.040
10.686,-0.250,0.040
10.689,-0.250,0.040
10.692,-0.235,0.035
10.694,-0.225,0.045
10.697,-0.230,0.035
10.700,-0.255,0.030
10.703,-0.255,0.015
10.706,-0.230,0.025
10.708,-0.235,0.035
10.711,-0.230,0.025
10.714,-0.225,0.020
10.717,-0.225,0.020
10.719,-0.235,0.005
10.722,-0.240,-0.015
10.725,-0.250,-0.030
10.728,-0.260,-0.045
10.731,-0.285,-0.065
10.733,-0.290,-0.080
10.736,-0.305,-0.095
10.739,-0.315,-0.100
10.742,-0.305,-0.115
10.744,-0.315,-0.120
10.747,-0.320,-0.125
10.750,-0.315,-0.135
10.753,-0.310,-0.125
10.756,-0.315,-0.150
10.758,-0.320,-0.165
10.761,-0.320,-0.160
10.764,-0.330,-0.185
10.767,-0.335,-0.200
10.769,-0.340,-0.210
10.772,-0.335,-0.200
10.775,-0.345,-0.190
10.778,-0.335,-0.180
10.781,-0.325,-0.190
10.783,-0.310,-0.190
10.786,-0.305,-0.180
10.789,-0.310,-0.185
10.792,-0.300,-0.200
10.794,-0.295,-0.205
10.797,-0.305,-0.210
10.800,-0.305,-0.220
10.803,-0.300,-0.210
10.806,-0.310,-0.215
10.808,-0.305,-0.210
10.811,-0.310,-0.215
10.814,-0.290,-0.205
10.817,-0.275,-0.190
10.819,-0.270,-0.195
10.822,-0.270,-0.195
10.825,-0.270,-0.200
10.828,-0.285,-0.215
10.831,-0.280,-0.215
10.833,-0.305,-0.230
10.836,-0.310,-0.230
10.839,-0.305,-0.230
10.842,-0.310,-0.225
10.844,-0.315,-0.215
10.847,-0.305,-0.210
10.850,-0.300,-0.205
10.853,-0.290,-0.210
10.856,-0.295,-0.215
10.858,-0.305,-0.220
10.861,-0.310,-0.225
10.864,-0.320,-0.235
10.867,-0.320,-0.245
10.869,-0.325,-0.240
10.872,-0.330,-0.245
10.875,-0.335,-0.240
10.878,-0.345,-0.235
10.881,-0.345,-0.235
10.883,-0.350,-0.220
10.886,-0.340,-0.220
10.889,-0.350,-0.235
10.892,-0.350,-0.225
10.894,-0.350,-0.245
10.897,-0.370,-0.235
10.900,-0.390,-0.250
10.903,-0.390,-0.255
10.906,-0.405,-0.255
10.908,-0.405,-0.245
10.911,-0.405,-0.245
10.914,-0.390,-0.240
10.917,-0.395,-0.235
10.919,-0.380,-0.235
10.922,-0.395,-0.245
10.925,-0.400,-0.230
10.928,-0.415,-0.240
10.931,-0.415,-0.255
10.933,-0.425,-0.255
10.936,-0.430,-0.260
10.939,-0.430,-0.255
10.942,-0.435,-0.255
10.944,-0.450,-0.250
10.947,-0.420,-0.245
10.950,-0.420,-0.240
10.953,-0.415,-0.235
10.956,-0.425,-0.240
10.958,-0.420,-0.245
10.961,-0.410,-0.235
10.964,-0.420,-0.245
10.967,-0.425,-0.255
10.969,-0.420,-0.250
10.972,-0.410,-0.235
10.975,-0.400,-0.220
10.978,-0.380,-0.210
10.981,-0.365,-0.195
10.983,-0.350,-0.185
10.986,-0.310,-0.160
10.989,-0.300,-0.155
10.992,-0.290,-0.155
10.994,-0.285,-0.150
10.997,-0.285,-0.155
11.000,-0.275,-0.155
11.003,-0.275,-0.160
11.006,-0.275,-0.135
11.008,-0.275,-0.125
11.011,-0.270,-0.125
11.014,-0.280,-0.125
11.017,-0.290,-0.125
11.019,-0.295,-0.145
11.022,-0.315,-0.165
11.025,-0.325,-0.175
11.028,-0.340,-0.200
11.031,-0.345,-0.215
11.033,-0.355,-0.235
11.036,-0.350,-0.230
11.039,-0.360,-0.225
11.042,-0.380,-0.220
11.044,-0.395,-0.245
11.047,-0.400,-0.225
11.050,-0.380,-0.235
11.053,-0.360,-0.235
11.056,-0.355,-0.245
11.058,-0.360,-0.245
11.061,-0.355,-0.255
11.064,-0.375,-0.270
11.067,-0.390,-0.295
11.069,-0.410,-0.285
11.072,-0.410,-0.285
11.075,-0.400,-0.300
11.078,-0.385,-0.290
11.081,-0.355,-0.290
11.083,-0.335,-0.275
11.086,-0.325,-0.275
11.089,-0.320,-0.280
11.092,-0.310,-0.270
11.094,-0.295,-0.265
11.097,-0.300,-0.260
11.100,-0.285,-0.265
11.103,-0.270,-0.245
11.106,-0.265,-0.220
11.108,-0.245,-0.200
11.111,-0.225,-0.190
11.114,-0.215,-0.160
11.117,-0.195,-0.140
11.119,-0.165,-0.110
11.122,-0.135,-0.095
11.125,-0.115,-0.085
11.128,-0.095,-0.060
11.131,-0.080,-0.050
11.133,-0.055,-0.035
11.136,-0.020,-0.020
11.139,0.015,-0.005
11.142,0.060,0.005
11.144,0.090,0.025
11.147,0.130,0.045
11.150,0.170,0.070
11.153,0.205,0.100
11.156,0.230,0.120
11.158,0.295,0.170
11.161,0.375,0.240
11.164,0.490,0.310
11.167,0.635,0.410
11.169,0.800,0.515
11.172,0.990,0.640
11.175,1.200,0.755
11.178,1.415,0.855
11.181,1.610,0.905
11.183,1.775,0.860
11.186,1.840,0.740
11.189,1.780,0.550
11.192,1.610,0.345
11.194,1.310,0.145
11.197,0.880,-0.010
11.200,0.395,-0.130
11.203,-0.110,-0.230
11.206,-0.595,-0.325
11.208,-0.955,-0.420
11.211,-1.130,-0.500
11.214,-1.120,-0.555
11.217,-0.980,-0.580
11.219,-0.800,-0.580
11.222,-0.600,-0.550
11.225,-0.450,-0.495
11.228,-0.330,-0.440
11.231,-0.285,-0.380
11.233,-0.280,-0.350
11.236,-0.295,-0.295
11.239,-0.335,-0.275
11.242,-0.355,-0.275
11.244,-0.365,-0.265
11.247,-0.365,-0.270
11.250,-0.355,-0.260
11.253,-0.345,-0.255
11.256,-0.345,-0.255
11.258,-0.345,-0.250
11.261,-0.345,-0.255
11.264,-0.350,-0.260
11.267,-0.370,-0.270
11.269,-0.380,-0.285
11.272,-0.385,-0.265
11.275,-0.385,-0.260
11.278,-0.390,-0.245
11.281,-0.385,-0.240
11.283,-0.375,-0.230
11.286,-0.360,-0.220
11.289,-0.365,-0.235
11.292,-0.365,-0.230
11.294,-0.375,-0.230
11.297,-0.385,-0.215
11.300,-0.385,-0.230
11.303,-0.390,-0.235
11.306,-0.390,-0.235
11.308,-0.380,-0.220
11.311,-0.385,-0.210
11.314,-0.370,-0.190
11.317,-0.365,-0.195
11.319,-0.355,-0.190
11.322,-0.345,-0.180
11.325,-0.335,-0.180
11.328,-0.345,-0.180
11.331,-0.355,-0.190
11.333,-0.350,-0.190
11.336,-0.365,-0.195
11.339,-0.365,-0.180
11.342,-0.365,-0.175
11.344,-0.355,-0.165
11.347,-0.350,-0.150
11.350,-0.355,-0.140
11.353,-0.340,-0.140
11.356,-0.350,-0.135
11.358,-0.350,-0.125
11.361,-0.360,-0.120
11.364,-0.365,-0.135
11.367,-0.370,-0.130
11.369,-0.370,-0.115
11.372,-0.360,-0.105
11.375,-0.355,-0.095
11.378,-0.360,-0.075
11.381,-0.340,-0.055
11.383,-0.340,-0.045
11.386,-0.325,-0.025
11.389,-0.330,-0.025
11.392,-0.320,-0.015
11.394,-0.300,-0.015
11.397,-0.300,-0.015
11.400,-0.320,-0.020
11.403,-0.310,-0.020
11.406,-0.300,0.000
11.408,-0.300,0.010
11.411,-0.295,0.025
11.414,-0.290,0.035
11.417,-0.275,0.045
11.419,-0.255,0.055
11.422,-0.250,0.055
11.425,-0.245,0.060
11.428,-0.230,0.050
11.431,-0.230,0.045
11.433,-0.225,0.055
11.436,-0.210,0.025
11.439,-0.215,0.050
11.442,-0.215,0.060
11.444,-0.210,0.040
11.447,-0.195,0.045
11.450,-0.190,0.045
11.453,-0.190,0.045
11.456,-0.200,0.020
11.458,-0.220,0.005
11.461,-0.230,-0.020
11.464,-0.235,-0.035
11.467,-0.265,-0.060
11.469,-0.285,-0.080
11.472,-0.320,-0.080
11.475,-0.305,-0.095
11.478,-0.300,-0.105
11.481,-0.295,-0.115
11.483,-0.285,-0.110
11.486,-0.300,-0.120
11.489,-0.295,-0.140
11.492,-0.315,-0.155
11.494,-0.330,-0.165
11.497,-0.345,-0.170
11.500,-0.350,-0.190
11.503,-0.365,-0.200
11.506,-0.370,-0.195
11.508,-0.350,-0.195
11.511,-0.345,-0.185
11.514,-0.340,-0.180
11.517,-0.335,-0.185
11.519,-0.330,-0.175
11.522,-0.330,-0.185
11.525,-0.315,-0.200
11.528,-0.315,-0.210
11.531,-0.320,-0.200
11.533,-0.335,-0.205
11.536,-0.320,-0.215
11.539,-0.330,-0.210
11.542,-0.320,-0.215
11.544,-0.310,-0.210
11.547,-0.300,-0.195
11.550,-0.290,-0.180
11.553,-0.260,-0.180
11.556,-0.265,-0.200
11.558,-0.250,-0.200
11.561,-0.235,-0.205
11.564,-0.245,-0.200
11.567,-0.245,-0.200
11.569,-0.245,-0.215
11.572,-0.230,-0.220
11.575,-0.230,-0.210
11.578,-0.225,-0.200
11.581,-0.220,-0.200
11.583,-0.215,-0.205
11.586,-0.205,-0.200
11.589,-0.195,-0.210
11.592,-0.185,-0.205
11.594,-0.205,-0.220
11.597,-0.195,-0.235
11.600,-0.205,-0.230
11.603,-0.210,-0.250
11.606,-0.210,-0.240
11.608,-0.220,-0.230
11.611,-0.210,-0.240
11.614,-0.205,-0.235
11.617,-0.205,-0.240
11.619,-0.200,-0.240
11.622,-0.200,-0.245
11.625,-0.215,-0.250
11.628,-0.220,-0.260
11.631,-0.230,-0.275
11.633,-0.220,-0.280
11.636,-0.240,-0.285
11.639,-0.255,-0.290
11.642,-0.270,-0.280
11.644,-0.280,-0.275
11.647,-0.290,-0.275
11.650,-0.290,-0.275
11.653,-0.295,-0.275
11.656,-0.315,-0.275
11.658,-0.330,-0.275
11.661,-0.330,-0.280
11.664,-0.350,-0.290
11.667,-0.360,-0.305
11.669,-0.375,-0.300
11.672,-0.370,-0.295
11.675,-0.380,-0.300
11.678,-0.390,-0.290
11.681,-0.385,-0.275
11.683,-0.380,-0.275
11.686,-0.385,-0.280
11.689,-0.395,-0.295
11.692,-0.390,-0.285
11.694,-0.390,-0.295
11.697,-0.410,-0.310
11.700,-0.405,-0.305
11.703,-0.420,-0.320
11.706,-0.425,-0.320
11.708,-0.425,-0.320
11.711,-0.415,-0.320
11.714,-0.415,-0.315
11.717,-0.400,-0.310
11.719,-0.400,-0.305
11.722,-0.390,-0.325
11.725,-0.385,-0.310
11.728,-0.385,-0.325
11.731,-0.390,-0.330
11.733,-0.390,-0.335
11.736,-0.385,-0.340
11.739,-0.380,-0.330
11.742,-0.365,-0.325
11.744,-0.340,-0.305
11.747,-0.320,-0.290
11.750,-0.305,-0.275
11.753,-0.285,-0.270
11.756,-0.275,-0.260
11.758,-0.260,-0.240
11.761,-0.255,-0.245
11.764,-0.260,-0.250
11.767,-0.250,-0.250
11.769,-0.250,-0.230
11.772,-0.255,-0.220
11.775,-0.260,-0.200
11.778,-0.265,-0.200
11.781,-0.275,-0.190
11.783,-0.285,-0.175
11.786,-0.295,-0.195
11.789,-0.305,-0.185
11.792,-0.320,-0.210
11.794,-0.335,-0.225
11.797,-0.375,-0.245
11.800,-0.390,-0.255
11.803,-0.410,-0.270
11.806,-0.430,-0.275
11.808,-0.455,-0.285
11.811,-0.465,-0.285
11.814,-0.470,-0.290
11.817,-0.490,-0.285
11.819,-0.475,-0.280
11.822,-0.470,-0.280
11.825,-0.465,-0.305
11.828,-0.470,-0.295
11.831,-0.490,-0.315
11.833,-0.500,-0.335
11.836,-0.515,-0.350
11.839,-0.530,-0.350
11.842,-0.525,-0.350
11.844,-0.510,-0.340
11.847,-0.475,-0.335
11.850,-0.460,-0.320
11.853,-0.435,-0.325
11.856,-0.415,-0.315
11.858,-0.400,-0.305
11.861,-0.375,-0.300
11.864,-0.380,-0.290
11.867,-0.365,-0.290
11.869,-0.345,-0.285
11.872,-0.325,-0.255
11.875,-0.300,-0.245
11.878,-0.275,-0.220
11.881,-0.260,-0.185
11.883,-0.225,-0.165
11.886,-0.210,-0.140
11.889,-0.175,-0.115
11.892,-0.155,-0.090
11.894,-0.125,-0.080
11.897,-0.100,-0.060
11.900,-0.065,-0.055
11.903,-0.035,-0.040
11.906,0.005,-0.015
11.908,0.045,0.010
11.911,0.085,0.030
11.914,0.125,0.080
11.917,0.175,0.120
11.919,0.235,0.170
11.922,0.325,0.250
11.925,0.445,0.330
11.928,0.595,0.415
11.931,0.755,0.525
11.933,0.950,0.640
11.936,1.160,0.755
11.939,1.380,0.830
11.942,1.580,0.840
11.944,1.740,0.745
11.947,1.805,0.570
11.950,1.735,0.365
11.953,1.510,0.160
11.956,1.145,-0.010
11.958,0.640,-0.145
11.961,0.055,-0.255
11.964,-0.520,-0.365
11.967,-0.965,-0.470
11.969,-1.200,-0.555
11.972,-1.235,-0.585
11.975,-1.110,-0.620
11.978,-0.910,-0.605
11.981,-0.690,-0.560
11.983,-0.515,-0.475
11.986,-0.400,-0.400
11.989,-0.350,-0.335
11.992,-0.330,-0.285
11.994,-0.360,-0.260
11.997,-0.395,-0.255
12.000,-0.415,-0.260
12.003,-0.445,-0.275
12.006,-0.435,-0.270
12.008,-0.435,-0.275
12.011,-0.425,-0.250
12.014,-0.405,-0.265
12.017,-0.390,-0.250
12.019,-0.390,-0.245
12.022,-0.385,-0.250
12.025,-0.375,-0.240
12.028,-0.365,-0.250
12.031,-0.390,-0.260
12.033,-0.390,-0.275
12.036,-0.390,-0.270
12.039,-0.395,-0.255
12.042,-0.405,-0.265
12.044,-0.400,-0.240
12.047,-0.395,-0.245
12.050,-0.385,-0.235
12.053,-0.375,-0.225
12.056,-0.375,-0.235
12.058,-0.380,-0.240
12.061,-0.385,-0.245
12.064,-0.390,-0.240
12.067,-0.405,-0.245
12.069,-0.405,-0.250
12.072,-0.405,-0.245
12.075,-0.405,-0.240
12.078,-0.400,-0.230
12.081,-0.385,-0.225
12.083,-0.385,-0.220
12.086,-0.385,-0.220
12.089,-0.380,-0.200
12.092,-0.390,-0.205
12.094,-0.400,-0.205
12.097,-0.410,-0.195
12.100,-0.405,-0.200
12.103,-0.410,-0.195
12.106,-0.390,-0.195
12.108,-0.385,-0.180
12.111,-0.375,-0.170
12.114,-0.370,-0.160
12.117,-0.355,-0.150
12.119,-0.350,-0.130
12.122,-0.340,-0.130
12.125,-0.325,-0.125
12.128,-0.340,-0.115
12.131,-0.320,-0.115
12.133,-0.310,-0.105
12.136,-0.315,-0.100
12.139,-0.310,-0.090
12.142,-0.310,-0.075
12.144,-0.295,-0.070
12.147,-0.290,-0.050
12.150,-0.280,-0.035
12.153,-0.265,-0.025
12.156,-0.270,-0.025
12.158,-0.265,-0.010
12.161,-0.265,-0.025
12.164,-0.255,-0.015
12.167,-0.255,-0.020
12.169,-0.255,-0.010
12.172,-0.260,-0.010
12.175,-0.260,0.000
12.178,-0.250,0.010
12.181,-0.235,0.030
12.183,-0.230,0.030
12.186,-0.235,0.020
12.189,-0.230,0.020
12.192,-0.230,0.005
12.194,-0.240,-0.015
12.197,-0.255,-0.025
12.200,-0.265,-0.045
12.203,-0.285,-0.055
12.206,-0.300,-0.080
12.208,-0.300,-0.085
12.211,-0.310,-0.085
12.214,-0.320,-0.095
12.217,-0.335,-0.105
12.219,-0.330,-0.115
12.222,-0.325,-0.120
12.225,-0.325,-0.140
12.228,-0.330,-0.155
12.231,-0.330,-0.165
12.233,-0.335,-0.180
12.236,-0.345,-0.195
12.239,-0.355,-0.200
12.242,-0.355,-0.215
12.244,-0.350,-0.205
12.247,-0.345,-0.190
12.250,-0.345,-0.190
12.253,-0.345,-0.180
12.256,-0.355,-0.205
12.258,-0.350,-0.210
12.261,-0.360,-0.205
12.264,-0.365,-0.220
12.267,-0.375,-0.235
12.269,-0.370,-0.235
12.272,-0.370,-0.230
12.275,-0.375,-0.220
12.278,-0.360,-0.215
12.281,-0.360,-0.215
12.283,-0.355,-0.210
12.286,-0.345,-0.205
12.289,-0.345,-0.210
12.292,-0.345,-0.205
12.294,-0.360,-0.205
12.297,-0.350,-0.220
12.300,-0.355,-0.225
12.303,-0.355,-0.225
12.306,-0.340,-0.230
12.308,-0.350,-0.220
12.311,-0.340,-0.215
12.314,-0.320,-0.200
12.317,-0.320,-0.205
12.319,-0.300,-0.185
12.322,-0.300,-0.195
12.325,-0.305,-0.195
12.328,-0.310,-0.210
12.331,-0.325,-0.220
12.333,-0.325,-0.225
12.336,-0.325,-0.235
12.339,-0.330,-0.225
12.342,-0.320,-0.235
12.344,-0.315,-0.240
12.347,-0.300,-0.240
12.350,-0.295,-0.225
12.353,-0.295,-0.230
12.356,-0.295,-0.245
12.358,-0.285,-0.245
12.361,-0.285,-0.265
12.364,-0.295,-0.275
12.367,-0.290,-0.290
12.369,-0.305,-0.290
12.372,-0.305,-0.290
12.375,-0.310,-0.290
12.378,-0.305,-0.285
12.381,-0.305,-0.280
12.383,-0.305,-0.285
12.386,-0.290,-0.270
12.389,-0.295,-0.290
12.392,-0.300,-0.290
12.394,-0.310,-0.290
12.397,-0.310,-0.305
12.400,-0.320,-0.310
12.403,-0.330,-0.315
12.406,-0.325,-0.315
12.408,-0.320,-0.310
12.411,-0.315,-0.305
12.414,-0.295,-0.295
12.417,-0.295,-0.285
12.419,-0.265,-0.290
12.422,-0.270,-0.295
12.425,-0.265,-0.290
12.428,-0.265,-0.300
12.431,-0.270,-0.310
12.433,-0.275,-0.340
12.436,-0.270,-0.320
12.439,-0.270,-0.325
12.442,-0.280,-0.330
12.444,-0.270,-0.320
12.447,-0.270,-0.315
12.450,-0.250,-0.310
12.453,-0.245,-0.310
12.456,-0.230,-0.310
12.458,-0.240,-0.315
12.461,-0.245,-0.315
12.464,-0.255,-0.325
12.467,-0.260,-0.330
12.469,-0.270,-0.340
12.472,-0.270,-0.335
12.475,-0.285,-0.325
12.478,-0.265,-0.320
12.481,-0.250,-0.325
12.483,-0.240,-0.315
12.486,-0.225,-0.295
12.489,-0.230,-0.300
12.492,-0.220,-0.300
12.494,-0.220,-0.295
12.497,-0.215,-0.290
12.500,-0.210,-0.295
12.503,-0.210,-0.300
12.506,-0.220,-0.275
12.508,-0.215,-0.280
12.511,-0.205,-0.250
12.514,-0.175,-0.245
12.517,-0.160,-0.230
12.519,-0.145,-0.215
12.522,-0.140,-0.220
12.525,-0.145,-0.200
12.528,-0.170,-0.215
12.531,-0.180,-0.225
12.533,-0.185,-0.235
12.536,-0.195,-0.240
12.539,-0.200,-0.240
12.542,-0.215,-0.245
12.544,-0.225,-0.245
12.547,-0.200,-0.255
12.550,-0.215,-0.250
12.553,-0.215,-0.265
12.556,-0.220,-0.270
12.558,-0.235,-0.280
12.561,-0.250,-0.290
12.564,-0.265,-0.295
12.567,-0.280,-0.305
12.569,-0.275,-0.305
12.572,-0.285,-0.310
12.575,-0.295,-0.305
12.578,-0.305,-0.310
12.581,-0.315,-0.310
12.583,-0.325,-0.305
12.586,-0.325,-0.310
12.589,-0.320,-0.315
12.592,-0.320,-0.310
12.594,-0.310,-0.320
12.597,-0.315,-0.315
12.600,-0.315,-0.325
12.603,-0.305,-0.325
12.606,-0.305,-0.310
12.608,-0.310,-0.305
12.611,-0.290,-0.280
12.614,-0.280,-0.255
12.617,-0.270,-0.240
12.619,-0.260,-0.220
12.622,-0.255,-0.220
12.625,-0.240,-0.205
12.628,-0.225,-0.190
12.631,-0.225,-0.180
12.633,-0.215,-0.170
12.636,-0.210,-0.155
12.639,-0.185,-0.135
12.642,-0.180,-0.110
12.644,-0.140,-0.080
12.647,-0.115,-0.060
12.650,-0.085,-0.040
12.653,-0.040,-0.025
12.656,-0.005,-0.020
12.658,0.040,0.005
12.661,0.070,0.010
12.664,0.100,0.045
12.667,0.135,0.075
12.669,0.195,0.115
12.672,0.290,0.180
12.675,0.415,0.270
12.678,0.580,0.370
12.681,0.770,0.475
12.683,0.985,0.590
12.686,1.230,0.700
12.689,1.460,0.770
12.692,1.660,0.790
12.694,1.800,0.720
12.697,1.835,0.590
12.700,1.745,0.425
12.703,1.490,0.250
12.706,1.105,0.100
12.708,0.580,-0.035
12.711,-0.005,-0.150
12.714,-0.575,-0.280
12.717,-1.005,-0.375
12.719,-1.250,-0.470
12.722,-1.280,-0.535
12.725,-1.165,-0.565
12.728,-0.970,-0.600
12.731,-0.765,-0.570
12.733,-0.610,-0.540
12.736,-0.485,-0.485
12.739,-0.425,-0.420
12.742,-0.400,-0.360
12.744,-0.395,-0.315
12.747,-0.410,-0.280
12.750,-0.440,-0.265
12.753,-0.435,-0.265
12.756,-0.445,-0.270
12.758,-0.435,-0.280
12.761,-0.445,-0.285
12.764,-0.420,-0.280
12.767,-0.425,-0.285
12.769,-0.425,-0.290
12.772,-0.420,-0.285
12.775,-0.430,-0.285
12.778,-0.420,-0.265
12.781,-0.415,-0.260
12.783,-0.405,-0.260
12.786,-0.390,-0.250
12.789,-0.390,-0.255
12.792,-0.385,-0.255
12.794,-0.390,-0.255
12.797,-0.385,-0.265
12.800,-0.410,-0.270
12.803,-0.420,-0.280
12.806,-0.405,-0.270
12.808,-0.415,-0.260
12.811,-0.410,-0.255
12.814,-0.395,-0.250
12.817,-0.390,-0.245
12.819,-0.380,-0.245
12.822,-0.380,-0.250
12.825,-0.370,-0.245
12.828,-0.380,-0.245
12.831,-0.370,-0.255
12.833,-0.370,-0.265
12.836,-0.375,-0.270
12.839,-0.365,-0.250
12.842,-0.350,-0.245
12.844,-0.345,-0.235
12.847,-0.340,-0.225
12.850,-0.330,-0.220
12.853,-0.315,-0.210
12.856,-0.310,-0.210
12.858,-0.300,-0.210
12.861,-0.295,-0.205
12.864,-0.285,-0.205
12.867,-0.295,-0.205
12.869,-0.280,-0.190
12.872,-0.280,-0.180
12.875,-0.265,-0.165
12.878,-0.255,-0.145
12.881,-0.245,-0.140
12.883,-0.235,-0.120
12.886,-0.220,-0.110
12.889,-0.205,-0.105
12.892,-0.200,-0.110
12.894,-0.190,-0.105
12.897,-0.190,-0.105
12.900,-0.185,-0.100
12.903,-0.185,-0.105
12.906,-0.190,-0.090
12.908,-0.185,-0.100
12.911,-0.175,-0.065
12.914,-0.165,-0.050
12.917,-0.160,-0.050
12.919,-0.160,-0.030
12.922,-0.160,-0.030
12.925,-0.165,-0.020
12.928,-0.175,-0.015
12.931,-0.190,-0.020
12.933,-0.190,-0.035
12.936,-0.215,-0.030
12.939,-0.225,-0.035
12.942,-0.235,-0.035
12.944,-0.235,-0.030
12.947,-0.220,-0.025
12.950,-0.230,-0.025
12.953,-0.215,-0.035
12.956,-0.215,-0.055
12.958,-0.210,-0.065
12.961,-0.215,-0.085
12.964,-0.230,-0.105
12.967,-0.235,-0.135
12.969,-0.255,-0.135
12.972,-0.275,-0.155
12.975,-0.280,-0.165
12.978,-0.285,-0.170
12.981,-0.290,-0.175
12.983,-0.290,-0.180
12.986,-0.295,-0.195
12.989,-0.315,-0.205
12.992,-0.325,-0.210
12.994,-0.315,-0.230
12.997,-0.320,-0.230
13.000,-0.335,-0.255
13.003,-0.350,-0.260
13.006,-0.345,-0.255
13.008,-0.355,-0.270
13.011,-0.370,-0.255
13.014,-0.355,-0.250
13.017,-0.350,-0.265
13.019,-0.365,-0.260
13.022,-0.345,-0.255
13.025,-0.350,-0.260
13.028,-0.345,-0.275
13.031,-0.350,-0.275
13.033,-0.350,-0.290
13.036,-0.345,-0.285
13.039,-0.360,-0.280
13.042,-0.350,-0.265
13.044,-0.345,-0.260
13.047,-0.340,-0.265
13.050,-0.320,-0.255
13.053,-0.325,-0.245
13.056,-0.330,-0.250
13.058,-0.320,-0.245
13.061,-0.330,-0.265
13.064,-0.325,-0.275
13.067,-0.335,-0.280
13.069,-0.355,-0.290
13.072,-0.360,-0.290
13.075,-0.370,-0.290
13.078,-0.365,-0.275
13.081,-0.375,-0.265
13.083,-0.375,-0.275
13.086,-0.370,-0.260
13.089,-0.370,-0.275
13.092,-0.370,-0.285
13.094,-0.375,-0.275
13.097,-0.395,-0.295
13.100,-0.390,-0.310
13.103,-0.390,-0.305
13.106,-0.390,-0.305
13.108,-0.390,-0.305
13.111,-0.380,-0.310
13.114,-0.370,-0.295
13.117,-0.365,-0.305
13.119,-0.355,-0.290
13.122,-0.350,-0.300
13.125,-0.335,-0.310
13.128,-0.335,-0.315
13.131,-0.340,-0.320
13.133,-0.345,-0.320
13.136,-0.345,-0.335
13.139,-0.355,-0.335
13.142,-0.350,-0.330
13.144,-0.340,-0.320
13.147,-0.340,-0.310
13.150,-0.335,-0.315
13.153,-0.320,-0.305
13.156,-0.320,-0.310
13.158,-0.340,-0.315
13.161,-0.320,-0.315
13.164,-0.335,-0.320
13.167,-0.330,-0.330
13.169,-0.335,-0.335
13.172,-0.340,-0.335
13.175,-0.345,-0.335
13.178,-0.340,-0.335
13.181,-0.320,-0.325
13.183,-0.335,-0.320
13.186,-0.340,-0.310
13.189,-0.335,-0.320
13.192,-0.330,-0.315
13.194,-0.340,-0.330
13.197,-0.325,-0.320
13.200,-0.345,-0.340
13.203,-0.345,-0.330
13.206,-0.340,-0.345
13.208,-0.345,-0.335
13.211,-0.345,-0.325
13.214,-0.335,-0.330
13.217,-0.335,-0.315
13.219,-0.330,-0.310
13.222,-0.330,-0.310
13.225,-0.325,-0.310
13.228,-0.315,-0.310
13.231,-0.320,-0.335
13.233,-0.320,-0.325
13.236,-0.345,-0.325
13.239,-0.340,-0.325
13.242,-0.335,-0.310
13.244,-0.330,-0.310
13.247,-0.300,-0.295
13.250,-0.300,-0.280
13.253,-0.275,-0.265
13.256,-0.250,-0.260
13.258,-0.245,-0.250
13.261,-0.230,-0.245
13.264,-0.220,-0.250
13.267,-0.215,-0.245
13.269,-0.220,-0.235
13.272,-0.210,-0.230
13.275,-0.195,-0.200
13.278,-0.185,-0.185
13.281,-0.190,-0.185
13.283,-0.175,-0.175
13.286,-0.175,-0.180
13.289,-0.175,-0.185
13.292,-0.185,-0.195
13.294,-0.195,-0.220
13.297,-0.205,-0.245
13.300,-0.215,-0.265
13.303,-0.235,-0.275
13.306,-0.245,-0.285
13.308,-0.255,-0.285
13.311,-0.255,-0.275
13.314,-0.260,-0.290
13.317,-0.275,-0.275
13.319,-0.280,-0.280
13.322,-0.270,-0.290
13.325,-0.275,-0.285
13.328,-0.275,-0.300
13.331,-0.280,-0.315
13.333,-0.305,-0.335
13.336,-0.320,-0.350
13.339,-0.360,-0.345
13.342,-0.360,-0.365
13.344,-0.365,-0.350
13.347,-0.360,-0.345
13.350,-0.330,-0.335
13.353,-0.320,-0.330
13.356,-0.305,-0.310
13.358,-0.300,-0.320
13.361,-0.290,-0.320
13.364,-0.295,-0.315
13.367,-0.295,-0.300
13.369,-0.280,-0.300
13.372,-0.265,-0.285
13.375,-0.265,-0.260
13.378,-0.245,-0.245
13.381,-0.230,-0.220
13.383,-0.215,-0.215
13.386,-0.180,-0.175
13.389,-0.135,-0.160
13.392,-0.125,-0.140
13.394,-0.115,-0.125
13.397,-0.090,-0.110
13.400,-0.045,-0.095
13.403,-0.010,-0.075
13.406,0.015,-0.060
13.408,0.060,-0.040
13.411,0.100,-0.010
13.414,0.150,0.025
13.417,0.195,0.075
13.419,0.255,0.110
13.422,0.325,0.185
13.425,0.420,0.250
13.428,0.545,0.325
13.431,0.685,0.425
13.433,0.870,0.525
13.436,1.050,0.610
13.439,1.255,0.695
13.442,1.440,0.740
13.444,1.585,0.730
13.447,1.680,0.670
13.450,1.690,0.535
13.453,1.610,0.380
13.456,1.410,0.215
13.458,1.105,0.065
13.461,0.705,-0.060
13.464,0.250,-0.175
13.467,-0.230,-0.280
13.469,-0.650,-0.365
13.472,-0.950,-0.455
13.475,-1.085,-0.530
13.478,-1.065,-0.565
13.481,-0.945,-0.570
13.483,-0.785,-0.545
13.486,-0.615,-0.490
13.489,-0.480,-0.450
13.492,-0.405,-0.390
13.494,-0.360,-0.350
13.497,-0.345,-0.320
13.500,-0.360,-0.295
13.503,-0.390,-0.285
13.506,-0.410,-0.280
13.508,-0.420,-0.270
13.511,-0.420,-0.260
13.514,-0.395,-0.265
13.517,-0.385,-0.255
13.519,-0.370,-0.240
13.522,-0.355,-0.240
13.525,-0.345,-0.250
13.528,-0.355,-0.245
13.531,-0.350,-0.250
13.533,-0.360,-0.255
13.536,-0.370,-0.265
13.539,-0.375,-0.255
13.542,-0.385,-0.250
13.544,-0.380,-0.240
13.547,-0.380,-0.245
13.550,-0.375,-0.230
13.553,-0.370,-0.225
13.556,-0.355,-0.240
13.558,-0.355,-0.225
13.561,-0.350,-0.240
13.564,-0.360,-0.235
13.567,-0.355,-0.230
13.569,-0.350,-0.235
13.572,-0.355,-0.230
13.575,-0.340,-0.225
13.578,-0.330,-0.220
13.581,-0.320,-0.205
13.583,-0.315,-0.185
13.586,-0.310,-0.195
13.589,-0.305,-0.180
13.592,-0.295,-0.190
13.594,-0.290,-0.195
13.597,-0.285,-0.195
13.600,-0.285,-0.180
13.603,-0.285,-0.185
13.606,-0.285,-0.190
13.608,-0.275,-0.175
13.611,-0.265,-0.175
13.614,-0.255,-0.150
13.617,-0.245,-0.130
13.619,-0.225,-0.120
13.622,-0.225,-0.120
13.625,-0.230,-0.120
13.628,-0.225,-0.110
13.631,-0.230,-0.105
13.633,-0.230,-0.105
13.636,-0.240,-0.105
13.639,-0.240,-0.075
13.642,-0.240,-0.075
13.644,-0.225,-0.065
13.647,-0.215,-0.045
13.650,-0.200,-0.030
13.653,-0.190,-0.020
13.656,-0.175,-0.010
13.658,-0.165,0.000
13.661,-0.160,-0.005
13.664,-0.160,0.000
13.667,-0.145,0.005
13.669,-0.145,0.005
13.672,-0.145,0.010
13.675,-0.145,0.020
13.678,-0.115,0.040
13.681,-0.110,0.040
13.683,-0.100,0.055
13.686,-0.085,0.065
13.689,-0.065,0.055
13.692,-0.070,0.055
13.694,-0.070,0.050
13.697,-0.065,0.040
13.700,-0.075,0.025
13.703,-0.075,0.030
13.706,-0.070,0.030
13.708,-0.055,0.030
13.711,-0.050,0.015
13.714,-0.045,0.010
13.717,-0.040,0.010
13.719,-0.045,-0.010
13.722,-0.065,-0.025
13.725,-0.065,-0.040
13.728,-0.090,-0.060
13.731,-0.100,-0.075
13.733,-0.100,-0.100
13.736,-0.120,-0.125
13.739,-0.135,-0.150
13.742,-0.150,-0.150
13.744,-0.160,-0.170
13.747,-0.175,-0.170
13.750,-0.180,-0.175
13.753,-0.185,-0.190
13.756,-0.200,-0.190
13.758,-0.205,-0.210
13.761,-0.215,-0.210
13.764,-0.235,-0.210
13.767,-0.240,-0.230
13.769,-0.255,-0.245
13.772,-0.260,-0.250
13.775,-0.270,-0.230
13.778,-0.275,-0.230
13.781,-0.265,-0.245
13.783,-0.260,-0.235
13.786,-0.265,-0.225
13.789,-0.255,-0.230
13.792,-0.250,-0.230
13.794,-0.255,-0.235
13.797,-0.260,-0.250
13.800,-0.270,-0.250
13.803,-0.280,-0.250
13.806,-0.290,-0.245
13.808,-0.290,-0.245
13.811,-0.285,-0.235
13.814,-0.280,-0.220
13.817,-0.280,-0.220
13.819,-0.260,-0.215
13.822,-0.265,-0.220
13.825,-0.260,-0.220
13.828,-0.260,-0.215
13.831,-0.260,-0.225
13.833,-0.260,-0.225
13.836,-0.280,-0.220
13.839,-0.285,-0.230
13.842,-0.275,-0.235
13.844,-0.270,-0.225
13.847,-0.285,-0.225
13.850,-0.290,-0.225
13.853,-0.280,-0.215
13.856,-0.260,-0.230
13.858,-0.265,-0.220
13.861,-0.270,-0.225
13.864,-0.290,-0.230
13.867,-0.290,-0.250
13.869,-0.300,-0.250
13.872,-0.305,-0.245
13.875,-0.315,-0.245
13.878,-0.320,-0.250
13.881,-0.310,-0.250
13.883,-0.295,-0.235
13.886,-0.295,-0.230
13.889,-0.300,-0.245
13.892,-0.305,-0.260
13.894,-0.300,-0.255
13.897,-0.310,-0.270
13.900,-0.315,-0.265
13.903,-0.325,-0.280
13.906,-0.325,-0.280
13.908,-0.325,-0.285
13.911,-0.325,-0.290
13.914,-0.310,-0.280
13.917,-0.305,-0.280
13.919,-0.305,-0.280
13.922,-0.295,-0.275
13.925,-0.305,-0.285
13.928,-0.305,-0.305
13.931,-0.320,-0.305
13.933,-0.320,-0.310
13.936,-0.320,-0.305
13.939,-0.335,-0.310
13.942,-0.340,-0.310
13.944,-0.325,-0.310
13.947,-0.330,-0.300
13.950,-0.325,-0.295
13.953,-0.315,-0.295
13.956,-0.315,-0.295
13.958,-0.310,-0.300
13.961,-0.310,-0.305
13.964,-0.320,-0.305
13.967,-0.325,-0.315
13.969,-0.330,-0.325
13.972,-0.330,-0.325
13.975,-0.335,-0.320
13.978,-0.335,-0.325
13.981,-0.325,-0.325
13.983,-0.315,-0.315
13.986,-0.320,-0.305
13.989,-0.310,-0.315
13.992,-0.310,-0.305
13.994,-0.310,-0.315
13.997,-0.300,-0.315
14.000,-0.315,-0.325
14.003,-0.325,-0.325
14.006,-0.325,-0.305
14.008,-0.305,-0.305
14.011,-0.305,-0.285
14.014,-0.285,-0.270
14.017,-0.280,-0.265
14.019,-0.260,-0.250
14.022,-0.260,-0.240
14.025,-0.230,-0.240
14.028,-0.230,-0.245
14.031,-0.210,-0.230
14.033,-0.210,-0.215
14.036,-0.210,-0.215
14.039,-0.210,-0.205
14.042,-0.205,-0.190
14.044,-0.205,-0.180
14.047,-0.210,-0.175
14.050,-0.225,-0.160
14.053,-0.220,-0.170
14.056,-0.210,-0.165
14.058,-0.220,-0.185
14.061,-0.225,-0.200
14.064,-0.235,-0.225
14.067,-0.235,-0.235
14.069,-0.260,-0.265
14.072,-0.275,-0.265
14.075,-0.285,-0.265
14.078,-0.300,-0.275
14.081,-0.305,-0.270
14.083,-0.300,-0.275
14.086,-0.300,-0.255
14.089,-0.305,-0.260
14.092,-0.300,-0.265
14.094,-0.315,-0.265
14.097,-0.340,-0.290
14.100,-0.345,-0.315
14.103,-0.360,-0.325
14.106,-0.365,-0.335
14.108,-0.375,-0.325
14.111,-0.350,-0.305
14.114,-0.335,-0.305
14.117,-0.325,-0.290
14.119,-0.305,-0.285
14.122,-0.285,-0.275
14.125,-0.285,-0.260
14.128,-0.275,-0.265
14.131,-0.260,-0.260
14.133,-0.255,-0.255
14.136,-0.245,-0.250
14.139,-0.225,-0.225
14.142,-0.220,-0.205
14.144,-0.200,-0.185
14.147,-0.175,-0.155
14.150,-0.150,-0.125
14.153,-0.125,-0.100
14.156,-0.100,-0.080
14.158,-0.070,-0.065
14.161,-0.045,-0.055
14.164,-0.015,-0.040
14.167,0.010,-0.030
14.169,0.035,-0.020
14.172,0.075,0.000
14.175,0.110,0.025
14.178,0.155,0.050
14.181,0.190,0.100
14.183,0.220,0.155
14.186,0.305,0.215
14.189,0.390,0.295
14.192,0.505,0.375
14.194,0.665,0.485
14.197,0.825,0.580
14.200,1.015,0.690
14.203,1.215,0.745
14.206,1.385,0.745
14.208,1.510,0.665
14.211,1.575,0.505
14.214,1.535,0.290
14.217,1.375,0.090
14.219,1.100,-0.090
14.222,0.695,-0.240
14.225,0.185,-0.365
14.228,-0.330,-0.445
14.231,-0.785,-0.530
14.233,-1.055,-0.595
14.236,-1.140,-0.635
14.239,-1.075,-0.620
14.242,-0.900,-0.590
14.244,-0.705,-0.540
14.247,-0.540,-0.475
14.250,-0.420,-0.410
14.253,-0.350,-0.350
14.256,-0.320,-0.300
14.258,-0.335,-0.285
14.261,-0.365,-0.275
14.264,-0.375,-0.285
14.267,-0.390,-0.280
14.269,-0.390,-0.280
14.272,-0.385,-0.290
14.275,-0.370,-0.280
14.278,-0.355,-0.270
14.281,-0.340,-0.260
14.283,-0.325,-0.250
14.286,-0.315,-0.240
14.289,-0.305,-0.245
14.292,-0.315,-0.240
14.294,-0.320,-0.255
14.297,-0.320,-0.245
14.300,-0.310,-0.265
14.303,-0.315,-0.270
14.306,-0.330,-0.260
14.308,-0.330,-0.255
14.311,-0.315,-0.255
14.314,-0.315,-0.245
14.317,-0.315,-0.235
14.319,-0.305,-0.235
14.322,-0.315,-0.235
14.325,-0.310,-0.235
14.328,-0.315,-0.230
14.331,-0.320,-0.225
14.333,-0.335,-0.235
14.336,-0.350,-0.235
14.339,-0.355,-0.220
14.342,-0.365,-0.215
14.344,-0.375,-0.195
14.347,-0.380,-0.185
14.350,-0.380,-0.175
14.353,-0.375,-0.165
14.356,-0.390,-0.155
14.358,-0.385,-0.150
14.361,-0.395,-0.145
14.364,-0.400,-0.150
14.367,-0.420,-0.145
14.369,-0.430,-0.135
14.372,-0.440,-0.130
14.375,-0.435,-0.125
14.378,-0.430,-0.115
14.381,-0.420,-0.080
14.383,-0.400,-0.065
14.386,-0.385,-0.060
14.389,-0.375,-0.050
14.392,-0.380,-0.055
14.394,-0.370,-0.040
14.397,-0.355,-0.045
14.400,-0.350,-0.040
14.403,-0.345,-0.035
14.406,-0.335,-0.030
14.408,-0.330,-0.020
14.411,-0.310,-0.005
14.414,-0.280,0.010
14.417,-0.265,0.010
14.419,-0.250,0.030
14.422,-0.220,0.035
14.425,-0.200,0.025
14.428,-0.185,0.035
14.431,-0.165,0.025
14.433,-0.170,0.030
14.436,-0.165,0.035
14.439,-0.160,0.030
14.442,-0.145,0.045
14.444,-0.135,0.040
14.447,-0.125,0.035
14.450,-0.120,0.055
14.453,-0.090,0.070
14.456,-0.085,0.065
14.458,-0.080,0.040
14.461,-0.080,0.030
14.464,-0.080,0.015
14.467,-0.080,0.000
14.469,-0.095,-0.005
14.472,-0.100,-0.030
14.475,-0.110,-0.035
14.478,-0.130,-0.050
14.481,-0.140,-0.060
14.483,-0.150,-0.070
14.486,-0.150,-0.090
14.489,-0.175,-0.090
14.492,-0.185,-0.120
14.494,-0.185,-0.115
14.497,-0.205,-0.150
14.500,-0.215,-0.155
14.503,-0.240,-0.170
14.506,-0.255,-0.190
14.508,-0.255,-0.190
14.511,-0.270,-0.190
14.514,-0.265,-0.190
14.517,-0.285,-0.190
14.519,-0.290,-0.190
14.522,-0.290,-0.190
14.525,-0.280,-0.205
14.528,-0.295,-0.200
14.531,-0.310,-0.225
14.533,-0.315,-0.230
14.536,-0.320,-0.240
14.539,-0.330,-0.240
14.542,-0.330,-0.235
14.544,-0.325,-0.235
14.547,-0.320,-0.235
14.550,-0.320,-0.235
14.553,-0.305,-0.220
14.556,-0.305,-0.235
14.558,-0.300,-0.230
14.561,-0.305,-0.230
14.564,-0.295,-0.245
14.567,-0.310,-0.255
14.569,-0.290,-0.255
14.572,-0.290,-0.255
14.575,-0.275,-0.245
14.578,-0.280,-0.250
14.581,-0.275,-0.245
14.583,-0.260,-0.235
14.586,-0.250,-0.230
14.589,-0.245,-0.245
14.592,-0.240,-0.245
14.594,-0.235,-0.235
14.597,-0.245,-0.255
14.600,-0.250,-0.265
14.603,-0.255,-0.280
14.606,-0.250,-0.275
14.608,-0.260,-0.265
14.611,-0.240,-0.260
14.614,-0.235,-0.250
14.617,-0.225,-0.245
14.619,-0.225,-0.260
14.622,-0.225,-0.250
14.625,-0.220,-0.260
14.628,-0.220,-0.270
14.631,-0.220,-0.275
14.633,-0.230,-0.270
14.636,-0.230,-0.285
14.639,-0.230,-0.295
14.642,-0.240,-0.295
14.644,-0.235,-0.285
14.647,-0.235,-0.285
14.650,-0.235,-0.285
14.653,-0.225,-0.280
14.656,-0.220,-0.285
14.658,-0.220,-0.285
14.661,-0.210,-0.295
14.664,-0.225,-0.290
14.667,-0.235,-0.310
14.669,-0.245,-0.315
14.672,-0.245,-0.335
14.675,-0.260,-0.330
14.678,-0.255,-0.320
14.681,-0.265,-0.320
14.683,-0.260,-0.330
14.686,-0.265,-0.315
14.689,-0.265,-0.325
14.692,-0.250,-0.330
14.694,-0.250,-0.320
14.697,-0.255,-0.320
14.700,-0.260,-0.350
14.703,-0.280,-0.360
14.706,-0.280,-0.345
14.708,-0.295,-0.350
14.711,-0.285,-0.340
14.714,-0.275,-0.345
14.717,-0.285,-0.335
14.719,-0.275,-0.325
14.722,-0.265,-0.325
14.725,-0.255,-0.335
14.728,-0.260,-0.340
14.731,-0.275,-0.335
14.733,-0.280,-0.355
14.736,-0.285,-0.355
14.739,-0.290,-0.350
14.742,-0.295,-0.355
14.744,-0.305,-0.345
14.747,-0.300,-0.340
14.750,-0.295,-0.330
14.753,-0.290,-0.330
14.756,-0.275,-0.325
14.758,-0.270,-0.315
14.761,-0.255,-0.325
14.764,-0.255,-0.320
14.767,-0.250,-0.335
14.769,-0.245,-0.320
14.772,-0.240,-0.310
14.775,-0.225,-0.290
14.778,-0.215,-0.280
14.781,-0.205,-0.270
14.783,-0.185,-0.250
14.786,-0.165,-0.240
14.789,-0.145,-0.235
14.792,-0.140,-0.225
14.794,-0.130,-0.210
14.797,-0.125,-0.225
14.800,-0.125,-0.220
14.803,-0.130,-0.220
14.806,-0.135,-0.225
14.808,-0.135,-0.220
14.811,-0.140,-0.215
14.814,-0.140,-0.220
14.817,-0.150,-0.225
14.819,-0.150,-0.240
14.822,-0.160,-0.245
14.825,-0.170,-0.280
14.828,-0.190,-0.275
14.831,-0.195,-0.300
14.833,-0.225,-0.310
14.836,-0.245,-0.320
14.839,-0.260,-0.335
14.842,-0.270,-0.320
14.844,-0.270,-0.325
14.847,-0.285,-0.320
14.850,-0.290,-0.315
14.853,-0.305,-0.330
14.856,-0.310,-0.340
14.858,-0.315,-0.355
14.861,-0.325,-0.360
14.864,-0.335,-0.360
14.867,-0.330,-0.365
14.869,-0.320,-0.360
14.872,-0.315,-0.365
14.875,-0.310,-0.350
14.878,-0.295,-0.330
14.881,-0.275,-0.330
14.883,-0.245,-0.305
14.886,-0.230,-0.295
14.889,-0.205,-0.270
14.892,-0.180,-0.255
14.894,-0.145,-0.240
14.897,-0.135,-0.235
14.900,-0.125,-0.215
14.903,-0.095,-0.210
14.906,-0.080,-0.185
14.908,-0.065,-0.160
14.911,-0.045,-0.140
14.914,-0.015,-0.110
14.917,0.020,-0.080
14.919,0.055,-0.065
14.922,0.090,-0.040
14.925,0.120,-0.035
14.928,0.155,-0.010
14.931,0.195,0.000
14.933,0.230,0.025
14.936,0.245,0.030
14.939,0.300,0.085
14.942,0.350,0.155
14.944,0.450,0.225
14.947,0.590,0.320
14.950,0.760,0.435
14.953,0.970,0.550
14.956,1.215,0.675
14.958,1.465,0.780
14.961,1.695,0.835
14.964,1.905,0.815
14.967,2.030,0.710
14.969,2.035,0.550
14.972,1.885,0.360
14.975,1.580,0.170
14.978,1.145,0.005
14.981,0.570,-0.130
14.983,-0.060,-0.255
14.986,-0.615,-0.360
14.989,-1.010,-0.475
14.992,-1.165,-0.565
14.994,-1.125,-0.615
14.997,-0.930,-0.625
15.000,-0.705,-0.600
15.003,-0.495,-0.535
15.006,-0.315,-0.475
15.008,-0.220,-0.405
15.011,-0.160,-0.350
15.014,-0.175,-0.295
15.017,-0.215,-0.265
15.019,-0.245,-0.255
15.022,-0.265,-0.260
15.025,-0.275,-0.270
15.028,-0.265,-0.265
15.031,-0.255,-0.285
15.033,-0.245,-0.290
15.036,-0.245,-0.295
15.039,-0.240,-0.285
15.042,-0.225,-0.285
15.044,-0.225,-0.280
15.047,-0.210,-0.270
15.050,-0.200,-0.270
15.053,-0.200,-0.265
15.056,-0.200,-0.255
15.058,-0.215,-0.265
15.061,-0.225,-0.265
15.064,-0.245,-0.270
15.067,-0.250,-0.270
15.069,-0.250,-0.270
15.072,-0.230,-0.260
15.075,-0.210,-0.270
15.078,-0.205,-0.265
15.081,-0.200,-0.265
15.083,-0.205,-0.255
15.086,-0.205,-0.245
15.089,-0.200,-0.245
15.092,-0.190,-0.255
15.094,-0.200,-0.245
15.097,-0.205,-0.255
15.100,-0.255,-0.255
15.103,-0.260,-0.260
15.106,-0.285,-0.255
15.108,-0.285,-0.245
15.111,-0.280,-0.235
15.114,-0.250,-0.235
15.117,-0.230,-0.225
15.119,-0.210,-0.215
15.122,-0.205,-0.220
15.125,-0.190,-0.205
15.128,-0.185,-0.205
15.131,-0.195,-0.205
15.133,-0.200,-0.215
15.136,-0.195,-0.205
15.139,-0.195,-0.195
15.142,-0.180,-0.180
15.144,-0.180,-0.175
15.147,-0.170,-0.155
15.150,-0.150,-0.135
15.153,-0.130,-0.125
15.156,-0.110,-0.110
15.158,-0.100,-0.105
15.161,-0.110,-0.095
15.164,-0.100,-0.090
15.167,-0.095,-0.075
15.169,-0.095,-0.080
15.172,-0.100,-0.080
15.175,-0.100,-0.055
15.178,-0.085,-0.055
15.181,-0.080,-0.035
15.183,-0.065,-0.010
15.186,-0.060,-0.005
15.189,-0.045,0.000
15.192,-0.040,0.005
15.194,-0.040,0.005
15.197,-0.030,0.020
15.200,-0.040,0.015
15.203,-0.045,0.015
15.206,-0.055,0.015
15.208,-0.060,0.010
15.211,-0.055,0.025
15.214,-0.040,0.025
15.217,-0.030,0.030
15.219,-0.015,0.020
15.222,-0.010,0.020
15.225,-0.015,0.000
15.228,-0.005,-0.010
15.231,-0.025,-0.040
15.233,-0.040,-0.050
15.236,-0.060,-0.060
15.239,-0.075,-0.080
15.242,-0.085,-0.105
15.244,-0.090,-0.105
15.247,-0.100,-0.115
15.250,-0.100,-0.120
15.253,-0.095,-0.130
15.256,-0.100,-0.155
15.258,-0.110,-0.160
15.261,-0.125,-0.170
15.264,-0.135,-0.190
15.267,-0.140,-0.195
15.269,-0.160,-0.210
15.272,-0.165,-0.210
15.275,-0.175,-0.215
15.278,-0.170,-0.215
15.281,-0.160,-0.210
15.283,-0.160,-0.210
15.286,-0.175,-0.210
15.289,-0.165,-0.210
15.292,-0.170,-0.205
15.294,-0.175,-0.210
15.297,-0.175,-0.205
15.300,-0.185,-0.220
15.303,-0.185,-0.230
15.306,-0.190,-0.225
15.308,-0.195,-0.230
15.311,-0.200,-0.235
15.314,-0.195,-0.215
15.317,-0.180,-0.210
15.319,-0.170,-0.205
15.322,-0.170,-0.200
15.325,-0.155,-0.200
15.328,-0.160,-0.205
15.331,-0.160,-0.210
15.333,-0.165,-0.215
15.336,-0.175,-0.220
15.339,-0.175,-0.220
15.342,-0.180,-0.200
15.344,-0.170,-0.200
15.347,-0.165,-0.195
15.350,-0.155,-0.185
15.353,-0.145,-0.175
15.356,-0.150,-0.180
15.358,-0.140,-0.190
15.361,-0.155,-0.200
15.364,-0.150,-0.205
15.367,-0.160,-0.210
15.369,-0.160,-0.220
15.372,-0.160,-0.215
15.375,-0.170,-0.230
15.378,-0.175,-0.220
15.381,-0.165,-0.220
15.383,-0.160,-0.210
15.386,-0.165,-0.215
15.389,-0.145,-0.210
15.392,-0.150,-0.215
15.394,-0.160,-0.230
15.397,-0.170,-0.230
15.400,-0.185,-0.240
15.403,-0.190,-0.245
15.406,-0.205,-0.255
15.408,-0.215,-0.260
15.411,-0.205,-0.260
15.414,-0.195,-0.250
15.417,-0.200,-0.240
15.419,-0.200,-0.230
15.422,-0.195,-0.245
15.425,-0.200,-0.245
15.428,-0.195,-0.250
15.431,-0.200,-0.255
15.433,-0.195,-0.260
15.436,-0.205,-0.275
15.439,-0.220,-0.280
15.442,-0.225,-0.270
15.444,-0.235,-0.280
15.447,-0.225,-0.270
15.450,-0.235,-0.260
15.453,-0.225,-0.255
15.456,-0.220,-0.255
15.458,-0.225,-0.265
15.461,-0.235,-0.265
15.464,-0.240,-0.270
15.467,-0.265,-0.275
15.469,-0.260,-0.285
15.472,-0.265,-0.290
15.475,-0.270,-0.285
15.478,-0.280,-0.275
15.481,-0.280,-0.275
15.483,-0.255,-0.265
15.486,-0.240,-0.250
15.489,-0.245,-0.260
15.492,-0.245,-0.255
15.494,-0.250,-0.270
15.497,-0.250,-0.280
15.500,-0.260,-0.270
15.503,-0.265,-0.285
15.506,-0.275,-0.275
15.508,-0.270,-0.285
15.511,-0.275,-0.280
15.514,-0.270,-0.270
15.517,-0.270,-0.265
15.519,-0.255,-0.265
15.522,-0.245,-0.255
15.525,-0.245,-0.250
15.528,-0.230,-0.245
15.531,-0.225,-0.245
15.533,-0.230,-0.245
15.536,-0.215,-0.230
15.539,-0.205,-0.240
15.542,-0.200,-0.225
15.544,-0.190,-0.210
15.547,-0.175,-0.205
15.550,-0.155,-0.180
15.553,-0.145,-0.165
15.556,-0.120,-0.145
15.558,-0.110,-0.155
15.561,-0.105,-0.145
15.564,-0.115,-0.155
15.567,-0.120,-0.155
15.569,-0.130,-0.170
15.572,-0.155,-0.190
15.575,-0.145,-0.185
15.578,-0.160,-0.200
15.581,-0.160,-0.195
15.583,-0.155,-0.195
15.586,-0.150,-0.205
15.589,-0.160,-0.215
15.592,-0.180,-0.230
15.594,-0.200,-0.230
15.597,-0.215,-0.250
15.600,-0.230,-0.255
15.603,-0.240,-0.270
15.606,-0.255,-0.275
15.608,-0.255,-0.275
15.611,-0.260,-0.260
15.614,-0.280,-0.270
15.617,-0.285,-0.285
15.619,-0.300,-0.290
15.622,-0.300,-0.280
15.625,-0.300,-0.285
15.628,-0.295,-0.300
15.631,-0.305,-0.290
15.633,-0.315,-0.305
15.636,-0.325,-0.305
15.639,-0.335,-0.320
15.642,-0.345,-0.320
15.644,-0.350,-0.320
15.647,-0.350,-0.305
15.650,-0.350,-0.310
15.653,-0.355,-0.305
15.656,-0.355,-0.305
15.658,-0.360,-0.295
15.661,-0.360,-0.290
15.664,-0.370,-0.295
15.667,-0.345,-0.295
15.669,-0.350,-0.300
15.672,-0.340,-0.305
15.675,-0.335,-0.290
15.678,-0.335,-0.290
15.681,-0.315,-0.275
15.683,-0.305,-0.265
15.686,-0.285,-0.270
15.689,-0.265,-0.240
15.692,-0.260,-0.235
15.694,-0.240,-0.220
15.697,-0.225,-0.200
15.700,-0.205,-0.175
15.703,-0.160,-0.135
15.706,-0.080,-0.085
15.708,0.040,-0.010
15.711,0.195,0.075
15.714,0.400,0.185
15.717,0.640,0.290
15.719,0.890,0.380
15.722,1.125,0.405
15.725,1.310,0.355
15.728,1.445,0.225
15.731,1.470,0.015
15.733,1.375,-0.215
15.736,1.160,-0.440
15.739,0.815,-0.640
15.742,0.390,-0.785
15.744,-0.105,-0.885
15.747,-0.620,-0.955
15.750,-1.065,-1.000
15.753,-1.355,-1.050
15.756,-1.460,-1.050
15.758,-1.355,-1.020
15.761,-1.130,-0.960
15.764,-0.860,-0.880
15.767,-0.610,-0.780
15.769,-0.415,-0.660
15.772,-0.285,-0.545
15.775,-0.210,-0.410
15.778,-0.180,-0.310
15.781,-0.175,-0.225
15.783,-0.165,-0.175
15.786,-0.175,-0.140
15.789,-0.165,-0.130
15.792,-0.160,-0.125
15.794,-0.160,-0.115
15.797,-0.135,-0.115
15.800,-0.135,-0.110
15.803,-0.125,-0.115
15.806,-0.120,-0.095
15.808,-0.100,-0.095
15.811,-0.095,-0.070
15.814,-0.075,-0.070
15.817,-0.055,-0.055
15.819,-0.050,-0.045
15.822,-0.040,-0.040
15.825,-0.050,-0.045
15.828,-0.040,-0.045
15.831,-0.050,-0.055
15.833,-0.035,-0.055
15.836,-0.025,-0.060
15.839,-0.020,-0.075
15.842,-0.020,-0.055
15.844,-0.010,-0.035
15.847,0.010,-0.020
15.850,0.020,-0.005
15.853,0.035,0.015
15.856,0.045,0.030
15.858,0.055,0.020
15.861,0.060,0.020
15.864,0.055,0.025
15.867,0.055,0.015
15.869,0.060,0.025
15.872,0.055,0.030
15.875,0.060,0.050
15.878,0.065,0.055
15.881,0.085,0.080
15.883,0.075,0.115
15.886,0.095,0.130
15.889,0.105,0.140
15.892,0.115,0.160
15.894,0.130,0.175
15.897,0.125,0.190
15.900,0.125,0.200
15.903,0.125,0.210
15.906,0.130,0.230
15.908,0.150,0.250
15.911,0.165,0.280
15.914,0.185,0.315
15.917,0.195,0.340
15.919,0.220,0.355
15.922,0.245,0.375
15.925,0.255,0.395
15.928,0.270,0.410
15.931,0.265,0.415
15.933,0.260,0.435
15.936,0.260,0.435
15.939,0.275,0.460
15.942,0.280,0.465
15.944,0.295,0.485
15.947,0.320,0.505
15.950,0.345,0.515
15.953,0.360,0.515
15.956,0.380,0.520
15.958,0.390,0.520
15.961,0.395,0.520
15.964,0.395,0.510
15.967,0.375,0.500
15.969,0.370,0.490
15.972,0.360,0.480
15.975,0.355,0.480
15.978,0.345,0.475
15.981,0.340,0.465
15.983,0.340,0.445
15.986,0.345,0.445
15.989,0.340,0.435
15.992,0.340,0.405
15.994,0.335,0.375
15.997,0.320,0.340
16.000,0.305,0.305
16.003,0.285,0.260
16.006,0.265,0.215
16.008,0.245,0.180
16.011,0.215,0.150
16.014,0.195,0.120
16.017,0.190,0.095
16.019,0.180,0.065
16.022,0.160,0.035
16.025,0.125,0.000
16.028,0.110,-0.040
16.031,0.065,-0.060
16.033,0.025,-0.100
16.036,-0.010,-0.115
16.039,-0.035,-0.145
16.042,-0.070,-0.150
16.044,-0.095,-0.155
16.047,-0.100,-0.175
16.050,-0.115,-0.170
16.053,-0.125,-0.180
16.056,-0.120,-0.185
16.058,-0.130,-0.195
16.061,-0.135,-0.195
16.064,-0.130,-0.205
16.067,-0.140,-0.205
16.069,-0.140,-0.215
16.072,-0.160,-0.215
16.075,-0.160,-0.220
16.078,-0.155,-0.220
16.081,-0.160,-0.190
16.083,-0.155,-0.175
16.086,-0.135,-0.190
16.089,-0.135,-0.185
16.092,-0.140,-0.175
16.094,-0.160,-0.175
16.097,-0.160,-0.180
16.100,-0.175,-0.180
16.103,-0.195,-0.200
16.106,-0.200,-0.195
16.108,-0.210,-0.200
16.111,-0.230,-0.185
16.114,-0.220,-0.175
16.117,-0.220,-0.165
16.119,-0.220,-0.160
16.122,-0.225,-0.165
16.125,-0.220,-0.165
16.128,-0.220,-0.155
16.131,-0.230,-0.175
16.133,-0.235,-0.175
16.136,-0.245,-0.190
16.139,-0.260,-0.195
16.142,-0.260,-0.195
16.144,-0.240,-0.190
16.147,-0.220,-0.190
16.150,-0.200,-0.185
16.153,-0.200,-0.170
16.156,-0.185,-0.170
16.158,-0.175,-0.175
16.161,-0.170,-0.180
16.164,-0.170,-0.195
16.167,-0.175,-0.195
16.169,-0.185,-0.195
16.172,-0.185,-0.210
16.175,-0.190,-0.210
16.178,-0.190,-0.210
16.181,-0.180,-0.210
16.183,-0.195,-0.205
16.186,-0.210,-0.205
16.189,-0.195,-0.200
16.192,-0.210,-0.195
16.194,-0.210,-0.200
16.197,-0.225,-0.215
16.200,-0.225,-0.220
16.203,-0.230,-0.225
16.206,-0.230,-0.230
16.208,-0.225,-0.230
16.211,-0.230,-0.230
16.214,-0.225,-0.220
16.217,-0.220,-0.210
16.219,-0.195,-0.220
16.222,-0.200,-0.215
16.225,-0.190,-0.225
16.228,-0.185,-0.225
16.231,-0.195,-0.230
16.233,-0.205,-0.245
16.236,-0.200,-0.250
16.239,-0.195,-0.250
16.242,-0.205,-0.245
16.244,-0.185,-0.245
16.247,-0.190,-0.230
16.250,-0.185,-0.230
16.253,-0.180,-0.210
16.256,-0.160,-0.200
16.258,-0.165,-0.200
16.261,-0.155,-0.195
16.264,-0.150,-0.200
16.267,-0.140,-0.215
16.269,-0.140,-0.195
16.272,-0.130,-0.190
16.275,-0.135,-0.175
16.278,-0.125,-0.175
16.281,-0.115,-0.150
16.283,-0.100,-0.135
16.286,-0.085,-0.120
16.289,-0.070,-0.095
16.292,-0.055,-0.095
16.294,-0.055,-0.090
16.297,-0.060,-0.095
16.300,-0.080,-0.105
16.303,-0.085,-0.120
16.306,-0.100,-0.115
16.308,-0.130,-0.125
16.311,-0.145,-0.125
16.314,-0.150,-0.135
16.317,-0.145,-0.140
16.319,-0.140,-0.145
16.322,-0.140,-0.145
16.325,-0.155,-0.160
16.328,-0.180,-0.180
16.331,-0.195,-0.185
16.333,-0.210,-0.185
16.336,-0.215,-0.195
16.339,-0.225,-0.200
16.342,-0.230,-0.200
16.344,-0.235,-0.205
16.347,-0.245,-0.205
16.350,-0.260,-0.210
16.353,-0.265,-0.215
16.356,-0.270,-0.215
16.358,-0.275,-0.230
16.361,-0.260,-0.220
16.364,-0.255,-0.235
16.367,-0.265,-0.240
16.369,-0.275,-0.250
16.372,-0.265,-0.255
16.375,-0.270,-0.255
16.378,-0.280,-0.250
16.381,-0.285,-0.240
16.383,-0.280,-0.240
16.386,-0.270,-0.225
16.389,-0.255,-0.230
16.392,-0.260,-0.230
16.394,-0.260,-0.235
16.397,-0.270,-0.230
16.400,-0.280,-0.235
16.403,-0.280,-0.245
16.406,-0.280,-0.235
16.408,-0.285,-0.235
16.411,-0.280,-0.220
16.414,-0.280,-0.225
16.417,-0.260,-0.220
16.419,-0.250,-0.190
16.422,-0.250,-0.190
16.425,-0.245,-0.180
16.428,-0.250,-0.170
16.431,-0.235,-0.165
16.433,-0.230,-0.150
16.436,-0.200,-0.120
16.439,-0.155,-0.075
16.442,-0.065,-0.005
16.444,0.055,0.070
16.447,0.215,0.165
16.450,0.430,0.255
16.453,0.675,0.370
16.456,0.905,0.410
16.458,1.120,0.415
16.461,1.275,0.335
16.464,1.370,0.175
16.467,1.340,-0.035
16.469,1.180,-0.255
16.472,0.885,-0.445
16.475,0.470,-0.605
16.478,-0.020,-0.735
16.481,-0.555,-0.820
16.483,-1.045,-0.895
16.486,-1.390,-0.940
16.489,-1.530,-0.950
16.492,-1.435,-0.915
16.494,-1.180,-0.870
16.497,-0.890,-0.780
16.500,-0.595,-0.685
16.503,-0.370,-0.575
16.506,-0.215,-0.435
16.508,-0.135,-0.320
16.511,-0.105,-0.215
16.514,-0.115,-0.135
16.517,-0.120,-0.085
16.519,-0.150,-0.050
16.522,-0.160,-0.040
16.525,-0.165,-0.025
16.528,-0.170,-0.020
16.531,-0.170,-0.025
16.533,-0.185,-0.025
16.536,-0.205,-0.025
16.539,-0.205,-0.020
16.542,-0.200,0.015
16.544,-0.195,0.015
16.547,-0.200,0.030
16.550,-0.200,0.050
16.553,-0.200,0.065
16.556,-0.185,0.080
16.558,-0.190,0.065
